Data from c_1_dec_on_6n_019_Splice17_17.txt Node
Date: Sat Feb 29 13:17:31 EST 2020
User: sa697716
Spectrometer: FLMS03696
Trigger mode: 0
Integration Time (sec): 3.180400E-1
Scans to average: 20
Electric dark correction enabled: true
Nonlinearity correction enabled: true
Boxcar width: 5
XAxis mode: Wavelengths
Number of Pixels in Spectrum: 2048
>>>>>Begin Spectral Data<<<<<
187.83	32.61
188.298	10.01
188.766	17.82
189.233	12.12
189.701	27.55
190.169	38.32
190.636	51.22
191.104	44.22
191.571	148.08
192.039	136.9
192.506	-284.56
192.974	-1337.25
193.441	856.81
193.908	-30.54
194.375	-122.67
194.842	14.8
195.31	53.05
195.777	97.58
196.244	44.17
196.711	41.96
197.177	37.21
197.644	38.83
198.111	39.27
198.578	39.3
199.045	39.03
199.511	39.5
199.978	39.81
200.445	39.74
200.911	39.69
201.378	39.84
201.844	39.94
202.31	40.59
202.777	40.88
203.243	40.83
203.709	40.99
204.176	40.74
204.642	40.42
205.108	39.94
205.574	40.18
206.04	40.44
206.506	40.16
206.972	39.92
207.438	39.8
207.903	39.93
208.369	39.36
208.835	39.45
209.301	39.12
209.766	38.96
210.232	38.86
210.697	38.3
211.163	37.42
211.628	37.07
212.094	36.81
212.559	36.42
213.024	35.95
213.49	35.76
213.955	35.34
214.42	35.12
214.885	34.56
215.35	34.44
215.815	33.93
216.28	33.48
216.745	32.72
217.21	31.93
217.675	31.1
218.14	30.08
218.604	29.4
219.069	28.66
219.534	27.97
219.998	27.36
220.463	26.73
220.927	26.22
221.392	25.79
221.856	25.4
222.32	25.03
222.785	24.7
223.249	24.34
223.713	24
224.177	23.69
224.642	23.4
225.106	23.14
225.57	22.85
226.034	22.58
226.497	22.28
226.961	21.98
227.425	21.69
227.889	21.41
228.353	21.15
228.816	20.9
229.28	20.61
229.744	20.38
230.207	20.14
230.671	19.89
231.134	19.66
231.597	19.42
232.061	19.19
232.524	18.98
232.987	18.75
233.45	18.55
233.914	18.32
234.377	18.13
234.84	17.95
235.303	17.74
235.766	17.55
236.229	17.37
236.691	17.22
237.154	17.07
237.617	16.89
238.08	16.72
238.542	16.56
239.005	16.41
239.468	16.23
239.93	16.07
240.393	15.93
240.855	15.78
241.317	15.65
241.78	15.51
242.242	15.36
242.704	15.24
243.166	15.1
243.629	14.97
244.091	14.86
244.553	14.77
245.015	14.66
245.477	14.53
245.939	14.45
246.4	14.32
246.862	14.2
247.324	14.11
247.786	14
248.247	13.92
248.709	13.83
249.17	13.72
249.632	13.62
250.093	13.51
250.555	13.42
251.016	13.32
251.477	13.25
251.939	13.17
252.4	13.09
252.861	13.01
253.322	12.93
253.783	12.87
254.244	12.81
254.705	12.74
255.166	12.68
255.627	12.62
256.088	12.55
256.549	12.47
257.009	12.41
257.47	12.35
257.931	12.27
258.391	12.19
258.852	12.12
259.312	12.05
259.773	11.98
260.233	11.91
260.694	11.85
261.154	11.79
261.614	11.72
262.074	11.65
262.534	11.59
262.994	11.54
263.455	11.5
263.915	11.44
264.374	11.39
264.834	11.35
265.294	11.29
265.754	11.24
266.214	11.19
266.673	11.16
267.133	11.11
267.593	11.07
268.052	11.02
268.512	10.98
268.971	10.94
269.431	10.9
269.89	10.86
270.349	10.83
270.809	10.8
271.268	10.76
271.727	10.71
272.186	10.68
272.645	10.64
273.104	10.6
273.563	10.58
274.022	10.54
274.481	10.49
274.94	10.45
275.399	10.41
275.857	10.37
276.316	10.33
276.775	10.29
277.233	10.25
277.692	10.2
278.15	10.15
278.609	10.09
279.067	10.05
279.525	10
279.984	9.96
280.442	9.92
280.9	9.88
281.358	9.85
281.816	9.82
282.274	9.77
282.732	9.75
283.19	9.72
283.648	9.7
284.106	9.66
284.564	9.65
285.021	9.62
285.479	9.59
285.937	9.55
286.394	9.51
286.852	9.49
287.309	9.47
287.767	9.43
288.224	9.4
288.682	9.37
289.139	9.35
289.596	9.31
290.053	9.27
290.511	9.23
290.968	9.19
291.425	9.16
291.882	9.13
292.339	9.09
292.796	9.06
293.252	9.03
293.709	8.99
294.166	8.97
294.623	8.93
295.079	8.92
295.536	8.89
295.992	8.87
296.449	8.84
296.905	8.8
297.362	8.77
297.818	8.75
298.274	8.72
298.731	8.69
299.187	8.67
299.643	8.65
300.099	8.62
300.555	8.6
301.011	8.57
301.467	8.54
301.923	8.53
302.379	8.5
302.835	8.48
303.291	8.46
303.746	8.44
304.202	8.41
304.658	8.38
305.113	8.36
305.569	8.35
306.024	8.33
306.479	8.32
306.935	8.31
307.39	8.3
307.845	8.28
308.301	8.28
308.756	8.28
309.211	8.28
309.666	8.28
310.121	8.27
310.576	8.25
311.031	8.24
311.486	8.23
311.94	8.21
312.395	8.19
312.85	8.18
313.305	8.17
313.759	8.15
314.214	8.13
314.668	8.12
315.123	8.12
315.577	8.12
316.032	8.1
316.486	8.09
316.94	8.07
317.394	8.06
317.849	8.05
318.303	8.04
318.757	8.02
319.211	7.99
319.665	7.98
320.119	7.94
320.572	7.93
321.026	7.91
321.48	7.9
321.934	7.89
322.387	7.89
322.841	7.87
323.295	7.86
323.748	7.84
324.202	7.84
324.655	7.81
325.108	7.79
325.562	7.77
326.015	7.76
326.468	7.73
326.921	7.72
327.374	7.69
327.827	7.67
328.28	7.65
328.733	7.64
329.186	7.63
329.639	7.61
330.092	7.6
330.545	7.6
330.997	7.59
331.45	7.58
331.903	7.56
332.355	7.56
332.808	7.56
333.26	7.54
333.713	7.53
334.165	7.53
334.617	7.52
335.069	7.52
335.522	7.51
335.974	7.5
336.426	7.51
336.878	7.5
337.33	7.49
337.782	7.47
338.234	7.47
338.686	7.45
339.137	7.45
339.589	7.44
340.041	7.42
340.493	7.4
340.944	7.39
341.396	7.37
341.847	7.36
342.299	7.34
342.75	7.33
343.201	7.3
343.653	7.29
344.104	7.27
344.555	7.25
345.006	7.24
345.457	7.22
345.908	7.21
346.359	7.2
346.81	7.2
347.261	7.18
347.712	7.17
348.163	7.16
348.613	7.15
349.064	7.12
349.515	7.11
349.965	7.09
350.416	7.08
350.866	7.06
351.317	7.05
351.767	7.03
352.217	7.01
352.668	7.01
353.118	7
353.568	7
354.018	7.01
354.468	6.99
354.918	7
355.368	6.99
355.818	6.99
356.268	6.99
356.718	6.99
357.168	6.98
357.617	6.97
358.067	6.96
358.517	6.95
358.966	6.94
359.416	6.94
359.865	6.94
360.315	6.93
360.764	6.93
361.213	6.92
361.663	6.91
362.112	6.92
362.561	6.92
363.01	6.92
363.459	6.91
363.908	6.91
364.357	6.91
364.806	6.9
365.255	6.9
365.703	6.89
366.152	6.88
366.601	6.88
367.05	6.88
367.498	6.87
367.947	6.88
368.395	6.89
368.844	6.89
369.292	6.89
369.74	6.89
370.189	6.89
370.637	6.9
371.085	6.9
371.533	6.9
371.981	6.9
372.429	6.88
372.877	6.87
373.325	6.85
373.773	6.85
374.221	6.84
374.669	6.84
375.116	6.82
375.564	6.81
376.012	6.81
376.459	6.81
376.907	6.82
377.354	6.83
377.801	6.83
378.249	6.85
378.696	6.85
379.143	6.85
379.591	6.85
380.038	6.87
380.485	6.88
380.932	6.89
381.379	6.88
381.826	6.88
382.273	6.9
382.72	6.92
383.166	6.93
383.613	6.94
384.06	6.95
384.506	6.96
384.953	6.97
385.4	6.97
385.846	6.97
386.292	6.99
386.739	6.99
387.185	6.99
387.631	6.99
388.078	7
388.524	6.99
388.97	6.99
389.416	7
389.862	7.01
390.308	7.02
390.754	7.03
391.2	7.05
391.645	7.08
392.091	7.08
392.537	7.09
392.983	7.11
393.428	7.14
393.874	7.17
394.319	7.17
394.765	7.17
395.21	7.18
395.655	7.19
396.101	7.19
396.546	7.2
396.991	7.22
397.436	7.21
397.881	7.22
398.326	7.23
398.771	7.25
399.216	7.27
399.661	7.31
400.106	7.34
400.551	7.36
400.995	7.37
401.44	7.37
401.885	7.37
402.329	7.38
402.774	7.38
403.218	7.37
403.663	7.35
404.107	7.35
404.551	7.34
404.995	7.33
405.44	7.33
405.884	7.34
406.328	7.35
406.772	7.37
407.216	7.38
407.66	7.39
408.104	7.4
408.547	7.41
408.991	7.4
409.435	7.39
409.879	7.4
410.322	7.41
410.766	7.42
411.209	7.43
411.653	7.44
412.096	7.44
412.54	7.44
412.983	7.44
413.426	7.47
413.869	7.49
414.312	7.5
414.756	7.52
415.199	7.54
415.642	7.56
416.085	7.56
416.527	7.57
416.97	7.58
417.413	7.58
417.856	7.57
418.298	7.55
418.741	7.55
419.184	7.56
419.626	7.56
420.069	7.53
420.511	7.51
420.953	7.51
421.396	7.5
421.838	7.5
422.28	7.52
422.722	7.55
423.164	7.55
423.606	7.55
424.048	7.54
424.49	7.54
424.932	7.54
425.374	7.54
425.816	7.54
426.258	7.53
426.699	7.49
427.141	7.46
427.582	7.47
428.024	7.48
428.465	7.49
428.907	7.51
429.348	7.52
429.789	7.52
430.231	7.51
430.672	7.52
431.113	7.53
431.554	7.58
431.995	7.6
432.436	7.59
432.877	7.57
433.318	7.56
433.759	7.54
434.2	7.54
434.64	7.55
435.081	7.56
435.522	7.58
435.962	7.59
436.403	7.6
436.843	7.61
437.284	7.63
437.724	7.67
438.164	7.68
438.604	7.72
439.045	7.73
439.485	7.74
439.925	7.74
440.365	7.74
440.805	7.74
441.245	7.72
441.685	7.74
442.125	7.75
442.564	7.75
443.004	7.76
443.444	7.76
443.883	7.77
444.323	7.78
444.762	7.81
445.202	7.84
445.641	7.85
446.081	7.91
446.52	7.92
446.959	7.92
447.398	7.96
447.837	7.99
448.276	7.98
448.716	7.99
449.154	8.03
449.593	8.04
450.032	8.04
450.471	8.06
450.91	8.05
451.349	8.07
451.787	8.07
452.226	8.04
452.664	8.04
453.103	8.05
453.541	8.06
453.98	8.02
454.418	8.03
454.856	8.02
455.295	8.02
455.733	8.01
456.171	8.01
456.609	8.01
457.047	8.01
457.485	8
457.923	7.99
458.361	7.97
458.798	7.98
459.236	7.98
459.674	7.98
460.111	7.98
460.549	7.96
460.987	7.95
461.424	7.95
461.862	7.94
462.299	7.93
462.736	7.95
463.173	7.96
463.611	7.96
464.048	7.96
464.485	7.96
464.922	7.96
465.359	7.97
465.796	7.94
466.233	7.96
466.67	7.98
467.106	7.97
467.543	7.96
467.98	7.96
468.416	7.98
468.853	7.96
469.29	7.97
469.726	7.97
470.162	7.98
470.599	7.99
471.035	7.98
471.471	7.96
471.907	7.98
472.344	7.98
472.78	7.97
473.216	7.95
473.652	7.95
474.088	7.94
474.523	7.94
474.959	7.92
475.395	7.91
475.831	7.9
476.266	7.91
476.702	7.91
477.138	7.89
477.573	7.87
478.008	7.87
478.444	7.85
478.879	7.84
479.314	7.83
479.75	7.84
480.185	7.82
480.62	7.83
481.055	7.82
481.49	7.82
481.925	7.81
482.36	7.81
482.795	7.79
483.229	7.78
483.664	7.78
484.099	7.78
484.534	7.77
484.968	7.77
485.403	7.78
485.837	7.78
486.271	7.78
486.706	7.78
487.14	7.79
487.574	7.8
488.009	7.83
488.443	7.84
488.877	7.85
489.311	7.86
489.745	7.87
490.179	7.88
490.613	7.88
491.046	7.9
491.48	7.93
491.914	7.95
492.348	7.96
492.781	7.97
493.215	7.99
493.648	8.02
494.082	8.05
494.515	8.08
494.948	8.12
495.382	8.16
495.815	8.2
496.248	8.25
496.681	8.28
497.114	8.34
497.547	8.4
497.98	8.46
498.413	8.51
498.846	8.58
499.279	8.66
499.711	8.73
500.144	8.8
500.577	8.87
501.009	8.96
501.442	9.05
501.874	9.14
502.306	9.25
502.739	9.34
503.171	9.46
503.603	9.58
504.036	9.7
504.468	9.84
504.9	10
505.332	10.15
505.764	10.31
506.196	10.48
506.627	10.65
507.059	10.82
507.491	11.02
507.923	11.22
508.354	11.41
508.786	11.63
509.217	11.82
509.649	12.04
510.08	12.28
510.512	12.51
510.943	12.77
511.374	13.03
511.805	13.29
512.237	13.55
512.668	13.82
513.099	14.11
513.53	14.39
513.961	14.69
514.391	14.98
514.822	15.27
515.253	15.59
515.684	15.87
516.114	16.2
516.545	16.52
516.975	16.84
517.406	17.18
517.836	17.48
518.267	17.82
518.697	18.15
519.127	18.49
519.558	18.82
519.988	19.14
520.418	19.47
520.848	19.77
521.278	20.1
521.708	20.39
522.138	20.69
522.567	21
522.997	21.29
523.427	21.58
523.857	21.86
524.286	22.15
524.716	22.43
525.145	22.7
525.575	22.97
526.004	23.2
526.433	23.46
526.863	23.7
527.292	23.92
527.721	24.13
528.15	24.33
528.579	24.53
529.008	24.71
529.437	24.88
529.866	25.04
530.295	25.22
530.724	25.4
531.152	25.55
531.581	25.7
532.01	25.85
532.438	26.01
532.867	26.14
533.295	26.25
533.723	26.39
534.152	26.5
534.58	26.6
535.008	26.66
535.436	26.74
535.865	26.81
536.293	26.89
536.721	26.96
537.149	27.01
537.576	27.07
538.004	27.13
538.432	27.16
538.86	27.21
539.287	27.27
539.715	27.32
540.143	27.35
540.57	27.4
540.998	27.42
541.425	27.46
541.852	27.47
542.28	27.5
542.707	27.56
543.134	27.62
543.561	27.65
543.988	27.68
544.415	27.71
544.842	27.76
545.269	27.79
545.696	27.82
546.123	27.84
546.549	27.88
546.976	27.92
547.403	27.92
547.829	27.91
548.256	27.93
548.682	27.95
549.108	27.98
549.535	27.98
549.961	27.99
550.387	27.99
550.813	27.97
551.24	27.95
551.666	27.93
552.092	27.92
552.518	27.89
552.943	27.85
553.369	27.83
553.795	27.77
554.221	27.72
554.646	27.67
555.072	27.59
555.498	27.55
555.923	27.49
556.349	27.4
556.774	27.33
557.199	27.27
557.625	27.16
558.05	27.05
558.475	26.96
558.9	26.87
559.325	26.76
559.75	26.65
560.175	26.52
560.6	26.4
561.025	26.29
561.449	26.13
561.874	25.98
562.299	25.84
562.723	25.69
563.148	25.51
563.572	25.34
563.997	25.17
564.421	24.99
564.846	24.81
565.27	24.63
565.694	24.42
566.118	24.24
566.542	24.06
566.966	23.88
567.39	23.7
567.814	23.51
568.238	23.32
568.662	23.12
569.086	22.96
569.509	22.76
569.933	22.56
570.357	22.37
570.78	22.18
571.204	21.98
571.627	21.79
572.05	21.63
572.474	21.45
572.897	21.28
573.32	21.1
573.743	20.93
574.166	20.77
574.589	20.61
575.012	20.47
575.435	20.32
575.858	20.19
576.281	20.04
576.704	19.91
577.126	19.79
577.549	19.66
577.972	19.55
578.394	19.41
578.817	19.29
579.239	19.18
579.661	19.06
580.084	18.97
580.506	18.86
580.928	18.75
581.35	18.65
581.772	18.57
582.194	18.48
582.616	18.39
583.038	18.31
583.46	18.24
583.882	18.17
584.303	18.09
584.725	18.01
585.147	17.91
585.568	17.81
585.99	17.73
586.411	17.63
586.833	17.56
587.254	17.49
587.675	17.43
588.096	17.35
588.518	17.28
588.939	17.22
589.36	17.18
589.781	17.14
590.202	17.09
590.623	17.03
591.043	16.99
591.464	16.92
591.885	16.88
592.305	16.84
592.726	16.81
593.147	16.78
593.567	16.74
593.987	16.69
594.408	16.64
594.828	16.62
595.248	16.6
595.669	16.56
596.089	16.53
596.509	16.48
596.929	16.45
597.349	16.4
597.769	16.35
598.189	16.32
598.608	16.27
599.028	16.23
599.448	16.2
599.867	16.14
600.287	16.1
600.706	16.04
601.126	15.99
601.545	15.94
601.965	15.89
602.384	15.84
602.803	15.76
603.222	15.7
603.641	15.64
604.061	15.55
604.48	15.48
604.898	15.41
605.317	15.35
605.736	15.28
606.155	15.21
606.574	15.13
606.992	15.04
607.411	14.99
607.829	14.88
608.248	14.8
608.666	14.73
609.085	14.66
609.503	14.57
609.921	14.48
610.339	14.39
610.758	14.3
611.176	14.22
611.594	14.13
612.012	14.04
612.43	14
612.847	13.94
613.265	13.86
613.683	13.78
614.101	13.7
614.518	13.63
614.936	13.54
615.353	13.47
615.771	13.4
616.188	13.34
616.606	13.28
617.023	13.21
617.44	13.13
617.857	13.07
618.274	13.02
618.691	12.97
619.108	12.92
619.525	12.89
619.942	12.83
620.359	12.8
620.776	12.76
621.192	12.72
621.609	12.69
622.026	12.66
622.442	12.62
622.859	12.6
623.275	12.59
623.691	12.57
624.108	12.55
624.524	12.53
624.94	12.52
625.356	12.5
625.772	12.5
626.188	12.49
626.604	12.47
627.02	12.48
627.436	12.47
627.852	12.44
628.268	12.43
628.683	12.42
629.099	12.41
629.514	12.39
629.93	12.36
630.345	12.33
630.761	12.29
631.176	12.26
631.591	12.21
632.007	12.17
632.422	12.14
632.837	12.09
633.252	12.02
633.667	11.97
634.082	11.9
634.497	11.83
634.911	11.75
635.326	11.68
635.741	11.59
636.155	11.5
636.57	11.41
636.984	11.31
637.399	11.18
637.813	11.07
638.228	10.96
638.642	10.85
639.056	10.75
639.47	10.66
639.884	10.55
640.298	10.44
640.712	10.35
641.126	10.23
641.54	10.13
641.954	10.06
642.368	9.98
642.781	9.89
643.195	9.79
643.609	9.68
644.022	9.59
644.436	9.49
644.849	9.41
645.262	9.34
645.676	9.27
646.089	9.19
646.502	9.11
646.915	9.05
647.328	9
647.741	8.96
648.154	8.93
648.567	8.89
648.98	8.87
649.393	8.83
649.805	8.79
650.218	8.77
650.631	8.74
651.043	8.7
651.456	8.69
651.868	8.65
652.28	8.62
652.693	8.58
653.105	8.54
653.517	8.5
653.929	8.48
654.341	8.44
654.753	8.39
655.165	8.36
655.577	8.32
655.989	8.27
656.401	8.23
656.813	8.18
657.224	8.13
657.636	8.08
658.047	8.02
658.459	7.97
658.87	7.92
659.282	7.9
659.693	7.85
660.104	7.8
660.515	7.75
660.926	7.72
661.338	7.67
661.749	7.64
662.159	7.61
662.57	7.57
662.981	7.54
663.392	7.49
663.803	7.46
664.213	7.43
664.624	7.41
665.035	7.38
665.445	7.36
665.855	7.36
666.266	7.35
666.676	7.33
667.086	7.33
667.497	7.31
667.907	7.31
668.317	7.31
668.727	7.3
669.137	7.3
669.547	7.32
669.956	7.32
670.366	7.32
670.776	7.32
671.186	7.33
671.595	7.35
672.005	7.38
672.414	7.4
672.824	7.43
673.233	7.45
673.642	7.47
674.052	7.49
674.461	7.51
674.87	7.54
675.279	7.57
675.688	7.59
676.097	7.62
676.506	7.64
676.915	7.68
677.323	7.72
677.732	7.76
678.141	7.81
678.549	7.86
678.958	7.92
679.366	7.97
679.775	8.03
680.183	8.09
680.592	8.16
681	8.22
681.408	8.28
681.816	8.35
682.224	8.41
682.632	8.48
683.04	8.55
683.448	8.64
683.856	8.73
684.264	8.84
684.671	8.96
685.079	9.1
685.487	9.27
685.894	9.44
686.302	9.62
686.709	9.85
687.116	10.07
687.524	10.34
687.931	10.62
688.338	10.94
688.745	11.27
689.152	11.64
689.559	12.03
689.966	12.46
690.373	12.92
690.78	13.39
691.187	13.91
691.593	14.44
692	15
692.407	15.57
692.813	16.18
693.22	16.8
693.626	17.43
694.032	18.1
694.439	18.76
694.845	19.43
695.251	20.14
695.657	20.82
696.063	21.54
696.469	22.27
696.875	22.97
697.281	23.68
697.687	24.42
698.093	25.14
698.498	25.84
698.904	26.56
699.31	27.28
699.715	27.97
700.12	28.67
700.526	29.38
700.931	30.04
701.337	30.73
701.742	31.38
702.147	32.05
702.552	32.72
702.957	33.37
703.362	34.03
703.767	34.66
704.172	35.31
704.577	35.91
704.981	36.54
705.386	37.16
705.791	37.77
706.195	38.37
706.6	38.96
707.004	39.52
707.408	40.08
707.813	40.62
708.217	41.15
708.621	41.69
709.025	42.26
709.43	42.78
709.834	43.31
710.237	43.83
710.641	44.37
711.045	44.83
711.449	45.34
711.853	45.83
712.256	46.31
712.66	46.8
713.064	47.27
713.467	47.72
713.87	48.14
714.274	48.63
714.677	49.04
715.08	49.47
715.484	49.94
715.887	50.37
716.29	50.8
716.693	51.22
717.096	51.63
717.499	52.03
717.901	52.4
718.304	52.81
718.707	53.15
719.109	53.54
719.512	53.93
719.915	54.27
720.317	54.61
720.719	54.92
721.122	55.24
721.524	55.56
721.926	55.9
722.328	56.23
722.731	56.52
723.133	56.82
723.535	57.13
723.937	57.37
724.338	57.62
724.74	57.87
725.142	58.05
725.544	58.27
725.945	58.53
726.347	58.75
726.748	58.93
727.15	59.14
727.551	59.33
727.952	59.52
728.354	59.76
728.755	59.95
729.156	60.15
729.557	60.43
729.958	60.67
730.359	60.82
730.76	60.98
731.161	61.18
731.562	61.33
731.962	61.52
732.363	61.66
732.763	61.8
733.164	61.92
733.564	62.03
733.965	62.16
734.365	62.2
734.766	62.31
735.166	62.38
735.566	62.43
735.966	62.51
736.366	62.55
736.766	62.63
737.166	62.71
737.566	62.79
737.966	62.87
738.365	62.9
738.765	62.99
739.165	63.05
739.564	63.15
739.964	63.21
740.363	63.26
740.763	63.33
741.162	63.39
741.561	63.43
741.96	63.49
742.36	63.57
742.759	63.61
743.158	63.66
743.557	63.73
743.955	63.78
744.354	63.88
744.753	63.98
745.152	64.01
745.55	64.02
745.949	64.05
746.348	64.1
746.746	64.13
747.144	64.2
747.543	64.24
747.941	64.29
748.339	64.34
748.737	64.37
749.136	64.39
749.534	64.45
749.932	64.52
750.33	64.6
750.727	64.62
751.125	64.65
751.523	64.65
751.921	64.68
752.318	64.69
752.716	64.71
753.113	64.69
753.511	64.67
753.908	64.66
754.305	64.61
754.703	64.53
755.1	64.53
755.497	64.53
755.894	64.54
756.291	64.52
756.688	64.49
757.085	64.42
757.482	64.43
757.878	64.43
758.275	64.43
758.672	64.47
759.068	64.51
759.465	64.5
759.861	64.48
760.258	64.46
760.654	64.46
761.05	64.44
761.447	64.47
761.843	64.43
762.239	64.43
762.635	64.4
763.031	64.4
763.427	64.32
763.822	64.3
764.218	64.28
764.614	64.27
765.01	64.25
765.405	64.25
765.801	64.22
766.196	64.21
766.592	64.19
766.987	64.23
767.382	64.22
767.778	64.29
768.173	64.3
768.568	64.29
768.963	64.32
769.358	64.32
769.753	64.35
770.148	64.36
770.542	64.37
770.937	64.33
771.332	64.29
771.726	64.26
772.121	64.2
772.515	64.18
772.91	64.19
773.304	64.18
773.699	64.18
774.093	64.12
774.487	64.13
774.881	64.15
775.275	64.18
775.669	64.16
776.063	64.13
776.457	64.13
776.851	64.11
777.245	64.1
777.638	64.05
778.032	64.06
778.425	64.09
778.819	64.08
779.212	64.01
779.606	64.02
779.999	64.02
780.392	64.06
780.786	64.1
781.179	64.13
781.572	64.14
781.965	64.18
782.358	64.16
782.751	64.17
783.143	64.2
783.536	64.28
783.929	64.29
784.322	64.33
784.714	64.32
785.107	64.34
785.499	64.33
785.891	64.34
786.284	64.31
786.676	64.36
787.068	64.34
787.46	64.31
787.852	64.3
788.245	64.31
788.636	64.31
789.028	64.32
789.42	64.31
789.812	64.31
790.204	64.28
790.595	64.3
790.987	64.29
791.378	64.29
791.77	64.31
792.161	64.29
792.553	64.31
792.944	64.31
793.335	64.35
793.726	64.31
794.117	64.3
794.508	64.32
794.899	64.27
795.29	64.25
795.681	64.23
796.072	64.22
796.463	64.19
796.853	64.17
797.244	64.15
797.634	64.1
798.025	64.12
798.415	64.15
798.806	64.16
799.196	64.22
799.586	64.2
799.976	64.25
800.366	64.25
800.756	64.28
801.146	64.31
801.536	64.34
801.926	64.32
802.316	64.33
802.706	64.33
803.095	64.35
803.485	64.33
803.874	64.39
804.264	64.41
804.653	64.42
805.043	64.39
805.432	64.36
805.821	64.32
806.21	64.37
806.599	64.4
806.988	64.4
807.377	64.4
807.766	64.42
808.155	64.38
808.544	64.33
808.933	64.35
809.321	64.39
809.71	64.38
810.098	64.39
810.487	64.36
810.875	64.33
811.264	64.31
811.652	64.3
812.04	64.29
812.428	64.31
812.816	64.36
813.204	64.35
813.592	64.33
813.98	64.34
814.368	64.36
814.756	64.37
815.144	64.41
815.531	64.46
815.919	64.47
816.306	64.47
816.694	64.48
817.081	64.46
817.469	64.5
817.856	64.57
818.243	64.57
818.63	64.61
819.017	64.65
819.404	64.61
819.791	64.61
820.178	64.64
820.565	64.67
820.952	64.7
821.339	64.73
821.725	64.72
822.112	64.71
822.498	64.72
822.885	64.72
823.271	64.74
823.657	64.79
824.044	64.78
824.43	64.78
824.816	64.75
825.202	64.73
825.588	64.73
825.974	64.75
826.36	64.75
826.746	64.8
827.132	64.78
827.517	64.75
827.903	64.74
828.289	64.76
828.674	64.77
829.06	64.8
829.445	64.83
829.83	64.82
830.216	64.83
830.601	64.8
830.986	64.78
831.371	64.84
831.756	64.83
832.141	64.85
832.526	64.83
832.911	64.86
833.295	64.87
833.68	64.87
834.065	64.88
834.449	64.84
834.834	64.85
835.218	64.82
835.603	64.78
835.987	64.78
836.371	64.78
836.755	64.8
837.139	64.79
837.524	64.78
837.908	64.72
838.291	64.71
838.675	64.76
839.059	64.77
839.443	64.78
839.827	64.82
840.21	64.88
840.594	64.86
840.977	64.81
841.361	64.82
841.744	64.81
842.127	64.83
842.511	64.81
842.894	64.76
843.277	64.79
843.66	64.82
844.043	64.79
844.426	64.73
844.809	64.73
845.191	64.74
845.574	64.71
845.957	64.68
846.339	64.68
846.722	64.69
847.104	64.71
847.487	64.69
847.869	64.67
848.252	64.67
848.634	64.71
849.016	64.74
849.398	64.75
849.78	64.74
850.162	64.79
850.544	64.8
850.926	64.81
851.307	64.83
851.689	64.79
852.071	64.8
852.452	64.81
852.834	64.76
853.215	64.73
853.597	64.74
853.978	64.73
854.359	64.71
854.741	64.72
855.122	64.72
855.503	64.69
855.884	64.71
856.265	64.7
856.646	64.69
857.026	64.72
857.407	64.7
857.788	64.71
858.169	64.76
858.549	64.79
858.93	64.79
859.31	64.79
859.69	64.79
860.071	64.79
860.451	64.79
860.831	64.78
861.211	64.74
861.591	64.77
861.971	64.74
862.351	64.73
862.731	64.71
863.111	64.68
863.491	64.7
863.87	64.7
864.25	64.71
864.629	64.73
865.009	64.74
865.388	64.76
865.768	64.74
866.147	64.78
866.526	64.77
866.905	64.78
867.284	64.81
867.663	64.79
868.042	64.78
868.421	64.77
868.8	64.74
869.179	64.75
869.558	64.75
869.936	64.73
870.315	64.7
870.693	64.72
871.072	64.7
871.45	64.68
871.828	64.68
872.207	64.7
872.585	64.7
872.963	64.71
873.341	64.71
873.719	64.72
874.097	64.76
874.475	64.77
874.853	64.76
875.23	64.75
875.608	64.75
875.986	64.74
876.363	64.75
876.741	64.74
877.118	64.74
877.495	64.72
877.873	64.7
878.25	64.67
878.627	64.69
879.004	64.69
879.381	64.69
879.758	64.65
880.135	64.66
880.512	64.62
880.889	64.62
881.265	64.65
881.642	64.64
882.019	64.66
882.395	64.67
882.772	64.64
883.148	64.63
883.524	64.67
883.901	64.68
884.277	64.66
884.653	64.68
885.029	64.69
885.405	64.68
885.781	64.69
886.157	64.68
886.532	64.68
886.908	64.7
887.284	64.73
887.659	64.74
888.035	64.74
888.411	64.74
888.786	64.75
889.161	64.74
889.537	64.75
889.912	64.73
890.287	64.74
890.662	64.74
891.037	64.7
891.412	64.66
891.787	64.63
892.162	64.62
892.536	64.65
892.911	64.63
893.286	64.62
893.66	64.58
894.035	64.58
894.409	64.57
894.784	64.55
895.158	64.56
895.532	64.55
895.906	64.55
896.281	64.57
896.655	64.54
897.029	64.53
897.402	64.52
897.776	64.51
898.15	64.5
898.524	64.49
898.898	64.47
899.271	64.46
899.645	64.47
900.018	64.43
900.392	64.39
900.765	64.38
901.138	64.39
901.511	64.41
901.884	64.42
902.258	64.46
902.631	64.47
903.003	64.52
903.376	64.53
903.749	64.52
904.122	64.55
904.495	64.56
904.867	64.53
905.24	64.5
905.612	64.48
905.985	64.45
906.357	64.4
906.729	64.35
907.102	64.28
907.474	64.27
907.846	64.21
908.218	64.14
908.59	64.11
908.962	64.09
909.334	64.09
909.705	64.06
910.077	64.04
910.449	64.04
910.82	64.04
911.192	64.04
911.563	63.99
911.935	63.96
912.306	64
912.677	63.99
913.048	63.98
913.419	63.94
913.79	63.95
914.161	63.96
914.532	63.9
914.903	63.87
915.274	63.85
915.645	63.88
916.015	63.91
916.386	63.87
916.756	63.86
917.127	63.87
917.497	63.85
917.868	63.82
918.238	63.8
918.608	63.84
918.978	63.83
919.348	63.79
919.718	63.76
920.088	63.74
920.458	63.77
920.828	63.74
921.198	63.72
921.567	63.69
921.937	63.67
922.306	63.64
922.676	63.62
923.045	63.61
923.415	63.6
923.784	63.58
924.153	63.56
924.522	63.47
924.891	63.48
925.26	63.48
925.629	63.48
925.998	63.48
926.367	63.49
926.736	63.42
927.104	63.39
927.473	63.35
927.842	63.34
928.21	63.39
928.578	63.39
928.947	63.36
929.315	63.35
929.683	63.35
930.051	63.3
930.42	63.27
930.788	63.3
931.156	63.27
931.523	63.23
931.891	63.13
932.259	62.96
932.627	62.91
932.994	62.86
933.362	62.69
933.729	62.56
934.097	62.55
934.464	62.48
934.831	62.39
935.199	62.33
935.566	62.26
935.933	62.23
936.3	62.16
936.667	62.12
937.034	61.95
937.401	61.97
937.767	61.94
938.134	61.83
938.501	61.75
938.867	61.72
939.234	61.75
939.6	61.77
939.967	61.8
940.333	61.93
940.699	62.02
941.065	62.19
941.431	62.25
941.798	62.35
942.163	62.5
942.529	62.53
942.895	62.58
943.261	62.55
943.627	62.65
943.992	62.71
944.358	62.75
944.723	62.73
945.089	62.83
945.454	62.88
945.82	62.89
946.185	62.92
946.55	63.06
946.915	63.11
947.28	63.24
947.645	63.21
948.01	63.14
948.375	63.24
948.74	63.24
949.104	63.22
949.469	63.14
949.834	63.15
950.198	63.02
950.562	62.92
950.927	62.87
951.291	62.83
951.655	62.82
952.02	62.89
952.384	62.86
952.748	62.84
953.112	62.77
953.476	62.75
953.839	62.66
954.203	62.64
954.567	62.67
954.931	62.69
955.294	62.6
955.658	62.48
956.021	62.36
956.385	62.26
956.748	62.23
957.111	62.2
957.474	62.17
957.837	62.22
958.2	62.16
958.563	62.04
958.926	61.94
959.289	61.9
959.652	61.92
960.015	61.91
960.377	61.84
960.74	61.85
961.102	61.83
961.465	61.84
961.827	61.75
962.189	61.79
962.552	61.74
962.914	61.69
963.276	61.71
963.638	61.65
964	61.61
964.362	61.66
964.724	61.65
965.085	61.59
965.447	61.49
965.809	61.48
966.17	61.47
966.532	61.53
966.893	61.47
967.255	61.44
967.616	61.56
967.977	61.61
968.338	61.53
968.699	61.43
969.061	61.45
969.421	61.54
969.782	61.55
970.143	61.49
970.504	61.38
970.865	61.4
971.225	61.31
971.586	61.28
971.946	61.23
972.307	61.16
972.667	61.16
973.027	61.08
973.388	60.97
973.748	60.94
974.108	60.91
974.468	60.93
974.828	60.99
975.188	61.03
975.548	60.99
975.907	60.96
976.267	61.09
976.627	61.02
976.986	61.01
977.346	60.98
977.705	61.04
978.064	61.04
978.424	61.01
978.783	60.98
979.142	60.93
979.501	60.87
979.86	60.83
980.219	60.67
980.578	60.71
980.937	60.75
981.296	60.75
981.654	60.68
982.013	60.63
982.371	60.6
982.73	60.54
983.088	60.53
983.447	60.58
983.805	60.6
984.163	60.7
984.521	60.56
984.879	60.5
985.237	60.58
985.595	60.52
985.953	60.54
986.311	60.66
986.669	60.69
987.026	60.74
987.384	60.62
987.741	60.69
988.099	60.73
988.456	60.91
988.814	60.96
989.171	60.88
989.528	60.88
989.885	60.84
990.242	60.8
990.599	60.75
990.956	60.77
991.313	60.82
991.67	60.7
992.027	60.54
992.383	60.42
992.74	60.32
993.096	60.34
993.453	60.38
993.809	60.38
994.165	60.37
994.522	60.43
994.878	60.3
995.234	60.2
995.59	60.1
995.946	60.2
996.302	60.16
996.658	60.15
997.013	60.16
997.369	60.1
997.725	60.15
998.08	60
998.436	60.06
998.791	59.94
999.147	59.94
999.502	60
999.857	60.07
1000.212	60.07
1000.567	60.1
1000.922	60.12
1001.277	60.06
1001.632	60.02
1001.987	59.99
1002.342	59.83
1002.696	59.95
1003.051	59.85
1003.406	59.8
1003.76	59.72
1004.114	59.84
1004.469	59.76
1004.823	59.68
1005.177	59.85
1005.531	59.88
1005.885	60.09
1006.239	60.04
1006.593	60.06
1006.947	60.16
1007.301	60.26
1007.655	60.12
1008.008	59.94
1008.362	59.99
1008.715	59.97
1009.069	59.72
1009.422	59.47
1009.776	59.35
1010.129	59.34
1010.482	59.33
1010.835	59.45
1011.188	59.21
1011.541	58.99
1011.894	59
1012.247	58.82
1012.6	58.75
1012.952	58.66
1013.305	58.63
1013.657	58.54
1014.01	58.78
1014.362	58.81
1014.715	58.42
1015.067	58.49
1015.419	59.01
1015.771	59.27
1016.123	59.16
1016.475	59.34
1016.827	59.84
1017.179	60.1
1017.531	60.16
1017.883	60.28
1018.234	60.21
1018.586	60.39
1018.938	60.24
1019.289	59.88
1019.64	60.07
1019.992	60.32
1020.343	59.99
1020.694	59.57
1021.045	59.44
1021.396	59.38
1021.747	58.92
1022.098	58.92
1022.449	58.79
1022.8	58.81
1023.151	58.87
1023.501	58.23
1023.852	58.17
1024.202	58.26
1024.553	58.12
1024.903	57.88
1025.253	57.84
1025.604	57.65
1025.954	57.56
1026.304	58.15
1026.654	58.37
1027.004	58.46
1027.354	58.46
1027.703	58.35
1028.053	58.35
1028.403	58.19
1028.753	58.76
1029.102	58.7
1029.452	58.82
1029.801	58.71
1030.15	58.33
1030.499	58.29
897.758	-10.12
901.051	-1.88
904.343	-7.11
907.636	-5.14
910.928	-0.51
914.22	-1.74
917.511	-4.72
920.803	0.21
924.094	2.65
927.384	0.66
930.675	4.51
933.965	5.22
937.255	2.81
940.544	6.62
943.834	7.1
947.123	6.06
950.411	10.42
953.7	11.76
956.988	13.33
960.276	14.5
963.563	18.49
966.851	19.18
970.138	21.02
973.424	23.07
976.711	21.87
979.997	24.48
983.283	22.08
986.568	20.92
989.853	23.57
993.138	24.15
996.423	25.59
999.708	25.06
1002.992	24.28
1006.275	26.39
1009.559	26.76
1012.842	29.24
1016.125	28.67
1019.408	29.3
1022.69	30.77
1025.972	31.38
1029.254	30.9
1032.536	30.92
1035.817	31.2
1039.098	32.73
1042.379	31.56
1045.659	32.43
1048.939	32.35
1052.219	33.04
1055.498	34.8
1058.778	34.42
1062.057	34.33
1065.335	35.26
1068.614	35.08
1071.892	35.23
1075.17	34.31
1078.447	36.01
1081.724	35.9
1085.001	34.63
1088.278	34.12
1091.554	34.03
1094.83	34.79
1098.106	34.85
1101.382	34.84
1104.657	35.31
1107.932	34.55
1111.206	36.3
1114.481	35.69
1117.755	34.08
1121.029	35.6
1124.302	36.39
1127.575	36.74
1130.848	36.38
1134.121	35.05
1137.393	35.38
1140.665	34.86
1143.937	34.97
1147.208	34.08
1150.48	34
1153.75	34.4
1157.021	33.75
1160.291	34.01
1163.561	32.11
1166.831	33.24
1170.101	33.9
1173.37	33.95
1176.639	33.69
1179.907	34.26
1183.176	33.56
1186.444	33.47
1189.711	33.93
1192.979	33.25
1196.246	33.65
1199.513	34.55
1202.78	33.75
1206.046	33.85
1209.312	33.69
1212.578	33.51
1215.843	33.67
1219.108	34.35
1222.373	34.13
1225.638	34.16
1228.902	34.44
1232.166	32.52
1235.43	31.9
1238.693	31.58
1241.956	30.86
1245.219	30.34
1248.482	31.29
1251.744	30.39
1255.006	31.08
1258.268	30.41
1261.529	30.41
1264.79	32.48
1268.051	32.44
1271.312	33.79
1274.572	34.47
1277.832	35.55
1281.092	36.07
1284.351	36.35
1287.61	36.52
1290.869	35.56
1294.128	36.55
1297.386	36.49
1300.644	35.67
1303.902	35.49
1307.159	34.99
1310.416	33.64
1313.673	33.4
1316.93	32.72
1320.186	32.3
1323.442	31.54
1326.697	30.88
1329.953	29.56
1333.208	28.01
1336.463	26.5
1339.717	26.95
1342.972	25.59
1346.226	25.52
1349.479	24.64
1352.733	23.59
1355.986	21.84
1359.238	21.79
1362.491	20.86
1365.743	21.14
1368.995	22.58
1372.247	19.88
1375.498	18.44
1378.749	16.17
1382	16.23
1385.251	13.25
1388.501	14.57
1391.751	14.16
1395	13.12
1398.25	12.98
1401.499	11.49
1404.748	7.99
1407.996	11.3
1411.244	12.03
1414.492	11.76
1417.74	9.16
1420.987	10.94
1424.234	9.01
1427.481	8.49
1430.728	8.67
1433.974	8.98
1437.22	8.74
1440.465	9.43
1443.711	8.7
1446.956	9.17
1450.201	10.57
1453.445	11.46
1456.689	12.29
1459.933	12.46
1463.177	12.1
1466.42	12.73
1469.663	12.64
1472.906	13.05
1476.148	13.21
1479.391	13.86
1482.633	13.82
1485.874	14.18
1489.115	14.84
1492.356	14.32
1495.597	14.49
1498.838	15.86
1502.078	16.04
1505.318	16.24
1508.557	16.17
1511.797	17.16
1515.036	17.63
1518.274	17.9
1521.513	17.76
1524.751	18.22
1527.989	19.86
1531.227	20.05
1534.464	20.69
1537.701	20.66
1540.938	20.83
1544.174	21.55
1547.41	21.98
1550.646	22.56
1553.882	23.08
1557.117	23.98
1560.352	23.97
1563.587	23.4
1566.821	23.65
1570.055	24.06
1573.289	24.89
1576.523	25.05
1579.756	25.31
1582.989	25.69
1586.222	25.24
1589.454	25.68
1592.686	26.17
1595.918	26.52
1599.15	27.22
1602.381	27.18
1605.612	27.53
1608.843	27.1
1612.073	27.82
1615.303	28.41
1618.533	27.63
1621.762	27.98
1624.992	27.46
1628.221	26.99
1631.449	27.46
1634.678	27.54
1637.906	28.08
1641.134	27.72
1644.361	28
1647.588	28.09
1650.815	27.94
1654.042	28.67
1657.269	28.44
1660.495	29.06
1663.72	29.29
1666.946	28.76
1670.171	28.66
1673.396	28.5
1676.621	28.37
1679.845	29.02
1683.069	28.2
1686.293	27.94
1689.517	27.81
1692.74	27.93
1695.963	27.94
1699.185	27.3
1702.408	27.61
1705.63	27.48
1708.852	27.4
1712.073	26.77
1715.294	26.12
1718.515	26.7
1721.736	26.88
1724.956	26.32
1728.176	26.12
1731.396	25.69
1734.616	26.36
1737.835	25.61
1741.054	25.14
1744.272	25.7
1747.491	26.22
1750.709	25.93
1753.927	25.52
1757.144	25.24
1760.361	25.28
1763.578	25.14
1766.795	25.2
1770.011	24.5
1773.227	24.72
1776.443	24.58
1779.658	23.46
1782.874	23.22
1786.089	22.51
1789.303	22.63
1792.518	22.37
1795.732	22.54
1798.945	22.78
1802.159	22.66
1805.372	22.49
1808.585	22.37
1811.797	22.79
1815.01	22.37
1818.222	22.55
1821.434	22.78
1824.645	21.85
1827.856	21.68
1831.067	21.13
1834.278	21.13
1837.488	21.23
1840.698	20.61
1843.908	19.78
1847.117	19.84
1850.326	19.24
1853.535	20.04
1856.744	19.12
1859.952	19.28
1863.16	18.24
1866.368	17.66
1869.575	16.44
1872.782	15.22
1875.989	13.18
1879.196	13.14
1882.402	10.23
1885.608	10.88
1888.814	7.27
1892.019	5.91
1895.224	4.3
1898.429	3.58
1901.634	2.86
1904.838	1.77
1908.042	0.59
1911.246	1.5
1914.449	0.92
1917.652	0.9
1920.855	-0.49
1924.058	0.12
1927.26	-0.37
1930.462	-0.1
1933.664	1.24
1936.865	0.62
1940.066	-0.02
1943.267	0.55
1946.467	0.77
1949.668	0.22
1952.868	0.54
1956.067	0.54
1959.267	1.48
1962.466	1.81
1965.665	1.66
1968.863	1.8
1972.061	1.3
1975.259	1.9
1978.457	1.2
1981.654	1.69
1984.852	1.78
1988.048	2.38
1991.245	3.05
1994.441	2.32
1997.637	2.9
2000.833	3.67
2004.028	2.07
2007.223	3.49
2010.418	4.3
2013.613	4.77
2016.807	4.37
2020.001	3.05
2023.194	4.85
2026.388	4.75
2029.581	4.04
2032.774	2.99
2035.966	1.99
2039.158	3.09
2042.35	1
2045.542	2.39
2048.733	1.75
2051.924	0.47
2055.115	1.13
2058.306	-0.84
2061.496	-3.61
2064.686	-4.43
2067.875	-1.99
2071.065	0.4
2074.254	-0.46
2077.442	-0.29
2080.631	-3.3
2083.819	-2.97
2087.007	-2.15
2090.195	-1.56
2093.382	-3.13
2096.569	-1.88
2099.756	0.49
2102.942	-2.06
2106.128	-3.73
2109.314	-0.58
2112.5	0.1
2115.685	-0.18
2118.87	-0.66
2122.055	0.27
2125.239	-1.28
2128.424	0.46
2131.608	-0.47
2134.791	-1.48
2137.974	-0.31
2141.157	0.54
2144.34	-2.25
2147.523	-0.31
2150.705	0.5
2153.887	0.76
2157.068	0.17
2160.25	0.82
2163.431	2.15
2166.611	2.53
2169.792	1.49
2172.972	1.94
2176.152	3.05
2179.331	1.21
2182.511	-2.07
2185.69	-1.69
2188.868	-6.12
2192.047	-5.29
2195.225	-3.93
2198.403	-9.01
2201.58	-6.9
2204.758	-4.77
2207.935	-7.26
2211.111	-12.97
2214.288	-10.5
2217.464	-7.62
2220.64	-6.25
2223.815	-4.16
2226.991	-4.32
2230.166	-5.45
2233.34	-3.98
2236.515	-7.74
2239.689	-8.92
2242.863	-8
2246.036	-6.99
2249.209	-8.11
2252.382	-9.41
2255.555	-11.12
2258.727	-8.79
2261.9	-15.06
2265.071	-13.53
2268.243	-9.62
2271.414	-12.24
2274.585	-11.83
2277.756	-12.09
2280.926	-14.04
2284.096	-13.82
2287.266	-13.1
2290.436	-13.25
2293.605	-14.03
2296.774	-8.08
2299.942	-14.01
2303.111	-15.72
2306.279	-11.06
2309.447	-11.36
2312.614	-12.02
2315.781	-13.3
2318.948	-14.49
2322.115	-16.1
2325.281	-24.55
2328.447	-25
2331.613	-25.37
2334.779	-23.97
2337.944	-30.84
2341.109	-34
2344.274	-31.32
2347.438	-37.91
2350.602	-35.1
2353.766	-42.78
2356.929	-43.02
2360.092	-33.97
2363.255	-35.87
2366.418	-39.34
2369.58	-43.81
2372.742	-29.85
2375.904	-31.1
2379.066	-36.63
2382.227	-27.6
2385.388	-34.85
2388.548	-26.13
2391.709	-24.56
2394.869	-34.29
2398.029	-28.74
2401.188	-30.05
2404.347	-27.6
2407.506	-40.63
2410.665	-33.67
2413.823	-35.39
2416.981	-39.04
2420.139	-29.91
2423.296	-31.81
2426.453	-43.55
2429.61	-30.47
2432.767	-39.84
2435.923	-36.65
2439.079	-32.3
2442.235	-36.07
2445.391	-34.95
2448.546	-26.41
2451.701	-39.2
2454.855	-45.27
2458.009	-38.3
2461.163	-34.99
2464.317	-40.32
2467.471	-40.29
2470.624	-45.65
2473.777	-46.29
2476.929	-31.33
2480.082	-48.41
2483.234	-60.14
2486.385	-58.32
2489.537	-56.82
2492.688	-60.63
2495.839	-53.5
2498.989	-58.63
2502.14	-59.21
2505.29	-53.26
2508.439	-62.76
2511.589	-74.7
2514.738	-61.6
2517.887	-58.4
2521.035	-51.45
2524.183	-53.11
2527.331	-58.51
2530.479	-59.12
2533.627	-60.78
