Data from c_1_dec_nc_4n_039_Splice17_04.txt Node
Date: Sat Feb 29 13:27:15 EST 2020
User: sa697716
Spectrometer: FLMS03696
Trigger mode: 0
Integration Time (sec): 3.180400E-1
Scans to average: 20
Electric dark correction enabled: true
Nonlinearity correction enabled: true
Boxcar width: 5
XAxis mode: Wavelengths
Number of Pixels in Spectrum: 2048
>>>>>Begin Spectral Data<<<<<
187.83	17.22
188.298	6.25
188.766	16.54
189.233	14.3
189.701	34.36
190.169	39.82
190.636	28.08
191.104	-7.28
191.571	-184.45
192.039	-66.12
192.506	701.29
192.974	3948.68
193.441	23.94
193.908	30.62
194.375	-42.21
194.842	46.6
195.31	16.84
195.777	-29.86
196.244	62.18
196.711	87.48
197.177	89.51
197.644	90.96
198.111	92.82
198.578	93.88
199.045	95.54
199.511	96.36
199.978	96.88
200.445	97.08
200.911	97.33
201.378	97.02
201.844	97.4
202.31	98.17
202.777	98.55
203.243	98.52
203.709	98
204.176	97.12
204.642	96.69
205.108	95.87
205.574	95.54
206.04	94.63
206.506	93.99
206.972	92.94
207.438	91.65
207.903	90.26
208.369	88.43
208.835	87.75
209.301	86.32
209.766	84.11
210.232	82.85
210.697	81.13
211.163	79.61
211.628	77.87
212.094	76.54
212.559	74.88
213.024	73.09
213.49	71.41
213.955	69.38
214.42	67.34
214.885	64.9
215.35	61.85
215.815	58.08
216.28	54.3
216.745	50.13
217.21	45.62
217.675	41.43
218.14	37.73
218.604	34.45
219.069	31.66
219.534	29.23
219.998	27.37
220.463	25.77
220.927	24.53
221.392	23.35
221.856	22.34
222.32	21.51
222.785	20.79
223.249	20.23
223.713	19.69
224.177	19.21
224.642	18.84
225.106	18.45
225.57	18.05
226.034	17.68
226.497	17.36
226.961	17.03
227.425	16.69
227.889	16.43
228.353	16.12
228.816	15.88
229.28	15.61
229.744	15.39
230.207	15.16
230.671	14.95
231.134	14.73
231.597	14.51
232.061	14.34
232.524	14.19
232.987	14.03
233.45	13.86
233.914	13.7
234.377	13.57
234.84	13.41
235.303	13.28
235.766	13.15
236.229	13.02
236.691	12.91
237.154	12.81
237.617	12.7
238.08	12.59
238.542	12.51
239.005	12.39
239.468	12.25
239.93	12.15
240.393	12.05
240.855	11.93
241.317	11.83
241.78	11.74
242.242	11.64
242.704	11.54
243.166	11.43
243.629	11.33
244.091	11.24
244.553	11.17
245.015	11.1
245.477	10.99
245.939	10.92
246.4	10.83
246.862	10.75
247.324	10.67
247.786	10.58
248.247	10.52
248.709	10.45
249.17	10.39
249.632	10.32
250.093	10.24
250.555	10.18
251.016	10.12
251.477	10.07
251.939	10.01
252.4	9.95
252.861	9.9
253.322	9.83
253.783	9.78
254.244	9.71
254.705	9.65
255.166	9.6
255.627	9.55
256.088	9.49
256.549	9.43
257.009	9.36
257.47	9.3
257.931	9.24
258.391	9.18
258.852	9.11
259.312	9.06
259.773	9
260.233	8.94
260.694	8.88
261.154	8.83
261.614	8.78
262.074	8.74
262.534	8.69
262.994	8.64
263.455	8.59
263.915	8.54
264.374	8.5
264.834	8.46
265.294	8.42
265.754	8.37
266.214	8.34
266.673	8.31
267.133	8.27
267.593	8.24
268.052	8.21
268.512	8.19
268.971	8.17
269.431	8.14
269.89	8.12
270.349	8.1
270.809	8.08
271.268	8.06
271.727	8.03
272.186	8.02
272.645	7.99
273.104	7.97
273.563	7.94
274.022	7.92
274.481	7.91
274.94	7.89
275.399	7.87
275.857	7.84
276.316	7.81
276.775	7.79
277.233	7.77
277.692	7.76
278.15	7.73
278.609	7.71
279.067	7.68
279.525	7.65
279.984	7.63
280.442	7.62
280.9	7.61
281.358	7.59
281.816	7.58
282.274	7.56
282.732	7.55
283.19	7.55
283.648	7.55
284.106	7.54
284.564	7.53
285.021	7.52
285.479	7.5
285.937	7.48
286.394	7.46
286.852	7.44
287.309	7.42
287.767	7.39
288.224	7.36
288.682	7.33
289.139	7.31
289.596	7.28
290.053	7.24
290.511	7.22
290.968	7.2
291.425	7.18
291.882	7.16
292.339	7.13
292.796	7.11
293.252	7.08
293.709	7.06
294.166	7.04
294.623	7.02
295.079	7.01
295.536	6.98
295.992	6.96
296.449	6.93
296.905	6.91
297.362	6.9
297.818	6.89
298.274	6.88
298.731	6.86
299.187	6.84
299.643	6.83
300.099	6.83
300.555	6.81
301.011	6.8
301.467	6.79
301.923	6.78
302.379	6.77
302.835	6.76
303.291	6.75
303.746	6.74
304.202	6.73
304.658	6.72
305.113	6.7
305.569	6.7
306.024	6.69
306.479	6.68
306.935	6.68
307.39	6.68
307.845	6.67
308.301	6.68
308.756	6.68
309.211	6.67
309.666	6.67
310.121	6.67
310.576	6.67
311.031	6.67
311.486	6.68
311.94	6.67
312.395	6.67
312.85	6.66
313.305	6.65
313.759	6.64
314.214	6.65
314.668	6.65
315.123	6.64
315.577	6.63
316.032	6.62
316.486	6.6
316.94	6.59
317.394	6.57
317.849	6.55
318.303	6.54
318.757	6.52
319.211	6.5
319.665	6.49
320.119	6.47
320.572	6.47
321.026	6.47
321.48	6.45
321.934	6.45
322.387	6.44
322.841	6.44
323.295	6.44
323.748	6.42
324.202	6.41
324.655	6.39
325.108	6.37
325.562	6.35
326.015	6.33
326.468	6.32
326.921	6.31
327.374	6.31
327.827	6.29
328.28	6.29
328.733	6.28
329.186	6.28
329.639	6.27
330.092	6.27
330.545	6.28
330.997	6.28
331.45	6.28
331.903	6.28
332.355	6.28
332.808	6.28
333.26	6.28
333.713	6.29
334.165	6.29
334.617	6.3
335.069	6.3
335.522	6.3
335.974	6.31
336.426	6.32
336.878	6.31
337.33	6.31
337.782	6.31
338.234	6.3
338.686	6.29
339.137	6.29
339.589	6.28
340.041	6.28
340.493	6.25
340.944	6.24
341.396	6.23
341.847	6.2
342.299	6.18
342.75	6.15
343.201	6.13
343.653	6.11
344.104	6.09
344.555	6.07
345.006	6.05
345.457	6.04
345.908	6.02
346.359	6.02
346.81	6.01
347.261	6.01
347.712	6
348.163	6
348.613	5.99
349.064	5.98
349.515	5.97
349.965	5.96
350.416	5.95
350.866	5.94
351.317	5.93
351.767	5.92
352.217	5.91
352.668	5.92
353.118	5.91
353.568	5.91
354.018	5.92
354.468	5.92
354.918	5.93
355.368	5.93
355.818	5.92
356.268	5.93
356.718	5.93
357.168	5.93
357.617	5.93
358.067	5.93
358.517	5.91
358.966	5.91
359.416	5.92
359.865	5.91
360.315	5.92
360.764	5.93
361.213	5.91
361.663	5.91
362.112	5.91
362.561	5.92
363.01	5.92
363.459	5.92
363.908	5.92
364.357	5.92
364.806	5.92
365.255	5.92
365.703	5.91
366.152	5.92
366.601	5.93
367.05	5.93
367.498	5.93
367.947	5.93
368.395	5.94
368.844	5.94
369.292	5.93
369.74	5.93
370.189	5.93
370.637	5.92
371.085	5.92
371.533	5.9
371.981	5.9
372.429	5.88
372.877	5.87
373.325	5.86
373.773	5.85
374.221	5.84
374.669	5.83
375.116	5.82
375.564	5.81
376.012	5.81
376.459	5.81
376.907	5.81
377.354	5.82
377.801	5.82
378.249	5.82
378.696	5.82
379.143	5.83
379.591	5.82
380.038	5.84
380.485	5.84
380.932	5.85
381.379	5.84
381.826	5.86
382.273	5.85
382.72	5.84
383.166	5.84
383.613	5.84
384.06	5.84
384.506	5.84
384.953	5.82
385.4	5.83
385.846	5.81
386.292	5.83
386.739	5.83
387.185	5.84
387.631	5.85
388.078	5.85
388.524	5.84
388.97	5.85
389.416	5.86
389.862	5.87
390.308	5.87
390.754	5.89
391.2	5.91
391.645	5.93
392.091	5.94
392.537	5.96
392.983	5.98
393.428	6.01
393.874	6.04
394.319	6.05
394.765	6.07
395.21	6.08
395.655	6.09
396.101	6.1
396.546	6.11
396.991	6.13
397.436	6.15
397.881	6.18
398.326	6.19
398.771	6.23
399.216	6.26
399.661	6.28
400.106	6.33
400.551	6.34
400.995	6.36
401.44	6.37
401.885	6.38
402.329	6.41
402.774	6.41
403.218	6.43
403.663	6.43
404.107	6.46
404.551	6.48
404.995	6.48
405.44	6.5
405.884	6.53
406.328	6.55
406.772	6.57
407.216	6.58
407.66	6.61
408.104	6.61
408.547	6.64
408.991	6.64
409.435	6.66
409.879	6.68
410.322	6.71
410.766	6.74
411.209	6.76
411.653	6.77
412.096	6.78
412.54	6.8
412.983	6.84
413.426	6.86
413.869	6.9
414.312	6.92
414.756	6.95
415.199	6.97
415.642	6.99
416.085	7.02
416.527	7.04
416.97	7.06
417.413	7.07
417.856	7.05
418.298	7.04
418.741	7.04
419.184	7.03
419.626	7.02
420.069	7.01
420.511	7.01
420.953	7.01
421.396	7.01
421.838	7.03
422.28	7.06
422.722	7.08
423.164	7.09
423.606	7.11
424.048	7.11
424.49	7.12
424.932	7.12
425.374	7.08
425.816	7.07
426.258	7.06
426.699	7.03
427.141	6.99
427.582	6.99
428.024	7
428.465	7
428.907	7.01
429.348	7.01
429.789	7.02
430.231	7.05
430.672	7.06
431.113	7.08
431.554	7.09
431.995	7.12
432.436	7.11
432.877	7.1
433.318	7.1
433.759	7.09
434.2	7.1
434.64	7.11
435.081	7.12
435.522	7.15
435.962	7.16
436.403	7.19
436.843	7.2
437.284	7.22
437.724	7.24
438.164	7.26
438.604	7.3
439.045	7.3
439.485	7.31
439.925	7.33
440.365	7.32
440.805	7.31
441.245	7.3
441.685	7.33
442.125	7.34
442.564	7.36
443.004	7.37
443.444	7.38
443.883	7.4
444.323	7.4
444.762	7.42
445.202	7.47
445.641	7.5
446.081	7.53
446.52	7.54
446.959	7.56
447.398	7.61
447.837	7.63
448.276	7.64
448.716	7.67
449.154	7.72
449.593	7.72
450.032	7.73
450.471	7.76
450.91	7.76
451.349	7.75
451.787	7.74
452.226	7.7
452.664	7.69
453.103	7.68
453.541	7.67
453.98	7.64
454.418	7.61
454.856	7.57
455.295	7.54
455.733	7.53
456.171	7.52
456.609	7.51
457.047	7.51
457.485	7.5
457.923	7.49
458.361	7.46
458.798	7.47
459.236	7.47
459.674	7.48
460.111	7.48
460.549	7.47
460.987	7.48
461.424	7.48
461.862	7.47
462.299	7.45
462.736	7.47
463.173	7.49
463.611	7.49
464.048	7.52
464.485	7.53
464.922	7.52
465.359	7.54
465.796	7.55
466.233	7.56
466.67	7.59
467.106	7.59
467.543	7.58
467.98	7.59
468.416	7.59
468.853	7.57
469.29	7.58
469.726	7.6
470.162	7.58
470.599	7.58
471.035	7.59
471.471	7.56
471.907	7.57
472.344	7.59
472.78	7.58
473.216	7.56
473.652	7.55
474.088	7.56
474.523	7.54
474.959	7.54
475.395	7.51
475.831	7.5
476.266	7.5
476.702	7.48
477.138	7.46
477.573	7.45
478.008	7.45
478.444	7.43
478.879	7.41
479.314	7.39
479.75	7.38
480.185	7.38
480.62	7.36
481.055	7.35
481.49	7.33
481.925	7.31
482.36	7.3
482.795	7.28
483.229	7.28
483.664	7.27
484.099	7.27
484.534	7.26
484.968	7.26
485.403	7.26
485.837	7.26
486.271	7.27
486.706	7.28
487.14	7.31
487.574	7.32
488.009	7.34
488.443	7.37
488.877	7.4
489.311	7.43
489.745	7.46
490.179	7.49
490.613	7.53
491.046	7.57
491.48	7.63
491.914	7.66
492.348	7.72
492.781	7.76
493.215	7.81
493.648	7.86
494.082	7.91
494.515	7.96
494.948	8.03
495.382	8.08
495.815	8.16
496.248	8.23
496.681	8.3
497.114	8.37
497.547	8.46
497.98	8.55
498.413	8.65
498.846	8.74
499.279	8.86
499.711	8.96
500.144	9.07
500.577	9.17
501.009	9.29
501.442	9.42
501.874	9.53
502.306	9.66
502.739	9.8
503.171	9.95
503.603	10.11
504.036	10.26
504.468	10.43
504.9	10.62
505.332	10.81
505.764	10.99
506.196	11.18
506.627	11.39
507.059	11.59
507.491	11.78
507.923	11.99
508.354	12.2
508.786	12.43
509.217	12.65
509.649	12.87
510.08	13.11
510.512	13.35
510.943	13.61
511.374	13.87
511.805	14.14
512.237	14.41
512.668	14.67
513.099	14.94
513.53	15.22
513.961	15.52
514.391	15.79
514.822	16.07
515.253	16.36
515.684	16.64
516.114	16.92
516.545	17.19
516.975	17.49
517.406	17.77
517.836	18.07
518.267	18.36
518.697	18.65
519.127	18.92
519.558	19.22
519.988	19.5
520.418	19.77
520.848	20.06
521.278	20.35
521.708	20.68
522.138	20.94
522.567	21.18
522.997	21.4
523.427	21.63
523.857	21.86
524.286	22.09
524.716	22.3
525.145	22.51
525.575	22.7
526.004	22.89
526.433	23.01
526.863	23.23
527.292	23.4
527.721	23.6
528.15	23.75
528.579	23.91
529.008	24.05
529.437	24.2
529.866	24.33
530.295	24.48
530.724	24.62
531.152	24.75
531.581	24.85
532.01	24.96
532.438	25.07
532.867	25.18
533.295	25.28
533.723	25.39
534.152	25.47
534.58	25.57
535.008	25.63
535.436	25.69
535.865	25.74
536.293	25.81
536.721	25.87
537.149	25.92
537.576	25.99
538.004	26.04
538.432	26.08
538.86	26.13
539.287	26.18
539.715	26.23
540.143	26.27
540.57	26.33
540.998	26.37
541.425	26.43
541.852	26.46
542.28	26.48
542.707	26.54
543.134	26.57
543.561	26.59
543.988	26.62
544.415	26.68
544.842	26.7
545.269	26.74
545.696	26.76
546.123	26.78
546.549	26.83
546.976	26.86
547.403	26.88
547.829	26.93
548.256	26.97
548.682	26.99
549.108	27.02
549.535	27.01
549.961	27.02
550.387	27.03
550.813	27.02
551.24	27.01
551.666	27.02
552.092	26.99
552.518	26.98
552.943	26.97
553.369	26.98
553.795	26.96
554.221	26.95
554.646	26.93
555.072	26.92
555.498	26.91
555.923	26.88
556.349	26.85
556.774	26.82
557.199	26.8
557.625	26.74
558.05	26.66
558.475	26.59
558.9	26.53
559.325	26.47
559.75	26.38
560.175	26.29
560.6	26.22
561.025	26.13
561.449	26.03
561.874	25.93
562.299	25.84
562.723	25.77
563.148	25.68
563.572	25.6
563.997	25.48
564.421	25.37
564.846	25.28
565.27	25.17
565.694	25.04
566.118	24.93
566.542	24.8
566.966	24.68
567.39	24.55
567.814	24.43
568.238	24.28
568.662	24.16
569.086	24.05
569.509	23.92
569.933	23.78
570.357	23.67
570.78	23.54
571.204	23.4
571.627	23.28
572.05	23.15
572.474	23.03
572.897	22.91
573.32	22.78
573.743	22.66
574.166	22.53
574.589	22.43
575.012	22.32
575.435	22.22
575.858	22.14
576.281	22.05
576.704	21.96
577.126	21.85
577.549	21.78
577.972	21.72
578.394	21.6
578.817	21.53
579.239	21.44
579.661	21.36
580.084	21.28
580.506	21.18
580.928	21.08
581.35	21
581.772	20.95
582.194	20.85
582.616	20.77
583.038	20.72
583.46	20.65
583.882	20.59
584.303	20.52
584.725	20.45
585.147	20.39
585.568	20.33
585.99	20.29
586.411	20.21
586.833	20.16
587.254	20.11
587.675	20.06
588.096	20.01
588.518	19.98
588.939	19.92
589.36	19.87
589.781	19.82
590.202	19.78
590.623	19.72
591.043	19.67
591.464	19.63
591.885	19.58
592.305	19.52
592.726	19.47
593.147	19.43
593.567	19.39
593.987	19.37
594.408	19.33
594.828	19.29
595.248	19.27
595.669	19.24
596.089	19.2
596.509	19.17
596.929	19.13
597.349	19.1
597.769	19.05
598.189	19.03
598.608	18.97
599.028	18.91
599.448	18.89
599.867	18.83
600.287	18.78
600.706	18.72
601.126	18.67
601.545	18.63
601.965	18.59
602.384	18.53
602.803	18.46
603.222	18.41
603.641	18.37
604.061	18.3
604.48	18.26
604.898	18.2
605.317	18.14
605.736	18.08
606.155	18.01
606.574	17.95
606.992	17.88
607.411	17.81
607.829	17.69
608.248	17.62
608.666	17.54
609.085	17.46
609.503	17.37
609.921	17.31
610.339	17.25
610.758	17.17
611.176	17.09
611.594	17.02
612.012	16.94
612.43	16.94
612.847	16.87
613.265	16.8
613.683	16.71
614.101	16.64
614.518	16.57
614.936	16.48
615.353	16.41
615.771	16.34
616.188	16.26
616.606	16.2
617.023	16.12
617.44	16.03
617.857	15.97
618.274	15.94
618.691	15.9
619.108	15.84
619.525	15.81
619.942	15.77
620.359	15.75
620.776	15.72
621.192	15.69
621.609	15.68
622.026	15.67
622.442	15.65
622.859	15.62
623.275	15.61
623.691	15.6
624.108	15.57
624.524	15.56
624.94	15.54
625.356	15.54
625.772	15.54
626.188	15.52
626.604	15.5
627.02	15.49
627.436	15.48
627.852	15.45
628.268	15.44
628.683	15.42
629.099	15.41
629.514	15.38
629.93	15.35
630.345	15.31
630.761	15.28
631.176	15.26
631.591	15.21
632.007	15.17
632.422	15.13
632.837	15.08
633.252	15.03
633.667	14.97
634.082	14.91
634.497	14.84
634.911	14.76
635.326	14.67
635.741	14.59
636.155	14.5
636.57	14.4
636.984	14.29
637.399	14.17
637.813	14.04
638.228	13.91
638.642	13.78
639.056	13.64
639.47	13.53
639.884	13.39
640.298	13.23
640.712	13.08
641.126	12.95
641.54	12.8
641.954	12.68
642.368	12.55
642.781	12.42
643.195	12.3
643.609	12.16
644.022	12.03
644.436	11.91
644.849	11.79
645.262	11.69
645.676	11.58
646.089	11.48
646.502	11.39
646.915	11.27
647.328	11.2
647.741	11.1
648.154	11.04
648.567	10.97
648.98	10.91
649.393	10.85
649.805	10.79
650.218	10.73
650.631	10.67
651.043	10.6
651.456	10.57
651.868	10.51
652.28	10.46
652.693	10.4
653.105	10.34
653.517	10.29
653.929	10.25
654.341	10.19
654.753	10.11
655.165	10.05
655.577	9.99
655.989	9.9
656.401	9.82
656.813	9.71
657.224	9.62
657.636	9.53
658.047	9.45
658.459	9.34
658.87	9.24
659.282	9.16
659.693	9.06
660.104	8.95
660.515	8.85
660.926	8.76
661.338	8.67
661.749	8.57
662.159	8.47
662.57	8.36
662.981	8.27
663.392	8.18
663.803	8.08
664.213	7.99
664.624	7.92
665.035	7.84
665.445	7.77
665.855	7.7
666.266	7.64
666.676	7.56
667.086	7.51
667.497	7.44
667.907	7.37
668.317	7.32
668.727	7.29
669.137	7.26
669.547	7.23
669.956	7.21
670.366	7.19
670.776	7.17
671.186	7.17
671.595	7.16
672.005	7.17
672.414	7.18
672.824	7.19
673.233	7.18
673.642	7.18
674.052	7.18
674.461	7.18
674.87	7.18
675.279	7.19
675.688	7.2
676.097	7.22
676.506	7.23
676.915	7.26
677.323	7.3
677.732	7.33
678.141	7.38
678.549	7.43
678.958	7.49
679.366	7.56
679.775	7.65
680.183	7.73
680.592	7.83
681	7.93
681.408	8.06
681.816	8.18
682.224	8.34
682.632	8.51
683.04	8.69
683.448	8.87
683.856	9.1
684.264	9.33
684.671	9.6
685.079	9.88
685.487	10.22
685.894	10.54
686.302	10.92
686.709	11.28
687.116	11.67
687.524	12.11
687.931	12.57
688.338	13.05
688.745	13.52
689.152	14.04
689.559	14.56
689.966	15.08
690.373	15.63
690.78	16.18
691.187	16.75
691.593	17.33
692	17.92
692.407	18.5
692.813	19.09
693.22	19.67
693.626	20.23
694.032	20.8
694.439	21.4
694.845	21.95
695.251	22.5
695.657	23.05
696.063	23.6
696.469	24.13
696.875	24.62
697.281	25.1
697.687	25.6
698.093	26.11
698.498	26.57
698.904	27.03
699.31	27.5
699.715	27.97
700.12	28.38
700.526	28.78
700.931	29.17
701.337	29.58
701.742	29.95
702.147	30.34
702.552	30.67
702.957	31.03
703.362	31.36
703.767	31.68
704.172	31.98
704.577	32.31
704.981	32.64
705.386	32.94
705.791	33.25
706.195	33.55
706.6	33.82
707.004	34.12
707.408	34.39
707.813	34.63
708.217	34.87
708.621	35.14
709.025	35.4
709.43	35.61
709.834	35.89
710.237	36.08
710.641	36.31
711.045	36.54
711.449	36.77
711.853	36.98
712.256	37.22
712.66	37.43
713.064	37.63
713.467	37.82
713.87	38.01
714.274	38.18
714.677	38.39
715.08	38.56
715.484	38.75
715.887	38.9
716.29	39.06
716.693	39.21
717.096	39.41
717.499	39.56
717.901	39.68
718.304	39.83
718.707	39.96
719.109	40.1
719.512	40.27
719.915	40.39
720.317	40.52
720.719	40.65
721.122	40.76
721.524	40.87
721.926	40.99
722.328	41.13
722.731	41.23
723.133	41.34
723.535	41.46
723.937	41.52
724.338	41.6
724.74	41.7
725.142	41.77
725.544	41.84
725.945	41.91
726.347	41.99
726.748	42.04
727.15	42.1
727.551	42.17
727.952	42.23
728.354	42.32
728.755	42.37
729.156	42.4
729.557	42.47
729.958	42.57
730.359	42.62
730.76	42.68
731.161	42.75
731.562	42.83
731.962	42.86
732.363	42.89
732.763	42.93
733.164	42.98
733.564	43.02
733.965	43.05
734.365	43.06
734.766	43.11
735.166	43.1
735.566	43.1
735.966	43.09
736.366	43.11
736.766	43.13
737.166	43.15
737.566	43.2
737.966	43.24
738.365	43.27
738.765	43.32
739.165	43.31
739.564	43.37
739.964	43.42
740.363	43.47
740.763	43.49
741.162	43.52
741.561	43.53
741.96	43.54
742.36	43.59
742.759	43.58
743.158	43.54
743.557	43.6
743.955	43.59
744.354	43.58
744.753	43.6
745.152	43.61
745.55	43.62
745.949	43.63
746.348	43.63
746.746	43.6
747.144	43.65
747.543	43.68
747.941	43.68
748.339	43.73
748.737	43.76
749.136	43.76
749.534	43.77
749.932	43.77
750.33	43.78
750.727	43.77
751.125	43.79
751.523	43.77
751.921	43.79
752.318	43.77
752.716	43.75
753.113	43.73
753.511	43.71
753.908	43.67
754.305	43.66
754.703	43.63
755.1	43.63
755.497	43.64
755.894	43.65
756.291	43.64
756.688	43.63
757.085	43.62
757.482	43.65
757.878	43.66
758.275	43.7
758.672	43.75
759.068	43.77
759.465	43.77
759.861	43.77
760.258	43.77
760.654	43.75
761.05	43.77
761.447	43.75
761.843	43.71
762.239	43.7
762.635	43.71
763.031	43.7
763.427	43.69
763.822	43.66
764.218	43.66
764.614	43.65
765.01	43.64
765.405	43.63
765.801	43.64
766.196	43.65
766.592	43.67
766.987	43.65
767.382	43.63
767.778	43.65
768.173	43.66
768.568	43.65
768.963	43.63
769.358	43.64
769.753	43.68
770.148	43.71
770.542	43.69
770.937	43.7
771.332	43.72
771.726	43.69
772.121	43.69
772.515	43.7
772.91	43.7
773.304	43.72
773.699	43.74
774.093	43.69
774.487	43.7
774.881	43.73
775.275	43.73
775.669	43.72
776.063	43.71
776.457	43.73
776.851	43.71
777.245	43.71
777.638	43.71
778.032	43.72
778.425	43.76
778.819	43.78
779.212	43.76
779.606	43.76
779.999	43.75
780.392	43.77
780.786	43.76
781.179	43.79
781.572	43.8
781.965	43.82
782.358	43.8
782.751	43.76
783.143	43.73
783.536	43.75
783.929	43.76
784.322	43.78
784.714	43.82
785.107	43.84
785.499	43.84
785.891	43.84
786.284	43.8
786.676	43.8
787.068	43.81
787.46	43.83
787.852	43.86
788.245	43.85
788.636	43.85
789.028	43.82
789.42	43.78
789.812	43.81
790.204	43.79
790.595	43.84
790.987	43.84
791.378	43.84
791.77	43.84
792.161	43.82
792.553	43.83
792.944	43.85
793.335	43.86
793.726	43.87
794.117	43.84
794.508	43.86
794.899	43.86
795.29	43.87
795.681	43.89
796.072	43.89
796.463	43.9
796.853	43.88
797.244	43.86
797.634	43.86
798.025	43.88
798.415	43.86
798.806	43.87
799.196	43.88
799.586	43.85
799.976	43.83
800.366	43.82
800.756	43.78
801.146	43.77
801.536	43.77
801.926	43.75
802.316	43.72
802.706	43.73
803.095	43.71
803.485	43.68
803.874	43.68
804.264	43.71
804.653	43.65
805.043	43.65
805.432	43.63
805.821	43.62
806.21	43.63
806.599	43.65
806.988	43.67
807.377	43.69
807.766	43.67
808.155	43.67
808.544	43.64
808.933	43.67
809.321	43.69
809.71	43.74
810.098	43.73
810.487	43.71
810.875	43.68
811.264	43.67
811.652	43.67
812.04	43.7
812.428	43.72
812.816	43.71
813.204	43.7
813.592	43.65
813.98	43.6
814.368	43.61
814.756	43.63
815.144	43.66
815.531	43.63
815.919	43.61
816.306	43.57
816.694	43.55
817.081	43.54
817.469	43.55
817.856	43.57
818.243	43.56
818.63	43.59
819.017	43.6
819.404	43.57
819.791	43.56
820.178	43.55
820.565	43.59
820.952	43.56
821.339	43.56
821.725	43.54
822.112	43.56
822.498	43.58
822.885	43.57
823.271	43.54
823.657	43.55
824.044	43.56
824.43	43.59
824.816	43.53
825.202	43.55
825.588	43.57
825.974	43.57
826.36	43.51
826.746	43.5
827.132	43.47
827.517	43.49
827.903	43.49
828.289	43.49
828.674	43.44
829.06	43.47
829.445	43.48
829.83	43.48
830.216	43.49
830.601	43.53
830.986	43.52
831.371	43.53
831.756	43.48
832.141	43.47
832.526	43.47
832.911	43.48
833.295	43.49
833.68	43.46
834.065	43.46
834.449	43.42
834.834	43.38
835.218	43.38
835.603	43.39
835.987	43.42
836.371	43.42
836.755	43.4
837.139	43.4
837.524	43.38
837.908	43.34
838.291	43.33
838.675	43.36
839.059	43.38
839.443	43.39
839.827	43.33
840.21	43.33
840.594	43.32
840.977	43.31
841.361	43.3
841.744	43.34
842.127	43.37
842.511	43.37
842.894	43.36
843.277	43.35
843.66	43.35
844.043	43.37
844.426	43.36
844.809	43.37
845.191	43.38
845.574	43.41
845.957	43.34
846.339	43.34
846.722	43.32
847.104	43.33
847.487	43.36
847.869	43.34
848.252	43.36
848.634	43.39
849.016	43.38
849.398	43.38
849.78	43.36
850.162	43.38
850.544	43.4
850.926	43.4
851.307	43.4
851.689	43.37
852.071	43.37
852.452	43.34
852.834	43.32
853.215	43.32
853.597	43.29
853.978	43.25
854.359	43.26
854.741	43.24
855.122	43.26
855.503	43.22
855.884	43.22
856.265	43.22
856.646	43.22
857.026	43.21
857.407	43.15
857.788	43.17
858.169	43.19
858.549	43.19
858.93	43.19
859.31	43.18
859.69	43.2
860.071	43.19
860.451	43.18
860.831	43.16
861.211	43.17
861.591	43.21
861.971	43.17
862.351	43.19
862.731	43.17
863.111	43.16
863.491	43.15
863.87	43.14
864.25	43.17
864.629	43.18
865.009	43.21
865.388	43.2
865.768	43.19
866.147	43.22
866.526	43.2
866.905	43.2
867.284	43.21
867.663	43.23
868.042	43.23
868.421	43.18
868.8	43.2
869.179	43.18
869.558	43.18
869.936	43.19
870.315	43.21
870.693	43.25
871.072	43.23
871.45	43.23
871.828	43.23
872.207	43.24
872.585	43.28
872.963	43.23
873.341	43.24
873.719	43.25
874.097	43.24
874.475	43.23
874.853	43.18
875.23	43.19
875.608	43.2
875.986	43.19
876.363	43.22
876.741	43.21
877.118	43.19
877.495	43.19
877.873	43.15
878.25	43.14
878.627	43.14
879.004	43.16
879.381	43.15
879.758	43.13
880.135	43.12
880.512	43.09
880.889	43.1
881.265	43.12
881.642	43.12
882.019	43.15
882.395	43.16
882.772	43.15
883.148	43.12
883.524	43.12
883.901	43.11
884.277	43.09
884.653	43.09
885.029	43.09
885.405	43.09
885.781	43.1
886.157	43.1
886.532	43.1
886.908	43.11
887.284	43.11
887.659	43.13
888.035	43.13
888.411	43.1
888.786	43.08
889.161	43.07
889.537	43.04
889.912	43.01
890.287	43
890.662	42.97
891.037	42.94
891.412	42.93
891.787	42.91
892.162	42.92
892.536	42.95
892.911	42.95
893.286	42.92
893.66	42.93
894.035	42.93
894.409	42.93
894.784	42.95
895.158	42.97
895.532	42.96
895.906	42.98
896.281	42.97
896.655	42.96
897.029	42.96
897.402	42.96
897.776	42.98
898.15	42.98
898.524	42.95
898.898	42.93
899.271	42.93
899.645	42.95
900.018	42.91
900.392	42.91
900.765	42.9
901.138	42.91
901.511	42.93
901.884	42.94
902.258	42.94
902.631	42.96
903.003	42.99
903.376	42.98
903.749	42.98
904.122	43.02
904.495	43.02
904.867	43.02
905.24	43.01
905.612	42.99
905.985	42.95
906.357	42.94
906.729	42.94
907.102	42.93
907.474	42.95
907.846	42.91
908.218	42.9
908.59	42.9
908.962	42.94
909.334	42.95
909.705	42.94
910.077	42.92
910.449	42.92
910.82	42.91
911.192	42.9
911.563	42.86
911.935	42.89
912.306	42.88
912.677	42.89
913.048	42.85
913.419	42.82
913.79	42.84
914.161	42.87
914.532	42.86
914.903	42.88
915.274	42.87
915.645	42.9
916.015	42.9
916.386	42.88
916.756	42.84
917.127	42.9
917.497	42.91
917.868	42.91
918.238	42.93
918.608	42.95
918.978	42.94
919.348	42.93
919.718	42.93
920.088	42.94
920.458	43
920.828	43.04
921.198	43.01
921.567	43.03
921.937	43.02
922.306	43.02
922.676	43.02
923.045	43.04
923.415	43.06
923.784	43.05
924.153	43.05
924.522	43.04
924.891	43.03
925.26	43.03
925.629	43.01
925.998	43.02
926.367	43
926.736	42.99
927.104	42.97
927.473	42.98
927.842	42.96
928.21	43
928.578	42.96
928.947	42.93
929.315	42.94
929.683	42.97
930.051	42.98
930.42	42.95
930.788	42.98
931.156	43
931.523	42.97
931.891	43.01
932.259	42.99
932.627	42.97
932.994	43.02
933.362	43.06
933.729	43.07
934.097	43.11
934.464	43.18
934.831	43.2
935.199	43.21
935.566	43.26
935.933	43.33
936.3	43.34
936.667	43.45
937.034	43.49
937.401	43.45
937.767	43.53
938.134	43.54
938.501	43.58
938.867	43.63
939.234	43.76
939.6	43.85
939.967	43.9
940.333	44.04
940.699	44.1
941.065	44.18
941.431	44.29
941.798	44.33
942.163	44.37
942.529	44.39
942.895	44.44
943.261	44.46
943.627	44.53
943.992	44.59
944.358	44.48
944.723	44.49
945.089	44.43
945.454	44.4
945.82	44.34
946.185	44.42
946.55	44.43
946.915	44.39
947.28	44.31
947.645	44.27
948.01	44.21
948.375	44.22
948.74	44.1
949.104	44.16
949.469	44.01
949.834	43.97
950.198	43.89
950.562	43.74
950.927	43.75
951.291	43.66
951.655	43.54
952.02	43.48
952.384	43.43
952.748	43.44
953.112	43.35
953.476	43.37
953.839	43.39
954.203	43.33
954.567	43.33
954.931	43.17
955.294	43.19
955.658	43.18
956.021	43.14
956.385	43.15
956.748	43.17
957.111	43.19
957.474	43.19
957.837	43.16
958.2	43.13
958.563	43.15
958.926	43.18
959.289	43.16
959.652	43.16
960.015	43.16
960.377	43.09
960.74	42.99
961.102	42.9
961.465	42.93
961.827	42.9
962.189	42.89
962.552	42.79
962.914	42.76
963.276	42.7
963.638	42.65
964	42.58
964.362	42.59
964.724	42.61
965.085	42.58
965.447	42.51
965.809	42.45
966.17	42.46
966.532	42.54
966.893	42.59
967.255	42.64
967.616	42.67
967.977	42.7
968.338	42.72
968.699	42.67
969.061	42.76
969.421	42.81
969.782	42.84
970.143	42.84
970.504	42.81
970.865	42.77
971.225	42.75
971.586	42.73
971.946	42.77
972.307	42.76
972.667	42.95
973.027	42.92
973.388	42.87
973.748	42.93
974.108	42.96
974.468	43
974.828	43.13
975.188	43.18
975.548	43.22
975.907	43.21
976.267	43.28
976.627	43.21
976.986	43.22
977.346	43.33
977.705	43.35
978.064	43.38
978.424	43.38
978.783	43.31
979.142	43.35
979.501	43.34
979.86	43.4
980.219	43.31
980.578	43.29
980.937	43.33
981.296	43.34
981.654	43.42
982.013	43.42
982.371	43.46
982.73	43.48
983.088	43.39
983.447	43.51
983.805	43.53
984.163	43.73
984.521	43.71
984.879	43.8
985.237	43.84
985.595	43.84
985.953	43.88
986.311	43.94
986.669	43.97
987.026	44.07
987.384	44.01
987.741	44.01
988.099	43.91
988.456	43.92
988.814	43.91
989.171	43.94
989.528	43.86
989.885	43.8
990.242	43.8
990.599	43.83
990.956	43.92
991.313	44.02
991.67	44.08
992.027	44.12
992.383	44.27
992.74	44.32
993.096	44.38
993.453	44.45
993.809	44.5
994.165	44.57
994.522	44.66
994.878	44.69
995.234	44.7
995.59	44.7
995.946	44.89
996.302	44.84
996.658	44.84
997.013	44.89
997.369	44.95
997.725	45.09
998.08	45.07
998.436	45.2
998.791	45.16
999.147	45.26
999.502	45.28
999.857	45.26
1000.212	45.41
1000.567	45.56
1000.922	45.54
1001.277	45.67
1001.632	45.86
1001.987	46.01
1002.342	46.01
1002.696	46.28
1003.051	46.12
1003.406	46.37
1003.76	46.47
1004.114	46.54
1004.469	46.46
1004.823	46.72
1005.177	46.94
1005.531	46.85
1005.885	47.04
1006.239	47.03
1006.593	46.9
1006.947	47.14
1007.301	47.21
1007.655	47.44
1008.008	47.39
1008.362	47.41
1008.715	47.36
1009.069	47.17
1009.422	47.24
1009.776	47.36
1010.129	47.39
1010.482	47.51
1010.835	47.83
1011.188	47.94
1011.541	47.62
1011.894	47.88
1012.247	48.11
1012.6	48.29
1012.952	48.63
1013.305	48.65
1013.657	48.58
1014.01	48.91
1014.362	49.31
1014.715	49.34
1015.067	49.34
1015.419	49.91
1015.771	50.31
1016.123	50.46
1016.475	50.71
1016.827	50.72
1017.179	51.08
1017.531	51.36
1017.883	51.65
1018.234	51.56
1018.586	51.53
1018.938	51.55
1019.289	51.47
1019.64	51.39
1019.992	51.5
1020.343	51.61
1020.694	51.61
1021.045	51.72
1021.396	52
1021.747	51.99
1022.098	52.47
1022.449	52.87
1022.8	53.41
1023.151	53.59
1023.501	53.94
1023.852	54.35
1024.202	54.47
1024.553	54.79
1024.903	55.09
1025.253	55.61
1025.604	55.89
1025.954	56.11
1026.304	56.62
1026.654	56.62
1027.004	57.11
1027.354	57.26
1027.703	57.33
1028.053	57.5
1028.403	58.01
1028.753	58.56
1029.102	58.32
1029.452	58.52
1029.801	58.48
1030.15	58.3
1030.499	58.76
897.758	483.41
901.051	491.14
904.343	497.04
907.636	487.92
910.928	480.89
914.22	492.09
917.511	480.94
920.803	463.38
924.094	443.9
927.384	447.14
930.675	431.3
933.965	426.61
937.255	425.04
940.544	405.5
943.834	388.81
947.123	381.27
950.411	361.15
953.7	355.12
956.988	344.97
960.276	329.08
963.563	323.84
966.851	305.82
970.138	300.28
973.424	279.5
976.711	274.15
979.997	265.41
983.283	260.24
986.568	249.67
989.853	242.94
993.138	235.15
996.423	231.65
999.708	224.27
1002.992	225.28
1006.275	218.1
1009.559	217.4
1012.842	211.23
1016.125	203.36
1019.408	199.67
1022.69	196.97
1025.972	196.47
1029.254	189.68
1032.536	186.83
1035.817	181.11
1039.098	178.56
1042.379	176.23
1045.659	172.54
1048.939	170.89
1052.219	168.75
1055.498	165.68
1058.778	163.61
1062.057	159.78
1065.335	159.98
1068.614	156.22
1071.892	154.82
1075.17	150.78
1078.447	148.11
1081.724	147.85
1085.001	146.81
1088.278	144.04
1091.554	142.56
1094.83	142.13
1098.106	140.12
1101.382	138.84
1104.657	137.63
1107.932	136.86
1111.206	136.13
1114.481	135.83
1117.755	133.46
1121.029	131.65
1124.302	131.47
1127.575	130.57
1130.848	129.7
1134.121	126.68
1137.393	126.11
1140.665	125.96
1143.937	124.31
1147.208	122.61
1150.48	120.02
1153.75	120.19
1157.021	118.92
1160.291	118.24
1163.561	116.92
1166.831	116.52
1170.101	116.79
1173.37	116.74
1176.639	115.52
1179.907	115.54
1183.176	116.15
1186.444	116.77
1189.711	115.18
1192.979	116.55
1196.246	116.96
1199.513	116.34
1202.78	116.11
1206.046	116.32
1209.312	116.69
1212.578	117.59
1215.843	119.33
1219.108	119.29
1222.373	121.17
1225.638	123.95
1228.902	126.17
1232.166	129.3
1235.43	131.67
1238.693	135.7
1241.956	138.52
1245.219	141.02
1248.482	142.49
1251.744	141.79
1255.006	142.65
1258.268	138.37
1261.529	137.42
1264.79	134.37
1268.051	131.77
1271.312	130.14
1274.572	127.55
1277.832	124.67
1281.092	123.04
1284.351	120.24
1287.61	120.32
1290.869	119.34
1294.128	119.2
1297.386	119.19
1300.644	119.14
1303.902	117.88
1307.159	117.49
1310.416	117.23
1313.673	118.86
1316.93	120.51
1320.186	122.56
1323.442	123.27
1326.697	126.74
1329.953	127.61
1333.208	130.88
1336.463	134.22
1339.717	138.4
1342.972	145.18
1346.226	150.41
1349.479	151.82
1352.733	158.17
1355.986	159.94
1359.238	164.85
1362.491	165.8
1365.743	172.23
1368.995	174.76
1372.247	177.68
1375.498	176.33
1378.749	183.4
1382	180.49
1385.251	180.89
1388.501	180.6
1391.751	185.2
1395	183.13
1398.25	183.4
1401.499	182.91
1404.748	181.82
1407.996	177.16
1411.244	178.18
1414.492	173.95
1417.74	170.75
1420.987	166.19
1424.234	162.5
1427.481	156.5
1430.728	151.69
1433.974	148.13
1437.22	143.91
1440.465	138.69
1443.711	133.92
1446.956	129.26
1450.201	124.92
1453.445	119.89
1456.689	116.48
1459.933	112.59
1463.177	107.94
1466.42	106.15
1469.663	101.65
1472.906	98.71
1476.148	95.4
1479.391	93.4
1482.633	91.87
1485.874	90.1
1489.115	89.05
1492.356	87.52
1495.597	86.18
1498.838	85.16
1502.078	84.34
1505.318	84.5
1508.557	83.02
1511.797	82.91
1515.036	83.27
1518.274	82.49
1521.513	81.04
1524.751	80.61
1527.989	80.94
1531.227	80.58
1534.464	80.44
1537.701	79.38
1540.938	79.12
1544.174	79.22
1547.41	79.31
1550.646	78.74
1553.882	78.64
1557.117	78.37
1560.352	78.25
1563.587	77.47
1566.821	77.35
1570.055	76.94
1573.289	77.1
1576.523	77.03
1579.756	76.67
1582.989	76.73
1586.222	76.08
1589.454	75.92
1592.686	75.63
1595.918	75.49
1599.15	75.38
1602.381	75.39
1605.612	75.66
1608.843	75.71
1612.073	75.77
1615.303	76.37
1618.533	75.41
1621.762	75.52
1624.992	75.73
1628.221	75.74
1631.449	75.94
1634.678	76.04
1637.906	76.68
1641.134	76.38
1644.361	76.3
1647.588	75.81
1650.815	75.74
1654.042	76.61
1657.269	76.42
1660.495	77.12
1663.72	76.79
1666.946	76.69
1670.171	76.97
1673.396	76.15
1676.621	76.87
1679.845	77.24
1683.069	77.49
1686.293	76.9
1689.517	76.92
1692.74	77.33
1695.963	77.22
1699.185	77.89
1702.408	78.01
1705.63	77.94
1708.852	79.25
1712.073	78.41
1715.294	78.33
1718.515	79.35
1721.736	79.91
1724.956	78.95
1728.176	78.85
1731.396	79.42
1734.616	79.39
1737.835	79.49
1741.054	79.46
1744.272	79.37
1747.491	80.1
1750.709	80.62
1753.927	80.23
1757.144	80.44
1760.361	81.37
1763.578	82.07
1766.795	82.03
1770.011	82.83
1773.227	83.19
1776.443	83.82
1779.658	83.49
1782.874	83.99
1786.089	83.72
1789.303	84.13
1792.518	85.03
1795.732	85.89
1798.945	86.42
1802.159	86.53
1805.372	87.46
1808.585	88.28
1811.797	88.78
1815.01	89.49
1818.222	90.37
1821.434	90.65
1824.645	91.73
1827.856	92.66
1831.067	92.68
1834.278	94.63
1837.488	95.1
1840.698	95.41
1843.908	95.43
1847.117	96.63
1850.326	97.7
1853.535	98.3
1856.744	99.63
1859.952	100.04
1863.16	100.13
1866.368	100.88
1869.575	100.41
1872.782	100.97
1875.989	100.3
1879.196	100.49
1882.402	99.52
1885.608	100.58
1888.814	99.9
1892.019	100.86
1895.224	99.69
1898.429	100.48
1901.634	100.8
1904.838	100.72
1908.042	101.25
1911.246	102.18
1914.449	102.57
1917.652	102.2
1920.855	102.86
1924.058	102.07
1927.26	102.11
1930.462	102.99
1933.664	103.04
1936.865	102.68
1940.066	101.95
1943.267	101.43
1946.467	101.68
1949.668	101.33
1952.868	102.45
1956.067	101.41
1959.267	102.89
1962.466	103.45
1965.665	103.32
1968.863	103.5
1972.061	103.76
1975.259	106.5
1978.457	107.13
1981.654	108.49
1984.852	109.62
1988.048	110.98
1991.245	112.39
1994.441	114.52
1997.637	117.33
2000.833	120.1
2004.028	121.74
2007.223	127.43
2010.418	130.08
2013.613	134.77
2016.807	138.14
2020.001	139.97
2023.194	144.8
2026.388	149.59
2029.581	156.49
2032.774	161.41
2035.966	165.07
2039.158	170.66
2042.35	171.18
2045.542	172.44
2048.733	180.06
2051.924	181.42
2055.115	186.05
2058.306	186.51
2061.496	189.66
2064.686	189.21
2067.875	187.33
2071.065	191.57
2074.254	190.6
2077.442	196.95
2080.631	200.09
2083.819	200.29
2087.007	203.42
2090.195	208.43
2093.382	206.69
2096.569	206.86
2099.756	211.39
2102.942	215.94
2106.128	220.09
2109.314	223.37
2112.5	222.57
2115.685	222.24
2118.87	221.86
2122.055	223.95
2125.239	225.18
2128.424	235.15
2131.608	233.31
2134.791	232.69
2137.974	232.66
2141.157	235.25
2144.34	237.14
2147.523	240.75
2150.705	245.72
2153.887	243.31
2157.068	247.12
2160.25	249.46
2163.431	245.5
2166.611	250.51
2169.792	256.71
2172.972	260.71
2176.152	260.72
2179.331	265.19
2182.511	264.2
2185.69	266.39
2188.868	278.31
2192.047	284.18
2195.225	287.95
2198.403	293.18
2201.58	293.39
2204.758	299.37
2207.935	300.78
2211.111	305.74
2214.288	308.78
2217.464	312.68
2220.64	318.13
2223.815	316.46
2226.991	315.65
2230.166	318.25
2233.34	328.91
2236.515	333.21
2239.689	328.36
2242.863	336.07
2246.036	333
2249.209	341.42
2252.382	341.99
2255.555	351.73
2258.727	355.27
2261.9	359.64
2265.071	365.65
2268.243	361.82
2271.414	373.5
2274.585	382.8
2277.756	381.37
2280.926	393.16
2284.096	394.38
2287.266	396.93
2290.436	388.64
2293.605	398.24
2296.774	416.71
2299.942	417.31
2303.111	431.84
2306.279	438.65
2309.447	442.55
2312.614	444.02
2315.781	456.8
2318.948	462.58
2322.115	471.91
2325.281	495.28
2328.447	493.3
2331.613	491.77
2334.779	498.62
2337.944	504.63
2341.109	514.94
2344.274	516.69
2347.438	536.81
2350.602	545.22
2353.766	571.35
2356.929	574.73
2360.092	586.72
2363.255	585.07
2366.418	595.83
2369.58	604.08
2372.742	609.12
2375.904	607.36
2379.066	626.32
2382.227	666.25
2385.388	661.11
2388.548	632.16
2391.709	626.94
2394.869	645.09
2398.029	651.52
2401.188	646.75
2404.347	670.31
2407.506	686.94
2410.665	663.34
2413.823	664.1
2416.981	655.48
2420.139	621.81
2423.296	677.4
2426.453	717.45
2429.61	685.49
2432.767	732.69
2435.923	762.8
2439.079	731.13
2442.235	747.41
2445.391	762.78
2448.546	762.17
2451.701	793.94
2454.855	854.89
2458.009	750.77
2461.163	762.86
2464.317	764.82
2467.471	742.15
2470.624	772.36
2473.777	769.54
2476.929	745.89
2480.082	793.65
2483.234	832.19
2486.385	846.31
2489.537	865.08
2492.688	960.38
2495.839	940.47
2498.989	967.98
2502.14	982.64
2505.29	931.47
2508.439	1033.69
2511.589	1057.66
2514.738	1022.83
2517.887	1012.11
2521.035	957.88
2524.183	941.99
2527.331	927.08
2530.479	910.1
2533.627	935.52
