Data from c_1_hir_il_4n_023_Splice17_14.txt Node
Date: Sat Feb 29 13:19:41 EST 2020
User: sa697716
Spectrometer: FLMS03696
Trigger mode: 0
Integration Time (sec): 3.180400E-1
Scans to average: 20
Electric dark correction enabled: true
Nonlinearity correction enabled: true
Boxcar width: 5
XAxis mode: Wavelengths
Number of Pixels in Spectrum: 2048
>>>>>Begin Spectral Data<<<<<
187.83	93.5
188.298	84.82
188.766	77.61
189.233	64.19
189.701	63.52
190.169	59.4
190.636	66.91
191.104	32.05
191.571	-0.06
192.039	-48.17
192.506	473.12
192.974	9396.37
193.441	-252.18
193.908	66.2
194.375	-39.37
194.842	-60.57
195.31	-31.31
195.777	-3.96
196.244	2.3
196.711	27.33
197.177	29.27
197.644	30.74
198.111	30.87
198.578	31.88
199.045	32.93
199.511	33.52
199.978	34.32
200.445	34.36
200.911	34.39
201.378	34.8
201.844	35.44
202.31	35.84
202.777	36.25
203.243	36.64
203.709	37.1
204.176	36.29
204.642	36.17
205.108	35.68
205.574	35.71
206.04	35.62
206.506	35.34
206.972	34.62
207.438	33.88
207.903	33.55
208.369	32.94
208.835	32.37
209.301	32.18
209.766	31.76
210.232	31.27
210.697	30.98
211.163	30.51
211.628	29.63
212.094	29.62
212.559	29.51
213.024	28.84
213.49	28.39
213.955	27.89
214.42	27.51
214.885	26.58
215.35	25.7
215.815	24.47
216.28	23.36
216.745	22.38
217.21	21.03
217.675	19.8
218.14	18.77
218.604	17.67
219.069	16.79
219.534	16.09
219.998	15.47
220.463	15.01
220.927	14.59
221.392	14.23
221.856	13.84
222.32	13.55
222.785	13.3
223.249	13.02
223.713	12.83
224.177	12.63
224.642	12.4
225.106	12.23
225.57	12.02
226.034	11.87
226.497	11.64
226.961	11.47
227.425	11.27
227.889	11.07
228.353	10.91
228.816	10.75
229.28	10.57
229.744	10.44
230.207	10.29
230.671	10.17
231.134	10.02
231.597	9.9
232.061	9.79
232.524	9.67
232.987	9.56
233.45	9.44
233.914	9.34
234.377	9.26
234.84	9.15
235.303	9.06
235.766	8.94
236.229	8.85
236.691	8.77
237.154	8.69
237.617	8.62
238.08	8.54
238.542	8.47
239.005	8.38
239.468	8.31
239.93	8.25
240.393	8.19
240.855	8.11
241.317	8.03
241.78	7.97
242.242	7.88
242.704	7.82
243.166	7.76
243.629	7.68
244.091	7.63
244.553	7.57
245.015	7.5
245.477	7.43
245.939	7.37
246.4	7.32
246.862	7.26
247.324	7.22
247.786	7.16
248.247	7.12
248.709	7.07
249.17	7.03
249.632	6.96
250.093	6.9
250.555	6.87
251.016	6.83
251.477	6.79
251.939	6.74
252.4	6.68
252.861	6.64
253.322	6.58
253.783	6.54
254.244	6.5
254.705	6.47
255.166	6.45
255.627	6.4
256.088	6.35
256.549	6.31
257.009	6.28
257.47	6.25
257.931	6.21
258.391	6.18
258.852	6.13
259.312	6.1
259.773	6.05
260.233	6.01
260.694	5.98
261.154	5.94
261.614	5.91
262.074	5.88
262.534	5.83
262.994	5.8
263.455	5.77
263.915	5.74
264.374	5.71
264.834	5.68
265.294	5.66
265.754	5.63
266.214	5.6
266.673	5.58
267.133	5.55
267.593	5.53
268.052	5.51
268.512	5.49
268.971	5.46
269.431	5.44
269.89	5.42
270.349	5.39
270.809	5.37
271.268	5.35
271.727	5.33
272.186	5.32
272.645	5.29
273.104	5.28
273.563	5.26
274.022	5.24
274.481	5.22
274.94	5.19
275.399	5.18
275.857	5.16
276.316	5.14
276.775	5.12
277.233	5.09
277.692	5.07
278.15	5.05
278.609	5.03
279.067	5.01
279.525	4.99
279.984	4.97
280.442	4.95
280.9	4.93
281.358	4.92
281.816	4.9
282.274	4.89
282.732	4.88
283.19	4.87
283.648	4.86
284.106	4.84
284.564	4.84
285.021	4.83
285.479	4.82
285.937	4.82
286.394	4.8
286.852	4.8
287.309	4.79
287.767	4.77
288.224	4.75
288.682	4.73
289.139	4.72
289.596	4.69
290.053	4.66
290.511	4.63
290.968	4.62
291.425	4.6
291.882	4.58
292.339	4.55
292.796	4.54
293.252	4.51
293.709	4.49
294.166	4.48
294.623	4.47
295.079	4.46
295.536	4.45
295.992	4.43
296.449	4.42
296.905	4.41
297.362	4.39
297.818	4.38
298.274	4.36
298.731	4.35
299.187	4.34
299.643	4.33
300.099	4.32
300.555	4.31
301.011	4.3
301.467	4.27
301.923	4.27
302.379	4.27
302.835	4.26
303.291	4.26
303.746	4.25
304.202	4.23
304.658	4.23
305.113	4.22
305.569	4.22
306.024	4.21
306.479	4.21
306.935	4.21
307.39	4.2
307.845	4.19
308.301	4.18
308.756	4.19
309.211	4.18
309.666	4.18
310.121	4.17
310.576	4.16
311.031	4.16
311.486	4.16
311.94	4.14
312.395	4.15
312.85	4.14
313.305	4.14
313.759	4.13
314.214	4.12
314.668	4.11
315.123	4.11
315.577	4.1
316.032	4.08
316.486	4.08
316.94	4.07
317.394	4.05
317.849	4.05
318.303	4.04
318.757	4.02
319.211	4.01
319.665	4
320.119	3.99
320.572	3.99
321.026	3.99
321.48	3.98
321.934	3.98
322.387	3.98
322.841	3.97
323.295	3.97
323.748	3.96
324.202	3.96
324.655	3.96
325.108	3.94
325.562	3.92
326.015	3.91
326.468	3.89
326.921	3.88
327.374	3.87
327.827	3.86
328.28	3.85
328.733	3.83
329.186	3.83
329.639	3.82
330.092	3.82
330.545	3.82
330.997	3.82
331.45	3.82
331.903	3.81
332.355	3.82
332.808	3.82
333.26	3.81
333.713	3.82
334.165	3.82
334.617	3.82
335.069	3.82
335.522	3.81
335.974	3.82
336.426	3.83
336.878	3.83
337.33	3.83
337.782	3.82
338.234	3.83
338.686	3.82
339.137	3.81
339.589	3.8
340.041	3.8
340.493	3.79
340.944	3.78
341.396	3.78
341.847	3.76
342.299	3.75
342.75	3.73
343.201	3.71
343.653	3.71
344.104	3.69
344.555	3.68
345.006	3.66
345.457	3.65
345.908	3.64
346.359	3.63
346.81	3.62
347.261	3.61
347.712	3.61
348.163	3.61
348.613	3.6
349.064	3.59
349.515	3.58
349.965	3.56
350.416	3.56
350.866	3.56
351.317	3.56
351.767	3.55
352.217	3.55
352.668	3.54
353.118	3.54
353.568	3.55
354.018	3.55
354.468	3.55
354.918	3.56
355.368	3.56
355.818	3.56
356.268	3.56
356.718	3.55
357.168	3.54
357.617	3.55
358.067	3.54
358.517	3.53
358.966	3.53
359.416	3.53
359.865	3.52
360.315	3.52
360.764	3.51
361.213	3.5
361.663	3.5
362.112	3.51
362.561	3.5
363.01	3.5
363.459	3.49
363.908	3.49
364.357	3.49
364.806	3.49
365.255	3.5
365.703	3.51
366.152	3.52
366.601	3.51
367.05	3.51
367.498	3.51
367.947	3.52
368.395	3.53
368.844	3.53
369.292	3.53
369.74	3.52
370.189	3.52
370.637	3.52
371.085	3.53
371.533	3.53
371.981	3.54
372.429	3.53
372.877	3.54
373.325	3.53
373.773	3.54
374.221	3.54
374.669	3.56
375.116	3.55
375.564	3.56
376.012	3.56
376.459	3.58
376.907	3.59
377.354	3.6
377.801	3.61
378.249	3.62
378.696	3.64
379.143	3.65
379.591	3.66
380.038	3.68
380.485	3.69
380.932	3.7
381.379	3.72
381.826	3.73
382.273	3.75
382.72	3.76
383.166	3.79
383.613	3.8
384.06	3.82
384.506	3.82
384.953	3.84
385.4	3.86
385.846	3.87
386.292	3.88
386.739	3.89
387.185	3.91
387.631	3.91
388.078	3.93
388.524	3.92
388.97	3.94
389.416	3.96
389.862	3.97
390.308	3.99
390.754	4
391.2	4.03
391.645	4.05
392.091	4.06
392.537	4.07
392.983	4.1
393.428	4.12
393.874	4.14
394.319	4.16
394.765	4.17
395.21	4.17
395.655	4.19
396.101	4.19
396.546	4.2
396.991	4.21
397.436	4.22
397.881	4.22
398.326	4.24
398.771	4.26
399.216	4.28
399.661	4.3
400.106	4.33
400.551	4.33
400.995	4.33
401.44	4.33
401.885	4.34
402.329	4.35
402.774	4.35
403.218	4.34
403.663	4.33
404.107	4.34
404.551	4.34
404.995	4.33
405.44	4.33
405.884	4.34
406.328	4.34
406.772	4.35
407.216	4.36
407.66	4.36
408.104	4.37
408.547	4.38
408.991	4.36
409.435	4.36
409.879	4.36
410.322	4.36
410.766	4.37
411.209	4.38
411.653	4.36
412.096	4.36
412.54	4.37
412.983	4.37
413.426	4.39
413.869	4.41
414.312	4.42
414.756	4.43
415.199	4.43
415.642	4.45
416.085	4.45
416.527	4.45
416.97	4.46
417.413	4.46
417.856	4.45
418.298	4.43
418.741	4.43
419.184	4.43
419.626	4.42
420.069	4.41
420.511	4.41
420.953	4.4
421.396	4.41
421.838	4.41
422.28	4.42
422.722	4.43
423.164	4.44
423.606	4.44
424.048	4.43
424.49	4.44
424.932	4.44
425.374	4.43
425.816	4.43
426.258	4.4
426.699	4.37
427.141	4.35
427.582	4.34
428.024	4.35
428.465	4.34
428.907	4.35
429.348	4.34
429.789	4.34
430.231	4.33
430.672	4.35
431.113	4.36
431.554	4.37
431.995	4.39
432.436	4.38
432.877	4.37
433.318	4.36
433.759	4.36
434.2	4.36
434.64	4.37
435.081	4.36
435.522	4.37
435.962	4.38
436.403	4.4
436.843	4.41
437.284	4.43
437.724	4.45
438.164	4.49
438.604	4.51
439.045	4.52
439.485	4.52
439.925	4.53
440.365	4.52
440.805	4.51
441.245	4.49
441.685	4.52
442.125	4.52
442.564	4.52
443.004	4.52
443.444	4.51
443.883	4.52
444.323	4.53
444.762	4.56
445.202	4.6
445.641	4.63
446.081	4.66
446.52	4.64
446.959	4.65
447.398	4.67
447.837	4.68
448.276	4.68
448.716	4.69
449.154	4.71
449.593	4.71
450.032	4.69
450.471	4.69
450.91	4.7
451.349	4.71
451.787	4.7
452.226	4.66
452.664	4.66
453.103	4.66
453.541	4.66
453.98	4.64
454.418	4.63
454.856	4.62
455.295	4.6
455.733	4.6
456.171	4.59
456.609	4.6
457.047	4.6
457.485	4.59
457.923	4.59
458.361	4.58
458.798	4.6
459.236	4.59
459.674	4.59
460.111	4.61
460.549	4.58
460.987	4.58
461.424	4.57
461.862	4.57
462.299	4.56
462.736	4.57
463.173	4.56
463.611	4.54
464.048	4.55
464.485	4.54
464.922	4.53
465.359	4.55
465.796	4.53
466.233	4.53
466.67	4.54
467.106	4.54
467.543	4.54
467.98	4.55
468.416	4.56
468.853	4.56
469.29	4.56
469.726	4.57
470.162	4.55
470.599	4.57
471.035	4.59
471.471	4.58
471.907	4.58
472.344	4.58
472.78	4.57
473.216	4.56
473.652	4.54
474.088	4.54
474.523	4.53
474.959	4.53
475.395	4.52
475.831	4.49
476.266	4.48
476.702	4.47
477.138	4.45
477.573	4.42
478.008	4.42
478.444	4.41
478.879	4.4
479.314	4.39
479.75	4.38
480.185	4.37
480.62	4.37
481.055	4.36
481.49	4.36
481.925	4.36
482.36	4.35
482.795	4.34
483.229	4.34
483.664	4.34
484.099	4.34
484.534	4.34
484.968	4.33
485.403	4.32
485.837	4.32
486.271	4.32
486.706	4.31
487.14	4.33
487.574	4.33
488.009	4.34
488.443	4.35
488.877	4.36
489.311	4.36
489.745	4.38
490.179	4.4
490.613	4.42
491.046	4.45
491.48	4.46
491.914	4.48
492.348	4.5
492.781	4.51
493.215	4.53
493.648	4.57
494.082	4.61
494.515	4.63
494.948	4.65
495.382	4.68
495.815	4.71
496.248	4.75
496.681	4.79
497.114	4.83
497.547	4.87
497.98	4.93
498.413	4.97
498.846	5.03
499.279	5.09
499.711	5.15
500.144	5.21
500.577	5.28
501.009	5.34
501.442	5.42
501.874	5.49
502.306	5.57
502.739	5.65
503.171	5.74
503.603	5.83
504.036	5.94
504.468	6.06
504.9	6.18
505.332	6.3
505.764	6.44
506.196	6.56
506.627	6.7
507.059	6.85
507.491	7.01
507.923	7.15
508.354	7.32
508.786	7.48
509.217	7.65
509.649	7.83
510.08	8.02
510.512	8.2
510.943	8.4
511.374	8.61
511.805	8.81
512.237	9.02
512.668	9.24
513.099	9.47
513.53	9.71
513.961	9.94
514.391	10.17
514.822	10.4
515.253	10.66
515.684	10.9
516.114	11.17
516.545	11.43
516.975	11.7
517.406	11.97
517.836	12.25
518.267	12.53
518.697	12.81
519.127	13.11
519.558	13.39
519.988	13.69
520.418	13.95
520.848	14.23
521.278	14.52
521.708	14.75
522.138	15.01
522.567	15.27
522.997	15.53
523.427	15.78
523.857	16.02
524.286	16.26
524.716	16.48
525.145	16.74
525.575	16.95
526.004	17.15
526.433	17.38
526.863	17.6
527.292	17.8
527.721	17.96
528.15	18.14
528.579	18.3
529.008	18.47
529.437	18.63
529.866	18.76
530.295	18.92
530.724	19.08
531.152	19.23
531.581	19.34
532.01	19.46
532.438	19.58
532.867	19.69
533.295	19.79
533.723	19.89
534.152	19.97
534.58	20.07
535.008	20.12
535.436	20.19
535.865	20.25
536.293	20.33
536.721	20.39
537.149	20.43
537.576	20.48
538.004	20.53
538.432	20.57
538.86	20.61
539.287	20.64
539.715	20.69
540.143	20.72
540.57	20.75
540.998	20.79
541.425	20.83
541.852	20.87
542.28	20.9
542.707	20.94
543.134	20.95
543.561	20.97
543.988	21
544.415	21.04
544.842	21.06
545.269	21.1
545.696	21.12
546.123	21.12
546.549	21.14
546.976	21.15
547.403	21.16
547.829	21.2
548.256	21.22
548.682	21.23
549.108	21.22
549.535	21.23
549.961	21.22
550.387	21.22
550.813	21.22
551.24	21.22
551.666	21.24
552.092	21.24
552.518	21.2
552.943	21.18
553.369	21.17
553.795	21.16
554.221	21.13
554.646	21.09
555.072	21.04
555.498	20.98
555.923	20.91
556.349	20.83
556.774	20.78
557.199	20.73
557.625	20.63
558.05	20.53
558.475	20.43
558.9	20.33
559.325	20.23
559.75	20.13
560.175	20.03
560.6	19.92
561.025	19.82
561.449	19.66
561.874	19.53
562.299	19.39
562.723	19.26
563.148	19.11
563.572	18.98
563.997	18.82
564.421	18.68
564.846	18.52
565.27	18.35
565.694	18.19
566.118	18.04
566.542	17.88
566.966	17.73
567.39	17.56
567.814	17.4
568.238	17.21
568.662	17.05
569.086	16.88
569.509	16.71
569.933	16.53
570.357	16.35
570.78	16.19
571.204	16.01
571.627	15.85
572.05	15.7
572.474	15.55
572.897	15.41
573.32	15.24
573.743	15.11
574.166	14.97
574.589	14.84
575.012	14.7
575.435	14.55
575.858	14.43
576.281	14.31
576.704	14.19
577.126	14.08
577.549	13.97
577.972	13.88
578.394	13.76
578.817	13.67
579.239	13.58
579.661	13.49
580.084	13.4
580.506	13.31
580.928	13.21
581.35	13.14
581.772	13.05
582.194	12.96
582.616	12.88
583.038	12.81
583.46	12.75
583.882	12.67
584.303	12.59
584.725	12.53
585.147	12.46
585.568	12.4
585.99	12.34
586.411	12.27
586.833	12.22
587.254	12.15
587.675	12.09
588.096	12.02
588.518	11.98
588.939	11.95
589.36	11.89
589.781	11.84
590.202	11.79
590.623	11.74
591.043	11.7
591.464	11.66
591.885	11.62
592.305	11.59
592.726	11.56
593.147	11.53
593.567	11.49
593.987	11.47
594.408	11.45
594.828	11.43
595.248	11.4
595.669	11.37
596.089	11.34
596.509	11.29
596.929	11.25
597.349	11.21
597.769	11.17
598.189	11.14
598.608	11.11
599.028	11.06
599.448	11.02
599.867	10.98
600.287	10.94
600.706	10.91
601.126	10.87
601.545	10.83
601.965	10.79
602.384	10.75
602.803	10.7
603.222	10.63
603.641	10.58
604.061	10.53
604.48	10.48
604.898	10.42
605.317	10.34
605.736	10.29
606.155	10.22
606.574	10.15
606.992	10.07
607.411	10.01
607.829	9.91
608.248	9.85
608.666	9.78
609.085	9.7
609.503	9.62
609.921	9.56
610.339	9.5
610.758	9.43
611.176	9.38
611.594	9.3
612.012	9.23
612.43	9.2
612.847	9.14
613.265	9.08
613.683	9.02
614.101	8.95
614.518	8.89
614.936	8.83
615.353	8.78
615.771	8.7
616.188	8.66
616.606	8.62
617.023	8.56
617.44	8.49
617.857	8.44
618.274	8.4
618.691	8.36
619.108	8.32
619.525	8.28
619.942	8.24
620.359	8.21
620.776	8.16
621.192	8.13
621.609	8.12
622.026	8.1
622.442	8.07
622.859	8.04
623.275	8.03
623.691	8.01
624.108	8
624.524	7.98
624.94	7.97
625.356	7.97
625.772	7.95
626.188	7.93
626.604	7.9
627.02	7.9
627.436	7.89
627.852	7.88
628.268	7.87
628.683	7.84
629.099	7.83
629.514	7.82
629.93	7.81
630.345	7.8
630.761	7.77
631.176	7.78
631.591	7.75
632.007	7.72
632.422	7.69
632.837	7.65
633.252	7.61
633.667	7.57
634.082	7.53
634.497	7.46
634.911	7.39
635.326	7.34
635.741	7.26
636.155	7.2
636.57	7.12
636.984	7.04
637.399	6.96
637.813	6.88
638.228	6.8
638.642	6.72
639.056	6.65
639.47	6.57
639.884	6.48
640.298	6.41
640.712	6.33
641.126	6.26
641.54	6.19
641.954	6.14
642.368	6.08
642.781	6.01
643.195	5.95
643.609	5.89
644.022	5.83
644.436	5.77
644.849	5.72
645.262	5.67
645.676	5.61
646.089	5.55
646.502	5.48
646.915	5.43
647.328	5.38
647.741	5.33
648.154	5.3
648.567	5.27
648.98	5.24
649.393	5.21
649.805	5.18
650.218	5.17
650.631	5.15
651.043	5.13
651.456	5.11
651.868	5.08
652.28	5.06
652.693	5.02
653.105	4.99
653.517	4.96
653.929	4.93
654.341	4.9
654.753	4.85
655.165	4.81
655.577	4.77
655.989	4.73
656.401	4.69
656.813	4.65
657.224	4.62
657.636	4.58
658.047	4.55
658.459	4.5
658.87	4.45
659.282	4.44
659.693	4.4
660.104	4.37
660.515	4.34
660.926	4.31
661.338	4.28
661.749	4.24
662.159	4.21
662.57	4.18
662.981	4.16
663.392	4.13
663.803	4.09
664.213	4.06
664.624	4.05
665.035	4.03
665.445	4.01
665.855	4
666.266	3.99
666.676	3.98
667.086	3.97
667.497	3.95
667.907	3.94
668.317	3.93
668.727	3.93
669.137	3.93
669.547	3.93
669.956	3.94
670.366	3.95
670.776	3.95
671.186	3.96
671.595	3.98
672.005	4
672.414	4.01
672.824	4.04
673.233	4.06
673.642	4.08
674.052	4.1
674.461	4.12
674.87	4.13
675.279	4.14
675.688	4.16
676.097	4.18
676.506	4.21
676.915	4.24
677.323	4.26
677.732	4.28
678.141	4.31
678.549	4.34
678.958	4.38
679.366	4.41
679.775	4.46
680.183	4.49
680.592	4.52
681	4.54
681.408	4.58
681.816	4.63
682.224	4.69
682.632	4.74
683.04	4.81
683.448	4.86
683.856	4.93
684.264	5.02
684.671	5.11
685.079	5.2
685.487	5.34
685.894	5.46
686.302	5.6
686.709	5.74
687.116	5.91
687.524	6.1
687.931	6.31
688.338	6.55
688.745	6.8
689.152	7.09
689.559	7.39
689.966	7.69
690.373	8.07
690.78	8.43
691.187	8.82
691.593	9.22
692	9.65
692.407	10.1
692.813	10.57
693.22	11.05
693.626	11.56
694.032	12.1
694.439	12.65
694.845	13.19
695.251	13.74
695.657	14.33
696.063	14.92
696.469	15.52
696.875	16.1
697.281	16.7
697.687	17.32
698.093	17.94
698.498	18.56
698.904	19.15
699.31	19.75
699.715	20.38
700.12	21
700.526	21.61
700.931	22.22
701.337	22.85
701.742	23.42
702.147	24.01
702.552	24.62
702.957	25.19
703.362	25.83
703.767	26.42
704.172	26.99
704.577	27.55
704.981	28.11
705.386	28.67
705.791	29.23
706.195	29.8
706.6	30.33
707.004	30.86
707.408	31.4
707.813	31.9
708.217	32.44
708.621	32.99
709.025	33.5
709.43	34
709.834	34.52
710.237	35
710.641	35.51
711.045	35.99
711.449	36.48
711.853	36.99
712.256	37.47
712.66	37.95
713.064	38.39
713.467	38.86
713.87	39.3
714.274	39.77
714.677	40.25
715.08	40.68
715.484	41.14
715.887	41.56
716.29	41.95
716.693	42.34
717.096	42.71
717.499	43.12
717.901	43.48
718.304	43.9
718.707	44.25
719.109	44.61
719.512	45
719.915	45.38
720.317	45.75
720.719	46.08
721.122	46.42
721.524	46.8
721.926	47.15
722.328	47.51
722.731	47.83
723.133	48.15
723.535	48.49
723.937	48.76
724.338	49.01
724.74	49.28
725.142	49.53
725.544	49.77
725.945	49.98
726.347	50.23
726.748	50.43
727.15	50.66
727.551	50.87
727.952	51.05
728.354	51.27
728.755	51.5
729.156	51.7
729.557	51.95
729.958	52.17
730.359	52.37
730.76	52.49
731.161	52.68
731.562	52.84
731.962	53.02
732.363	53.16
732.763	53.33
733.164	53.41
733.564	53.55
733.965	53.68
734.365	53.78
734.766	53.9
735.166	54
735.566	54.1
735.966	54.2
736.366	54.27
736.766	54.38
737.166	54.48
737.566	54.59
737.966	54.7
738.365	54.78
738.765	54.86
739.165	54.93
739.564	55.02
739.964	55.11
740.363	55.19
740.763	55.25
741.162	55.29
741.561	55.36
741.96	55.44
742.36	55.52
742.759	55.57
743.158	55.63
743.557	55.72
743.955	55.83
744.354	55.91
744.753	55.94
745.152	56.01
745.55	56.09
745.949	56.12
746.348	56.15
746.746	56.14
747.144	56.21
747.543	56.28
747.941	56.35
748.339	56.38
748.737	56.44
749.136	56.49
749.534	56.56
749.932	56.59
750.33	56.6
750.727	56.67
751.125	56.73
751.523	56.74
751.921	56.73
752.318	56.72
752.716	56.7
753.113	56.68
753.511	56.67
753.908	56.65
754.305	56.64
754.703	56.65
755.1	56.63
755.497	56.59
755.894	56.6
756.291	56.59
756.688	56.6
757.085	56.59
757.482	56.57
757.878	56.6
758.275	56.59
758.672	56.61
759.068	56.6
759.465	56.59
759.861	56.58
760.258	56.56
760.654	56.56
761.05	56.58
761.447	56.56
761.843	56.54
762.239	56.52
762.635	56.51
763.031	56.48
763.427	56.48
763.822	56.47
764.218	56.49
764.614	56.49
765.01	56.49
765.405	56.43
765.801	56.48
766.196	56.49
766.592	56.48
766.987	56.52
767.382	56.52
767.778	56.54
768.173	56.55
768.568	56.52
768.963	56.53
769.358	56.51
769.753	56.54
770.148	56.5
770.542	56.48
770.937	56.47
771.332	56.44
771.726	56.45
772.121	56.39
772.515	56.37
772.91	56.42
773.304	56.41
773.699	56.42
774.093	56.37
774.487	56.4
774.881	56.4
775.275	56.4
775.669	56.41
776.063	56.38
776.457	56.38
776.851	56.35
777.245	56.33
777.638	56.29
778.032	56.31
778.425	56.33
778.819	56.29
779.212	56.27
779.606	56.24
779.999	56.24
780.392	56.23
780.786	56.27
781.179	56.34
781.572	56.35
781.965	56.35
782.358	56.3
782.751	56.29
783.143	56.32
783.536	56.37
783.929	56.41
784.322	56.42
784.714	56.45
785.107	56.45
785.499	56.41
785.891	56.38
786.284	56.38
786.676	56.42
787.068	56.42
787.46	56.42
787.852	56.41
788.245	56.39
788.636	56.38
789.028	56.32
789.42	56.27
789.812	56.28
790.204	56.26
790.595	56.26
790.987	56.22
791.378	56.23
791.77	56.22
792.161	56.18
792.553	56.15
792.944	56.16
793.335	56.2
793.726	56.2
794.117	56.18
794.508	56.2
794.899	56.21
795.29	56.2
795.681	56.22
796.072	56.21
796.463	56.19
796.853	56.22
797.244	56.2
797.634	56.22
798.025	56.23
798.415	56.26
798.806	56.28
799.196	56.29
799.586	56.3
799.976	56.31
800.366	56.31
800.756	56.37
801.146	56.35
801.536	56.35
801.926	56.32
802.316	56.35
802.706	56.36
803.095	56.39
803.485	56.38
803.874	56.38
804.264	56.4
804.653	56.39
805.043	56.41
805.432	56.41
805.821	56.39
806.21	56.44
806.599	56.46
806.988	56.44
807.377	56.44
807.766	56.47
808.155	56.46
808.544	56.45
808.933	56.5
809.321	56.51
809.71	56.53
810.098	56.57
810.487	56.57
810.875	56.56
811.264	56.57
811.652	56.55
812.04	56.53
812.428	56.57
812.816	56.58
813.204	56.58
813.592	56.58
813.98	56.55
814.368	56.53
814.756	56.52
815.144	56.52
815.531	56.52
815.919	56.52
816.306	56.54
816.694	56.54
817.081	56.5
817.469	56.5
817.856	56.51
818.243	56.52
818.63	56.59
819.017	56.62
819.404	56.62
819.791	56.63
820.178	56.65
820.565	56.65
820.952	56.63
821.339	56.69
821.725	56.7
822.112	56.7
822.498	56.73
822.885	56.67
823.271	56.66
823.657	56.65
824.044	56.63
824.43	56.67
824.816	56.67
825.202	56.67
825.588	56.65
825.974	56.66
826.36	56.65
826.746	56.67
827.132	56.67
827.517	56.66
827.903	56.67
828.289	56.68
828.674	56.63
829.06	56.66
829.445	56.71
829.83	56.71
830.216	56.72
830.601	56.72
830.986	56.7
831.371	56.74
831.756	56.72
832.141	56.74
832.526	56.74
832.911	56.76
833.295	56.75
833.68	56.74
834.065	56.76
834.449	56.76
834.834	56.76
835.218	56.75
835.603	56.75
835.987	56.79
836.371	56.81
836.755	56.81
837.139	56.82
837.524	56.83
837.908	56.8
838.291	56.8
838.675	56.8
839.059	56.81
839.443	56.8
839.827	56.82
840.21	56.83
840.594	56.82
840.977	56.82
841.361	56.83
841.744	56.84
842.127	56.85
842.511	56.85
842.894	56.84
843.277	56.85
843.66	56.86
844.043	56.84
844.426	56.83
844.809	56.82
845.191	56.8
845.574	56.8
845.957	56.75
846.339	56.76
846.722	56.78
847.104	56.77
847.487	56.77
847.869	56.76
848.252	56.76
848.634	56.77
849.016	56.78
849.398	56.82
849.78	56.83
850.162	56.85
850.544	56.84
850.926	56.8
851.307	56.8
851.689	56.78
852.071	56.79
852.452	56.77
852.834	56.75
853.215	56.75
853.597	56.7
853.978	56.67
854.359	56.65
854.741	56.66
855.122	56.65
855.503	56.65
855.884	56.65
856.265	56.62
856.646	56.63
857.026	56.61
857.407	56.56
857.788	56.59
858.169	56.6
858.549	56.65
858.93	56.63
859.31	56.62
859.69	56.62
860.071	56.64
860.451	56.66
860.831	56.67
861.211	56.68
861.591	56.71
861.971	56.67
862.351	56.68
862.731	56.64
863.111	56.67
863.491	56.67
863.87	56.65
864.25	56.64
864.629	56.65
865.009	56.62
865.388	56.6
865.768	56.59
866.147	56.61
866.526	56.6
866.905	56.6
867.284	56.59
867.663	56.6
868.042	56.61
868.421	56.6
868.8	56.59
869.179	56.63
869.558	56.67
869.936	56.67
870.315	56.65
870.693	56.65
871.072	56.61
871.45	56.57
871.828	56.58
872.207	56.61
872.585	56.59
872.963	56.58
873.341	56.56
873.719	56.53
874.097	56.53
874.475	56.55
874.853	56.55
875.23	56.58
875.608	56.62
875.986	56.58
876.363	56.52
876.741	56.53
877.118	56.54
877.495	56.53
877.873	56.52
878.25	56.51
878.627	56.53
879.004	56.52
879.381	56.53
879.758	56.49
880.135	56.53
880.512	56.57
880.889	56.58
881.265	56.59
881.642	56.6
882.019	56.61
882.395	56.63
882.772	56.59
883.148	56.61
883.524	56.61
883.901	56.61
884.277	56.63
884.653	56.65
885.029	56.67
885.405	56.66
885.781	56.65
886.157	56.67
886.532	56.67
886.908	56.72
887.284	56.74
887.659	56.76
888.035	56.78
888.411	56.74
888.786	56.7
889.161	56.68
889.537	56.68
889.912	56.67
890.287	56.68
890.662	56.68
891.037	56.62
891.412	56.59
891.787	56.55
892.162	56.52
892.536	56.54
892.911	56.55
893.286	56.54
893.66	56.53
894.035	56.52
894.409	56.48
894.784	56.49
895.158	56.49
895.532	56.46
895.906	56.46
896.281	56.47
896.655	56.43
897.029	56.4
897.402	56.4
897.776	56.37
898.15	56.36
898.524	56.35
898.898	56.3
899.271	56.3
899.645	56.31
900.018	56.3
900.392	56.26
900.765	56.3
901.138	56.31
901.511	56.28
901.884	56.29
902.258	56.27
902.631	56.27
903.003	56.25
903.376	56.23
903.749	56.25
904.122	56.24
904.495	56.26
904.867	56.23
905.24	56.2
905.612	56.19
905.985	56.16
906.357	56.16
906.729	56.13
907.102	56.14
907.474	56.13
907.846	56.07
908.218	56.06
908.59	56.02
908.962	56
909.334	56.01
909.705	56.04
910.077	56.01
910.449	56.03
910.82	56.03
911.192	56.04
911.563	56.04
911.935	56.04
912.306	56.03
912.677	56.04
913.048	56.01
913.419	55.98
913.79	55.95
914.161	55.98
914.532	55.91
914.903	55.87
915.274	55.82
915.645	55.82
916.015	55.79
916.386	55.75
916.756	55.69
917.127	55.72
917.497	55.73
917.868	55.7
918.238	55.71
918.608	55.7
918.978	55.7
919.348	55.71
919.718	55.67
920.088	55.69
920.458	55.75
920.828	55.79
921.198	55.81
921.567	55.78
921.937	55.8
922.306	55.77
922.676	55.82
923.045	55.82
923.415	55.79
923.784	55.83
924.153	55.82
924.522	55.8
924.891	55.76
925.26	55.71
925.629	55.74
925.998	55.73
926.367	55.71
926.736	55.66
927.104	55.71
927.473	55.74
927.842	55.72
928.21	55.76
928.578	55.7
928.947	55.73
929.315	55.71
929.683	55.72
930.051	55.71
930.42	55.69
930.788	55.7
931.156	55.65
931.523	55.65
931.891	55.59
932.259	55.5
932.627	55.48
932.994	55.42
933.362	55.34
933.729	55.23
934.097	55.14
934.464	55.11
934.831	55.07
935.199	54.98
935.566	54.86
935.933	54.86
936.3	54.78
936.667	54.71
937.034	54.63
937.401	54.62
937.767	54.61
938.134	54.63
938.501	54.55
938.867	54.49
939.234	54.56
939.6	54.5
939.967	54.5
940.333	54.56
940.699	54.64
941.065	54.74
941.431	54.78
941.798	54.77
942.163	54.82
942.529	54.87
942.895	54.95
943.261	54.9
943.627	55.02
943.992	55.07
944.358	55.06
944.723	55.06
945.089	55.1
945.454	55.17
945.82	55.16
946.185	55.16
946.55	55.34
946.915	55.37
947.28	55.34
947.645	55.38
948.01	55.32
948.375	55.42
948.74	55.42
949.104	55.39
949.469	55.32
949.834	55.3
950.198	55.25
950.562	55.15
950.927	55.11
951.291	55.13
951.655	55.11
952.02	55.12
952.384	55.13
952.748	55.08
953.112	55.08
953.476	55.08
953.839	55.07
954.203	54.98
954.567	54.91
954.931	54.88
955.294	54.9
955.658	54.82
956.021	54.77
956.385	54.76
956.748	54.77
957.111	54.76
957.474	54.76
957.837	54.8
958.2	54.8
958.563	54.81
958.926	54.8
959.289	54.82
959.652	54.81
960.015	54.76
960.377	54.7
960.74	54.62
961.102	54.55
961.465	54.51
961.827	54.4
962.189	54.41
962.552	54.38
962.914	54.31
963.276	54.25
963.638	54.24
964	54.22
964.362	54.21
964.724	54.25
965.085	54.32
965.447	54.29
965.809	54.25
966.17	54.21
966.532	54.21
966.893	54.23
967.255	54.19
967.616	54.21
967.977	54.25
968.338	54.2
968.699	54.13
969.061	53.96
969.421	53.96
969.782	54
970.143	54
970.504	53.97
970.865	53.94
971.225	53.91
971.586	53.9
971.946	53.9
972.307	53.91
972.667	53.93
973.027	54.06
973.388	54.08
973.748	54.1
974.108	54.08
974.468	54.07
974.828	54.14
975.188	54.19
975.548	54.15
975.907	54.16
976.267	54.14
976.627	54.13
976.986	54.07
977.346	54
977.705	53.98
978.064	54.06
978.424	54.1
978.783	54.05
979.142	53.99
979.501	53.95
979.86	53.92
980.219	53.9
980.578	53.93
980.937	54.01
981.296	54.08
981.654	54.15
982.013	54.09
982.371	54.04
982.73	54.07
983.088	54.09
983.447	54.11
983.805	54.11
984.163	54.19
984.521	54.08
984.879	54.05
985.237	54.07
985.595	54.04
985.953	54.08
986.311	54.01
986.669	54.01
987.026	54.06
987.384	54.03
987.741	54.09
988.099	54.03
988.456	54.04
988.814	54.02
989.171	53.98
989.528	53.88
989.885	53.86
990.242	54
990.599	53.94
990.956	53.91
991.313	53.86
991.67	53.82
992.027	53.75
992.383	53.8
992.74	53.71
993.096	53.66
993.453	53.65
993.809	53.65
994.165	53.55
994.522	53.47
994.878	53.32
995.234	53.36
995.59	53.23
995.946	53.3
996.302	53.16
996.658	53.16
997.013	53.17
997.369	53.19
997.725	53.22
998.08	53.2
998.436	53.36
998.791	53.4
999.147	53.56
999.502	53.61
999.857	53.68
1000.212	53.79
1000.567	53.82
1000.922	53.78
1001.277	53.73
1001.632	53.65
1001.987	53.64
1002.342	53.57
1002.696	53.53
1003.051	53.29
1003.406	53.22
1003.76	53.08
1004.114	53.14
1004.469	53.04
1004.823	53.02
1005.177	53.08
1005.531	52.95
1005.885	52.87
1006.239	52.95
1006.593	53.05
1006.947	53.04
1007.301	53.1
1007.655	52.97
1008.008	52.83
1008.362	52.92
1008.715	52.9
1009.069	52.82
1009.422	52.7
1009.776	52.73
1010.129	52.48
1010.482	52.63
1010.835	52.61
1011.188	52.58
1011.541	52.65
1011.894	52.52
1012.247	52.33
1012.6	52.19
1012.952	52.34
1013.305	52.43
1013.657	52.49
1014.01	52.59
1014.362	52.62
1014.715	52.66
1015.067	52.67
1015.419	52.62
1015.771	53.06
1016.123	53.2
1016.475	53.56
1016.827	53.47
1017.179	53.51
1017.531	53.38
1017.883	53.53
1018.234	53.39
1018.586	53.22
1018.938	53.07
1019.289	52.98
1019.64	52.81
1019.992	52.95
1020.343	52.71
1020.694	52.52
1021.045	52.65
1021.396	52.69
1021.747	52.44
1022.098	52.38
1022.449	52.29
1022.8	52.34
1023.151	52.52
1023.501	52.66
1023.852	52.96
1024.202	52.95
1024.553	52.84
1024.903	52.36
1025.253	52.16
1025.604	52.3
1025.954	52.29
1026.304	53.08
1026.654	53.13
1027.004	53.26
1027.354	52.84
1027.703	52.05
1028.053	51.94
1028.403	52.3
1028.753	52.56
1029.102	52.8
1029.452	52.72
1029.801	52.53
1030.15	51.96
1030.499	51.92
897.758	84.95
901.051	99.86
904.343	99.91
907.636	99.72
910.928	98.96
914.22	100.35
917.511	96.85
920.803	103
924.094	99.96
927.384	101.82
930.675	99.02
933.965	100.06
937.255	95.54
940.544	92.4
943.834	86.98
947.123	87.36
950.411	86.57
953.7	86.85
956.988	83.18
960.276	82.11
963.563	82.46
966.851	79.26
970.138	80.13
973.424	76.79
976.711	76.48
979.997	76.75
983.283	74.44
986.568	71.97
989.853	72.23
993.138	71.72
996.423	70.97
999.708	69.45
1002.992	69.37
1006.275	70.19
1009.559	70.74
1012.842	70.83
1016.125	70.16
1019.408	69.83
1022.69	70.87
1025.972	71.51
1029.254	71.02
1032.536	71.02
1035.817	70.01
1039.098	70.72
1042.379	69.39
1045.659	68.02
1048.939	68.18
1052.219	67.71
1055.498	68.13
1058.778	67.26
1062.057	66.46
1065.335	66.45
1068.614	64.58
1071.892	65.12
1075.17	63.76
1078.447	63.87
1081.724	64.78
1085.001	63.87
1088.278	63.23
1091.554	63.11
1094.83	63.23
1098.106	62.87
1101.382	63
1104.657	64.21
1107.932	63.24
1111.206	64.51
1114.481	63.66
1117.755	62.54
1121.029	62.51
1124.302	62.74
1127.575	62.78
1130.848	62.21
1134.121	61.4
1137.393	61.09
1140.665	60
1143.937	59.54
1147.208	58.22
1150.48	58.18
1153.75	58.54
1157.021	58.43
1160.291	58.58
1163.561	57.06
1166.831	57.97
1170.101	58.13
1173.37	57.96
1176.639	57.91
1179.907	58.46
1183.176	58.64
1186.444	58.42
1189.711	57.7
1192.979	57.72
1196.246	58.53
1199.513	58.4
1202.78	57.63
1206.046	57.77
1209.312	57.8
1212.578	58.31
1215.843	58.59
1219.108	57.86
1222.373	58.61
1225.638	59.12
1228.902	59.54
1232.166	59.32
1235.43	59.09
1238.693	59.85
1241.956	59.51
1245.219	60.34
1248.482	60.07
1251.744	59.83
1255.006	61.76
1258.268	59.83
1261.529	60.16
1264.79	60.42
1268.051	59.52
1271.312	61.34
1274.572	60.72
1277.832	61.16
1281.092	60.46
1284.351	60.86
1287.61	60.7
1290.869	59.2
1294.128	60.13
1297.386	59.36
1300.644	58.67
1303.902	58.7
1307.159	57.26
1310.416	56.97
1313.673	57.08
1316.93	57.44
1320.186	57.45
1323.442	56.76
1326.697	57.36
1329.953	56.45
1333.208	56.08
1336.463	56.85
1339.717	56.92
1342.972	57.96
1346.226	58.68
1349.479	58.65
1352.733	58.82
1355.986	57.31
1359.238	58.29
1362.491	58.46
1365.743	58.46
1368.995	59.82
1372.247	56.84
1375.498	55.53
1378.749	55.25
1382	54.42
1385.251	51.93
1388.501	50.93
1391.751	51.22
1395	50.36
1398.25	49.62
1401.499	48.13
1404.748	46.54
1407.996	48.45
1411.244	49.65
1414.492	48.13
1417.74	44.19
1420.987	44.24
1424.234	43.48
1427.481	41.02
1430.728	40.24
1433.974	39.07
1437.22	38.77
1440.465	38.08
1443.711	35.69
1446.956	34.61
1450.201	34.72
1453.445	34.6
1456.689	34.52
1459.933	33.33
1463.177	32.17
1466.42	31.8
1469.663	31.75
1472.906	31.81
1476.148	31.95
1479.391	32.01
1482.633	31.95
1485.874	32.15
1489.115	32.73
1492.356	32.26
1495.597	33.01
1498.838	34.65
1502.078	35.06
1505.318	34.97
1508.557	34.87
1511.797	35.41
1515.036	36.41
1518.274	36.29
1521.513	36.21
1524.751	36.53
1527.989	37.58
1531.227	37.31
1534.464	37.8
1537.701	37.51
1540.938	37.71
1544.174	38.1
1547.41	38.04
1550.646	38.25
1553.882	39
1557.117	39.67
1560.352	39.52
1563.587	39.76
1566.821	40.18
1570.055	40.02
1573.289	41.04
1576.523	40.95
1579.756	41.08
1582.989	41.54
1586.222	41.61
1589.454	41.56
1592.686	41.93
1595.918	42.11
1599.15	42.06
1602.381	42.04
1605.612	42.68
1608.843	42.25
1612.073	42.81
1615.303	43.48
1618.533	43.13
1621.762	43.58
1624.992	43.2
1628.221	42.91
1631.449	43.3
1634.678	43.71
1637.906	44.28
1641.134	44.18
1644.361	44.26
1647.588	44.95
1650.815	44.69
1654.042	45.32
1657.269	44.46
1660.495	45.37
1663.72	45.34
1666.946	45.34
1670.171	45.19
1673.396	44.89
1676.621	44.62
1679.845	45.54
1683.069	44.51
1686.293	44.17
1689.517	44.04
1692.74	44.26
1695.963	44.31
1699.185	44.25
1702.408	43.61
1705.63	43.63
1708.852	43.89
1712.073	43.65
1715.294	42.84
1718.515	43.54
1721.736	43.6
1724.956	43.12
1728.176	43.25
1731.396	42.84
1734.616	42.88
1737.835	43.15
1741.054	42.55
1744.272	42.8
1747.491	42.87
1750.709	42.57
1753.927	42.16
1757.144	42.11
1760.361	41.92
1763.578	41.62
1766.795	41.51
1770.011	41.81
1773.227	41.77
1776.443	41.95
1779.658	41.1
1782.874	41.27
1786.089	40.62
1789.303	40.64
1792.518	40.77
1795.732	41.06
1798.945	42.17
1802.159	41.91
1805.372	41.46
1808.585	41.47
1811.797	41.76
1815.01	41.8
1818.222	41.95
1821.434	42.25
1824.645	42.01
1827.856	41.97
1831.067	41.2
1834.278	41.18
1837.488	41.32
1840.698	40.75
1843.908	40.57
1847.117	40.51
1850.326	39.9
1853.535	40.48
1856.744	39.79
1859.952	38.73
1863.16	37.76
1866.368	38.18
1869.575	35.96
1872.782	34.75
1875.989	32.95
1879.196	32.91
1882.402	30.12
1885.608	30.3
1888.814	27.2
1892.019	25.8
1895.224	24.85
1898.429	23.93
1901.634	22.54
1904.838	21.65
1908.042	20.97
1911.246	21.31
1914.449	20.01
1917.652	20.42
1920.855	18.95
1924.058	18.43
1927.26	17.9
1930.462	17.94
1933.664	19.1
1936.865	18.97
1940.066	18.24
1943.267	17.72
1946.467	17.77
1949.668	17.18
1952.868	17.25
1956.067	17.24
1959.267	19.17
1962.466	19.42
1965.665	19.72
1968.863	19.18
1972.061	19.06
1975.259	20.21
1978.457	21.39
1981.654	21.79
1984.852	22.74
1988.048	23.37
1991.245	24.32
1994.441	23.82
1997.637	24.5
2000.833	26.61
2004.028	26.61
2007.223	27.55
2010.418	28.65
2013.613	29.38
2016.807	30.11
2020.001	28.4
2023.194	31.46
2026.388	31.66
2029.581	32.93
2032.774	33.57
2035.966	32.99
2039.158	34.58
2042.35	34.23
2045.542	34.95
2048.733	36.16
2051.924	34.09
2055.115	38.06
2058.306	36.93
2061.496	36.88
2064.686	36.3
2067.875	38.43
2071.065	41.02
2074.254	39.14
2077.442	41.21
2080.631	40.58
2083.819	40.81
2087.007	43.77
2090.195	44.92
2093.382	42.09
2096.569	43.24
2099.756	47.34
2102.942	47.15
2106.128	45.11
2109.314	48.68
2112.5	48.37
2115.685	47.89
2118.87	47.19
2122.055	48.52
2125.239	46.42
2128.424	48.45
2131.608	45.87
2134.791	43.45
2137.974	43.49
2141.157	45.17
2144.34	44.14
2147.523	45.62
2150.705	46.74
2153.887	47.66
2157.068	48.24
2160.25	48.89
2163.431	50.58
2166.611	53.65
2169.792	54.31
2172.972	56.15
2176.152	57.65
2179.331	58.09
2182.511	57.79
2185.69	58.24
2188.868	56.52
2192.047	57.31
2195.225	60.92
2198.403	56.16
2201.58	57.4
2204.758	59.89
2207.935	58.66
2211.111	54.96
2214.288	56.22
2217.464	56.59
2220.64	59.06
2223.815	60.36
2226.991	62.09
2230.166	60.94
2233.34	64.11
2236.515	63.73
2239.689	59.81
2242.863	63.15
2246.036	63.37
2249.209	60.9
2252.382	62.46
2255.555	61.31
2258.727	62.95
2261.9	59.61
2265.071	61.02
2268.243	64.66
2271.414	61.8
2274.585	64.7
2277.756	64.59
2280.926	63.8
2284.096	66.13
2287.266	65.65
2290.436	65.53
2293.605	68.39
2296.774	74.78
2299.942	70.85
2303.111	72.81
2306.279	77.61
2309.447	79.03
2312.614	75.6
2315.781	75.27
2318.948	80.56
2322.115	82.01
2325.281	81.94
2328.447	75.85
2331.613	76.39
2334.779	80.46
2337.944	76.02
2341.109	77.2
2344.274	75.64
2347.438	78.23
2350.602	85.79
2353.766	87.21
2356.929	85.93
2360.092	87.98
2363.255	94.83
2366.418	89.64
2369.58	87.93
2372.742	101.03
2375.904	99.74
2379.066	102.58
2382.227	108.35
2385.388	103.64
2388.548	101.06
2391.709	101.57
2394.869	107.57
2398.029	111.23
2401.188	116.42
2404.347	117.26
2407.506	107.2
2410.665	110.02
2413.823	112.98
2416.981	114.84
2420.139	108.24
2423.296	113.97
2426.453	124.46
2429.61	111.87
2432.767	111.53
2435.923	114.02
2439.079	118.64
2442.235	123.48
2445.391	125.61
2448.546	126.29
2451.701	125.2
2454.855	139.37
2458.009	128.32
2461.163	119.68
2464.317	128.23
2467.471	128.06
2470.624	128.04
2473.777	127.58
2476.929	128.76
2480.082	123.6
2483.234	124.96
2486.385	133.48
2489.537	136.4
2492.688	152.4
2495.839	151.71
2498.989	157.86
2502.14	156.02
2505.29	145.25
2508.439	156.38
2511.589	158.49
2514.738	156.92
2517.887	155.95
2521.035	139.29
2524.183	142.46
2527.331	132.87
2530.479	133.54
2533.627	134.59
