Data from c_1_hir_il_4n_023_Splice17_04.txt Node
Date: Sat Feb 29 13:19:20 EST 2020
User: sa697716
Spectrometer: FLMS03696
Trigger mode: 0
Integration Time (sec): 3.180400E-1
Scans to average: 20
Electric dark correction enabled: true
Nonlinearity correction enabled: true
Boxcar width: 5
XAxis mode: Wavelengths
Number of Pixels in Spectrum: 2048
>>>>>Begin Spectral Data<<<<<
187.83	34.52
188.298	31.63
188.766	22.21
189.233	26.75
189.701	47.66
190.169	62.9
190.636	57.31
191.104	42.8
191.571	271.91
192.039	413.57
192.506	-526.01
192.974	-660.57
193.441	-15.73
193.908	16.12
194.375	95
194.842	247.76
195.31	197.68
195.777	164.87
196.244	53.17
196.711	45.44
197.177	39.78
197.644	37.04
198.111	35.93
198.578	35.91
199.045	35.91
199.511	35.88
199.978	36.33
200.445	35.69
200.911	36.21
201.378	36.55
201.844	36.68
202.31	37.47
202.777	37.94
203.243	38.31
203.709	38.06
204.176	37.47
204.642	37.17
205.108	36.99
205.574	37.65
206.04	36.97
206.506	36.35
206.972	36.12
207.438	35.35
207.903	34.73
208.369	33.9
208.835	33.81
209.301	33.87
209.766	33.66
210.232	32.87
210.697	32.03
211.163	31.61
211.628	31.15
212.094	30.44
212.559	29.66
213.024	29.27
213.49	29.21
213.955	28.83
214.42	28.2
214.885	27.11
215.35	26.39
215.815	25.41
216.28	24.36
216.745	23.03
217.21	21.93
217.675	20.79
218.14	19.54
218.604	18.41
219.069	17.44
219.534	16.58
219.998	15.91
220.463	15.31
220.927	14.82
221.392	14.41
221.856	14.11
222.32	13.72
222.785	13.44
223.249	13.16
223.713	12.93
224.177	12.66
224.642	12.47
225.106	12.28
225.57	12.06
226.034	11.86
226.497	11.67
226.961	11.44
227.425	11.25
227.889	11.06
228.353	10.89
228.816	10.68
229.28	10.49
229.744	10.36
230.207	10.22
230.671	10.08
231.134	9.94
231.597	9.78
232.061	9.66
232.524	9.57
232.987	9.43
233.45	9.3
233.914	9.2
234.377	9.12
234.84	9.01
235.303	8.91
235.766	8.81
236.229	8.71
236.691	8.63
237.154	8.54
237.617	8.44
238.08	8.36
238.542	8.29
239.005	8.21
239.468	8.12
239.93	8.04
240.393	7.96
240.855	7.87
241.317	7.81
241.78	7.75
242.242	7.67
242.704	7.6
243.166	7.53
243.629	7.46
244.091	7.39
244.553	7.34
245.015	7.29
245.477	7.23
245.939	7.16
246.4	7.11
246.862	7.05
247.324	7
247.786	6.95
248.247	6.9
248.709	6.85
249.17	6.8
249.632	6.73
250.093	6.65
250.555	6.61
251.016	6.57
251.477	6.51
251.939	6.46
252.4	6.42
252.861	6.37
253.322	6.31
253.783	6.29
254.244	6.24
254.705	6.21
255.166	6.19
255.627	6.15
256.088	6.12
256.549	6.09
257.009	6.05
257.47	6.02
257.931	5.98
258.391	5.94
258.852	5.89
259.312	5.86
259.773	5.83
260.233	5.79
260.694	5.75
261.154	5.71
261.614	5.66
262.074	5.63
262.534	5.59
262.994	5.56
263.455	5.53
263.915	5.51
264.374	5.47
264.834	5.43
265.294	5.41
265.754	5.38
266.214	5.36
266.673	5.34
267.133	5.32
267.593	5.29
268.052	5.27
268.512	5.25
268.971	5.23
269.431	5.22
269.89	5.2
270.349	5.18
270.809	5.16
271.268	5.14
271.727	5.12
272.186	5.11
272.645	5.09
273.104	5.07
273.563	5.06
274.022	5.04
274.481	5.02
274.94	5
275.399	4.99
275.857	4.98
276.316	4.96
276.775	4.94
277.233	4.92
277.692	4.91
278.15	4.89
278.609	4.86
279.067	4.84
279.525	4.82
279.984	4.8
280.442	4.78
280.9	4.76
281.358	4.74
281.816	4.72
282.274	4.71
282.732	4.69
283.19	4.68
283.648	4.68
284.106	4.67
284.564	4.67
285.021	4.65
285.479	4.64
285.937	4.63
286.394	4.61
286.852	4.59
287.309	4.58
287.767	4.56
288.224	4.54
288.682	4.53
289.139	4.51
289.596	4.49
290.053	4.47
290.511	4.44
290.968	4.43
291.425	4.41
291.882	4.4
292.339	4.38
292.796	4.35
293.252	4.33
293.709	4.31
294.166	4.3
294.623	4.28
295.079	4.26
295.536	4.26
295.992	4.24
296.449	4.23
296.905	4.21
297.362	4.2
297.818	4.19
298.274	4.19
298.731	4.17
299.187	4.16
299.643	4.15
300.099	4.14
300.555	4.12
301.011	4.1
301.467	4.09
301.923	4.09
302.379	4.08
302.835	4.07
303.291	4.05
303.746	4.04
304.202	4.02
304.658	4.01
305.113	4
305.569	4
306.024	3.99
306.479	3.98
306.935	3.96
307.39	3.96
307.845	3.96
308.301	3.96
308.756	3.96
309.211	3.96
309.666	3.96
310.121	3.95
310.576	3.94
311.031	3.94
311.486	3.94
311.94	3.93
312.395	3.92
312.85	3.92
313.305	3.91
313.759	3.91
314.214	3.9
314.668	3.9
315.123	3.9
315.577	3.9
316.032	3.89
316.486	3.89
316.94	3.89
317.394	3.88
317.849	3.86
318.303	3.86
318.757	3.85
319.211	3.83
319.665	3.83
320.119	3.82
320.572	3.8
321.026	3.79
321.48	3.77
321.934	3.76
322.387	3.75
322.841	3.75
323.295	3.74
323.748	3.74
324.202	3.73
324.655	3.72
325.108	3.7
325.562	3.69
326.015	3.68
326.468	3.68
326.921	3.67
327.374	3.66
327.827	3.65
328.28	3.63
328.733	3.61
329.186	3.61
329.639	3.6
330.092	3.6
330.545	3.59
330.997	3.61
331.45	3.61
331.903	3.61
332.355	3.61
332.808	3.62
333.26	3.62
333.713	3.63
334.165	3.63
334.617	3.64
335.069	3.64
335.522	3.65
335.974	3.63
336.426	3.63
336.878	3.61
337.33	3.62
337.782	3.62
338.234	3.62
338.686	3.6
339.137	3.62
339.589	3.61
340.041	3.59
340.493	3.58
340.944	3.58
341.396	3.57
341.847	3.56
342.299	3.54
342.75	3.52
343.201	3.51
343.653	3.5
344.104	3.47
344.555	3.46
345.006	3.44
345.457	3.43
345.908	3.41
346.359	3.41
346.81	3.4
347.261	3.4
347.712	3.41
348.163	3.41
348.613	3.4
349.064	3.38
349.515	3.38
349.965	3.38
350.416	3.38
350.866	3.38
351.317	3.37
351.767	3.37
352.217	3.36
352.668	3.35
353.118	3.35
353.568	3.35
354.018	3.36
354.468	3.36
354.918	3.37
355.368	3.36
355.818	3.35
356.268	3.35
356.718	3.34
357.168	3.33
357.617	3.33
358.067	3.32
358.517	3.32
358.966	3.32
359.416	3.32
359.865	3.32
360.315	3.32
360.764	3.32
361.213	3.32
361.663	3.33
362.112	3.34
362.561	3.34
363.01	3.34
363.459	3.34
363.908	3.35
364.357	3.34
364.806	3.35
365.255	3.35
365.703	3.36
366.152	3.36
366.601	3.36
367.05	3.36
367.498	3.36
367.947	3.35
368.395	3.36
368.844	3.35
369.292	3.35
369.74	3.36
370.189	3.35
370.637	3.35
371.085	3.36
371.533	3.37
371.981	3.38
372.429	3.38
372.877	3.39
373.325	3.39
373.773	3.4
374.221	3.41
374.669	3.42
375.116	3.41
375.564	3.42
376.012	3.42
376.459	3.43
376.907	3.44
377.354	3.44
377.801	3.45
378.249	3.46
378.696	3.48
379.143	3.49
379.591	3.51
380.038	3.53
380.485	3.56
380.932	3.57
381.379	3.58
381.826	3.6
382.273	3.61
382.72	3.63
383.166	3.64
383.613	3.66
384.06	3.67
384.506	3.69
384.953	3.7
385.4	3.71
385.846	3.72
386.292	3.75
386.739	3.76
387.185	3.79
387.631	3.82
388.078	3.84
388.524	3.83
388.97	3.84
389.416	3.86
389.862	3.88
390.308	3.9
390.754	3.92
391.2	3.94
391.645	3.95
392.091	3.96
392.537	3.97
392.983	3.99
393.428	4.02
393.874	4.05
394.319	4.06
394.765	4.08
395.21	4.09
395.655	4.11
396.101	4.12
396.546	4.14
396.991	4.15
397.436	4.14
397.881	4.16
398.326	4.19
398.771	4.21
399.216	4.24
399.661	4.25
400.106	4.29
400.551	4.28
400.995	4.29
401.44	4.29
401.885	4.3
402.329	4.32
402.774	4.33
403.218	4.32
403.663	4.3
404.107	4.31
404.551	4.32
404.995	4.31
405.44	4.32
405.884	4.33
406.328	4.34
406.772	4.34
407.216	4.35
407.66	4.35
408.104	4.36
408.547	4.37
408.991	4.35
409.435	4.35
409.879	4.36
410.322	4.37
410.766	4.38
411.209	4.38
411.653	4.37
412.096	4.38
412.54	4.37
412.983	4.38
413.426	4.4
413.869	4.42
414.312	4.44
414.756	4.45
415.199	4.45
415.642	4.46
416.085	4.48
416.527	4.51
416.97	4.52
417.413	4.51
417.856	4.5
418.298	4.49
418.741	4.49
419.184	4.47
419.626	4.45
420.069	4.45
420.511	4.45
420.953	4.43
421.396	4.44
421.838	4.45
422.28	4.48
422.722	4.48
423.164	4.5
423.606	4.5
424.048	4.49
424.49	4.5
424.932	4.5
425.374	4.5
425.816	4.5
426.258	4.48
426.699	4.46
427.141	4.44
427.582	4.43
428.024	4.44
428.465	4.45
428.907	4.47
429.348	4.45
429.789	4.46
430.231	4.46
430.672	4.48
431.113	4.48
431.554	4.49
431.995	4.5
432.436	4.5
432.877	4.47
433.318	4.46
433.759	4.47
434.2	4.48
434.64	4.47
435.081	4.47
435.522	4.48
435.962	4.49
436.403	4.5
436.843	4.49
437.284	4.52
437.724	4.55
438.164	4.57
438.604	4.59
439.045	4.58
439.485	4.6
439.925	4.6
440.365	4.59
440.805	4.59
441.245	4.57
441.685	4.61
442.125	4.6
442.564	4.59
443.004	4.59
443.444	4.59
443.883	4.61
444.323	4.6
444.762	4.64
445.202	4.69
445.641	4.71
446.081	4.75
446.52	4.73
446.959	4.74
447.398	4.78
447.837	4.81
448.276	4.83
448.716	4.84
449.154	4.88
449.593	4.87
450.032	4.87
450.471	4.88
450.91	4.87
451.349	4.88
451.787	4.9
452.226	4.86
452.664	4.85
453.103	4.83
453.541	4.81
453.98	4.78
454.418	4.76
454.856	4.72
455.295	4.69
455.733	4.7
456.171	4.69
456.609	4.68
457.047	4.68
457.485	4.67
457.923	4.67
458.361	4.65
458.798	4.65
459.236	4.65
459.674	4.66
460.111	4.67
460.549	4.67
460.987	4.67
461.424	4.67
461.862	4.69
462.299	4.69
462.736	4.69
463.173	4.71
463.611	4.7
464.048	4.72
464.485	4.72
464.922	4.72
465.359	4.73
465.796	4.71
466.233	4.74
466.67	4.74
467.106	4.74
467.543	4.74
467.98	4.74
468.416	4.78
468.853	4.77
469.29	4.76
469.726	4.76
470.162	4.75
470.599	4.77
471.035	4.75
471.471	4.74
471.907	4.74
472.344	4.73
472.78	4.72
473.216	4.7
473.652	4.71
474.088	4.71
474.523	4.69
474.959	4.69
475.395	4.68
475.831	4.67
476.266	4.68
476.702	4.67
477.138	4.66
477.573	4.64
478.008	4.63
478.444	4.61
478.879	4.59
479.314	4.59
479.75	4.6
480.185	4.59
480.62	4.58
481.055	4.56
481.49	4.55
481.925	4.55
482.36	4.53
482.795	4.54
483.229	4.52
483.664	4.52
484.099	4.51
484.534	4.49
484.968	4.49
485.403	4.49
485.837	4.49
486.271	4.49
486.706	4.49
487.14	4.5
487.574	4.51
488.009	4.52
488.443	4.53
488.877	4.54
489.311	4.55
489.745	4.57
490.179	4.57
490.613	4.58
491.046	4.6
491.48	4.63
491.914	4.65
492.348	4.66
492.781	4.68
493.215	4.7
493.648	4.73
494.082	4.77
494.515	4.8
494.948	4.83
495.382	4.87
495.815	4.91
496.248	4.93
496.681	4.97
497.114	5.01
497.547	5.06
497.98	5.1
498.413	5.15
498.846	5.2
499.279	5.26
499.711	5.32
500.144	5.39
500.577	5.45
501.009	5.53
501.442	5.61
501.874	5.68
502.306	5.76
502.739	5.85
503.171	5.94
503.603	6.04
504.036	6.15
504.468	6.26
504.9	6.38
505.332	6.51
505.764	6.64
506.196	6.78
506.627	6.92
507.059	7.06
507.491	7.22
507.923	7.37
508.354	7.53
508.786	7.69
509.217	7.85
509.649	8.03
510.08	8.22
510.512	8.41
510.943	8.61
511.374	8.82
511.805	9.04
512.237	9.26
512.668	9.49
513.099	9.73
513.53	9.96
513.961	10.22
514.391	10.47
514.822	10.71
515.253	10.96
515.684	11.22
516.114	11.48
516.545	11.74
516.975	12.01
517.406	12.3
517.836	12.56
518.267	12.84
518.697	13.12
519.127	13.39
519.558	13.68
519.988	13.95
520.418	14.23
520.848	14.51
521.278	14.79
521.708	15.05
522.138	15.31
522.567	15.59
522.997	15.84
523.427	16.1
523.857	16.35
524.286	16.59
524.716	16.84
525.145	17.08
525.575	17.3
526.004	17.52
526.433	17.73
526.863	17.95
527.292	18.15
527.721	18.34
528.15	18.51
528.579	18.68
529.008	18.86
529.437	19.02
529.866	19.18
530.295	19.33
530.724	19.5
531.152	19.65
531.581	19.77
532.01	19.9
532.438	20.03
532.867	20.16
533.295	20.27
533.723	20.38
534.152	20.46
534.58	20.54
535.008	20.61
535.436	20.67
535.865	20.75
536.293	20.82
536.721	20.87
537.149	20.92
537.576	20.96
538.004	21
538.432	21.03
538.86	21.08
539.287	21.13
539.715	21.17
540.143	21.19
540.57	21.21
540.998	21.24
541.425	21.28
541.852	21.31
542.28	21.32
542.707	21.37
543.134	21.4
543.561	21.43
543.988	21.45
544.415	21.48
544.842	21.51
545.269	21.53
545.696	21.56
546.123	21.59
546.549	21.61
546.976	21.64
547.403	21.65
547.829	21.66
548.256	21.67
548.682	21.68
549.108	21.69
549.535	21.69
549.961	21.7
550.387	21.7
550.813	21.67
551.24	21.68
551.666	21.68
552.092	21.67
552.518	21.66
552.943	21.64
553.369	21.62
553.795	21.59
554.221	21.56
554.646	21.51
555.072	21.47
555.498	21.42
555.923	21.36
556.349	21.3
556.774	21.23
557.199	21.17
557.625	21.11
558.05	21.02
558.475	20.94
558.9	20.85
559.325	20.75
559.75	20.63
560.175	20.53
560.6	20.42
561.025	20.3
561.449	20.16
561.874	20.05
562.299	19.9
562.723	19.76
563.148	19.62
563.572	19.47
563.997	19.32
564.421	19.17
564.846	19.03
565.27	18.87
565.694	18.72
566.118	18.57
566.542	18.4
566.966	18.25
567.39	18.09
567.814	17.9
568.238	17.73
568.662	17.55
569.086	17.39
569.509	17.21
569.933	17.04
570.357	16.85
570.78	16.68
571.204	16.5
571.627	16.33
572.05	16.17
572.474	16.03
572.897	15.88
573.32	15.73
573.743	15.58
574.166	15.43
574.589	15.3
575.012	15.18
575.435	15.03
575.858	14.91
576.281	14.81
576.704	14.68
577.126	14.57
577.549	14.46
577.972	14.36
578.394	14.25
578.817	14.15
579.239	14.04
579.661	13.94
580.084	13.86
580.506	13.76
580.928	13.66
581.35	13.57
581.772	13.49
582.194	13.4
582.616	13.33
583.038	13.26
583.46	13.2
583.882	13.15
584.303	13.07
584.725	13
585.147	12.91
585.568	12.85
585.99	12.79
586.411	12.73
586.833	12.68
587.254	12.62
587.675	12.55
588.096	12.49
588.518	12.44
588.939	12.4
589.36	12.35
589.781	12.33
590.202	12.28
590.623	12.23
591.043	12.19
591.464	12.12
591.885	12.09
592.305	12.06
592.726	12.01
593.147	11.97
593.567	11.93
593.987	11.9
594.408	11.87
594.828	11.86
595.248	11.84
595.669	11.81
596.089	11.78
596.509	11.74
596.929	11.71
597.349	11.68
597.769	11.65
598.189	11.63
598.608	11.59
599.028	11.54
599.448	11.5
599.867	11.46
600.287	11.42
600.706	11.38
601.126	11.33
601.545	11.28
601.965	11.24
602.384	11.2
602.803	11.15
603.222	11.09
603.641	11.04
604.061	10.98
604.48	10.92
604.898	10.85
605.317	10.79
605.736	10.74
606.155	10.67
606.574	10.61
606.992	10.53
607.411	10.47
607.829	10.36
608.248	10.29
608.666	10.23
609.085	10.17
609.503	10.1
609.921	10.02
610.339	9.95
610.758	9.89
611.176	9.81
611.594	9.72
612.012	9.65
612.43	9.63
612.847	9.56
613.265	9.49
613.683	9.41
614.101	9.33
614.518	9.27
614.936	9.21
615.353	9.14
615.771	9.07
616.188	9.04
616.606	8.97
617.023	8.91
617.44	8.87
617.857	8.81
618.274	8.78
618.691	8.74
619.108	8.71
619.525	8.69
619.942	8.65
620.359	8.62
620.776	8.59
621.192	8.56
621.609	8.52
622.026	8.49
622.442	8.47
622.859	8.45
623.275	8.44
623.691	8.41
624.108	8.39
624.524	8.37
624.94	8.36
625.356	8.35
625.772	8.35
626.188	8.35
626.604	8.34
627.02	8.34
627.436	8.32
627.852	8.3
628.268	8.28
628.683	8.26
629.099	8.26
629.514	8.23
629.93	8.22
630.345	8.18
630.761	8.15
631.176	8.12
631.591	8.09
632.007	8.06
632.422	8.03
632.837	7.99
633.252	7.95
633.667	7.9
634.082	7.87
634.497	7.79
634.911	7.74
635.326	7.68
635.741	7.61
636.155	7.55
636.57	7.48
636.984	7.38
637.399	7.3
637.813	7.22
638.228	7.14
638.642	7.06
639.056	6.99
639.47	6.91
639.884	6.83
640.298	6.75
640.712	6.66
641.126	6.57
641.54	6.52
641.954	6.46
642.368	6.39
642.781	6.3
643.195	6.22
643.609	6.14
644.022	6.07
644.436	6.01
644.849	5.95
645.262	5.9
645.676	5.84
646.089	5.77
646.502	5.71
646.915	5.65
647.328	5.62
647.741	5.57
648.154	5.54
648.567	5.51
648.98	5.48
649.393	5.46
649.805	5.42
650.218	5.39
650.631	5.39
651.043	5.36
651.456	5.35
651.868	5.32
652.28	5.31
652.693	5.27
653.105	5.24
653.517	5.21
653.929	5.18
654.341	5.16
654.753	5.12
655.165	5.09
655.577	5.05
655.989	5
656.401	4.96
656.813	4.91
657.224	4.87
657.636	4.83
658.047	4.78
658.459	4.73
658.87	4.69
659.282	4.67
659.693	4.62
660.104	4.58
660.515	4.55
660.926	4.52
661.338	4.47
661.749	4.44
662.159	4.41
662.57	4.38
662.981	4.36
663.392	4.32
663.803	4.27
664.213	4.25
664.624	4.23
665.035	4.2
665.445	4.18
665.855	4.2
666.266	4.18
666.676	4.18
667.086	4.18
667.497	4.15
667.907	4.15
668.317	4.14
668.727	4.13
669.137	4.12
669.547	4.15
669.956	4.16
670.366	4.15
670.776	4.16
671.186	4.18
671.595	4.2
672.005	4.23
672.414	4.25
672.824	4.29
673.233	4.33
673.642	4.34
674.052	4.36
674.461	4.37
674.87	4.4
675.279	4.42
675.688	4.44
676.097	4.46
676.506	4.48
676.915	4.5
677.323	4.52
677.732	4.55
678.141	4.59
678.549	4.63
678.958	4.67
679.366	4.69
679.775	4.74
680.183	4.78
680.592	4.82
681	4.85
681.408	4.89
681.816	4.94
682.224	5
682.632	5.04
683.04	5.09
683.448	5.16
683.856	5.24
684.264	5.33
684.671	5.43
685.079	5.54
685.487	5.68
685.894	5.82
686.302	5.97
686.709	6.13
687.116	6.32
687.524	6.54
687.931	6.75
688.338	7
688.745	7.27
689.152	7.56
689.559	7.88
689.966	8.22
690.373	8.59
690.78	8.99
691.187	9.42
691.593	9.85
692	10.31
692.407	10.78
692.813	11.27
693.22	11.78
693.626	12.31
694.032	12.85
694.439	13.4
694.845	13.98
695.251	14.57
695.657	15.14
696.063	15.75
696.469	16.36
696.875	16.97
697.281	17.59
697.687	18.2
698.093	18.84
698.498	19.46
698.904	20.08
699.31	20.68
699.715	21.28
700.12	21.88
700.526	22.49
700.931	23.07
701.337	23.68
701.742	24.25
702.147	24.84
702.552	25.41
702.957	25.97
703.362	26.57
703.767	27.13
704.172	27.69
704.577	28.26
704.981	28.81
705.386	29.37
705.791	29.92
706.195	30.48
706.6	31.02
707.004	31.56
707.408	32.1
707.813	32.6
708.217	33.1
708.621	33.63
709.025	34.15
709.43	34.64
709.834	35.17
710.237	35.64
710.641	36.12
711.045	36.6
711.449	37.07
711.853	37.54
712.256	38.02
712.66	38.51
713.064	38.97
713.467	39.4
713.87	39.87
714.274	40.3
714.677	40.74
715.08	41.16
715.484	41.61
715.887	42.04
716.29	42.46
716.693	42.86
717.096	43.26
717.499	43.67
717.901	44.05
718.304	44.43
718.707	44.81
719.109	45.21
719.512	45.63
719.915	45.99
720.317	46.36
720.719	46.71
721.122	47.05
721.524	47.42
721.926	47.77
722.328	48.12
722.731	48.45
723.133	48.73
723.535	49.03
723.937	49.29
724.338	49.55
724.74	49.84
725.142	50.02
725.544	50.27
725.945	50.48
726.347	50.68
726.748	50.89
727.15	51.11
727.551	51.36
727.952	51.54
728.354	51.79
728.755	51.99
729.156	52.21
729.557	52.49
729.958	52.7
730.359	52.91
730.76	53.1
731.161	53.3
731.562	53.46
731.962	53.63
732.363	53.82
732.763	53.97
733.164	54.12
733.564	54.22
733.965	54.34
734.365	54.44
734.766	54.56
735.166	54.64
735.566	54.74
735.966	54.84
736.366	54.93
736.766	55.01
737.166	55.1
737.566	55.2
737.966	55.29
738.365	55.4
738.765	55.5
739.165	55.56
739.564	55.68
739.964	55.74
740.363	55.8
740.763	55.85
741.162	55.88
741.561	55.92
741.96	56
742.36	56.06
742.759	56.07
743.158	56.1
743.557	56.16
743.955	56.22
744.354	56.29
744.753	56.36
745.152	56.4
745.55	56.48
745.949	56.52
746.348	56.56
746.746	56.61
747.144	56.73
747.543	56.82
747.941	56.89
748.339	56.92
748.737	56.99
749.136	57.04
749.534	57.1
749.932	57.14
750.33	57.16
750.727	57.2
751.125	57.21
751.523	57.18
751.921	57.19
752.318	57.19
752.716	57.17
753.113	57.14
753.511	57.13
753.908	57.11
754.305	57.09
754.703	57.06
755.1	57.03
755.497	57.01
755.894	57.02
756.291	56.97
756.688	56.95
757.085	56.96
757.482	56.95
757.878	56.97
758.275	56.95
758.672	56.99
759.068	57.03
759.465	57.04
759.861	57.06
760.258	57.01
760.654	57.03
761.05	57.05
761.447	57.03
761.843	57.01
762.239	56.96
762.635	56.97
763.031	56.98
763.427	56.97
763.822	56.95
764.218	56.92
764.614	56.96
765.01	56.98
765.405	56.94
765.801	56.92
766.196	56.96
766.592	57
766.987	57.02
767.382	57.02
767.778	57.01
768.173	57.03
768.568	57.02
768.963	57
769.358	57
769.753	57.04
770.148	57.06
770.542	57.04
770.937	57.01
771.332	57
771.726	56.95
772.121	56.91
772.515	56.91
772.91	56.92
773.304	56.91
773.699	56.9
774.093	56.9
774.487	56.9
774.881	56.89
775.275	56.91
775.669	56.89
776.063	56.89
776.457	56.9
776.851	56.87
777.245	56.88
777.638	56.9
778.032	56.9
778.425	56.88
778.819	56.85
779.212	56.83
779.606	56.79
779.999	56.79
780.392	56.81
780.786	56.82
781.179	56.83
781.572	56.83
781.965	56.84
782.358	56.8
782.751	56.8
783.143	56.87
783.536	56.9
783.929	56.92
784.322	56.93
784.714	56.92
785.107	56.92
785.499	56.92
785.891	56.92
786.284	56.88
786.676	56.91
787.068	56.88
787.46	56.82
787.852	56.81
788.245	56.8
788.636	56.8
789.028	56.78
789.42	56.76
789.812	56.75
790.204	56.71
790.595	56.72
790.987	56.69
791.378	56.67
791.77	56.71
792.161	56.66
792.553	56.66
792.944	56.68
793.335	56.71
793.726	56.71
794.117	56.7
794.508	56.69
794.899	56.68
795.29	56.67
795.681	56.71
796.072	56.71
796.463	56.72
796.853	56.74
797.244	56.71
797.634	56.69
798.025	56.71
798.415	56.73
798.806	56.79
799.196	56.82
799.586	56.84
799.976	56.83
800.366	56.86
800.756	56.87
801.146	56.88
801.536	56.9
801.926	56.9
802.316	56.86
802.706	56.88
803.095	56.83
803.485	56.87
803.874	56.9
804.264	56.95
804.653	56.92
805.043	56.9
805.432	56.86
805.821	56.82
806.21	56.87
806.599	56.93
806.988	56.93
807.377	56.98
807.766	56.97
808.155	56.95
808.544	56.96
808.933	56.96
809.321	57.02
809.71	57.08
810.098	57.09
810.487	57.08
810.875	57.06
811.264	57.09
811.652	57.07
812.04	57.08
812.428	57.07
812.816	57.07
813.204	57.06
813.592	57.05
813.98	57.02
814.368	57.03
814.756	57.02
815.144	57.03
815.531	57
815.919	57
816.306	56.97
816.694	56.98
817.081	56.95
817.469	56.96
817.856	56.99
818.243	57.01
818.63	57.07
819.017	57.09
819.404	57.05
819.791	57.04
820.178	57.07
820.565	57.05
820.952	57.05
821.339	57.1
821.725	57.13
822.112	57.1
822.498	57.11
822.885	57.06
823.271	57.09
823.657	57.1
824.044	57.12
824.43	57.15
824.816	57.14
825.202	57.11
825.588	57.11
825.974	57.11
826.36	57.11
826.746	57.13
827.132	57.11
827.517	57.11
827.903	57.13
828.289	57.13
828.674	57.09
829.06	57.14
829.445	57.19
829.83	57.16
830.216	57.16
830.601	57.18
830.986	57.19
831.371	57.23
831.756	57.2
832.141	57.21
832.526	57.21
832.911	57.26
833.295	57.27
833.68	57.25
834.065	57.27
834.449	57.27
834.834	57.25
835.218	57.22
835.603	57.21
835.987	57.23
836.371	57.26
836.755	57.24
837.139	57.21
837.524	57.2
837.908	57.23
838.291	57.23
838.675	57.22
839.059	57.23
839.443	57.26
839.827	57.26
840.21	57.29
840.594	57.26
840.977	57.26
841.361	57.26
841.744	57.27
842.127	57.26
842.511	57.25
842.894	57.26
843.277	57.24
843.66	57.23
844.043	57.25
844.426	57.22
844.809	57.22
845.191	57.23
845.574	57.24
845.957	57.19
846.339	57.17
846.722	57.17
847.104	57.18
847.487	57.21
847.869	57.2
848.252	57.17
848.634	57.2
849.016	57.21
849.398	57.22
849.78	57.2
850.162	57.24
850.544	57.26
850.926	57.24
851.307	57.24
851.689	57.22
852.071	57.23
852.452	57.24
852.834	57.23
853.215	57.2
853.597	57.17
853.978	57.2
854.359	57.17
854.741	57.18
855.122	57.19
855.503	57.21
855.884	57.18
856.265	57.16
856.646	57.13
857.026	57.11
857.407	57.09
857.788	57.11
858.169	57.09
858.549	57.12
858.93	57.09
859.31	57.08
859.69	57.03
860.071	57.05
860.451	57.05
860.831	57.07
861.211	57.06
861.591	57.07
861.971	57.04
862.351	57.06
862.731	57.04
863.111	57.06
863.491	57.07
863.87	57.05
864.25	57.05
864.629	57.04
865.009	57.02
865.388	57
865.768	57.01
866.147	57.04
866.526	57.01
866.905	57.01
867.284	56.98
867.663	56.98
868.042	57
868.421	57
868.8	57.02
869.179	57.04
869.558	57.09
869.936	57.06
870.315	57.03
870.693	57.04
871.072	57.02
871.45	57.03
871.828	57.01
872.207	57.03
872.585	57.04
872.963	57.02
873.341	57.02
873.719	57.02
874.097	57.03
874.475	57.04
874.853	57
875.23	57.03
875.608	57.05
875.986	57.06
876.363	57.06
876.741	57.05
877.118	57.05
877.495	57.02
877.873	56.99
878.25	56.99
878.627	57.03
879.004	57.08
879.381	57.09
879.758	57.07
880.135	57.07
880.512	57.12
880.889	57.13
881.265	57.17
881.642	57.2
882.019	57.23
882.395	57.23
882.772	57.21
883.148	57.21
883.524	57.23
883.901	57.22
884.277	57.23
884.653	57.21
885.029	57.23
885.405	57.23
885.781	57.21
886.157	57.21
886.532	57.23
886.908	57.25
887.284	57.27
887.659	57.27
888.035	57.31
888.411	57.28
888.786	57.26
889.161	57.23
889.537	57.21
889.912	57.2
890.287	57.19
890.662	57.18
891.037	57.12
891.412	57.09
891.787	57.06
892.162	57.03
892.536	57.06
892.911	57.06
893.286	57.03
893.66	57.03
894.035	57.01
894.409	57
894.784	56.99
895.158	57.01
895.532	56.99
895.906	56.97
896.281	56.94
896.655	56.9
897.029	56.89
897.402	56.92
897.776	56.89
898.15	56.9
898.524	56.91
898.898	56.88
899.271	56.86
899.645	56.87
900.018	56.88
900.392	56.89
900.765	56.89
901.138	56.88
901.511	56.84
901.884	56.87
902.258	56.84
902.631	56.82
903.003	56.81
903.376	56.79
903.749	56.79
904.122	56.78
904.495	56.76
904.867	56.75
905.24	56.75
905.612	56.75
905.985	56.66
906.357	56.65
906.729	56.62
907.102	56.66
907.474	56.68
907.846	56.64
908.218	56.61
908.59	56.57
908.962	56.53
909.334	56.51
909.705	56.52
910.077	56.54
910.449	56.56
910.82	56.54
911.192	56.52
911.563	56.49
911.935	56.48
912.306	56.48
912.677	56.47
913.048	56.49
913.419	56.5
913.79	56.45
914.161	56.44
914.532	56.42
914.903	56.41
915.274	56.41
915.645	56.41
916.015	56.41
916.386	56.42
916.756	56.37
917.127	56.38
917.497	56.35
917.868	56.35
918.238	56.39
918.608	56.35
918.978	56.38
919.348	56.31
919.718	56.33
920.088	56.37
920.458	56.38
920.828	56.48
921.198	56.51
921.567	56.49
921.937	56.49
922.306	56.47
922.676	56.5
923.045	56.48
923.415	56.51
923.784	56.46
924.153	56.45
924.522	56.43
924.891	56.36
925.26	56.33
925.629	56.33
925.998	56.36
926.367	56.38
926.736	56.37
927.104	56.39
927.473	56.43
927.842	56.4
928.21	56.42
928.578	56.38
928.947	56.4
929.315	56.37
929.683	56.39
930.051	56.37
930.42	56.36
930.788	56.34
931.156	56.34
931.523	56.32
931.891	56.31
932.259	56.23
932.627	56.16
932.994	56.13
933.362	56.06
933.729	56.01
934.097	55.96
934.464	55.88
934.831	55.76
935.199	55.67
935.566	55.53
935.933	55.51
936.3	55.47
936.667	55.46
937.034	55.36
937.401	55.31
937.767	55.27
938.134	55.12
938.501	55.06
938.867	55.14
939.234	55.17
939.6	55.18
939.967	55.17
940.333	55.24
940.699	55.34
941.065	55.47
941.431	55.67
941.798	55.75
942.163	55.87
942.529	55.97
942.895	55.98
943.261	55.93
943.627	55.98
943.992	56.06
944.358	56.06
944.723	56.04
945.089	56.03
945.454	55.96
945.82	55.98
946.185	56.05
946.55	56.11
946.915	56.16
947.28	56.21
947.645	56.26
948.01	56.25
948.375	56.35
948.74	56.28
949.104	56.25
949.469	56.21
949.834	56.19
950.198	56.13
950.562	56
950.927	55.92
951.291	55.87
951.655	55.82
952.02	55.73
952.384	55.72
952.748	55.71
953.112	55.72
953.476	55.71
953.839	55.66
954.203	55.66
954.567	55.72
954.931	55.74
955.294	55.75
955.658	55.73
956.021	55.74
956.385	55.7
956.748	55.75
957.111	55.68
957.474	55.7
957.837	55.71
958.2	55.72
958.563	55.63
958.926	55.65
959.289	55.7
959.652	55.64
960.015	55.6
960.377	55.6
960.74	55.49
961.102	55.48
961.465	55.43
961.827	55.31
962.189	55.26
962.552	55.26
962.914	55.16
963.276	55.06
963.638	55.1
964	55.12
964.362	55.11
964.724	55.1
965.085	55.12
965.447	55.11
965.809	55.14
966.17	55.12
966.532	55.15
966.893	55.16
967.255	55.13
967.616	55.11
967.977	55.13
968.338	55.03
968.699	55.07
969.061	55.01
969.421	55
969.782	55.03
970.143	55.06
970.504	55
970.865	54.91
971.225	54.93
971.586	54.9
971.946	54.82
972.307	54.85
972.667	54.94
973.027	55
973.388	54.99
973.748	54.98
974.108	54.94
974.468	54.96
974.828	55.05
975.188	55.04
975.548	55.11
975.907	55.12
976.267	55.2
976.627	54.99
976.986	54.99
977.346	54.99
977.705	55.04
978.064	55.07
978.424	55.03
978.783	54.99
979.142	54.96
979.501	54.85
979.86	54.88
980.219	54.73
980.578	54.82
980.937	54.85
981.296	54.76
981.654	54.72
982.013	54.75
982.371	54.73
982.73	54.8
983.088	54.77
983.447	54.87
983.805	54.85
984.163	54.88
984.521	54.82
984.879	54.84
985.237	54.95
985.595	54.92
985.953	54.92
986.311	55.04
986.669	54.96
987.026	55.03
987.384	54.97
987.741	55.01
988.099	54.98
988.456	55.06
988.814	55.06
989.171	54.95
989.528	54.95
989.885	54.88
990.242	54.83
990.599	54.9
990.956	54.84
991.313	54.77
991.67	54.7
992.027	54.65
992.383	54.68
992.74	54.59
993.096	54.64
993.453	54.7
993.809	54.64
994.165	54.61
994.522	54.49
994.878	54.52
995.234	54.69
995.59	54.68
995.946	54.79
996.302	54.62
996.658	54.62
997.013	54.69
997.369	54.66
997.725	54.81
998.08	54.81
998.436	54.89
998.791	54.87
999.147	54.75
999.502	54.61
999.857	54.61
1000.212	54.77
1000.567	54.7
1000.922	54.66
1001.277	54.42
1001.632	54.35
1001.987	54.37
1002.342	54.43
1002.696	54.42
1003.051	54.23
1003.406	54.31
1003.76	54.24
1004.114	54.23
1004.469	54.22
1004.823	53.99
1005.177	54.31
1005.531	54.17
1005.885	54.06
1006.239	54.01
1006.593	54.06
1006.947	54.09
1007.301	54.25
1007.655	54.39
1008.008	54.16
1008.362	54.22
1008.715	54.37
1009.069	54.1
1009.422	54.1
1009.776	54.25
1010.129	54.1
1010.482	54.06
1010.835	54.27
1011.188	54.02
1011.541	53.64
1011.894	53.68
1012.247	53.67
1012.6	53.61
1012.952	53.52
1013.305	53.33
1013.657	53.31
1014.01	53.53
1014.362	53.6
1014.715	53.55
1015.067	53.74
1015.419	54.19
1015.771	54.37
1016.123	54.21
1016.475	54.29
1016.827	54.58
1017.179	54.82
1017.531	54.81
1017.883	54.79
1018.234	54.49
1018.586	54.45
1018.938	54.32
1019.289	53.95
1019.64	54.17
1019.992	54.28
1020.343	54.32
1020.694	54.04
1021.045	54.28
1021.396	54.15
1021.747	53.67
1022.098	54.06
1022.449	53.98
1022.8	53.58
1023.151	53.58
1023.501	53.27
1023.852	53.28
1024.202	53.13
1024.553	53.27
1024.903	53.12
1025.253	53.21
1025.604	53.66
1025.954	53.5
1026.304	53.84
1026.654	54.32
1027.004	54.68
1027.354	54.69
1027.703	54.53
1028.053	54.49
1028.403	54.49
1028.753	54.47
1029.102	54.2
1029.452	54.09
1029.801	53.92
1030.15	53.68
1030.499	53.68
897.758	64.98
901.051	76.91
904.343	78.22
907.636	79.09
910.928	82.61
914.22	83.33
917.511	83.22
920.803	83.5
924.094	82.93
927.384	85.44
930.675	85.43
933.965	86.9
937.255	83.4
940.544	81.11
943.834	75.05
947.123	72.81
950.411	73.88
953.7	73.06
956.988	72.34
960.276	71.2
963.563	73.25
966.851	69.97
970.138	71.21
973.424	69.25
976.711	68.24
979.997	68.47
983.283	66.54
986.568	64.15
989.853	64.68
993.138	63.66
996.423	64.9
999.708	63.55
1002.992	62.99
1006.275	62.02
1009.559	63.6
1012.842	63.49
1016.125	63.03
1019.408	63.27
1022.69	64.59
1025.972	64.6
1029.254	64.6
1032.536	63.18
1035.817	63.52
1039.098	63.94
1042.379	64.5
1045.659	62.09
1048.939	62.27
1052.219	62.82
1055.498	63.4
1058.778	62.32
1062.057	62.08
1065.335	62.57
1068.614	61.02
1071.892	60.19
1075.17	59.96
1078.447	59.22
1081.724	60.51
1085.001	60.39
1088.278	59.19
1091.554	58.64
1094.83	59.5
1098.106	58.83
1101.382	59.33
1104.657	60
1107.932	59.35
1111.206	59.86
1114.481	60.24
1117.755	58.58
1121.029	58
1124.302	59.08
1127.575	59.81
1130.848	58.61
1134.121	57.83
1137.393	57.29
1140.665	57.12
1143.937	56.79
1147.208	55.29
1150.48	54.65
1153.75	55.64
1157.021	55.4
1160.291	55.48
1163.561	53.19
1166.831	54.33
1170.101	55.06
1173.37	54.81
1176.639	54.27
1179.907	54.39
1183.176	55.08
1186.444	54.93
1189.711	54.62
1192.979	54.81
1196.246	55.2
1199.513	55.22
1202.78	54.4
1206.046	54.21
1209.312	54.61
1212.578	54.62
1215.843	55.71
1219.108	54.9
1222.373	55.49
1225.638	55.67
1228.902	56.16
1232.166	55.63
1235.43	55.6
1238.693	56.28
1241.956	55.63
1245.219	56.18
1248.482	57.38
1251.744	55.92
1255.006	57.78
1258.268	56.47
1261.529	56.63
1264.79	56.91
1268.051	56.75
1271.312	58
1274.572	57.23
1277.832	57.98
1281.092	57.57
1284.351	57.14
1287.61	57.56
1290.869	55.91
1294.128	56.6
1297.386	56.84
1300.644	55.69
1303.902	55.24
1307.159	54.83
1310.416	54.82
1313.673	55.05
1316.93	55.2
1320.186	54.87
1323.442	54.11
1326.697	54.75
1329.953	53.86
1333.208	52.26
1336.463	53.5
1339.717	53.76
1342.972	54.37
1346.226	54.75
1349.479	54.25
1352.733	54
1355.986	52.66
1359.238	53.71
1362.491	52.64
1365.743	53.52
1368.995	55.16
1372.247	52.16
1375.498	51.28
1378.749	50.32
1382	49.61
1385.251	47.35
1388.501	46.53
1391.751	47.64
1395	46.37
1398.25	46.1
1401.499	43.48
1404.748	41.81
1407.996	43.66
1411.244	43.89
1414.492	42.65
1417.74	40.1
1420.987	39.75
1424.234	38.12
1427.481	36.36
1430.728	35.69
1433.974	35.71
1437.22	34.78
1440.465	33.61
1443.711	31.41
1446.956	30.98
1450.201	31.04
1453.445	30.15
1456.689	30.46
1459.933	30.5
1463.177	28.9
1466.42	29.01
1469.663	28.35
1472.906	28.91
1476.148	29.22
1479.391	29.28
1482.633	29.15
1485.874	29.36
1489.115	30.11
1492.356	30.05
1495.597	30.24
1498.838	31.68
1502.078	31.91
1505.318	32.22
1508.557	31.79
1511.797	32.25
1515.036	33.62
1518.274	33.41
1521.513	33.81
1524.751	33.92
1527.989	34.99
1531.227	35.07
1534.464	35.62
1537.701	35.05
1540.938	35.24
1544.174	36.16
1547.41	36.13
1550.646	36.3
1553.882	36.91
1557.117	37.32
1560.352	37.31
1563.587	37.21
1566.821	37.51
1570.055	37.79
1573.289	38.89
1576.523	39.08
1579.756	38.99
1582.989	39.97
1586.222	39.93
1589.454	40.45
1592.686	40.16
1595.918	40.51
1599.15	40.64
1602.381	40.66
1605.612	41.02
1608.843	40.79
1612.073	40.85
1615.303	41.58
1618.533	41.02
1621.762	41.43
1624.992	41.05
1628.221	41.27
1631.449	41.55
1634.678	41.62
1637.906	42.14
1641.134	42.04
1644.361	42.25
1647.588	42.7
1650.815	42.49
1654.042	42.84
1657.269	42.37
1660.495	42.96
1663.72	42.68
1666.946	42.68
1670.171	42.84
1673.396	42.22
1676.621	42.29
1679.845	42.91
1683.069	42.33
1686.293	41.8
1689.517	41.94
1692.74	41.78
1695.963	41.59
1699.185	42.11
1702.408	41.31
1705.63	41.31
1708.852	41.87
1712.073	41.03
1715.294	40.23
1718.515	41.09
1721.736	41.12
1724.956	41.12
1728.176	41.16
1731.396	40.8
1734.616	40.83
1737.835	41.23
1741.054	40.75
1744.272	40.67
1747.491	41.23
1750.709	41.12
1753.927	40.44
1757.144	40.49
1760.361	39.51
1763.578	39.85
1766.795	39.99
1770.011	39.05
1773.227	39.31
1776.443	39.28
1779.658	38.66
1782.874	38.83
1786.089	38.3
1789.303	38.39
1792.518	38.42
1795.732	38.76
1798.945	38.53
1802.159	38.63
1805.372	39.16
1808.585	38.67
1811.797	39.41
1815.01	39.66
1818.222	39.5
1821.434	39.48
1824.645	39.03
1827.856	38.94
1831.067	38.48
1834.278	38.47
1837.488	38.77
1840.698	38.3
1843.908	38.21
1847.117	37.68
1850.326	36.51
1853.535	36.6
1856.744	35.78
1859.952	35.63
1863.16	34.9
1866.368	34.78
1869.575	33.92
1872.782	32.05
1875.989	29.6
1879.196	29.25
1882.402	26.55
1885.608	27.06
1888.814	24.53
1892.019	23.42
1895.224	22.19
1898.429	20.39
1901.634	19.89
1904.838	18.12
1908.042	17.33
1911.246	18.28
1914.449	17.25
1917.652	17.44
1920.855	15.9
1924.058	15.32
1927.26	14.73
1930.462	13.92
1933.664	15.35
1936.865	14.32
1940.066	13.95
1943.267	13.44
1946.467	13.19
1949.668	12.5
1952.868	13.02
1956.067	12.95
1959.267	14.57
1962.466	14.65
1965.665	15.95
1968.863	15.77
1972.061	16.17
1975.259	17.4
1978.457	17.85
1981.654	17.54
1984.852	18.67
1988.048	18.7
1991.245	19.66
1994.441	18.95
1997.637	19.94
2000.833	21.01
2004.028	20.98
2007.223	20.83
2010.418	21.51
2013.613	23.78
2016.807	25.52
2020.001	24.36
2023.194	27.05
2026.388	26.81
2029.581	29.34
2032.774	29.43
2035.966	28.91
2039.158	30.66
2042.35	31.28
2045.542	32.51
2048.733	33.82
2051.924	31.48
2055.115	33.96
2058.306	32.93
2061.496	32.74
2064.686	31.26
2067.875	33.43
2071.065	35.79
2074.254	34.23
2077.442	35.85
2080.631	34.92
2083.819	33.37
2087.007	36.38
2090.195	39.13
2093.382	35.83
2096.569	37.6
2099.756	40.76
2102.942	39.64
2106.128	38.67
2109.314	40.02
2112.5	39.97
2115.685	38.92
2118.87	39.09
2122.055	40.02
2125.239	37.24
2128.424	40.2
2131.608	39.36
2134.791	38.34
2137.974	38.27
2141.157	39.09
2144.34	39.71
2147.523	40.7
2150.705	42.31
2153.887	42.71
2157.068	43.29
2160.25	43.21
2163.431	45.41
2166.611	46.97
2169.792	46.63
2172.972	48.11
2176.152	48.43
2179.331	48.89
2182.511	47.87
2185.69	49.33
2188.868	47.92
2192.047	47.15
2195.225	49.56
2198.403	45.71
2201.58	47.04
2204.758	49.13
2207.935	48.55
2211.111	47
2214.288	47.91
2217.464	48.6
2220.64	50.22
2223.815	50.46
2226.991	50.51
2230.166	49.42
2233.34	51.6
2236.515	49.42
2239.689	48.34
2242.863	50.34
2246.036	49.53
2249.209	49.17
2252.382	50.1
2255.555	48.11
2258.727	50.47
2261.9	51.62
2265.071	53.31
2268.243	53.93
2271.414	52.45
2274.585	51.01
2277.756	53.51
2280.926	51.85
2284.096	53.94
2287.266	52.24
2290.436	56.45
2293.605	57.22
2296.774	60.09
2299.942	60.54
2303.111	61.31
2306.279	64.95
2309.447	68.8
2312.614	64.83
2315.781	65.2
2318.948	64.03
2322.115	68.03
2325.281	60.53
2328.447	58.96
2331.613	62.4
2334.779	61.48
2337.944	57.26
2341.109	57.92
2344.274	58.86
2347.438	55.59
2350.602	66.27
2353.766	68.47
2356.929	66.42
2360.092	70.85
2363.255	71.96
2366.418	67.29
2369.58	66.71
2372.742	80.62
2375.904	79.95
2379.066	78.71
2382.227	84.4
2385.388	76.89
2388.548	77.63
2391.709	77.29
2394.869	77.48
2398.029	87.79
2401.188	88.49
2404.347	92.69
2407.506	81.87
2410.665	79.12
2413.823	80.52
2416.981	83.79
2420.139	87.01
2423.296	89.74
2426.453	91.42
2429.61	92.47
2432.767	86.62
2435.923	91.66
2439.079	84.15
2442.235	92.12
2445.391	100.7
2448.546	100.94
2451.701	104.31
2454.855	101.88
2458.009	94.86
2461.163	100.64
2464.317	100.43
2467.471	96.97
2470.624	96.05
2473.777	104.55
2476.929	105.57
2480.082	98.78
2483.234	102.67
2486.385	99.45
2489.537	103.59
2492.688	116.34
2495.839	115.58
2498.989	111.69
2502.14	118.09
2505.29	114.77
2508.439	118.84
2511.589	116.95
2514.738	114.87
2517.887	115.39
2521.035	113.64
2524.183	112.23
2527.331	107.93
2530.479	103.25
2533.627	109.86
