Data from C_1_DIV_IL_4n_007_Splice17_09.txt Node
Date: Sat Feb 29 13:09:27 EST 2020
User: sa697716
Spectrometer: FLMS03696
Trigger mode: 0
Integration Time (sec): 3.180400E-1
Scans to average: 20
Electric dark correction enabled: true
Nonlinearity correction enabled: true
Boxcar width: 5
XAxis mode: Wavelengths
Number of Pixels in Spectrum: 2048
>>>>>Begin Spectral Data<<<<<
187.83	40.78
188.298	36.7
188.766	30.9
189.233	19.31
189.701	28.58
190.169	35.9
190.636	26.29
191.104	7.36
191.571	-36.19
192.039	174.86
192.506	-223.38
192.974	3545.27
193.441	-101.66
193.908	39.7
194.375	-135.99
194.842	-3.92
195.31	47.25
195.777	50.57
196.244	20.11
196.711	21.31
197.177	20.8
197.644	20.85
198.111	18.75
198.578	18.72
199.045	18.81
199.511	20.42
199.978	20.54
200.445	20.48
200.911	20.4
201.378	20.94
201.844	21.35
202.31	21.89
202.777	21.89
203.243	22.91
203.709	23.67
204.176	23.64
204.642	23.53
205.108	23.45
205.574	23.83
206.04	23.93
206.506	23.92
206.972	23.89
207.438	23.78
207.903	24.75
208.369	24.65
208.835	24.71
209.301	25.4
209.766	25.57
210.232	26.08
210.697	26.25
211.163	26.81
211.628	27.26
212.094	27.71
212.559	27.86
213.024	27.63
213.49	27.85
213.955	28.03
214.42	28.05
214.885	28.3
215.35	28.44
215.815	28.77
216.28	29.41
216.745	29.74
217.21	29.86
217.675	30.27
218.14	30.33
218.604	30.35
219.069	30.49
219.534	30.36
219.998	30.25
220.463	30.23
220.927	30.08
221.392	29.86
221.856	29.63
222.32	29.45
222.785	29.19
223.249	28.99
223.713	28.8
224.177	28.48
224.642	28.28
225.106	28.02
225.57	27.7
226.034	27.45
226.497	27.15
226.961	26.87
227.425	26.6
227.889	26.34
228.353	26.03
228.816	25.71
229.28	25.4
229.744	25.14
230.207	24.87
230.671	24.61
231.134	24.33
231.597	24.03
232.061	23.78
232.524	23.51
232.987	23.23
233.45	22.98
233.914	22.75
234.377	22.54
234.84	22.28
235.303	22.03
235.766	21.8
236.229	21.56
236.691	21.39
237.154	21.18
237.617	20.98
238.08	20.8
238.542	20.61
239.005	20.4
239.468	20.19
239.93	20.01
240.393	19.86
240.855	19.65
241.317	19.5
241.78	19.33
242.242	19.14
242.704	18.97
243.166	18.78
243.629	18.61
244.091	18.48
244.553	18.33
245.015	18.17
245.477	17.99
245.939	17.86
246.4	17.68
246.862	17.53
247.324	17.41
247.786	17.26
248.247	17.14
248.709	17.01
249.17	16.87
249.632	16.74
250.093	16.59
250.555	16.48
251.016	16.38
251.477	16.27
251.939	16.15
252.4	16.03
252.861	15.93
253.322	15.82
253.783	15.73
254.244	15.63
254.705	15.55
255.166	15.47
255.627	15.4
256.088	15.3
256.549	15.21
257.009	15.14
257.47	15.06
257.931	14.97
258.391	14.91
258.852	14.83
259.312	14.76
259.773	14.69
260.233	14.62
260.694	14.53
261.154	14.46
261.614	14.38
262.074	14.33
262.534	14.24
262.994	14.18
263.455	14.12
263.915	14.05
264.374	13.98
264.834	13.91
265.294	13.84
265.754	13.78
266.214	13.73
266.673	13.68
267.133	13.62
267.593	13.58
268.052	13.51
268.512	13.45
268.971	13.4
269.431	13.35
269.89	13.32
270.349	13.27
270.809	13.23
271.268	13.18
271.727	13.13
272.186	13.08
272.645	13.03
273.104	12.99
273.563	12.95
274.022	12.91
274.481	12.86
274.94	12.8
275.399	12.74
275.857	12.69
276.316	12.63
276.775	12.56
277.233	12.5
277.692	12.45
278.15	12.39
278.609	12.33
279.067	12.26
279.525	12.2
279.984	12.14
280.442	12.09
280.9	12.03
281.358	11.99
281.816	11.94
282.274	11.9
282.732	11.85
283.19	11.81
283.648	11.77
284.106	11.73
284.564	11.71
285.021	11.68
285.479	11.64
285.937	11.61
286.394	11.58
286.852	11.55
287.309	11.52
287.767	11.48
288.224	11.44
288.682	11.41
289.139	11.37
289.596	11.32
290.053	11.27
290.511	11.22
290.968	11.18
291.425	11.14
291.882	11.08
292.339	11.04
292.796	10.99
293.252	10.94
293.709	10.9
294.166	10.85
294.623	10.82
295.079	10.79
295.536	10.75
295.992	10.72
296.449	10.68
296.905	10.65
297.362	10.62
297.818	10.59
298.274	10.55
298.731	10.52
299.187	10.49
299.643	10.46
300.099	10.43
300.555	10.39
301.011	10.35
301.467	10.32
301.923	10.29
302.379	10.25
302.835	10.23
303.291	10.2
303.746	10.16
304.202	10.13
304.658	10.08
305.113	10.05
305.569	10.02
306.024	9.98
306.479	9.95
306.935	9.91
307.39	9.89
307.845	9.86
308.301	9.83
308.756	9.82
309.211	9.79
309.666	9.78
310.121	9.76
310.576	9.75
311.031	9.74
311.486	9.73
311.94	9.71
312.395	9.7
312.85	9.68
313.305	9.68
313.759	9.65
314.214	9.63
314.668	9.6
315.123	9.59
315.577	9.57
316.032	9.55
316.486	9.52
316.94	9.49
317.394	9.46
317.849	9.43
318.303	9.41
318.757	9.38
319.211	9.36
319.665	9.34
320.119	9.31
320.572	9.29
321.026	9.26
321.48	9.23
321.934	9.22
322.387	9.19
322.841	9.17
323.295	9.13
323.748	9.11
324.202	9.07
324.655	9.05
325.108	9.02
325.562	8.97
326.015	8.95
326.468	8.92
326.921	8.89
327.374	8.87
327.827	8.85
328.28	8.82
328.733	8.8
329.186	8.78
329.639	8.76
330.092	8.74
330.545	8.73
330.997	8.72
331.45	8.69
331.903	8.67
332.355	8.65
332.808	8.65
333.26	8.63
333.713	8.62
334.165	8.62
334.617	8.61
335.069	8.6
335.522	8.6
335.974	8.59
336.426	8.58
336.878	8.57
337.33	8.56
337.782	8.54
338.234	8.52
338.686	8.52
339.137	8.49
339.589	8.48
340.041	8.45
340.493	8.43
340.944	8.42
341.396	8.39
341.847	8.37
342.299	8.34
342.75	8.31
343.201	8.29
343.653	8.26
344.104	8.23
344.555	8.21
345.006	8.18
345.457	8.15
345.908	8.12
346.359	8.1
346.81	8.08
347.261	8.07
347.712	8.06
348.163	8.03
348.613	8.01
349.064	7.99
349.515	7.95
349.965	7.93
350.416	7.91
350.866	7.9
351.317	7.89
351.767	7.88
352.217	7.85
352.668	7.84
353.118	7.83
353.568	7.82
354.018	7.81
354.468	7.81
354.918	7.8
355.368	7.79
355.818	7.78
356.268	7.77
356.718	7.76
357.168	7.74
357.617	7.73
358.067	7.72
358.517	7.71
358.966	7.7
359.416	7.69
359.865	7.67
360.315	7.66
360.764	7.66
361.213	7.63
361.663	7.62
362.112	7.62
362.561	7.61
363.01	7.61
363.459	7.59
363.908	7.58
364.357	7.57
364.806	7.57
365.255	7.56
365.703	7.54
366.152	7.54
366.601	7.54
367.05	7.53
367.498	7.51
367.947	7.49
368.395	7.5
368.844	7.49
369.292	7.47
369.74	7.46
370.189	7.46
370.637	7.45
371.085	7.43
371.533	7.41
371.981	7.4
372.429	7.38
372.877	7.37
373.325	7.35
373.773	7.34
374.221	7.34
374.669	7.34
375.116	7.33
375.564	7.31
376.012	7.31
376.459	7.31
376.907	7.31
377.354	7.31
377.801	7.31
378.249	7.32
378.696	7.32
379.143	7.32
379.591	7.31
380.038	7.31
380.485	7.33
380.932	7.33
381.379	7.32
381.826	7.33
382.273	7.33
382.72	7.34
383.166	7.32
383.613	7.32
384.06	7.31
384.506	7.31
384.953	7.31
385.4	7.3
385.846	7.31
386.292	7.32
386.739	7.33
387.185	7.34
387.631	7.34
388.078	7.37
388.524	7.37
388.97	7.38
389.416	7.38
389.862	7.39
390.308	7.4
390.754	7.41
391.2	7.42
391.645	7.44
392.091	7.45
392.537	7.46
392.983	7.47
393.428	7.49
393.874	7.51
394.319	7.53
394.765	7.55
395.21	7.56
395.655	7.58
396.101	7.59
396.546	7.61
396.991	7.62
397.436	7.64
397.881	7.67
398.326	7.7
398.771	7.74
399.216	7.79
399.661	7.83
400.106	7.87
400.551	7.9
400.995	7.92
401.44	7.93
401.885	7.96
402.329	7.98
402.774	8
403.218	8.02
403.663	8.02
404.107	8.03
404.551	8.06
404.995	8.07
405.44	8.09
405.884	8.11
406.328	8.13
406.772	8.17
407.216	8.2
407.66	8.23
408.104	8.27
408.547	8.31
408.991	8.33
409.435	8.34
409.879	8.37
410.322	8.38
410.766	8.41
411.209	8.43
411.653	8.42
412.096	8.43
412.54	8.45
412.983	8.46
413.426	8.47
413.869	8.5
414.312	8.53
414.756	8.55
415.199	8.61
415.642	8.64
416.085	8.69
416.527	8.75
416.97	8.78
417.413	8.8
417.856	8.81
418.298	8.8
418.741	8.8
419.184	8.8
419.626	8.81
420.069	8.8
420.511	8.79
420.953	8.78
421.396	8.77
421.838	8.79
422.28	8.81
422.722	8.83
423.164	8.85
423.606	8.87
424.048	8.87
424.49	8.87
424.932	8.87
425.374	8.88
425.816	8.87
426.258	8.86
426.699	8.82
427.141	8.79
427.582	8.78
428.024	8.79
428.465	8.79
428.907	8.82
429.348	8.84
429.789	8.85
430.231	8.85
430.672	8.85
431.113	8.88
431.554	8.92
431.995	8.94
432.436	8.96
432.877	8.94
433.318	8.94
433.759	8.92
434.2	8.92
434.64	8.93
435.081	8.94
435.522	8.96
435.962	8.99
436.403	9
436.843	9.04
437.284	9.08
437.724	9.15
438.164	9.19
438.604	9.24
439.045	9.27
439.485	9.29
439.925	9.31
440.365	9.33
440.805	9.35
441.245	9.36
441.685	9.38
442.125	9.41
442.564	9.43
443.004	9.47
443.444	9.51
443.883	9.56
444.323	9.6
444.762	9.69
445.202	9.76
445.641	9.8
446.081	9.88
446.52	9.89
446.959	9.92
447.398	10
447.837	10.06
448.276	10.1
448.716	10.15
449.154	10.22
449.593	10.23
450.032	10.29
450.471	10.36
450.91	10.39
451.349	10.44
451.787	10.47
452.226	10.48
452.664	10.48
453.103	10.48
453.541	10.51
453.98	10.5
454.418	10.51
454.856	10.49
455.295	10.49
455.733	10.48
456.171	10.49
456.609	10.49
457.047	10.49
457.485	10.5
457.923	10.51
458.361	10.5
458.798	10.5
459.236	10.52
459.674	10.53
460.111	10.55
460.549	10.56
460.987	10.55
461.424	10.55
461.862	10.56
462.299	10.55
462.736	10.56
463.173	10.59
463.611	10.57
464.048	10.58
464.485	10.57
464.922	10.54
465.359	10.55
465.796	10.55
466.233	10.56
466.67	10.56
467.106	10.56
467.543	10.55
467.98	10.54
468.416	10.57
468.853	10.56
469.29	10.58
469.726	10.6
470.162	10.6
470.599	10.62
471.035	10.65
471.471	10.65
471.907	10.68
472.344	10.7
472.78	10.71
473.216	10.71
473.652	10.73
474.088	10.73
474.523	10.75
474.959	10.75
475.395	10.75
475.831	10.77
476.266	10.8
476.702	10.79
477.138	10.79
477.573	10.79
478.008	10.8
478.444	10.8
478.879	10.79
479.314	10.8
479.75	10.81
480.185	10.81
480.62	10.81
481.055	10.81
481.49	10.81
481.925	10.82
482.36	10.82
482.795	10.81
483.229	10.83
483.664	10.84
484.099	10.86
484.534	10.88
484.968	10.89
485.403	10.92
485.837	10.92
486.271	10.94
486.706	10.96
487.14	10.99
487.574	11.03
488.009	11.07
488.443	11.1
488.877	11.13
489.311	11.17
489.745	11.21
490.179	11.25
490.613	11.33
491.046	11.39
491.48	11.47
491.914	11.54
492.348	11.62
492.781	11.68
493.215	11.77
493.648	11.87
494.082	11.96
494.515	12.06
494.948	12.17
495.382	12.27
495.815	12.38
496.248	12.5
496.681	12.62
497.114	12.76
497.547	12.9
497.98	13.05
498.413	13.19
498.846	13.35
499.279	13.51
499.711	13.68
500.144	13.86
500.577	14.02
501.009	14.21
501.442	14.42
501.874	14.63
502.306	14.87
502.739	15.08
503.171	15.33
503.603	15.57
504.036	15.83
504.468	16.11
504.9	16.39
505.332	16.69
505.764	16.98
506.196	17.28
506.627	17.59
507.059	17.9
507.491	18.23
507.923	18.56
508.354	18.89
508.786	19.23
509.217	19.56
509.649	19.93
510.08	20.3
510.512	20.66
510.943	21.04
511.374	21.41
511.805	21.8
512.237	22.2
512.668	22.6
513.099	23.01
513.53	23.42
513.961	23.84
514.391	24.23
514.822	24.62
515.253	25.04
515.684	25.44
516.114	25.85
516.545	26.25
516.975	26.68
517.406	27.11
517.836	27.55
518.267	27.97
518.697	28.4
519.127	28.81
519.558	29.23
519.988	29.63
520.418	30.01
520.848	30.42
521.278	30.82
521.708	31.14
522.138	31.45
522.567	31.79
522.997	32.13
523.427	32.46
523.857	32.77
524.286	33.09
524.716	33.4
525.145	33.71
525.575	34
526.004	34.29
526.433	34.61
526.863	34.9
527.292	35.15
527.721	35.4
528.15	35.62
528.579	35.85
529.008	36.08
529.437	36.29
529.866	36.46
530.295	36.62
530.724	36.8
531.152	36.95
531.581	37.11
532.01	37.25
532.438	37.4
532.867	37.55
533.295	37.67
533.723	37.79
534.152	37.89
534.58	38
535.008	38.11
535.436	38.19
535.865	38.27
536.293	38.36
536.721	38.45
537.149	38.51
537.576	38.55
538.004	38.6
538.432	38.65
538.86	38.71
539.287	38.78
539.715	38.83
540.143	38.87
540.57	38.91
540.998	38.95
541.425	38.99
541.852	39.02
542.28	39.08
542.707	39.13
543.134	39.16
543.561	39.17
543.988	39.21
544.415	39.24
544.842	39.27
545.269	39.31
545.696	39.32
546.123	39.35
546.549	39.4
546.976	39.4
547.403	39.41
547.829	39.45
548.256	39.49
548.682	39.49
549.108	39.51
549.535	39.53
549.961	39.53
550.387	39.53
550.813	39.48
551.24	39.46
551.666	39.48
552.092	39.49
552.518	39.44
552.943	39.41
553.369	39.4
553.795	39.37
554.221	39.34
554.646	39.3
555.072	39.26
555.498	39.25
555.923	39.19
556.349	39.11
556.774	39.02
557.199	38.98
557.625	38.88
558.05	38.77
558.475	38.68
558.9	38.57
559.325	38.46
559.75	38.36
560.175	38.22
560.6	38.1
561.025	38
561.449	37.87
561.874	37.71
562.299	37.61
562.723	37.47
563.148	37.31
563.572	37.18
563.997	37.02
564.421	36.84
564.846	36.68
565.27	36.51
565.694	36.32
566.118	36.15
566.542	35.98
566.966	35.79
567.39	35.61
567.814	35.42
568.238	35.17
568.662	34.98
569.086	34.78
569.509	34.57
569.933	34.35
570.357	34.12
570.78	33.93
571.204	33.7
571.627	33.48
572.05	33.28
572.474	33.09
572.897	32.91
573.32	32.71
573.743	32.52
574.166	32.33
574.589	32.16
575.012	32.02
575.435	31.83
575.858	31.67
576.281	31.53
576.704	31.36
577.126	31.2
577.549	31.08
577.972	30.94
578.394	30.8
578.817	30.66
579.239	30.55
579.661	30.4
580.084	30.29
580.506	30.17
580.928	30.05
581.35	29.96
581.772	29.86
582.194	29.74
582.616	29.64
583.038	29.54
583.46	29.45
583.882	29.35
584.303	29.24
584.725	29.14
585.147	29.05
585.568	28.94
585.99	28.85
586.411	28.76
586.833	28.67
587.254	28.59
587.675	28.51
588.096	28.45
588.518	28.38
588.939	28.33
589.36	28.26
589.781	28.19
590.202	28.12
590.623	28.04
591.043	28
591.464	27.95
591.885	27.9
592.305	27.88
592.726	27.83
593.147	27.81
593.567	27.76
593.987	27.74
594.408	27.7
594.828	27.68
595.248	27.64
595.669	27.58
596.089	27.55
596.509	27.47
596.929	27.4
597.349	27.34
597.769	27.28
598.189	27.25
598.608	27.18
599.028	27.12
599.448	27.08
599.867	27.03
600.287	26.99
600.706	26.92
601.126	26.89
601.545	26.82
601.965	26.75
602.384	26.68
602.803	26.58
603.222	26.51
603.641	26.42
604.061	26.33
604.48	26.24
604.898	26.14
605.317	26.06
605.736	25.94
606.155	25.84
606.574	25.74
606.992	25.61
607.411	25.53
607.829	25.39
608.248	25.29
608.666	25.19
609.085	25.07
609.503	24.95
609.921	24.83
610.339	24.71
610.758	24.61
611.176	24.5
611.594	24.4
612.012	24.28
612.43	24.2
612.847	24.1
613.265	23.99
613.683	23.87
614.101	23.76
614.518	23.65
614.936	23.55
615.353	23.45
615.771	23.37
616.188	23.27
616.606	23.17
617.023	23.08
617.44	23
617.857	22.91
618.274	22.85
618.691	22.79
619.108	22.72
619.525	22.66
619.942	22.6
620.359	22.55
620.776	22.49
621.192	22.45
621.609	22.38
622.026	22.33
622.442	22.28
622.859	22.25
623.275	22.24
623.691	22.22
624.108	22.19
624.524	22.15
624.94	22.13
625.356	22.11
625.772	22.09
626.188	22.1
626.604	22.1
627.02	22.1
627.436	22.08
627.852	22.04
628.268	22.02
628.683	21.99
629.099	21.99
629.514	21.96
629.93	21.92
630.345	21.88
630.761	21.84
631.176	21.78
631.591	21.71
632.007	21.64
632.422	21.59
632.837	21.52
633.252	21.46
633.667	21.36
634.082	21.28
634.497	21.18
634.911	21.06
635.326	20.92
635.741	20.79
636.155	20.66
636.57	20.53
636.984	20.37
637.399	20.19
637.813	20.01
638.228	19.83
638.642	19.66
639.056	19.49
639.47	19.33
639.884	19.17
640.298	18.99
640.712	18.81
641.126	18.62
641.54	18.46
641.954	18.29
642.368	18.11
642.781	17.94
643.195	17.76
643.609	17.58
644.022	17.39
644.436	17.23
644.849	17.09
645.262	16.95
645.676	16.81
646.089	16.66
646.502	16.52
646.915	16.41
647.328	16.29
647.741	16.17
648.154	16.11
648.567	16.03
648.98	15.94
649.393	15.86
649.805	15.77
650.218	15.71
650.631	15.65
651.043	15.6
651.456	15.55
651.868	15.49
652.28	15.44
652.693	15.35
653.105	15.28
653.517	15.22
653.929	15.13
654.341	15.06
654.753	14.97
655.165	14.86
655.577	14.74
655.989	14.63
656.401	14.52
656.813	14.41
657.224	14.29
657.636	14.17
658.047	14.03
658.459	13.91
658.87	13.76
659.282	13.62
659.693	13.49
660.104	13.36
660.515	13.21
660.926	13.08
661.338	12.93
661.749	12.78
662.159	12.65
662.57	12.53
662.981	12.4
663.392	12.29
663.803	12.17
664.213	12.06
664.624	11.96
665.035	11.87
665.445	11.79
665.855	11.71
666.266	11.63
666.676	11.55
667.086	11.47
667.497	11.43
667.907	11.35
668.317	11.29
668.727	11.25
669.137	11.21
669.547	11.18
669.956	11.14
670.366	11.14
670.776	11.12
671.186	11.11
671.595	11.09
672.005	11.09
672.414	11.1
672.824	11.12
673.233	11.13
673.642	11.14
674.052	11.13
674.461	11.14
674.87	11.14
675.279	11.17
675.688	11.18
676.097	11.22
676.506	11.24
676.915	11.28
677.323	11.32
677.732	11.36
678.141	11.42
678.549	11.52
678.958	11.59
679.366	11.67
679.775	11.78
680.183	11.9
680.592	12.01
681	12.15
681.408	12.29
681.816	12.44
682.224	12.62
682.632	12.8
683.04	13
683.448	13.24
683.856	13.51
684.264	13.79
684.671	14.11
685.079	14.46
685.487	14.84
685.894	15.27
686.302	15.72
686.709	16.18
687.116	16.72
687.524	17.26
687.931	17.82
688.338	18.4
688.745	19.03
689.152	19.68
689.559	20.37
689.966	21.07
690.373	21.78
690.78	22.54
691.187	23.3
691.593	24.05
692	24.83
692.407	25.62
692.813	26.43
693.22	27.22
693.626	28.02
694.032	28.8
694.439	29.61
694.845	30.38
695.251	31.17
695.657	31.92
696.063	32.68
696.469	33.42
696.875	34.15
697.281	34.85
697.687	35.55
698.093	36.24
698.498	36.93
698.904	37.6
699.31	38.27
699.715	38.9
700.12	39.53
700.526	40.18
700.931	40.75
701.337	41.34
701.742	41.91
702.147	42.51
702.552	43.08
702.957	43.61
703.362	44.16
703.767	44.67
704.172	45.19
704.577	45.67
704.981	46.15
705.386	46.65
705.791	47.15
706.195	47.6
706.6	48.03
707.004	48.46
707.408	48.85
707.813	49.24
708.217	49.59
708.621	49.96
709.025	50.38
709.43	50.74
709.834	51.13
710.237	51.46
710.641	51.84
711.045	52.16
711.449	52.48
711.853	52.81
712.256	53.15
712.66	53.5
713.064	53.83
713.467	54.11
713.87	54.39
714.274	54.67
714.677	54.96
715.08	55.24
715.484	55.54
715.887	55.83
716.29	56.11
716.693	56.34
717.096	56.58
717.499	56.84
717.901	57.06
718.304	57.3
718.707	57.49
719.109	57.7
719.512	57.91
719.915	58.11
720.317	58.31
720.719	58.53
721.122	58.73
721.524	58.94
721.926	59.14
722.328	59.32
722.731	59.53
723.133	59.73
723.535	59.92
723.937	60.05
724.338	60.21
724.74	60.35
725.142	60.38
725.544	60.52
725.945	60.64
726.347	60.78
726.748	60.89
727.15	60.99
727.551	61.1
727.952	61.19
728.354	61.33
728.755	61.45
729.156	61.56
729.557	61.77
729.958	61.89
730.359	61.99
730.76	62.04
731.161	62.13
731.562	62.18
731.962	62.28
732.363	62.35
732.763	62.42
733.164	62.46
733.564	62.48
733.965	62.5
734.365	62.5
734.766	62.52
735.166	62.54
735.566	62.57
735.966	62.64
736.366	62.63
736.766	62.69
737.166	62.72
737.566	62.75
737.966	62.84
738.365	62.88
738.765	62.95
739.165	63.01
739.564	63.06
739.964	63.11
740.363	63.14
740.763	63.16
741.162	63.14
741.561	63.19
741.96	63.23
742.36	63.24
742.759	63.27
743.158	63.26
743.557	63.29
743.955	63.33
744.354	63.37
744.753	63.4
745.152	63.45
745.55	63.5
745.949	63.49
746.348	63.5
746.746	63.52
747.144	63.55
747.543	63.57
747.941	63.64
748.339	63.67
748.737	63.7
749.136	63.74
749.534	63.76
749.932	63.75
750.33	63.77
750.727	63.77
751.125	63.79
751.523	63.84
751.921	63.9
752.318	63.89
752.716	63.87
753.113	63.86
753.511	63.81
753.908	63.82
754.305	63.81
754.703	63.8
755.1	63.81
755.497	63.79
755.894	63.76
756.291	63.72
756.688	63.68
757.085	63.69
757.482	63.68
757.878	63.69
758.275	63.65
758.672	63.68
759.068	63.73
759.465	63.71
759.861	63.71
760.258	63.69
760.654	63.66
761.05	63.68
761.447	63.63
761.843	63.6
762.239	63.61
762.635	63.66
763.031	63.62
763.427	63.56
763.822	63.52
764.218	63.46
764.614	63.45
765.01	63.43
765.405	63.4
765.801	63.38
766.196	63.38
766.592	63.33
766.987	63.26
767.382	63.25
767.778	63.25
768.173	63.28
768.568	63.29
768.963	63.26
769.358	63.25
769.753	63.25
770.148	63.25
770.542	63.25
770.937	63.24
771.332	63.23
771.726	63.2
772.121	63.15
772.515	63.13
772.91	63.16
773.304	63.14
773.699	63.15
774.093	63.07
774.487	63.09
774.881	63.1
775.275	63.13
775.669	63.15
776.063	63.14
776.457	63.15
776.851	63.1
777.245	63.13
777.638	63.13
778.032	63.09
778.425	63.16
778.819	63.15
779.212	63.13
779.606	63.1
779.999	63.05
780.392	63.07
780.786	63.09
781.179	63.15
781.572	63.09
781.965	63.11
782.358	63.09
782.751	63.07
783.143	63.07
783.536	63.07
783.929	63.09
784.322	63.13
784.714	63.13
785.107	63.16
785.499	63.12
785.891	63.17
786.284	63.19
786.676	63.24
787.068	63.27
787.46	63.24
787.852	63.27
788.245	63.27
788.636	63.3
789.028	63.29
789.42	63.26
789.812	63.28
790.204	63.2
790.595	63.18
790.987	63.18
791.378	63.16
791.77	63.22
792.161	63.19
792.553	63.19
792.944	63.21
793.335	63.25
793.726	63.24
794.117	63.23
794.508	63.29
794.899	63.28
795.29	63.23
795.681	63.26
796.072	63.27
796.463	63.21
796.853	63.17
797.244	63.15
797.634	63.11
798.025	63.14
798.415	63.14
798.806	63.14
799.196	63.15
799.586	63.18
799.976	63.17
800.366	63.17
800.756	63.23
801.146	63.28
801.536	63.25
801.926	63.25
802.316	63.27
802.706	63.26
803.095	63.28
803.485	63.26
803.874	63.25
804.264	63.27
804.653	63.23
805.043	63.2
805.432	63.17
805.821	63.19
806.21	63.25
806.599	63.28
806.988	63.28
807.377	63.28
807.766	63.31
808.155	63.34
808.544	63.32
808.933	63.36
809.321	63.39
809.71	63.44
810.098	63.43
810.487	63.4
810.875	63.33
811.264	63.37
811.652	63.33
812.04	63.34
812.428	63.35
812.816	63.37
813.204	63.35
813.592	63.35
813.98	63.31
814.368	63.31
814.756	63.3
815.144	63.33
815.531	63.31
815.919	63.31
816.306	63.29
816.694	63.26
817.081	63.25
817.469	63.26
817.856	63.31
818.243	63.35
818.63	63.39
819.017	63.43
819.404	63.43
819.791	63.46
820.178	63.52
820.565	63.53
820.952	63.55
821.339	63.59
821.725	63.59
822.112	63.59
822.498	63.58
822.885	63.61
823.271	63.63
823.657	63.66
824.044	63.67
824.43	63.68
824.816	63.72
825.202	63.72
825.588	63.73
825.974	63.75
826.36	63.75
826.746	63.81
827.132	63.77
827.517	63.74
827.903	63.76
828.289	63.74
828.674	63.71
829.06	63.7
829.445	63.72
829.83	63.7
830.216	63.72
830.601	63.73
830.986	63.71
831.371	63.73
831.756	63.71
832.141	63.7
832.526	63.7
832.911	63.76
833.295	63.77
833.68	63.79
834.065	63.83
834.449	63.77
834.834	63.74
835.218	63.72
835.603	63.72
835.987	63.75
836.371	63.75
836.755	63.75
837.139	63.71
837.524	63.7
837.908	63.65
838.291	63.62
838.675	63.65
839.059	63.64
839.443	63.61
839.827	63.59
840.21	63.64
840.594	63.61
840.977	63.62
841.361	63.63
841.744	63.66
842.127	63.69
842.511	63.69
842.894	63.7
843.277	63.69
843.66	63.73
844.043	63.74
844.426	63.68
844.809	63.71
845.191	63.72
845.574	63.7
845.957	63.67
846.339	63.64
846.722	63.64
847.104	63.6
847.487	63.63
847.869	63.65
848.252	63.63
848.634	63.65
849.016	63.65
849.398	63.63
849.78	63.61
850.162	63.62
850.544	63.62
850.926	63.63
851.307	63.66
851.689	63.63
852.071	63.6
852.452	63.6
852.834	63.58
853.215	63.56
853.597	63.58
853.978	63.56
854.359	63.55
854.741	63.55
855.122	63.55
855.503	63.54
855.884	63.55
856.265	63.55
856.646	63.53
857.026	63.54
857.407	63.53
857.788	63.52
858.169	63.52
858.549	63.54
858.93	63.51
859.31	63.49
859.69	63.49
860.071	63.48
860.451	63.49
860.831	63.48
861.211	63.45
861.591	63.45
861.971	63.45
862.351	63.46
862.731	63.44
863.111	63.46
863.491	63.49
863.87	63.47
864.25	63.48
864.629	63.47
865.009	63.51
865.388	63.53
865.768	63.52
866.147	63.54
866.526	63.52
866.905	63.54
867.284	63.54
867.663	63.51
868.042	63.51
868.421	63.51
868.8	63.53
869.179	63.5
869.558	63.48
869.936	63.47
870.315	63.44
870.693	63.46
871.072	63.42
871.45	63.39
871.828	63.38
872.207	63.39
872.585	63.37
872.963	63.3
873.341	63.32
873.719	63.31
874.097	63.29
874.475	63.32
874.853	63.32
875.23	63.35
875.608	63.4
875.986	63.4
876.363	63.39
876.741	63.38
877.118	63.39
877.495	63.36
877.873	63.37
878.25	63.39
878.627	63.35
879.004	63.34
879.381	63.34
879.758	63.32
880.135	63.31
880.512	63.32
880.889	63.35
881.265	63.35
881.642	63.37
882.019	63.42
882.395	63.42
882.772	63.44
883.148	63.46
883.524	63.46
883.901	63.46
884.277	63.44
884.653	63.47
885.029	63.46
885.405	63.44
885.781	63.43
886.157	63.4
886.532	63.38
886.908	63.42
887.284	63.41
887.659	63.39
888.035	63.37
888.411	63.36
888.786	63.33
889.161	63.34
889.537	63.37
889.912	63.37
890.287	63.35
890.662	63.34
891.037	63.27
891.412	63.26
891.787	63.24
892.162	63.23
892.536	63.25
892.911	63.23
893.286	63.19
893.66	63.15
894.035	63.1
894.409	63.08
894.784	63.1
895.158	63.11
895.532	63.09
895.906	63.1
896.281	63.09
896.655	63.1
897.029	63.12
897.402	63.11
897.776	63.1
898.15	63.11
898.524	63.1
898.898	63.07
899.271	63.04
899.645	63.02
900.018	63
900.392	63.01
900.765	62.98
901.138	62.97
901.511	62.96
901.884	62.98
902.258	62.97
902.631	62.97
903.003	62.96
903.376	62.96
903.749	62.95
904.122	62.96
904.495	62.94
904.867	62.93
905.24	62.94
905.612	62.89
905.985	62.87
906.357	62.83
906.729	62.79
907.102	62.78
907.474	62.79
907.846	62.78
908.218	62.73
908.59	62.7
908.962	62.67
909.334	62.64
909.705	62.66
910.077	62.63
910.449	62.69
910.82	62.67
911.192	62.63
911.563	62.58
911.935	62.58
912.306	62.59
912.677	62.63
913.048	62.61
913.419	62.56
913.79	62.53
914.161	62.52
914.532	62.49
914.903	62.52
915.274	62.5
915.645	62.5
916.015	62.48
916.386	62.46
916.756	62.38
917.127	62.39
917.497	62.4
917.868	62.39
918.238	62.4
918.608	62.39
918.978	62.33
919.348	62.29
919.718	62.29
920.088	62.28
920.458	62.26
920.828	62.3
921.198	62.3
921.567	62.28
921.937	62.3
922.306	62.28
922.676	62.28
923.045	62.3
923.415	62.33
923.784	62.3
924.153	62.28
924.522	62.26
924.891	62.21
925.26	62.21
925.629	62.17
925.998	62.12
926.367	62.1
926.736	62.06
927.104	62.05
927.473	62.06
927.842	62.03
928.21	62.04
928.578	61.99
928.947	61.97
929.315	61.9
929.683	61.89
930.051	61.88
930.42	61.87
930.788	61.86
931.156	61.81
931.523	61.78
931.891	61.7
932.259	61.61
932.627	61.55
932.994	61.5
933.362	61.41
933.729	61.32
934.097	61.29
934.464	61.19
934.831	61.06
935.199	60.97
935.566	60.83
935.933	60.9
936.3	60.78
936.667	60.76
937.034	60.67
937.401	60.66
937.767	60.56
938.134	60.43
938.501	60.36
938.867	60.38
939.234	60.36
939.6	60.38
939.967	60.19
940.333	60.25
940.699	60.27
941.065	60.38
941.431	60.38
941.798	60.51
942.163	60.65
942.529	60.78
942.895	60.81
943.261	60.88
943.627	61.03
943.992	61.13
944.358	61.26
944.723	61.29
945.089	61.31
945.454	61.35
945.82	61.34
946.185	61.35
946.55	61.45
946.915	61.49
947.28	61.47
947.645	61.47
948.01	61.46
948.375	61.43
948.74	61.43
949.104	61.46
949.469	61.46
949.834	61.45
950.198	61.39
950.562	61.23
950.927	61.14
951.291	61.14
951.655	61.09
952.02	61.07
952.384	61.1
952.748	61.11
953.112	61.06
953.476	61.06
953.839	61.1
954.203	61.03
954.567	61.04
954.931	61.11
955.294	61.04
955.658	61.02
956.021	61
956.385	60.89
956.748	60.86
957.111	60.83
957.474	60.82
957.837	60.78
958.2	60.72
958.563	60.71
958.926	60.61
959.289	60.64
959.652	60.65
960.015	60.62
960.377	60.63
960.74	60.52
961.102	60.52
961.465	60.54
961.827	60.43
962.189	60.48
962.552	60.41
962.914	60.42
963.276	60.41
963.638	60.29
964	60.25
964.362	60.26
964.724	60.31
965.085	60.24
965.447	60.13
965.809	60.09
966.17	60.11
966.532	60.05
966.893	59.99
967.255	59.94
967.616	59.96
967.977	59.95
968.338	59.9
968.699	59.85
969.061	59.79
969.421	59.78
969.782	59.82
970.143	59.79
970.504	59.84
970.865	59.83
971.225	59.76
971.586	59.77
971.946	59.76
972.307	59.67
972.667	59.72
973.027	59.76
973.388	59.77
973.748	59.82
974.108	59.76
974.468	59.77
974.828	59.74
975.188	59.79
975.548	59.8
975.907	59.81
976.267	59.89
976.627	59.87
976.986	59.82
977.346	59.82
977.705	59.82
978.064	59.82
978.424	59.76
978.783	59.75
979.142	59.66
979.501	59.53
979.86	59.43
980.219	59.37
980.578	59.25
980.937	59.22
981.296	59.17
981.654	59.08
982.013	59.08
982.371	59.05
982.73	59.03
983.088	59
983.447	59.07
983.805	59.06
984.163	59.06
984.521	59.06
984.879	59.08
985.237	59
985.595	58.96
985.953	58.84
986.311	58.95
986.669	58.89
987.026	58.84
987.384	58.82
987.741	58.91
988.099	58.83
988.456	58.85
988.814	58.83
989.171	58.88
989.528	58.89
989.885	58.89
990.242	58.85
990.599	58.95
990.956	59.04
991.313	59.01
991.67	58.94
992.027	58.8
992.383	58.78
992.74	58.75
993.096	58.66
993.453	58.57
993.809	58.63
994.165	58.55
994.522	58.35
994.878	58.32
995.234	58.26
995.59	58.12
995.946	58.24
996.302	58.21
996.658	58.1
997.013	58.07
997.369	58.05
997.725	58.03
998.08	57.86
998.436	58.03
998.791	58.01
999.147	58.04
999.502	58
999.857	58.05
1000.212	57.93
1000.567	58.03
1000.922	58.1
1001.277	58.04
1001.632	58.12
1001.987	58.23
1002.342	58.04
1002.696	57.97
1003.051	57.87
1003.406	57.83
1003.76	57.67
1004.114	57.82
1004.469	57.68
1004.823	57.56
1005.177	57.68
1005.531	57.5
1005.885	57.53
1006.239	57.61
1006.593	57.53
1006.947	57.6
1007.301	57.73
1007.655	57.8
1008.008	57.49
1008.362	57.37
1008.715	57.27
1009.069	57.11
1009.422	56.72
1009.776	56.73
1010.129	56.59
1010.482	56.73
1010.835	56.61
1011.188	56.57
1011.541	56.4
1011.894	56.7
1012.247	56.78
1012.6	56.97
1012.952	56.97
1013.305	57.3
1013.657	57.09
1014.01	57.06
1014.362	56.85
1014.715	56.57
1015.067	56.41
1015.419	56.59
1015.771	56.44
1016.123	56.33
1016.475	56.15
1016.827	56.04
1017.179	55.9
1017.531	55.87
1017.883	56.02
1018.234	55.92
1018.586	56.02
1018.938	55.87
1019.289	55.54
1019.64	55.72
1019.992	55.88
1020.343	55.84
1020.694	55.58
1021.045	55.57
1021.396	55.56
1021.747	55.43
1022.098	55.44
1022.449	55.46
1022.8	55.5
1023.151	55.48
1023.501	55.32
1023.852	55.35
1024.202	55.26
1024.553	55.41
1024.903	55.58
1025.253	55.52
1025.604	55.66
1025.954	55.57
1026.304	55.91
1026.654	55.98
1027.004	56.27
1027.354	56
1027.703	55.94
1028.053	55.73
1028.403	55.27
1028.753	55.45
1029.102	54.9
1029.452	54.07
1029.801	53.63
1030.15	53.17
1030.499	52.92
897.758	-70.03
901.051	-74.63
904.343	-74.74
907.636	-74.96
910.928	-68.98
914.22	-72.06
917.511	-74.24
920.803	-74.54
924.094	-64.45
927.384	-66.44
930.675	-61.46
933.965	-61.81
937.255	-58.62
940.544	-55.17
943.834	-50.3
947.123	-50.98
950.411	-43.79
953.7	-39.35
956.988	-37.06
960.276	-33.62
963.563	-28.49
966.851	-23.94
970.138	-21.41
973.424	-17.15
976.711	-16.32
979.997	-14.23
983.283	-15.48
986.568	-13.49
989.853	-12.09
993.138	-6.44
996.423	-7.62
999.708	-7.68
1002.992	-7.41
1006.275	-6.72
1009.559	-5.94
1012.842	-2.58
1016.125	-0.88
1019.408	1.22
1022.69	2.18
1025.972	3.77
1029.254	3.38
1032.536	4.83
1035.817	4.37
1039.098	5.64
1042.379	8.43
1045.659	9.29
1048.939	7.48
1052.219	9.11
1055.498	10.41
1058.778	10.96
1062.057	9.81
1065.335	10.85
1068.614	11.01
1071.892	13.03
1075.17	12.72
1078.447	12.66
1081.724	13.05
1085.001	12.85
1088.278	12.98
1091.554	12.75
1094.83	13.29
1098.106	14.07
1101.382	14.3
1104.657	14.89
1107.932	14.93
1111.206	16.66
1114.481	16.34
1117.755	16.04
1121.029	17.12
1124.302	17.63
1127.575	18.8
1130.848	18.16
1134.121	18.42
1137.393	18.58
1140.665	18.46
1143.937	18.58
1147.208	16.93
1150.48	17.67
1153.75	17.46
1157.021	19.62
1160.291	18.85
1163.561	18.36
1166.831	19.13
1170.101	19.82
1173.37	19.64
1176.639	19.66
1179.907	19.61
1183.176	20.39
1186.444	19.75
1189.711	19.95
1192.979	18.01
1196.246	18.9
1199.513	19
1202.78	18.22
1206.046	17.45
1209.312	18.67
1212.578	19
1215.843	18.73
1219.108	17.74
1222.373	17.49
1225.638	17.43
1228.902	17.55
1232.166	15
1235.43	14.08
1238.693	13.52
1241.956	13.52
1245.219	10.27
1248.482	10.28
1251.744	9.91
1255.006	12.04
1258.268	11.41
1261.529	11.6
1264.79	12.54
1268.051	14.57
1271.312	15.72
1274.572	16.5
1277.832	18.32
1281.092	18.54
1284.351	19.19
1287.61	19.15
1290.869	18.83
1294.128	20.11
1297.386	20.72
1300.644	19.37
1303.902	18.36
1307.159	19.18
1310.416	18.47
1313.673	17.61
1316.93	16.84
1320.186	16.38
1323.442	15.54
1326.697	14.08
1329.953	12.15
1333.208	9.11
1336.463	9.19
1339.717	9.38
1342.972	5.23
1346.226	4.51
1349.479	2.96
1352.733	2.67
1355.986	0.37
1359.238	0.09
1362.491	-1.73
1365.743	-1.42
1368.995	-1.28
1372.247	-5.05
1375.498	-5.12
1378.749	-7.42
1382	-7.32
1385.251	-9.09
1388.501	-8.73
1391.751	-10.53
1395	-11.79
1398.25	-11.48
1401.499	-13.25
1404.748	-14.05
1407.996	-11.74
1411.244	-12.27
1414.492	-11.92
1417.74	-12.43
1420.987	-12.45
1424.234	-13.96
1427.481	-13.32
1430.728	-12.18
1433.974	-11.68
1437.22	-10.44
1440.465	-10.14
1443.711	-9.7
1446.956	-9.27
1450.201	-7.83
1453.445	-7.77
1456.689	-5.55
1459.933	-3.69
1463.177	-2.22
1466.42	-2.3
1469.663	-2.28
1472.906	-1.53
1476.148	-0.49
1479.391	-0.2
1482.633	0.45
1485.874	1.31
1489.115	2.31
1492.356	2.63
1495.597	2.98
1498.838	3.17
1502.078	4.1
1505.318	4.84
1508.557	5.05
1511.797	6.46
1515.036	7.55
1518.274	8.04
1521.513	7.76
1524.751	7.84
1527.989	8.87
1531.227	8.8
1534.464	10.05
1537.701	10.18
1540.938	10.42
1544.174	10.65
1547.41	10.54
1550.646	11.03
1553.882	11.21
1557.117	12.82
1560.352	12.91
1563.587	12.6
1566.821	12.9
1570.055	13.59
1573.289	14.22
1576.523	14.77
1579.756	15.34
1582.989	15.69
1586.222	15.26
1589.454	16.17
1592.686	15.86
1595.918	16.22
1599.15	16.53
1602.381	16.59
1605.612	16.61
1608.843	16.36
1612.073	16.09
1615.303	16.25
1618.533	16.17
1621.762	16.78
1624.992	15.8
1628.221	15.91
1631.449	16.52
1634.678	16.74
1637.906	16.81
1641.134	16.75
1644.361	16.98
1647.588	17.02
1650.815	17.21
1654.042	18.01
1657.269	17.22
1660.495	18.03
1663.72	18.37
1666.946	17.87
1670.171	17.81
1673.396	17.59
1676.621	17.66
1679.845	18.14
1683.069	17.64
1686.293	17.33
1689.517	16.71
1692.74	17.37
1695.963	16.95
1699.185	16.5
1702.408	16.56
1705.63	16.67
1708.852	16.94
1712.073	16.32
1715.294	15.79
1718.515	16.56
1721.736	16.6
1724.956	16.37
1728.176	16.33
1731.396	15.93
1734.616	16
1737.835	15.76
1741.054	15.8
1744.272	15.26
1747.491	15.5
1750.709	15.41
1753.927	15.16
1757.144	14.73
1760.361	14.21
1763.578	13.26
1766.795	13.69
1770.011	13.45
1773.227	12.72
1776.443	12.15
1779.658	11.75
1782.874	11.78
1786.089	11.01
1789.303	10.78
1792.518	10.05
1795.732	10.88
1798.945	11.74
1802.159	11.22
1805.372	10.42
1808.585	11.12
1811.797	10.79
1815.01	10.82
1818.222	10.14
1821.434	9.51
1824.645	9
1827.856	8.98
1831.067	7.98
1834.278	7.24
1837.488	6.68
1840.698	5.92
1843.908	5.4
1847.117	5.17
1850.326	4.16
1853.535	4.39
1856.744	3.84
1859.952	3.16
1863.16	2.05
1866.368	1.69
1869.575	0.69
1872.782	-0.68
1875.989	-2.26
1879.196	-2.21
1882.402	-4.86
1885.608	-4.47
1888.814	-6.82
1892.019	-8.61
1895.224	-9.51
1898.429	-9.33
1901.634	-11.53
1904.838	-13.32
1908.042	-13.55
1911.246	-12.71
1914.449	-14.24
1917.652	-14.1
1920.855	-16.07
1924.058	-15.73
1927.26	-16.36
1930.462	-16.6
1933.664	-15.57
1936.865	-15.64
1940.066	-15.59
1943.267	-16.48
1946.467	-17.92
1949.668	-17.66
1952.868	-16.81
1956.067	-16.8
1959.267	-16.33
1962.466	-16.21
1965.665	-15.7
1968.863	-17.62
1972.061	-16.84
1975.259	-16.32
1978.457	-15.57
1981.654	-14.29
1984.852	-14.35
1988.048	-14.54
1991.245	-13.72
1994.441	-14.04
1997.637	-14.39
2000.833	-14.58
2004.028	-14.58
2007.223	-16.33
2010.418	-15.31
2013.613	-15.6
2016.807	-16.42
2020.001	-17.86
2023.194	-17.19
2026.388	-19.04
2029.581	-20.32
2032.774	-20.89
2035.966	-21.93
2039.158	-21.24
2042.35	-21.85
2045.542	-23.92
2048.733	-24.73
2051.924	-28.13
2055.115	-29.25
2058.306	-31.15
2061.496	-33.16
2064.686	-32.8
2067.875	-30.29
2071.065	-29.92
2074.254	-31.23
2077.442	-32.5
2080.631	-31.17
2083.819	-32.42
2087.007	-30.44
2090.195	-30.66
2093.382	-29.5
2096.569	-28.17
2099.756	-27.14
2102.942	-29.87
2106.128	-32.47
2109.314	-29
2112.5	-27.44
2115.685	-30.06
2118.87	-30.29
2122.055	-30.26
2125.239	-31.61
2128.424	-33.18
2131.608	-33.72
2134.791	-36.66
2137.974	-36.77
2141.157	-34.26
2144.34	-38.3
2147.523	-39.28
2150.705	-40.74
2153.887	-39.2
2157.068	-39.18
2160.25	-39.97
2163.431	-38.49
2166.611	-36.5
2169.792	-38.92
2172.972	-36.71
2176.152	-36.73
2179.331	-39.17
2182.511	-37.98
2185.69	-37.87
2188.868	-42.59
2192.047	-41.65
2195.225	-39.94
2198.403	-45.54
2201.58	-46.61
2204.758	-44.56
2207.935	-48.47
2211.111	-55.27
2214.288	-53.6
2217.464	-53.21
2220.64	-52.37
2223.815	-52.27
2226.991	-55.14
2230.166	-54.02
2233.34	-56.91
2236.515	-61.1
2239.689	-62.9
2242.863	-63.69
2246.036	-58.09
2249.209	-62.06
2252.382	-65.1
2255.555	-67.9
2258.727	-66.99
2261.9	-70.42
2265.071	-70.47
2268.243	-64.06
2271.414	-70.66
2274.585	-71.18
2277.756	-69.58
2280.926	-77.49
2284.096	-75.99
2287.266	-73.37
2290.436	-71.44
2293.605	-73.21
2296.774	-76.26
2299.942	-79.21
2303.111	-84.12
2306.279	-80.56
2309.447	-78.1
2312.614	-80.8
2315.781	-85.41
2318.948	-84.71
2322.115	-87.07
2325.281	-103.23
2328.447	-102.02
2331.613	-100.31
2334.779	-102.13
2337.944	-107.22
2341.109	-112.09
2344.274	-113.28
2347.438	-120.45
2350.602	-116.67
2353.766	-130.6
2356.929	-131.59
2360.092	-121.8
2363.255	-123.78
2366.418	-124.55
2369.58	-126.6
2372.742	-122.98
2375.904	-118.36
2379.066	-123.22
2382.227	-128.73
2385.388	-132.74
2388.548	-125
2391.709	-118.88
2394.869	-123.71
2398.029	-120.76
2401.188	-126.04
2404.347	-131.91
2407.506	-139.05
2410.665	-132.42
2413.823	-140.63
2416.981	-137.85
2420.139	-124.03
2423.296	-136.48
2426.453	-152.37
2429.61	-143.07
2432.767	-157.95
2435.923	-158.94
2439.079	-146.78
2442.235	-160.78
2445.391	-164.14
2448.546	-154.49
2451.701	-169.03
2454.855	-184.54
2458.009	-142.03
2461.163	-154.02
2464.317	-155.21
2467.471	-154.85
2470.624	-161.19
2473.777	-162.38
2476.929	-140.56
2480.082	-164.93
2483.234	-178.23
2486.385	-180.03
2489.537	-185.4
2492.688	-223.05
2495.839	-210.7
2498.989	-223.35
2502.14	-217.85
2505.29	-204.38
2508.439	-231.54
2511.589	-245.41
2514.738	-228.89
2517.887	-228.02
2521.035	-210.76
2524.183	-211.97
2527.331	-202.55
2530.479	-192.87
2533.627	-200.12
