Data from c_1_dec_oh_4n_015_Splice17_20.txt Node
Date: Sat Feb 29 13:14:59 EST 2020
User: sa697716
Spectrometer: FLMS03696
Trigger mode: 0
Integration Time (sec): 3.180400E-1
Scans to average: 20
Electric dark correction enabled: true
Nonlinearity correction enabled: true
Boxcar width: 5
XAxis mode: Wavelengths
Number of Pixels in Spectrum: 2048
>>>>>Begin Spectral Data<<<<<
187.83	75.53
188.298	66.36
188.766	49.59
189.233	54.79
189.701	55.06
190.169	54.73
190.636	39.05
191.104	9.41
191.571	6.29
192.039	123.33
192.506	184.56
192.974	5967.78
193.441	2.2
193.908	0.75
194.375	40.75
194.842	-9.56
195.31	-4.03
195.777	-38.76
196.244	-10.53
196.711	13.16
197.177	11.17
197.644	13.78
198.111	12.84
198.578	13.86
199.045	14.18
199.511	14.5
199.978	15.79
200.445	15.71
200.911	15.56
201.378	15.65
201.844	15.65
202.31	16.44
202.777	16.33
203.243	17.35
203.709	17.74
204.176	17.65
204.642	17.48
205.108	16.45
205.574	16.56
206.04	16.48
206.506	16.24
206.972	16.44
207.438	16.19
207.903	16.38
208.369	15.62
208.835	15.23
209.301	14.95
209.766	15.02
210.232	15.06
210.697	15.11
211.163	15.29
211.628	15.22
212.094	15.07
212.559	14.88
213.024	14.17
213.49	14.18
213.955	14.2
214.42	14.12
214.885	13.7
215.35	13.68
215.815	13.19
216.28	12.74
216.745	12.44
217.21	11.93
217.675	11.5
218.14	10.99
218.604	10.54
219.069	10.21
219.534	9.8
219.998	9.5
220.463	9.21
220.927	9.06
221.392	8.8
221.856	8.6
222.32	8.43
222.785	8.28
223.249	8.17
223.713	8.07
224.177	7.88
224.642	7.83
225.106	7.71
225.57	7.62
226.034	7.5
226.497	7.38
226.961	7.29
227.425	7.16
227.889	7.06
228.353	6.95
228.816	6.84
229.28	6.71
229.744	6.62
230.207	6.55
230.671	6.46
231.134	6.36
231.597	6.29
232.061	6.2
232.524	6.14
232.987	6.07
233.45	6
233.914	5.95
234.377	5.9
234.84	5.83
235.303	5.76
235.766	5.7
236.229	5.65
236.691	5.6
237.154	5.56
237.617	5.49
238.08	5.44
238.542	5.38
239.005	5.32
239.468	5.25
239.93	5.19
240.393	5.13
240.855	5.07
241.317	5.02
241.78	4.96
242.242	4.9
242.704	4.85
243.166	4.81
243.629	4.76
244.091	4.73
244.553	4.72
245.015	4.68
245.477	4.63
245.939	4.58
246.4	4.55
246.862	4.51
247.324	4.49
247.786	4.46
248.247	4.43
248.709	4.4
249.17	4.36
249.632	4.31
250.093	4.26
250.555	4.24
251.016	4.23
251.477	4.2
251.939	4.16
252.4	4.12
252.861	4.09
253.322	4.06
253.783	4.04
254.244	4.02
254.705	4
255.166	4
255.627	3.97
256.088	3.94
256.549	3.92
257.009	3.91
257.47	3.9
257.931	3.88
258.391	3.85
258.852	3.82
259.312	3.8
259.773	3.77
260.233	3.74
260.694	3.71
261.154	3.69
261.614	3.66
262.074	3.64
262.534	3.61
262.994	3.59
263.455	3.58
263.915	3.57
264.374	3.55
264.834	3.54
265.294	3.52
265.754	3.51
266.214	3.51
266.673	3.5
267.133	3.48
267.593	3.48
268.052	3.46
268.512	3.45
268.971	3.43
269.431	3.42
269.89	3.41
270.349	3.39
270.809	3.38
271.268	3.37
271.727	3.36
272.186	3.35
272.645	3.33
273.104	3.33
273.563	3.32
274.022	3.31
274.481	3.3
274.94	3.29
275.399	3.28
275.857	3.27
276.316	3.25
276.775	3.24
277.233	3.23
277.692	3.22
278.15	3.2
278.609	3.18
279.067	3.17
279.525	3.15
279.984	3.15
280.442	3.14
280.9	3.13
281.358	3.12
281.816	3.11
282.274	3.09
282.732	3.09
283.19	3.08
283.648	3.08
284.106	3.07
284.564	3.07
285.021	3.06
285.479	3.05
285.937	3.03
286.394	3.03
286.852	3.02
287.309	3.01
287.767	3
288.224	2.98
288.682	2.97
289.139	2.96
289.596	2.95
290.053	2.93
290.511	2.91
290.968	2.91
291.425	2.89
291.882	2.88
292.339	2.87
292.796	2.86
293.252	2.85
293.709	2.84
294.166	2.83
294.623	2.82
295.079	2.82
295.536	2.81
295.992	2.8
296.449	2.8
296.905	2.79
297.362	2.77
297.818	2.76
298.274	2.76
298.731	2.75
299.187	2.75
299.643	2.74
300.099	2.73
300.555	2.72
301.011	2.71
301.467	2.7
301.923	2.7
302.379	2.7
302.835	2.69
303.291	2.68
303.746	2.67
304.202	2.66
304.658	2.65
305.113	2.65
305.569	2.65
306.024	2.64
306.479	2.63
306.935	2.63
307.39	2.62
307.845	2.61
308.301	2.61
308.756	2.61
309.211	2.61
309.666	2.61
310.121	2.6
310.576	2.61
311.031	2.61
311.486	2.61
311.94	2.6
312.395	2.61
312.85	2.6
313.305	2.6
313.759	2.59
314.214	2.59
314.668	2.59
315.123	2.59
315.577	2.58
316.032	2.57
316.486	2.57
316.94	2.57
317.394	2.56
317.849	2.55
318.303	2.55
318.757	2.54
319.211	2.52
319.665	2.52
320.119	2.52
320.572	2.52
321.026	2.51
321.48	2.5
321.934	2.5
322.387	2.5
322.841	2.49
323.295	2.49
323.748	2.49
324.202	2.48
324.655	2.47
325.108	2.46
325.562	2.45
326.015	2.44
326.468	2.44
326.921	2.42
327.374	2.42
327.827	2.42
328.28	2.4
328.733	2.39
329.186	2.39
329.639	2.38
330.092	2.38
330.545	2.38
330.997	2.37
331.45	2.36
331.903	2.37
332.355	2.36
332.808	2.36
333.26	2.36
333.713	2.37
334.165	2.37
334.617	2.36
335.069	2.35
335.522	2.35
335.974	2.35
336.426	2.36
336.878	2.35
337.33	2.34
337.782	2.33
338.234	2.32
338.686	2.32
339.137	2.33
339.589	2.33
340.041	2.33
340.493	2.32
340.944	2.33
341.396	2.32
341.847	2.31
342.299	2.3
342.75	2.29
343.201	2.29
343.653	2.28
344.104	2.27
344.555	2.26
345.006	2.26
345.457	2.25
345.908	2.24
346.359	2.24
346.81	2.25
347.261	2.24
347.712	2.24
348.163	2.24
348.613	2.24
349.064	2.23
349.515	2.22
349.965	2.21
350.416	2.21
350.866	2.2
351.317	2.19
351.767	2.18
352.217	2.18
352.668	2.16
353.118	2.16
353.568	2.17
354.018	2.17
354.468	2.18
354.918	2.18
355.368	2.19
355.818	2.18
356.268	2.18
356.718	2.19
357.168	2.18
357.617	2.19
358.067	2.17
358.517	2.16
358.966	2.16
359.416	2.16
359.865	2.14
360.315	2.14
360.764	2.14
361.213	2.14
361.663	2.13
362.112	2.13
362.561	2.13
363.01	2.14
363.459	2.14
363.908	2.13
364.357	2.13
364.806	2.13
365.255	2.13
365.703	2.13
366.152	2.14
366.601	2.14
367.05	2.14
367.498	2.14
367.947	2.14
368.395	2.15
368.844	2.15
369.292	2.14
369.74	2.14
370.189	2.13
370.637	2.13
371.085	2.13
371.533	2.12
371.981	2.11
372.429	2.1
372.877	2.1
373.325	2.08
373.773	2.08
374.221	2.09
374.669	2.08
375.116	2.08
375.564	2.07
376.012	2.07
376.459	2.08
376.907	2.08
377.354	2.08
377.801	2.09
378.249	2.1
378.696	2.11
379.143	2.11
379.591	2.12
380.038	2.13
380.485	2.13
380.932	2.13
381.379	2.13
381.826	2.12
382.273	2.11
382.72	2.11
383.166	2.1
383.613	2.1
384.06	2.08
384.506	2.08
384.953	2.08
385.4	2.09
385.846	2.09
386.292	2.09
386.739	2.1
387.185	2.12
387.631	2.13
388.078	2.13
388.524	2.12
388.97	2.13
389.416	2.13
389.862	2.13
390.308	2.13
390.754	2.14
391.2	2.16
391.645	2.17
392.091	2.17
392.537	2.17
392.983	2.19
393.428	2.19
393.874	2.2
394.319	2.21
394.765	2.22
395.21	2.23
395.655	2.24
396.101	2.23
396.546	2.23
396.991	2.25
397.436	2.25
397.881	2.26
398.326	2.29
398.771	2.31
399.216	2.33
399.661	2.35
400.106	2.37
400.551	2.37
400.995	2.37
401.44	2.39
401.885	2.41
402.329	2.42
402.774	2.42
403.218	2.42
403.663	2.41
404.107	2.43
404.551	2.44
404.995	2.45
405.44	2.46
405.884	2.48
406.328	2.49
406.772	2.5
407.216	2.51
407.66	2.52
408.104	2.55
408.547	2.56
408.991	2.56
409.435	2.56
409.879	2.57
410.322	2.58
410.766	2.59
411.209	2.6
411.653	2.61
412.096	2.62
412.54	2.62
412.983	2.64
413.426	2.66
413.869	2.67
414.312	2.71
414.756	2.72
415.199	2.75
415.642	2.78
416.085	2.81
416.527	2.83
416.97	2.86
417.413	2.87
417.856	2.87
418.298	2.86
418.741	2.86
419.184	2.86
419.626	2.86
420.069	2.86
420.511	2.86
420.953	2.85
421.396	2.85
421.838	2.87
422.28	2.88
422.722	2.89
423.164	2.91
423.606	2.92
424.048	2.92
424.49	2.93
424.932	2.92
425.374	2.92
425.816	2.92
426.258	2.9
426.699	2.87
427.141	2.85
427.582	2.87
428.024	2.87
428.465	2.88
428.907	2.89
429.348	2.89
429.789	2.9
430.231	2.91
430.672	2.92
431.113	2.94
431.554	2.96
431.995	2.98
432.436	2.96
432.877	2.94
433.318	2.92
433.759	2.92
434.2	2.92
434.64	2.93
435.081	2.92
435.522	2.92
435.962	2.94
436.403	2.95
436.843	2.94
437.284	2.97
437.724	3.01
438.164	3.03
438.604	3.05
439.045	3.03
439.485	3.03
439.925	3.03
440.365	3
440.805	2.98
441.245	2.97
441.685	2.98
442.125	2.96
442.564	2.96
443.004	2.95
443.444	2.96
443.883	3
444.323	2.99
444.762	3.02
445.202	3.08
445.641	3.07
446.081	3.09
446.52	3.08
446.959	3.09
447.398	3.1
447.837	3.13
448.276	3.13
448.716	3.11
449.154	3.15
449.593	3.17
450.032	3.17
450.471	3.2
450.91	3.2
451.349	3.2
451.787	3.21
452.226	3.2
452.664	3.19
453.103	3.19
453.541	3.19
453.98	3.15
454.418	3.13
454.856	3.11
455.295	3.1
455.733	3.1
456.171	3.1
456.609	3.09
457.047	3.09
457.485	3.09
457.923	3.08
458.361	3.08
458.798	3.1
459.236	3.1
459.674	3.11
460.111	3.11
460.549	3.1
460.987	3.1
461.424	3.1
461.862	3.11
462.299	3.1
462.736	3.1
463.173	3.09
463.611	3.08
464.048	3.09
464.485	3.07
464.922	3.06
465.359	3.08
465.796	3.06
466.233	3.07
466.67	3.06
467.106	3.06
467.543	3.07
467.98	3.07
468.416	3.09
468.853	3.09
469.29	3.1
469.726	3.11
470.162	3.1
470.599	3.11
471.035	3.12
471.471	3.11
471.907	3.11
472.344	3.11
472.78	3.1
473.216	3.09
473.652	3.09
474.088	3.11
474.523	3.1
474.959	3.1
475.395	3.1
475.831	3.09
476.266	3.1
476.702	3.11
477.138	3.1
477.573	3.09
478.008	3.09
478.444	3.08
478.879	3.06
479.314	3.06
479.75	3.07
480.185	3.08
480.62	3.08
481.055	3.07
481.49	3.07
481.925	3.07
482.36	3.06
482.795	3.06
483.229	3.05
483.664	3.05
484.099	3.04
484.534	3.03
484.968	3.03
485.403	3.03
485.837	3.03
486.271	3.02
486.706	3.01
487.14	3.02
487.574	3.03
488.009	3.04
488.443	3.05
488.877	3.06
489.311	3.06
489.745	3.08
490.179	3.09
490.613	3.1
491.046	3.12
491.48	3.15
491.914	3.16
492.348	3.18
492.781	3.19
493.215	3.21
493.648	3.24
494.082	3.27
494.515	3.28
494.948	3.31
495.382	3.34
495.815	3.37
496.248	3.41
496.681	3.45
497.114	3.49
497.547	3.53
497.98	3.58
498.413	3.62
498.846	3.67
499.279	3.72
499.711	3.78
500.144	3.84
500.577	3.89
501.009	3.95
501.442	4.02
501.874	4.1
502.306	4.17
502.739	4.25
503.171	4.34
503.603	4.44
504.036	4.55
504.468	4.66
504.9	4.78
505.332	4.91
505.764	5.03
506.196	5.16
506.627	5.29
507.059	5.44
507.491	5.61
507.923	5.76
508.354	5.91
508.786	6.08
509.217	6.24
509.649	6.41
510.08	6.6
510.512	6.79
510.943	7
511.374	7.19
511.805	7.38
512.237	7.6
512.668	7.82
513.099	8.06
513.53	8.3
513.961	8.55
514.391	8.78
514.822	9.02
515.253	9.27
515.684	9.51
516.114	9.78
516.545	10.06
516.975	10.31
517.406	10.6
517.836	10.86
518.267	11.13
518.697	11.41
519.127	11.7
519.558	11.98
519.988	12.26
520.418	12.54
520.848	12.82
521.278	13.11
521.708	13.35
522.138	13.61
522.567	13.87
522.997	14.13
523.427	14.39
523.857	14.63
524.286	14.9
524.716	15.14
525.145	15.38
525.575	15.61
526.004	15.81
526.433	16.07
526.863	16.27
527.292	16.48
527.721	16.68
528.15	16.85
528.579	17.04
529.008	17.2
529.437	17.37
529.866	17.51
530.295	17.66
530.724	17.81
531.152	17.96
531.581	18.09
532.01	18.2
532.438	18.31
532.867	18.43
533.295	18.54
533.723	18.64
534.152	18.73
534.58	18.84
535.008	18.92
535.436	18.98
535.865	19.03
536.293	19.1
536.721	19.17
537.149	19.23
537.576	19.27
538.004	19.31
538.432	19.34
538.86	19.39
539.287	19.43
539.715	19.48
540.143	19.54
540.57	19.58
540.998	19.63
541.425	19.68
541.852	19.71
542.28	19.75
542.707	19.78
543.134	19.82
543.561	19.83
543.988	19.87
544.415	19.9
544.842	19.92
545.269	19.95
545.696	19.96
546.123	19.99
546.549	20
546.976	20.05
547.403	20.07
547.829	20.09
548.256	20.12
548.682	20.13
549.108	20.12
549.535	20.14
549.961	20.16
550.387	20.15
550.813	20.13
551.24	20.13
551.666	20.13
552.092	20.13
552.518	20.13
552.943	20.1
553.369	20.08
553.795	20.06
554.221	20.03
554.646	19.99
555.072	19.94
555.498	19.9
555.923	19.86
556.349	19.77
556.774	19.7
557.199	19.63
557.625	19.55
558.05	19.46
558.475	19.38
558.9	19.29
559.325	19.17
559.75	19.07
560.175	18.97
560.6	18.86
561.025	18.76
561.449	18.65
561.874	18.54
562.299	18.43
562.723	18.29
563.148	18.15
563.572	18.02
563.997	17.89
564.421	17.76
564.846	17.62
565.27	17.48
565.694	17.33
566.118	17.16
566.542	17
566.966	16.85
567.39	16.69
567.814	16.54
568.238	16.37
568.662	16.23
569.086	16.06
569.509	15.9
569.933	15.72
570.357	15.54
570.78	15.38
571.204	15.22
571.627	15.06
572.05	14.92
572.474	14.78
572.897	14.64
573.32	14.48
573.743	14.34
574.166	14.19
574.589	14.08
575.012	13.96
575.435	13.84
575.858	13.72
576.281	13.6
576.704	13.49
577.126	13.39
577.549	13.29
577.972	13.2
578.394	13.09
578.817	12.99
579.239	12.89
579.661	12.81
580.084	12.71
580.506	12.64
580.928	12.54
581.35	12.45
581.772	12.36
582.194	12.26
582.616	12.19
583.038	12.13
583.46	12.07
583.882	11.99
584.303	11.92
584.725	11.86
585.147	11.76
585.568	11.68
585.99	11.64
586.411	11.56
586.833	11.51
587.254	11.46
587.675	11.4
588.096	11.34
588.518	11.29
588.939	11.24
589.36	11.18
589.781	11.16
590.202	11.13
590.623	11.06
591.043	11.03
591.464	10.99
591.885	10.96
592.305	10.94
592.726	10.91
593.147	10.9
593.567	10.87
593.987	10.84
594.408	10.82
594.828	10.79
595.248	10.77
595.669	10.75
596.089	10.72
596.509	10.67
596.929	10.63
597.349	10.59
597.769	10.55
598.189	10.51
598.608	10.47
599.028	10.43
599.448	10.4
599.867	10.37
600.287	10.32
600.706	10.27
601.126	10.23
601.545	10.18
601.965	10.14
602.384	10.1
602.803	10.04
603.222	9.99
603.641	9.93
604.061	9.86
604.48	9.8
604.898	9.74
605.317	9.68
605.736	9.63
606.155	9.54
606.574	9.47
606.992	9.39
607.411	9.34
607.829	9.22
608.248	9.16
608.666	9.08
609.085	9
609.503	8.92
609.921	8.84
610.339	8.76
610.758	8.7
611.176	8.63
611.594	8.56
612.012	8.49
612.43	8.47
612.847	8.41
613.265	8.35
613.683	8.28
614.101	8.23
614.518	8.15
614.936	8.09
615.353	8.03
615.771	7.96
616.188	7.92
616.606	7.87
617.023	7.82
617.44	7.76
617.857	7.7
618.274	7.65
618.691	7.61
619.108	7.58
619.525	7.54
619.942	7.51
620.359	7.49
620.776	7.45
621.192	7.4
621.609	7.36
622.026	7.34
622.442	7.32
622.859	7.3
623.275	7.29
623.691	7.28
624.108	7.26
624.524	7.25
624.94	7.24
625.356	7.23
625.772	7.24
626.188	7.25
626.604	7.24
627.02	7.23
627.436	7.22
627.852	7.21
628.268	7.19
628.683	7.17
629.099	7.17
629.514	7.16
629.93	7.13
630.345	7.1
630.761	7.06
631.176	7.04
631.591	7.01
632.007	6.97
632.422	6.94
632.837	6.92
633.252	6.88
633.667	6.82
634.082	6.77
634.497	6.71
634.911	6.65
635.326	6.59
635.741	6.52
636.155	6.47
636.57	6.4
636.984	6.3
637.399	6.2
637.813	6.13
638.228	6.05
638.642	5.97
639.056	5.89
639.47	5.82
639.884	5.73
640.298	5.65
640.712	5.55
641.126	5.46
641.54	5.37
641.954	5.31
642.368	5.22
642.781	5.14
643.195	5.05
643.609	4.97
644.022	4.9
644.436	4.83
644.849	4.75
645.262	4.71
645.676	4.65
646.089	4.59
646.502	4.53
646.915	4.48
647.328	4.44
647.741	4.4
648.154	4.37
648.567	4.33
648.98	4.3
649.393	4.28
649.805	4.23
650.218	4.21
650.631	4.19
651.043	4.16
651.456	4.14
651.868	4.11
652.28	4.08
652.693	4.04
653.105	4
653.517	3.96
653.929	3.93
654.341	3.89
654.753	3.85
655.165	3.81
655.577	3.76
655.989	3.71
656.401	3.66
656.813	3.61
657.224	3.57
657.636	3.53
658.047	3.48
658.459	3.43
658.87	3.39
659.282	3.36
659.693	3.32
660.104	3.28
660.515	3.23
660.926	3.2
661.338	3.17
661.749	3.12
662.159	3.08
662.57	3.06
662.981	3.02
663.392	2.99
663.803	2.95
664.213	2.93
664.624	2.92
665.035	2.9
665.445	2.89
665.855	2.87
666.266	2.87
666.676	2.85
667.086	2.83
667.497	2.82
667.907	2.81
668.317	2.8
668.727	2.79
669.137	2.79
669.547	2.8
669.956	2.79
670.366	2.81
670.776	2.81
671.186	2.83
671.595	2.85
672.005	2.87
672.414	2.9
672.824	2.93
673.233	2.94
673.642	2.95
674.052	2.97
674.461	3
674.87	3.01
675.279	3.02
675.688	3.03
676.097	3.05
676.506	3.06
676.915	3.09
677.323	3.11
677.732	3.14
678.141	3.18
678.549	3.22
678.958	3.26
679.366	3.29
679.775	3.34
680.183	3.38
680.592	3.43
681	3.46
681.408	3.5
681.816	3.54
682.224	3.59
682.632	3.66
683.04	3.72
683.448	3.78
683.856	3.87
684.264	3.95
684.671	4.06
685.079	4.17
685.487	4.32
685.894	4.48
686.302	4.65
686.709	4.83
687.116	5.01
687.524	5.22
687.931	5.47
688.338	5.75
688.745	6.04
689.152	6.36
689.559	6.71
689.966	7.07
690.373	7.48
690.78	7.89
691.187	8.33
691.593	8.79
692	9.29
692.407	9.79
692.813	10.3
693.22	10.84
693.626	11.4
694.032	11.95
694.439	12.52
694.845	13.1
695.251	13.69
695.657	14.27
696.063	14.89
696.469	15.48
696.875	16.08
697.281	16.68
697.687	17.29
698.093	17.9
698.498	18.51
698.904	19.12
699.31	19.72
699.715	20.3
700.12	20.89
700.526	21.48
700.931	22.06
701.337	22.63
701.742	23.2
702.147	23.77
702.552	24.29
702.957	24.83
703.362	25.38
703.767	25.89
704.172	26.4
704.577	26.92
704.981	27.43
705.386	27.93
705.791	28.41
706.195	28.89
706.6	29.33
707.004	29.81
707.408	30.29
707.813	30.7
708.217	31.15
708.621	31.6
709.025	32.02
709.43	32.43
709.834	32.86
710.237	33.27
710.641	33.7
711.045	34.12
711.449	34.53
711.853	34.9
712.256	35.32
712.66	35.68
713.064	36.06
713.467	36.44
713.87	36.82
714.274	37.18
714.677	37.54
715.08	37.87
715.484	38.2
715.887	38.53
716.29	38.85
716.693	39.15
717.096	39.48
717.499	39.79
717.901	40.1
718.304	40.4
718.707	40.68
719.109	40.97
719.512	41.27
719.915	41.56
720.317	41.84
720.719	42.14
721.122	42.4
721.524	42.67
721.926	42.95
722.328	43.19
722.731	43.42
723.133	43.66
723.535	43.9
723.937	44.11
724.338	44.31
724.74	44.5
725.142	44.59
725.544	44.79
725.945	44.94
726.347	45.1
726.748	45.27
727.15	45.45
727.551	45.62
727.952	45.76
728.354	45.92
728.755	46.07
729.156	46.23
729.557	46.5
729.958	46.65
730.359	46.8
730.76	46.93
731.161	47.03
731.562	47.17
731.962	47.28
732.363	47.39
732.763	47.54
733.164	47.63
733.564	47.73
733.965	47.79
734.365	47.85
734.766	47.95
735.166	48.02
735.566	48.08
735.966	48.12
736.366	48.18
736.766	48.24
737.166	48.27
737.566	48.33
737.966	48.35
738.365	48.41
738.765	48.49
739.165	48.52
739.564	48.55
739.964	48.62
740.363	48.68
740.763	48.73
741.162	48.78
741.561	48.83
741.96	48.9
742.36	48.97
742.759	48.99
743.158	48.99
743.557	49.04
743.955	49.14
744.354	49.23
744.753	49.26
745.152	49.28
745.55	49.3
745.949	49.34
746.348	49.38
746.746	49.43
747.144	49.49
747.543	49.54
747.941	49.63
748.339	49.67
748.737	49.7
749.136	49.76
749.534	49.84
749.932	49.86
750.33	49.87
750.727	49.9
751.125	49.92
751.523	49.93
751.921	49.98
752.318	49.97
752.716	49.97
753.113	49.97
753.511	49.92
753.908	49.87
754.305	49.88
754.703	49.89
755.1	49.88
755.497	49.84
755.894	49.85
756.291	49.83
756.688	49.81
757.085	49.78
757.482	49.75
757.878	49.79
758.275	49.78
758.672	49.79
759.068	49.79
759.465	49.8
759.861	49.82
760.258	49.79
760.654	49.77
761.05	49.76
761.447	49.76
761.843	49.71
762.239	49.66
762.635	49.68
763.031	49.68
763.427	49.63
763.822	49.6
764.218	49.59
764.614	49.6
765.01	49.58
765.405	49.54
765.801	49.55
766.196	49.6
766.592	49.62
766.987	49.62
767.382	49.61
767.778	49.63
768.173	49.63
768.568	49.62
768.963	49.61
769.358	49.61
769.753	49.67
770.148	49.63
770.542	49.58
770.937	49.57
771.332	49.55
771.726	49.52
772.121	49.48
772.515	49.47
772.91	49.45
773.304	49.45
773.699	49.47
774.093	49.41
774.487	49.44
774.881	49.46
775.275	49.45
775.669	49.47
776.063	49.48
776.457	49.46
776.851	49.44
777.245	49.46
777.638	49.43
778.032	49.44
778.425	49.43
778.819	49.4
779.212	49.35
779.606	49.35
779.999	49.36
780.392	49.37
780.786	49.4
781.179	49.41
781.572	49.39
781.965	49.41
782.358	49.36
782.751	49.37
783.143	49.38
783.536	49.46
783.929	49.47
784.322	49.46
784.714	49.45
785.107	49.47
785.499	49.49
785.891	49.52
786.284	49.48
786.676	49.53
787.068	49.55
787.46	49.54
787.852	49.51
788.245	49.49
788.636	49.53
789.028	49.5
789.42	49.47
789.812	49.47
790.204	49.43
790.595	49.46
790.987	49.42
791.378	49.43
791.77	49.46
792.161	49.44
792.553	49.46
792.944	49.47
793.335	49.49
793.726	49.5
794.117	49.46
794.508	49.46
794.899	49.46
795.29	49.46
795.681	49.46
796.072	49.44
796.463	49.38
796.853	49.36
797.244	49.34
797.634	49.31
798.025	49.34
798.415	49.37
798.806	49.35
799.196	49.35
799.586	49.35
799.976	49.34
800.366	49.35
800.756	49.39
801.146	49.39
801.536	49.35
801.926	49.36
802.316	49.33
802.706	49.36
803.095	49.38
803.485	49.4
803.874	49.41
804.264	49.44
804.653	49.4
805.043	49.41
805.432	49.36
805.821	49.36
806.21	49.38
806.599	49.4
806.988	49.39
807.377	49.37
807.766	49.37
808.155	49.37
808.544	49.35
808.933	49.39
809.321	49.42
809.71	49.49
810.098	49.5
810.487	49.52
810.875	49.49
811.264	49.48
811.652	49.5
812.04	49.48
812.428	49.47
812.816	49.46
813.204	49.47
813.592	49.44
813.98	49.41
814.368	49.41
814.756	49.38
815.144	49.41
815.531	49.41
815.919	49.41
816.306	49.41
816.694	49.44
817.081	49.43
817.469	49.44
817.856	49.5
818.243	49.51
818.63	49.56
819.017	49.57
819.404	49.6
819.791	49.63
820.178	49.62
820.565	49.64
820.952	49.62
821.339	49.68
821.725	49.68
822.112	49.66
822.498	49.69
822.885	49.66
823.271	49.72
823.657	49.69
824.044	49.7
824.43	49.75
824.816	49.77
825.202	49.79
825.588	49.79
825.974	49.8
826.36	49.79
826.746	49.79
827.132	49.8
827.517	49.8
827.903	49.84
828.289	49.84
828.674	49.83
829.06	49.84
829.445	49.87
829.83	49.85
830.216	49.89
830.601	49.89
830.986	49.9
831.371	49.93
831.756	49.89
832.141	49.88
832.526	49.87
832.911	49.88
833.295	49.91
833.68	49.91
834.065	49.92
834.449	49.88
834.834	49.88
835.218	49.87
835.603	49.87
835.987	49.88
836.371	49.89
836.755	49.91
837.139	49.91
837.524	49.9
837.908	49.88
838.291	49.86
838.675	49.88
839.059	49.87
839.443	49.87
839.827	49.87
840.21	49.89
840.594	49.87
840.977	49.82
841.361	49.81
841.744	49.81
842.127	49.81
842.511	49.8
842.894	49.78
843.277	49.8
843.66	49.79
844.043	49.79
844.426	49.77
844.809	49.78
845.191	49.77
845.574	49.74
845.957	49.7
846.339	49.71
846.722	49.74
847.104	49.74
847.487	49.75
847.869	49.74
848.252	49.75
848.634	49.78
849.016	49.78
849.398	49.81
849.78	49.83
850.162	49.84
850.544	49.85
850.926	49.84
851.307	49.84
851.689	49.81
852.071	49.83
852.452	49.82
852.834	49.8
853.215	49.79
853.597	49.79
853.978	49.8
854.359	49.8
854.741	49.82
855.122	49.82
855.503	49.84
855.884	49.84
856.265	49.84
856.646	49.84
857.026	49.84
857.407	49.82
857.788	49.82
858.169	49.79
858.549	49.81
858.93	49.8
859.31	49.78
859.69	49.73
860.071	49.72
860.451	49.69
860.831	49.7
861.211	49.68
861.591	49.71
861.971	49.71
862.351	49.73
862.731	49.7
863.111	49.69
863.491	49.7
863.87	49.72
864.25	49.76
864.629	49.78
865.009	49.8
865.388	49.81
865.768	49.79
866.147	49.8
866.526	49.81
866.905	49.82
867.284	49.84
867.663	49.83
868.042	49.8
868.421	49.78
868.8	49.78
869.179	49.77
869.558	49.75
869.936	49.75
870.315	49.74
870.693	49.75
871.072	49.74
871.45	49.71
871.828	49.68
872.207	49.72
872.585	49.69
872.963	49.68
873.341	49.68
873.719	49.68
874.097	49.68
874.475	49.68
874.853	49.65
875.23	49.66
875.608	49.66
875.986	49.67
876.363	49.68
876.741	49.7
877.118	49.68
877.495	49.67
877.873	49.68
878.25	49.67
878.627	49.66
879.004	49.66
879.381	49.68
879.758	49.68
880.135	49.69
880.512	49.69
880.889	49.68
881.265	49.7
881.642	49.67
882.019	49.66
882.395	49.68
882.772	49.69
883.148	49.71
883.524	49.68
883.901	49.69
884.277	49.68
884.653	49.71
885.029	49.7
885.405	49.69
885.781	49.71
886.157	49.73
886.532	49.73
886.908	49.74
887.284	49.74
887.659	49.74
888.035	49.72
888.411	49.75
888.786	49.75
889.161	49.74
889.537	49.76
889.912	49.75
890.287	49.74
890.662	49.72
891.037	49.68
891.412	49.63
891.787	49.62
892.162	49.62
892.536	49.61
892.911	49.58
893.286	49.57
893.66	49.54
894.035	49.54
894.409	49.52
894.784	49.54
895.158	49.56
895.532	49.57
895.906	49.56
896.281	49.53
896.655	49.49
897.029	49.46
897.402	49.46
897.776	49.46
898.15	49.46
898.524	49.45
898.898	49.41
899.271	49.39
899.645	49.39
900.018	49.38
900.392	49.4
900.765	49.43
901.138	49.43
901.511	49.4
901.884	49.39
902.258	49.39
902.631	49.37
903.003	49.36
903.376	49.35
903.749	49.34
904.122	49.33
904.495	49.32
904.867	49.28
905.24	49.28
905.612	49.26
905.985	49.25
906.357	49.22
906.729	49.22
907.102	49.2
907.474	49.2
907.846	49.19
908.218	49.18
908.59	49.15
908.962	49.16
909.334	49.17
909.705	49.16
910.077	49.12
910.449	49.12
910.82	49.09
911.192	49.05
911.563	49.04
911.935	49.01
912.306	49
912.677	48.99
913.048	48.95
913.419	48.91
913.79	48.9
914.161	48.91
914.532	48.9
914.903	48.93
915.274	48.98
915.645	48.99
916.015	49.04
916.386	49.01
916.756	48.99
917.127	49
917.497	48.99
917.868	48.97
918.238	48.97
918.608	48.94
918.978	48.9
919.348	48.86
919.718	48.85
920.088	48.8
920.458	48.84
920.828	48.87
921.198	48.86
921.567	48.86
921.937	48.89
922.306	48.88
922.676	48.93
923.045	48.9
923.415	48.9
923.784	48.89
924.153	48.93
924.522	48.88
924.891	48.87
925.26	48.83
925.629	48.84
925.998	48.84
926.367	48.81
926.736	48.75
927.104	48.76
927.473	48.75
927.842	48.7
928.21	48.66
928.578	48.6
928.947	48.57
929.315	48.61
929.683	48.6
930.051	48.57
930.42	48.57
930.788	48.54
931.156	48.49
931.523	48.41
931.891	48.39
932.259	48.28
932.627	48.25
932.994	48.18
933.362	48.05
933.729	47.93
934.097	47.83
934.464	47.75
934.831	47.64
935.199	47.58
935.566	47.57
935.933	47.49
936.3	47.48
936.667	47.42
937.034	47.35
937.401	47.34
937.767	47.36
938.134	47.34
938.501	47.24
938.867	47.3
939.234	47.31
939.6	47.28
939.967	47.29
940.333	47.31
940.699	47.39
941.065	47.43
941.431	47.49
941.798	47.54
942.163	47.62
942.529	47.73
942.895	47.82
943.261	47.86
943.627	47.9
943.992	48
944.358	47.99
944.723	48.01
945.089	48.12
945.454	48.18
945.82	48.17
946.185	48.24
946.55	48.36
946.915	48.29
947.28	48.34
947.645	48.3
948.01	48.29
948.375	48.3
948.74	48.29
949.104	48.3
949.469	48.2
949.834	48.1
950.198	47.97
950.562	47.85
950.927	47.89
951.291	47.84
951.655	47.87
952.02	47.84
952.384	47.92
952.748	47.93
953.112	47.88
953.476	47.87
953.839	47.91
954.203	47.84
954.567	47.82
954.931	47.79
955.294	47.77
955.658	47.68
956.021	47.72
956.385	47.7
956.748	47.65
957.111	47.6
957.474	47.67
957.837	47.67
958.2	47.66
958.563	47.67
958.926	47.59
959.289	47.59
959.652	47.62
960.015	47.49
960.377	47.47
960.74	47.42
961.102	47.43
961.465	47.37
961.827	47.22
962.189	47.23
962.552	47.19
962.914	47.2
963.276	47.21
963.638	47.19
964	47.19
964.362	47.14
964.724	47.16
965.085	47.11
965.447	47.01
965.809	47.01
966.17	47.08
966.532	47.07
966.893	47.05
967.255	46.93
967.616	46.95
967.977	46.99
968.338	46.94
968.699	46.92
969.061	46.86
969.421	46.92
969.782	47
970.143	46.94
970.504	46.9
970.865	46.79
971.225	46.85
971.586	46.83
971.946	46.82
972.307	46.76
972.667	46.75
973.027	46.84
973.388	46.78
973.748	46.76
974.108	46.72
974.468	46.7
974.828	46.76
975.188	46.73
975.548	46.67
975.907	46.63
976.267	46.72
976.627	46.66
976.986	46.58
977.346	46.58
977.705	46.51
978.064	46.46
978.424	46.44
978.783	46.49
979.142	46.46
979.501	46.44
979.86	46.44
980.219	46.39
980.578	46.43
980.937	46.47
981.296	46.5
981.654	46.56
982.013	46.56
982.371	46.62
982.73	46.52
983.088	46.5
983.447	46.5
983.805	46.44
984.163	46.35
984.521	46.24
984.879	46.24
985.237	46.24
985.595	46.21
985.953	46.19
986.311	46.16
986.669	46.18
987.026	46.19
987.384	46.18
987.741	46.21
988.099	46.26
988.456	46.28
988.814	46.22
989.171	46.17
989.528	46.16
989.885	46.1
990.242	46.12
990.599	46.12
990.956	46.05
991.313	46.03
991.67	46.08
992.027	45.98
992.383	46.01
992.74	45.98
993.096	45.93
993.453	45.9
993.809	45.96
994.165	45.97
994.522	45.8
994.878	45.87
995.234	45.86
995.59	45.59
995.946	45.6
996.302	45.6
996.658	45.6
997.013	45.61
997.369	45.66
997.725	45.71
998.08	45.54
998.436	45.71
998.791	45.59
999.147	45.54
999.502	45.64
999.857	45.67
1000.212	45.54
1000.567	45.38
1000.922	45.41
1001.277	45.28
1001.632	45.2
1001.987	45.17
1002.342	45.02
1002.696	45.06
1003.051	44.9
1003.406	44.99
1003.76	44.81
1004.114	44.92
1004.469	44.91
1004.823	44.72
1005.177	44.77
1005.531	44.75
1005.885	44.83
1006.239	44.84
1006.593	44.81
1006.947	44.96
1007.301	44.85
1007.655	44.98
1008.008	44.81
1008.362	44.94
1008.715	44.92
1009.069	44.89
1009.422	44.65
1009.776	44.73
1010.129	44.56
1010.482	44.51
1010.835	44.58
1011.188	44.42
1011.541	44.24
1011.894	44.24
1012.247	44.18
1012.6	44.25
1012.952	44.24
1013.305	44.21
1013.657	43.92
1014.01	44.17
1014.362	44.22
1014.715	43.83
1015.067	43.74
1015.419	43.85
1015.771	43.95
1016.123	43.86
1016.475	43.78
1016.827	43.81
1017.179	44
1017.531	43.98
1017.883	43.87
1018.234	43.68
1018.586	43.71
1018.938	43.66
1019.289	43.57
1019.64	43.3
1019.992	43.43
1020.343	43.27
1020.694	42.69
1021.045	42.59
1021.396	42.46
1021.747	42.34
1022.098	42.38
1022.449	42.43
1022.8	42.45
1023.151	42.26
1023.501	42.32
1023.852	42.03
1024.202	41.87
1024.553	41.9
1024.903	41.77
1025.253	41.84
1025.604	41.85
1025.954	41.68
1026.304	41.85
1026.654	41.95
1027.004	42.11
1027.354	42
1027.703	41.66
1028.053	41.81
1028.403	42.13
1028.753	42.21
1029.102	42.41
1029.452	42.49
1029.801	42.66
1030.15	42.52
1030.499	42.51
897.758	-89.85
901.051	-82.78
904.343	-85.74
907.636	-82.32
910.928	-74.32
914.22	-79.84
917.511	-80.47
920.803	-74.46
924.094	-65.36
927.384	-67.24
930.675	-61.51
933.965	-60.75
937.255	-60.68
940.544	-54.9
943.834	-55.43
947.123	-57.54
950.411	-48.37
953.7	-43.57
956.988	-43.96
960.276	-36.93
963.563	-33.5
966.851	-29.74
970.138	-26.59
973.424	-23.02
976.711	-21.74
979.997	-16.28
983.283	-16.01
986.568	-14.73
989.853	-11.36
993.138	-7.95
996.423	-8.95
999.708	-7.25
1002.992	-6.55
1006.275	-5.3
1009.559	-4.6
1012.842	-3.57
1016.125	-2.61
1019.408	-0.51
1022.69	2.03
1025.972	2.18
1029.254	2.87
1032.536	3.43
1035.817	5.6
1039.098	6.64
1042.379	8.45
1045.659	9.24
1048.939	11.16
1052.219	11.4
1055.498	12.91
1058.778	12.59
1062.057	12.66
1065.335	14.45
1068.614	14.38
1071.892	14.13
1075.17	14.72
1078.447	15.18
1081.724	16.21
1085.001	14.96
1088.278	14.97
1091.554	14.61
1094.83	14.9
1098.106	16.09
1101.382	16.28
1104.657	17.28
1107.932	16.54
1111.206	17.42
1114.481	18.09
1117.755	16.72
1121.029	17.89
1124.302	20.1
1127.575	20.5
1130.848	20.42
1134.121	19.71
1137.393	19.91
1140.665	18.4
1143.937	19.56
1147.208	19.61
1150.48	19.41
1153.75	19.36
1157.021	20.03
1160.291	20.17
1163.561	19.5
1166.831	20.4
1170.101	20.75
1173.37	20.18
1176.639	21.02
1179.907	20.83
1183.176	20.2
1186.444	19.73
1189.711	20.32
1192.979	19.12
1196.246	19.1
1199.513	19.51
1202.78	18.72
1206.046	19.22
1209.312	20
1212.578	19.92
1215.843	20.18
1219.108	19.57
1222.373	19.54
1225.638	19.36
1228.902	19.41
1232.166	17.7
1235.43	16.23
1238.693	15.48
1241.956	13.88
1245.219	12.73
1248.482	13.49
1251.744	12.36
1255.006	13.54
1258.268	13.26
1261.529	13.65
1264.79	14.95
1268.051	14.98
1271.312	16.58
1274.572	17.44
1277.832	19.5
1281.092	19.7
1284.351	19.72
1287.61	19.71
1290.869	19.97
1294.128	20.41
1297.386	20.6
1300.644	20.07
1303.902	20.11
1307.159	19.76
1310.416	19.16
1313.673	18.49
1316.93	17.42
1320.186	17.08
1323.442	16.19
1326.697	15.3
1329.953	13.73
1333.208	11.54
1336.463	9
1339.717	9.06
1342.972	7.47
1346.226	6.31
1349.479	4.08
1352.733	2.78
1355.986	-0.05
1359.238	-0.65
1362.491	-2.76
1365.743	-3.55
1368.995	-0.98
1372.247	-3.89
1375.498	-4.24
1378.749	-8.68
1382	-9.57
1385.251	-10.53
1388.501	-10.78
1391.751	-11.3
1395	-10.9
1398.25	-12.35
1401.499	-13.73
1404.748	-17.98
1407.996	-13.32
1411.244	-14.59
1414.492	-13.84
1417.74	-14.62
1420.987	-13.04
1424.234	-14.08
1427.481	-14.2
1430.728	-14.46
1433.974	-12.16
1437.22	-12.63
1440.465	-11.97
1443.711	-12.58
1446.956	-11.94
1450.201	-10.01
1453.445	-8.41
1456.689	-7.9
1459.933	-6.35
1463.177	-5.17
1466.42	-4.77
1469.663	-5.16
1472.906	-3.17
1476.148	-2.24
1479.391	-1.23
1482.633	-0.67
1485.874	0.25
1489.115	1.01
1492.356	1.41
1495.597	2.17
1498.838	2.75
1502.078	3.62
1505.318	4.36
1508.557	4.17
1511.797	5.76
1515.036	6.81
1518.274	7.45
1521.513	7.71
1524.751	8.17
1527.989	9.33
1531.227	9.28
1534.464	10.5
1537.701	10.99
1540.938	11.31
1544.174	11.59
1547.41	11.82
1550.646	12.45
1553.882	12.91
1557.117	13.45
1560.352	13.99
1563.587	13.82
1566.821	14.14
1570.055	14.95
1573.289	15.25
1576.523	15.62
1579.756	16.63
1582.989	16.76
1586.222	16.43
1589.454	17.22
1592.686	17.66
1595.918	17.35
1599.15	18
1602.381	17.91
1605.612	18.23
1608.843	18.08
1612.073	17.94
1615.303	18.58
1618.533	18.7
1621.762	18.75
1624.992	17.91
1628.221	17.81
1631.449	18.08
1634.678	18.49
1637.906	18.89
1641.134	18.61
1644.361	18.75
1647.588	19.26
1650.815	18.89
1654.042	19.21
1657.269	19.2
1660.495	19.61
1663.72	19.91
1666.946	19.82
1670.171	19.57
1673.396	19.71
1676.621	19.42
1679.845	20.22
1683.069	19.1
1686.293	18.95
1689.517	18.95
1692.74	19.06
1695.963	19.1
1699.185	18.7
1702.408	18.51
1705.63	18.39
1708.852	17.96
1712.073	17.81
1715.294	16.97
1718.515	18.35
1721.736	17.91
1724.956	16.84
1728.176	17.06
1731.396	16.3
1734.616	16.48
1737.835	16.24
1741.054	15.62
1744.272	16.18
1747.491	16
1750.709	15.71
1753.927	14.78
1757.144	15.25
1760.361	15.24
1763.578	14.48
1766.795	14.81
1770.011	14.41
1773.227	14.51
1776.443	14.32
1779.658	13.17
1782.874	13.18
1786.089	12.62
1789.303	12.9
1792.518	12.07
1795.732	12.09
1798.945	12.51
1802.159	12.34
1805.372	11.99
1808.585	11.42
1811.797	11.82
1815.01	11.95
1818.222	11.75
1821.434	11.95
1824.645	10.35
1827.856	10.41
1831.067	9.88
1834.278	9.87
1837.488	9.15
1840.698	8.5
1843.908	8.04
1847.117	7.06
1850.326	6.02
1853.535	5.62
1856.744	4.3
1859.952	4.35
1863.16	3
1866.368	2.43
1869.575	-0.02
1872.782	-0.88
1875.989	-3.69
1879.196	-3.91
1882.402	-6.4
1885.608	-6.32
1888.814	-8.75
1892.019	-11.31
1895.224	-12.65
1898.429	-13.85
1901.634	-15.43
1904.838	-17.74
1908.042	-18.63
1911.246	-17.49
1914.449	-18.47
1917.652	-19.15
1920.855	-20.7
1924.058	-20.42
1927.26	-20.89
1930.462	-20.95
1933.664	-19.35
1936.865	-19.61
1940.066	-18.06
1943.267	-18.99
1946.467	-19.57
1949.668	-20.52
1952.868	-18.48
1956.067	-18.5
1959.267	-18.19
1962.466	-17.9
1965.665	-17.49
1968.863	-18.24
1972.061	-18.11
1975.259	-18.3
1978.457	-18.54
1981.654	-17.59
1984.852	-17.2
1988.048	-17.8
1991.245	-17.53
1994.441	-17.91
1997.637	-18.98
2000.833	-17.94
2004.028	-18.76
2007.223	-19.82
2010.418	-19.17
2013.613	-19.64
2016.807	-20.47
2020.001	-20.95
2023.194	-19.72
2026.388	-22.12
2029.581	-23.33
2032.774	-23.45
2035.966	-25.61
2039.158	-25.03
2042.35	-25.33
2045.542	-27.14
2048.733	-27.54
2051.924	-30.7
2055.115	-30.54
2058.306	-33.13
2061.496	-33.61
2064.686	-32.6
2067.875	-31.83
2071.065	-31.52
2074.254	-32.89
2077.442	-34.52
2080.631	-35.66
2083.819	-35.15
2087.007	-34.24
2090.195	-35.67
2093.382	-35.51
2096.569	-35.19
2099.756	-32.58
2102.942	-32.92
2106.128	-36.48
2109.314	-35.22
2112.5	-34.26
2115.685	-34.23
2118.87	-34.37
2122.055	-33.13
2125.239	-35.51
2128.424	-34.69
2131.608	-35.77
2134.791	-39.55
2137.974	-40.42
2141.157	-37.57
2144.34	-39.21
2147.523	-38.61
2150.705	-38.11
2153.887	-39.23
2157.068	-39.61
2160.25	-40.74
2163.431	-39.26
2166.611	-37.9
2169.792	-39.82
2172.972	-37.26
2176.152	-39.7
2179.331	-42.3
2182.511	-43.49
2185.69	-42.89
2188.868	-47.07
2192.047	-48.3
2195.225	-44.97
2198.403	-53.55
2201.58	-52.5
2204.758	-53.47
2207.935	-57.07
2211.111	-61.08
2214.288	-58.64
2217.464	-59
2220.64	-58.48
2223.815	-57.67
2226.991	-57.12
2230.166	-57.86
2233.34	-56.79
2236.515	-61.34
2239.689	-62.03
2242.863	-61.7
2246.036	-56.91
2249.209	-63.54
2252.382	-62.17
2255.555	-70.14
2258.727	-69.32
2261.9	-75.7
2265.071	-78.67
2268.243	-75
2271.414	-79.45
2274.585	-81.95
2277.756	-84.48
2280.926	-89.93
2284.096	-86.48
2287.266	-87.26
2290.436	-81.26
2293.605	-83.62
2296.774	-84
2299.942	-85.47
2303.111	-87.78
2306.279	-87.56
2309.447	-85.07
2312.614	-87.02
2315.781	-92.19
2318.948	-90.35
2322.115	-94.45
2325.281	-108.01
2328.447	-107.97
2331.613	-108.16
2334.779	-108.59
2337.944	-117.62
2341.109	-121.35
2344.274	-117.41
2347.438	-124.58
2350.602	-121.74
2353.766	-136.56
2356.929	-139.04
2360.092	-136.95
2363.255	-134.87
2366.418	-135.14
2369.58	-139.72
2372.742	-130.12
2375.904	-126.43
2379.066	-137.55
2382.227	-140.03
2385.388	-154.31
2388.548	-137.23
2391.709	-129.62
2394.869	-136.74
2398.029	-136.89
2401.188	-139.93
2404.347	-148.89
2407.506	-161.61
2410.665	-150.08
2413.823	-156.31
2416.981	-157.59
2420.139	-134.93
2423.296	-153
2426.453	-172.69
2429.61	-151.94
2432.767	-171.34
2435.923	-173.82
2439.079	-156.23
2442.235	-162.77
2445.391	-172.91
2448.546	-161.28
2451.701	-177.16
2454.855	-197.37
2458.009	-164.11
2461.163	-168.04
2464.317	-172.56
2467.471	-163.19
2470.624	-167.83
2473.777	-172.15
2476.929	-160.08
2480.082	-172.98
2483.234	-188.42
2486.385	-186.92
2489.537	-189.13
2492.688	-217.25
2495.839	-208.26
2498.989	-223.89
2502.14	-220.84
2505.29	-212.21
2508.439	-240.03
2511.589	-250.62
2514.738	-242.84
2517.887	-239.48
2521.035	-221.55
2524.183	-225.34
2527.331	-219.54
2530.479	-214.14
2533.627	-218.46
