Data from c_1_hir_wi_4n_043_Splice17_01.txt Node
Date: Sat Feb 29 13:29:08 EST 2020
User: sa697716
Spectrometer: FLMS03696
Trigger mode: 0
Integration Time (sec): 3.180400E-1
Scans to average: 20
Electric dark correction enabled: true
Nonlinearity correction enabled: true
Boxcar width: 5
XAxis mode: Wavelengths
Number of Pixels in Spectrum: 2048
>>>>>Begin Spectral Data<<<<<
187.83	43.48
188.298	53.48
188.766	64.95
189.233	60.84
189.701	57.62
190.169	70.62
190.636	78.06
191.104	89.95
191.571	274.56
192.039	168.9
192.506	-223.32
192.974	-160.36
193.441	-199.75
193.908	131.71
194.375	165.13
194.842	148.83
195.31	153.1
195.777	162.88
196.244	146.26
196.711	134.38
197.177	130.83
197.644	128.56
198.111	128.27
198.578	127.25
199.045	127.62
199.511	127.29
199.978	127.19
200.445	126.09
200.911	125.81
201.378	125.19
201.844	124.73
202.31	124.08
202.777	123.51
203.243	122.88
203.709	122.58
204.176	120.95
204.642	119.93
205.108	118.64
205.574	118.29
206.04	117.47
206.506	116.02
206.972	114.49
207.438	113.32
207.903	111.39
208.369	108.41
208.835	106.32
209.301	104.45
209.766	101.65
210.232	99.33
210.697	96.75
211.163	94.2
211.628	91.82
212.094	89.61
212.559	87.23
213.024	85.18
213.49	83.06
213.955	80.54
214.42	78.04
214.885	74.94
215.35	71.06
215.815	66.04
216.28	60.38
216.745	54.3
217.21	48.04
217.675	41.95
218.14	36.6
218.604	31.96
219.069	27.93
219.534	24.47
219.998	21.73
220.463	19.4
220.927	17.51
221.392	15.88
221.856	14.57
222.32	13.39
222.785	12.42
223.249	11.63
223.713	10.92
224.177	10.27
224.642	9.75
225.106	9.23
225.57	8.74
226.034	8.31
226.497	7.93
226.961	7.54
227.425	7.19
227.889	6.88
228.353	6.56
228.816	6.29
229.28	5.98
229.744	5.73
230.207	5.52
230.671	5.31
231.134	5.1
231.597	4.93
232.061	4.76
232.524	4.63
232.987	4.5
233.45	4.37
233.914	4.28
234.377	4.2
234.84	4.12
235.303	4.05
235.766	3.99
236.229	3.93
236.691	3.88
237.154	3.83
237.617	3.76
238.08	3.72
238.542	3.67
239.005	3.62
239.468	3.56
239.93	3.52
240.393	3.47
240.855	3.41
241.317	3.36
241.78	3.32
242.242	3.28
242.704	3.24
243.166	3.19
243.629	3.15
244.091	3.11
244.553	3.07
245.015	3.02
245.477	2.97
245.939	2.94
246.4	2.89
246.862	2.84
247.324	2.81
247.786	2.76
248.247	2.72
248.709	2.68
249.17	2.64
249.632	2.61
250.093	2.56
250.555	2.53
251.016	2.5
251.477	2.47
251.939	2.43
252.4	2.4
252.861	2.37
253.322	2.34
253.783	2.32
254.244	2.29
254.705	2.27
255.166	2.25
255.627	2.21
256.088	2.16
256.549	2.13
257.009	2.09
257.47	2.05
257.931	2.01
258.391	1.96
258.852	1.91
259.312	1.88
259.773	1.83
260.233	1.78
260.694	1.75
261.154	1.71
261.614	1.67
262.074	1.63
262.534	1.59
262.994	1.56
263.455	1.53
263.915	1.5
264.374	1.46
264.834	1.43
265.294	1.4
265.754	1.37
266.214	1.35
266.673	1.33
267.133	1.31
267.593	1.29
268.052	1.27
268.512	1.25
268.971	1.25
269.431	1.24
269.89	1.23
270.349	1.22
270.809	1.22
271.268	1.23
271.727	1.22
272.186	1.22
272.645	1.21
273.104	1.22
273.563	1.22
274.022	1.22
274.481	1.22
274.94	1.22
275.399	1.22
275.857	1.22
276.316	1.21
276.775	1.21
277.233	1.22
277.692	1.23
278.15	1.23
278.609	1.24
279.067	1.24
279.525	1.25
279.984	1.26
280.442	1.28
280.9	1.29
281.358	1.31
281.816	1.33
282.274	1.34
282.732	1.36
283.19	1.38
283.648	1.39
284.106	1.41
284.564	1.42
285.021	1.43
285.479	1.45
285.937	1.45
286.394	1.46
286.852	1.47
287.309	1.47
287.767	1.47
288.224	1.47
288.682	1.47
289.139	1.47
289.596	1.45
290.053	1.44
290.511	1.42
290.968	1.41
291.425	1.39
291.882	1.37
292.339	1.35
292.796	1.33
293.252	1.32
293.709	1.3
294.166	1.29
294.623	1.28
295.079	1.28
295.536	1.28
295.992	1.27
296.449	1.27
296.905	1.26
297.362	1.26
297.818	1.25
298.274	1.25
298.731	1.25
299.187	1.25
299.643	1.25
300.099	1.25
300.555	1.25
301.011	1.25
301.467	1.25
301.923	1.26
302.379	1.28
302.835	1.29
303.291	1.29
303.746	1.29
304.202	1.3
304.658	1.3
305.113	1.31
305.569	1.33
306.024	1.34
306.479	1.35
306.935	1.37
307.39	1.38
307.845	1.4
308.301	1.41
308.756	1.43
309.211	1.44
309.666	1.46
310.121	1.48
310.576	1.48
311.031	1.49
311.486	1.51
311.94	1.52
312.395	1.53
312.85	1.53
313.305	1.55
313.759	1.57
314.214	1.56
314.668	1.56
315.123	1.57
315.577	1.58
316.032	1.58
316.486	1.58
316.94	1.58
317.394	1.57
317.849	1.56
318.303	1.55
318.757	1.53
319.211	1.53
319.665	1.52
320.119	1.51
320.572	1.51
321.026	1.51
321.48	1.5
321.934	1.49
322.387	1.49
322.841	1.5
323.295	1.5
323.748	1.5
324.202	1.51
324.655	1.51
325.108	1.51
325.562	1.5
326.015	1.5
326.468	1.5
326.921	1.5
327.374	1.51
327.827	1.52
328.28	1.52
328.733	1.52
329.186	1.53
329.639	1.54
330.092	1.55
330.545	1.56
330.997	1.58
331.45	1.59
331.903	1.61
332.355	1.62
332.808	1.62
333.26	1.64
333.713	1.67
334.165	1.68
334.617	1.71
335.069	1.72
335.522	1.74
335.974	1.75
336.426	1.77
336.878	1.78
337.33	1.79
337.782	1.8
338.234	1.82
338.686	1.82
339.137	1.82
339.589	1.81
340.041	1.81
340.493	1.79
340.944	1.79
341.396	1.79
341.847	1.77
342.299	1.75
342.75	1.74
343.201	1.71
343.653	1.69
344.104	1.68
344.555	1.67
345.006	1.65
345.457	1.65
345.908	1.64
346.359	1.63
346.81	1.63
347.261	1.64
347.712	1.63
348.163	1.64
348.613	1.64
349.064	1.64
349.515	1.64
349.965	1.64
350.416	1.64
350.866	1.65
351.317	1.64
351.767	1.65
352.217	1.65
352.668	1.66
353.118	1.67
353.568	1.68
354.018	1.7
354.468	1.71
354.918	1.73
355.368	1.74
355.818	1.75
356.268	1.77
356.718	1.78
357.168	1.78
357.617	1.78
358.067	1.78
358.517	1.78
358.966	1.79
359.416	1.8
359.865	1.8
360.315	1.8
360.764	1.8
361.213	1.81
361.663	1.8
362.112	1.82
362.561	1.83
363.01	1.84
363.459	1.84
363.908	1.83
364.357	1.84
364.806	1.85
365.255	1.85
365.703	1.85
366.152	1.85
366.601	1.86
367.05	1.87
367.498	1.87
367.947	1.87
368.395	1.88
368.844	1.89
369.292	1.88
369.74	1.88
370.189	1.88
370.637	1.89
371.085	1.89
371.533	1.88
371.981	1.88
372.429	1.88
372.877	1.89
373.325	1.88
373.773	1.87
374.221	1.88
374.669	1.89
375.116	1.88
375.564	1.88
376.012	1.88
376.459	1.9
376.907	1.91
377.354	1.91
377.801	1.92
378.249	1.93
378.696	1.95
379.143	1.96
379.591	1.97
380.038	2
380.485	2.03
380.932	2.05
381.379	2.07
381.826	2.1
382.273	2.13
382.72	2.18
383.166	2.22
383.613	2.28
384.06	2.35
384.506	2.43
384.953	2.52
385.4	2.64
385.846	2.78
386.292	2.95
386.739	3.12
387.185	3.34
387.631	3.54
388.078	3.71
388.524	3.84
388.97	3.97
389.416	4.12
389.862	4.33
390.308	4.6
390.754	4.94
391.2	5.29
391.645	5.6
392.091	5.84
392.537	6.08
392.983	6.44
393.428	6.99
393.874	7.69
394.319	8.49
394.765	9.31
395.21	10.12
395.655	10.95
396.101	11.84
396.546	12.83
396.991	13.97
397.436	15.21
397.881	16.48
398.326	17.68
398.771	18.78
399.216	19.81
399.661	20.77
400.106	21.62
400.551	22.35
400.995	22.98
401.44	23.55
401.885	24.07
402.329	24.61
402.774	25.15
403.218	25.8
403.663	26.5
404.107	27.27
404.551	28.1
404.995	28.89
405.44	29.62
405.884	30.38
406.328	31.25
406.772	32.28
407.216	33.38
407.66	34.42
408.104	35.36
408.547	36.18
408.991	36.91
409.435	37.67
409.879	38.56
410.322	39.63
410.766	40.75
411.209	41.84
411.653	42.82
412.096	43.7
412.54	44.51
412.983	45.35
413.426	46.28
413.869	47.23
414.312	48.2
414.756	49.07
415.199	49.82
415.642	50.53
416.085	51.12
416.527	51.62
416.97	51.95
417.413	52.14
417.856	52.17
418.298	52.17
418.741	52.23
419.184	52.36
419.626	52.62
420.069	52.97
420.511	53.37
420.953	53.75
421.396	54.23
421.838	54.9
422.28	55.77
422.722	56.71
423.164	57.58
423.606	58.42
424.048	59.06
424.49	59.44
424.932	59.37
425.374	58.68
425.816	57.62
426.258	56.34
426.699	55.32
427.141	55
427.582	55.46
428.024	56.41
428.465	57.49
428.907	58.58
429.348	59.52
429.789	60.69
430.231	62.59
430.672	65.35
431.113	68.64
431.554	71.99
431.995	74.66
432.436	76.65
432.877	78.2
433.318	79.45
433.759	80.72
434.2	82.31
434.64	84.23
435.081	86.14
435.522	87.88
435.962	89.32
436.403	90.54
436.843	91.63
437.284	92.69
437.724	93.8
438.164	95.21
438.604	96.86
439.045	98.58
439.485	100.25
439.925	101.68
440.365	102.95
440.805	104
441.245	104.83
441.685	105.69
442.125	106.64
442.564	107.77
443.004	108.9
443.444	110.15
443.883	111.44
444.323	112.84
444.762	114.21
445.202	115.58
445.641	117.15
446.081	119.16
446.52	121.17
446.959	123.19
447.398	124.83
447.837	126.03
448.276	126.58
448.716	127.07
449.154	127.42
449.593	127.82
450.032	128.02
450.471	127.89
450.91	127.43
451.349	126.88
451.787	126.35
452.226	125.93
452.664	125.6
453.103	125.48
453.541	125.16
453.98	124.64
454.418	123.97
454.856	123.18
455.295	122.61
455.733	121.96
456.171	121.44
456.609	121
457.047	120.34
457.485	120.03
457.923	119.92
458.361	120.01
458.798	120.35
459.236	120.71
459.674	121.15
460.111	121.43
460.549	121.92
460.987	122.42
461.424	122.82
461.862	123.52
462.299	123.97
462.736	124.4
463.173	125
463.611	125.71
464.048	126.62
464.485	127.66
464.922	128.9
465.359	130.08
465.796	131.11
466.233	132.25
466.67	133.35
467.106	134.67
467.543	136.12
467.98	137.49
468.416	138.68
468.853	139.64
469.29	140.55
469.726	141.41
470.162	142.29
470.599	143.18
471.035	143.97
471.471	144.49
471.907	144.72
472.344	144.76
472.78	144.63
473.216	144.6
473.652	144.57
474.088	144.44
474.523	144.07
474.959	143.64
475.395	143.2
475.831	142.69
476.266	142.21
476.702	141.76
477.138	141.19
477.573	140.6
478.008	139.75
478.444	138.74
478.879	137.69
479.314	136.57
479.75	135.37
480.185	134.03
480.62	132.51
481.055	130.7
481.49	128.25
481.925	125.53
482.36	122.9
482.795	120.59
483.229	118.77
483.664	117.24
484.099	115.9
484.534	114.69
484.968	113.7
485.403	112.98
485.837	112.75
486.271	113.05
486.706	113.57
487.14	114
487.574	114.1
488.009	113.97
488.443	113.76
488.877	113.57
489.311	113.43
489.745	113.33
490.179	113.33
490.613	113.27
491.046	113.28
491.48	113.36
491.914	113.58
492.348	114.04
492.781	114.53
493.215	114.97
493.648	115.33
494.082	115.58
494.515	115.8
494.948	115.94
495.382	116.09
495.815	116.14
496.248	116.17
496.681	116.13
497.114	116.03
497.547	115.9
497.98	115.89
498.413	116.11
498.846	116.5
499.279	116.88
499.711	117.16
500.144	117.48
500.577	118.06
501.009	118.88
501.442	119.96
501.874	121.08
502.306	122.26
502.739	123.27
503.171	124.19
503.603	124.95
504.036	125.69
504.468	126.73
504.9	127.81
505.332	128.75
505.764	129.63
506.196	130.32
506.627	131.13
507.059	131.99
507.491	132.98
507.923	133.95
508.354	134.96
508.786	136
509.217	136.73
509.649	137.49
510.08	138.21
510.512	138.97
510.943	139.87
511.374	140.75
511.805	141.36
512.237	141.63
512.668	141.62
513.099	141.73
513.53	141.9
513.961	142.25
514.391	142.63
514.822	143.28
515.253	144.14
515.684	144.98
516.114	145.95
516.545	147.1
516.975	148.81
517.406	150.86
517.836	152.81
518.267	154.67
518.697	156.39
519.127	158.14
519.558	159.74
519.988	161.17
520.418	162.61
520.848	163.85
521.278	165.06
521.708	165.9
522.138	166.33
522.567	166.67
522.997	167.07
523.427	167.66
523.857	168.27
524.286	169.07
524.716	169.95
525.145	170.67
525.575	171.4
526.004	172.23
526.433	173.31
526.863	174.8
527.292	176.36
527.721	177.7
528.15	178.64
528.579	179.29
529.008	179.69
529.437	179.89
529.866	180.14
530.295	180.42
530.724	180.81
531.152	181.09
531.581	181.37
532.01	181.55
532.438	181.74
532.867	182.17
533.295	182.66
533.723	183.2
534.152	183.62
534.58	183.94
535.008	184.08
535.436	184.01
535.865	183.74
536.293	183.36
536.721	183.21
537.149	183.27
537.576	183.48
538.004	183.75
538.432	183.94
538.86	184.22
539.287	184.61
539.715	185.2
540.143	185.92
540.57	186.84
540.998	187.92
541.425	188.87
541.852	189.83
542.28	190.68
542.707	191.6
543.134	192.39
543.561	193.01
543.988	193.71
544.415	194.45
544.842	195.16
545.269	195.9
545.696	196.56
546.123	197.36
546.549	198.01
546.976	198.6
547.403	199.12
547.829	199.84
548.256	200.59
548.682	201.12
549.108	201.7
549.535	202.23
549.961	202.62
550.387	203.05
550.813	203.45
551.24	203.9
551.666	204.26
552.092	204.47
552.518	204.51
552.943	204.57
553.369	204.7
553.795	204.63
554.221	204.34
554.646	203.94
555.072	203.31
555.498	202.59
555.923	201.93
556.349	201.34
556.774	200.88
557.199	200.45
557.625	199.97
558.05	199.36
558.475	198.77
558.9	198.33
559.325	197.9
559.75	197.45
560.175	196.96
560.6	196.28
561.025	195.41
561.449	194.35
561.874	193.15
562.299	192.06
562.723	191.03
563.148	189.93
563.572	188.76
563.997	187.5
564.421	186.12
564.846	184.74
565.27	183.51
565.694	182.2
566.118	180.83
566.542	179.55
566.966	178.14
567.39	176.74
567.814	175.5
568.238	174.44
568.662	173.6
569.086	172.88
569.509	172.33
569.933	171.71
570.357	171.22
570.78	170.83
571.204	170.5
571.627	170.31
572.05	170.23
572.474	170.03
572.897	169.89
573.32	169.63
573.743	169.44
574.166	169.05
574.589	168.72
575.012	168.61
575.435	168.63
575.858	168.76
576.281	168.89
576.704	168.96
577.126	169.11
577.549	169.23
577.972	169.54
578.394	169.8
578.817	170.2
579.239	170.75
579.661	171.09
580.084	171.37
580.506	171.58
580.928	171.68
581.35	171.74
581.772	171.64
582.194	171.48
582.616	171.27
583.038	171.18
583.46	171.02
583.882	170.58
584.303	169.97
584.725	169.06
585.147	167.9
585.568	166.87
585.99	166.03
586.411	165.49
586.833	164.98
587.254	164.45
587.675	163.92
588.096	163.48
588.518	163.12
588.939	162.98
589.36	163.11
589.781	163.44
590.202	163.64
590.623	163.67
591.043	163.41
591.464	163.09
591.885	162.75
592.305	162.31
592.726	161.78
593.147	161.27
593.567	160.63
593.987	159.95
594.408	159.23
594.828	158.52
595.248	157.82
595.669	157.09
596.089	156.21
596.509	155.28
596.929	154.28
597.349	153.23
597.769	152.17
598.189	151.16
598.608	150.27
599.028	149.45
599.448	148.73
599.867	148.02
600.287	147.39
600.706	146.76
601.126	146.14
601.545	145.59
601.965	145.13
602.384	144.7
602.803	144.31
603.222	143.83
603.641	143.33
604.061	142.77
604.48	142.08
604.898	141.46
605.317	140.91
605.736	140.27
606.155	139.64
606.574	139.02
606.992	138.42
607.411	137.83
607.829	137.26
608.248	136.72
608.666	136.17
609.085	135.68
609.503	135.07
609.921	134.53
610.339	134.08
610.758	133.68
611.176	133.21
611.594	132.68
612.012	132.06
612.43	131.41
612.847	130.8
613.265	130.3
613.683	129.9
614.101	129.56
614.518	129.28
614.936	128.96
615.353	128.62
615.771	128.43
616.188	128.3
616.606	128.23
617.023	128.23
617.44	128.15
617.857	127.93
618.274	127.7
618.691	127.42
619.108	127.04
619.525	126.7
619.942	126.3
620.359	125.81
620.776	125.26
621.192	124.66
621.609	124.11
622.026	123.63
622.442	123.31
622.859	122.9
623.275	122.54
623.691	122.12
624.108	121.73
624.524	121.38
624.94	121.11
625.356	120.79
625.772	120.62
626.188	120.45
626.604	120.22
627.02	119.93
627.436	119.67
627.852	119.44
628.268	119.33
628.683	119.31
629.099	119.32
629.514	119.2
629.93	119.22
630.345	119.24
630.761	119.26
631.176	119.32
631.591	119.35
632.007	119.43
632.422	119.55
632.837	119.6
633.252	119.63
633.667	119.71
634.082	119.83
634.497	119.93
634.911	119.94
635.326	119.84
635.741	119.74
636.155	119.6
636.57	119.46
636.984	119.24
637.399	119.02
637.813	118.79
638.228	118.46
638.642	118.21
639.056	117.89
639.47	117.63
639.884	117.48
640.298	117.27
640.712	117.08
641.126	116.9
641.54	116.72
641.954	116.5
642.368	116.21
642.781	115.95
643.195	115.6
643.609	115.32
644.022	115.05
644.436	114.71
644.849	114.33
645.262	113.89
645.676	113.43
646.089	113.13
646.502	112.88
646.915	112.69
647.328	112.46
647.741	112.31
648.154	112.15
648.567	111.95
648.98	111.83
649.393	111.81
649.805	111.83
650.218	111.84
650.631	111.62
651.043	111.29
651.456	110.57
651.868	109.55
652.28	108.34
652.693	107.18
653.105	106.24
653.517	105.5
653.929	104.87
654.341	104.42
654.753	104.06
655.165	103.81
655.577	103.68
655.989	103.94
656.401	104.47
656.813	105.22
657.224	105.92
657.636	106.4
658.047	106.7
658.459	106.78
658.87	106.67
659.282	106.46
659.693	106.22
660.104	105.94
660.515	105.61
660.926	105.36
661.338	105.01
661.749	104.65
662.159	104.24
662.57	103.75
662.981	103.36
663.392	102.93
663.803	102.53
664.213	102.18
664.624	101.85
665.035	101.45
665.445	101.06
665.855	100.62
666.266	100.2
666.676	99.79
667.086	99.41
667.497	98.99
667.907	98.59
668.317	98.24
668.727	97.84
669.137	97.46
669.547	97.14
669.956	96.81
670.366	96.57
670.776	96.25
671.186	96.03
671.595	95.8
672.005	95.62
672.414	95.46
672.824	95.29
673.233	95.17
673.642	95.02
674.052	94.96
674.461	94.87
674.87	94.77
675.279	94.78
675.688	94.73
676.097	94.74
676.506	94.74
676.915	94.79
677.323	94.85
677.732	94.96
678.141	95.12
678.549	95.24
678.958	95.41
679.366	95.59
679.775	95.69
680.183	95.83
680.592	95.98
681	96.19
681.408	96.35
681.816	96.47
682.224	96.38
682.632	95.96
683.04	95.16
683.448	94.34
683.856	93.63
684.264	93.13
684.671	92.67
685.079	92.28
685.487	91.92
685.894	91.73
686.302	91.65
686.709	91.91
687.116	92.63
687.524	93.87
687.931	95.24
688.338	96.63
688.745	97.99
689.152	99.38
689.559	100.75
689.966	102.11
690.373	103.47
690.78	104.76
691.187	106.02
691.593	107.25
692	108.42
692.407	109.6
692.813	110.79
693.22	111.88
693.626	113
694.032	114.07
694.439	115.16
694.845	116.22
695.251	117.25
695.657	118.27
696.063	119.23
696.469	120.11
696.875	120.89
697.281	121.64
697.687	122.45
698.093	123.15
698.498	123.95
698.904	124.77
699.31	125.55
699.715	126.48
700.12	127.33
700.526	128.34
700.931	129.33
701.337	130.41
701.742	131.4
702.147	132.43
702.552	133.48
702.957	134.51
703.362	135.51
703.767	136.47
704.172	137.37
704.577	138.27
704.981	139.02
705.386	139.83
705.791	140.65
706.195	141.4
706.6	142.13
707.004	142.9
707.408	143.51
707.813	144.19
708.217	144.76
708.621	145.33
709.025	145.92
709.43	146.51
709.834	147.08
710.237	147.58
710.641	148.16
711.045	148.62
711.449	149.09
711.853	149.56
712.256	149.85
712.66	150.01
713.064	149.88
713.467	149.58
713.87	149.08
714.274	148.42
714.677	147.54
715.08	146.55
715.484	145.72
715.887	144.84
716.29	144.18
716.693	143.76
717.096	143.84
717.499	144.47
717.901	145.36
718.304	146.52
718.707	147.79
719.109	149.19
719.512	150.52
719.915	151.61
720.317	152.69
720.719	153.54
721.122	154.22
721.524	154.66
721.926	154.83
722.328	154.91
722.731	154.9
723.133	154.88
723.535	154.91
723.937	155.06
724.338	155.27
724.74	155.42
725.142	155.62
725.544	155.91
725.945	156.13
726.347	156.4
726.748	156.54
727.15	156.72
727.551	157.07
727.952	157.48
728.354	158.02
728.755	158.66
729.156	159.46
729.557	160.33
729.958	161.16
730.359	161.97
730.76	162.62
731.161	163.32
731.562	163.93
731.962	164.4
732.363	164.79
732.763	165.09
733.164	165.31
733.564	165.47
733.965	165.46
734.365	165.28
734.766	165.14
735.166	164.9
735.566	164.77
735.966	164.72
736.366	164.61
736.766	164.51
737.166	164.37
737.566	164.19
737.966	164
738.365	163.94
738.765	164.05
739.165	164.1
739.564	164.37
739.964	164.46
740.363	164.55
740.763	164.63
741.162	164.76
741.561	165.06
741.96	165.39
742.36	165.7
742.759	165.89
743.158	166.03
743.557	166.23
743.955	166.3
744.354	166.42
744.753	166.56
745.152	166.62
745.55	166.61
745.949	166.42
746.348	166.22
746.746	166.01
747.144	165.8
747.543	165.59
747.941	165.35
748.339	165.17
748.737	165
749.136	164.67
749.534	164.5
749.932	164.36
750.33	164.28
750.727	164.14
751.125	163.98
751.523	163.73
751.921	163.56
752.318	163.4
752.716	163.13
753.113	162.92
753.511	162.77
753.908	162.56
754.305	162.23
754.703	161.54
755.1	159.82
755.497	156.44
755.894	150.72
756.291	142.86
756.688	133.92
757.085	125.18
757.482	117.23
757.878	110.08
758.275	103.18
758.672	96.14
759.068	89.23
759.465	83.44
759.861	79.84
760.258	79.22
760.654	81.37
761.05	85.31
761.447	89.73
761.843	93.91
762.239	97.91
762.635	102.31
763.031	107.55
763.427	113.52
763.822	119.86
764.218	126.07
764.614	132.12
765.01	137.65
765.405	142.61
765.801	147.13
766.196	151.24
766.592	154.78
766.987	157.66
767.382	159.98
767.778	161.8
768.173	163.24
768.568	164.35
768.963	165.18
769.358	165.95
769.753	166.72
770.148	167.23
770.542	167.4
770.937	167.45
771.332	167.6
771.726	167.69
772.121	167.83
772.515	167.96
772.91	168.12
773.304	168.11
773.699	167.98
774.093	167.73
774.487	167.61
774.881	167.67
775.275	167.7
775.669	167.6
776.063	167.37
776.457	167.05
776.851	166.73
777.245	166.5
777.638	166.33
778.032	166.2
778.425	166.14
778.819	165.9
779.212	165.49
779.606	165.12
779.999	164.78
780.392	164.54
780.786	164.3
781.179	164.09
781.572	163.67
781.965	163.24
782.358	162.76
782.751	162.3
783.143	161.86
783.536	161.56
783.929	161.18
784.322	160.69
784.714	160.16
785.107	159.67
785.499	159.04
785.891	158.51
786.284	157.79
786.676	157.18
787.068	156.42
787.46	155.66
787.852	154.89
788.245	154.1
788.636	153.33
789.028	152.48
789.42	151.5
789.812	150.65
790.204	149.66
790.595	148.9
790.987	148.09
791.378	147.39
791.77	146.78
792.161	146.09
792.553	145.48
792.944	144.96
793.335	144.52
793.726	144.13
794.117	143.66
794.508	143.34
794.899	142.83
795.29	142.27
795.681	141.62
796.072	140.91
796.463	140.18
796.853	139.51
797.244	138.72
797.634	137.86
798.025	137.04
798.415	136.18
798.806	135.22
799.196	134.37
799.586	133.52
799.976	132.7
800.366	131.86
800.756	130.94
801.146	129.94
801.536	129.09
801.926	128.27
802.316	127.48
802.706	126.72
803.095	125.94
803.485	125.13
803.874	124.24
804.264	123.4
804.653	122.5
805.043	121.6
805.432	120.62
805.821	119.57
806.21	118.55
806.599	117.54
806.988	116.4
807.377	115.35
807.766	114.23
808.155	113.19
808.544	111.98
808.933	110.73
809.321	109.46
809.71	108.18
810.098	106.76
810.487	105.19
810.875	103.48
811.264	101.78
811.652	99.96
812.04	98.07
812.428	96.1
812.816	94.23
813.204	92.5
813.592	90.87
813.98	89.3
814.368	87.8
814.756	86.45
815.144	85.26
815.531	84.16
815.919	83.21
816.306	82.57
816.694	82.16
817.081	81.77
817.469	81.38
817.856	80.93
818.243	80.27
818.63	79.44
819.017	78.45
819.404	77.51
819.791	76.75
820.178	76.14
820.565	75.44
820.952	74.73
821.339	74.04
821.725	73.33
822.112	72.73
822.498	72.42
822.885	72.28
823.271	72.2
823.657	71.94
824.044	71.51
824.43	70.93
824.816	70.25
825.202	69.43
825.588	68.65
825.974	67.93
826.36	67.15
826.746	66.37
827.132	65.6
827.517	64.91
827.903	64.32
828.289	63.75
828.674	63.18
829.06	62.64
829.445	62.14
829.83	61.61
830.216	61.1
830.601	60.66
830.986	60.26
831.371	59.92
831.756	59.55
832.141	59.25
832.526	58.92
832.911	58.67
833.295	58.44
833.68	58.21
834.065	58
834.449	57.71
834.834	57.4
835.218	57.05
835.603	56.69
835.987	56.37
836.371	56.04
836.755	55.68
837.139	55.31
837.524	54.92
837.908	54.55
838.291	54.17
838.675	53.87
839.059	53.51
839.443	53.16
839.827	52.77
840.21	52.42
840.594	52.03
840.977	51.69
841.361	51.36
841.744	51.09
842.127	50.79
842.511	50.45
842.894	50.1
843.277	49.81
843.66	49.52
844.043	49.28
844.426	48.99
844.809	48.72
845.191	48.35
845.574	47.9
845.957	47.33
846.339	46.82
846.722	46.41
847.104	46
847.487	45.62
847.869	45.25
848.252	44.85
848.634	44.51
849.016	44.12
849.398	43.71
849.78	43.24
850.162	42.72
850.544	42.19
850.926	41.67
851.307	41.25
851.689	40.84
852.071	40.48
852.452	40.18
852.834	39.84
853.215	39.6
853.597	39.46
853.978	39.49
854.359	39.65
854.741	39.83
855.122	39.93
855.503	39.93
855.884	39.88
856.265	39.79
856.646	39.65
857.026	39.49
857.407	39.3
857.788	39.13
858.169	38.94
858.549	38.73
858.93	38.52
859.31	38.31
859.69	38.11
860.071	37.91
860.451	37.71
860.831	37.48
861.211	37.22
861.591	36.9
861.971	36.46
862.351	35.97
862.731	35.48
863.111	35.07
863.491	34.68
863.87	34.32
864.25	33.98
864.629	33.64
865.009	33.35
865.388	33.11
865.768	32.96
866.147	32.94
866.526	32.98
866.905	33.04
867.284	33.04
867.663	33
868.042	32.94
868.421	32.87
868.8	32.83
869.179	32.76
869.558	32.67
869.936	32.58
870.315	32.48
870.693	32.36
871.072	32.21
871.45	32.07
871.828	31.94
872.207	31.83
872.585	31.71
872.963	31.57
873.341	31.44
873.719	31.35
874.097	31.26
874.475	31.14
874.853	31.02
875.23	30.91
875.608	30.77
875.986	30.65
876.363	30.49
876.741	30.33
877.118	30.17
877.495	30.01
877.873	29.83
878.25	29.66
878.627	29.51
879.004	29.39
879.381	29.24
879.758	29.09
880.135	28.94
880.512	28.84
880.889	28.73
881.265	28.64
881.642	28.53
882.019	28.39
882.395	28.26
882.772	28.11
883.148	27.92
883.524	27.79
883.901	27.66
884.277	27.54
884.653	27.42
885.029	27.27
885.405	27.11
885.781	26.96
886.157	26.88
886.532	26.78
886.908	26.68
887.284	26.6
887.659	26.5
888.035	26.39
888.411	26.24
888.786	26.09
889.161	25.96
889.537	25.83
889.912	25.68
890.287	25.51
890.662	25.31
891.037	25.1
891.412	24.87
891.787	24.62
892.162	24.38
892.536	24.13
892.911	23.84
893.286	23.56
893.66	23.27
894.035	22.97
894.409	22.68
894.784	22.36
895.158	22.02
895.532	21.7
895.906	21.43
896.281	21.15
896.655	20.89
897.029	20.65
897.402	20.43
897.776	20.22
898.15	20.04
898.524	19.86
898.898	19.78
899.271	19.77
899.645	19.79
900.018	19.82
900.392	19.9
900.765	20.02
901.138	20.15
901.511	20.3
901.884	20.46
902.258	20.59
902.631	20.73
903.003	20.8
903.376	20.82
903.749	20.8
904.122	20.73
904.495	20.6
904.867	20.43
905.24	20.27
905.612	20.05
905.985	19.84
906.357	19.63
906.729	19.45
907.102	19.28
907.474	19.16
907.846	19.03
908.218	18.93
908.59	18.86
908.962	18.83
909.334	18.78
909.705	18.74
910.077	18.69
910.449	18.67
910.82	18.66
911.192	18.62
911.563	18.56
911.935	18.48
912.306	18.4
912.677	18.35
913.048	18.26
913.419	18.2
913.79	18.16
914.161	18.1
914.532	18.05
914.903	18.01
915.274	18
915.645	18.01
916.015	18.06
916.386	18.1
916.756	18.1
917.127	18.16
917.497	18.22
917.868	18.28
918.238	18.35
918.608	18.4
918.978	18.42
919.348	18.42
919.718	18.43
920.088	18.42
920.458	18.42
920.828	18.42
921.198	18.39
921.567	18.35
921.937	18.31
922.306	18.25
922.676	18.19
923.045	18.15
923.415	18.12
923.784	18.04
924.153	18
924.522	17.96
924.891	17.88
925.26	17.8
925.629	17.64
925.998	17.52
926.367	17.36
926.736	17.2
927.104	16.97
927.473	16.7
927.842	16.41
928.21	16.05
928.578	15.66
928.947	15.26
929.315	14.86
929.683	14.45
930.051	14.03
930.42	13.59
930.788	13.14
931.156	12.74
931.523	12.38
931.891	12.03
932.259	11.79
932.627	11.56
932.994	11.42
933.362	11.3
933.729	11.2
934.097	11.15
934.464	11.21
934.831	11.33
935.199	11.47
935.566	11.71
935.933	11.98
936.3	12.27
936.667	12.67
937.034	13.07
937.401	13.43
937.767	13.97
938.134	14.47
938.501	15
938.867	15.55
939.234	16.05
939.6	16.44
939.967	16.89
940.333	17.2
940.699	17.46
941.065	17.58
941.431	17.74
941.798	17.86
942.163	17.93
942.529	17.91
942.895	17.84
943.261	17.79
943.627	17.73
943.992	17.6
944.358	17.5
944.723	17.38
945.089	17.3
945.454	17.29
945.82	17.15
946.185	17.06
946.55	17.03
946.915	16.98
947.28	16.82
947.645	16.76
948.01	16.64
948.375	16.61
948.74	16.55
949.104	16.46
949.469	16.32
949.834	16.17
950.198	16.05
950.562	15.91
950.927	15.78
951.291	15.71
951.655	15.54
952.02	15.43
952.384	15.3
952.748	15.11
953.112	15.02
953.476	14.89
953.839	14.83
954.203	14.72
954.567	14.61
954.931	14.54
955.294	14.49
955.658	14.42
956.021	14.37
956.385	14.29
956.748	14.31
957.111	14.26
957.474	14.27
957.837	14.24
958.2	14.24
958.563	14.23
958.926	14.21
959.289	14.14
959.652	14.18
960.015	14.18
960.377	14.24
960.74	14.22
961.102	14.23
961.465	14.26
961.827	14.29
962.189	14.29
962.552	14.28
962.914	14.29
963.276	14.34
963.638	14.33
964	14.33
964.362	14.38
964.724	14.45
965.085	14.53
965.447	14.59
965.809	14.6
966.17	14.75
966.532	14.86
966.893	14.97
967.255	15.13
967.616	15.26
967.977	15.39
968.338	15.45
968.699	15.6
969.061	15.67
969.421	15.81
969.782	15.96
970.143	16
970.504	16.04
970.865	16.02
971.225	16.03
971.586	16.04
971.946	16.09
972.307	16.04
972.667	15.98
973.027	16.01
973.388	15.93
973.748	15.87
974.108	15.86
974.468	15.82
974.828	15.89
975.188	15.89
975.548	15.88
975.907	15.92
976.267	16.03
976.627	16.1
976.986	16.12
977.346	16.18
977.705	16.23
978.064	16.29
978.424	16.39
978.783	16.41
979.142	16.47
979.501	16.61
979.86	16.59
980.219	16.59
980.578	16.65
980.937	16.71
981.296	16.71
981.654	16.83
982.013	16.89
982.371	17.02
982.73	17.13
983.088	17.27
983.447	17.27
983.805	17.41
984.163	17.49
984.521	17.56
984.879	17.77
985.237	18.02
985.595	18.13
985.953	18.27
986.311	18.31
986.669	18.38
987.026	18.39
987.384	18.59
987.741	18.75
988.099	18.89
988.456	19
988.814	19.01
989.171	18.94
989.528	19.03
989.885	18.98
990.242	19.16
990.599	19.31
990.956	19.46
991.313	19.49
991.67	19.59
992.027	19.84
992.383	19.91
992.74	19.95
993.096	20.09
993.453	20.26
993.809	20.45
994.165	20.54
994.522	20.71
994.878	20.86
995.234	20.98
995.59	20.92
995.946	20.95
996.302	21.08
996.658	21.34
997.013	21.59
997.369	21.61
997.725	21.74
998.08	21.74
998.436	21.81
998.791	21.81
999.147	22
999.502	22.28
999.857	22.38
1000.212	22.44
1000.567	22.5
1000.922	22.48
1001.277	22.54
1001.632	22.7
1001.987	22.85
1002.342	22.95
1002.696	22.97
1003.051	22.97
1003.406	23.02
1003.76	23.11
1004.114	23.31
1004.469	23.39
1004.823	23.61
1005.177	23.91
1005.531	24.03
1005.885	24.35
1006.239	24.39
1006.593	24.65
1006.947	24.92
1007.301	25.1
1007.655	25.3
1008.008	25.59
1008.362	25.82
1008.715	26
1009.069	26.13
1009.422	26.32
1009.776	26.45
1010.129	26.82
1010.482	27.22
1010.835	27.47
1011.188	27.42
1011.541	27.51
1011.894	27.59
1012.247	27.84
1012.6	28.07
1012.952	28.42
1013.305	28.49
1013.657	28.93
1014.01	29.25
1014.362	29.37
1014.715	29.72
1015.067	30.56
1015.419	31.14
1015.771	31.57
1016.123	31.76
1016.475	32.08
1016.827	32.6
1017.179	33.16
1017.531	33.07
1017.883	33.35
1018.234	33.8
1018.586	33.97
1018.938	34
1019.289	34.11
1019.64	34.56
1019.992	34.8
1020.343	35.12
1020.694	35.18
1021.045	35.43
1021.396	35.96
1021.747	36.5
1022.098	36.91
1022.449	37.37
1022.8	37.81
1023.151	38.26
1023.501	38.58
1023.852	39.1
1024.202	39.53
1024.553	40.04
1024.903	40.5
1025.253	41.26
1025.604	41.44
1025.954	41.68
1026.304	42.22
1026.654	42.61
1027.004	43.4
1027.354	43.7
1027.703	44.37
1028.053	44.93
1028.403	45.14
1028.753	45.74
1029.102	45.92
1029.452	46.28
1029.801	46.72
1030.15	46.83
1030.499	47.25
897.758	586.4
901.051	595.51
904.343	597.87
907.636	590.22
910.928	577.4
914.22	586.95
917.511	579.47
920.803	552.5
924.094	531.35
927.384	534.01
930.675	515.85
933.965	507.81
937.255	505.75
940.544	485.48
943.834	459.95
947.123	454.82
950.411	434.6
953.7	424.46
956.988	414.09
960.276	395
963.563	388.16
966.851	371.59
970.138	364.18
973.424	339.63
976.711	333.24
979.997	324.17
983.283	318.05
986.568	305.46
989.853	296.67
993.138	287.96
996.423	283.08
999.708	275.31
1002.992	272.58
1006.275	263.76
1009.559	263.25
1012.842	255.44
1016.125	246.51
1019.408	240.78
1022.69	239.32
1025.972	237.79
1029.254	229.72
1032.536	226.05
1035.817	218.68
1039.098	216.69
1042.379	212.41
1045.659	208.65
1048.939	206.67
1052.219	203.85
1055.498	200.87
1058.778	196.81
1062.057	193.49
1065.335	193.34
1068.614	188.39
1071.892	186.51
1075.17	182.36
1078.447	181.27
1081.724	179.32
1085.001	176.65
1088.278	174.26
1091.554	174.6
1094.83	172.91
1098.106	169.25
1101.382	168.87
1104.657	168.7
1107.932	167.11
1111.206	166.2
1114.481	164.11
1117.755	162.94
1121.029	162.09
1124.302	161.36
1127.575	157.46
1130.848	157.28
1134.121	154.88
1137.393	153.62
1140.665	152.68
1143.937	151.28
1147.208	147.87
1150.48	146.54
1153.75	145.39
1157.021	144.09
1160.291	143.96
1163.561	142.95
1166.831	141.33
1170.101	141.99
1173.37	141.06
1176.639	140
1179.907	140.06
1183.176	140.98
1186.444	141.34
1189.711	140.24
1192.979	141.12
1196.246	140.73
1199.513	140.26
1202.78	141.41
1206.046	141.1
1209.312	141.31
1212.578	141.87
1215.843	144.27
1219.108	144.66
1222.373	146.71
1225.638	149.55
1228.902	152.4
1232.166	157.29
1235.43	159.34
1238.693	162.75
1241.956	166.53
1245.219	171.96
1248.482	173.22
1251.744	171.91
1255.006	174.26
1258.268	169.61
1261.529	168.12
1264.79	164.23
1268.051	160.47
1271.312	159.31
1274.572	156.61
1277.832	152.12
1281.092	150.89
1284.351	147.9
1287.61	147.95
1290.869	145.72
1294.128	145.27
1297.386	144.52
1300.644	144.18
1303.902	143.78
1307.159	142.53
1310.416	143.18
1313.673	146.05
1316.93	145.76
1320.186	148.45
1323.442	149.29
1326.697	152.98
1329.953	154.53
1333.208	159.82
1336.463	166.39
1339.717	169.32
1342.972	178.32
1346.226	184.09
1349.479	185.38
1352.733	193.9
1355.986	196.7
1359.238	202.39
1362.491	203.77
1365.743	211.25
1368.995	211.56
1372.247	211.49
1375.498	210.52
1378.749	218.5
1382	215.95
1385.251	215.46
1388.501	213.95
1391.751	218.42
1395	217.43
1398.25	218.64
1401.499	217.08
1404.748	217.96
1407.996	211.63
1411.244	213.11
1414.492	207.45
1417.74	201.75
1420.987	197.38
1424.234	194.32
1427.481	186.3
1430.728	181.76
1433.974	176.53
1437.22	170.28
1440.465	164.24
1443.711	160.04
1446.956	154.81
1450.201	149.63
1453.445	143.22
1456.689	138.76
1459.933	133.86
1463.177	128.51
1466.42	124.67
1469.663	120.75
1472.906	117.54
1476.148	113.5
1479.391	111.39
1482.633	109.29
1485.874	107.21
1489.115	106.6
1492.356	104.37
1495.597	102.88
1498.838	102.17
1502.078	101.47
1505.318	101.01
1508.557	100.46
1511.797	99.96
1515.036	99.86
1518.274	98.97
1521.513	97.53
1524.751	96.88
1527.989	98.06
1531.227	97.8
1534.464	97.83
1537.701	96.89
1540.938	96.49
1544.174	96.28
1547.41	96.9
1550.646	95.76
1553.882	96.56
1557.117	95.94
1560.352	95.72
1563.587	94.85
1566.821	94.86
1570.055	94.45
1573.289	94.43
1576.523	94.54
1579.756	94.05
1582.989	93.68
1586.222	93.7
1589.454	93.19
1592.686	93.33
1595.918	93.32
1599.15	93.09
1602.381	92.93
1605.612	93.19
1608.843	92.97
1612.073	92.96
1615.303	93.26
1618.533	93.1
1621.762	93.06
1624.992	93.52
1628.221	93.58
1631.449	94.12
1634.678	93.92
1637.906	94.21
1641.134	94.01
1644.361	94.08
1647.588	93.8
1650.815	94
1654.042	94.34
1657.269	94.14
1660.495	94.32
1663.72	94.38
1666.946	94.19
1670.171	94.83
1673.396	94.83
1676.621	95.58
1679.845	96.09
1683.069	96.07
1686.293	95.84
1689.517	96.12
1692.74	96.69
1695.963	96.75
1699.185	97.15
1702.408	97.61
1705.63	97.3
1708.852	98.49
1712.073	97.15
1715.294	97.15
1718.515	97.6
1721.736	98.33
1724.956	97.46
1728.176	97.45
1731.396	97.93
1734.616	98.08
1737.835	97.62
1741.054	97.76
1744.272	97.28
1747.491	98.22
1750.709	98.24
1753.927	98.76
1757.144	98.28
1760.361	98.86
1763.578	99.81
1766.795	99.74
1770.011	100.51
1773.227	101.22
1776.443	101.84
1779.658	101.96
1782.874	102.25
1786.089	102.96
1789.303	103.12
1792.518	105.06
1795.732	105.87
1798.945	106.47
1802.159	106.57
1805.372	107.75
1808.585	108.41
1811.797	109.1
1815.01	109.83
1818.222	111.14
1821.434	112.31
1824.645	112.96
1827.856	113.48
1831.067	113.73
1834.278	115.7
1837.488	116.02
1840.698	116.52
1843.908	116.63
1847.117	118.3
1850.326	119.37
1853.535	119.9
1856.744	120.16
1859.952	121.8
1863.16	121.71
1866.368	122.39
1869.575	122.22
1872.782	122.3
1875.989	121.97
1879.196	122.07
1882.402	120.59
1885.608	121.24
1888.814	120.89
1892.019	121.29
1895.224	119.39
1898.429	120.71
1901.634	121.05
1904.838	120.39
1908.042	122.01
1911.246	122
1914.449	122.47
1917.652	123.25
1920.855	123.74
1924.058	123.17
1927.26	123.66
1930.462	124.25
1933.664	123.95
1936.865	123.6
1940.066	123.12
1943.267	121.85
1946.467	122.5
1949.668	121.88
1952.868	122.47
1956.067	121.38
1959.267	122.93
1962.466	123.41
1965.665	123.87
1968.863	124.35
1972.061	125.28
1975.259	128.05
1978.457	128.76
1981.654	128.93
1984.852	130.87
1988.048	131.84
1991.245	135.35
1994.441	136.72
1997.637	139.06
2000.833	142.3
2004.028	143.7
2007.223	148.29
2010.418	151.48
2013.613	159.72
2016.807	165.29
2020.001	167.51
2023.194	172.71
2026.388	176.98
2029.581	186.98
2032.774	193.24
2035.966	198.68
2039.158	204.47
2042.35	208.17
2045.542	210.93
2048.733	217
2051.924	219.75
2055.115	224.93
2058.306	226.77
2061.496	231.2
2064.686	227.08
2067.875	227.13
2071.065	230.02
2074.254	230.75
2077.442	237.71
2080.631	240.23
2083.819	240.96
2087.007	243.88
2090.195	247.73
2093.382	247.26
2096.569	246.87
2099.756	253.74
2102.942	258.81
2106.128	264.78
2109.314	266.13
2112.5	265
2115.685	265.19
2118.87	265.72
2122.055	267.31
2125.239	272.04
2128.424	280.63
2131.608	278.69
2134.791	277.79
2137.974	278.86
2141.157	281.97
2144.34	285.95
2147.523	289.03
2150.705	295.38
2153.887	291.33
2157.068	295.93
2160.25	297.57
2163.431	295.45
2166.611	301.2
2169.792	309.76
2172.972	312.78
2176.152	311.25
2179.331	319.08
2182.511	319.15
2185.69	321.4
2188.868	337.07
2192.047	344.08
2195.225	348.43
2198.403	354.95
2201.58	351.31
2204.758	363.94
2207.935	365.31
2211.111	375.76
2214.288	375.72
2217.464	380.12
2220.64	386.94
2223.815	385.57
2226.991	384.93
2230.166	387.77
2233.34	399.13
2236.515	410.84
2239.689	398.27
2242.863	409.73
2246.036	401.18
2249.209	413.54
2252.382	413.94
2255.555	426.2
2258.727	429.8
2261.9	435.67
2265.071	443.63
2268.243	439.27
2271.414	450.74
2274.585	465.45
2277.756	464.58
2280.926	480.2
2284.096	479.01
2287.266	481.2
2290.436	469.24
2293.605	481.19
2296.774	501.45
2299.942	501.53
2303.111	517.33
2306.279	526.32
2309.447	526.32
2312.614	526.79
2315.781	543.95
2318.948	549.37
2322.115	562.41
2325.281	590.82
2328.447	586.3
2331.613	589.69
2334.779	598.46
2337.944	602.8
2341.109	616.17
2344.274	623.86
2347.438	642.16
2350.602	650.12
2353.766	687.49
2356.929	690.12
2360.092	703.85
2363.255	705.16
2366.418	711.49
2369.58	727.62
2372.742	729.28
2375.904	725.34
2379.066	744.04
2382.227	790.52
2385.388	790.83
2388.548	752.84
2391.709	744.43
2394.869	765.34
2398.029	773.77
2401.188	773.3
2404.347	794.24
2407.506	826.21
2410.665	793
2413.823	791.74
2416.981	791.82
2420.139	751
2423.296	812.19
2426.453	867.31
2429.61	831.9
2432.767	882.2
2435.923	916.48
2439.079	882.11
2442.235	899
2445.391	925.17
2448.546	922.79
2451.701	965.91
2454.855	1034.31
2458.009	912.01
2461.163	929.33
2464.317	930.63
2467.471	910.87
2470.624	947.69
2473.777	938.25
2476.929	905.86
2480.082	968.89
2483.234	1017.03
2486.385	1031.62
2489.537	1055.96
2492.688	1176.37
2495.839	1147.87
2498.989	1177.65
2502.14	1186.47
2505.29	1120.69
2508.439	1238.8
2511.589	1282.76
2514.738	1239.54
2517.887	1228.89
2521.035	1154.07
2524.183	1129.33
2527.331	1113.37
2530.479	1087.54
2533.627	1121.65
