Data from c_1_hir_wi_4n_043_Splice17_11.txt Node
Date: Sat Feb 29 13:29:27 EST 2020
User: sa697716
Spectrometer: FLMS03696
Trigger mode: 0
Integration Time (sec): 3.180400E-1
Scans to average: 20
Electric dark correction enabled: true
Nonlinearity correction enabled: true
Boxcar width: 5
XAxis mode: Wavelengths
Number of Pixels in Spectrum: 2048
>>>>>Begin Spectral Data<<<<<
187.83	89.35
188.298	104.67
188.766	89.71
189.233	85.37
189.701	83.05
190.169	79.65
190.636	84.32
191.104	113.05
191.571	356.94
192.039	335.61
192.506	-283.24
192.974	-298.01
193.441	116.01
193.908	43.05
194.375	75.17
194.842	98.54
195.31	80.98
195.777	140.29
196.244	114.68
196.711	96.33
197.177	94.5
197.644	92.48
198.111	91.83
198.578	92.59
199.045	93.74
199.511	94
199.978	93.9
200.445	93.62
200.911	93.58
201.378	93.44
201.844	94.29
202.31	94.59
202.777	94.62
203.243	95.13
203.709	94.91
204.176	93.84
204.642	93.03
205.108	92.62
205.574	92.58
206.04	92.05
206.506	91.61
206.972	90.22
207.438	89.22
207.903	87.87
208.369	85.71
208.835	84.58
209.301	83.33
209.766	81.17
210.232	79.27
210.697	77.32
211.163	75.04
211.628	73.48
212.094	72.14
212.559	70.63
213.024	69.08
213.49	67.41
213.955	65.39
214.42	63.31
214.885	61.16
215.35	58.22
215.815	54.5
216.28	50.91
216.745	46.16
217.21	41.33
217.675	36.75
218.14	32.79
218.604	29.33
219.069	26.33
219.534	23.87
219.998	21.73
220.463	20.09
220.927	18.62
221.392	17.37
221.856	16.33
222.32	15.54
222.785	14.81
223.249	14.15
223.713	13.66
224.177	13.13
224.642	12.64
225.106	12.21
225.57	11.76
226.034	11.4
226.497	11
226.961	10.66
227.425	10.28
227.889	9.97
228.353	9.7
228.816	9.42
229.28	9.15
229.744	8.93
230.207	8.73
230.671	8.56
231.134	8.35
231.597	8.18
232.061	8.05
232.524	7.92
232.987	7.77
233.45	7.63
233.914	7.52
234.377	7.43
234.84	7.32
235.303	7.22
235.766	7.12
236.229	7.04
236.691	6.99
237.154	6.91
237.617	6.84
238.08	6.78
238.542	6.71
239.005	6.63
239.468	6.54
239.93	6.48
240.393	6.41
240.855	6.33
241.317	6.26
241.78	6.18
242.242	6.09
242.704	6.03
243.166	5.97
243.629	5.91
244.091	5.85
244.553	5.8
245.015	5.74
245.477	5.66
245.939	5.6
246.4	5.54
246.862	5.48
247.324	5.44
247.786	5.38
248.247	5.33
248.709	5.27
249.17	5.22
249.632	5.18
250.093	5.12
250.555	5.08
251.016	5.04
251.477	4.99
251.939	4.95
252.4	4.91
252.861	4.87
253.322	4.83
253.783	4.79
254.244	4.76
254.705	4.7
255.166	4.68
255.627	4.65
256.088	4.6
256.549	4.56
257.009	4.51
257.47	4.47
257.931	4.42
258.391	4.36
258.852	4.3
259.312	4.26
259.773	4.22
260.233	4.16
260.694	4.11
261.154	4.07
261.614	4.02
262.074	3.99
262.534	3.94
262.994	3.9
263.455	3.87
263.915	3.84
264.374	3.8
264.834	3.76
265.294	3.73
265.754	3.69
266.214	3.67
266.673	3.64
267.133	3.61
267.593	3.59
268.052	3.56
268.512	3.54
268.971	3.52
269.431	3.51
269.89	3.49
270.349	3.48
270.809	3.47
271.268	3.47
271.727	3.45
272.186	3.44
272.645	3.43
273.104	3.43
273.563	3.41
274.022	3.4
274.481	3.39
274.94	3.38
275.399	3.37
275.857	3.36
276.316	3.35
276.775	3.33
277.233	3.32
277.692	3.32
278.15	3.31
278.609	3.3
279.067	3.3
279.525	3.3
279.984	3.3
280.442	3.29
280.9	3.29
281.358	3.29
281.816	3.3
282.274	3.3
282.732	3.3
283.19	3.3
283.648	3.3
284.106	3.3
284.564	3.31
285.021	3.31
285.479	3.32
285.937	3.31
286.394	3.3
286.852	3.29
287.309	3.28
287.767	3.27
288.224	3.26
288.682	3.24
289.139	3.23
289.596	3.2
290.053	3.18
290.511	3.15
290.968	3.13
291.425	3.11
291.882	3.1
292.339	3.08
292.796	3.06
293.252	3.04
293.709	3.02
294.166	3
294.623	2.98
295.079	2.98
295.536	2.97
295.992	2.96
296.449	2.96
296.905	2.94
297.362	2.93
297.818	2.92
298.274	2.91
298.731	2.91
299.187	2.91
299.643	2.91
300.099	2.91
300.555	2.89
301.011	2.89
301.467	2.88
301.923	2.87
302.379	2.87
302.835	2.87
303.291	2.87
303.746	2.86
304.202	2.86
304.658	2.86
305.113	2.86
305.569	2.87
306.024	2.87
306.479	2.87
306.935	2.88
307.39	2.89
307.845	2.89
308.301	2.9
308.756	2.91
309.211	2.92
309.666	2.93
310.121	2.92
310.576	2.92
311.031	2.93
311.486	2.93
311.94	2.93
312.395	2.93
312.85	2.93
313.305	2.94
313.759	2.94
314.214	2.95
314.668	2.95
315.123	2.95
315.577	2.95
316.032	2.95
316.486	2.94
316.94	2.95
317.394	2.94
317.849	2.93
318.303	2.92
318.757	2.9
319.211	2.87
319.665	2.86
320.119	2.86
320.572	2.85
321.026	2.85
321.48	2.84
321.934	2.82
322.387	2.82
322.841	2.81
323.295	2.82
323.748	2.82
324.202	2.83
324.655	2.82
325.108	2.82
325.562	2.81
326.015	2.8
326.468	2.8
326.921	2.8
327.374	2.81
327.827	2.81
328.28	2.8
328.733	2.79
329.186	2.79
329.639	2.79
330.092	2.79
330.545	2.79
330.997	2.8
331.45	2.8
331.903	2.81
332.355	2.82
332.808	2.82
333.26	2.83
333.713	2.85
334.165	2.86
334.617	2.87
335.069	2.88
335.522	2.89
335.974	2.89
336.426	2.9
336.878	2.91
337.33	2.91
337.782	2.91
338.234	2.91
338.686	2.89
339.137	2.9
339.589	2.89
340.041	2.88
340.493	2.87
340.944	2.86
341.396	2.86
341.847	2.84
342.299	2.82
342.75	2.8
343.201	2.78
343.653	2.78
344.104	2.76
344.555	2.75
345.006	2.73
345.457	2.72
345.908	2.71
346.359	2.71
346.81	2.71
347.261	2.69
347.712	2.69
348.163	2.69
348.613	2.68
349.064	2.67
349.515	2.66
349.965	2.66
350.416	2.67
350.866	2.66
351.317	2.66
351.767	2.65
352.217	2.66
352.668	2.65
353.118	2.66
353.568	2.67
354.018	2.69
354.468	2.69
354.918	2.7
355.368	2.7
355.818	2.7
356.268	2.7
356.718	2.71
357.168	2.71
357.617	2.72
358.067	2.71
358.517	2.72
358.966	2.73
359.416	2.74
359.865	2.73
360.315	2.74
360.764	2.74
361.213	2.74
361.663	2.74
362.112	2.75
362.561	2.75
363.01	2.76
363.459	2.75
363.908	2.73
364.357	2.74
364.806	2.74
365.255	2.74
365.703	2.75
366.152	2.76
366.601	2.77
367.05	2.76
367.498	2.77
367.947	2.77
368.395	2.78
368.844	2.78
369.292	2.77
369.74	2.78
370.189	2.77
370.637	2.76
371.085	2.77
371.533	2.76
371.981	2.77
372.429	2.76
372.877	2.75
373.325	2.75
373.773	2.76
374.221	2.76
374.669	2.75
375.116	2.75
375.564	2.76
376.012	2.75
376.459	2.76
376.907	2.77
377.354	2.77
377.801	2.79
378.249	2.8
378.696	2.8
379.143	2.82
379.591	2.82
380.038	2.84
380.485	2.86
380.932	2.87
381.379	2.87
381.826	2.88
382.273	2.89
382.72	2.9
383.166	2.92
383.613	2.93
384.06	2.93
384.506	2.94
384.953	2.94
385.4	2.94
385.846	2.95
386.292	2.97
386.739	2.97
387.185	2.99
387.631	3.01
388.078	3.03
388.524	3.01
388.97	3.02
389.416	3.03
389.862	3.06
390.308	3.07
390.754	3.1
391.2	3.12
391.645	3.14
392.091	3.15
392.537	3.16
392.983	3.17
393.428	3.21
393.874	3.23
394.319	3.25
394.765	3.26
395.21	3.28
395.655	3.29
396.101	3.31
396.546	3.32
396.991	3.34
397.436	3.35
397.881	3.38
398.326	3.42
398.771	3.46
399.216	3.49
399.661	3.52
400.106	3.55
400.551	3.56
400.995	3.57
401.44	3.59
401.885	3.6
402.329	3.63
402.774	3.63
403.218	3.64
403.663	3.64
404.107	3.65
404.551	3.68
404.995	3.68
405.44	3.7
405.884	3.72
406.328	3.75
406.772	3.78
407.216	3.8
407.66	3.82
408.104	3.83
408.547	3.85
408.991	3.87
409.435	3.87
409.879	3.91
410.322	3.94
410.766	3.96
411.209	3.98
411.653	3.99
412.096	4.01
412.54	4.04
412.983	4.07
413.426	4.11
413.869	4.14
414.312	4.18
414.756	4.21
415.199	4.25
415.642	4.3
416.085	4.32
416.527	4.35
416.97	4.36
417.413	4.36
417.856	4.35
418.298	4.34
418.741	4.35
419.184	4.35
419.626	4.34
420.069	4.33
420.511	4.32
420.953	4.32
421.396	4.35
421.838	4.38
422.28	4.41
422.722	4.45
423.164	4.48
423.606	4.49
424.048	4.49
424.49	4.51
424.932	4.52
425.374	4.53
425.816	4.53
426.258	4.51
426.699	4.49
427.141	4.47
427.582	4.46
428.024	4.47
428.465	4.48
428.907	4.5
429.348	4.5
429.789	4.51
430.231	4.51
430.672	4.54
431.113	4.57
431.554	4.59
431.995	4.62
432.436	4.63
432.877	4.64
433.318	4.66
433.759	4.68
434.2	4.71
434.64	4.73
435.081	4.75
435.522	4.79
435.962	4.81
436.403	4.84
436.843	4.84
437.284	4.86
437.724	4.9
438.164	4.9
438.604	4.92
439.045	4.93
439.485	4.92
439.925	4.93
440.365	4.92
440.805	4.91
441.245	4.9
441.685	4.94
442.125	4.94
442.564	4.94
443.004	4.96
443.444	4.97
443.883	4.98
444.323	4.98
444.762	5
445.202	5.03
445.641	5.06
446.081	5.1
446.52	5.07
446.959	5.09
447.398	5.14
447.837	5.18
448.276	5.18
448.716	5.18
449.154	5.21
449.593	5.23
450.032	5.23
450.471	5.23
450.91	5.21
451.349	5.21
451.787	5.18
452.226	5.13
452.664	5.09
453.103	5.06
453.541	5.04
453.98	5.02
454.418	4.97
454.856	4.93
455.295	4.9
455.733	4.88
456.171	4.86
456.609	4.87
457.047	4.86
457.485	4.85
457.923	4.85
458.361	4.84
458.798	4.85
459.236	4.85
459.674	4.86
460.111	4.88
460.549	4.89
460.987	4.89
461.424	4.88
461.862	4.89
462.299	4.9
462.736	4.9
463.173	4.9
463.611	4.9
464.048	4.92
464.485	4.93
464.922	4.92
465.359	4.93
465.796	4.95
466.233	4.98
466.67	5
467.106	4.98
467.543	5
467.98	5.01
468.416	5
468.853	4.99
469.29	4.97
469.726	4.97
470.162	4.95
470.599	4.93
471.035	4.92
471.471	4.89
471.907	4.9
472.344	4.88
472.78	4.86
473.216	4.85
473.652	4.84
474.088	4.84
474.523	4.83
474.959	4.81
475.395	4.78
475.831	4.77
476.266	4.76
476.702	4.74
477.138	4.71
477.573	4.69
478.008	4.68
478.444	4.65
478.879	4.63
479.314	4.61
479.75	4.6
480.185	4.58
480.62	4.56
481.055	4.54
481.49	4.52
481.925	4.5
482.36	4.49
482.795	4.48
483.229	4.47
483.664	4.46
484.099	4.45
484.534	4.42
484.968	4.4
485.403	4.39
485.837	4.38
486.271	4.37
486.706	4.36
487.14	4.36
487.574	4.35
488.009	4.36
488.443	4.36
488.877	4.37
489.311	4.38
489.745	4.39
490.179	4.39
490.613	4.4
491.046	4.41
491.48	4.43
491.914	4.44
492.348	4.44
492.781	4.45
493.215	4.46
493.648	4.48
494.082	4.52
494.515	4.54
494.948	4.57
495.382	4.6
495.815	4.62
496.248	4.65
496.681	4.68
497.114	4.72
497.547	4.76
497.98	4.79
498.413	4.82
498.846	4.85
499.279	4.89
499.711	4.93
500.144	4.98
500.577	5.03
501.009	5.08
501.442	5.15
501.874	5.21
502.306	5.27
502.739	5.33
503.171	5.4
503.603	5.48
504.036	5.56
504.468	5.65
504.9	5.74
505.332	5.84
505.764	5.95
506.196	6.05
506.627	6.14
507.059	6.26
507.491	6.39
507.923	6.5
508.354	6.63
508.786	6.76
509.217	6.88
509.649	7.02
510.08	7.16
510.512	7.3
510.943	7.46
511.374	7.64
511.805	7.8
512.237	7.96
512.668	8.14
513.099	8.33
513.53	8.51
513.961	8.73
514.391	8.92
514.822	9.12
515.253	9.33
515.684	9.53
516.114	9.75
516.545	9.97
516.975	10.2
517.406	10.44
517.836	10.65
518.267	10.89
518.697	11.13
519.127	11.38
519.558	11.59
519.988	11.83
520.418	12.06
520.848	12.29
521.278	12.53
521.708	12.84
522.138	13.05
522.567	13.28
522.997	13.5
523.427	13.72
523.857	13.93
524.286	14.14
524.716	14.34
525.145	14.56
525.575	14.75
526.004	14.93
526.433	15.04
526.863	15.24
527.292	15.42
527.721	15.59
528.15	15.74
528.579	15.92
529.008	16.08
529.437	16.23
529.866	16.36
530.295	16.52
530.724	16.67
531.152	16.78
531.581	16.92
532.01	17.03
532.438	17.14
532.867	17.26
533.295	17.34
533.723	17.46
534.152	17.55
534.58	17.64
535.008	17.7
535.436	17.76
535.865	17.81
536.293	17.86
536.721	17.92
537.149	17.99
537.576	18.04
538.004	18.1
538.432	18.13
538.86	18.17
539.287	18.22
539.715	18.27
540.143	18.32
540.57	18.36
540.998	18.4
541.425	18.43
541.852	18.46
542.28	18.47
542.707	18.49
543.134	18.54
543.561	18.54
543.988	18.56
544.415	18.6
544.842	18.62
545.269	18.65
545.696	18.67
546.123	18.71
546.549	18.74
546.976	18.79
547.403	18.8
547.829	18.82
548.256	18.85
548.682	18.86
549.108	18.89
549.535	18.9
549.961	18.91
550.387	18.93
550.813	18.92
551.24	18.91
551.666	18.92
552.092	18.91
552.518	18.87
552.943	18.86
553.369	18.85
553.795	18.83
554.221	18.79
554.646	18.76
555.072	18.73
555.498	18.69
555.923	18.65
556.349	18.6
556.774	18.55
557.199	18.49
557.625	18.42
558.05	18.35
558.475	18.26
558.9	18.2
559.325	18.12
559.75	18.03
560.175	17.92
560.6	17.81
561.025	17.71
561.449	17.6
561.874	17.5
562.299	17.39
562.723	17.28
563.148	17.16
563.572	17.05
563.997	16.92
564.421	16.79
564.846	16.68
565.27	16.55
565.694	16.42
566.118	16.27
566.542	16.13
566.966	15.99
567.39	15.84
567.814	15.69
568.238	15.54
568.662	15.38
569.086	15.23
569.509	15.09
569.933	14.95
570.357	14.79
570.78	14.66
571.204	14.52
571.627	14.37
572.05	14.24
572.474	14.11
572.897	13.99
573.32	13.87
573.743	13.73
574.166	13.62
574.589	13.5
575.012	13.4
575.435	13.3
575.858	13.21
576.281	13.11
576.704	13.04
577.126	12.95
577.549	12.88
577.972	12.8
578.394	12.72
578.817	12.63
579.239	12.57
579.661	12.49
580.084	12.42
580.506	12.36
580.928	12.28
581.35	12.19
581.772	12.13
582.194	12.05
582.616	11.98
583.038	11.92
583.46	11.89
583.882	11.82
584.303	11.76
584.725	11.71
585.147	11.66
585.568	11.62
585.99	11.57
586.411	11.51
586.833	11.47
587.254	11.45
587.675	11.41
588.096	11.36
588.518	11.32
588.939	11.28
589.36	11.23
589.781	11.17
590.202	11.14
590.623	11.1
591.043	11.06
591.464	11.02
591.885	10.96
592.305	10.93
592.726	10.89
593.147	10.86
593.567	10.82
593.987	10.81
594.408	10.78
594.828	10.75
595.248	10.76
595.669	10.74
596.089	10.71
596.509	10.67
596.929	10.63
597.349	10.6
597.769	10.57
598.189	10.55
598.608	10.51
599.028	10.48
599.448	10.44
599.867	10.38
600.287	10.32
600.706	10.3
601.126	10.27
601.545	10.22
601.965	10.18
602.384	10.14
602.803	10.07
603.222	10.02
603.641	9.98
604.061	9.92
604.48	9.88
604.898	9.84
605.317	9.78
605.736	9.72
606.155	9.69
606.574	9.63
606.992	9.56
607.411	9.53
607.829	9.42
608.248	9.36
608.666	9.3
609.085	9.24
609.503	9.16
609.921	9.1
610.339	9.04
610.758	8.97
611.176	8.91
611.594	8.85
612.012	8.78
612.43	8.77
612.847	8.72
613.265	8.66
613.683	8.6
614.101	8.55
614.518	8.49
614.936	8.43
615.353	8.38
615.771	8.33
616.188	8.29
616.606	8.25
617.023	8.2
617.44	8.15
617.857	8.1
618.274	8.06
618.691	8.03
619.108	8.01
619.525	7.98
619.942	7.94
620.359	7.93
620.776	7.9
621.192	7.89
621.609	7.87
622.026	7.85
622.442	7.84
622.859	7.82
623.275	7.82
623.691	7.8
624.108	7.79
624.524	7.78
624.94	7.76
625.356	7.75
625.772	7.73
626.188	7.73
626.604	7.72
627.02	7.72
627.436	7.71
627.852	7.7
628.268	7.69
628.683	7.69
629.099	7.7
629.514	7.69
629.93	7.68
630.345	7.67
630.761	7.64
631.176	7.63
631.591	7.62
632.007	7.61
632.422	7.59
632.837	7.58
633.252	7.55
633.667	7.5
634.082	7.49
634.497	7.45
634.911	7.42
635.326	7.37
635.741	7.34
636.155	7.3
636.57	7.25
636.984	7.19
637.399	7.12
637.813	7.06
638.228	7.02
638.642	6.95
639.056	6.9
639.47	6.84
639.884	6.8
640.298	6.72
640.712	6.66
641.126	6.61
641.54	6.55
641.954	6.51
642.368	6.45
642.781	6.39
643.195	6.32
643.609	6.27
644.022	6.21
644.436	6.16
644.849	6.11
645.262	6.06
645.676	6.01
646.089	5.95
646.502	5.89
646.915	5.85
647.328	5.82
647.741	5.8
648.154	5.77
648.567	5.75
648.98	5.72
649.393	5.7
649.805	5.66
650.218	5.64
650.631	5.62
651.043	5.61
651.456	5.59
651.868	5.57
652.28	5.54
652.693	5.51
653.105	5.47
653.517	5.44
653.929	5.43
654.341	5.42
654.753	5.38
655.165	5.36
655.577	5.31
655.989	5.27
656.401	5.23
656.813	5.2
657.224	5.18
657.636	5.15
658.047	5.11
658.459	5.06
658.87	5.02
659.282	5
659.693	4.96
660.104	4.93
660.515	4.9
660.926	4.89
661.338	4.85
661.749	4.81
662.159	4.79
662.57	4.77
662.981	4.75
663.392	4.71
663.803	4.69
664.213	4.66
664.624	4.63
665.035	4.6
665.445	4.59
665.855	4.59
666.266	4.58
666.676	4.57
667.086	4.55
667.497	4.55
667.907	4.54
668.317	4.53
668.727	4.53
669.137	4.55
669.547	4.55
669.956	4.55
670.366	4.55
670.776	4.55
671.186	4.55
671.595	4.56
672.005	4.58
672.414	4.59
672.824	4.62
673.233	4.63
673.642	4.64
674.052	4.66
674.461	4.68
674.87	4.7
675.279	4.73
675.688	4.75
676.097	4.78
676.506	4.79
676.915	4.83
677.323	4.85
677.732	4.88
678.141	4.91
678.549	4.96
678.958	5
679.366	5.03
679.775	5.08
680.183	5.13
680.592	5.17
681	5.21
681.408	5.26
681.816	5.29
682.224	5.34
682.632	5.39
683.04	5.44
683.448	5.5
683.856	5.57
684.264	5.64
684.671	5.73
685.079	5.81
685.487	5.93
685.894	6.04
686.302	6.18
686.709	6.31
687.116	6.46
687.524	6.62
687.931	6.79
688.338	7
688.745	7.22
689.152	7.45
689.559	7.71
689.966	7.96
690.373	8.26
690.78	8.58
691.187	8.91
691.593	9.26
692	9.63
692.407	10.02
692.813	10.41
693.22	10.8
693.626	11.22
694.032	11.66
694.439	12.14
694.845	12.58
695.251	13.03
695.657	13.53
696.063	14.02
696.469	14.52
696.875	15.01
697.281	15.49
697.687	16.03
698.093	16.56
698.498	17.09
698.904	17.59
699.31	18.1
699.715	18.64
700.12	19.15
700.526	19.66
700.931	20.16
701.337	20.68
701.742	21.2
702.147	21.7
702.552	22.2
702.957	22.69
703.362	23.2
703.767	23.69
704.172	24.16
704.577	24.65
704.981	25.14
705.386	25.61
705.791	26.08
706.195	26.54
706.6	26.99
707.004	27.42
707.408	27.85
707.813	28.27
708.217	28.7
708.621	29.14
709.025	29.57
709.43	29.97
709.834	30.42
710.237	30.84
710.641	31.27
711.045	31.68
711.449	32.07
711.853	32.47
712.256	32.87
712.66	33.27
713.064	33.65
713.467	34.03
713.87	34.41
714.274	34.77
714.677	35.13
715.08	35.48
715.484	35.83
715.887	36.2
716.29	36.55
716.693	36.89
717.096	37.23
717.499	37.55
717.901	37.87
718.304	38.18
718.707	38.49
719.109	38.8
719.512	39.12
719.915	39.42
720.317	39.74
720.719	40.03
721.122	40.33
721.524	40.6
721.926	40.88
722.328	41.15
722.731	41.41
723.133	41.68
723.535	41.92
723.937	42.14
724.338	42.34
724.74	42.52
725.142	42.76
725.544	42.94
725.945	43.16
726.347	43.38
726.748	43.53
727.15	43.7
727.551	43.9
727.952	44.07
728.354	44.25
728.755	44.43
729.156	44.61
729.557	44.73
729.958	44.9
730.359	45.04
730.76	45.14
731.161	45.31
731.562	45.44
731.962	45.55
732.363	45.68
732.763	45.81
733.164	45.9
733.564	46.01
733.965	46.12
734.365	46.21
734.766	46.29
735.166	46.36
735.566	46.44
735.966	46.52
736.366	46.58
736.766	46.65
737.166	46.71
737.566	46.81
737.966	46.91
738.365	46.99
738.765	47.08
739.165	47.13
739.564	47.2
739.964	47.28
740.363	47.36
740.763	47.4
741.162	47.43
741.561	47.5
741.96	47.56
742.36	47.6
742.759	47.61
743.158	47.63
743.557	47.69
743.955	47.75
744.354	47.81
744.753	47.84
745.152	47.88
745.55	47.93
745.949	47.94
746.348	47.97
746.746	48.01
747.144	48.04
747.543	48.1
747.941	48.14
748.339	48.18
748.737	48.2
749.136	48.22
749.534	48.25
749.932	48.28
750.33	48.3
750.727	48.3
751.125	48.3
751.523	48.31
751.921	48.3
752.318	48.31
752.716	48.29
753.113	48.29
753.511	48.28
753.908	48.27
754.305	48.28
754.703	48.27
755.1	48.27
755.497	48.28
755.894	48.31
756.291	48.31
756.688	48.34
757.085	48.36
757.482	48.37
757.878	48.44
758.275	48.48
758.672	48.5
759.068	48.54
759.465	48.58
759.861	48.59
760.258	48.58
760.654	48.6
761.05	48.61
761.447	48.59
761.843	48.59
762.239	48.55
762.635	48.52
763.031	48.52
763.427	48.51
763.822	48.47
764.218	48.5
764.614	48.48
765.01	48.47
765.405	48.43
765.801	48.45
766.196	48.45
766.592	48.46
766.987	48.47
767.382	48.47
767.778	48.49
768.173	48.52
768.568	48.48
768.963	48.5
769.358	48.51
769.753	48.56
770.148	48.55
770.542	48.56
770.937	48.56
771.332	48.58
771.726	48.57
772.121	48.51
772.515	48.51
772.91	48.51
773.304	48.48
773.699	48.45
774.093	48.4
774.487	48.41
774.881	48.4
775.275	48.39
775.669	48.4
776.063	48.35
776.457	48.37
776.851	48.34
777.245	48.34
777.638	48.38
778.032	48.41
778.425	48.43
778.819	48.43
779.212	48.42
779.606	48.41
779.999	48.37
780.392	48.41
780.786	48.42
781.179	48.47
781.572	48.5
781.965	48.49
782.358	48.47
782.751	48.47
783.143	48.5
783.536	48.53
783.929	48.56
784.322	48.61
784.714	48.62
785.107	48.65
785.499	48.63
785.891	48.62
786.284	48.62
786.676	48.67
787.068	48.66
787.46	48.65
787.852	48.61
788.245	48.59
788.636	48.59
789.028	48.55
789.42	48.55
789.812	48.56
790.204	48.51
790.595	48.52
790.987	48.46
791.378	48.48
791.77	48.49
792.161	48.53
792.553	48.54
792.944	48.55
793.335	48.57
793.726	48.56
794.117	48.54
794.508	48.57
794.899	48.58
795.29	48.6
795.681	48.63
796.072	48.62
796.463	48.6
796.853	48.59
797.244	48.55
797.634	48.53
798.025	48.51
798.415	48.55
798.806	48.57
799.196	48.59
799.586	48.59
799.976	48.55
800.366	48.57
800.756	48.54
801.146	48.53
801.536	48.57
801.926	48.58
802.316	48.6
802.706	48.57
803.095	48.58
803.485	48.54
803.874	48.5
804.264	48.51
804.653	48.45
805.043	48.48
805.432	48.47
805.821	48.44
806.21	48.41
806.599	48.44
806.988	48.44
807.377	48.42
807.766	48.43
808.155	48.46
808.544	48.41
808.933	48.45
809.321	48.44
809.71	48.47
810.098	48.44
810.487	48.45
810.875	48.39
811.264	48.37
811.652	48.36
812.04	48.35
812.428	48.33
812.816	48.36
813.204	48.35
813.592	48.32
813.98	48.32
814.368	48.35
814.756	48.34
815.144	48.39
815.531	48.38
815.919	48.37
816.306	48.37
816.694	48.37
817.081	48.34
817.469	48.34
817.856	48.36
818.243	48.37
818.63	48.39
819.017	48.38
819.404	48.32
819.791	48.33
820.178	48.31
820.565	48.33
820.952	48.33
821.339	48.36
821.725	48.34
822.112	48.35
822.498	48.31
822.885	48.27
823.271	48.25
823.657	48.28
824.044	48.29
824.43	48.28
824.816	48.27
825.202	48.25
825.588	48.24
825.974	48.22
826.36	48.18
826.746	48.18
827.132	48.17
827.517	48.19
827.903	48.16
828.289	48.16
828.674	48.15
829.06	48.16
829.445	48.16
829.83	48.17
830.216	48.17
830.601	48.17
830.986	48.18
831.371	48.19
831.756	48.16
832.141	48.18
832.526	48.19
832.911	48.25
833.295	48.24
833.68	48.25
834.065	48.24
834.449	48.23
834.834	48.26
835.218	48.26
835.603	48.24
835.987	48.24
836.371	48.26
836.755	48.26
837.139	48.22
837.524	48.2
837.908	48.15
838.291	48.14
838.675	48.16
839.059	48.16
839.443	48.15
839.827	48.16
840.21	48.17
840.594	48.16
840.977	48.13
841.361	48.14
841.744	48.16
842.127	48.18
842.511	48.15
842.894	48.13
843.277	48.14
843.66	48.14
844.043	48.15
844.426	48.15
844.809	48.15
845.191	48.16
845.574	48.14
845.957	48.1
846.339	48.1
846.722	48.15
847.104	48.14
847.487	48.12
847.869	48.12
848.252	48.09
848.634	48.08
849.016	48.07
849.398	48.08
849.78	48.06
850.162	48.06
850.544	48.08
850.926	48.06
851.307	48.06
851.689	48.03
852.071	48.01
852.452	48.01
852.834	48.01
853.215	48
853.597	47.99
853.978	47.99
854.359	48.03
854.741	47.99
855.122	48
855.503	48.01
855.884	48.02
856.265	48.04
856.646	48.03
857.026	48.02
857.407	48
857.788	47.99
858.169	48
858.549	48
858.93	48.01
859.31	47.98
859.69	47.99
860.071	47.99
860.451	47.99
860.831	47.99
861.211	47.99
861.591	48.01
861.971	48.01
862.351	48
862.731	47.99
863.111	47.99
863.491	47.99
863.87	47.99
864.25	48.01
864.629	47.99
865.009	47.99
865.388	48
865.768	48
866.147	48.02
866.526	48.02
866.905	48.02
867.284	48.04
867.663	48.03
868.042	48.02
868.421	47.98
868.8	47.99
869.179	47.98
869.558	47.98
869.936	47.96
870.315	47.97
870.693	47.98
871.072	47.97
871.45	47.95
871.828	47.97
872.207	47.97
872.585	47.98
872.963	47.96
873.341	47.96
873.719	47.95
874.097	47.95
874.475	47.93
874.853	47.91
875.23	47.91
875.608	47.92
875.986	47.91
876.363	47.91
876.741	47.91
877.118	47.92
877.495	47.92
877.873	47.93
878.25	47.9
878.627	47.9
879.004	47.91
879.381	47.91
879.758	47.88
880.135	47.86
880.512	47.87
880.889	47.88
881.265	47.89
881.642	47.9
882.019	47.91
882.395	47.93
882.772	47.94
883.148	47.91
883.524	47.93
883.901	47.93
884.277	47.92
884.653	47.93
885.029	47.92
885.405	47.91
885.781	47.9
886.157	47.88
886.532	47.87
886.908	47.86
887.284	47.85
887.659	47.84
888.035	47.84
888.411	47.83
888.786	47.8
889.161	47.8
889.537	47.78
889.912	47.75
890.287	47.73
890.662	47.73
891.037	47.7
891.412	47.69
891.787	47.68
892.162	47.67
892.536	47.69
892.911	47.69
893.286	47.66
893.66	47.65
894.035	47.65
894.409	47.66
894.784	47.64
895.158	47.67
895.532	47.65
895.906	47.64
896.281	47.67
896.655	47.67
897.029	47.66
897.402	47.67
897.776	47.69
898.15	47.7
898.524	47.7
898.898	47.68
899.271	47.66
899.645	47.67
900.018	47.68
900.392	47.71
900.765	47.68
901.138	47.74
901.511	47.74
901.884	47.75
902.258	47.74
902.631	47.76
903.003	47.79
903.376	47.81
903.749	47.82
904.122	47.85
904.495	47.82
904.867	47.82
905.24	47.79
905.612	47.79
905.985	47.77
906.357	47.78
906.729	47.79
907.102	47.8
907.474	47.81
907.846	47.82
908.218	47.77
908.59	47.77
908.962	47.8
909.334	47.81
909.705	47.81
910.077	47.81
910.449	47.79
910.82	47.81
911.192	47.85
911.563	47.84
911.935	47.82
912.306	47.85
912.677	47.87
913.048	47.84
913.419	47.85
913.79	47.87
914.161	47.88
914.532	47.9
914.903	47.88
915.274	47.87
915.645	47.86
916.015	47.87
916.386	47.86
916.756	47.82
917.127	47.82
917.497	47.81
917.868	47.81
918.238	47.83
918.608	47.84
918.978	47.84
919.348	47.79
919.718	47.82
920.088	47.86
920.458	47.91
920.828	47.94
921.198	47.96
921.567	47.96
921.937	47.98
922.306	47.95
922.676	47.98
923.045	47.98
923.415	48.04
923.784	48.05
924.153	48.05
924.522	48.04
924.891	48.03
925.26	48.03
925.629	48.05
925.998	48.01
926.367	48.03
926.736	48.02
927.104	48.01
927.473	48
927.842	47.96
928.21	47.96
928.578	47.93
928.947	47.92
929.315	47.94
929.683	47.95
930.051	47.97
930.42	47.98
930.788	48
931.156	48.04
931.523	48.08
931.891	48.09
932.259	48.09
932.627	48.07
932.994	48.15
933.362	48.15
933.729	48.17
934.097	48.21
934.464	48.26
934.831	48.33
935.199	48.36
935.566	48.36
935.933	48.46
936.3	48.53
936.667	48.66
937.034	48.69
937.401	48.69
937.767	48.76
938.134	48.86
938.501	48.86
938.867	48.89
939.234	48.99
939.6	49.01
939.967	48.99
940.333	49.03
940.699	49.13
941.065	49.12
941.431	49.28
941.798	49.4
942.163	49.34
942.529	49.48
942.895	49.49
943.261	49.49
943.627	49.6
943.992	49.69
944.358	49.65
944.723	49.64
945.089	49.71
945.454	49.69
945.82	49.63
946.185	49.67
946.55	49.68
946.915	49.63
947.28	49.59
947.645	49.59
948.01	49.51
948.375	49.54
948.74	49.48
949.104	49.53
949.469	49.37
949.834	49.21
950.198	49.11
950.562	48.95
950.927	48.89
951.291	48.8
951.655	48.7
952.02	48.61
952.384	48.55
952.748	48.53
953.112	48.42
953.476	48.42
953.839	48.4
954.203	48.4
954.567	48.38
954.931	48.39
955.294	48.45
955.658	48.42
956.021	48.44
956.385	48.44
956.748	48.4
957.111	48.34
957.474	48.36
957.837	48.4
958.2	48.34
958.563	48.26
958.926	48.17
959.289	48.14
959.652	48.05
960.015	47.98
960.377	47.97
960.74	47.85
961.102	47.86
961.465	47.81
961.827	47.78
962.189	47.7
962.552	47.71
962.914	47.68
963.276	47.67
963.638	47.72
964	47.76
964.362	47.74
964.724	47.78
965.085	47.72
965.447	47.7
965.809	47.72
966.17	47.74
966.532	47.78
966.893	47.8
967.255	47.75
967.616	47.74
967.977	47.74
968.338	47.72
968.699	47.74
969.061	47.72
969.421	47.74
969.782	47.74
970.143	47.81
970.504	47.76
970.865	47.78
971.225	47.81
971.586	47.86
971.946	47.87
972.307	47.85
972.667	47.88
973.027	48.01
973.388	48.06
973.748	48.09
974.108	48.11
974.468	48.13
974.828	48.24
975.188	48.3
975.548	48.26
975.907	48.3
976.267	48.35
976.627	48.39
976.986	48.4
977.346	48.42
977.705	48.39
978.064	48.36
978.424	48.47
978.783	48.42
979.142	48.38
979.501	48.39
979.86	48.4
980.219	48.38
980.578	48.4
980.937	48.4
981.296	48.39
981.654	48.47
982.013	48.5
982.371	48.49
982.73	48.48
983.088	48.49
983.447	48.56
983.805	48.61
984.163	48.72
984.521	48.69
984.879	48.73
985.237	48.82
985.595	48.89
985.953	49
986.311	49.03
986.669	49.18
987.026	49.32
987.384	49.44
987.741	49.53
988.099	49.46
988.456	49.55
988.814	49.61
989.171	49.65
989.528	49.58
989.885	49.49
990.242	49.55
990.599	49.47
990.956	49.47
991.313	49.47
991.67	49.52
992.027	49.68
992.383	49.84
992.74	49.85
993.096	49.87
993.453	50.01
993.809	50.21
994.165	50.35
994.522	50.49
994.878	50.55
995.234	50.51
995.59	50.41
995.946	50.52
996.302	50.3
996.658	50.26
997.013	50.31
997.369	50.33
997.725	50.44
998.08	50.32
998.436	50.44
998.791	50.44
999.147	50.49
999.502	50.62
999.857	50.67
1000.212	50.84
1000.567	51.11
1000.922	51.18
1001.277	51.22
1001.632	51.34
1001.987	51.43
1002.342	51.35
1002.696	51.48
1003.051	51.61
1003.406	51.55
1003.76	51.51
1004.114	51.66
1004.469	51.71
1004.823	51.75
1005.177	52.01
1005.531	51.82
1005.885	52.25
1006.239	52.3
1006.593	52.36
1006.947	52.49
1007.301	52.7
1007.655	52.8
1008.008	52.86
1008.362	52.83
1008.715	53.14
1009.069	52.95
1009.422	53.22
1009.776	53.09
1010.129	53.28
1010.482	53.3
1010.835	53.39
1011.188	53.4
1011.541	53.36
1011.894	53.55
1012.247	53.7
1012.6	53.67
1012.952	54
1013.305	53.89
1013.657	54.15
1014.01	54.33
1014.362	54.66
1014.715	54.84
1015.067	55.36
1015.419	55.69
1015.771	55.91
1016.123	56.04
1016.475	56.28
1016.827	56.3
1017.179	56.61
1017.531	56.6
1017.883	56.81
1018.234	56.99
1018.586	57.12
1018.938	56.8
1019.289	56.81
1019.64	56.77
1019.992	56.87
1020.343	56.81
1020.694	57.11
1021.045	57.38
1021.396	57.31
1021.747	57.43
1022.098	57.48
1022.449	57.61
1022.8	58.07
1023.151	58.34
1023.501	58.79
1023.852	59.18
1024.202	59.64
1024.553	59.61
1024.903	59.77
1025.253	60.35
1025.604	60.4
1025.954	60.62
1026.304	61.05
1026.654	61.36
1027.004	61.73
1027.354	61.58
1027.703	61.78
1028.053	61.66
1028.403	62.01
1028.753	62.46
1029.102	62.45
1029.452	62.72
1029.801	62.85
1030.15	62.85
1030.499	62.83
897.758	601.67
901.051	607.04
904.343	611.42
907.636	604.58
910.928	593.88
914.22	605.53
917.511	596.92
920.803	570.42
924.094	547.17
927.384	553.33
930.675	536.22
933.965	526.68
937.255	526.98
940.544	504.19
943.834	480.22
947.123	472.34
950.411	449.67
953.7	439.98
956.988	424.08
960.276	406.93
963.563	399.29
966.851	380.01
970.138	372.56
973.424	347.31
976.711	341.73
979.997	331.52
983.283	325.1
986.568	312.32
989.853	302.57
993.138	294.19
996.423	288.87
999.708	282.01
1002.992	280.88
1006.275	271.29
1009.559	269.58
1012.842	262
1016.125	252.2
1019.408	247.29
1022.69	245.26
1025.972	244.45
1029.254	236.85
1032.536	232.32
1035.817	224.74
1039.098	222.67
1042.379	218.97
1045.659	215.61
1048.939	212.85
1052.219	211.09
1055.498	207.14
1058.778	203.74
1062.057	199.87
1065.335	199.37
1068.614	194.57
1071.892	192.51
1075.17	187.54
1078.447	185.73
1081.724	184.4
1085.001	181.21
1088.278	178.82
1091.554	177.8
1094.83	175.76
1098.106	172.78
1101.382	172.1
1104.657	171.54
1107.932	170.58
1111.206	169.25
1114.481	168.24
1117.755	166.88
1121.029	166.33
1124.302	164.56
1127.575	161.71
1130.848	161.83
1134.121	158.86
1137.393	158.01
1140.665	157.28
1143.937	155.13
1147.208	152.54
1150.48	150.26
1153.75	148.7
1157.021	148.56
1160.291	147.94
1163.561	147.15
1166.831	145.76
1170.101	145.91
1173.37	145.72
1176.639	144.54
1179.907	144.41
1183.176	144.8
1186.444	145.45
1189.711	144.44
1192.979	144
1196.246	144.41
1199.513	144.56
1202.78	145.26
1206.046	145.66
1209.312	145.74
1212.578	146.74
1215.843	148.9
1219.108	150.06
1222.373	152.29
1225.638	155.32
1228.902	158.95
1232.166	163.99
1235.43	165.68
1238.693	169.53
1241.956	173.01
1245.219	177.6
1248.482	178.67
1251.744	178.15
1255.006	179.64
1258.268	174.72
1261.529	173.22
1264.79	168.89
1268.051	164.53
1271.312	164.12
1274.572	160.55
1277.832	156.2
1281.092	154.45
1284.351	151.38
1287.61	151.09
1290.869	149.5
1294.128	149.08
1297.386	148.33
1300.644	148.06
1303.902	147.98
1307.159	145.78
1310.416	146.97
1313.673	149.64
1316.93	150.38
1320.186	152.76
1323.442	154.88
1326.697	158.45
1329.953	159.52
1333.208	164.82
1336.463	170.8
1339.717	173.6
1342.972	184.67
1346.226	189.81
1349.479	191.21
1352.733	199.01
1355.986	203.2
1359.238	207.56
1362.491	208.85
1365.743	216.46
1368.995	217.98
1372.247	218.75
1375.498	218.11
1378.749	223.07
1382	222.11
1385.251	221.63
1388.501	220.6
1391.751	224.4
1395	223.29
1398.25	224.67
1401.499	223.35
1404.748	223.05
1407.996	217.2
1411.244	218.05
1414.492	213.64
1417.74	207.38
1420.987	203.58
1424.234	199.34
1427.481	191.91
1430.728	186.88
1433.974	181.54
1437.22	174.73
1440.465	168.59
1443.711	164.16
1446.956	159.17
1450.201	153.94
1453.445	147.22
1456.689	142.71
1459.933	138.81
1463.177	132.43
1466.42	129.19
1469.663	124.79
1472.906	121.99
1476.148	118.78
1479.391	116.12
1482.633	113.91
1485.874	111.61
1489.115	110.75
1492.356	108.41
1495.597	106.87
1498.838	105.92
1502.078	104.9
1505.318	104.69
1508.557	104.22
1511.797	103.08
1515.036	102.9
1518.274	101.59
1521.513	100.84
1524.751	100.04
1527.989	101.04
1531.227	100.42
1534.464	101.13
1537.701	99.9
1540.938	99.27
1544.174	99.06
1547.41	99.28
1550.646	98.79
1553.882	99.57
1557.117	98.39
1560.352	98.48
1563.587	97.24
1566.821	97.12
1570.055	96.33
1573.289	96.75
1576.523	96.75
1579.756	95.97
1582.989	95.89
1586.222	95.69
1589.454	95.3
1592.686	95.36
1595.918	95.33
1599.15	95.45
1602.381	95.46
1605.612	95.54
1608.843	95.28
1612.073	95.78
1615.303	96.47
1618.533	95.91
1621.762	96.28
1624.992	96.41
1628.221	96.7
1631.449	97
1634.678	97.36
1637.906	97.41
1641.134	97.37
1644.361	97.3
1647.588	96.92
1650.815	96.93
1654.042	97.56
1657.269	96.74
1660.495	97.42
1663.72	97.16
1666.946	97.43
1670.171	97.33
1673.396	97.47
1676.621	98.16
1679.845	98.41
1683.069	98.37
1686.293	98
1689.517	98.04
1692.74	98.61
1695.963	98.82
1699.185	99.48
1702.408	99.64
1705.63	99.35
1708.852	100.43
1712.073	99.57
1715.294	99.77
1718.515	100.28
1721.736	100.73
1724.956	100.8
1728.176	100.89
1731.396	101.26
1734.616	100.77
1737.835	100.58
1741.054	100.91
1744.272	100.4
1747.491	101.11
1750.709	101.33
1753.927	101.48
1757.144	101.54
1760.361	101.79
1763.578	102.42
1766.795	102.36
1770.011	103.85
1773.227	104.15
1776.443	104.85
1779.658	105.43
1782.874	104.94
1786.089	105.83
1789.303	106.16
1792.518	107.69
1795.732	108.46
1798.945	108.99
1802.159	109.54
1805.372	110.22
1808.585	110.94
1811.797	111.27
1815.01	112.34
1818.222	114.07
1821.434	114.66
1824.645	115.63
1827.856	115.92
1831.067	116.33
1834.278	118.57
1837.488	118.28
1840.698	119.66
1843.908	120.04
1847.117	121.64
1850.326	122.07
1853.535	123.09
1856.744	124.36
1859.952	125.32
1863.16	126.49
1866.368	126.39
1869.575	126.29
1872.782	126.87
1875.989	124.56
1879.196	125.51
1882.402	124.46
1885.608	125.26
1888.814	124.51
1892.019	124.64
1895.224	123.28
1898.429	123.38
1901.634	124.5
1904.838	124.82
1908.042	125.3
1911.246	126.49
1914.449	126.26
1917.652	126.16
1920.855	126.65
1924.058	126.23
1927.26	126.16
1930.462	126.98
1933.664	127.95
1936.865	126.75
1940.066	125.8
1943.267	124.78
1946.467	126.19
1949.668	125.37
1952.868	127.17
1956.067	126.39
1959.267	127.41
1962.466	127.99
1965.665	129.43
1968.863	129.05
1972.061	130.05
1975.259	132.65
1978.457	133.1
1981.654	134.01
1984.852	135.64
1988.048	136.42
1991.245	139.11
1994.441	141.5
1997.637	144.23
2000.833	146.22
2004.028	147.96
2007.223	153.51
2010.418	157.09
2013.613	165.34
2016.807	169.11
2020.001	172.08
2023.194	177.6
2026.388	183
2029.581	193.4
2032.774	199.87
2035.966	205.3
2039.158	212.25
2042.35	215.07
2045.542	217.55
2048.733	226.3
2051.924	227.39
2055.115	232.44
2058.306	233.8
2061.496	237.63
2064.686	234.91
2067.875	233.71
2071.065	238.18
2074.254	237.86
2077.442	244.65
2080.631	247.66
2083.819	247.56
2087.007	253.91
2090.195	258.4
2093.382	258.16
2096.569	258.25
2099.756	263.73
2102.942	269.56
2106.128	274.33
2109.314	276.79
2112.5	276.28
2115.685	276.44
2118.87	276.54
2122.055	276.36
2125.239	281.15
2128.424	290.16
2131.608	287.65
2134.791	288.27
2137.974	288.73
2141.157	291.62
2144.34	294.56
2147.523	297.34
2150.705	303.22
2153.887	300.64
2157.068	305.88
2160.25	307.72
2163.431	304.56
2166.611	310.4
2169.792	316.12
2172.972	321.32
2176.152	320.39
2179.331	328.52
2182.511	329.14
2185.69	331.4
2188.868	346.19
2192.047	352.47
2195.225	356.45
2198.403	362.8
2201.58	361.49
2204.758	372.83
2207.935	374.66
2211.111	382.56
2214.288	382.32
2217.464	387.74
2220.64	393.96
2223.815	392.86
2226.991	392.52
2230.166	396.1
2233.34	408.39
2236.515	418.42
2239.689	410.92
2242.863	418.67
2246.036	412.74
2249.209	426.85
2252.382	427.64
2255.555	439.23
2258.727	443.91
2261.9	451.5
2265.071	458.8
2268.243	456.87
2271.414	467.88
2274.585	478.7
2277.756	478.87
2280.926	496.66
2284.096	496.97
2287.266	497.18
2290.436	486.68
2293.605	498.13
2296.774	520.21
2299.942	519.09
2303.111	532.97
2306.279	541.44
2309.447	545.45
2312.614	546.47
2315.781	562.68
2318.948	563.25
2322.115	576.91
2325.281	604.86
2328.447	599.78
2331.613	603.64
2334.779	614.17
2337.944	618.35
2341.109	633.29
2344.274	637.33
2347.438	661.42
2350.602	667.46
2353.766	714.17
2356.929	717.62
2360.092	728.18
2363.255	729.21
2366.418	734.42
2369.58	748.46
2372.742	755.18
2375.904	751.76
2379.066	773.97
2382.227	816.28
2385.388	819.98
2388.548	774.73
2391.709	768.7
2394.869	794.77
2398.029	800.81
2401.188	798.38
2404.347	823.62
2407.506	849.69
2410.665	819.23
2413.823	817.88
2416.981	816.77
2420.139	774.17
2423.296	831.88
2426.453	887.29
2429.61	851.55
2432.767	909.58
2435.923	947.1
2439.079	902.52
2442.235	925.41
2445.391	947.1
2448.546	946.95
2451.701	990.71
2454.855	1060.27
2458.009	947.56
2461.163	956.83
2464.317	966.83
2467.471	941.34
2470.624	975.35
2473.777	975.45
2476.929	939.83
2480.082	1010.54
2483.234	1056.47
2486.385	1073.15
2489.537	1097.85
2492.688	1209.65
2495.839	1188.17
2498.989	1218.6
2502.14	1227.61
2505.29	1167.77
2508.439	1291.98
2511.589	1331.25
2514.738	1282.48
2517.887	1272.66
2521.035	1196.53
2524.183	1173.91
2527.331	1162.36
2530.479	1138.91
2533.627	1167.44
