Data from c_1_dec_oh_4n_015_Splice17_03.txt Node
Date: Sat Feb 29 13:14:24 EST 2020
User: sa697716
Spectrometer: FLMS03696
Trigger mode: 0
Integration Time (sec): 3.180400E-1
Scans to average: 20
Electric dark correction enabled: true
Nonlinearity correction enabled: true
Boxcar width: 5
XAxis mode: Wavelengths
Number of Pixels in Spectrum: 2048
>>>>>Begin Spectral Data<<<<<
187.83	-1.85
188.298	-22.79
188.766	-15.38
189.233	-21.43
189.701	-4.75
190.169	14.1
190.636	7.94
191.104	-16.18
191.571	-153.25
192.039	99.33
192.506	154.75
192.974	10483.45
193.441	-697.45
193.908	71.85
194.375	39.41
194.842	109.65
195.31	108.83
195.777	112.54
196.244	33.82
196.711	23.71
197.177	21.4
197.644	22.36
198.111	22.12
198.578	21.84
199.045	23.04
199.511	23.38
199.978	23.7
200.445	23.32
200.911	23.19
201.378	23.55
201.844	23.89
202.31	24.78
202.777	24.89
203.243	25.46
203.709	26.29
204.176	25.9
204.642	25.86
205.108	25.95
205.574	26.57
206.04	26.31
206.506	25.89
206.972	25.51
207.438	24.96
207.903	25.02
208.369	24.21
208.835	23.49
209.301	23.34
209.766	23.21
210.232	22.97
210.697	22.9
211.163	22.75
211.628	22.53
212.094	22.52
212.559	22.17
213.024	21.84
213.49	21.65
213.955	21.81
214.42	21.58
214.885	21.31
215.35	21.17
215.815	20.26
216.28	19.83
216.745	19.43
217.21	18.98
217.675	18.59
218.14	17.91
218.604	17.27
219.069	16.8
219.534	16.36
219.998	15.95
220.463	15.59
220.927	15.41
221.392	15.15
221.856	14.89
222.32	14.64
222.785	14.43
223.249	14.26
223.713	14.13
224.177	13.91
224.642	13.77
225.106	13.63
225.57	13.47
226.034	13.28
226.497	13.13
226.961	12.96
227.425	12.76
227.889	12.62
228.353	12.46
228.816	12.33
229.28	12.18
229.744	12.06
230.207	11.92
230.671	11.77
231.134	11.66
231.597	11.54
232.061	11.45
232.524	11.38
232.987	11.26
233.45	11.15
233.914	11.05
234.377	10.96
234.84	10.86
235.303	10.77
235.766	10.67
236.229	10.59
236.691	10.5
237.154	10.4
237.617	10.3
238.08	10.23
238.542	10.15
239.005	10.06
239.468	9.96
239.93	9.9
240.393	9.82
240.855	9.73
241.317	9.65
241.78	9.59
242.242	9.49
242.704	9.41
243.166	9.34
243.629	9.26
244.091	9.2
244.553	9.15
245.015	9.07
245.477	9
245.939	8.94
246.4	8.87
246.862	8.81
247.324	8.78
247.786	8.73
248.247	8.69
248.709	8.64
249.17	8.59
249.632	8.52
250.093	8.45
250.555	8.42
251.016	8.39
251.477	8.33
251.939	8.29
252.4	8.24
252.861	8.19
253.322	8.13
253.783	8.1
254.244	8.06
254.705	8.04
255.166	8.01
255.627	7.97
256.088	7.93
256.549	7.9
257.009	7.87
257.47	7.84
257.931	7.81
258.391	7.77
258.852	7.72
259.312	7.68
259.773	7.63
260.233	7.59
260.694	7.56
261.154	7.53
261.614	7.49
262.074	7.45
262.534	7.4
262.994	7.37
263.455	7.35
263.915	7.32
264.374	7.28
264.834	7.26
265.294	7.23
265.754	7.2
266.214	7.18
266.673	7.15
267.133	7.13
267.593	7.11
268.052	7.08
268.512	7.06
268.971	7.03
269.431	7.02
269.89	7.01
270.349	6.99
270.809	6.97
271.268	6.95
271.727	6.93
272.186	6.91
272.645	6.9
273.104	6.88
273.563	6.85
274.022	6.83
274.481	6.8
274.94	6.78
275.399	6.76
275.857	6.74
276.316	6.72
276.775	6.69
277.233	6.66
277.692	6.63
278.15	6.61
278.609	6.59
279.067	6.56
279.525	6.54
279.984	6.52
280.442	6.5
280.9	6.47
281.358	6.45
281.816	6.44
282.274	6.42
282.732	6.4
283.19	6.39
283.648	6.37
284.106	6.36
284.564	6.34
285.021	6.33
285.479	6.31
285.937	6.3
286.394	6.28
286.852	6.28
287.309	6.27
287.767	6.26
288.224	6.25
288.682	6.25
289.139	6.23
289.596	6.22
290.053	6.19
290.511	6.18
290.968	6.16
291.425	6.15
291.882	6.13
292.339	6.1
292.796	6.08
293.252	6.05
293.709	6.03
294.166	6.02
294.623	6.01
295.079	5.99
295.536	5.97
295.992	5.95
296.449	5.94
296.905	5.92
297.362	5.91
297.818	5.9
298.274	5.89
298.731	5.88
299.187	5.86
299.643	5.84
300.099	5.83
300.555	5.82
301.011	5.8
301.467	5.78
301.923	5.77
302.379	5.76
302.835	5.75
303.291	5.74
303.746	5.72
304.202	5.71
304.658	5.69
305.113	5.68
305.569	5.68
306.024	5.67
306.479	5.67
306.935	5.66
307.39	5.66
307.845	5.64
308.301	5.63
308.756	5.63
309.211	5.63
309.666	5.63
310.121	5.61
310.576	5.6
311.031	5.6
311.486	5.58
311.94	5.58
312.395	5.58
312.85	5.57
313.305	5.57
313.759	5.56
314.214	5.55
314.668	5.54
315.123	5.56
315.577	5.55
316.032	5.54
316.486	5.54
316.94	5.52
317.394	5.5
317.849	5.49
318.303	5.47
318.757	5.46
319.211	5.44
319.665	5.42
320.119	5.4
320.572	5.4
321.026	5.39
321.48	5.37
321.934	5.37
322.387	5.36
322.841	5.35
323.295	5.34
323.748	5.32
324.202	5.32
324.655	5.31
325.108	5.3
325.562	5.28
326.015	5.26
326.468	5.25
326.921	5.23
327.374	5.23
327.827	5.21
328.28	5.19
328.733	5.18
329.186	5.17
329.639	5.16
330.092	5.16
330.545	5.16
330.997	5.16
331.45	5.16
331.903	5.15
332.355	5.15
332.808	5.16
333.26	5.17
333.713	5.17
334.165	5.16
334.617	5.16
335.069	5.15
335.522	5.15
335.974	5.15
336.426	5.14
336.878	5.14
337.33	5.13
337.782	5.14
338.234	5.13
338.686	5.12
339.137	5.14
339.589	5.13
340.041	5.13
340.493	5.11
340.944	5.09
341.396	5.08
341.847	5.08
342.299	5.07
342.75	5.04
343.201	5.03
343.653	5.02
344.104	4.99
344.555	4.98
345.006	4.97
345.457	4.95
345.908	4.94
346.359	4.93
346.81	4.92
347.261	4.92
347.712	4.92
348.163	4.91
348.613	4.9
349.064	4.88
349.515	4.87
349.965	4.86
350.416	4.85
350.866	4.85
351.317	4.84
351.767	4.84
352.217	4.82
352.668	4.81
353.118	4.8
353.568	4.8
354.018	4.8
354.468	4.8
354.918	4.8
355.368	4.8
355.818	4.78
356.268	4.78
356.718	4.77
357.168	4.76
357.617	4.76
358.067	4.76
358.517	4.75
358.966	4.76
359.416	4.77
359.865	4.76
360.315	4.76
360.764	4.76
361.213	4.75
361.663	4.75
362.112	4.76
362.561	4.76
363.01	4.75
363.459	4.74
363.908	4.72
364.357	4.71
364.806	4.7
365.255	4.7
365.703	4.69
366.152	4.69
366.601	4.68
367.05	4.68
367.498	4.67
367.947	4.66
368.395	4.67
368.844	4.68
369.292	4.68
369.74	4.69
370.189	4.67
370.637	4.68
371.085	4.68
371.533	4.67
371.981	4.67
372.429	4.65
372.877	4.65
373.325	4.64
373.773	4.63
374.221	4.63
374.669	4.63
375.116	4.62
375.564	4.61
376.012	4.61
376.459	4.61
376.907	4.61
377.354	4.6
377.801	4.6
378.249	4.61
378.696	4.6
379.143	4.59
379.591	4.59
380.038	4.6
380.485	4.6
380.932	4.59
381.379	4.58
381.826	4.58
382.273	4.59
382.72	4.6
383.166	4.59
383.613	4.6
384.06	4.61
384.506	4.61
384.953	4.6
385.4	4.61
385.846	4.6
386.292	4.6
386.739	4.59
387.185	4.6
387.631	4.61
388.078	4.61
388.524	4.61
388.97	4.6
389.416	4.59
389.862	4.59
390.308	4.59
390.754	4.6
391.2	4.61
391.645	4.63
392.091	4.63
392.537	4.62
392.983	4.63
393.428	4.63
393.874	4.65
394.319	4.67
394.765	4.68
395.21	4.68
395.655	4.7
396.101	4.71
396.546	4.71
396.991	4.72
397.436	4.73
397.881	4.75
398.326	4.76
398.771	4.77
399.216	4.79
399.661	4.82
400.106	4.84
400.551	4.84
400.995	4.83
401.44	4.84
401.885	4.85
402.329	4.87
402.774	4.87
403.218	4.87
403.663	4.87
404.107	4.89
404.551	4.89
404.995	4.89
405.44	4.91
405.884	4.93
406.328	4.93
406.772	4.94
407.216	4.96
407.66	4.97
408.104	4.97
408.547	5
408.991	5
409.435	5
409.879	5.01
410.322	5.02
410.766	5.03
411.209	5.05
411.653	5.04
412.096	5.04
412.54	5.05
412.983	5.06
413.426	5.07
413.869	5.09
414.312	5.12
414.756	5.13
415.199	5.14
415.642	5.17
416.085	5.19
416.527	5.22
416.97	5.24
417.413	5.25
417.856	5.26
418.298	5.24
418.741	5.24
419.184	5.22
419.626	5.21
420.069	5.21
420.511	5.19
420.953	5.19
421.396	5.18
421.838	5.19
422.28	5.21
422.722	5.21
423.164	5.23
423.606	5.26
424.048	5.26
424.49	5.29
424.932	5.3
425.374	5.32
425.816	5.32
426.258	5.31
426.699	5.3
427.141	5.27
427.582	5.26
428.024	5.25
428.465	5.25
428.907	5.27
429.348	5.27
429.789	5.26
430.231	5.26
430.672	5.26
431.113	5.28
431.554	5.29
431.995	5.32
432.436	5.33
432.877	5.32
433.318	5.31
433.759	5.3
434.2	5.3
434.64	5.3
435.081	5.29
435.522	5.31
435.962	5.32
436.403	5.33
436.843	5.34
437.284	5.35
437.724	5.38
438.164	5.39
438.604	5.41
439.045	5.39
439.485	5.41
439.925	5.42
440.365	5.42
440.805	5.42
441.245	5.4
441.685	5.4
442.125	5.42
442.564	5.42
443.004	5.42
443.444	5.42
443.883	5.44
444.323	5.43
444.762	5.45
445.202	5.47
445.641	5.48
446.081	5.5
446.52	5.5
446.959	5.49
447.398	5.52
447.837	5.55
448.276	5.57
448.716	5.59
449.154	5.63
449.593	5.65
450.032	5.65
450.471	5.66
450.91	5.66
451.349	5.67
451.787	5.68
452.226	5.63
452.664	5.62
453.103	5.6
453.541	5.59
453.98	5.57
454.418	5.55
454.856	5.53
455.295	5.53
455.733	5.5
456.171	5.5
456.609	5.49
457.047	5.51
457.485	5.51
457.923	5.52
458.361	5.52
458.798	5.52
459.236	5.52
459.674	5.53
460.111	5.54
460.549	5.54
460.987	5.54
461.424	5.54
461.862	5.54
462.299	5.54
462.736	5.54
463.173	5.53
463.611	5.53
464.048	5.55
464.485	5.53
464.922	5.52
465.359	5.54
465.796	5.52
466.233	5.53
466.67	5.54
467.106	5.51
467.543	5.53
467.98	5.52
468.416	5.55
468.853	5.55
469.29	5.57
469.726	5.57
470.162	5.57
470.599	5.58
471.035	5.59
471.471	5.57
471.907	5.59
472.344	5.58
472.78	5.58
473.216	5.57
473.652	5.54
474.088	5.55
474.523	5.55
474.959	5.54
475.395	5.53
475.831	5.52
476.266	5.53
476.702	5.52
477.138	5.5
477.573	5.49
478.008	5.48
478.444	5.47
478.879	5.46
479.314	5.44
479.75	5.45
480.185	5.45
480.62	5.45
481.055	5.44
481.49	5.44
481.925	5.44
482.36	5.43
482.795	5.42
483.229	5.42
483.664	5.41
484.099	5.41
484.534	5.4
484.968	5.39
485.403	5.4
485.837	5.39
486.271	5.39
486.706	5.38
487.14	5.4
487.574	5.4
488.009	5.41
488.443	5.42
488.877	5.43
489.311	5.44
489.745	5.45
490.179	5.45
490.613	5.46
491.046	5.48
491.48	5.51
491.914	5.53
492.348	5.55
492.781	5.57
493.215	5.58
493.648	5.61
494.082	5.65
494.515	5.67
494.948	5.71
495.382	5.75
495.815	5.79
496.248	5.82
496.681	5.85
497.114	5.89
497.547	5.93
497.98	5.99
498.413	6.02
498.846	6.08
499.279	6.14
499.711	6.2
500.144	6.26
500.577	6.32
501.009	6.4
501.442	6.48
501.874	6.56
502.306	6.65
502.739	6.73
503.171	6.85
503.603	6.94
504.036	7.06
504.468	7.17
504.9	7.3
505.332	7.44
505.764	7.58
506.196	7.72
506.627	7.87
507.059	8.02
507.491	8.19
507.923	8.35
508.354	8.51
508.786	8.7
509.217	8.87
509.649	9.07
510.08	9.27
510.512	9.46
510.943	9.67
511.374	9.89
511.805	10.12
512.237	10.36
512.668	10.6
513.099	10.84
513.53	11.09
513.961	11.35
514.391	11.61
514.822	11.87
515.253	12.14
515.684	12.41
516.114	12.69
516.545	12.98
516.975	13.29
517.406	13.59
517.836	13.88
518.267	14.19
518.697	14.49
519.127	14.79
519.558	15.09
519.988	15.39
520.418	15.68
520.848	15.99
521.278	16.29
521.708	16.52
522.138	16.79
522.567	17.06
522.997	17.32
523.427	17.58
523.857	17.82
524.286	18.08
524.716	18.34
525.145	18.59
525.575	18.81
526.004	19.01
526.433	19.26
526.863	19.47
527.292	19.69
527.721	19.88
528.15	20.05
528.579	20.25
529.008	20.41
529.437	20.56
529.866	20.72
530.295	20.87
530.724	21.05
531.152	21.19
531.581	21.32
532.01	21.44
532.438	21.57
532.867	21.68
533.295	21.79
533.723	21.91
534.152	22.01
534.58	22.09
535.008	22.17
535.436	22.24
535.865	22.31
536.293	22.37
536.721	22.43
537.149	22.49
537.576	22.55
538.004	22.6
538.432	22.63
538.86	22.68
539.287	22.73
539.715	22.77
540.143	22.81
540.57	22.82
540.998	22.88
541.425	22.91
541.852	22.94
542.28	22.97
542.707	23.03
543.134	23.07
543.561	23.09
543.988	23.11
544.415	23.14
544.842	23.17
545.269	23.22
545.696	23.26
546.123	23.32
546.549	23.36
546.976	23.4
547.403	23.39
547.829	23.42
548.256	23.45
548.682	23.47
549.108	23.5
549.535	23.52
549.961	23.52
550.387	23.5
550.813	23.49
551.24	23.48
551.666	23.5
552.092	23.51
552.518	23.49
552.943	23.48
553.369	23.45
553.795	23.43
554.221	23.41
554.646	23.38
555.072	23.35
555.498	23.3
555.923	23.27
556.349	23.18
556.774	23.1
557.199	23.07
557.625	22.98
558.05	22.89
558.475	22.78
558.9	22.68
559.325	22.55
559.75	22.44
560.175	22.32
560.6	22.2
561.025	22.09
561.449	21.96
561.874	21.82
562.299	21.69
562.723	21.56
563.148	21.44
563.572	21.29
563.997	21.17
564.421	21
564.846	20.85
565.27	20.67
565.694	20.49
566.118	20.33
566.542	20.17
566.966	19.98
567.39	19.81
567.814	19.63
568.238	19.43
568.662	19.26
569.086	19.1
569.509	18.92
569.933	18.75
570.357	18.57
570.78	18.42
571.204	18.22
571.627	18.06
572.05	17.9
572.474	17.75
572.897	17.62
573.32	17.46
573.743	17.31
574.166	17.17
574.589	17.03
575.012	16.91
575.435	16.77
575.858	16.65
576.281	16.53
576.704	16.4
577.126	16.28
577.549	16.16
577.972	16.05
578.394	15.95
578.817	15.83
579.239	15.73
579.661	15.64
580.084	15.53
580.506	15.43
580.928	15.33
581.35	15.24
581.772	15.18
582.194	15.09
582.616	15
583.038	14.91
583.46	14.84
583.882	14.77
584.303	14.68
584.725	14.61
585.147	14.52
585.568	14.45
585.99	14.38
586.411	14.29
586.833	14.22
587.254	14.18
587.675	14.12
588.096	14.07
588.518	14.01
588.939	13.96
589.36	13.92
589.781	13.9
590.202	13.86
590.623	13.79
591.043	13.74
591.464	13.69
591.885	13.65
592.305	13.62
592.726	13.58
593.147	13.56
593.567	13.53
593.987	13.51
594.408	13.46
594.828	13.42
595.248	13.42
595.669	13.41
596.089	13.38
596.509	13.34
596.929	13.3
597.349	13.26
597.769	13.22
598.189	13.18
598.608	13.13
599.028	13.09
599.448	13.06
599.867	13.01
600.287	12.95
600.706	12.91
601.126	12.86
601.545	12.81
601.965	12.76
602.384	12.71
602.803	12.65
603.222	12.58
603.641	12.53
604.061	12.47
604.48	12.41
604.898	12.37
605.317	12.29
605.736	12.22
606.155	12.15
606.574	12.09
606.992	12.01
607.411	11.95
607.829	11.84
608.248	11.76
608.666	11.69
609.085	11.61
609.503	11.52
609.921	11.44
610.339	11.37
610.758	11.28
611.176	11.21
611.594	11.14
612.012	11.06
612.43	11.04
612.847	10.98
613.265	10.91
613.683	10.85
614.101	10.78
614.518	10.72
614.936	10.66
615.353	10.6
615.771	10.52
616.188	10.46
616.606	10.42
617.023	10.35
617.44	10.29
617.857	10.22
618.274	10.17
618.691	10.13
619.108	10.1
619.525	10.06
619.942	10.04
620.359	10.01
620.776	9.97
621.192	9.93
621.609	9.9
622.026	9.87
622.442	9.85
622.859	9.83
623.275	9.81
623.691	9.8
624.108	9.78
624.524	9.76
624.94	9.75
625.356	9.74
625.772	9.73
626.188	9.73
626.604	9.72
627.02	9.71
627.436	9.69
627.852	9.67
628.268	9.66
628.683	9.64
629.099	9.63
629.514	9.62
629.93	9.6
630.345	9.57
630.761	9.52
631.176	9.49
631.591	9.46
632.007	9.42
632.422	9.38
632.837	9.34
633.252	9.28
633.667	9.21
634.082	9.16
634.497	9.09
634.911	9.03
635.326	8.98
635.741	8.91
636.155	8.83
636.57	8.75
636.984	8.66
637.399	8.55
637.813	8.46
638.228	8.38
638.642	8.29
639.056	8.2
639.47	8.11
639.884	8
640.298	7.9
640.712	7.8
641.126	7.71
641.54	7.62
641.954	7.56
642.368	7.47
642.781	7.37
643.195	7.28
643.609	7.19
644.022	7.12
644.436	7.04
644.849	6.97
645.262	6.93
645.676	6.86
646.089	6.8
646.502	6.74
646.915	6.69
647.328	6.65
647.741	6.6
648.154	6.56
648.567	6.52
648.98	6.5
649.393	6.46
649.805	6.42
650.218	6.4
650.631	6.37
651.043	6.33
651.456	6.31
651.868	6.3
652.28	6.28
652.693	6.24
653.105	6.21
653.517	6.18
653.929	6.15
654.341	6.12
654.753	6.08
655.165	6.05
655.577	6
655.989	5.96
656.401	5.9
656.813	5.84
657.224	5.82
657.636	5.78
658.047	5.74
658.459	5.68
658.87	5.65
659.282	5.61
659.693	5.56
660.104	5.53
660.515	5.5
660.926	5.48
661.338	5.46
661.749	5.42
662.159	5.39
662.57	5.35
662.981	5.34
663.392	5.31
663.803	5.28
664.213	5.26
664.624	5.26
665.035	5.23
665.445	5.22
665.855	5.21
666.266	5.21
666.676	5.2
667.086	5.18
667.497	5.17
667.907	5.17
668.317	5.16
668.727	5.16
669.137	5.16
669.547	5.18
669.956	5.18
670.366	5.18
670.776	5.19
671.186	5.21
671.595	5.25
672.005	5.28
672.414	5.3
672.824	5.33
673.233	5.35
673.642	5.36
674.052	5.37
674.461	5.4
674.87	5.43
675.279	5.45
675.688	5.46
676.097	5.49
676.506	5.51
676.915	5.55
677.323	5.58
677.732	5.61
678.141	5.66
678.549	5.7
678.958	5.74
679.366	5.77
679.775	5.82
680.183	5.87
680.592	5.91
681	5.95
681.408	6
681.816	6.05
682.224	6.12
682.632	6.2
683.04	6.26
683.448	6.34
683.856	6.44
684.264	6.54
684.671	6.66
685.079	6.79
685.487	6.96
685.894	7.11
686.302	7.29
686.709	7.49
687.116	7.69
687.524	7.96
687.931	8.24
688.338	8.53
688.745	8.86
689.152	9.24
689.559	9.62
689.966	10.03
690.373	10.49
690.78	10.96
691.187	11.47
691.593	12.01
692	12.55
692.407	13.13
692.813	13.72
693.22	14.33
693.626	14.95
694.032	15.59
694.439	16.25
694.845	16.91
695.251	17.59
695.657	18.26
696.063	18.94
696.469	19.65
696.875	20.32
697.281	21.02
697.687	21.72
698.093	22.41
698.498	23.09
698.904	23.77
699.31	24.44
699.715	25.12
700.12	25.79
700.526	26.46
700.931	27.13
701.337	27.82
701.742	28.46
702.147	29.1
702.552	29.72
702.957	30.35
703.362	30.99
703.767	31.59
704.172	32.19
704.577	32.77
704.981	33.36
705.386	33.93
705.791	34.49
706.195	35.05
706.6	35.6
707.004	36.17
707.408	36.71
707.813	37.24
708.217	37.77
708.621	38.3
709.025	38.83
709.43	39.34
709.834	39.85
710.237	40.32
710.641	40.83
711.045	41.29
711.449	41.75
711.853	42.22
712.256	42.68
712.66	43.16
713.064	43.61
713.467	44.05
713.87	44.49
714.274	44.92
714.677	45.36
715.08	45.75
715.484	46.2
715.887	46.62
716.29	47.03
716.693	47.42
717.096	47.78
717.499	48.17
717.901	48.55
718.304	48.92
718.707	49.26
719.109	49.64
719.512	50.01
719.915	50.35
720.317	50.69
720.719	51.03
721.122	51.31
721.524	51.65
721.926	51.96
722.328	52.26
722.731	52.54
723.133	52.85
723.535	53.11
723.937	53.4
724.338	53.64
724.74	53.89
725.142	54.02
725.544	54.28
725.945	54.49
726.347	54.7
726.748	54.9
727.15	55.1
727.551	55.3
727.952	55.53
728.354	55.72
728.755	55.93
729.156	56.12
729.557	56.42
729.958	56.63
730.359	56.82
730.76	57
731.161	57.19
731.562	57.36
731.962	57.52
732.363	57.6
732.763	57.74
733.164	57.84
733.564	57.95
733.965	58.06
734.365	58.11
734.766	58.23
735.166	58.26
735.566	58.32
735.966	58.38
736.366	58.48
736.766	58.6
737.166	58.69
737.566	58.77
737.966	58.87
738.365	58.95
738.765	59.06
739.165	59.1
739.564	59.21
739.964	59.3
740.363	59.4
740.763	59.41
741.162	59.42
741.561	59.47
741.96	59.53
742.36	59.56
742.759	59.58
743.158	59.59
743.557	59.62
743.955	59.7
744.354	59.72
744.753	59.77
745.152	59.84
745.55	59.91
745.949	59.93
746.348	59.98
746.746	60.06
747.144	60.13
747.543	60.19
747.941	60.28
748.339	60.34
748.737	60.42
749.136	60.45
749.534	60.51
749.932	60.55
750.33	60.58
750.727	60.6
751.125	60.6
751.523	60.62
751.921	60.7
752.318	60.69
752.716	60.65
753.113	60.62
753.511	60.62
753.908	60.59
754.305	60.54
754.703	60.53
755.1	60.53
755.497	60.53
755.894	60.53
756.291	60.51
756.688	60.51
757.085	60.51
757.482	60.57
757.878	60.57
758.275	60.6
758.672	60.69
759.068	60.75
759.465	60.76
759.861	60.75
760.258	60.72
760.654	60.71
761.05	60.69
761.447	60.69
761.843	60.65
762.239	60.66
762.635	60.67
763.031	60.59
763.427	60.56
763.822	60.54
764.218	60.51
764.614	60.52
765.01	60.51
765.405	60.52
765.801	60.5
766.196	60.49
766.592	60.45
766.987	60.44
767.382	60.46
767.778	60.47
768.173	60.5
768.568	60.5
768.963	60.49
769.358	60.47
769.753	60.49
770.148	60.46
770.542	60.44
770.937	60.41
771.332	60.39
771.726	60.36
772.121	60.3
772.515	60.28
772.91	60.31
773.304	60.32
773.699	60.32
774.093	60.29
774.487	60.34
774.881	60.37
775.275	60.39
775.669	60.38
776.063	60.38
776.457	60.35
776.851	60.31
777.245	60.27
777.638	60.27
778.032	60.25
778.425	60.26
778.819	60.24
779.212	60.19
779.606	60.2
779.999	60.22
780.392	60.24
780.786	60.26
781.179	60.31
781.572	60.35
781.965	60.32
782.358	60.32
782.751	60.34
783.143	60.35
783.536	60.41
783.929	60.45
784.322	60.46
784.714	60.46
785.107	60.5
785.499	60.49
785.891	60.48
786.284	60.48
786.676	60.55
787.068	60.52
787.46	60.51
787.852	60.5
788.245	60.48
788.636	60.48
789.028	60.47
789.42	60.43
789.812	60.43
790.204	60.41
790.595	60.43
790.987	60.4
791.378	60.45
791.77	60.48
792.161	60.46
792.553	60.47
792.944	60.51
793.335	60.53
793.726	60.51
794.117	60.54
794.508	60.58
794.899	60.61
795.29	60.59
795.681	60.58
796.072	60.59
796.463	60.55
796.853	60.54
797.244	60.52
797.634	60.49
798.025	60.55
798.415	60.51
798.806	60.53
799.196	60.57
799.586	60.57
799.976	60.55
800.366	60.56
800.756	60.61
801.146	60.58
801.536	60.62
801.926	60.64
802.316	60.64
802.706	60.66
803.095	60.65
803.485	60.61
803.874	60.6
804.264	60.62
804.653	60.56
805.043	60.55
805.432	60.54
805.821	60.5
806.21	60.54
806.599	60.6
806.988	60.63
807.377	60.63
807.766	60.66
808.155	60.69
808.544	60.68
808.933	60.73
809.321	60.76
809.71	60.83
810.098	60.84
810.487	60.79
810.875	60.72
811.264	60.71
811.652	60.71
812.04	60.69
812.428	60.7
812.816	60.72
813.204	60.73
813.592	60.72
813.98	60.69
814.368	60.69
814.756	60.74
815.144	60.77
815.531	60.77
815.919	60.79
816.306	60.79
816.694	60.81
817.081	60.8
817.469	60.81
817.856	60.87
818.243	60.87
818.63	60.95
819.017	60.94
819.404	60.93
819.791	60.94
820.178	60.95
820.565	60.98
820.952	60.98
821.339	61.02
821.725	61.06
822.112	61.07
822.498	61.1
822.885	61.08
823.271	61.12
823.657	61.15
824.044	61.15
824.43	61.19
824.816	61.17
825.202	61.17
825.588	61.18
825.974	61.14
826.36	61.13
826.746	61.17
827.132	61.14
827.517	61.13
827.903	61.13
828.289	61.13
828.674	61.1
829.06	61.13
829.445	61.16
829.83	61.15
830.216	61.19
830.601	61.19
830.986	61.17
831.371	61.2
831.756	61.17
832.141	61.18
832.526	61.19
832.911	61.24
833.295	61.26
833.68	61.26
834.065	61.28
834.449	61.26
834.834	61.25
835.218	61.26
835.603	61.25
835.987	61.26
836.371	61.25
836.755	61.25
837.139	61.22
837.524	61.19
837.908	61.15
838.291	61.15
838.675	61.14
839.059	61.15
839.443	61.16
839.827	61.17
840.21	61.2
840.594	61.2
840.977	61.21
841.361	61.2
841.744	61.19
842.127	61.23
842.511	61.21
842.894	61.2
843.277	61.18
843.66	61.2
844.043	61.2
844.426	61.16
844.809	61.14
845.191	61.14
845.574	61.13
845.957	61.1
846.339	61.09
846.722	61.12
847.104	61.14
847.487	61.15
847.869	61.09
848.252	61.07
848.634	61.13
849.016	61.17
849.398	61.16
849.78	61.17
850.162	61.2
850.544	61.21
850.926	61.18
851.307	61.19
851.689	61.15
852.071	61.17
852.452	61.18
852.834	61.13
853.215	61.09
853.597	61.12
853.978	61.12
854.359	61.11
854.741	61.12
855.122	61.13
855.503	61.12
855.884	61.15
856.265	61.17
856.646	61.15
857.026	61.16
857.407	61.14
857.788	61.13
858.169	61.1
858.549	61.12
858.93	61.13
859.31	61.13
859.69	61.12
860.071	61.11
860.451	61.11
860.831	61.12
861.211	61.12
861.591	61.17
861.971	61.15
862.351	61.19
862.731	61.19
863.111	61.17
863.491	61.17
863.87	61.18
864.25	61.19
864.629	61.17
865.009	61.17
865.388	61.16
865.768	61.13
866.147	61.15
866.526	61.12
866.905	61.11
867.284	61.13
867.663	61.14
868.042	61.13
868.421	61.13
868.8	61.15
869.179	61.14
869.558	61.16
869.936	61.14
870.315	61.12
870.693	61.13
871.072	61.13
871.45	61.14
871.828	61.13
872.207	61.14
872.585	61.12
872.963	61.12
873.341	61.13
873.719	61.11
874.097	61.13
874.475	61.17
874.853	61.17
875.23	61.14
875.608	61.13
875.986	61.14
876.363	61.15
876.741	61.16
877.118	61.18
877.495	61.18
877.873	61.22
878.25	61.2
878.627	61.18
879.004	61.21
879.381	61.24
879.758	61.23
880.135	61.22
880.512	61.23
880.889	61.24
881.265	61.25
881.642	61.23
882.019	61.19
882.395	61.17
882.772	61.17
883.148	61.15
883.524	61.15
883.901	61.12
884.277	61.13
884.653	61.1
885.029	61.1
885.405	61.07
885.781	61.07
886.157	61.1
886.532	61.13
886.908	61.18
887.284	61.18
887.659	61.17
888.035	61.18
888.411	61.17
888.786	61.15
889.161	61.17
889.537	61.2
889.912	61.19
890.287	61.19
890.662	61.2
891.037	61.14
891.412	61.08
891.787	61.1
892.162	61.09
892.536	61.09
892.911	61.09
893.286	61.02
893.66	60.99
894.035	60.97
894.409	60.94
894.784	60.91
895.158	60.95
895.532	60.98
895.906	60.94
896.281	60.93
896.655	60.91
897.029	60.91
897.402	60.94
897.776	60.93
898.15	60.94
898.524	60.93
898.898	60.91
899.271	60.87
899.645	60.86
900.018	60.89
900.392	60.92
900.765	60.93
901.138	60.92
901.511	60.88
901.884	60.87
902.258	60.86
902.631	60.86
903.003	60.89
903.376	60.86
903.749	60.85
904.122	60.82
904.495	60.8
904.867	60.77
905.24	60.77
905.612	60.77
905.985	60.78
906.357	60.75
906.729	60.72
907.102	60.71
907.474	60.75
907.846	60.74
908.218	60.69
908.59	60.64
908.962	60.66
909.334	60.66
909.705	60.66
910.077	60.61
910.449	60.62
910.82	60.62
911.192	60.56
911.563	60.49
911.935	60.47
912.306	60.49
912.677	60.49
913.048	60.42
913.419	60.39
913.79	60.35
914.161	60.34
914.532	60.32
914.903	60.28
915.274	60.26
915.645	60.27
916.015	60.29
916.386	60.23
916.756	60.2
917.127	60.22
917.497	60.21
917.868	60.23
918.238	60.26
918.608	60.23
918.978	60.23
919.348	60.23
919.718	60.21
920.088	60.19
920.458	60.29
920.828	60.33
921.198	60.32
921.567	60.28
921.937	60.24
922.306	60.24
922.676	60.26
923.045	60.23
923.415	60.22
923.784	60.22
924.153	60.19
924.522	60.13
924.891	60.09
925.26	60.06
925.629	60.05
925.998	60.06
926.367	60.03
926.736	59.97
927.104	59.95
927.473	59.95
927.842	59.91
928.21	59.89
928.578	59.82
928.947	59.77
929.315	59.75
929.683	59.8
930.051	59.77
930.42	59.72
930.788	59.77
931.156	59.74
931.523	59.73
931.891	59.71
932.259	59.66
932.627	59.61
932.994	59.57
933.362	59.51
933.729	59.4
934.097	59.37
934.464	59.31
934.831	59.18
935.199	59.11
935.566	58.97
935.933	58.92
936.3	58.86
936.667	58.81
937.034	58.74
937.401	58.62
937.767	58.54
938.134	58.44
938.501	58.36
938.867	58.39
939.234	58.4
939.6	58.4
939.967	58.4
940.333	58.5
940.699	58.62
941.065	58.68
941.431	58.81
941.798	58.99
942.163	59.09
942.529	59.12
942.895	59.17
943.261	59.23
943.627	59.33
943.992	59.44
944.358	59.41
944.723	59.4
945.089	59.5
945.454	59.57
945.82	59.5
946.185	59.52
946.55	59.64
946.915	59.63
947.28	59.63
947.645	59.68
948.01	59.66
948.375	59.71
948.74	59.65
949.104	59.67
949.469	59.58
949.834	59.58
950.198	59.52
950.562	59.49
950.927	59.53
951.291	59.49
951.655	59.39
952.02	59.4
952.384	59.35
952.748	59.39
953.112	59.29
953.476	59.32
953.839	59.36
954.203	59.37
954.567	59.3
954.931	59.29
955.294	59.3
955.658	59.33
956.021	59.31
956.385	59.3
956.748	59.26
957.111	59.21
957.474	59.19
957.837	59.14
958.2	59.06
958.563	59.05
958.926	58.93
959.289	58.88
959.652	58.89
960.015	58.8
960.377	58.77
960.74	58.7
961.102	58.69
961.465	58.63
961.827	58.46
962.189	58.46
962.552	58.45
962.914	58.39
963.276	58.42
963.638	58.3
964	58.3
964.362	58.27
964.724	58.28
965.085	58.3
965.447	58.24
965.809	58.3
966.17	58.33
966.532	58.35
966.893	58.45
967.255	58.4
967.616	58.43
967.977	58.37
968.338	58.33
968.699	58.34
969.061	58.31
969.421	58.25
969.782	58.28
970.143	58.22
970.504	58.11
970.865	58
971.225	57.97
971.586	58
971.946	58.05
972.307	58.04
972.667	57.99
973.027	58.01
973.388	58.06
973.748	58.1
974.108	58.05
974.468	58.12
974.828	58.18
975.188	58.21
975.548	58.19
975.907	58.17
976.267	58.16
976.627	58.14
976.986	58.16
977.346	58.24
977.705	58.15
978.064	58.18
978.424	58.11
978.783	58.08
979.142	57.94
979.501	57.81
979.86	57.77
980.219	57.67
980.578	57.67
980.937	57.59
981.296	57.47
981.654	57.5
982.013	57.45
982.371	57.44
982.73	57.41
983.088	57.52
983.447	57.66
983.805	57.62
984.163	57.77
984.521	57.74
984.879	57.74
985.237	57.82
985.595	57.87
985.953	57.9
986.311	57.93
986.669	57.87
987.026	57.75
987.384	57.74
987.741	57.75
988.099	57.65
988.456	57.65
988.814	57.63
989.171	57.55
989.528	57.48
989.885	57.44
990.242	57.47
990.599	57.48
990.956	57.53
991.313	57.43
991.67	57.44
992.027	57.34
992.383	57.28
992.74	57.21
993.096	57.18
993.453	57.29
993.809	57.36
994.165	57.29
994.522	57.2
994.878	57.17
995.234	57.08
995.59	57.01
995.946	57.17
996.302	57.15
996.658	57.24
997.013	57.31
997.369	57.08
997.725	57.01
998.08	57.1
998.436	57.23
998.791	57.06
999.147	57.15
999.502	57.12
999.857	57.18
1000.212	57.07
1000.567	57.03
1000.922	56.86
1001.277	56.77
1001.632	56.9
1001.987	56.85
1002.342	56.76
1002.696	56.97
1003.051	56.76
1003.406	56.67
1003.76	56.47
1004.114	56.59
1004.469	56.45
1004.823	56.42
1005.177	56.57
1005.531	56.29
1005.885	56.26
1006.239	56.21
1006.593	55.93
1006.947	56.03
1007.301	56.3
1007.655	56.38
1008.008	56.42
1008.362	56.39
1008.715	56.38
1009.069	56.2
1009.422	55.99
1009.776	55.87
1010.129	55.88
1010.482	56.09
1010.835	56.13
1011.188	55.71
1011.541	55.43
1011.894	55.26
1012.247	55.2
1012.6	55.18
1012.952	55.19
1013.305	55.32
1013.657	55.23
1014.01	55.37
1014.362	55.2
1014.715	55.08
1015.067	55.39
1015.419	55.61
1015.771	55.9
1016.123	56.05
1016.475	56.04
1016.827	56
1017.179	56.22
1017.531	56.15
1017.883	56.16
1018.234	56.01
1018.586	55.84
1018.938	55.42
1019.289	55.15
1019.64	55.2
1019.992	55.12
1020.343	55.03
1020.694	54.73
1021.045	54.33
1021.396	54.4
1021.747	53.95
1022.098	54.08
1022.449	54.26
1022.8	54.31
1023.151	54.11
1023.501	53.49
1023.852	53.42
1024.202	53.39
1024.553	53.68
1024.903	53.73
1025.253	53.6
1025.604	53.74
1025.954	53.51
1026.304	53.93
1026.654	54.08
1027.004	54.71
1027.354	54.79
1027.703	54.54
1028.053	54.2
1028.403	53.89
1028.753	54.24
1029.102	54.39
1029.452	54.53
1029.801	54.75
1030.15	54.29
1030.499	54.22
897.758	-92.79
901.051	-80.85
904.343	-81.33
907.636	-81.08
910.928	-74.25
914.22	-77.56
917.511	-77.53
920.803	-69.99
924.094	-64.99
927.384	-64.95
930.675	-59.32
933.965	-58.47
937.255	-63.45
940.544	-58.92
943.834	-56.16
947.123	-56.82
950.411	-47.73
953.7	-43.78
956.988	-42.71
960.276	-35.1
963.563	-30.68
966.851	-26.8
970.138	-23.82
973.424	-18.08
976.711	-17.01
979.997	-10.36
983.283	-10.93
986.568	-11.18
989.853	-6.47
993.138	-2.26
996.423	-4.36
999.708	-2.64
1002.992	-3.11
1006.275	0.77
1009.559	0.93
1012.842	2.91
1016.125	2.78
1019.408	4.69
1022.69	6.57
1025.972	6.69
1029.254	5.78
1032.536	8.4
1035.817	9.02
1039.098	11.61
1042.379	11.16
1045.659	12.86
1048.939	13.34
1052.219	15.14
1055.498	15.47
1058.778	16.66
1062.057	16.71
1065.335	19.26
1068.614	18.73
1071.892	19.42
1075.17	18.6
1078.447	20.3
1081.724	20.73
1085.001	20.62
1088.278	20.24
1091.554	20.91
1094.83	21
1098.106	21.79
1101.382	21.33
1104.657	22.18
1107.932	21.35
1111.206	23.23
1114.481	23.33
1117.755	22.81
1121.029	23.24
1124.302	24.04
1127.575	25.23
1130.848	24.86
1134.121	24.31
1137.393	24.86
1140.665	24.38
1143.937	25.26
1147.208	24.65
1150.48	25.02
1153.75	24.35
1157.021	25.86
1160.291	25.87
1163.561	24.8
1166.831	25.69
1170.101	25.94
1173.37	26.12
1176.639	26.21
1179.907	26.47
1183.176	26.48
1186.444	25.62
1189.711	26.06
1192.979	24.58
1196.246	25.37
1199.513	26.25
1202.78	25.51
1206.046	25.73
1209.312	25.19
1212.578	25.31
1215.843	24.67
1219.108	24.06
1222.373	24.14
1225.638	24
1228.902	23.76
1232.166	21.66
1235.43	19.54
1238.693	19.55
1241.956	17.85
1245.219	16.6
1248.482	18.03
1251.744	17.46
1255.006	18.28
1258.268	18.49
1261.529	19.12
1264.79	20.44
1268.051	21.04
1271.312	22.75
1274.572	22.24
1277.832	24.59
1281.092	25.37
1284.351	25.19
1287.61	25.43
1290.869	25.63
1294.128	25.9
1297.386	25.66
1300.644	25.39
1303.902	24.66
1307.159	24.76
1310.416	24.53
1313.673	23.28
1316.93	22.73
1320.186	22.14
1323.442	21.2
1326.697	19.7
1329.953	18.47
1333.208	16.71
1336.463	13.48
1339.717	13.96
1342.972	12.19
1346.226	10.69
1349.479	9.4
1352.733	7.7
1355.986	5.03
1359.238	4
1362.491	2.83
1365.743	1.91
1368.995	2
1372.247	1.92
1375.498	0.43
1378.749	-4.66
1382	-4.86
1385.251	-6.51
1388.501	-6.98
1391.751	-7.85
1395	-9.1
1398.25	-10.32
1401.499	-13.75
1404.748	-15.92
1407.996	-13.53
1411.244	-13.79
1414.492	-13.03
1417.74	-13.27
1420.987	-11.27
1424.234	-12.31
1427.481	-13.59
1430.728	-11.81
1433.974	-11.11
1437.22	-9.88
1440.465	-9.31
1443.711	-10.15
1446.956	-9.06
1450.201	-7.93
1453.445	-6.91
1456.689	-6.31
1459.933	-6.02
1463.177	-3.45
1466.42	-3.66
1469.663	-3.28
1472.906	-2.07
1476.148	-0.84
1479.391	0.04
1482.633	0.45
1485.874	2.01
1489.115	2.71
1492.356	3.61
1495.597	5.03
1498.838	5.52
1502.078	6.6
1505.318	7.21
1508.557	7.46
1511.797	8.66
1515.036	9.83
1518.274	10.41
1521.513	10.87
1524.751	11.16
1527.989	12.04
1531.227	12.46
1534.464	13.54
1537.701	14.18
1540.938	14.8
1544.174	15
1547.41	14.98
1550.646	15.78
1553.882	16.54
1557.117	17.11
1560.352	17.52
1563.587	17.48
1566.821	17.59
1570.055	18.33
1573.289	18.66
1576.523	18.79
1579.756	19.6
1582.989	20.44
1586.222	20.34
1589.454	20.4
1592.686	20.69
1595.918	20.5
1599.15	20.92
1602.381	21.1
1605.612	21.32
1608.843	21.23
1612.073	21.14
1615.303	21.89
1618.533	21.49
1621.762	21.42
1624.992	21.5
1628.221	21.33
1631.449	22.34
1634.678	22.72
1637.906	22.6
1641.134	22.29
1644.361	22.42
1647.588	23
1650.815	22.47
1654.042	23.4
1657.269	23.12
1660.495	23.35
1663.72	23.67
1666.946	22.95
1670.171	22.65
1673.396	22.99
1676.621	23.21
1679.845	24.1
1683.069	22.61
1686.293	22.5
1689.517	22.09
1692.74	22.38
1695.963	22.19
1699.185	21.7
1702.408	21.81
1705.63	21.68
1708.852	21.74
1712.073	20.81
1715.294	19.78
1718.515	21.34
1721.736	21.04
1724.956	20.58
1728.176	20.65
1731.396	20
1734.616	20.23
1737.835	20.03
1741.054	19.26
1744.272	19.3
1747.491	19.87
1750.709	19.36
1753.927	18.73
1757.144	19.09
1760.361	18.5
1763.578	18.02
1766.795	18.27
1770.011	18.02
1773.227	17.61
1776.443	17.67
1779.658	16.69
1782.874	16.44
1786.089	15.74
1789.303	15.85
1792.518	14.56
1795.732	14.96
1798.945	15.12
1802.159	14.99
1805.372	14.11
1808.585	13.92
1811.797	14.4
1815.01	14.43
1818.222	13.74
1821.434	15.08
1824.645	13.96
1827.856	14.23
1831.067	12.9
1834.278	12.38
1837.488	11.99
1840.698	11.68
1843.908	11.31
1847.117	10.21
1850.326	9.12
1853.535	9.49
1856.744	6.86
1859.952	6.71
1863.16	5.42
1866.368	5.32
1869.575	3.65
1872.782	1.55
1875.989	-1.56
1879.196	-1.02
1882.402	-3.8
1885.608	-3.79
1888.814	-6.9
1892.019	-8.99
1895.224	-10.77
1898.429	-11.63
1901.634	-13.18
1904.838	-15.87
1908.042	-16.17
1911.246	-15.16
1914.449	-17.24
1917.652	-17.19
1920.855	-18.49
1924.058	-19.06
1927.26	-19.7
1930.462	-19.31
1933.664	-18.31
1936.865	-18.08
1940.066	-17.04
1943.267	-18.05
1946.467	-17.72
1949.668	-18.43
1952.868	-17.43
1956.067	-17.65
1959.267	-16.63
1962.466	-16.47
1965.665	-16.28
1968.863	-17.05
1972.061	-17.89
1975.259	-17.32
1978.457	-17.42
1981.654	-17.28
1984.852	-17.28
1988.048	-17.73
1991.245	-17.14
1994.441	-17.07
1997.637	-17.18
2000.833	-16.46
2004.028	-17.77
2007.223	-18.84
2010.418	-18.65
2013.613	-17.45
2016.807	-18.79
2020.001	-18.98
2023.194	-19.18
2026.388	-20.75
2029.581	-22.71
2032.774	-24.29
2035.966	-26.5
2039.158	-25.05
2042.35	-25.43
2045.542	-26.99
2048.733	-29.96
2051.924	-31.05
2055.115	-31.61
2058.306	-32.49
2061.496	-33.98
2064.686	-33.62
2067.875	-30.27
2071.065	-28.98
2074.254	-31.35
2077.442	-32.68
2080.631	-32.09
2083.819	-31.27
2087.007	-31.54
2090.195	-32.62
2093.382	-32.96
2096.569	-32.54
2099.756	-30.76
2102.942	-34.17
2106.128	-37.8
2109.314	-34.89
2112.5	-32.9
2115.685	-35.01
2118.87	-35.85
2122.055	-34.25
2125.239	-37.46
2128.424	-36.17
2131.608	-37.75
2134.791	-39.1
2137.974	-38.46
2141.157	-38.07
2144.34	-39.84
2147.523	-40.75
2150.705	-40.75
2153.887	-40.45
2157.068	-41.98
2160.25	-40.59
2163.431	-40
2166.611	-39.15
2169.792	-41.28
2172.972	-41.79
2176.152	-39.63
2179.331	-42.6
2182.511	-42.83
2185.69	-44.09
2188.868	-47.85
2192.047	-51.11
2195.225	-49.81
2198.403	-58.78
2201.58	-55.76
2204.758	-57.32
2207.935	-60.11
2211.111	-65.4
2214.288	-62.89
2217.464	-62.57
2220.64	-59.88
2223.815	-60.81
2226.991	-56.59
2230.166	-57.11
2233.34	-55.61
2236.515	-61.01
2239.689	-61.12
2242.863	-59.55
2246.036	-56.84
2249.209	-63.27
2252.382	-62.02
2255.555	-67.55
2258.727	-67.59
2261.9	-75.98
2265.071	-77.31
2268.243	-70.43
2271.414	-77.37
2274.585	-79.9
2277.756	-80.27
2280.926	-86.21
2284.096	-80.53
2287.266	-85.96
2290.436	-82.26
2293.605	-80.48
2296.774	-80.86
2299.942	-83.63
2303.111	-89.06
2306.279	-85.27
2309.447	-84.69
2312.614	-85.64
2315.781	-90.04
2318.948	-93.51
2322.115	-93.08
2325.281	-108.34
2328.447	-112.15
2331.613	-110.78
2334.779	-112.04
2337.944	-120.66
2341.109	-126.39
2344.274	-123.94
2347.438	-131.85
2350.602	-129.17
2353.766	-147.84
2356.929	-148.85
2360.092	-140.21
2363.255	-137.88
2366.418	-141.21
2369.58	-145.22
2372.742	-135.45
2375.904	-130.94
2379.066	-138.76
2382.227	-146.4
2385.388	-158.97
2388.548	-137.01
2391.709	-131.74
2394.869	-143.91
2398.029	-136.77
2401.188	-140.07
2404.347	-147.4
2407.506	-157.95
2410.665	-153.59
2413.823	-155.14
2416.981	-155.21
2420.139	-132.74
2423.296	-151.85
2426.453	-169
2429.61	-152.84
2432.767	-175.27
2435.923	-173.2
2439.079	-159.37
2442.235	-167.65
2445.391	-169.04
2448.546	-164.58
2451.701	-179.92
2454.855	-201.17
2458.009	-162.09
2461.163	-163.67
2464.317	-168.63
2467.471	-161.4
2470.624	-170.41
2473.777	-173.35
2476.929	-159.12
2480.082	-175.15
2483.234	-188.25
2486.385	-193.26
2489.537	-198.31
2492.688	-227.33
2495.839	-229.34
2498.989	-241.76
2502.14	-239.76
2505.29	-228.96
2508.439	-261.61
2511.589	-274.05
2514.738	-265.08
2517.887	-262.02
2521.035	-237.02
2524.183	-238.81
2527.331	-235.41
2530.479	-225.02
2533.627	-228.04
