Data from c_1_div_oh_2n_027_Splice17_08.txt Node
Date: Sat Feb 29 13:21:30 EST 2020
User: sa697716
Spectrometer: FLMS03696
Trigger mode: 0
Integration Time (sec): 3.180400E-1
Scans to average: 20
Electric dark correction enabled: true
Nonlinearity correction enabled: true
Boxcar width: 5
XAxis mode: Wavelengths
Number of Pixels in Spectrum: 2048
>>>>>Begin Spectral Data<<<<<
187.83	75.05
188.298	65.84
188.766	55.94
189.233	38.98
189.701	52.23
190.169	60.98
190.636	64.88
191.104	75.71
191.571	225.44
192.039	194.02
192.506	213.94
192.974	5854.24
193.441	-293.41
193.908	48.82
194.375	-98.75
194.842	-57.3
195.31	19.3
195.777	13.79
196.244	48.1
196.711	60.7
197.177	58.91
197.644	59.05
198.111	59.24
198.578	60.04
199.045	61.38
199.511	61.78
199.978	61.81
200.445	61.23
200.911	61.46
201.378	61.31
201.844	61.59
202.31	62.32
202.777	62.49
203.243	62.39
203.709	62.2
204.176	61
204.642	60.66
205.108	60.58
205.574	61.12
206.04	60.71
206.506	60.38
206.972	59.79
207.438	58.95
207.903	58.61
208.369	57.28
208.835	56.72
209.301	56.29
209.766	55.3
210.232	54
210.697	52.93
211.163	52.11
211.628	51.26
212.094	50.22
212.559	49.31
213.024	48.19
213.49	47.61
213.955	46.46
214.42	45.37
214.885	43.97
215.35	42.62
215.815	39.96
216.28	37.57
216.745	35.13
217.21	32.54
217.675	30.09
218.14	27.71
218.604	25.57
219.069	23.78
219.534	22.19
219.998	21.01
220.463	19.98
220.927	19.27
221.392	18.45
221.856	17.79
222.32	17.19
222.785	16.64
223.249	16.22
223.713	15.9
224.177	15.51
224.642	15.24
225.106	14.9
225.57	14.6
226.034	14.32
226.497	14.06
226.961	13.78
227.425	13.52
227.889	13.29
228.353	13.04
228.816	12.81
229.28	12.59
229.744	12.38
230.207	12.22
230.671	12.02
231.134	11.82
231.597	11.66
232.061	11.49
232.524	11.35
232.987	11.2
233.45	11.05
233.914	10.91
234.377	10.79
234.84	10.67
235.303	10.54
235.766	10.42
236.229	10.32
236.691	10.21
237.154	10.11
237.617	10
238.08	9.9
238.542	9.82
239.005	9.72
239.468	9.62
239.93	9.53
240.393	9.43
240.855	9.32
241.317	9.22
241.78	9.13
242.242	9.04
242.704	8.95
243.166	8.86
243.629	8.78
244.091	8.69
244.553	8.6
245.015	8.53
245.477	8.45
245.939	8.38
246.4	8.32
246.862	8.26
247.324	8.22
247.786	8.15
248.247	8.08
248.709	8.02
249.17	7.97
249.632	7.9
250.093	7.82
250.555	7.75
251.016	7.69
251.477	7.62
251.939	7.55
252.4	7.48
252.861	7.43
253.322	7.38
253.783	7.33
254.244	7.27
254.705	7.23
255.166	7.2
255.627	7.16
256.088	7.12
256.549	7.09
257.009	7.04
257.47	7
257.931	6.94
258.391	6.89
258.852	6.84
259.312	6.8
259.773	6.76
260.233	6.71
260.694	6.66
261.154	6.61
261.614	6.56
262.074	6.51
262.534	6.46
262.994	6.43
263.455	6.39
263.915	6.35
264.374	6.3
264.834	6.25
265.294	6.22
265.754	6.18
266.214	6.15
266.673	6.12
267.133	6.09
267.593	6.07
268.052	6.03
268.512	6.01
268.971	5.99
269.431	5.98
269.89	5.96
270.349	5.93
270.809	5.91
271.268	5.9
271.727	5.88
272.186	5.86
272.645	5.84
273.104	5.82
273.563	5.8
274.022	5.78
274.481	5.76
274.94	5.74
275.399	5.72
275.857	5.71
276.316	5.69
276.775	5.66
277.233	5.64
277.692	5.62
278.15	5.6
278.609	5.57
279.067	5.55
279.525	5.52
279.984	5.5
280.442	5.48
280.9	5.47
281.358	5.44
281.816	5.44
282.274	5.42
282.732	5.41
283.19	5.4
283.648	5.4
284.106	5.39
284.564	5.4
285.021	5.4
285.479	5.39
285.937	5.37
286.394	5.36
286.852	5.35
287.309	5.34
287.767	5.31
288.224	5.29
288.682	5.27
289.139	5.25
289.596	5.22
290.053	5.19
290.511	5.16
290.968	5.14
291.425	5.12
291.882	5.09
292.339	5.06
292.796	5.04
293.252	5.02
293.709	5
294.166	4.97
294.623	4.95
295.079	4.94
295.536	4.91
295.992	4.9
296.449	4.89
296.905	4.87
297.362	4.85
297.818	4.84
298.274	4.82
298.731	4.81
299.187	4.8
299.643	4.79
300.099	4.78
300.555	4.76
301.011	4.75
301.467	4.74
301.923	4.73
302.379	4.72
302.835	4.71
303.291	4.7
303.746	4.69
304.202	4.67
304.658	4.66
305.113	4.65
305.569	4.65
306.024	4.63
306.479	4.63
306.935	4.63
307.39	4.62
307.845	4.61
308.301	4.61
308.756	4.62
309.211	4.63
309.666	4.62
310.121	4.62
310.576	4.62
311.031	4.61
311.486	4.62
311.94	4.61
312.395	4.61
312.85	4.61
313.305	4.6
313.759	4.6
314.214	4.59
314.668	4.59
315.123	4.58
315.577	4.57
316.032	4.57
316.486	4.56
316.94	4.55
317.394	4.54
317.849	4.52
318.303	4.52
318.757	4.5
319.211	4.47
319.665	4.46
320.119	4.44
320.572	4.44
321.026	4.42
321.48	4.4
321.934	4.4
322.387	4.39
322.841	4.37
323.295	4.36
323.748	4.35
324.202	4.35
324.655	4.34
325.108	4.33
325.562	4.31
326.015	4.3
326.468	4.29
326.921	4.27
327.374	4.26
327.827	4.26
328.28	4.26
328.733	4.25
329.186	4.25
329.639	4.24
330.092	4.24
330.545	4.24
330.997	4.25
331.45	4.25
331.903	4.26
332.355	4.26
332.808	4.25
333.26	4.25
333.713	4.26
334.165	4.26
334.617	4.26
335.069	4.27
335.522	4.27
335.974	4.27
336.426	4.27
336.878	4.27
337.33	4.27
337.782	4.27
338.234	4.26
338.686	4.26
339.137	4.27
339.589	4.26
340.041	4.25
340.493	4.24
340.944	4.23
341.396	4.22
341.847	4.2
342.299	4.18
342.75	4.16
343.201	4.14
343.653	4.12
344.104	4.09
344.555	4.07
345.006	4.05
345.457	4.04
345.908	4.03
346.359	4.02
346.81	4.03
347.261	4.02
347.712	4.02
348.163	4.01
348.613	4
349.064	3.99
349.515	3.99
349.965	3.98
350.416	3.98
350.866	3.99
351.317	3.98
351.767	3.96
352.217	3.96
352.668	3.95
353.118	3.95
353.568	3.95
354.018	3.96
354.468	3.96
354.918	3.96
355.368	3.96
355.818	3.96
356.268	3.96
356.718	3.96
357.168	3.96
357.617	3.95
358.067	3.95
358.517	3.95
358.966	3.95
359.416	3.96
359.865	3.96
360.315	3.95
360.764	3.95
361.213	3.94
361.663	3.95
362.112	3.96
362.561	3.96
363.01	3.96
363.459	3.96
363.908	3.96
364.357	3.96
364.806	3.95
365.255	3.97
365.703	3.97
366.152	3.98
366.601	3.99
367.05	3.99
367.498	4
367.947	4.01
368.395	4.02
368.844	4.03
369.292	4.03
369.74	4.04
370.189	4.04
370.637	4.05
371.085	4.06
371.533	4.06
371.981	4.07
372.429	4.07
372.877	4.07
373.325	4.08
373.773	4.08
374.221	4.09
374.669	4.1
375.116	4.1
375.564	4.1
376.012	4.11
376.459	4.13
376.907	4.14
377.354	4.16
377.801	4.18
378.249	4.2
378.696	4.23
379.143	4.24
379.591	4.27
380.038	4.29
380.485	4.31
380.932	4.32
381.379	4.33
381.826	4.35
382.273	4.36
382.72	4.37
383.166	4.38
383.613	4.4
384.06	4.42
384.506	4.43
384.953	4.45
385.4	4.47
385.846	4.49
386.292	4.53
386.739	4.54
387.185	4.58
387.631	4.6
388.078	4.64
388.524	4.64
388.97	4.67
389.416	4.69
389.862	4.71
390.308	4.74
390.754	4.77
391.2	4.79
391.645	4.82
392.091	4.83
392.537	4.86
392.983	4.88
393.428	4.92
393.874	4.94
394.319	4.97
394.765	4.99
395.21	5
395.655	5.02
396.101	5.04
396.546	5.06
396.991	5.07
397.436	5.08
397.881	5.1
398.326	5.12
398.771	5.15
399.216	5.17
399.661	5.19
400.106	5.21
400.551	5.21
400.995	5.21
401.44	5.2
401.885	5.21
402.329	5.23
402.774	5.22
403.218	5.23
403.663	5.21
404.107	5.21
404.551	5.21
404.995	5.21
405.44	5.21
405.884	5.23
406.328	5.23
406.772	5.23
407.216	5.22
407.66	5.23
408.104	5.23
408.547	5.24
408.991	5.24
409.435	5.24
409.879	5.25
410.322	5.26
410.766	5.25
411.209	5.26
411.653	5.26
412.096	5.26
412.54	5.26
412.983	5.27
413.426	5.29
413.869	5.3
414.312	5.32
414.756	5.34
415.199	5.36
415.642	5.38
416.085	5.4
416.527	5.43
416.97	5.44
417.413	5.44
417.856	5.44
418.298	5.42
418.741	5.43
419.184	5.42
419.626	5.42
420.069	5.43
420.511	5.42
420.953	5.41
421.396	5.41
421.838	5.43
422.28	5.45
422.722	5.47
423.164	5.49
423.606	5.5
424.048	5.5
424.49	5.49
424.932	5.47
425.374	5.48
425.816	5.47
426.258	5.47
426.699	5.43
427.141	5.41
427.582	5.4
428.024	5.41
428.465	5.42
428.907	5.42
429.348	5.43
429.789	5.45
430.231	5.45
430.672	5.46
431.113	5.5
431.554	5.53
431.995	5.56
432.436	5.57
432.877	5.56
433.318	5.54
433.759	5.56
434.2	5.58
434.64	5.59
435.081	5.6
435.522	5.63
435.962	5.62
436.403	5.64
436.843	5.65
437.284	5.67
437.724	5.7
438.164	5.74
438.604	5.75
439.045	5.76
439.485	5.77
439.925	5.78
440.365	5.79
440.805	5.79
441.245	5.8
441.685	5.82
442.125	5.84
442.564	5.87
443.004	5.88
443.444	5.92
443.883	5.94
444.323	5.96
444.762	5.99
445.202	6.04
445.641	6.09
446.081	6.14
446.52	6.15
446.959	6.19
447.398	6.24
447.837	6.31
448.276	6.34
448.716	6.38
449.154	6.42
449.593	6.48
450.032	6.51
450.471	6.53
450.91	6.53
451.349	6.57
451.787	6.57
452.226	6.56
452.664	6.53
453.103	6.53
453.541	6.54
453.98	6.54
454.418	6.51
454.856	6.49
455.295	6.48
455.733	6.47
456.171	6.46
456.609	6.48
457.047	6.48
457.485	6.47
457.923	6.46
458.361	6.45
458.798	6.45
459.236	6.46
459.674	6.47
460.111	6.49
460.549	6.48
460.987	6.5
461.424	6.49
461.862	6.48
462.299	6.49
462.736	6.48
463.173	6.49
463.611	6.49
464.048	6.5
464.485	6.49
464.922	6.49
465.359	6.5
465.796	6.47
466.233	6.48
466.67	6.49
467.106	6.49
467.543	6.51
467.98	6.52
468.416	6.52
468.853	6.53
469.29	6.56
469.726	6.55
470.162	6.56
470.599	6.58
471.035	6.58
471.471	6.59
471.907	6.59
472.344	6.59
472.78	6.59
473.216	6.58
473.652	6.57
474.088	6.58
474.523	6.58
474.959	6.59
475.395	6.6
475.831	6.6
476.266	6.6
476.702	6.61
477.138	6.59
477.573	6.58
478.008	6.6
478.444	6.58
478.879	6.57
479.314	6.56
479.75	6.55
480.185	6.54
480.62	6.54
481.055	6.53
481.49	6.51
481.925	6.51
482.36	6.51
482.795	6.5
483.229	6.52
483.664	6.52
484.099	6.53
484.534	6.53
484.968	6.54
485.403	6.55
485.837	6.55
486.271	6.58
486.706	6.61
487.14	6.64
487.574	6.65
488.009	6.67
488.443	6.71
488.877	6.74
489.311	6.77
489.745	6.81
490.179	6.86
490.613	6.91
491.046	6.95
491.48	7.02
491.914	7.08
492.348	7.14
492.781	7.21
493.215	7.28
493.648	7.36
494.082	7.44
494.515	7.53
494.948	7.63
495.382	7.73
495.815	7.83
496.248	7.94
496.681	8.04
497.114	8.17
497.547	8.29
497.98	8.42
498.413	8.55
498.846	8.69
499.279	8.84
499.711	8.99
500.144	9.16
500.577	9.33
501.009	9.5
501.442	9.68
501.874	9.87
502.306	10.08
502.739	10.27
503.171	10.49
503.603	10.72
504.036	10.96
504.468	11.21
504.9	11.46
505.332	11.72
505.764	12
506.196	12.29
506.627	12.58
507.059	12.87
507.491	13.19
507.923	13.5
508.354	13.83
508.786	14.15
509.217	14.48
509.649	14.83
510.08	15.18
510.512	15.53
510.943	15.89
511.374	16.25
511.805	16.63
512.237	17.01
512.668	17.39
513.099	17.8
513.53	18.22
513.961	18.62
514.391	19.01
514.822	19.42
515.253	19.83
515.684	20.25
516.114	20.67
516.545	21.08
516.975	21.5
517.406	21.92
517.836	22.32
518.267	22.73
518.697	23.15
519.127	23.58
519.558	23.98
519.988	24.39
520.418	24.79
520.848	25.19
521.278	25.6
521.708	25.99
522.138	26.36
522.567	26.73
522.997	27.09
523.427	27.42
523.857	27.73
524.286	28.07
524.716	28.38
525.145	28.7
525.575	28.98
526.004	29.28
526.433	29.55
526.863	29.82
527.292	30.08
527.721	30.33
528.15	30.58
528.579	30.82
529.008	31.04
529.437	31.25
529.866	31.42
530.295	31.62
530.724	31.81
531.152	31.99
531.581	32.15
532.01	32.31
532.438	32.46
532.867	32.61
533.295	32.74
533.723	32.87
534.152	32.99
534.58	33.1
535.008	33.2
535.436	33.28
535.865	33.35
536.293	33.44
536.721	33.5
537.149	33.56
537.576	33.61
538.004	33.66
538.432	33.74
538.86	33.78
539.287	33.84
539.715	33.9
540.143	33.96
540.57	34.01
540.998	34.07
541.425	34.14
541.852	34.2
542.28	34.25
542.707	34.31
543.134	34.36
543.561	34.4
543.988	34.45
544.415	34.49
544.842	34.53
545.269	34.56
545.696	34.58
546.123	34.59
546.549	34.64
546.976	34.69
547.403	34.7
547.829	34.72
548.256	34.75
548.682	34.77
549.108	34.8
549.535	34.81
549.961	34.8
550.387	34.79
550.813	34.8
551.24	34.76
551.666	34.77
552.092	34.76
552.518	34.74
552.943	34.72
553.369	34.68
553.795	34.65
554.221	34.61
554.646	34.58
555.072	34.56
555.498	34.52
555.923	34.46
556.349	34.35
556.774	34.28
557.199	34.19
557.625	34.09
558.05	33.99
558.475	33.87
558.9	33.78
559.325	33.67
559.75	33.53
560.175	33.4
560.6	33.28
561.025	33.14
561.449	33
561.874	32.86
562.299	32.72
562.723	32.57
563.148	32.4
563.572	32.22
563.997	32.06
564.421	31.9
564.846	31.72
565.27	31.54
565.694	31.37
566.118	31.2
566.542	31.01
566.966	30.82
567.39	30.62
567.814	30.43
568.238	30.21
568.662	30.02
569.086	29.79
569.509	29.6
569.933	29.37
570.357	29.15
570.78	28.93
571.204	28.7
571.627	28.48
572.05	28.3
572.474	28.09
572.897	27.9
573.32	27.69
573.743	27.49
574.166	27.3
574.589	27.12
575.012	26.96
575.435	26.8
575.858	26.64
576.281	26.48
576.704	26.3
577.126	26.17
577.549	26.05
577.972	25.92
578.394	25.78
578.817	25.65
579.239	25.51
579.661	25.39
580.084	25.25
580.506	25.13
580.928	25.02
581.35	24.92
581.772	24.8
582.194	24.68
582.616	24.56
583.038	24.47
583.46	24.36
583.882	24.26
584.303	24.15
584.725	24.06
585.147	23.95
585.568	23.86
585.99	23.77
586.411	23.7
586.833	23.63
587.254	23.56
587.675	23.49
588.096	23.41
588.518	23.35
588.939	23.28
589.36	23.21
589.781	23.17
590.202	23.1
590.623	23.03
591.043	22.96
591.464	22.89
591.885	22.83
592.305	22.76
592.726	22.72
593.147	22.68
593.567	22.64
593.987	22.61
594.408	22.57
594.828	22.54
595.248	22.51
595.669	22.47
596.089	22.42
596.509	22.36
596.929	22.33
597.349	22.28
597.769	22.21
598.189	22.16
598.608	22.1
599.028	22.02
599.448	21.94
599.867	21.88
600.287	21.82
600.706	21.76
601.126	21.7
601.545	21.63
601.965	21.55
602.384	21.47
602.803	21.39
603.222	21.31
603.641	21.24
604.061	21.15
604.48	21.04
604.898	20.94
605.317	20.84
605.736	20.74
606.155	20.62
606.574	20.51
606.992	20.41
607.411	20.29
607.829	20.14
608.248	20.01
608.666	19.88
609.085	19.76
609.503	19.64
609.921	19.53
610.339	19.42
610.758	19.32
611.176	19.2
611.594	19.08
612.012	18.96
612.43	18.89
612.847	18.79
613.265	18.7
613.683	18.59
614.101	18.47
614.518	18.34
614.936	18.22
615.353	18.12
615.771	18.02
616.188	17.92
616.606	17.82
617.023	17.71
617.44	17.61
617.857	17.52
618.274	17.46
618.691	17.4
619.108	17.33
619.525	17.26
619.942	17.21
620.359	17.16
620.776	17.09
621.192	17.05
621.609	17.02
622.026	16.97
622.442	16.92
622.859	16.88
623.275	16.84
623.691	16.82
624.108	16.8
624.524	16.77
624.94	16.74
625.356	16.72
625.772	16.7
626.188	16.68
626.604	16.67
627.02	16.66
627.436	16.65
627.852	16.62
628.268	16.61
628.683	16.57
629.099	16.55
629.514	16.52
629.93	16.51
630.345	16.47
630.761	16.45
631.176	16.42
631.591	16.36
632.007	16.3
632.422	16.24
632.837	16.18
633.252	16.13
633.667	16.05
634.082	15.97
634.497	15.86
634.911	15.75
635.326	15.63
635.741	15.51
636.155	15.38
636.57	15.26
636.984	15.11
637.399	14.95
637.813	14.79
638.228	14.63
638.642	14.47
639.056	14.33
639.47	14.18
639.884	14.03
640.298	13.86
640.712	13.7
641.126	13.53
641.54	13.38
641.954	13.23
642.368	13.07
642.781	12.92
643.195	12.75
643.609	12.59
644.022	12.43
644.436	12.26
644.849	12.12
645.262	11.97
645.676	11.84
646.089	11.69
646.502	11.56
646.915	11.45
647.328	11.32
647.741	11.21
648.154	11.11
648.567	11.01
648.98	10.94
649.393	10.85
649.805	10.76
650.218	10.69
650.631	10.63
651.043	10.57
651.456	10.5
651.868	10.44
652.28	10.36
652.693	10.27
653.105	10.2
653.517	10.11
653.929	10.04
654.341	9.95
654.753	9.84
655.165	9.73
655.577	9.61
655.989	9.49
656.401	9.37
656.813	9.24
657.224	9.13
657.636	8.99
658.047	8.86
658.459	8.71
658.87	8.58
659.282	8.46
659.693	8.3
660.104	8.17
660.515	8.06
660.926	7.94
661.338	7.82
661.749	7.7
662.159	7.56
662.57	7.45
662.981	7.34
663.392	7.24
663.803	7.13
664.213	7.04
664.624	6.96
665.035	6.86
665.445	6.78
665.855	6.72
666.266	6.65
666.676	6.59
667.086	6.55
667.497	6.49
667.907	6.43
668.317	6.38
668.727	6.34
669.137	6.31
669.547	6.3
669.956	6.26
670.366	6.24
670.776	6.22
671.186	6.22
671.595	6.21
672.005	6.21
672.414	6.21
672.824	6.23
673.233	6.25
673.642	6.25
674.052	6.25
674.461	6.29
674.87	6.32
675.279	6.36
675.688	6.38
676.097	6.43
676.506	6.48
676.915	6.53
677.323	6.59
677.732	6.64
678.141	6.7
678.549	6.79
678.958	6.85
679.366	6.91
679.775	7
680.183	7.09
680.592	7.2
681	7.3
681.408	7.42
681.816	7.54
682.224	7.7
682.632	7.88
683.04	8.07
683.448	8.27
683.856	8.52
684.264	8.78
684.671	9.08
685.079	9.4
685.487	9.77
685.894	10.15
686.302	10.57
686.709	11.01
687.116	11.48
687.524	12
687.931	12.55
688.338	13.12
688.745	13.73
689.152	14.37
689.559	15.02
689.966	15.7
690.373	16.44
690.78	17.17
691.187	17.92
691.593	18.69
692	19.48
692.407	20.27
692.813	21.1
693.22	21.9
693.626	22.7
694.032	23.51
694.439	24.35
694.845	25.16
695.251	25.98
695.657	26.77
696.063	27.56
696.469	28.35
696.875	29.11
697.281	29.85
697.687	30.66
698.093	31.38
698.498	32.14
698.904	32.85
699.31	33.53
699.715	34.23
700.12	34.92
700.526	35.6
700.931	36.24
701.337	36.92
701.742	37.55
702.147	38.12
702.552	38.73
702.957	39.33
703.362	39.93
703.767	40.51
704.172	41.08
704.577	41.65
704.981	42.17
705.386	42.71
705.791	43.24
706.195	43.73
706.6	44.26
707.004	44.77
707.408	45.24
707.813	45.7
708.217	46.14
708.621	46.59
709.025	47.02
709.43	47.45
709.834	47.89
710.237	48.26
710.641	48.68
711.045	49.03
711.449	49.39
711.853	49.76
712.256	50.16
712.66	50.54
713.064	50.88
713.467	51.22
713.87	51.59
714.274	51.92
714.677	52.26
715.08	52.58
715.484	52.93
715.887	53.27
716.29	53.58
716.693	53.85
717.096	54.14
717.499	54.45
717.901	54.73
718.304	54.99
718.707	55.26
719.109	55.56
719.512	55.84
719.915	56.1
720.317	56.33
720.719	56.55
721.122	56.81
721.524	57.03
721.926	57.25
722.328	57.46
722.731	57.67
723.133	57.9
723.535	58.06
723.937	58.25
724.338	58.41
724.74	58.56
725.142	58.67
725.544	58.81
725.945	58.95
726.347	59.11
726.748	59.23
727.15	59.36
727.551	59.48
727.952	59.61
728.354	59.75
728.755	59.92
729.156	60.09
729.557	60.29
729.958	60.43
730.359	60.56
730.76	60.65
731.161	60.81
731.562	60.92
731.962	61.02
732.363	61.11
732.763	61.23
733.164	61.26
733.564	61.3
733.965	61.35
734.365	61.41
734.766	61.48
735.166	61.52
735.566	61.54
735.966	61.57
736.366	61.58
736.766	61.65
737.166	61.67
737.566	61.72
737.966	61.79
738.365	61.86
738.765	61.93
739.165	61.94
739.564	61.99
739.964	62.03
740.363	62.1
740.763	62.15
741.162	62.16
741.561	62.2
741.96	62.26
742.36	62.29
742.759	62.27
743.158	62.25
743.557	62.27
743.955	62.33
744.354	62.36
744.753	62.39
745.152	62.41
745.55	62.46
745.949	62.45
746.348	62.45
746.746	62.44
747.144	62.5
747.543	62.55
747.941	62.64
748.339	62.68
748.737	62.74
749.136	62.74
749.534	62.77
749.932	62.78
750.33	62.8
750.727	62.87
751.125	62.89
751.523	62.9
751.921	62.91
752.318	62.88
752.716	62.84
753.113	62.84
753.511	62.85
753.908	62.85
754.305	62.83
754.703	62.83
755.1	62.79
755.497	62.78
755.894	62.79
756.291	62.76
756.688	62.77
757.085	62.78
757.482	62.74
757.878	62.73
758.275	62.73
758.672	62.74
759.068	62.77
759.465	62.77
759.861	62.77
760.258	62.72
760.654	62.72
761.05	62.74
761.447	62.74
761.843	62.74
762.239	62.72
762.635	62.71
763.031	62.71
763.427	62.69
763.822	62.69
764.218	62.69
764.614	62.7
765.01	62.68
765.405	62.64
765.801	62.62
766.196	62.6
766.592	62.63
766.987	62.64
767.382	62.63
767.778	62.66
768.173	62.65
768.568	62.61
768.963	62.61
769.358	62.6
769.753	62.61
770.148	62.6
770.542	62.62
770.937	62.62
771.332	62.63
771.726	62.59
772.121	62.55
772.515	62.55
772.91	62.58
773.304	62.57
773.699	62.56
774.093	62.54
774.487	62.54
774.881	62.5
775.275	62.49
775.669	62.47
776.063	62.45
776.457	62.46
776.851	62.43
777.245	62.41
777.638	62.42
778.032	62.43
778.425	62.45
778.819	62.42
779.212	62.42
779.606	62.41
779.999	62.43
780.392	62.44
780.786	62.4
781.179	62.4
781.572	62.4
781.965	62.41
782.358	62.39
782.751	62.41
783.143	62.42
783.536	62.45
783.929	62.5
784.322	62.51
784.714	62.56
785.107	62.61
785.499	62.65
785.891	62.64
786.284	62.63
786.676	62.66
787.068	62.66
787.46	62.68
787.852	62.68
788.245	62.61
788.636	62.57
789.028	62.51
789.42	62.49
789.812	62.44
790.204	62.43
790.595	62.42
790.987	62.4
791.378	62.39
791.77	62.38
792.161	62.37
792.553	62.37
792.944	62.4
793.335	62.43
793.726	62.4
794.117	62.4
794.508	62.43
794.899	62.43
795.29	62.4
795.681	62.39
796.072	62.4
796.463	62.38
796.853	62.43
797.244	62.42
797.634	62.37
798.025	62.4
798.415	62.43
798.806	62.42
799.196	62.47
799.586	62.49
799.976	62.48
800.366	62.51
800.756	62.51
801.146	62.47
801.536	62.43
801.926	62.45
802.316	62.46
802.706	62.43
803.095	62.41
803.485	62.37
803.874	62.38
804.264	62.42
804.653	62.36
805.043	62.34
805.432	62.29
805.821	62.31
806.21	62.32
806.599	62.35
806.988	62.37
807.377	62.39
807.766	62.41
808.155	62.43
808.544	62.4
808.933	62.4
809.321	62.44
809.71	62.51
810.098	62.52
810.487	62.51
810.875	62.47
811.264	62.47
811.652	62.47
812.04	62.46
812.428	62.43
812.816	62.45
813.204	62.47
813.592	62.45
813.98	62.43
814.368	62.41
814.756	62.39
815.144	62.41
815.531	62.38
815.919	62.36
816.306	62.35
816.694	62.38
817.081	62.36
817.469	62.37
817.856	62.42
818.243	62.42
818.63	62.44
819.017	62.47
819.404	62.46
819.791	62.48
820.178	62.52
820.565	62.53
820.952	62.49
821.339	62.53
821.725	62.52
822.112	62.51
822.498	62.52
822.885	62.54
823.271	62.56
823.657	62.55
824.044	62.53
824.43	62.52
824.816	62.51
825.202	62.54
825.588	62.52
825.974	62.54
826.36	62.52
826.746	62.56
827.132	62.48
827.517	62.48
827.903	62.48
828.289	62.5
828.674	62.51
829.06	62.54
829.445	62.58
829.83	62.6
830.216	62.61
830.601	62.65
830.986	62.62
831.371	62.69
831.756	62.64
832.141	62.67
832.526	62.68
832.911	62.69
833.295	62.71
833.68	62.69
834.065	62.67
834.449	62.63
834.834	62.6
835.218	62.6
835.603	62.57
835.987	62.59
836.371	62.58
836.755	62.56
837.139	62.54
837.524	62.53
837.908	62.49
838.291	62.48
838.675	62.52
839.059	62.52
839.443	62.53
839.827	62.54
840.21	62.55
840.594	62.54
840.977	62.54
841.361	62.54
841.744	62.55
842.127	62.57
842.511	62.56
842.894	62.54
843.277	62.56
843.66	62.56
844.043	62.59
844.426	62.57
844.809	62.56
845.191	62.55
845.574	62.54
845.957	62.49
846.339	62.42
846.722	62.44
847.104	62.43
847.487	62.42
847.869	62.38
848.252	62.35
848.634	62.38
849.016	62.41
849.398	62.4
849.78	62.41
850.162	62.42
850.544	62.49
850.926	62.46
851.307	62.48
851.689	62.45
852.071	62.48
852.452	62.5
852.834	62.46
853.215	62.48
853.597	62.49
853.978	62.46
854.359	62.46
854.741	62.45
855.122	62.49
855.503	62.48
855.884	62.49
856.265	62.47
856.646	62.45
857.026	62.46
857.407	62.41
857.788	62.39
858.169	62.42
858.549	62.43
858.93	62.41
859.31	62.38
859.69	62.37
860.071	62.35
860.451	62.35
860.831	62.35
861.211	62.32
861.591	62.33
861.971	62.34
862.351	62.33
862.731	62.3
863.111	62.32
863.491	62.33
863.87	62.3
864.25	62.32
864.629	62.3
865.009	62.27
865.388	62.29
865.768	62.33
866.147	62.34
866.526	62.33
866.905	62.34
867.284	62.32
867.663	62.33
868.042	62.33
868.421	62.34
868.8	62.35
869.179	62.37
869.558	62.38
869.936	62.35
870.315	62.35
870.693	62.33
871.072	62.33
871.45	62.33
871.828	62.31
872.207	62.34
872.585	62.32
872.963	62.29
873.341	62.3
873.719	62.26
874.097	62.25
874.475	62.25
874.853	62.29
875.23	62.27
875.608	62.28
875.986	62.26
876.363	62.23
876.741	62.26
877.118	62.28
877.495	62.29
877.873	62.31
878.25	62.29
878.627	62.29
879.004	62.27
879.381	62.31
879.758	62.26
880.135	62.3
880.512	62.31
880.889	62.29
881.265	62.3
881.642	62.27
882.019	62.3
882.395	62.35
882.772	62.33
883.148	62.33
883.524	62.32
883.901	62.37
884.277	62.35
884.653	62.36
885.029	62.37
885.405	62.35
885.781	62.37
886.157	62.36
886.532	62.32
886.908	62.36
887.284	62.38
887.659	62.39
888.035	62.38
888.411	62.33
888.786	62.3
889.161	62.3
889.537	62.33
889.912	62.32
890.287	62.3
890.662	62.3
891.037	62.25
891.412	62.18
891.787	62.18
892.162	62.17
892.536	62.19
892.911	62.2
893.286	62.18
893.66	62.17
894.035	62.16
894.409	62.17
894.784	62.17
895.158	62.18
895.532	62.19
895.906	62.16
896.281	62.16
896.655	62.16
897.029	62.12
897.402	62.11
897.776	62.09
898.15	62.09
898.524	62.05
898.898	62
899.271	62.02
899.645	62.04
900.018	62.03
900.392	62.02
900.765	62.01
901.138	62.07
901.511	62.05
901.884	62.04
902.258	62.01
902.631	62.03
903.003	62.04
903.376	62.02
903.749	62.03
904.122	62.04
904.495	62.07
904.867	62.07
905.24	62
905.612	62
905.985	62
906.357	62.02
906.729	61.99
907.102	61.98
907.474	62.02
907.846	61.96
908.218	61.94
908.59	61.86
908.962	61.83
909.334	61.82
909.705	61.83
910.077	61.8
910.449	61.81
910.82	61.82
911.192	61.79
911.563	61.75
911.935	61.69
912.306	61.71
912.677	61.72
913.048	61.72
913.419	61.72
913.79	61.73
914.161	61.72
914.532	61.68
914.903	61.69
915.274	61.68
915.645	61.66
916.015	61.68
916.386	61.65
916.756	61.61
917.127	61.6
917.497	61.62
917.868	61.6
918.238	61.61
918.608	61.63
918.978	61.59
919.348	61.58
919.718	61.57
920.088	61.6
920.458	61.62
920.828	61.65
921.198	61.64
921.567	61.62
921.937	61.62
922.306	61.59
922.676	61.6
923.045	61.58
923.415	61.62
923.784	61.64
924.153	61.64
924.522	61.6
924.891	61.58
925.26	61.53
925.629	61.51
925.998	61.49
926.367	61.49
926.736	61.44
927.104	61.47
927.473	61.44
927.842	61.41
928.21	61.41
928.578	61.41
928.947	61.4
929.315	61.43
929.683	61.46
930.051	61.44
930.42	61.43
930.788	61.39
931.156	61.34
931.523	61.33
931.891	61.27
932.259	61.19
932.627	61.15
932.994	61.12
933.362	61.07
933.729	60.99
934.097	60.96
934.464	60.93
934.831	60.93
935.199	60.96
935.566	60.88
935.933	60.99
936.3	60.97
936.667	60.95
937.034	60.93
937.401	60.89
937.767	60.88
938.134	60.84
938.501	60.79
938.867	60.81
939.234	60.82
939.6	60.91
939.967	60.8
940.333	60.97
940.699	61.13
941.065	61.29
941.431	61.42
941.798	61.58
942.163	61.72
942.529	61.85
942.895	61.9
943.261	61.87
943.627	61.9
943.992	61.92
944.358	61.84
944.723	61.74
945.089	61.8
945.454	61.8
945.82	61.78
946.185	61.78
946.55	61.83
946.915	61.83
947.28	61.85
947.645	61.88
948.01	61.84
948.375	61.89
948.74	61.82
949.104	61.72
949.469	61.64
949.834	61.59
950.198	61.44
950.562	61.34
950.927	61.32
951.291	61.31
951.655	61.23
952.02	61.22
952.384	61.21
952.748	61.28
953.112	61.21
953.476	61.17
953.839	61.09
954.203	61.12
954.567	61.12
954.931	61.14
955.294	61.09
955.658	61.05
956.021	60.99
956.385	60.98
956.748	60.89
957.111	60.88
957.474	60.95
957.837	60.97
958.2	60.89
958.563	60.91
958.926	60.79
959.289	60.8
959.652	60.8
960.015	60.81
960.377	60.69
960.74	60.69
961.102	60.62
961.465	60.58
961.827	60.5
962.189	60.54
962.552	60.4
962.914	60.44
963.276	60.37
963.638	60.32
964	60.28
964.362	60.21
964.724	60.17
965.085	60.2
965.447	60.08
965.809	60.03
966.17	60.05
966.532	60.18
966.893	60.2
967.255	60.19
967.616	60.22
967.977	60.22
968.338	60.36
968.699	60.34
969.061	60.28
969.421	60.34
969.782	60.43
970.143	60.38
970.504	60.25
970.865	60.17
971.225	60.19
971.586	60.22
971.946	60.25
972.307	60.09
972.667	60.2
973.027	60.28
973.388	60.28
973.748	60.28
974.108	60.24
974.468	60.3
974.828	60.35
975.188	60.35
975.548	60.33
975.907	60.25
976.267	60.32
976.627	60.35
976.986	60.39
977.346	60.34
977.705	60.37
978.064	60.45
978.424	60.45
978.783	60.47
979.142	60.46
979.501	60.46
979.86	60.49
980.219	60.44
980.578	60.39
980.937	60.4
981.296	60.42
981.654	60.41
982.013	60.46
982.371	60.38
982.73	60.31
983.088	60.33
983.447	60.35
983.805	60.41
984.163	60.52
984.521	60.34
984.879	60.3
985.237	60.4
985.595	60.45
985.953	60.43
986.311	60.6
986.669	60.62
987.026	60.65
987.384	60.62
987.741	60.58
988.099	60.59
988.456	60.73
988.814	60.72
989.171	60.66
989.528	60.64
989.885	60.6
990.242	60.56
990.599	60.62
990.956	60.67
991.313	60.77
991.67	60.85
992.027	60.7
992.383	60.79
992.74	60.9
993.096	60.98
993.453	60.98
993.809	60.94
994.165	60.9
994.522	60.92
994.878	60.9
995.234	60.91
995.59	60.82
995.946	60.96
996.302	60.84
996.658	60.76
997.013	60.74
997.369	60.7
997.725	60.79
998.08	60.8
998.436	60.83
998.791	60.65
999.147	60.51
999.502	60.48
999.857	60.52
1000.212	60.58
1000.567	60.63
1000.922	60.58
1001.277	60.64
1001.632	60.62
1001.987	60.6
1002.342	60.56
1002.696	60.81
1003.051	60.87
1003.406	60.95
1003.76	60.9
1004.114	61.06
1004.469	60.92
1004.823	61.03
1005.177	61.05
1005.531	61.14
1005.885	61.35
1006.239	61.39
1006.593	61.38
1006.947	61.37
1007.301	61.47
1007.655	61.46
1008.008	61.16
1008.362	61.25
1008.715	61.24
1009.069	61.07
1009.422	60.88
1009.776	60.73
1010.129	60.55
1010.482	60.68
1010.835	60.82
1011.188	60.73
1011.541	60.55
1011.894	60.86
1012.247	60.84
1012.6	60.91
1012.952	61.17
1013.305	61.35
1013.657	61.26
1014.01	61.41
1014.362	61.33
1014.715	61.23
1015.067	61.43
1015.419	62.03
1015.771	62.28
1016.123	62.45
1016.475	62.41
1016.827	62.46
1017.179	62.71
1017.531	62.8
1017.883	63.07
1018.234	63.07
1018.586	63.25
1018.938	63.19
1019.289	62.81
1019.64	62.7
1019.992	62.64
1020.343	62.79
1020.694	62.58
1021.045	62.5
1021.396	62.65
1021.747	62.26
1022.098	62.33
1022.449	62.08
1022.8	62.01
1023.151	62.34
1023.501	62.22
1023.852	62.69
1024.202	62.43
1024.553	62.64
1024.903	62.44
1025.253	62.51
1025.604	62.79
1025.954	62.8
1026.304	63.51
1026.654	63.69
1027.004	63.53
1027.354	63.57
1027.703	63.22
1028.053	63.22
1028.403	63.48
1028.753	63.82
1029.102	63.73
1029.452	63.82
1029.801	63.77
1030.15	63.42
1030.499	63.49
897.758	165.96
901.051	177
904.343	180.48
907.636	178.99
910.928	177.01
914.22	179.82
917.511	173.92
920.803	170.48
924.094	168.89
927.384	173.16
930.675	172.44
933.965	171.2
937.255	164.88
940.544	157.28
943.834	149.28
947.123	148.14
950.411	142.26
953.7	142.47
956.988	140.48
960.276	133.2
963.563	133.14
966.851	125.43
970.138	124.93
973.424	121.18
976.711	122.52
979.997	120.69
983.283	118.89
986.568	116.14
989.853	114.9
993.138	112.96
996.423	109.85
999.708	107.82
1002.992	109.14
1006.275	106.82
1009.559	108.8
1012.842	104.55
1016.125	103.02
1019.408	101.65
1022.69	102.95
1025.972	102.25
1029.254	100.06
1032.536	100.32
1035.817	98.38
1039.098	97.22
1042.379	97.22
1045.659	94.69
1048.939	94.47
1052.219	94.15
1055.498	93.73
1058.778	91.97
1062.057	90.96
1065.335	91.68
1068.614	90.06
1071.892	90.1
1075.17	89.06
1078.447	88.3
1081.724	88.47
1085.001	87.69
1088.278	87.05
1091.554	86.47
1094.83	87.33
1098.106	87.03
1101.382	86.28
1104.657	86.49
1107.932	85.34
1111.206	85.98
1114.481	86.67
1117.755	85.28
1121.029	85.21
1124.302	84.17
1127.575	84.31
1130.848	82.89
1134.121	81.74
1137.393	81.13
1140.665	81.37
1143.937	80.72
1147.208	78.76
1150.48	77.85
1153.75	77.31
1157.021	78.02
1160.291	78.39
1163.561	77.73
1166.831	77.38
1170.101	77.66
1173.37	78.01
1176.639	77.19
1179.907	77.44
1183.176	78.43
1186.444	77.72
1189.711	77.96
1192.979	77.33
1196.246	78.2
1199.513	77.4
1202.78	77.91
1206.046	77.82
1209.312	78.06
1212.578	78.06
1215.843	79.16
1219.108	78.87
1222.373	79.09
1225.638	79.94
1228.902	81.15
1232.166	81.09
1235.43	80.73
1238.693	81.68
1241.956	82.51
1245.219	83.26
1248.482	84.65
1251.744	83.89
1255.006	84.02
1258.268	83.42
1261.529	82.94
1264.79	82.28
1268.051	81.78
1271.312	82.73
1274.572	81.47
1277.832	80.75
1281.092	80.25
1284.351	78.89
1287.61	78.58
1290.869	79.13
1294.128	78.92
1297.386	78.92
1300.644	78.56
1303.902	78.21
1307.159	77.02
1310.416	77.14
1313.673	77.62
1316.93	77.75
1320.186	77.86
1323.442	78.18
1326.697	77.14
1329.953	77.29
1333.208	77.13
1336.463	78.61
1339.717	79.21
1342.972	82.04
1346.226	83.95
1349.479	83.85
1352.733	85.04
1355.986	85.04
1359.238	86.02
1362.491	86.7
1365.743	87.41
1368.995	88.91
1372.247	84.27
1375.498	82.69
1378.749	82.31
1382	81.23
1385.251	78.98
1388.501	78.94
1391.751	79.85
1395	78.61
1398.25	77.83
1401.499	75.88
1404.748	73.9
1407.996	76.2
1411.244	77.32
1414.492	75.44
1417.74	70.56
1420.987	69.05
1424.234	67.02
1427.481	63.78
1430.728	62.79
1433.974	60.3
1437.22	59.7
1440.465	57.44
1443.711	54.75
1446.956	53.38
1450.201	53.04
1453.445	52.18
1456.689	52.24
1459.933	50.52
1463.177	49.59
1466.42	48.39
1469.663	48.52
1472.906	47.52
1476.148	47.46
1479.391	47.34
1482.633	47
1485.874	47.11
1489.115	47.12
1492.356	45.89
1495.597	46.88
1498.838	47.74
1502.078	48.15
1505.318	48.33
1508.557	48.14
1511.797	48.66
1515.036	49.62
1518.274	49.56
1521.513	49.32
1524.751	49.65
1527.989	51.53
1531.227	50.95
1534.464	51.49
1537.701	51.55
1540.938	51.39
1544.174	51.85
1547.41	51.82
1550.646	52.02
1553.882	52.51
1557.117	53.05
1560.352	53.44
1563.587	53.1
1566.821	53.26
1570.055	53.02
1573.289	53.27
1576.523	54.04
1579.756	54.38
1582.989	54.6
1586.222	54.84
1589.454	55.07
1592.686	55.46
1595.918	55.38
1599.15	55.56
1602.381	55.84
1605.612	56.46
1608.843	56.34
1612.073	56.2
1615.303	56.6
1618.533	56.73
1621.762	56.38
1624.992	56.41
1628.221	55.93
1631.449	56.53
1634.678	56.78
1637.906	56.96
1641.134	57.04
1644.361	57.27
1647.588	57.4
1650.815	57.49
1654.042	57.9
1657.269	57.97
1660.495	58.3
1663.72	58.53
1666.946	57.98
1670.171	58.2
1673.396	57.83
1676.621	58
1679.845	58.7
1683.069	57.64
1686.293	57.11
1689.517	57.56
1692.74	57.34
1695.963	57.4
1699.185	57.24
1702.408	57.19
1705.63	57.21
1708.852	57.7
1712.073	56.62
1715.294	55.94
1718.515	57.31
1721.736	57.43
1724.956	56.28
1728.176	56.29
1731.396	56.07
1734.616	56.15
1737.835	56.11
1741.054	55.78
1744.272	55.66
1747.491	56.16
1750.709	55.99
1753.927	55.24
1757.144	55.43
1760.361	55.49
1763.578	55.39
1766.795	55.61
1770.011	55.48
1773.227	55.4
1776.443	55.21
1779.658	54.84
1782.874	54.82
1786.089	54.4
1789.303	54.71
1792.518	54.65
1795.732	55.11
1798.945	55.45
1802.159	55.21
1805.372	55.44
1808.585	55.38
1811.797	55.98
1815.01	56.01
1818.222	56.29
1821.434	56.22
1824.645	56.27
1827.856	56.51
1831.067	55.77
1834.278	56.57
1837.488	56.56
1840.698	56.35
1843.908	56.48
1847.117	56.06
1850.326	56.04
1853.535	55.92
1856.744	56.35
1859.952	55.83
1863.16	54.94
1866.368	54.49
1869.575	52.53
1872.782	51.3
1875.989	49.12
1879.196	48.65
1882.402	46.03
1885.608	45.78
1888.814	43.86
1892.019	40.91
1895.224	39.16
1898.429	38.62
1901.634	37.43
1904.838	36.66
1908.042	36.31
1911.246	36.3
1914.449	35.2
1917.652	36.15
1920.855	35.48
1924.058	34.9
1927.26	35.74
1930.462	36.11
1933.664	36.74
1936.865	36.01
1940.066	35.33
1943.267	35.45
1946.467	35.93
1949.668	35.53
1952.868	35.93
1956.067	35.56
1959.267	37.84
1962.466	37.78
1965.665	37.87
1968.863	38.1
1972.061	38.73
1975.259	39.84
1978.457	39.69
1981.654	39.8
1984.852	40.68
1988.048	41.05
1991.245	42.8
1994.441	42.15
1997.637	43.4
2000.833	45.17
2004.028	44.87
2007.223	45.96
2010.418	48.32
2013.613	51.13
2016.807	52.97
2020.001	52.75
2023.194	55.35
2026.388	55.57
2029.581	59.01
2032.774	59.59
2035.966	60.94
2039.158	63.95
2042.35	65.06
2045.542	65.32
2048.733	65.62
2051.924	66.15
2055.115	68.37
2058.306	67.98
2061.496	69.17
2064.686	67.69
2067.875	70.85
2071.065	70.87
2074.254	69.29
2077.442	72.88
2080.631	74.05
2083.819	74.88
2087.007	75.99
2090.195	78.89
2093.382	77
2096.569	77.45
2099.756	80.43
2102.942	80.16
2106.128	81.52
2109.314	84.33
2112.5	83.41
2115.685	81.5
2118.87	82.09
2122.055	83.44
2125.239	82.72
2128.424	87.29
2131.608	86.9
2134.791	85.75
2137.974	86.87
2141.157	89.03
2144.34	89.27
2147.523	90.56
2150.705	93.06
2153.887	94.1
2157.068	96.87
2160.25	95.35
2163.431	95.89
2166.611	98.8
2169.792	101.37
2172.972	102.08
2176.152	101.97
2179.331	102.98
2182.511	103.32
2185.69	104.75
2188.868	102.6
2192.047	103.06
2195.225	107.91
2198.403	105.87
2201.58	104.67
2204.758	107.12
2207.935	105.47
2211.111	106.31
2214.288	107.73
2217.464	109.84
2220.64	112.76
2223.815	114.18
2226.991	114.29
2230.166	113.66
2233.34	117.61
2236.515	120.04
2239.689	115.17
2242.863	120.04
2246.036	119.35
2249.209	118.81
2252.382	119.63
2255.555	121.03
2258.727	123.97
2261.9	125.77
2265.071	127.15
2268.243	127.56
2271.414	127.06
2274.585	131.56
2277.756	130.05
2280.926	128.59
2284.096	133.93
2287.266	134.23
2290.436	132.73
2293.605	137.74
2296.774	143.4
2299.942	142.31
2303.111	146.51
2306.279	150.62
2309.447	153.26
2312.614	153.82
2315.781	156.79
2318.948	159.29
2322.115	161.48
2325.281	162.86
2328.447	161.13
2331.613	159.85
2334.779	165.15
2337.944	162.93
2341.109	166.22
2344.274	168.39
2347.438	170.47
2350.602	178.97
2353.766	179.87
2356.929	178.84
2360.092	187.4
2363.255	185.44
2366.418	186.71
2369.58	188.6
2372.742	194.42
2375.904	195.15
2379.066	197.25
2382.227	213.91
2385.388	205.42
2388.548	206.34
2391.709	203.81
2394.869	203.03
2398.029	209.77
2401.188	208.37
2404.347	214.4
2407.506	214.6
2410.665	209.53
2413.823	211.54
2416.981	209.12
2420.139	206.29
2423.296	218.87
2426.453	233.58
2429.61	230
2432.767	240.61
2435.923	254.31
2439.079	244.63
2442.235	250.84
2445.391	255.74
2448.546	253.95
2451.701	260.44
2454.855	278.92
2458.009	253.52
2461.163	252.79
2464.317	248.54
2467.471	244.51
2470.624	244
2473.777	247.1
2476.929	247.1
2480.082	254.43
2483.234	266.61
2486.385	270.89
2489.537	276.55
2492.688	297.5
2495.839	293.79
2498.989	308.4
2502.14	306.83
2505.29	301.88
2508.439	322.44
2511.589	324.39
2514.738	317.78
2517.887	313.5
2521.035	297.21
2524.183	296.84
2527.331	293.38
2530.479	290.78
2533.627	295.38
