Data from c_1_div_wi_4n_031_Splice17_06.txt Node
Date: Sat Feb 29 13:23:25 EST 2020
User: sa697716
Spectrometer: FLMS03696
Trigger mode: 0
Integration Time (sec): 3.180400E-1
Scans to average: 20
Electric dark correction enabled: true
Nonlinearity correction enabled: true
Boxcar width: 5
XAxis mode: Wavelengths
Number of Pixels in Spectrum: 2048
>>>>>Begin Spectral Data<<<<<
187.83	121.95
188.298	120.23
188.766	105.55
189.233	100.82
189.701	102.19
190.169	97.11
190.636	81.19
191.104	36.92
191.571	-54.73
192.039	85.73
192.506	578.25
192.974	7545.13
193.441	-400.09
193.908	73.05
194.375	19.4
194.842	37.95
195.31	11.8
195.777	-39.7
196.244	15.6
196.711	51.02
197.177	54.27
197.644	55.55
198.111	56.16
198.578	57.53
199.045	58.3
199.511	58.44
199.978	58.84
200.445	59.01
200.911	59.5
201.378	59.65
201.844	60.1
202.31	60.55
202.777	60.45
203.243	61
203.709	60.94
204.176	60.56
204.642	60.55
205.108	60.25
205.574	60.37
206.04	59.34
206.506	58.79
206.972	58.27
207.438	57.49
207.903	56.69
208.369	55.53
208.835	54.51
209.301	53.94
209.766	53.34
210.232	52.36
210.697	51.37
211.163	50.45
211.628	49.51
212.094	48.61
212.559	48.2
213.024	47.52
213.49	46.88
213.955	45.97
214.42	44.99
214.885	43.51
215.35	42.11
215.815	40.03
216.28	37.87
216.745	35.52
217.21	32.99
217.675	30.52
218.14	28.26
218.604	26.21
219.069	24.65
219.534	23.26
219.998	22.14
220.463	21.26
220.927	20.48
221.392	19.83
221.856	19.27
222.32	18.72
222.785	18.22
223.249	17.86
223.713	17.5
224.177	17.11
224.642	16.76
225.106	16.46
225.57	16.12
226.034	15.86
226.497	15.6
226.961	15.29
227.425	15.01
227.889	14.78
228.353	14.51
228.816	14.3
229.28	14.07
229.744	13.88
230.207	13.67
230.671	13.46
231.134	13.26
231.597	13.06
232.061	12.9
232.524	12.77
232.987	12.62
233.45	12.47
233.914	12.33
234.377	12.21
234.84	12.07
235.303	11.94
235.766	11.81
236.229	11.69
236.691	11.59
237.154	11.49
237.617	11.36
238.08	11.23
238.542	11.12
239.005	11
239.468	10.87
239.93	10.78
240.393	10.67
240.855	10.58
241.317	10.47
241.78	10.37
242.242	10.26
242.704	10.16
243.166	10.06
243.629	9.97
244.091	9.89
244.553	9.81
245.015	9.71
245.477	9.61
245.939	9.52
246.4	9.42
246.862	9.34
247.324	9.28
247.786	9.2
248.247	9.14
248.709	9.07
249.17	8.99
249.632	8.9
250.093	8.8
250.555	8.73
251.016	8.67
251.477	8.61
251.939	8.53
252.4	8.45
252.861	8.37
253.322	8.31
253.783	8.25
254.244	8.19
254.705	8.15
255.166	8.12
255.627	8.07
256.088	8
256.549	7.94
257.009	7.89
257.47	7.84
257.931	7.79
258.391	7.72
258.852	7.66
259.312	7.6
259.773	7.54
260.233	7.49
260.694	7.43
261.154	7.38
261.614	7.33
262.074	7.27
262.534	7.21
262.994	7.16
263.455	7.11
263.915	7.06
264.374	7.01
264.834	6.97
265.294	6.92
265.754	6.88
266.214	6.83
266.673	6.8
267.133	6.76
267.593	6.73
268.052	6.69
268.512	6.66
268.971	6.64
269.431	6.61
269.89	6.58
270.349	6.55
270.809	6.53
271.268	6.51
271.727	6.47
272.186	6.44
272.645	6.41
273.104	6.39
273.563	6.36
274.022	6.34
274.481	6.31
274.94	6.28
275.399	6.25
275.857	6.23
276.316	6.2
276.775	6.17
277.233	6.16
277.692	6.13
278.15	6.1
278.609	6.07
279.067	6.04
279.525	6.01
279.984	5.98
280.442	5.96
280.9	5.94
281.358	5.92
281.816	5.9
282.274	5.88
282.732	5.86
283.19	5.85
283.648	5.85
284.106	5.83
284.564	5.83
285.021	5.82
285.479	5.82
285.937	5.8
286.394	5.77
286.852	5.76
287.309	5.74
287.767	5.73
288.224	5.7
288.682	5.68
289.139	5.66
289.596	5.62
290.053	5.58
290.511	5.55
290.968	5.53
291.425	5.5
291.882	5.47
292.339	5.44
292.796	5.41
293.252	5.39
293.709	5.37
294.166	5.34
294.623	5.32
295.079	5.31
295.536	5.29
295.992	5.26
296.449	5.25
296.905	5.23
297.362	5.21
297.818	5.19
298.274	5.17
298.731	5.16
299.187	5.14
299.643	5.12
300.099	5.11
300.555	5.09
301.011	5.08
301.467	5.07
301.923	5.06
302.379	5.05
302.835	5.03
303.291	5.02
303.746	5.01
304.202	5
304.658	4.99
305.113	4.98
305.569	4.97
306.024	4.96
306.479	4.95
306.935	4.94
307.39	4.93
307.845	4.92
308.301	4.92
308.756	4.92
309.211	4.92
309.666	4.91
310.121	4.91
310.576	4.9
311.031	4.89
311.486	4.88
311.94	4.88
312.395	4.89
312.85	4.88
313.305	4.88
313.759	4.87
314.214	4.86
314.668	4.85
315.123	4.85
315.577	4.84
316.032	4.84
316.486	4.83
316.94	4.81
317.394	4.79
317.849	4.78
318.303	4.76
318.757	4.74
319.211	4.72
319.665	4.71
320.119	4.7
320.572	4.68
321.026	4.67
321.48	4.65
321.934	4.65
322.387	4.64
322.841	4.63
323.295	4.62
323.748	4.61
324.202	4.61
324.655	4.6
325.108	4.58
325.562	4.56
326.015	4.55
326.468	4.53
326.921	4.52
327.374	4.51
327.827	4.5
328.28	4.49
328.733	4.48
329.186	4.48
329.639	4.46
330.092	4.47
330.545	4.47
330.997	4.47
331.45	4.47
331.903	4.47
332.355	4.47
332.808	4.47
333.26	4.48
333.713	4.49
334.165	4.49
334.617	4.5
335.069	4.5
335.522	4.5
335.974	4.5
336.426	4.5
336.878	4.5
337.33	4.49
337.782	4.49
338.234	4.48
338.686	4.46
339.137	4.46
339.589	4.43
340.041	4.42
340.493	4.41
340.944	4.39
341.396	4.39
341.847	4.37
342.299	4.35
342.75	4.32
343.201	4.31
343.653	4.29
344.104	4.27
344.555	4.27
345.006	4.26
345.457	4.24
345.908	4.23
346.359	4.22
346.81	4.21
347.261	4.2
347.712	4.2
348.163	4.19
348.613	4.19
349.064	4.17
349.515	4.16
349.965	4.15
350.416	4.15
350.866	4.15
351.317	4.13
351.767	4.13
352.217	4.13
352.668	4.13
353.118	4.13
353.568	4.13
354.018	4.14
354.468	4.13
354.918	4.14
355.368	4.14
355.818	4.13
356.268	4.13
356.718	4.14
357.168	4.13
357.617	4.13
358.067	4.13
358.517	4.11
358.966	4.11
359.416	4.11
359.865	4.1
360.315	4.1
360.764	4.1
361.213	4.09
361.663	4.09
362.112	4.09
362.561	4.09
363.01	4.09
363.459	4.09
363.908	4.09
364.357	4.09
364.806	4.09
365.255	4.09
365.703	4.09
366.152	4.1
366.601	4.1
367.05	4.09
367.498	4.09
367.947	4.1
368.395	4.11
368.844	4.11
369.292	4.11
369.74	4.11
370.189	4.11
370.637	4.12
371.085	4.13
371.533	4.13
371.981	4.13
372.429	4.12
372.877	4.12
373.325	4.12
373.773	4.12
374.221	4.11
374.669	4.12
375.116	4.12
375.564	4.12
376.012	4.12
376.459	4.12
376.907	4.14
377.354	4.15
377.801	4.15
378.249	4.18
378.696	4.18
379.143	4.2
379.591	4.21
380.038	4.23
380.485	4.24
380.932	4.25
381.379	4.25
381.826	4.26
382.273	4.27
382.72	4.29
383.166	4.28
383.613	4.29
384.06	4.31
384.506	4.32
384.953	4.34
385.4	4.37
385.846	4.38
386.292	4.4
386.739	4.41
387.185	4.44
387.631	4.45
388.078	4.48
388.524	4.48
388.97	4.5
389.416	4.52
389.862	4.53
390.308	4.55
390.754	4.57
391.2	4.6
391.645	4.62
392.091	4.63
392.537	4.66
392.983	4.7
393.428	4.74
393.874	4.78
394.319	4.8
394.765	4.83
395.21	4.84
395.655	4.88
396.101	4.91
396.546	4.95
396.991	4.97
397.436	4.98
397.881	5.02
398.326	5.06
398.771	5.09
399.216	5.13
399.661	5.17
400.106	5.22
400.551	5.24
400.995	5.25
401.44	5.27
401.885	5.31
402.329	5.33
402.774	5.35
403.218	5.38
403.663	5.4
404.107	5.43
404.551	5.46
404.995	5.48
405.44	5.52
405.884	5.56
406.328	5.6
406.772	5.64
407.216	5.68
407.66	5.72
408.104	5.74
408.547	5.78
408.991	5.8
409.435	5.83
409.879	5.85
410.322	5.88
410.766	5.93
411.209	5.95
411.653	5.97
412.096	5.99
412.54	6.02
412.983	6.06
413.426	6.08
413.869	6.12
414.312	6.16
414.756	6.21
415.199	6.23
415.642	6.25
416.085	6.29
416.527	6.33
416.97	6.36
417.413	6.37
417.856	6.38
418.298	6.39
418.741	6.42
419.184	6.44
419.626	6.44
420.069	6.45
420.511	6.47
420.953	6.48
421.396	6.5
421.838	6.52
422.28	6.56
422.722	6.57
423.164	6.59
423.606	6.61
424.048	6.62
424.49	6.64
424.932	6.65
425.374	6.64
425.816	6.64
426.258	6.63
426.699	6.62
427.141	6.61
427.582	6.62
428.024	6.64
428.465	6.63
428.907	6.64
429.348	6.64
429.789	6.66
430.231	6.66
430.672	6.67
431.113	6.7
431.554	6.72
431.995	6.75
432.436	6.76
432.877	6.78
433.318	6.8
433.759	6.83
434.2	6.86
434.64	6.87
435.081	6.88
435.522	6.91
435.962	6.91
436.403	6.94
436.843	6.95
437.284	6.97
437.724	6.99
438.164	7.02
438.604	7.03
439.045	7.03
439.485	7.05
439.925	7.08
440.365	7.1
440.805	7.12
441.245	7.09
441.685	7.14
442.125	7.16
442.564	7.17
443.004	7.18
443.444	7.19
443.883	7.21
444.323	7.21
444.762	7.25
445.202	7.3
445.641	7.32
446.081	7.39
446.52	7.37
446.959	7.38
447.398	7.42
447.837	7.46
448.276	7.47
448.716	7.49
449.154	7.53
449.593	7.53
450.032	7.51
450.471	7.52
450.91	7.51
451.349	7.53
451.787	7.53
452.226	7.51
452.664	7.5
453.103	7.48
453.541	7.47
453.98	7.46
454.418	7.44
454.856	7.42
455.295	7.41
455.733	7.39
456.171	7.37
456.609	7.37
457.047	7.36
457.485	7.34
457.923	7.36
458.361	7.35
458.798	7.36
459.236	7.36
459.674	7.37
460.111	7.37
460.549	7.37
460.987	7.38
461.424	7.37
461.862	7.38
462.299	7.4
462.736	7.38
463.173	7.38
463.611	7.36
464.048	7.37
464.485	7.37
464.922	7.38
465.359	7.38
465.796	7.34
466.233	7.35
466.67	7.35
467.106	7.34
467.543	7.35
467.98	7.35
468.416	7.38
468.853	7.35
469.29	7.35
469.726	7.34
470.162	7.33
470.599	7.35
471.035	7.35
471.471	7.32
471.907	7.31
472.344	7.32
472.78	7.31
473.216	7.28
473.652	7.28
474.088	7.28
474.523	7.27
474.959	7.28
475.395	7.28
475.831	7.28
476.266	7.27
476.702	7.27
477.138	7.24
477.573	7.21
478.008	7.21
478.444	7.2
478.879	7.19
479.314	7.18
479.75	7.17
480.185	7.14
480.62	7.12
481.055	7.12
481.49	7.1
481.925	7.1
482.36	7.1
482.795	7.09
483.229	7.07
483.664	7.05
484.099	7.04
484.534	7.04
484.968	7.03
485.403	7.03
485.837	7.03
486.271	7.02
486.706	7.01
487.14	7.03
487.574	7.03
488.009	7.04
488.443	7.06
488.877	7.05
489.311	7.06
489.745	7.08
490.179	7.09
490.613	7.09
491.046	7.11
491.48	7.14
491.914	7.15
492.348	7.16
492.781	7.18
493.215	7.2
493.648	7.24
494.082	7.27
494.515	7.29
494.948	7.32
495.382	7.37
495.815	7.4
496.248	7.44
496.681	7.47
497.114	7.53
497.547	7.57
497.98	7.61
498.413	7.65
498.846	7.7
499.279	7.75
499.711	7.8
500.144	7.86
500.577	7.92
501.009	7.98
501.442	8.04
501.874	8.11
502.306	8.19
502.739	8.24
503.171	8.33
503.603	8.42
504.036	8.52
504.468	8.62
504.9	8.73
505.332	8.83
505.764	8.96
506.196	9.09
506.627	9.21
507.059	9.34
507.491	9.5
507.923	9.64
508.354	9.8
508.786	9.96
509.217	10.1
509.649	10.26
510.08	10.43
510.512	10.58
510.943	10.77
511.374	10.95
511.805	11.12
512.237	11.31
512.668	11.5
513.099	11.7
513.53	11.91
513.961	12.13
514.391	12.35
514.822	12.57
515.253	12.81
515.684	13.03
516.114	13.28
516.545	13.52
516.975	13.78
517.406	14.02
517.836	14.27
518.267	14.53
518.697	14.8
519.127	15.07
519.558	15.35
519.988	15.61
520.418	15.87
520.848	16.11
521.278	16.38
521.708	16.64
522.138	16.88
522.567	17.12
522.997	17.35
523.427	17.58
523.857	17.8
524.286	18.02
524.716	18.24
525.145	18.47
525.575	18.69
526.004	18.9
526.433	19.1
526.863	19.31
527.292	19.51
527.721	19.7
528.15	19.85
528.579	20.03
529.008	20.18
529.437	20.35
529.866	20.49
530.295	20.65
530.724	20.79
531.152	20.91
531.581	21.03
532.01	21.15
532.438	21.26
532.867	21.38
533.295	21.49
533.723	21.6
534.152	21.69
534.58	21.77
535.008	21.83
535.436	21.9
535.865	21.97
536.293	22.05
536.721	22.11
537.149	22.16
537.576	22.23
538.004	22.28
538.432	22.32
538.86	22.39
539.287	22.44
539.715	22.47
540.143	22.49
540.57	22.53
540.998	22.57
541.425	22.61
541.852	22.66
542.28	22.66
542.707	22.7
543.134	22.71
543.561	22.73
543.988	22.74
544.415	22.79
544.842	22.83
545.269	22.87
545.696	22.88
546.123	22.9
546.549	22.93
546.976	22.97
547.403	22.96
547.829	22.99
548.256	23
548.682	23.03
549.108	23.02
549.535	23.04
549.961	23.02
550.387	23.04
550.813	23.02
551.24	23.02
551.666	23.02
552.092	23.01
552.518	22.99
552.943	22.97
553.369	22.93
553.795	22.92
554.221	22.86
554.646	22.84
555.072	22.79
555.498	22.75
555.923	22.68
556.349	22.62
556.774	22.56
557.199	22.49
557.625	22.42
558.05	22.34
558.475	22.25
558.9	22.17
559.325	22.06
559.75	21.96
560.175	21.86
560.6	21.77
561.025	21.65
561.449	21.53
561.874	21.41
562.299	21.29
562.723	21.17
563.148	21.03
563.572	20.91
563.997	20.77
564.421	20.64
564.846	20.5
565.27	20.34
565.694	20.18
566.118	20.03
566.542	19.9
566.966	19.75
567.39	19.59
567.814	19.43
568.238	19.28
568.662	19.13
569.086	18.98
569.509	18.81
569.933	18.65
570.357	18.5
570.78	18.34
571.204	18.18
571.627	18.03
572.05	17.89
572.474	17.76
572.897	17.61
573.32	17.46
573.743	17.33
574.166	17.22
574.589	17.08
575.012	16.97
575.435	16.84
575.858	16.72
576.281	16.61
576.704	16.49
577.126	16.38
577.549	16.29
577.972	16.2
578.394	16.09
578.817	16.01
579.239	15.94
579.661	15.85
580.084	15.76
580.506	15.69
580.928	15.62
581.35	15.55
581.772	15.48
582.194	15.39
582.616	15.32
583.038	15.25
583.46	15.17
583.882	15.1
584.303	15.03
584.725	14.97
585.147	14.89
585.568	14.81
585.99	14.74
586.411	14.69
586.833	14.62
587.254	14.56
587.675	14.53
588.096	14.48
588.518	14.42
588.939	14.38
589.36	14.34
589.781	14.3
590.202	14.25
590.623	14.2
591.043	14.17
591.464	14.14
591.885	14.1
592.305	14.06
592.726	14.01
593.147	13.98
593.567	13.94
593.987	13.92
594.408	13.87
594.828	13.84
595.248	13.81
595.669	13.76
596.089	13.74
596.509	13.69
596.929	13.65
597.349	13.61
597.769	13.56
598.189	13.54
598.608	13.48
599.028	13.45
599.448	13.43
599.867	13.39
600.287	13.36
600.706	13.31
601.126	13.28
601.545	13.25
601.965	13.21
602.384	13.18
602.803	13.15
603.222	13.09
603.641	13.04
604.061	12.98
604.48	12.93
604.898	12.88
605.317	12.84
605.736	12.77
606.155	12.71
606.574	12.65
606.992	12.58
607.411	12.51
607.829	12.41
608.248	12.36
608.666	12.28
609.085	12.22
609.503	12.15
609.921	12.06
610.339	12.01
610.758	11.95
611.176	11.88
611.594	11.82
612.012	11.75
612.43	11.73
612.847	11.67
613.265	11.62
613.683	11.55
614.101	11.48
614.518	11.43
614.936	11.36
615.353	11.3
615.771	11.25
616.188	11.21
616.606	11.17
617.023	11.12
617.44	11.08
617.857	11.04
618.274	10.99
618.691	10.95
619.108	10.92
619.525	10.88
619.942	10.83
620.359	10.8
620.776	10.77
621.192	10.74
621.609	10.71
622.026	10.67
622.442	10.66
622.859	10.66
623.275	10.65
623.691	10.64
624.108	10.63
624.524	10.63
624.94	10.61
625.356	10.59
625.772	10.57
626.188	10.58
626.604	10.57
627.02	10.55
627.436	10.53
627.852	10.52
628.268	10.49
628.683	10.49
629.099	10.48
629.514	10.46
629.93	10.45
630.345	10.44
630.761	10.39
631.176	10.37
631.591	10.35
632.007	10.31
632.422	10.27
632.837	10.24
633.252	10.2
633.667	10.15
634.082	10.1
634.497	10.03
634.911	9.97
635.326	9.92
635.741	9.85
636.155	9.79
636.57	9.72
636.984	9.62
637.399	9.55
637.813	9.46
638.228	9.38
638.642	9.3
639.056	9.22
639.47	9.15
639.884	9.08
640.298	9
640.712	8.92
641.126	8.84
641.54	8.78
641.954	8.71
642.368	8.64
642.781	8.57
643.195	8.49
643.609	8.44
644.022	8.37
644.436	8.31
644.849	8.25
645.262	8.19
645.676	8.13
646.089	8.07
646.502	8.01
646.915	7.97
647.328	7.92
647.741	7.89
648.154	7.86
648.567	7.82
648.98	7.78
649.393	7.76
649.805	7.72
650.218	7.69
650.631	7.67
651.043	7.65
651.456	7.63
651.868	7.61
652.28	7.58
652.693	7.55
653.105	7.53
653.517	7.5
653.929	7.47
654.341	7.46
654.753	7.43
655.165	7.4
655.577	7.36
655.989	7.32
656.401	7.28
656.813	7.23
657.224	7.19
657.636	7.15
658.047	7.11
658.459	7.05
658.87	6.99
659.282	6.97
659.693	6.92
660.104	6.88
660.515	6.84
660.926	6.81
661.338	6.78
661.749	6.75
662.159	6.71
662.57	6.68
662.981	6.65
663.392	6.63
663.803	6.59
664.213	6.57
664.624	6.55
665.035	6.52
665.445	6.5
665.855	6.48
666.266	6.46
666.676	6.44
667.086	6.42
667.497	6.42
667.907	6.41
668.317	6.39
668.727	6.38
669.137	6.39
669.547	6.41
669.956	6.4
670.366	6.43
670.776	6.43
671.186	6.45
671.595	6.47
672.005	6.49
672.414	6.52
672.824	6.55
673.233	6.57
673.642	6.59
674.052	6.59
674.461	6.63
674.87	6.65
675.279	6.68
675.688	6.7
676.097	6.73
676.506	6.75
676.915	6.79
677.323	6.82
677.732	6.86
678.141	6.9
678.549	6.95
678.958	6.99
679.366	7.02
679.775	7.08
680.183	7.12
680.592	7.18
681	7.23
681.408	7.27
681.816	7.33
682.224	7.4
682.632	7.46
683.04	7.53
683.448	7.61
683.856	7.72
684.264	7.81
684.671	7.93
685.079	8.05
685.487	8.17
685.894	8.33
686.302	8.48
686.709	8.65
687.116	8.84
687.524	9.04
687.931	9.26
688.338	9.5
688.745	9.76
689.152	10.04
689.559	10.33
689.966	10.66
690.373	11.01
690.78	11.37
691.187	11.74
691.593	12.14
692	12.56
692.407	13
692.813	13.46
693.22	13.92
693.626	14.39
694.032	14.89
694.439	15.41
694.845	15.91
695.251	16.44
695.657	16.99
696.063	17.54
696.469	18.12
696.875	18.67
697.281	19.21
697.687	19.81
698.093	20.4
698.498	20.99
698.904	21.6
699.31	22.18
699.715	22.8
700.12	23.37
700.526	23.97
700.931	24.52
701.337	25.12
701.742	25.71
702.147	26.29
702.552	26.85
702.957	27.41
703.362	27.95
703.767	28.51
704.172	29.05
704.577	29.61
704.981	30.16
705.386	30.7
705.791	31.24
706.195	31.75
706.6	32.27
707.004	32.78
707.408	33.3
707.813	33.82
708.217	34.31
708.621	34.81
709.025	35.29
709.43	35.76
709.834	36.29
710.237	36.77
710.641	37.28
711.045	37.74
711.449	38.23
711.853	38.71
712.256	39.18
712.66	39.65
713.064	40.09
713.467	40.55
713.87	41.01
714.274	41.43
714.677	41.87
715.08	42.28
715.484	42.71
715.887	43.12
716.29	43.52
716.693	43.93
717.096	44.36
717.499	44.76
717.901	45.15
718.304	45.55
718.707	45.9
719.109	46.29
719.512	46.68
719.915	47.04
720.317	47.43
720.719	47.76
721.122	48.07
721.524	48.39
721.926	48.72
722.328	49.05
722.731	49.36
723.133	49.69
723.535	49.98
723.937	50.27
724.338	50.53
724.74	50.77
725.142	50.99
725.544	51.25
725.945	51.53
726.347	51.76
726.748	51.95
727.15	52.17
727.551	52.39
727.952	52.59
728.354	52.81
728.755	53.02
729.156	53.22
729.557	53.5
729.958	53.73
730.359	53.87
730.76	54.06
731.161	54.28
731.562	54.44
731.962	54.59
732.363	54.72
732.763	54.87
733.164	55.02
733.564	55.16
733.965	55.28
734.365	55.38
734.766	55.51
735.166	55.59
735.566	55.65
735.966	55.74
736.366	55.85
736.766	55.97
737.166	56.05
737.566	56.12
737.966	56.2
738.365	56.26
738.765	56.36
739.165	56.41
739.564	56.51
739.964	56.58
740.363	56.65
740.763	56.7
741.162	56.74
741.561	56.81
741.96	56.91
742.36	57.01
742.759	57.05
743.158	57.07
743.557	57.17
743.955	57.24
744.354	57.32
744.753	57.37
745.152	57.43
745.55	57.46
745.949	57.53
746.348	57.54
746.746	57.54
747.144	57.58
747.543	57.64
747.941	57.66
748.339	57.7
748.737	57.77
749.136	57.79
749.534	57.83
749.932	57.88
750.33	57.9
750.727	57.93
751.125	57.97
751.523	57.99
751.921	58.03
752.318	58.07
752.716	58.06
753.113	58.03
753.511	58.04
753.908	58
754.305	58
754.703	57.99
755.1	57.99
755.497	57.97
755.894	57.99
756.291	57.97
756.688	57.95
757.085	57.94
757.482	57.96
757.878	58
758.275	58.04
758.672	58.02
759.068	58.03
759.465	58.02
759.861	58.06
760.258	58.06
760.654	58.04
761.05	58.07
761.447	58.1
761.843	58.1
762.239	58.07
762.635	58.07
763.031	58.1
763.427	58.11
763.822	58.11
764.218	58.07
764.614	58.07
765.01	58.1
765.405	58.08
765.801	58.03
766.196	58
766.592	58.02
766.987	58.02
767.382	58.01
767.778	58.01
768.173	58.03
768.568	58.01
768.963	57.96
769.358	57.96
769.753	57.96
770.148	57.96
770.542	57.97
770.937	57.93
771.332	57.91
771.726	57.9
772.121	57.87
772.515	57.84
772.91	57.84
773.304	57.87
773.699	57.81
774.093	57.73
774.487	57.72
774.881	57.74
775.275	57.8
775.669	57.79
776.063	57.74
776.457	57.73
776.851	57.71
777.245	57.74
777.638	57.72
778.032	57.77
778.425	57.84
778.819	57.87
779.212	57.82
779.606	57.79
779.999	57.77
780.392	57.8
780.786	57.79
781.179	57.83
781.572	57.8
781.965	57.81
782.358	57.79
782.751	57.79
783.143	57.79
783.536	57.81
783.929	57.84
784.322	57.85
784.714	57.87
785.107	57.93
785.499	57.91
785.891	57.92
786.284	57.87
786.676	57.87
787.068	57.83
787.46	57.83
787.852	57.82
788.245	57.79
788.636	57.78
789.028	57.76
789.42	57.72
789.812	57.71
790.204	57.7
790.595	57.7
790.987	57.67
791.378	57.69
791.77	57.7
792.161	57.71
792.553	57.73
792.944	57.78
793.335	57.76
793.726	57.76
794.117	57.75
794.508	57.76
794.899	57.8
795.29	57.83
795.681	57.85
796.072	57.8
796.463	57.78
796.853	57.76
797.244	57.72
797.634	57.75
798.025	57.78
798.415	57.78
798.806	57.8
799.196	57.79
799.586	57.79
799.976	57.79
800.366	57.81
800.756	57.8
801.146	57.78
801.536	57.79
801.926	57.78
802.316	57.77
802.706	57.81
803.095	57.78
803.485	57.82
803.874	57.81
804.264	57.84
804.653	57.84
805.043	57.86
805.432	57.86
805.821	57.85
806.21	57.86
806.599	57.88
806.988	57.86
807.377	57.86
807.766	57.83
808.155	57.84
808.544	57.81
808.933	57.82
809.321	57.8
809.71	57.83
810.098	57.83
810.487	57.82
810.875	57.79
811.264	57.79
811.652	57.84
812.04	57.83
812.428	57.88
812.816	57.87
813.204	57.84
813.592	57.87
813.98	57.85
814.368	57.87
814.756	57.88
815.144	57.89
815.531	57.9
815.919	57.87
816.306	57.87
816.694	57.82
817.081	57.8
817.469	57.81
817.856	57.84
818.243	57.86
818.63	57.9
819.017	57.91
819.404	57.9
819.791	57.89
820.178	57.91
820.565	57.9
820.952	57.94
821.339	57.96
821.725	57.96
822.112	57.95
822.498	57.97
822.885	57.94
823.271	57.94
823.657	57.95
824.044	57.98
824.43	58.01
824.816	58.01
825.202	58
825.588	57.99
825.974	58
826.36	58.01
826.746	58.04
827.132	58.03
827.517	58.01
827.903	58.02
828.289	58
828.674	57.96
829.06	58.01
829.445	58.03
829.83	58.07
830.216	58.08
830.601	58.05
830.986	58.02
831.371	58.03
831.756	58.02
832.141	58.02
832.526	58.03
832.911	58.04
833.295	58.02
833.68	58.02
834.065	58.01
834.449	58
834.834	58
835.218	58.01
835.603	58.01
835.987	58.02
836.371	58.03
836.755	58.03
837.139	58.03
837.524	58.02
837.908	57.97
838.291	57.98
838.675	57.99
839.059	58
839.443	58.01
839.827	58
840.21	58
840.594	57.99
840.977	57.98
841.361	57.99
841.744	58.02
842.127	58.02
842.511	58
842.894	57.99
843.277	57.99
843.66	58
844.043	58.01
844.426	58.02
844.809	58.03
845.191	58.01
845.574	58.02
845.957	57.99
846.339	58.01
846.722	58.03
847.104	58
847.487	57.99
847.869	57.96
848.252	57.96
848.634	57.95
849.016	57.92
849.398	57.93
849.78	57.91
850.162	57.9
850.544	57.9
850.926	57.9
851.307	57.91
851.689	57.91
852.071	57.91
852.452	57.89
852.834	57.88
853.215	57.9
853.597	57.89
853.978	57.88
854.359	57.87
854.741	57.86
855.122	57.86
855.503	57.89
855.884	57.86
856.265	57.86
856.646	57.87
857.026	57.88
857.407	57.86
857.788	57.9
858.169	57.9
858.549	57.93
858.93	57.95
859.31	57.91
859.69	57.88
860.071	57.9
860.451	57.91
860.831	57.87
861.211	57.85
861.591	57.86
861.971	57.83
862.351	57.82
862.731	57.81
863.111	57.79
863.491	57.8
863.87	57.79
864.25	57.81
864.629	57.8
865.009	57.81
865.388	57.8
865.768	57.81
866.147	57.81
866.526	57.79
866.905	57.77
867.284	57.77
867.663	57.79
868.042	57.81
868.421	57.81
868.8	57.82
869.179	57.85
869.558	57.86
869.936	57.85
870.315	57.85
870.693	57.87
871.072	57.86
871.45	57.85
871.828	57.83
872.207	57.84
872.585	57.84
872.963	57.83
873.341	57.85
873.719	57.84
874.097	57.86
874.475	57.9
874.853	57.92
875.23	57.96
875.608	57.97
875.986	57.94
876.363	57.94
876.741	57.9
877.118	57.89
877.495	57.86
877.873	57.85
878.25	57.84
878.627	57.84
879.004	57.84
879.381	57.82
879.758	57.78
880.135	57.8
880.512	57.79
880.889	57.81
881.265	57.8
881.642	57.81
882.019	57.83
882.395	57.83
882.772	57.8
883.148	57.78
883.524	57.79
883.901	57.82
884.277	57.83
884.653	57.86
885.029	57.84
885.405	57.83
885.781	57.78
886.157	57.77
886.532	57.77
886.908	57.77
887.284	57.82
887.659	57.83
888.035	57.85
888.411	57.83
888.786	57.79
889.161	57.79
889.537	57.82
889.912	57.82
890.287	57.81
890.662	57.79
891.037	57.78
891.412	57.74
891.787	57.71
892.162	57.67
892.536	57.69
892.911	57.68
893.286	57.67
893.66	57.62
894.035	57.6
894.409	57.6
894.784	57.6
895.158	57.57
895.532	57.55
895.906	57.53
896.281	57.53
896.655	57.52
897.029	57.48
897.402	57.5
897.776	57.55
898.15	57.56
898.524	57.55
898.898	57.52
899.271	57.55
899.645	57.55
900.018	57.58
900.392	57.58
900.765	57.59
901.138	57.63
901.511	57.6
901.884	57.57
902.258	57.56
902.631	57.59
903.003	57.65
903.376	57.63
903.749	57.65
904.122	57.63
904.495	57.6
904.867	57.61
905.24	57.59
905.612	57.58
905.985	57.56
906.357	57.55
906.729	57.53
907.102	57.48
907.474	57.47
907.846	57.43
908.218	57.43
908.59	57.41
908.962	57.38
909.334	57.39
909.705	57.41
910.077	57.42
910.449	57.43
910.82	57.4
911.192	57.41
911.563	57.38
911.935	57.35
912.306	57.34
912.677	57.35
913.048	57.32
913.419	57.28
913.79	57.25
914.161	57.25
914.532	57.24
914.903	57.26
915.274	57.23
915.645	57.27
916.015	57.26
916.386	57.26
916.756	57.22
917.127	57.22
917.497	57.28
917.868	57.31
918.238	57.3
918.608	57.27
918.978	57.24
919.348	57.25
919.718	57.2
920.088	57.24
920.458	57.27
920.828	57.32
921.198	57.35
921.567	57.3
921.937	57.27
922.306	57.26
922.676	57.29
923.045	57.29
923.415	57.32
923.784	57.35
924.153	57.35
924.522	57.35
924.891	57.33
925.26	57.29
925.629	57.31
925.998	57.32
926.367	57.33
926.736	57.32
927.104	57.36
927.473	57.37
927.842	57.36
928.21	57.37
928.578	57.29
928.947	57.26
929.315	57.25
929.683	57.22
930.051	57.19
930.42	57.2
930.788	57.19
931.156	57.14
931.523	57.14
931.891	57.1
932.259	57.06
932.627	57.03
932.994	57.03
933.362	57.03
933.729	56.97
934.097	56.97
934.464	56.93
934.831	56.9
935.199	56.9
935.566	56.8
935.933	56.87
936.3	56.85
936.667	56.84
937.034	56.79
937.401	56.8
937.767	56.83
938.134	56.8
938.501	56.78
938.867	56.79
939.234	56.83
939.6	56.86
939.967	56.72
940.333	56.79
940.699	56.93
941.065	56.99
941.431	57.04
941.798	57.09
942.163	57.25
942.529	57.32
942.895	57.35
943.261	57.45
943.627	57.54
943.992	57.56
944.358	57.58
944.723	57.55
945.089	57.6
945.454	57.59
945.82	57.66
946.185	57.66
946.55	57.76
946.915	57.76
947.28	57.66
947.645	57.56
948.01	57.53
948.375	57.5
948.74	57.51
949.104	57.57
949.469	57.42
949.834	57.36
950.198	57.25
950.562	57.17
950.927	57.11
951.291	57.04
951.655	57.12
952.02	57.07
952.384	57.09
952.748	57
953.112	56.88
953.476	56.94
953.839	56.87
954.203	56.82
954.567	56.79
954.931	56.7
955.294	56.66
955.658	56.51
956.021	56.55
956.385	56.56
956.748	56.64
957.111	56.63
957.474	56.7
957.837	56.74
958.2	56.75
958.563	56.76
958.926	56.77
959.289	56.77
959.652	56.86
960.015	56.78
960.377	56.74
960.74	56.64
961.102	56.61
961.465	56.57
961.827	56.41
962.189	56.4
962.552	56.31
962.914	56.32
963.276	56.32
963.638	56.23
964	56.16
964.362	56.11
964.724	56.16
965.085	56.15
965.447	56.05
965.809	56.12
966.17	56.13
966.532	56.19
966.893	56.19
967.255	56.17
967.616	56.21
967.977	56.33
968.338	56.33
968.699	56.25
969.061	56.23
969.421	56.32
969.782	56.39
970.143	56.39
970.504	56.34
970.865	56.34
971.225	56.36
971.586	56.36
971.946	56.32
972.307	56.35
972.667	56.41
973.027	56.5
973.388	56.43
973.748	56.44
974.108	56.41
974.468	56.4
974.828	56.38
975.188	56.4
975.548	56.46
975.907	56.47
976.267	56.49
976.627	56.49
976.986	56.48
977.346	56.56
977.705	56.59
978.064	56.58
978.424	56.6
978.783	56.62
979.142	56.58
979.501	56.51
979.86	56.51
980.219	56.37
980.578	56.33
980.937	56.34
981.296	56.33
981.654	56.37
982.013	56.39
982.371	56.43
982.73	56.41
983.088	56.42
983.447	56.46
983.805	56.43
984.163	56.57
984.521	56.51
984.879	56.48
985.237	56.5
985.595	56.47
985.953	56.47
986.311	56.53
986.669	56.57
987.026	56.55
987.384	56.6
987.741	56.69
988.099	56.66
988.456	56.79
988.814	56.8
989.171	56.82
989.528	56.82
989.885	56.8
990.242	56.81
990.599	56.81
990.956	56.85
991.313	56.9
991.67	56.99
992.027	57.02
992.383	57.12
992.74	57.11
993.096	57.08
993.453	57.05
993.809	57.09
994.165	57.08
994.522	57.22
994.878	57.19
995.234	57.16
995.59	56.99
995.946	57.06
996.302	56.88
996.658	56.86
997.013	56.89
997.369	56.89
997.725	57.03
998.08	57.08
998.436	56.96
998.791	56.97
999.147	56.94
999.502	56.97
999.857	56.96
1000.212	57.07
1000.567	57.16
1000.922	57.18
1001.277	57.18
1001.632	57.14
1001.987	57.11
1002.342	57.19
1002.696	57.29
1003.051	57.27
1003.406	57.32
1003.76	57.31
1004.114	57.41
1004.469	57.44
1004.823	57.48
1005.177	57.65
1005.531	57.46
1005.885	57.54
1006.239	57.5
1006.593	57.54
1006.947	57.53
1007.301	57.55
1007.655	57.61
1008.008	57.41
1008.362	57.48
1008.715	57.39
1009.069	57.23
1009.422	57.39
1009.776	57.32
1010.129	57.31
1010.482	57.24
1010.835	57.37
1011.188	57.18
1011.541	56.88
1011.894	56.94
1012.247	56.86
1012.6	56.9
1012.952	57.03
1013.305	57.02
1013.657	57.11
1014.01	57.35
1014.362	57.58
1014.715	57.48
1015.067	57.66
1015.419	58.09
1015.771	58.2
1016.123	58.1
1016.475	58.39
1016.827	58.4
1017.179	58.46
1017.531	58.23
1017.883	58.31
1018.234	58.29
1018.586	58.46
1018.938	58.35
1019.289	58.25
1019.64	58.51
1019.992	58.62
1020.343	58.49
1020.694	58.48
1021.045	58.67
1021.396	58.97
1021.747	58.83
1022.098	58.79
1022.449	58.88
1022.8	59.12
1023.151	59.38
1023.501	59.28
1023.852	59.48
1024.202	59.31
1024.553	59.27
1024.903	59.21
1025.253	59.31
1025.604	59.5
1025.954	59.41
1026.304	59.81
1026.654	59.84
1027.004	59.54
1027.354	59.55
1027.703	59.5
1028.053	59.33
1028.403	59.77
1028.753	59.81
1029.102	59.53
1029.452	59.2
1029.801	59.17
1030.15	58.62
1030.499	58.6
897.758	276.88
901.051	285.23
904.343	289.92
907.636	287.25
910.928	282.11
914.22	291.45
917.511	281.32
920.803	272.28
924.094	263.48
927.384	266.92
930.675	259.62
933.965	257.7
937.255	257.65
940.544	247.46
943.834	232.56
947.123	231.06
950.411	219.98
953.7	219.63
956.988	212.6
960.276	203.12
963.563	202.82
966.851	194.08
970.138	190.67
973.424	179.08
976.711	177.62
979.997	175.86
983.283	171.19
986.568	164.5
989.853	161.25
993.138	158.87
996.423	156.3
999.708	151.69
1002.992	152.13
1006.275	149.04
1009.559	149.24
1012.842	145.1
1016.125	140.1
1019.408	138.42
1022.69	138.29
1025.972	138.22
1029.254	134.74
1032.536	133.77
1035.817	130.89
1039.098	129.49
1042.379	128.76
1045.659	127.23
1048.939	125.55
1052.219	125.26
1055.498	123.54
1058.778	122.04
1062.057	120.38
1065.335	120.39
1068.614	117.87
1071.892	117.51
1075.17	114.06
1078.447	112.53
1081.724	111.71
1085.001	111.02
1088.278	110.65
1091.554	109.73
1094.83	109.62
1098.106	107.28
1101.382	107.84
1104.657	107.6
1107.932	105.54
1111.206	107.28
1114.481	106.54
1117.755	105.63
1121.029	104.78
1124.302	103.09
1127.575	103.77
1130.848	103.01
1134.121	101.51
1137.393	100.65
1140.665	100.19
1143.937	99.72
1147.208	98.03
1150.48	97.46
1153.75	95.95
1157.021	96.6
1160.291	97.46
1163.561	95.76
1166.831	95.49
1170.101	96.4
1173.37	95.42
1176.639	94.8
1179.907	95.31
1183.176	95.59
1186.444	95.59
1189.711	95.36
1192.979	95.2
1196.246	95.36
1199.513	94.71
1202.78	94.72
1206.046	94.86
1209.312	95.25
1212.578	95.94
1215.843	96.62
1219.108	96.33
1222.373	97.13
1225.638	98.62
1228.902	100.35
1232.166	101.28
1235.43	102.51
1238.693	104.56
1241.956	105.35
1245.219	106.7
1248.482	108.2
1251.744	107.48
1255.006	109.68
1258.268	106.74
1261.529	106.64
1264.79	104.22
1268.051	102.73
1271.312	103.61
1274.572	101.34
1277.832	100.93
1281.092	100.24
1284.351	98.46
1287.61	98.47
1290.869	97.46
1294.128	98.32
1297.386	96.85
1300.644	97.12
1303.902	96.63
1307.159	95.06
1310.416	95.82
1313.673	95.91
1316.93	96.36
1320.186	96.53
1323.442	97.2
1326.697	98.36
1329.953	98.12
1333.208	100.75
1336.463	102.09
1339.717	104.13
1342.972	108.22
1346.226	109.9
1349.479	110.22
1352.733	113.4
1355.986	116.05
1359.238	117.57
1362.491	117.46
1365.743	119.57
1368.995	121.43
1372.247	121.93
1375.498	120.48
1378.749	122.58
1382	121.86
1385.251	121.11
1388.501	119.23
1391.751	119.87
1395	118.07
1398.25	117.75
1401.499	118.32
1404.748	116.03
1407.996	112.33
1411.244	113.26
1414.492	110.74
1417.74	106.36
1420.987	104.56
1424.234	102.73
1427.481	98.52
1430.728	96.67
1433.974	94.29
1437.22	90.1
1440.465	87.41
1443.711	84.97
1446.956	82.04
1450.201	80.01
1453.445	77.75
1456.689	75.29
1459.933	73.54
1463.177	71.36
1466.42	69.53
1469.663	67.56
1472.906	66.6
1476.148	65.32
1479.391	65.7
1482.633	64.64
1485.874	63.92
1489.115	63.64
1492.356	63.03
1495.597	62.69
1498.838	62.87
1502.078	63.32
1505.318	63.47
1508.557	63.07
1511.797	63.23
1515.036	62.86
1518.274	62.83
1521.513	62.36
1524.751	62.44
1527.989	63.57
1531.227	63.49
1534.464	63.46
1537.701	63.01
1540.938	63.12
1544.174	63.42
1547.41	63.53
1550.646	63.56
1553.882	64.43
1557.117	64.8
1560.352	65.15
1563.587	64.33
1566.821	64.49
1570.055	64.53
1573.289	64.72
1576.523	65.09
1579.756	64.86
1582.989	65.22
1586.222	65.01
1589.454	64.83
1592.686	64.53
1595.918	64.3
1599.15	64.79
1602.381	64.8
1605.612	65.25
1608.843	65.51
1612.073	65.45
1615.303	66.35
1618.533	66.16
1621.762	66.44
1624.992	66.47
1628.221	66.66
1631.449	66.93
1634.678	67.06
1637.906	67.22
1641.134	67.17
1644.361	67.3
1647.588	67
1650.815	66.59
1654.042	67.32
1657.269	67.02
1660.495	67.46
1663.72	67.86
1666.946	67.55
1670.171	67.7
1673.396	67.68
1676.621	68.14
1679.845	68.07
1683.069	67.82
1686.293	67.61
1689.517	67.39
1692.74	67.55
1695.963	67.53
1699.185	67.45
1702.408	67.63
1705.63	67.29
1708.852	68.26
1712.073	67.08
1715.294	67.19
1718.515	68.47
1721.736	68.68
1724.956	68.22
1728.176	68.25
1731.396	68.25
1734.616	67.79
1737.835	67.84
1741.054	67.73
1744.272	66.83
1747.491	67.55
1750.709	67.41
1753.927	66.65
1757.144	66.81
1760.361	66.87
1763.578	66.69
1766.795	66.62
1770.011	67.11
1773.227	67.43
1776.443	67.54
1779.658	67.75
1782.874	67.63
1786.089	67.71
1789.303	67.66
1792.518	68.32
1795.732	68.43
1798.945	69.6
1802.159	69.38
1805.372	70.08
1808.585	70.08
1811.797	70.44
1815.01	70.67
1818.222	71.1
1821.434	70.94
1824.645	70.95
1827.856	71.27
1831.067	71.77
1834.278	71.81
1837.488	72.16
1840.698	71.96
1843.908	71.84
1847.117	72.46
1850.326	72.41
1853.535	72.64
1856.744	73.31
1859.952	73.86
1863.16	72.88
1866.368	71.8
1869.575	71.08
1872.782	70.78
1875.989	69.11
1879.196	68.62
1882.402	66.38
1885.608	66.47
1888.814	64.66
1892.019	63.69
1895.224	62.07
1898.429	61.53
1901.634	61.19
1904.838	60.64
1908.042	60.05
1911.246	60.11
1914.449	59.77
1917.652	59.64
1920.855	59.59
1924.058	58.45
1927.26	57.89
1930.462	58.41
1933.664	58.57
1936.865	58.86
1940.066	58.06
1943.267	57.01
1946.467	57.47
1949.668	57.07
1952.868	57.93
1956.067	57.36
1959.267	59.86
1962.466	59.88
1965.665	60.38
1968.863	60.78
1972.061	61.31
1975.259	62.71
1978.457	63.63
1981.654	64.26
1984.852	65.5
1988.048	66.28
1991.245	67.42
1994.441	68.95
1997.637	69.57
2000.833	71.31
2004.028	71.83
2007.223	74.32
2010.418	76.66
2013.613	79.59
2016.807	81.97
2020.001	82.52
2023.194	85.79
2026.388	87.91
2029.581	91.97
2032.774	95.98
2035.966	97.86
2039.158	102.65
2042.35	102.88
2045.542	102.81
2048.733	107.98
2051.924	108.59
2055.115	111.23
2058.306	111.76
2061.496	113.78
2064.686	112.15
2067.875	111.26
2071.065	114.07
2074.254	112.1
2077.442	116.38
2080.631	118.21
2083.819	118.56
2087.007	120.29
2090.195	124.42
2093.382	121.57
2096.569	121.86
2099.756	125.49
2102.942	128.68
2106.128	129.32
2109.314	132.45
2112.5	131.41
2115.685	131.32
2118.87	130.89
2122.055	131.35
2125.239	130.67
2128.424	136.85
2131.608	135.16
2134.791	134.76
2137.974	135.52
2141.157	138.39
2144.34	139.43
2147.523	141.4
2150.705	144.61
2153.887	145.48
2157.068	149.04
2160.25	149.28
2163.431	149.12
2166.611	153.86
2169.792	156.43
2172.972	160.63
2176.152	158.84
2179.331	162.2
2182.511	162.07
2185.69	162.79
2188.868	164.13
2192.047	168.46
2195.225	172.75
2198.403	173.41
2201.58	172.03
2204.758	177.48
2207.935	175.39
2211.111	177.61
2214.288	178.58
2217.464	181.3
2220.64	184.26
2223.815	185.61
2226.991	182.82
2230.166	182.97
2233.34	189.56
2236.515	194.67
2239.689	188.24
2242.863	192.63
2246.036	190.12
2249.209	194.85
2252.382	195.19
2255.555	201.14
2258.727	204.93
2261.9	205.78
2265.071	209.75
2268.243	212.43
2271.414	213.4
2274.585	220.14
2277.756	221.39
2280.926	230.74
2284.096	228.71
2287.266	228.88
2290.436	226.48
2293.605	228.68
2296.774	245.76
2299.942	244.51
2303.111	247.89
2306.279	253.8
2309.447	255.6
2312.614	256.28
2315.781	260.88
2318.948	267.87
2322.115	273.01
2325.281	280.35
2328.447	283.46
2331.613	277.58
2334.779	282.62
2337.944	280.99
2341.109	286.22
2344.274	289.47
2347.438	297.86
2350.602	302.64
2353.766	314.58
2356.929	316.29
2360.092	325.36
2363.255	321.39
2366.418	327.5
2369.58	332.68
2372.742	346.52
2375.904	345.19
2379.066	352.79
2382.227	371.51
2385.388	369.29
2388.548	358.72
2391.709	359.01
2394.869	366.29
2398.029	375.12
2401.188	373.95
2404.347	383.12
2407.506	385.48
2410.665	376.99
2413.823	376.98
2416.981	375.56
2420.139	361.62
2423.296	381.86
2426.453	402.91
2429.61	389.53
2432.767	408.35
2435.923	424.74
2439.079	413.86
2442.235	420.08
2445.391	429.68
2448.546	432.47
2451.701	446.45
2454.855	477.46
2458.009	429.95
2461.163	435.14
2464.317	438.56
2467.471	427.37
2470.624	439
2473.777	435.91
2476.929	428.08
2480.082	449.08
2483.234	463.77
2486.385	478.43
2489.537	486.77
2492.688	532.34
2495.839	527.06
2498.989	539.44
2502.14	549.04
2505.29	522.57
2508.439	576.09
2511.589	589.36
2514.738	567.9
2517.887	566.43
2521.035	528.71
2524.183	520.75
2527.331	517.27
2530.479	501.5
2533.627	513.14
