Data from C_1_DIV_PA_2n_Splice17_08.txt Node
Date: Sat Feb 29 13:06:27 EST 2020
User: sa697716
Spectrometer: FLMS03696
Trigger mode: 0
Integration Time (sec): 3.180400E-1
Scans to average: 20
Electric dark correction enabled: true
Nonlinearity correction enabled: true
Boxcar width: 5
XAxis mode: Wavelengths
Number of Pixels in Spectrum: 2048
>>>>>Begin Spectral Data<<<<<
187.83	47.6
188.298	47.43
188.766	45.25
189.233	36.56
189.701	37.27
190.169	50.17
190.636	62.5
191.104	49.13
191.571	352.67
192.039	253.26
192.506	-92.96
192.974	4307.83
193.441	-233.25
193.908	53.5
194.375	33.15
194.842	62.48
195.31	66.06
195.777	36.89
196.244	-5.95
196.711	1.97
197.177	0.88
197.644	-1.33
198.111	-1.3
198.578	-0.69
199.045	-0.16
199.511	0.59
199.978	1.46
200.445	1.22
200.911	1.57
201.378	1.92
201.844	2.47
202.31	3.34
202.777	4.38
203.243	5.09
203.709	5.61
204.176	5.65
204.642	5.93
205.108	5.55
205.574	6.25
206.04	6.74
206.506	6.4
206.972	6.57
207.438	5.86
207.903	6.27
208.369	6.08
208.835	6.24
209.301	6.5
209.766	6.74
210.232	7.16
210.697	7.45
211.163	7.81
211.628	8.29
212.094	8.18
212.559	8.34
213.024	8.02
213.49	8.07
213.955	8.26
214.42	8.28
214.885	8.01
215.35	8.14
215.815	8.12
216.28	8
216.745	8.12
217.21	8.33
217.675	8.47
218.14	8.51
218.604	8.43
219.069	8.44
219.534	8.45
219.998	8.37
220.463	8.32
220.927	8.26
221.392	8.21
221.856	8.11
222.32	8.02
222.785	7.99
223.249	7.97
223.713	7.97
224.177	7.88
224.642	7.85
225.106	7.83
225.57	7.77
226.034	7.7
226.497	7.66
226.961	7.59
227.425	7.51
227.889	7.44
228.353	7.36
228.816	7.3
229.28	7.23
229.744	7.18
230.207	7.14
230.671	7.11
231.134	7.09
231.597	7.02
232.061	6.99
232.524	7
232.987	6.96
233.45	6.9
233.914	6.84
234.377	6.83
234.84	6.75
235.303	6.69
235.766	6.61
236.229	6.56
236.691	6.53
237.154	6.5
237.617	6.41
238.08	6.36
238.542	6.31
239.005	6.25
239.468	6.18
239.93	6.15
240.393	6.11
240.855	6.07
241.317	6.04
241.78	5.99
242.242	5.93
242.704	5.9
243.166	5.87
243.629	5.85
244.091	5.83
244.553	5.8
245.015	5.78
245.477	5.74
245.939	5.72
246.4	5.68
246.862	5.67
247.324	5.66
247.786	5.64
248.247	5.61
248.709	5.59
249.17	5.57
249.632	5.54
250.093	5.51
250.555	5.5
251.016	5.48
251.477	5.46
251.939	5.42
252.4	5.4
252.861	5.37
253.322	5.35
253.783	5.33
254.244	5.31
254.705	5.3
255.166	5.29
255.627	5.28
256.088	5.25
256.549	5.24
257.009	5.23
257.47	5.21
257.931	5.19
258.391	5.17
258.852	5.15
259.312	5.13
259.773	5.12
260.233	5.1
260.694	5.08
261.154	5.07
261.614	5.05
262.074	5.04
262.534	5.01
262.994	5.01
263.455	5
263.915	4.99
264.374	4.97
264.834	4.97
265.294	4.96
265.754	4.94
266.214	4.94
266.673	4.93
267.133	4.91
267.593	4.91
268.052	4.89
268.512	4.88
268.971	4.87
269.431	4.86
269.89	4.84
270.349	4.83
270.809	4.82
271.268	4.82
271.727	4.81
272.186	4.8
272.645	4.78
273.104	4.78
273.563	4.76
274.022	4.75
274.481	4.74
274.94	4.72
275.399	4.72
275.857	4.7
276.316	4.68
276.775	4.66
277.233	4.65
277.692	4.64
278.15	4.62
278.609	4.6
279.067	4.58
279.525	4.56
279.984	4.55
280.442	4.53
280.9	4.52
281.358	4.5
281.816	4.49
282.274	4.47
282.732	4.45
283.19	4.44
283.648	4.44
284.106	4.41
284.564	4.41
285.021	4.4
285.479	4.38
285.937	4.37
286.394	4.36
286.852	4.35
287.309	4.34
287.767	4.33
288.224	4.33
288.682	4.33
289.139	4.32
289.596	4.31
290.053	4.3
290.511	4.3
290.968	4.29
291.425	4.29
291.882	4.28
292.339	4.27
292.796	4.26
293.252	4.25
293.709	4.23
294.166	4.22
294.623	4.21
295.079	4.21
295.536	4.2
295.992	4.18
296.449	4.17
296.905	4.16
297.362	4.15
297.818	4.15
298.274	4.14
298.731	4.14
299.187	4.14
299.643	4.12
300.099	4.12
300.555	4.11
301.011	4.1
301.467	4.1
301.923	4.1
302.379	4.09
302.835	4.08
303.291	4.08
303.746	4.07
304.202	4.05
304.658	4.05
305.113	4.04
305.569	4.03
306.024	4.03
306.479	4.01
306.935	4
307.39	4
307.845	4
308.301	3.99
308.756	3.99
309.211	3.98
309.666	3.97
310.121	3.96
310.576	3.96
311.031	3.95
311.486	3.94
311.94	3.93
312.395	3.93
312.85	3.92
313.305	3.9
313.759	3.89
314.214	3.88
314.668	3.89
315.123	3.88
315.577	3.89
316.032	3.88
316.486	3.88
316.94	3.88
317.394	3.87
317.849	3.87
318.303	3.87
318.757	3.87
319.211	3.86
319.665	3.85
320.119	3.85
320.572	3.84
321.026	3.82
321.48	3.82
321.934	3.81
322.387	3.81
322.841	3.81
323.295	3.81
323.748	3.8
324.202	3.8
324.655	3.8
325.108	3.79
325.562	3.78
326.015	3.78
326.468	3.77
326.921	3.77
327.374	3.76
327.827	3.75
328.28	3.74
328.733	3.73
329.186	3.73
329.639	3.72
330.092	3.71
330.545	3.71
330.997	3.71
331.45	3.71
331.903	3.7
332.355	3.68
332.808	3.67
333.26	3.67
333.713	3.68
334.165	3.68
334.617	3.68
335.069	3.68
335.522	3.68
335.974	3.67
336.426	3.66
336.878	3.66
337.33	3.66
337.782	3.66
338.234	3.66
338.686	3.65
339.137	3.65
339.589	3.64
340.041	3.63
340.493	3.62
340.944	3.61
341.396	3.62
341.847	3.62
342.299	3.61
342.75	3.6
343.201	3.58
343.653	3.57
344.104	3.57
344.555	3.55
345.006	3.55
345.457	3.55
345.908	3.54
346.359	3.54
346.81	3.55
347.261	3.55
347.712	3.54
348.163	3.54
348.613	3.54
349.064	3.53
349.515	3.53
349.965	3.52
350.416	3.52
350.866	3.51
351.317	3.51
351.767	3.49
352.217	3.49
352.668	3.5
353.118	3.51
353.568	3.51
354.018	3.52
354.468	3.52
354.918	3.54
355.368	3.54
355.818	3.54
356.268	3.54
356.718	3.55
357.168	3.55
357.617	3.55
358.067	3.55
358.517	3.56
358.966	3.56
359.416	3.57
359.865	3.57
360.315	3.58
360.764	3.59
361.213	3.59
361.663	3.59
362.112	3.61
362.561	3.61
363.01	3.63
363.459	3.63
363.908	3.65
364.357	3.65
364.806	3.65
365.255	3.66
365.703	3.67
366.152	3.68
366.601	3.7
367.05	3.7
367.498	3.72
367.947	3.72
368.395	3.73
368.844	3.73
369.292	3.74
369.74	3.76
370.189	3.77
370.637	3.8
371.085	3.82
371.533	3.83
371.981	3.86
372.429	3.86
372.877	3.88
373.325	3.9
373.773	3.92
374.221	3.95
374.669	3.97
375.116	3.97
375.564	3.98
376.012	3.99
376.459	4.01
376.907	4.03
377.354	4.05
377.801	4.08
378.249	4.1
378.696	4.12
379.143	4.14
379.591	4.17
380.038	4.21
380.485	4.24
380.932	4.27
381.379	4.28
381.826	4.31
382.273	4.33
382.72	4.36
383.166	4.39
383.613	4.42
384.06	4.44
384.506	4.46
384.953	4.48
385.4	4.5
385.846	4.52
386.292	4.56
386.739	4.57
387.185	4.6
387.631	4.62
388.078	4.64
388.524	4.64
388.97	4.67
389.416	4.69
389.862	4.71
390.308	4.72
390.754	4.76
391.2	4.78
391.645	4.8
392.091	4.81
392.537	4.83
392.983	4.85
393.428	4.87
393.874	4.89
394.319	4.91
394.765	4.93
395.21	4.94
395.655	4.95
396.101	4.96
396.546	4.98
396.991	5
397.436	5.02
397.881	5.04
398.326	5.05
398.771	5.09
399.216	5.11
399.661	5.13
400.106	5.17
400.551	5.18
400.995	5.19
401.44	5.19
401.885	5.22
402.329	5.23
402.774	5.23
403.218	5.24
403.663	5.23
404.107	5.25
404.551	5.27
404.995	5.27
405.44	5.27
405.884	5.27
406.328	5.28
406.772	5.3
407.216	5.31
407.66	5.33
408.104	5.35
408.547	5.35
408.991	5.35
409.435	5.34
409.879	5.34
410.322	5.35
410.766	5.36
411.209	5.36
411.653	5.35
412.096	5.33
412.54	5.33
412.983	5.33
413.426	5.34
413.869	5.34
414.312	5.37
414.756	5.37
415.199	5.39
415.642	5.41
416.085	5.43
416.527	5.46
416.97	5.49
417.413	5.48
417.856	5.49
418.298	5.48
418.741	5.48
419.184	5.48
419.626	5.48
420.069	5.48
420.511	5.46
420.953	5.45
421.396	5.44
421.838	5.43
422.28	5.45
422.722	5.45
423.164	5.45
423.606	5.46
424.048	5.46
424.49	5.47
424.932	5.48
425.374	5.5
425.816	5.5
426.258	5.48
426.699	5.47
427.141	5.46
427.582	5.45
428.024	5.46
428.465	5.45
428.907	5.45
429.348	5.44
429.789	5.43
430.231	5.41
430.672	5.4
431.113	5.41
431.554	5.43
431.995	5.43
432.436	5.43
432.877	5.41
433.318	5.4
433.759	5.39
434.2	5.37
434.64	5.38
435.081	5.38
435.522	5.37
435.962	5.37
436.403	5.37
436.843	5.36
437.284	5.37
437.724	5.39
438.164	5.39
438.604	5.4
439.045	5.41
439.485	5.4
439.925	5.4
440.365	5.39
440.805	5.37
441.245	5.34
441.685	5.36
442.125	5.35
442.564	5.33
443.004	5.33
443.444	5.32
443.883	5.31
444.323	5.31
444.762	5.33
445.202	5.36
445.641	5.35
446.081	5.37
446.52	5.35
446.959	5.35
447.398	5.35
447.837	5.38
448.276	5.38
448.716	5.38
449.154	5.38
449.593	5.38
450.032	5.36
450.471	5.36
450.91	5.36
451.349	5.36
451.787	5.36
452.226	5.33
452.664	5.31
453.103	5.3
453.541	5.29
453.98	5.28
454.418	5.26
454.856	5.24
455.295	5.23
455.733	5.23
456.171	5.22
456.609	5.22
457.047	5.22
457.485	5.2
457.923	5.2
458.361	5.18
458.798	5.17
459.236	5.17
459.674	5.19
460.111	5.19
460.549	5.18
460.987	5.19
461.424	5.17
461.862	5.16
462.299	5.16
462.736	5.18
463.173	5.19
463.611	5.19
464.048	5.2
464.485	5.2
464.922	5.19
465.359	5.19
465.796	5.18
466.233	5.2
466.67	5.2
467.106	5.19
467.543	5.2
467.98	5.2
468.416	5.21
468.853	5.21
469.29	5.23
469.726	5.24
470.162	5.24
470.599	5.24
471.035	5.25
471.471	5.24
471.907	5.26
472.344	5.25
472.78	5.25
473.216	5.25
473.652	5.25
474.088	5.25
474.523	5.25
474.959	5.24
475.395	5.24
475.831	5.24
476.266	5.24
476.702	5.24
477.138	5.22
477.573	5.22
478.008	5.22
478.444	5.21
478.879	5.2
479.314	5.19
479.75	5.19
480.185	5.18
480.62	5.17
481.055	5.17
481.49	5.16
481.925	5.14
482.36	5.13
482.795	5.11
483.229	5.1
483.664	5.09
484.099	5.08
484.534	5.07
484.968	5.06
485.403	5.05
485.837	5.03
486.271	5.03
486.706	5.03
487.14	5.03
487.574	5.03
488.009	5.03
488.443	5.03
488.877	5.03
489.311	5.03
489.745	5.04
490.179	5.04
490.613	5.04
491.046	5.04
491.48	5.04
491.914	5.04
492.348	5.03
492.781	5.03
493.215	5.03
493.648	5.04
494.082	5.05
494.515	5.03
494.948	5.03
495.382	5.04
495.815	5.05
496.248	5.06
496.681	5.06
497.114	5.06
497.547	5.07
497.98	5.08
498.413	5.08
498.846	5.09
499.279	5.11
499.711	5.12
500.144	5.12
500.577	5.12
501.009	5.11
501.442	5.14
501.874	5.15
502.306	5.15
502.739	5.15
503.171	5.17
503.603	5.17
504.036	5.18
504.468	5.2
504.9	5.22
505.332	5.24
505.764	5.27
506.196	5.28
506.627	5.3
507.059	5.31
507.491	5.35
507.923	5.36
508.354	5.39
508.786	5.41
509.217	5.42
509.649	5.43
510.08	5.46
510.512	5.47
510.943	5.49
511.374	5.52
511.805	5.55
512.237	5.56
512.668	5.6
513.099	5.62
513.53	5.65
513.961	5.68
514.391	5.71
514.822	5.73
515.253	5.75
515.684	5.78
516.114	5.83
516.545	5.87
516.975	5.91
517.406	5.94
517.836	5.99
518.267	6.03
518.697	6.1
519.127	6.16
519.558	6.22
519.988	6.28
520.418	6.33
520.848	6.39
521.278	6.46
521.708	6.34
522.138	6.39
522.567	6.44
522.997	6.5
523.427	6.53
523.857	6.57
524.286	6.62
524.716	6.67
525.145	6.73
525.575	6.77
526.004	6.81
526.433	7.04
526.863	7.11
527.292	7.16
527.721	7.21
528.15	7.26
528.579	7.31
529.008	7.35
529.437	7.38
529.866	7.4
530.295	7.44
530.724	7.48
531.152	7.53
531.581	7.56
532.01	7.58
532.438	7.62
532.867	7.64
533.295	7.67
533.723	7.7
534.152	7.73
534.58	7.75
535.008	7.76
535.436	7.77
535.865	7.77
536.293	7.78
536.721	7.79
537.149	7.79
537.576	7.81
538.004	7.82
538.432	7.82
538.86	7.84
539.287	7.85
539.715	7.86
540.143	7.87
540.57	7.88
540.998	7.9
541.425	7.9
541.852	7.91
542.28	7.92
542.707	7.94
543.134	7.94
543.561	7.93
543.988	7.94
544.415	7.96
544.842	7.97
545.269	7.99
545.696	7.98
546.123	7.98
546.549	7.97
546.976	7.99
547.403	7.98
547.829	8
548.256	8
548.682	7.99
549.108	7.99
549.535	7.98
549.961	7.98
550.387	7.98
550.813	7.98
551.24	7.97
551.666	7.96
552.092	7.96
552.518	7.96
552.943	7.96
553.369	7.95
553.795	7.93
554.221	7.92
554.646	7.9
555.072	7.89
555.498	7.89
555.923	7.87
556.349	7.84
556.774	7.81
557.199	7.78
557.625	7.75
558.05	7.73
558.475	7.69
558.9	7.67
559.325	7.63
559.75	7.59
560.175	7.55
560.6	7.54
561.025	7.49
561.449	7.46
561.874	7.43
562.299	7.37
562.723	7.34
563.148	7.31
563.572	7.26
563.997	7.22
564.421	7.17
564.846	7.12
565.27	7.07
565.694	7.03
566.118	6.99
566.542	6.93
566.966	6.9
567.39	6.85
567.814	6.81
568.238	6.76
568.662	6.71
569.086	6.69
569.509	6.65
569.933	6.61
570.357	6.55
570.78	6.51
571.204	6.48
571.627	6.44
572.05	6.41
572.474	6.37
572.897	6.34
573.32	6.31
573.743	6.26
574.166	6.22
574.589	6.2
575.012	6.18
575.435	6.15
575.858	6.12
576.281	6.1
576.704	6.07
577.126	6.04
577.549	6.02
577.972	6
578.394	5.98
578.817	5.95
579.239	5.94
579.661	5.92
580.084	5.89
580.506	5.87
580.928	5.85
581.35	5.83
581.772	5.81
582.194	5.78
582.616	5.77
583.038	5.76
583.46	5.75
583.882	5.73
584.303	5.72
584.725	5.72
585.147	5.69
585.568	5.66
585.99	5.66
586.411	5.65
586.833	5.65
587.254	5.63
587.675	5.63
588.096	5.62
588.518	5.6
588.939	5.59
589.36	5.58
589.781	5.59
590.202	5.6
590.623	5.58
591.043	5.58
591.464	5.57
591.885	5.57
592.305	5.57
592.726	5.55
593.147	5.56
593.567	5.55
593.987	5.55
594.408	5.53
594.828	5.51
595.248	5.5
595.669	5.5
596.089	5.49
596.509	5.47
596.929	5.44
597.349	5.44
597.769	5.42
598.189	5.41
598.608	5.4
599.028	5.4
599.448	5.4
599.867	5.4
600.287	5.38
600.706	5.39
601.126	5.38
601.545	5.38
601.965	5.37
602.384	5.37
602.803	5.35
603.222	5.34
603.641	5.33
604.061	5.32
604.48	5.32
604.898	5.3
605.317	5.28
605.736	5.28
606.155	5.26
606.574	5.26
606.992	5.24
607.411	5.24
607.829	5.2
608.248	5.19
608.666	5.17
609.085	5.16
609.503	5.15
609.921	5.14
610.339	5.13
610.758	5.12
611.176	5.11
611.594	5.1
612.012	5.08
612.43	5.11
612.847	5.11
613.265	5.1
613.683	5.08
614.101	5.07
614.518	5.06
614.936	5.05
615.353	5.04
615.771	5.02
616.188	5.02
616.606	5.01
617.023	5
617.44	4.98
617.857	4.97
618.274	4.97
618.691	4.97
619.108	4.96
619.525	4.95
619.942	4.94
620.359	4.95
620.776	4.93
621.192	4.94
621.609	4.93
622.026	4.93
622.442	4.92
622.859	4.92
623.275	4.92
623.691	4.92
624.108	4.92
624.524	4.92
624.94	4.9
625.356	4.91
625.772	4.89
626.188	4.9
626.604	4.89
627.02	4.88
627.436	4.87
627.852	4.86
628.268	4.86
628.683	4.85
629.099	4.85
629.514	4.86
629.93	4.85
630.345	4.85
630.761	4.84
631.176	4.84
631.591	4.84
632.007	4.83
632.422	4.83
632.837	4.82
633.252	4.82
633.667	4.81
634.082	4.8
634.497	4.78
634.911	4.77
635.326	4.76
635.741	4.75
636.155	4.74
636.57	4.74
636.984	4.71
637.399	4.7
637.813	4.68
638.228	4.68
638.642	4.66
639.056	4.66
639.47	4.65
639.884	4.66
640.298	4.65
640.712	4.63
641.126	4.62
641.54	4.62
641.954	4.64
642.368	4.63
642.781	4.63
643.195	4.62
643.609	4.61
644.022	4.62
644.436	4.61
644.849	4.61
645.262	4.61
645.676	4.59
646.089	4.58
646.502	4.56
646.915	4.56
647.328	4.55
647.741	4.54
648.154	4.53
648.567	4.52
648.98	4.51
649.393	4.5
649.805	4.49
650.218	4.5
650.631	4.5
651.043	4.49
651.456	4.49
651.868	4.48
652.28	4.5
652.693	4.49
653.105	4.49
653.517	4.49
653.929	4.5
654.341	4.5
654.753	4.5
655.165	4.5
655.577	4.5
655.989	4.49
656.401	4.48
656.813	4.47
657.224	4.46
657.636	4.47
658.047	4.47
658.459	4.45
658.87	4.45
659.282	4.46
659.693	4.44
660.104	4.43
660.515	4.44
660.926	4.46
661.338	4.46
661.749	4.45
662.159	4.44
662.57	4.43
662.981	4.43
663.392	4.44
663.803	4.43
664.213	4.43
664.624	4.44
665.035	4.43
665.445	4.42
665.855	4.42
666.266	4.43
666.676	4.44
667.086	4.44
667.497	4.44
667.907	4.44
668.317	4.44
668.727	4.45
669.137	4.45
669.547	4.46
669.956	4.47
670.366	4.49
670.776	4.49
671.186	4.49
671.595	4.52
672.005	4.53
672.414	4.54
672.824	4.56
673.233	4.58
673.642	4.59
674.052	4.6
674.461	4.6
674.87	4.61
675.279	4.63
675.688	4.64
676.097	4.65
676.506	4.66
676.915	4.68
677.323	4.69
677.732	4.71
678.141	4.73
678.549	4.76
678.958	4.78
679.366	4.79
679.775	4.82
680.183	4.84
680.592	4.84
681	4.85
681.408	4.87
681.816	4.88
682.224	4.88
682.632	4.89
683.04	4.89
683.448	4.9
683.856	4.9
684.264	4.91
684.671	4.92
685.079	4.94
685.487	4.95
685.894	4.94
686.302	4.95
686.709	4.97
687.116	4.97
687.524	4.99
687.931	4.99
688.338	5.01
688.745	5.02
689.152	5.04
689.559	5.06
689.966	5.07
690.373	5.12
690.78	5.16
691.187	5.21
691.593	5.25
692	5.32
692.407	5.41
692.813	5.47
693.22	5.56
693.626	5.64
694.032	5.74
694.439	5.86
694.845	5.97
695.251	6.09
695.657	6.22
696.063	6.35
696.469	6.51
696.875	6.65
697.281	6.8
697.687	6.98
698.093	7.17
698.498	7.35
698.904	7.56
699.31	7.76
699.715	7.96
700.12	8.18
700.526	8.4
700.931	8.61
701.337	8.85
701.742	9.09
702.147	9.34
702.552	9.59
702.957	9.85
703.362	10.12
703.767	10.4
704.172	10.69
704.577	10.97
704.981	11.29
705.386	11.58
705.791	11.89
706.195	12.22
706.6	12.53
707.004	12.84
707.408	13.17
707.813	13.46
708.217	13.79
708.621	14.12
709.025	14.48
709.43	14.8
709.834	15.17
710.237	15.5
710.641	15.87
711.045	16.22
711.449	16.61
711.853	16.97
712.256	17.38
712.66	17.78
713.064	18.13
713.467	18.5
713.87	18.89
714.274	19.27
714.677	19.67
715.08	20.03
715.484	20.44
715.887	20.83
716.29	21.23
716.693	21.6
717.096	21.99
717.499	22.42
717.901	22.82
718.304	23.25
718.707	23.66
719.109	24.07
719.512	24.47
719.915	24.88
720.317	25.26
720.719	25.66
721.122	26.07
721.524	26.47
721.926	26.86
722.328	27.28
722.731	27.66
723.133	28.05
723.535	28.42
723.937	28.83
724.338	29.17
724.74	29.55
725.142	29.84
725.544	30.18
725.945	30.49
726.347	30.85
726.748	31.15
727.15	31.47
727.551	31.77
727.952	32.06
728.354	32.37
728.755	32.7
729.156	32.98
729.557	33.34
729.958	33.66
730.359	33.97
730.76	34.24
731.161	34.52
731.562	34.76
731.962	35.03
732.363	35.31
732.763	35.57
733.164	35.79
733.564	36
733.965	36.24
734.365	36.44
734.766	36.63
735.166	36.79
735.566	36.97
735.966	37.15
736.366	37.32
736.766	37.48
737.166	37.62
737.566	37.79
737.966	37.97
738.365	38.12
738.765	38.28
739.165	38.43
739.564	38.59
739.964	38.74
740.363	38.9
740.763	39.04
741.162	39.16
741.561	39.3
741.96	39.44
742.36	39.58
742.759	39.7
743.158	39.79
743.557	39.91
743.955	40.05
744.354	40.15
744.753	40.25
745.152	40.33
745.55	40.45
745.949	40.53
746.348	40.6
746.746	40.67
747.144	40.74
747.543	40.82
747.941	40.92
748.339	40.99
748.737	41.06
749.136	41.12
749.534	41.21
749.932	41.24
750.33	41.29
750.727	41.34
751.125	41.4
751.523	41.44
751.921	41.48
752.318	41.52
752.716	41.55
753.113	41.59
753.511	41.62
753.908	41.63
754.305	41.65
754.703	41.64
755.1	41.66
755.497	41.64
755.894	41.63
756.291	41.59
756.688	41.55
757.085	41.52
757.482	41.49
757.878	41.48
758.275	41.45
758.672	41.44
759.068	41.45
759.465	41.44
759.861	41.45
760.258	41.46
760.654	41.47
761.05	41.5
761.447	41.52
761.843	41.51
762.239	41.51
762.635	41.55
763.031	41.57
763.427	41.59
763.822	41.61
764.218	41.63
764.614	41.65
765.01	41.67
765.405	41.69
765.801	41.72
766.196	41.79
766.592	41.84
766.987	41.85
767.382	41.88
767.778	41.89
768.173	41.93
768.568	41.91
768.963	41.95
769.358	41.97
769.753	41.99
770.148	42
770.542	41.98
770.937	41.98
771.332	41.98
771.726	41.98
772.121	41.95
772.515	41.96
772.91	41.97
773.304	41.94
773.699	41.94
774.093	41.91
774.487	41.92
774.881	41.91
775.275	41.89
775.669	41.89
776.063	41.86
776.457	41.88
776.851	41.82
777.245	41.83
777.638	41.84
778.032	41.86
778.425	41.88
778.819	41.84
779.212	41.81
779.606	41.81
779.999	41.81
780.392	41.83
780.786	41.83
781.179	41.85
781.572	41.85
781.965	41.88
782.358	41.83
782.751	41.82
783.143	41.86
783.536	41.91
783.929	41.95
784.322	41.97
784.714	41.97
785.107	41.99
785.499	42
785.891	41.99
786.284	41.97
786.676	42.01
787.068	41.99
787.46	41.97
787.852	41.94
788.245	41.88
788.636	41.85
789.028	41.84
789.42	41.82
789.812	41.84
790.204	41.81
790.595	41.79
790.987	41.76
791.378	41.78
791.77	41.78
792.161	41.79
792.553	41.8
792.944	41.8
793.335	41.77
793.726	41.74
794.117	41.7
794.508	41.73
794.899	41.72
795.29	41.73
795.681	41.71
796.072	41.71
796.463	41.67
796.853	41.67
797.244	41.68
797.634	41.69
798.025	41.7
798.415	41.73
798.806	41.7
799.196	41.72
799.586	41.69
799.976	41.71
800.366	41.74
800.756	41.78
801.146	41.77
801.536	41.77
801.926	41.79
802.316	41.8
802.706	41.78
803.095	41.76
803.485	41.75
803.874	41.75
804.264	41.76
804.653	41.68
805.043	41.67
805.432	41.62
805.821	41.58
806.21	41.59
806.599	41.58
806.988	41.56
807.377	41.59
807.766	41.58
808.155	41.59
808.544	41.55
808.933	41.56
809.321	41.57
809.71	41.61
810.098	41.61
810.487	41.57
810.875	41.57
811.264	41.58
811.652	41.56
812.04	41.55
812.428	41.57
812.816	41.58
813.204	41.58
813.592	41.57
813.98	41.56
814.368	41.56
814.756	41.58
815.144	41.6
815.531	41.59
815.919	41.56
816.306	41.57
816.694	41.57
817.081	41.55
817.469	41.55
817.856	41.57
818.243	41.58
818.63	41.61
819.017	41.57
819.404	41.51
819.791	41.5
820.178	41.52
820.565	41.5
820.952	41.48
821.339	41.53
821.725	41.55
822.112	41.54
822.498	41.55
822.885	41.56
823.271	41.61
823.657	41.64
824.044	41.62
824.43	41.64
824.816	41.63
825.202	41.64
825.588	41.64
825.974	41.61
826.36	41.59
826.746	41.61
827.132	41.58
827.517	41.55
827.903	41.55
828.289	41.59
828.674	41.59
829.06	41.6
829.445	41.6
829.83	41.6
830.216	41.59
830.601	41.6
830.986	41.58
831.371	41.62
831.756	41.6
832.141	41.6
832.526	41.59
832.911	41.6
833.295	41.62
833.68	41.65
834.065	41.65
834.449	41.63
834.834	41.64
835.218	41.64
835.603	41.61
835.987	41.62
836.371	41.65
836.755	41.64
837.139	41.62
837.524	41.63
837.908	41.62
838.291	41.63
838.675	41.65
839.059	41.64
839.443	41.64
839.827	41.66
840.21	41.68
840.594	41.67
840.977	41.65
841.361	41.66
841.744	41.65
842.127	41.62
842.511	41.61
842.894	41.6
843.277	41.62
843.66	41.62
844.043	41.64
844.426	41.6
844.809	41.6
845.191	41.61
845.574	41.61
845.957	41.61
846.339	41.62
846.722	41.64
847.104	41.65
847.487	41.65
847.869	41.64
848.252	41.64
848.634	41.67
849.016	41.7
849.398	41.72
849.78	41.7
850.162	41.68
850.544	41.69
850.926	41.66
851.307	41.65
851.689	41.64
852.071	41.65
852.452	41.61
852.834	41.61
853.215	41.58
853.597	41.57
853.978	41.57
854.359	41.57
854.741	41.57
855.122	41.59
855.503	41.6
855.884	41.59
856.265	41.59
856.646	41.59
857.026	41.59
857.407	41.56
857.788	41.57
858.169	41.59
858.549	41.6
858.93	41.58
859.31	41.56
859.69	41.56
860.071	41.56
860.451	41.54
860.831	41.56
861.211	41.56
861.591	41.58
861.971	41.56
862.351	41.57
862.731	41.57
863.111	41.59
863.491	41.59
863.87	41.55
864.25	41.55
864.629	41.53
865.009	41.51
865.388	41.49
865.768	41.49
866.147	41.52
866.526	41.49
866.905	41.48
867.284	41.5
867.663	41.5
868.042	41.51
868.421	41.51
868.8	41.56
869.179	41.58
869.558	41.6
869.936	41.62
870.315	41.6
870.693	41.61
871.072	41.61
871.45	41.58
871.828	41.59
872.207	41.61
872.585	41.61
872.963	41.55
873.341	41.54
873.719	41.52
874.097	41.48
874.475	41.5
874.853	41.52
875.23	41.52
875.608	41.54
875.986	41.53
876.363	41.49
876.741	41.51
877.118	41.54
877.495	41.54
877.873	41.54
878.25	41.54
878.627	41.55
879.004	41.54
879.381	41.54
879.758	41.52
880.135	41.53
880.512	41.55
880.889	41.54
881.265	41.56
881.642	41.55
882.019	41.54
882.395	41.56
882.772	41.54
883.148	41.53
883.524	41.54
883.901	41.57
884.277	41.57
884.653	41.58
885.029	41.6
885.405	41.58
885.781	41.57
886.157	41.6
886.532	41.6
886.908	41.66
887.284	41.69
887.659	41.68
888.035	41.66
888.411	41.66
888.786	41.66
889.161	41.66
889.537	41.69
889.912	41.71
890.287	41.71
890.662	41.71
891.037	41.65
891.412	41.62
891.787	41.6
892.162	41.6
892.536	41.61
892.911	41.61
893.286	41.59
893.66	41.56
894.035	41.56
894.409	41.55
894.784	41.54
895.158	41.55
895.532	41.54
895.906	41.55
896.281	41.56
896.655	41.53
897.029	41.5
897.402	41.47
897.776	41.47
898.15	41.45
898.524	41.43
898.898	41.4
899.271	41.39
899.645	41.39
900.018	41.37
900.392	41.36
900.765	41.34
901.138	41.36
901.511	41.36
901.884	41.36
902.258	41.32
902.631	41.32
903.003	41.36
903.376	41.36
903.749	41.37
904.122	41.38
904.495	41.38
904.867	41.35
905.24	41.31
905.612	41.32
905.985	41.32
906.357	41.33
906.729	41.34
907.102	41.32
907.474	41.31
907.846	41.29
908.218	41.28
908.59	41.26
908.962	41.28
909.334	41.28
909.705	41.27
910.077	41.25
910.449	41.27
910.82	41.23
911.192	41.22
911.563	41.19
911.935	41.15
912.306	41.14
912.677	41.16
913.048	41.14
913.419	41.12
913.79	41.09
914.161	41.07
914.532	41.03
914.903	41.05
915.274	41.03
915.645	41.05
916.015	41.08
916.386	41.07
916.756	41.04
917.127	41.06
917.497	41.08
917.868	41.08
918.238	41.11
918.608	41.11
918.978	41.09
919.348	41.11
919.718	41.08
920.088	41.05
920.458	41.08
920.828	41.08
921.198	41.09
921.567	41.09
921.937	41.13
922.306	41.12
922.676	41.14
923.045	41.15
923.415	41.13
923.784	41.13
924.153	41.12
924.522	41.1
924.891	41.07
925.26	41.03
925.629	41.02
925.998	41
926.367	41
926.736	40.96
927.104	40.94
927.473	40.94
927.842	40.9
928.21	40.93
928.578	40.89
928.947	40.92
929.315	40.9
929.683	40.84
930.051	40.79
930.42	40.77
930.788	40.78
931.156	40.77
931.523	40.73
931.891	40.69
932.259	40.64
932.627	40.59
932.994	40.53
933.362	40.48
933.729	40.46
934.097	40.43
934.464	40.37
934.831	40.27
935.199	40.18
935.566	40.14
935.933	40.24
936.3	40.19
936.667	40.18
937.034	40.11
937.401	40.05
937.767	40.08
938.134	40
938.501	39.88
938.867	39.94
939.234	39.95
939.6	39.89
939.967	39.71
940.333	39.78
940.699	39.81
941.065	39.88
941.431	40
941.798	40
942.163	40.11
942.529	40.22
942.895	40.22
943.261	40.27
943.627	40.36
943.992	40.4
944.358	40.3
944.723	40.3
945.089	40.29
945.454	40.27
945.82	40.23
946.185	40.19
946.55	40.26
946.915	40.25
947.28	40.22
947.645	40.2
948.01	40.2
948.375	40.23
948.74	40.18
949.104	40.18
949.469	40.15
949.834	40.16
950.198	40.12
950.562	40.06
950.927	40.04
951.291	40.05
951.655	40.05
952.02	40.06
952.384	40.12
952.748	40.15
953.112	40.13
953.476	40.13
953.839	40.07
954.203	40.04
954.567	39.98
954.931	40
955.294	40.02
955.658	39.98
956.021	39.97
956.385	39.97
956.748	39.97
957.111	39.98
957.474	39.96
957.837	40.03
958.2	40.06
958.563	40.08
958.926	40.02
959.289	40.03
959.652	40.03
960.015	39.96
960.377	39.89
960.74	39.82
961.102	39.78
961.465	39.77
961.827	39.69
962.189	39.68
962.552	39.6
962.914	39.56
963.276	39.51
963.638	39.42
964	39.42
964.362	39.42
964.724	39.44
965.085	39.46
965.447	39.43
965.809	39.41
966.17	39.45
966.532	39.53
966.893	39.56
967.255	39.52
967.616	39.55
967.977	39.56
968.338	39.51
968.699	39.56
969.061	39.53
969.421	39.51
969.782	39.51
970.143	39.38
970.504	39.34
970.865	39.25
971.225	39.23
971.586	39.2
971.946	39.21
972.307	39.25
972.667	39.2
973.027	39.21
973.388	39.2
973.748	39.21
974.108	39.26
974.468	39.28
974.828	39.36
975.188	39.37
975.548	39.41
975.907	39.46
976.267	39.41
976.627	39.4
976.986	39.33
977.346	39.36
977.705	39.4
978.064	39.4
978.424	39.36
978.783	39.3
979.142	39.26
979.501	39.21
979.86	39.09
980.219	39.05
980.578	39
980.937	39.1
981.296	39
981.654	38.92
982.013	38.99
982.371	38.95
982.73	39.02
983.088	39.02
983.447	39.03
983.805	39.05
984.163	39.04
984.521	39
984.879	38.96
985.237	38.99
985.595	38.99
985.953	38.87
986.311	38.88
986.669	38.88
987.026	38.84
987.384	38.87
987.741	38.89
988.099	38.91
988.456	38.93
988.814	38.93
989.171	38.86
989.528	38.75
989.885	38.62
990.242	38.59
990.599	38.58
990.956	38.55
991.313	38.49
991.67	38.47
992.027	38.38
992.383	38.36
992.74	38.29
993.096	38.29
993.453	38.33
993.809	38.45
994.165	38.48
994.522	38.37
994.878	38.45
995.234	38.42
995.59	38.24
995.946	38.33
996.302	38.33
996.658	38.27
997.013	38.31
997.369	38.32
997.725	38.32
998.08	38.26
998.436	38.43
998.791	38.3
999.147	38.27
999.502	38.3
999.857	38.18
1000.212	38.03
1000.567	38.01
1000.922	37.98
1001.277	37.89
1001.632	37.91
1001.987	37.79
1002.342	37.57
1002.696	37.58
1003.051	37.35
1003.406	37.21
1003.76	37.26
1004.114	37.47
1004.469	37.42
1004.823	37.31
1005.177	37.42
1005.531	37.34
1005.885	37.52
1006.239	37.51
1006.593	37.46
1006.947	37.65
1007.301	37.81
1007.655	37.7
1008.008	37.37
1008.362	37.33
1008.715	37.35
1009.069	37.26
1009.422	37.14
1009.776	36.9
1010.129	36.6
1010.482	36.58
1010.835	36.65
1011.188	36.41
1011.541	36.25
1011.894	36.37
1012.247	36.25
1012.6	36.26
1012.952	36.23
1013.305	36.16
1013.657	36.18
1014.01	36.38
1014.362	36.47
1014.715	36.23
1015.067	36.44
1015.419	36.63
1015.771	36.64
1016.123	36.83
1016.475	36.64
1016.827	36.39
1017.179	36.44
1017.531	36.49
1017.883	36.56
1018.234	36.36
1018.586	36.13
1018.938	35.87
1019.289	35.68
1019.64	35.65
1019.992	35.46
1020.343	35.51
1020.694	35.51
1021.045	35.16
1021.396	34.83
1021.747	34.81
1022.098	34.85
1022.449	34.88
1022.8	34.82
1023.151	34.49
1023.501	34.38
1023.852	34.46
1024.202	34.29
1024.553	34.09
1024.903	34.48
1025.253	34.5
1025.604	34.33
1025.954	34.22
1026.304	34.83
1026.654	34.97
1027.004	35.41
1027.354	35.39
1027.703	35.27
1028.053	35.38
1028.403	35.28
1028.753	35.08
1029.102	35
1029.452	34.82
1029.801	34.61
1030.15	34.13
1030.499	34.03
897.758	-64.85
901.051	-65.92
904.343	-64.16
907.636	-64.41
910.928	-58.67
914.22	-62.95
917.511	-59.71
920.803	-56.49
924.094	-47.01
927.384	-46.4
930.675	-44.23
933.965	-42.69
937.255	-41.08
940.544	-39.1
943.834	-36.79
947.123	-35.49
950.411	-29.09
953.7	-27.1
956.988	-28.67
960.276	-28.1
963.563	-23.53
966.851	-18.67
970.138	-17.26
973.424	-12.9
976.711	-11.82
979.997	-9.47
983.283	-11.18
986.568	-8.47
989.853	-6.78
993.138	-3.13
996.423	-1.58
999.708	-1.89
1002.992	-3.14
1006.275	-1.12
1009.559	0.45
1012.842	1.41
1016.125	3.59
1019.408	5.13
1022.69	7.45
1025.972	7.62
1029.254	7.63
1032.536	8.59
1035.817	8.6
1039.098	11.13
1042.379	13.14
1045.659	12.08
1048.939	12.04
1052.219	12.74
1055.498	15.41
1058.778	13.82
1062.057	13.82
1065.335	15.06
1068.614	14.57
1071.892	15.65
1075.17	14.28
1078.447	14.5
1081.724	15.6
1085.001	15.37
1088.278	15.46
1091.554	14.42
1094.83	15.01
1098.106	16.06
1101.382	16.18
1104.657	16.91
1107.932	16.74
1111.206	18.93
1114.481	17.31
1117.755	16.96
1121.029	18.01
1124.302	18.53
1127.575	18.94
1130.848	18.85
1134.121	18.79
1137.393	19.34
1140.665	18.43
1143.937	18.44
1147.208	16.91
1150.48	18.4
1153.75	19.05
1157.021	19.29
1160.291	19.56
1163.561	18.87
1166.831	18.98
1170.101	18.95
1173.37	19.55
1176.639	20.03
1179.907	19.99
1183.176	20.81
1186.444	19.99
1189.711	19.53
1192.979	18.92
1196.246	18.99
1199.513	19.81
1202.78	19.17
1206.046	19.02
1209.312	19.02
1212.578	19.15
1215.843	19.1
1219.108	18.02
1222.373	18.64
1225.638	18.63
1228.902	18.63
1232.166	17.21
1235.43	15.43
1238.693	16.32
1241.956	15.26
1245.219	14.12
1248.482	14.32
1251.744	13.86
1255.006	15.59
1258.268	14.41
1261.529	14.3
1264.79	15.89
1268.051	16.12
1271.312	17.54
1274.572	17.44
1277.832	19.8
1281.092	19.75
1284.351	20.36
1287.61	20.81
1290.869	19.96
1294.128	21.23
1297.386	21.27
1300.644	20
1303.902	19.43
1307.159	19.98
1310.416	19.26
1313.673	18.43
1316.93	17.43
1320.186	16.75
1323.442	15.24
1326.697	14.57
1329.953	14.57
1333.208	12.61
1336.463	11.77
1339.717	12.28
1342.972	9.61
1346.226	7.88
1349.479	6.22
1352.733	5.74
1355.986	3.75
1359.238	3.93
1362.491	3.23
1365.743	-0.27
1368.995	1.4
1372.247	0.84
1375.498	0.28
1378.749	-2.69
1382	-3.97
1385.251	-5.01
1388.501	-5.12
1391.751	-6.98
1395	-6.82
1398.25	-7.96
1401.499	-10.3
1404.748	-12.55
1407.996	-13.18
1411.244	-13.21
1414.492	-12.77
1417.74	-10.77
1420.987	-10.66
1424.234	-11.61
1427.481	-11.82
1430.728	-11.32
1433.974	-11.32
1437.22	-10.49
1440.465	-9.68
1443.711	-9.45
1446.956	-9.52
1450.201	-8.56
1453.445	-7.84
1456.689	-6.84
1459.933	-6.1
1463.177	-4.57
1466.42	-4.66
1469.663	-3.96
1472.906	-2.68
1476.148	-1.55
1479.391	-1.05
1482.633	-0.55
1485.874	0.27
1489.115	0.89
1492.356	1.39
1495.597	1.53
1498.838	2.28
1502.078	3.06
1505.318	3.36
1508.557	3.71
1511.797	3.81
1515.036	5.59
1518.274	6.51
1521.513	6.81
1524.751	6.47
1527.989	7.52
1531.227	8.04
1534.464	9.18
1537.701	8.99
1540.938	9.39
1544.174	9.74
1547.41	10.21
1550.646	10.12
1553.882	10.12
1557.117	10.87
1560.352	11.62
1563.587	11.65
1566.821	11.78
1570.055	12.01
1573.289	13.07
1576.523	13.15
1579.756	13.51
1582.989	14.03
1586.222	13.95
1589.454	14.48
1592.686	14.46
1595.918	14.83
1599.15	15.16
1602.381	15.09
1605.612	15.59
1608.843	15.12
1612.073	15.31
1615.303	15.91
1618.533	15.43
1621.762	15.86
1624.992	15.83
1628.221	15.99
1631.449	16.24
1634.678	16.76
1637.906	16.85
1641.134	16.45
1644.361	16.85
1647.588	16.99
1650.815	16.74
1654.042	17.22
1657.269	17
1660.495	17.12
1663.72	17.85
1666.946	17.37
1670.171	16.9
1673.396	17.61
1676.621	17.55
1679.845	17.97
1683.069	17.31
1686.293	17.2
1689.517	17.13
1692.74	17.07
1695.963	16.61
1699.185	15.66
1702.408	16.03
1705.63	15.96
1708.852	15.65
1712.073	15.38
1715.294	14.73
1718.515	15.88
1721.736	15.71
1724.956	15.28
1728.176	15.44
1731.396	15.37
1734.616	15.93
1737.835	15.46
1741.054	14.78
1744.272	14.83
1747.491	14.92
1750.709	14.81
1753.927	14
1757.144	14.23
1760.361	14.1
1763.578	12.84
1766.795	13.12
1770.011	13.09
1773.227	12.34
1776.443	12.77
1779.658	11.87
1782.874	11.63
1786.089	10.88
1789.303	11.23
1792.518	10.27
1795.732	10.4
1798.945	11.74
1802.159	11.11
1805.372	10
1808.585	10.85
1811.797	10.5
1815.01	10.77
1818.222	10.76
1821.434	10.79
1824.645	9.64
1827.856	9.35
1831.067	8.49
1834.278	9.03
1837.488	8.7
1840.698	8.2
1843.908	7.58
1847.117	7.24
1850.326	6.22
1853.535	6.06
1856.744	4.57
1859.952	4.02
1863.16	3.14
1866.368	3.76
1869.575	0.95
1872.782	-0.65
1875.989	-2.07
1879.196	-2.34
1882.402	-4.66
1885.608	-4.42
1888.814	-6.54
1892.019	-7.33
1895.224	-8.03
1898.429	-8.66
1901.634	-10.58
1904.838	-11.83
1908.042	-11.72
1911.246	-11.49
1914.449	-12.2
1917.652	-12.11
1920.855	-13.58
1924.058	-13.12
1927.26	-14.32
1930.462	-14.69
1933.664	-13.86
1936.865	-14.12
1940.066	-13.81
1943.267	-14.21
1946.467	-15.6
1949.668	-15.62
1952.868	-15.23
1956.067	-15.39
1959.267	-14.32
1962.466	-14.21
1965.665	-13.43
1968.863	-13.6
1972.061	-12.93
1975.259	-13.19
1978.457	-13.46
1981.654	-12.19
1984.852	-12.63
1988.048	-12.8
1991.245	-12.61
1994.441	-14.16
1997.637	-14.45
2000.833	-14.04
2004.028	-15.28
2007.223	-17.19
2010.418	-16.29
2013.613	-15.89
2016.807	-17.04
2020.001	-17.17
2023.194	-16.45
2026.388	-16.9
2029.581	-18.15
2032.774	-17.69
2035.966	-20.03
2039.158	-19.36
2042.35	-18.8
2045.542	-20.69
2048.733	-20.65
2051.924	-23.82
2055.115	-23.18
2058.306	-24.68
2061.496	-27.43
2064.686	-26.67
2067.875	-23.51
2071.065	-22.96
2074.254	-23.66
2077.442	-25.45
2080.631	-26.01
2083.819	-27.44
2087.007	-23.49
2090.195	-24.95
2093.382	-23.58
2096.569	-22.17
2099.756	-20.64
2102.942	-24.49
2106.128	-26.06
2109.314	-24.9
2112.5	-23.03
2115.685	-23
2118.87	-22.12
2122.055	-24.18
2125.239	-25.28
2128.424	-26.46
2131.608	-28.95
2134.791	-28.88
2137.974	-29.97
2141.157	-26.89
2144.34	-28.3
2147.523	-28.98
2150.705	-28.66
2153.887	-30.05
2157.068	-29.32
2160.25	-30.69
2163.431	-27.77
2166.611	-27.49
2169.792	-30.39
2172.972	-26.52
2176.152	-27.8
2179.331	-29.4
2182.511	-29.7
2185.69	-30.73
2188.868	-34.2
2192.047	-33.75
2195.225	-32.79
2198.403	-40.62
2201.58	-37.64
2204.758	-39.45
2207.935	-44.72
2211.111	-48.27
2214.288	-47.1
2217.464	-48.15
2220.64	-46.4
2223.815	-45.69
2226.991	-46.75
2230.166	-45.32
2233.34	-45.1
2236.515	-50.84
2239.689	-47.32
2242.863	-48.4
2246.036	-45.96
2249.209	-53.35
2252.382	-51.46
2255.555	-56.39
2258.727	-54.66
2261.9	-59.4
2265.071	-60.63
2268.243	-57.06
2271.414	-59.13
2274.585	-66.01
2277.756	-63.97
2280.926	-72.18
2284.096	-64.71
2287.266	-64.98
2290.436	-63.03
2293.605	-62.76
2296.774	-64.28
2299.942	-64.32
2303.111	-69.81
2306.279	-68.53
2309.447	-63.33
2312.614	-62.84
2315.781	-64.37
2318.948	-64.39
2322.115	-68.9
2325.281	-80.69
2328.447	-84.3
2331.613	-79.81
2334.779	-83.26
2337.944	-85.3
2341.109	-88.75
2344.274	-94.93
2347.438	-97.12
2350.602	-96.98
2353.766	-111.23
2356.929	-109.63
2360.092	-103.72
2363.255	-101.22
2366.418	-107.07
2369.58	-107.39
2372.742	-109.53
2375.904	-103.54
2379.066	-104.66
2382.227	-115.74
2385.388	-116.84
2388.548	-106.46
2391.709	-104.98
2394.869	-106.93
2398.029	-105.32
2401.188	-105.91
2404.347	-116.05
2407.506	-117.38
2410.665	-112.18
2413.823	-113.11
2416.981	-112.89
2420.139	-104.13
2423.296	-109.57
2426.453	-118.14
2429.61	-119.71
2432.767	-131.97
2435.923	-135.21
2439.079	-123.09
2442.235	-138.09
2445.391	-137.47
2448.546	-137.1
2451.701	-151.76
2454.855	-163.69
2458.009	-133.33
2461.163	-147.44
2464.317	-133.43
2467.471	-133.26
2470.624	-138.18
2473.777	-137.87
2476.929	-117.49
2480.082	-138.64
2483.234	-149.78
2486.385	-144.08
2489.537	-147.19
2492.688	-177.63
2495.839	-160.45
2498.989	-179.4
2502.14	-175.69
2505.29	-161.71
2508.439	-193.88
2511.589	-198.56
2514.738	-189.8
2517.887	-188.63
2521.035	-181.09
2524.183	-175.21
2527.331	-167.52
2530.479	-165.58
2533.627	-165.56
