Data from c_1_hir_il_4n_023_Splice17_01.txt Node
Date: Sat Feb 29 13:19:15 EST 2020
User: sa697716
Spectrometer: FLMS03696
Trigger mode: 0
Integration Time (sec): 3.180400E-1
Scans to average: 20
Electric dark correction enabled: true
Nonlinearity correction enabled: true
Boxcar width: 5
XAxis mode: Wavelengths
Number of Pixels in Spectrum: 2048
>>>>>Begin Spectral Data<<<<<
187.83	50.05
188.298	31.71
188.766	40.25
189.233	38.42
189.701	53.75
190.169	50.18
190.636	64.77
191.104	46.77
191.571	114.23
192.039	236.86
192.506	-42.76
192.974	4767.4
193.441	94.44
193.908	56.5
194.375	32.35
194.842	147.15
195.31	89.78
195.777	117.44
196.244	26.08
196.711	21.26
197.177	17.41
197.644	17.56
198.111	17.23
198.578	17.21
199.045	17.95
199.511	18.75
199.978	19.1
200.445	18.48
200.911	18.79
201.378	19.04
201.844	19.1
202.31	20.2
202.777	20.6
203.243	20.6
203.709	20.81
204.176	20.12
204.642	19.63
205.108	19.3
205.574	19.7
206.04	19.52
206.506	18.9
206.972	18.65
207.438	17.79
207.903	17.48
208.369	17.4
208.835	16.94
209.301	17.21
209.766	17.28
210.232	16.98
210.697	16.72
211.163	16.45
211.628	16.26
212.094	16.03
212.559	15.76
213.024	15.26
213.49	14.78
213.955	14.77
214.42	14.11
214.885	13.24
215.35	12.81
215.815	12.2
216.28	11.48
216.745	10.72
217.21	9.81
217.675	9.14
218.14	8.47
218.604	7.79
219.069	7.26
219.534	6.76
219.998	6.37
220.463	6.05
220.927	5.74
221.392	5.49
221.856	5.23
222.32	5.09
222.785	4.91
223.249	4.76
223.713	4.68
224.177	4.5
224.642	4.43
225.106	4.35
225.57	4.22
226.034	4.15
226.497	4.03
226.961	3.96
227.425	3.86
227.889	3.79
228.353	3.72
228.816	3.65
229.28	3.59
229.744	3.52
230.207	3.48
230.671	3.44
231.134	3.39
231.597	3.35
232.061	3.29
232.524	3.26
232.987	3.21
233.45	3.17
233.914	3.12
234.377	3.1
234.84	3.06
235.303	3.03
235.766	3
236.229	2.98
236.691	2.96
237.154	2.96
237.617	2.93
238.08	2.9
238.542	2.88
239.005	2.86
239.468	2.81
239.93	2.8
240.393	2.77
240.855	2.74
241.317	2.72
241.78	2.69
242.242	2.65
242.704	2.63
243.166	2.6
243.629	2.58
244.091	2.57
244.553	2.57
245.015	2.56
245.477	2.53
245.939	2.51
246.4	2.47
246.862	2.47
247.324	2.46
247.786	2.45
248.247	2.44
248.709	2.42
249.17	2.4
249.632	2.38
250.093	2.34
250.555	2.32
251.016	2.32
251.477	2.3
251.939	2.28
252.4	2.26
252.861	2.25
253.322	2.22
253.783	2.22
254.244	2.21
254.705	2.19
255.166	2.2
255.627	2.19
256.088	2.16
256.549	2.15
257.009	2.14
257.47	2.13
257.931	2.12
258.391	2.11
258.852	2.09
259.312	2.07
259.773	2.06
260.233	2.04
260.694	2.02
261.154	2.02
261.614	2
262.074	2
262.534	1.98
262.994	1.98
263.455	1.97
263.915	1.96
264.374	1.94
264.834	1.94
265.294	1.93
265.754	1.92
266.214	1.91
266.673	1.9
267.133	1.89
267.593	1.89
268.052	1.87
268.512	1.86
268.971	1.86
269.431	1.86
269.89	1.85
270.349	1.84
270.809	1.84
271.268	1.84
271.727	1.84
272.186	1.84
272.645	1.83
273.104	1.83
273.563	1.82
274.022	1.82
274.481	1.82
274.94	1.81
275.399	1.81
275.857	1.8
276.316	1.79
276.775	1.79
277.233	1.78
277.692	1.77
278.15	1.76
278.609	1.75
279.067	1.75
279.525	1.74
279.984	1.73
280.442	1.73
280.9	1.72
281.358	1.72
281.816	1.71
282.274	1.71
282.732	1.71
283.19	1.71
283.648	1.71
284.106	1.7
284.564	1.7
285.021	1.7
285.479	1.7
285.937	1.69
286.394	1.69
286.852	1.69
287.309	1.69
287.767	1.68
288.224	1.67
288.682	1.67
289.139	1.66
289.596	1.65
290.053	1.64
290.511	1.63
290.968	1.63
291.425	1.63
291.882	1.62
292.339	1.61
292.796	1.6
293.252	1.59
293.709	1.59
294.166	1.58
294.623	1.57
295.079	1.57
295.536	1.57
295.992	1.56
296.449	1.55
296.905	1.55
297.362	1.55
297.818	1.55
298.274	1.54
298.731	1.54
299.187	1.54
299.643	1.53
300.099	1.53
300.555	1.52
301.011	1.52
301.467	1.51
301.923	1.52
302.379	1.51
302.835	1.51
303.291	1.51
303.746	1.5
304.202	1.5
304.658	1.49
305.113	1.49
305.569	1.5
306.024	1.49
306.479	1.49
306.935	1.48
307.39	1.48
307.845	1.48
308.301	1.49
308.756	1.49
309.211	1.49
309.666	1.49
310.121	1.48
310.576	1.49
311.031	1.49
311.486	1.49
311.94	1.49
312.395	1.49
312.85	1.49
313.305	1.49
313.759	1.49
314.214	1.49
314.668	1.5
315.123	1.5
315.577	1.49
316.032	1.49
316.486	1.49
316.94	1.49
317.394	1.48
317.849	1.48
318.303	1.48
318.757	1.47
319.211	1.46
319.665	1.46
320.119	1.45
320.572	1.46
321.026	1.46
321.48	1.45
321.934	1.45
322.387	1.45
322.841	1.44
323.295	1.44
323.748	1.45
324.202	1.44
324.655	1.44
325.108	1.43
325.562	1.42
326.015	1.42
326.468	1.42
326.921	1.41
327.374	1.41
327.827	1.41
328.28	1.41
328.733	1.39
329.186	1.39
329.639	1.39
330.092	1.39
330.545	1.39
330.997	1.39
331.45	1.4
331.903	1.38
332.355	1.38
332.808	1.38
333.26	1.39
333.713	1.4
334.165	1.4
334.617	1.4
335.069	1.4
335.522	1.4
335.974	1.4
336.426	1.4
336.878	1.4
337.33	1.39
337.782	1.39
338.234	1.39
338.686	1.39
339.137	1.39
339.589	1.39
340.041	1.38
340.493	1.37
340.944	1.37
341.396	1.37
341.847	1.37
342.299	1.36
342.75	1.35
343.201	1.34
343.653	1.34
344.104	1.34
344.555	1.33
345.006	1.33
345.457	1.33
345.908	1.33
346.359	1.34
346.81	1.35
347.261	1.35
347.712	1.35
348.163	1.35
348.613	1.34
349.064	1.34
349.515	1.33
349.965	1.33
350.416	1.32
350.866	1.31
351.317	1.3
351.767	1.3
352.217	1.29
352.668	1.29
353.118	1.29
353.568	1.29
354.018	1.3
354.468	1.3
354.918	1.31
355.368	1.31
355.818	1.3
356.268	1.3
356.718	1.3
357.168	1.3
357.617	1.29
358.067	1.29
358.517	1.28
358.966	1.28
359.416	1.3
359.865	1.29
360.315	1.3
360.764	1.3
361.213	1.29
361.663	1.3
362.112	1.31
362.561	1.32
363.01	1.33
363.459	1.33
363.908	1.33
364.357	1.33
364.806	1.33
365.255	1.34
365.703	1.34
366.152	1.34
366.601	1.34
367.05	1.33
367.498	1.32
367.947	1.31
368.395	1.32
368.844	1.31
369.292	1.3
369.74	1.3
370.189	1.3
370.637	1.3
371.085	1.31
371.533	1.31
371.981	1.31
372.429	1.3
372.877	1.31
373.325	1.31
373.773	1.31
374.221	1.31
374.669	1.32
375.116	1.32
375.564	1.32
376.012	1.32
376.459	1.32
376.907	1.33
377.354	1.34
377.801	1.34
378.249	1.36
378.696	1.38
379.143	1.39
379.591	1.4
380.038	1.42
380.485	1.42
380.932	1.43
381.379	1.44
381.826	1.45
382.273	1.46
382.72	1.47
383.166	1.48
383.613	1.49
384.06	1.51
384.506	1.52
384.953	1.54
385.4	1.56
385.846	1.58
386.292	1.62
386.739	1.64
387.185	1.69
387.631	1.72
388.078	1.75
388.524	1.77
388.97	1.78
389.416	1.8
389.862	1.84
390.308	1.89
390.754	1.95
391.2	2.01
391.645	2.06
392.091	2.09
392.537	2.12
392.983	2.19
393.428	2.29
393.874	2.42
394.319	2.54
394.765	2.69
395.21	2.8
395.655	2.95
396.101	3.1
396.546	3.27
396.991	3.47
397.436	3.68
397.881	3.89
398.326	4.1
398.771	4.29
399.216	4.5
399.661	4.67
400.106	4.85
400.551	4.99
400.995	5.14
401.44	5.25
401.885	5.38
402.329	5.52
402.774	5.64
403.218	5.79
403.663	5.95
404.107	6.14
404.551	6.33
404.995	6.51
405.44	6.69
405.884	6.86
406.328	7.07
406.772	7.31
407.216	7.55
407.66	7.78
408.104	7.99
408.547	8.18
408.991	8.34
409.435	8.52
409.879	8.72
410.322	8.95
410.766	9.19
411.209	9.42
411.653	9.6
412.096	9.8
412.54	9.98
412.983	10.15
413.426	10.34
413.869	10.53
414.312	10.73
414.756	10.92
415.199	11.07
415.642	11.23
416.085	11.37
416.527	11.5
416.97	11.57
417.413	11.59
417.856	11.6
418.298	11.6
418.741	11.62
419.184	11.63
419.626	11.67
420.069	11.75
420.511	11.81
420.953	11.88
421.396	11.96
421.838	12.1
422.28	12.28
422.722	12.49
423.164	12.68
423.606	12.84
424.048	12.97
424.49	13.05
424.932	12.99
425.374	12.87
425.816	12.63
426.258	12.36
426.699	12.16
427.141	12.09
427.582	12.18
428.024	12.35
428.465	12.54
428.907	12.75
429.348	12.92
429.789	13.15
430.231	13.51
430.672	14.05
431.113	14.69
431.554	15.31
431.995	15.81
432.436	16.17
432.877	16.41
433.318	16.61
433.759	16.81
434.2	17.06
434.64	17.42
435.081	17.75
435.522	18.04
435.962	18.3
436.403	18.51
436.843	18.67
437.284	18.85
437.724	19.06
438.164	19.32
438.604	19.6
439.045	19.92
439.485	20.2
439.925	20.45
440.365	20.65
440.805	20.76
441.245	20.83
441.685	20.96
442.125	21.08
442.564	21.26
443.004	21.45
443.444	21.68
443.883	21.9
444.323	22.11
444.762	22.36
445.202	22.6
445.641	22.93
446.081	23.34
446.52	23.72
446.959	24.09
447.398	24.38
447.837	24.59
448.276	24.66
448.716	24.73
449.154	24.81
449.593	24.86
450.032	24.89
450.471	24.84
450.91	24.75
451.349	24.65
451.787	24.56
452.226	24.5
452.664	24.46
453.103	24.49
453.541	24.5
453.98	24.44
454.418	24.34
454.856	24.24
455.295	24.16
455.733	24.08
456.171	24.02
456.609	23.95
457.047	23.91
457.485	23.9
457.923	23.89
458.361	23.93
458.798	24.01
459.236	24.12
459.674	24.2
460.111	24.29
460.549	24.36
460.987	24.46
461.424	24.56
461.862	24.63
462.299	24.71
462.736	24.82
463.173	24.92
463.611	25.06
464.048	25.25
464.485	25.48
464.922	25.75
465.359	26.04
465.796	26.25
466.233	26.47
466.67	26.74
467.106	27.05
467.543	27.4
467.98	27.75
468.416	28.08
468.853	28.32
469.29	28.58
469.726	28.85
470.162	29.11
470.599	29.39
471.035	29.7
471.471	29.89
471.907	30.01
472.344	30.07
472.78	30.13
473.216	30.22
473.652	30.32
474.088	30.39
474.523	30.43
474.959	30.46
475.395	30.49
475.831	30.47
476.266	30.5
476.702	30.54
477.138	30.56
477.573	30.53
478.008	30.45
478.444	30.35
478.879	30.21
479.314	30.02
479.75	29.81
480.185	29.57
480.62	29.3
481.055	28.88
481.49	28.29
481.925	27.65
482.36	27.04
482.795	26.52
483.229	26.11
483.664	25.8
484.099	25.55
484.534	25.33
484.968	25.15
485.403	25.08
485.837	25.14
486.271	25.32
486.706	25.56
487.14	25.74
487.574	25.81
488.009	25.83
488.443	25.83
488.877	25.83
489.311	25.83
489.745	25.84
490.179	25.85
490.613	25.84
491.046	25.86
491.48	25.89
491.914	25.97
492.348	26.12
492.781	26.26
493.215	26.37
493.648	26.44
494.082	26.48
494.515	26.52
494.948	26.52
495.382	26.54
495.815	26.56
496.248	26.53
496.681	26.49
497.114	26.42
497.547	26.36
497.98	26.35
498.413	26.42
498.846	26.52
499.279	26.62
499.711	26.7
500.144	26.8
500.577	26.93
501.009	27.16
501.442	27.46
501.874	27.79
502.306	28.11
502.739	28.37
503.171	28.58
503.603	28.78
504.036	29
504.468	29.27
504.9	29.57
505.332	29.85
505.764	30.07
506.196	30.26
506.627	30.49
507.059	30.75
507.491	31.05
507.923	31.35
508.354	31.64
508.786	31.91
509.217	32.12
509.649	32.32
510.08	32.53
510.512	32.77
510.943	33.04
511.374	33.27
511.805	33.42
512.237	33.45
512.668	33.41
513.099	33.44
513.53	33.48
513.961	33.56
514.391	33.7
514.822	33.91
515.253	34.2
515.684	34.5
516.114	34.84
516.545	35.29
516.975	35.91
517.406	36.64
517.836	37.34
518.267	38.02
518.697	38.68
519.127	39.33
519.558	39.96
519.988	40.55
520.418	41.1
520.848	41.63
521.278	42.1
521.708	42.41
522.138	42.57
522.567	42.71
522.997	42.88
523.427	43.15
523.857	43.43
524.286	43.75
524.716	44.04
525.145	44.34
525.575	44.64
526.004	44.97
526.433	45.44
526.863	46.05
527.292	46.65
527.721	47.13
528.15	47.44
528.579	47.62
529.008	47.73
529.437	47.8
529.866	47.86
530.295	47.92
530.724	48.01
531.152	48.1
531.581	48.14
532.01	48.14
532.438	48.21
532.867	48.32
533.295	48.48
533.723	48.63
534.152	48.77
534.58	48.86
535.008	48.86
535.436	48.76
535.865	48.58
536.293	48.38
536.721	48.27
537.149	48.21
537.576	48.23
538.004	48.21
538.432	48.2
538.86	48.19
539.287	48.24
539.715	48.35
540.143	48.53
540.57	48.77
540.998	49.06
541.425	49.32
541.852	49.56
542.28	49.74
542.707	49.92
543.134	50.07
543.561	50.18
543.988	50.3
544.415	50.44
544.842	50.57
545.269	50.73
545.696	50.83
546.123	50.95
546.549	51.06
546.976	51.19
547.403	51.33
547.829	51.5
548.256	51.67
548.682	51.76
549.108	51.86
549.535	51.94
549.961	52
550.387	52.08
550.813	52.16
551.24	52.22
551.666	52.25
552.092	52.24
552.518	52.15
552.943	52.06
553.369	51.98
553.795	51.84
554.221	51.65
554.646	51.38
555.072	51.09
555.498	50.78
555.923	50.5
556.349	50.23
556.774	50.02
557.199	49.83
557.625	49.64
558.05	49.44
558.475	49.25
558.9	49.12
559.325	49.01
559.75	48.83
560.175	48.67
560.6	48.44
561.025	48.14
561.449	47.78
561.874	47.4
562.299	47.08
562.723	46.77
563.148	46.47
563.572	46.14
563.997	45.77
564.421	45.4
564.846	45.01
565.27	44.68
565.694	44.35
566.118	44.02
566.542	43.66
566.966	43.28
567.39	42.89
567.814	42.55
568.238	42.23
568.662	41.98
569.086	41.77
569.509	41.56
569.933	41.32
570.357	41.08
570.78	40.88
571.204	40.71
571.627	40.54
572.05	40.38
572.474	40.15
572.897	39.94
573.32	39.68
573.743	39.42
574.166	39.13
574.589	38.88
575.012	38.72
575.435	38.55
575.858	38.4
576.281	38.28
576.704	38.16
577.126	38.05
577.549	37.98
577.972	37.95
578.394	37.91
578.817	37.93
579.239	37.93
579.661	37.88
580.084	37.86
580.506	37.81
580.928	37.71
581.35	37.6
581.772	37.48
582.194	37.33
582.616	37.18
583.038	37.06
583.46	36.9
583.882	36.7
584.303	36.44
584.725	36.08
585.147	35.7
585.568	35.37
585.99	35.11
586.411	34.89
586.833	34.7
587.254	34.53
587.675	34.37
588.096	34.21
588.518	34.11
588.939	34.08
589.36	34.12
589.781	34.21
590.202	34.26
590.623	34.25
591.043	34.2
591.464	34.13
591.885	34.04
592.305	33.96
592.726	33.86
593.147	33.77
593.567	33.63
593.987	33.52
594.408	33.4
594.828	33.3
595.248	33.18
595.669	33.08
596.089	32.94
596.509	32.78
596.929	32.58
597.349	32.39
597.769	32.19
598.189	32.03
598.608	31.87
599.028	31.75
599.448	31.65
599.867	31.58
600.287	31.46
600.706	31.37
601.126	31.29
601.545	31.22
601.965	31.14
602.384	31.07
602.803	30.98
603.222	30.87
603.641	30.73
604.061	30.55
604.48	30.37
604.898	30.17
605.317	30.01
605.736	29.81
606.155	29.6
606.574	29.41
606.992	29.22
607.411	29.04
607.829	28.8
608.248	28.62
608.666	28.45
609.085	28.25
609.503	28.05
609.921	27.85
610.339	27.68
610.758	27.53
611.176	27.35
611.594	27.16
612.012	26.96
612.43	26.8
612.847	26.62
613.265	26.45
613.683	26.3
614.101	26.19
614.518	26.07
614.936	25.96
615.353	25.84
615.771	25.76
616.188	25.7
616.606	25.66
617.023	25.6
617.44	25.54
617.857	25.45
618.274	25.38
618.691	25.28
619.108	25.17
619.525	25.03
619.942	24.91
620.359	24.76
620.776	24.6
621.192	24.43
621.609	24.27
622.026	24.14
622.442	24.05
622.859	23.91
623.275	23.79
623.691	23.66
624.108	23.55
624.524	23.45
624.94	23.36
625.356	23.25
625.772	23.18
626.188	23.13
626.604	23.03
627.02	22.92
627.436	22.84
627.852	22.78
628.268	22.75
628.683	22.7
629.099	22.67
629.514	22.61
629.93	22.57
630.345	22.51
630.761	22.46
631.176	22.45
631.591	22.42
632.007	22.38
632.422	22.35
632.837	22.3
633.252	22.25
633.667	22.19
634.082	22.17
634.497	22.13
634.911	22.09
635.326	22.02
635.741	21.92
636.155	21.83
636.57	21.72
636.984	21.59
637.399	21.45
637.813	21.32
638.228	21.2
638.642	21.07
639.056	20.94
639.47	20.83
639.884	20.71
640.298	20.6
640.712	20.48
641.126	20.39
641.54	20.28
641.954	20.2
642.368	20.08
642.781	19.97
643.195	19.83
643.609	19.72
644.022	19.59
644.436	19.44
644.849	19.29
645.262	19.17
645.676	19.03
646.089	18.91
646.502	18.8
646.915	18.72
647.328	18.63
647.741	18.55
648.154	18.48
648.567	18.41
648.98	18.36
649.393	18.33
649.805	18.29
650.218	18.26
650.631	18.19
651.043	18.09
651.456	17.91
651.868	17.67
652.28	17.4
652.693	17.15
653.105	16.94
653.517	16.78
653.929	16.65
654.341	16.55
654.753	16.47
655.165	16.38
655.577	16.34
655.989	16.38
656.401	16.49
656.813	16.63
657.224	16.75
657.636	16.82
658.047	16.87
658.459	16.86
658.87	16.83
659.282	16.8
659.693	16.76
660.104	16.69
660.515	16.63
660.926	16.58
661.338	16.51
661.749	16.44
662.159	16.36
662.57	16.25
662.981	16.18
663.392	16.11
663.803	16.01
664.213	15.95
664.624	15.91
665.035	15.83
665.445	15.75
665.855	15.67
666.266	15.6
666.676	15.52
667.086	15.47
667.497	15.37
667.907	15.29
668.317	15.22
668.727	15.14
669.137	15.04
669.547	14.99
669.956	14.92
670.366	14.88
670.776	14.81
671.186	14.76
671.595	14.72
672.005	14.7
672.414	14.67
672.824	14.64
673.233	14.64
673.642	14.61
674.052	14.57
674.461	14.54
674.87	14.53
675.279	14.51
675.688	14.49
676.097	14.46
676.506	14.44
676.915	14.44
677.323	14.43
677.732	14.41
678.141	14.42
678.549	14.44
678.958	14.46
679.366	14.45
679.775	14.44
680.183	14.45
680.592	14.47
681	14.48
681.408	14.48
681.816	14.46
682.224	14.39
682.632	14.26
683.04	14.06
683.448	13.85
683.856	13.7
684.264	13.58
684.671	13.46
685.079	13.34
685.487	13.25
685.894	13.19
686.302	13.19
686.709	13.26
687.116	13.43
687.524	13.7
687.931	14.02
688.338	14.33
688.745	14.64
689.152	14.97
689.559	15.31
689.966	15.66
690.373	16.01
690.78	16.38
691.187	16.74
691.593	17.1
692	17.47
692.407	17.84
692.813	18.22
693.22	18.59
693.626	18.96
694.032	19.36
694.439	19.77
694.845	20.17
695.251	20.55
695.657	20.92
696.063	21.31
696.469	21.68
696.875	22.03
697.281	22.35
697.687	22.72
698.093	23.09
698.498	23.44
698.904	23.8
699.31	24.15
699.715	24.54
700.12	24.93
700.526	25.34
700.931	25.73
701.337	26.14
701.742	26.55
702.147	26.95
702.552	27.36
702.957	27.75
703.362	28.15
703.767	28.57
704.172	28.96
704.577	29.35
704.981	29.72
705.386	30.08
705.791	30.44
706.195	30.81
706.6	31.18
707.004	31.54
707.408	31.92
707.813	32.24
708.217	32.56
708.621	32.87
709.025	33.19
709.43	33.52
709.834	33.87
710.237	34.18
710.641	34.5
711.045	34.77
711.449	35.07
711.853	35.32
712.256	35.56
712.66	35.75
713.064	35.88
713.467	35.96
713.87	35.97
714.274	35.95
714.677	35.92
715.08	35.84
715.484	35.8
715.887	35.71
716.29	35.71
716.693	35.77
717.096	35.95
717.499	36.24
717.901	36.58
718.304	36.99
718.707	37.4
719.109	37.81
719.512	38.23
719.915	38.6
720.317	38.99
720.719	39.28
721.122	39.57
721.524	39.78
721.926	39.93
722.328	40.07
722.731	40.18
723.133	40.27
723.535	40.44
723.937	40.58
724.338	40.75
724.74	40.89
725.142	40.97
725.544	41.11
725.945	41.24
726.347	41.38
726.748	41.52
727.15	41.66
727.551	41.85
727.952	42.02
728.354	42.26
728.755	42.48
729.156	42.73
729.557	43.08
729.958	43.34
730.359	43.61
730.76	43.82
731.161	44.03
731.562	44.23
731.962	44.39
732.363	44.52
732.763	44.64
733.164	44.73
733.564	44.8
733.965	44.84
734.365	44.88
734.766	44.89
735.166	44.89
735.566	44.87
735.966	44.86
736.366	44.84
736.766	44.84
737.166	44.8
737.566	44.79
737.966	44.8
738.365	44.81
738.765	44.81
739.165	44.83
739.564	44.88
739.964	44.93
740.363	44.96
740.763	45
741.162	45.01
741.561	45.07
741.96	45.12
742.36	45.14
742.759	45.14
743.158	45.14
743.557	45.16
743.955	45.17
744.354	45.14
744.753	45.14
745.152	45.12
745.55	45.09
745.949	45.06
746.348	45.04
746.746	44.98
747.144	44.94
747.543	44.92
747.941	44.87
748.339	44.8
748.737	44.79
749.136	44.76
749.534	44.74
749.932	44.74
750.33	44.69
750.727	44.64
751.125	44.63
751.523	44.59
751.921	44.54
752.318	44.49
752.716	44.45
753.113	44.39
753.511	44.32
753.908	44.24
754.305	44.12
754.703	43.88
755.1	43.36
755.497	42.49
755.894	41.23
756.291	39.66
756.688	38
757.085	36.38
757.482	34.89
757.878	33.54
758.275	32.19
758.672	30.85
759.068	29.61
759.465	28.66
759.861	28.16
760.258	28.13
760.654	28.53
761.05	29.13
761.447	29.83
761.843	30.44
762.239	31.07
762.635	31.79
763.031	32.67
763.427	33.61
763.822	34.65
764.218	35.67
764.614	36.66
765.01	37.54
765.405	38.34
765.801	39.07
766.196	39.75
766.592	40.32
766.987	40.78
767.382	41.11
767.778	41.4
768.173	41.59
768.568	41.71
768.963	41.84
769.358	41.93
769.753	42
770.148	42.02
770.542	42.01
770.937	41.95
771.332	41.92
771.726	41.92
772.121	41.86
772.515	41.84
772.91	41.8
773.304	41.72
773.699	41.64
774.093	41.55
774.487	41.52
774.881	41.47
775.275	41.45
775.669	41.4
776.063	41.29
776.457	41.24
776.851	41.14
777.245	41.1
777.638	41.03
778.032	40.99
778.425	40.94
778.819	40.83
779.212	40.74
779.606	40.66
779.999	40.6
780.392	40.56
780.786	40.48
781.179	40.44
781.572	40.35
781.965	40.29
782.358	40.16
782.751	40.09
783.143	40.03
783.536	39.96
783.929	39.86
784.322	39.76
784.714	39.64
785.107	39.54
785.499	39.38
785.891	39.27
786.284	39.12
786.676	39.06
787.068	38.94
787.46	38.76
787.852	38.61
788.245	38.47
788.636	38.3
789.028	38.15
789.42	37.98
789.812	37.84
790.204	37.65
790.595	37.52
790.987	37.35
791.378	37.21
791.77	37.13
792.161	37.03
792.553	36.9
792.944	36.83
793.335	36.77
793.726	36.69
794.117	36.64
794.508	36.6
794.899	36.52
795.29	36.45
795.681	36.35
796.072	36.25
796.463	36.1
796.853	36.01
797.244	35.89
797.634	35.75
798.025	35.64
798.415	35.49
798.806	35.35
799.196	35.21
799.586	35.07
799.976	34.95
800.366	34.8
800.756	34.71
801.146	34.57
801.536	34.42
801.926	34.3
802.316	34.18
802.706	34.07
803.095	33.93
803.485	33.82
803.874	33.7
804.264	33.57
804.653	33.43
805.043	33.28
805.432	33.13
805.821	33
806.21	32.88
806.599	32.73
806.988	32.56
807.377	32.41
807.766	32.26
808.155	32.08
808.544	31.9
808.933	31.74
809.321	31.57
809.71	31.38
810.098	31.18
810.487	30.95
810.875	30.69
811.264	30.46
811.652	30.19
812.04	29.91
812.428	29.65
812.816	29.39
813.204	29.11
813.592	28.86
813.98	28.63
814.368	28.42
814.756	28.23
815.144	28.04
815.531	27.9
815.919	27.77
816.306	27.68
816.694	27.63
817.081	27.57
817.469	27.52
817.856	27.46
818.243	27.36
818.63	27.24
819.017	27.08
819.404	26.97
819.791	26.86
820.178	26.8
820.565	26.71
820.952	26.58
821.339	26.48
821.725	26.4
822.112	26.34
822.498	26.34
822.885	26.31
823.271	26.31
823.657	26.27
824.044	26.21
824.43	26.12
824.816	26.02
825.202	25.92
825.588	25.84
825.974	25.73
826.36	25.6
826.746	25.49
827.132	25.39
827.517	25.3
827.903	25.22
828.289	25.13
828.674	25.05
829.06	24.98
829.445	24.91
829.83	24.84
830.216	24.79
830.601	24.74
830.986	24.68
831.371	24.63
831.756	24.57
832.141	24.53
832.526	24.48
832.911	24.45
833.295	24.4
833.68	24.37
834.065	24.33
834.449	24.26
834.834	24.22
835.218	24.16
835.603	24.11
835.987	24.07
836.371	24.05
836.755	24
837.139	23.93
837.524	23.89
837.908	23.82
838.291	23.77
838.675	23.74
839.059	23.7
839.443	23.67
839.827	23.61
840.21	23.56
840.594	23.48
840.977	23.45
841.361	23.43
841.744	23.4
842.127	23.35
842.511	23.32
842.894	23.3
843.277	23.26
843.66	23.23
844.043	23.21
844.426	23.2
844.809	23.18
845.191	23.1
845.574	23.03
845.957	22.94
846.339	22.87
846.722	22.81
847.104	22.73
847.487	22.67
847.869	22.58
848.252	22.51
848.634	22.43
849.016	22.36
849.398	22.33
849.78	22.24
850.162	22.17
850.544	22.12
850.926	22.05
851.307	22
851.689	21.92
852.071	21.88
852.452	21.84
852.834	21.81
853.215	21.81
853.597	21.78
853.978	21.78
854.359	21.81
854.741	21.82
855.122	21.82
855.503	21.82
855.884	21.83
856.265	21.83
856.646	21.83
857.026	21.79
857.407	21.74
857.788	21.74
858.169	21.72
858.549	21.68
858.93	21.66
859.31	21.63
859.69	21.6
860.071	21.57
860.451	21.53
860.831	21.51
861.211	21.47
861.591	21.44
861.971	21.36
862.351	21.3
862.731	21.24
863.111	21.18
863.491	21.12
863.87	21.07
864.25	21.04
864.629	20.98
865.009	20.92
865.388	20.87
865.768	20.85
866.147	20.83
866.526	20.82
866.905	20.82
867.284	20.82
867.663	20.82
868.042	20.8
868.421	20.8
868.8	20.81
869.179	20.8
869.558	20.81
869.936	20.79
870.315	20.81
870.693	20.82
871.072	20.8
871.45	20.78
871.828	20.77
872.207	20.76
872.585	20.74
872.963	20.7
873.341	20.69
873.719	20.68
874.097	20.66
874.475	20.64
874.853	20.61
875.23	20.61
875.608	20.58
875.986	20.56
876.363	20.54
876.741	20.52
877.118	20.49
877.495	20.46
877.873	20.42
878.25	20.41
878.627	20.37
879.004	20.35
879.381	20.34
879.758	20.31
880.135	20.28
880.512	20.25
880.889	20.22
881.265	20.24
881.642	20.24
882.019	20.23
882.395	20.2
882.772	20.2
883.148	20.18
883.524	20.16
883.901	20.16
884.277	20.15
884.653	20.14
885.029	20.13
885.405	20.09
885.781	20.07
886.157	20.08
886.532	20.07
886.908	20.06
887.284	20.05
887.659	20.05
888.035	20.04
888.411	20.03
888.786	20.02
889.161	20
889.537	20
889.912	19.96
890.287	19.91
890.662	19.87
891.037	19.83
891.412	19.78
891.787	19.74
892.162	19.7
892.536	19.66
892.911	19.61
893.286	19.57
893.66	19.52
894.035	19.5
894.409	19.45
894.784	19.42
895.158	19.39
895.532	19.34
895.906	19.29
896.281	19.24
896.655	19.19
897.029	19.15
897.402	19.12
897.776	19.08
898.15	19.01
898.524	18.99
898.898	18.96
899.271	18.97
899.645	18.96
900.018	18.94
900.392	18.96
900.765	18.97
901.138	18.99
901.511	19
901.884	19
902.258	19.04
902.631	19.06
903.003	19.08
903.376	19.05
903.749	19.05
904.122	19.06
904.495	19.02
904.867	19.01
905.24	18.97
905.612	18.92
905.985	18.89
906.357	18.85
906.729	18.8
907.102	18.76
907.474	18.74
907.846	18.7
908.218	18.67
908.59	18.65
908.962	18.65
909.334	18.64
909.705	18.64
910.077	18.62
910.449	18.63
910.82	18.63
911.192	18.64
911.563	18.64
911.935	18.64
912.306	18.63
912.677	18.63
913.048	18.61
913.419	18.61
913.79	18.6
914.161	18.59
914.532	18.59
914.903	18.6
915.274	18.57
915.645	18.58
916.015	18.58
916.386	18.59
916.756	18.57
917.127	18.59
917.497	18.59
917.868	18.62
918.238	18.65
918.608	18.66
918.978	18.65
919.348	18.67
919.718	18.63
920.088	18.61
920.458	18.64
920.828	18.66
921.198	18.63
921.567	18.63
921.937	18.62
922.306	18.59
922.676	18.56
923.045	18.52
923.415	18.5
923.784	18.49
924.153	18.5
924.522	18.45
924.891	18.4
925.26	18.39
925.629	18.39
925.998	18.35
926.367	18.35
926.736	18.29
927.104	18.32
927.473	18.29
927.842	18.23
928.21	18.19
928.578	18.15
928.947	18.09
929.315	18.02
929.683	17.95
930.051	17.88
930.42	17.78
930.788	17.74
931.156	17.67
931.523	17.59
931.891	17.54
932.259	17.48
932.627	17.4
932.994	17.42
933.362	17.37
933.729	17.31
934.097	17.29
934.464	17.28
934.831	17.3
935.199	17.27
935.566	17.34
935.933	17.39
936.3	17.39
936.667	17.44
937.034	17.45
937.401	17.51
937.767	17.61
938.134	17.66
938.501	17.73
938.867	17.77
939.234	17.85
939.6	17.84
939.967	17.87
940.333	17.92
940.699	17.99
941.065	17.97
941.431	18.01
941.798	18.05
942.163	18.06
942.529	18.01
942.895	17.99
943.261	18.01
943.627	18.04
943.992	18.07
944.358	18.04
944.723	18.01
945.089	18.03
945.454	18.03
945.82	17.93
946.185	17.9
946.55	18.02
946.915	18.01
947.28	17.97
947.645	17.92
948.01	17.87
948.375	17.88
948.74	17.82
949.104	17.87
949.469	17.86
949.834	17.86
950.198	17.88
950.562	17.79
950.927	17.74
951.291	17.7
951.655	17.7
952.02	17.67
952.384	17.66
952.748	17.67
953.112	17.59
953.476	17.5
953.839	17.51
954.203	17.49
954.567	17.48
954.931	17.52
955.294	17.51
955.658	17.49
956.021	17.5
956.385	17.54
956.748	17.57
957.111	17.61
957.474	17.64
957.837	17.63
958.2	17.62
958.563	17.68
958.926	17.65
959.289	17.6
959.652	17.62
960.015	17.6
960.377	17.55
960.74	17.51
961.102	17.49
961.465	17.46
961.827	17.35
962.189	17.34
962.552	17.26
962.914	17.25
963.276	17.27
963.638	17.28
964	17.32
964.362	17.32
964.724	17.38
965.085	17.38
965.447	17.38
965.809	17.46
966.17	17.47
966.532	17.47
966.893	17.48
967.255	17.56
967.616	17.55
967.977	17.6
968.338	17.56
968.699	17.55
969.061	17.54
969.421	17.58
969.782	17.61
970.143	17.63
970.504	17.63
970.865	17.65
971.225	17.56
971.586	17.55
971.946	17.49
972.307	17.51
972.667	17.51
973.027	17.52
973.388	17.49
973.748	17.51
974.108	17.51
974.468	17.54
974.828	17.51
975.188	17.55
975.548	17.53
975.907	17.56
976.267	17.65
976.627	17.61
976.986	17.61
977.346	17.61
977.705	17.63
978.064	17.63
978.424	17.59
978.783	17.63
979.142	17.69
979.501	17.74
979.86	17.63
980.219	17.48
980.578	17.57
980.937	17.58
981.296	17.63
981.654	17.64
982.013	17.65
982.371	17.68
982.73	17.63
983.088	17.57
983.447	17.56
983.805	17.61
984.163	17.67
984.521	17.59
984.879	17.69
985.237	17.73
985.595	17.68
985.953	17.68
986.311	17.73
986.669	17.75
987.026	17.7
987.384	17.73
987.741	17.8
988.099	17.79
988.456	17.89
988.814	17.84
989.171	17.74
989.528	17.68
989.885	17.65
990.242	17.61
990.599	17.69
990.956	17.82
991.313	17.87
991.67	17.98
992.027	17.97
992.383	17.84
992.74	17.77
993.096	17.68
993.453	17.84
993.809	17.81
994.165	17.83
994.522	17.78
994.878	17.66
995.234	17.57
995.59	17.35
995.946	17.52
996.302	17.55
996.658	17.66
997.013	17.83
997.369	17.73
997.725	17.88
998.08	17.86
998.436	18.04
998.791	18.1
999.147	18.14
999.502	18.2
999.857	18.15
1000.212	18.31
1000.567	18.17
1000.922	18.13
1001.277	18.13
1001.632	18.18
1001.987	18.14
1002.342	18.01
1002.696	17.9
1003.051	17.81
1003.406	17.82
1003.76	17.8
1004.114	17.72
1004.469	17.8
1004.823	17.98
1005.177	18.11
1005.531	18.06
1005.885	18.17
1006.239	18.11
1006.593	18.2
1006.947	18.36
1007.301	18.39
1007.655	18.29
1008.008	18.17
1008.362	18.15
1008.715	18.09
1009.069	18.06
1009.422	17.83
1009.776	17.84
1010.129	17.77
1010.482	17.79
1010.835	17.71
1011.188	17.64
1011.541	17.57
1011.894	17.55
1012.247	17.58
1012.6	17.4
1012.952	17.35
1013.305	17.37
1013.657	17.35
1014.01	17.6
1014.362	17.63
1014.715	17.48
1015.067	17.68
1015.419	18.08
1015.771	18.17
1016.123	17.95
1016.475	18.07
1016.827	17.96
1017.179	18.11
1017.531	18.25
1017.883	18.36
1018.234	18.34
1018.586	18.26
1018.938	18.06
1019.289	17.8
1019.64	17.99
1019.992	18.31
1020.343	18.38
1020.694	18.45
1021.045	18.38
1021.396	18.14
1021.747	17.99
1022.098	18.44
1022.449	18.58
1022.8	18.69
1023.151	18.65
1023.501	18.41
1023.852	18.61
1024.202	18.48
1024.553	18.59
1024.903	18.56
1025.253	18.78
1025.604	18.83
1025.954	18.25
1026.304	18.74
1026.654	18.97
1027.004	19.18
1027.354	19.34
1027.703	19.09
1028.053	19.32
1028.403	19.53
1028.753	19.96
1029.102	19.87
1029.452	19.73
1029.801	19.95
1030.15	19.82
1030.499	19.77
897.758	67.33
901.051	80.51
904.343	80.04
907.636	82.01
910.928	85.78
914.22	84.58
917.511	83.59
920.803	85.88
924.094	82.44
927.384	83.99
930.675	83.01
933.965	83.93
937.255	79.36
940.544	77.4
943.834	73.8
947.123	71.36
950.411	71.58
953.7	71.33
956.988	71.04
960.276	71.38
963.563	73.1
966.851	69.99
970.138	71.51
973.424	69.56
976.711	71.08
979.997	69.22
983.283	67.83
986.568	66.2
989.853	66.61
993.138	64.39
996.423	65.28
999.708	63.86
1002.992	64.66
1006.275	64.21
1009.559	65.99
1012.842	64.37
1016.125	64.33
1019.408	64.09
1022.69	65.59
1025.972	66.35
1029.254	66.11
1032.536	65.59
1035.817	65.37
1039.098	65.68
1042.379	65.86
1045.659	64.02
1048.939	64.25
1052.219	64.2
1055.498	64.9
1058.778	63.98
1062.057	63.62
1065.335	64.59
1068.614	63.22
1071.892	62.96
1075.17	62.06
1078.447	61.61
1081.724	61.99
1085.001	61.58
1088.278	61.7
1091.554	61.4
1094.83	61.99
1098.106	61.12
1101.382	61.12
1104.657	61.82
1107.932	60.84
1111.206	61.53
1114.481	61.7
1117.755	61.1
1121.029	60.78
1124.302	60.92
1127.575	61.14
1130.848	60.23
1134.121	59.76
1137.393	59.51
1140.665	59.48
1143.937	59.26
1147.208	58.6
1150.48	58.01
1153.75	57.82
1157.021	58.33
1160.291	58.61
1163.561	56.84
1166.831	58
1170.101	58.25
1173.37	57.71
1176.639	57.15
1179.907	57.43
1183.176	57.94
1186.444	57.59
1189.711	57.31
1192.979	56.81
1196.246	56.87
1199.513	57.25
1202.78	56.41
1206.046	56.34
1209.312	57.5
1212.578	57.33
1215.843	57.98
1219.108	56.69
1222.373	57.46
1225.638	58.05
1228.902	58.62
1232.166	58.33
1235.43	57.77
1238.693	58.48
1241.956	58.43
1245.219	57.77
1248.482	58.65
1251.744	57.75
1255.006	59.74
1258.268	58.64
1261.529	58.67
1264.79	59.36
1268.051	58.73
1271.312	60.39
1274.572	59.82
1277.832	59.94
1281.092	60.06
1284.351	59.94
1287.61	60.2
1290.869	58.7
1294.128	59.28
1297.386	59.28
1300.644	57.99
1303.902	58.27
1307.159	57.18
1310.416	56.76
1313.673	57.03
1316.93	56.88
1320.186	57.04
1323.442	56.38
1326.697	56.76
1329.953	55.73
1333.208	55.11
1336.463	55.7
1339.717	55.72
1342.972	56
1346.226	56.14
1349.479	56.1
1352.733	56.13
1355.986	54.43
1359.238	55.29
1362.491	54.72
1365.743	55.23
1368.995	55.31
1372.247	52.77
1375.498	51.54
1378.749	51.24
1382	50.94
1385.251	48.4
1388.501	47.07
1391.751	47.83
1395	46.09
1398.25	45.77
1401.499	44.47
1404.748	42.68
1407.996	44.28
1411.244	45.07
1414.492	43.42
1417.74	40.58
1420.987	40.31
1424.234	40.5
1427.481	38.33
1430.728	38.89
1433.974	37.82
1437.22	36.07
1440.465	36.03
1443.711	34.15
1446.956	33
1450.201	33.63
1453.445	32.92
1456.689	33.39
1459.933	31.7
1463.177	30.15
1466.42	29.78
1469.663	29.86
1472.906	30.41
1476.148	30.2
1479.391	30.45
1482.633	30.5
1485.874	30.35
1489.115	31.15
1492.356	30.83
1495.597	31.83
1498.838	33.05
1502.078	33.28
1505.318	33.47
1508.557	32.89
1511.797	33.45
1515.036	34.49
1518.274	34.25
1521.513	34.99
1524.751	34.88
1527.989	36.16
1531.227	35.72
1534.464	36.33
1537.701	36.72
1540.938	36.91
1544.174	37.73
1547.41	37.69
1550.646	38.32
1553.882	39.08
1557.117	39.28
1560.352	39.18
1563.587	39.51
1566.821	40.06
1570.055	40.2
1573.289	40.57
1576.523	40.9
1579.756	41.11
1582.989	41.87
1586.222	41.73
1589.454	42.08
1592.686	41.99
1595.918	42.4
1599.15	42.21
1602.381	42.29
1605.612	42.83
1608.843	42.74
1612.073	42.56
1615.303	43.31
1618.533	43.14
1621.762	43.22
1624.992	42.88
1628.221	42.97
1631.449	43.32
1634.678	43.53
1637.906	44.1
1641.134	44.07
1644.361	44.16
1647.588	44.7
1650.815	44.42
1654.042	44.49
1657.269	44.37
1660.495	45.03
1663.72	45.13
1666.946	44.99
1670.171	44.95
1673.396	44.34
1676.621	44.51
1679.845	44.86
1683.069	44.28
1686.293	44
1689.517	44.67
1692.74	44.27
1695.963	44.33
1699.185	44.35
1702.408	43.8
1705.63	43.83
1708.852	44.36
1712.073	43.75
1715.294	43.35
1718.515	44.23
1721.736	44.15
1724.956	43.55
1728.176	43.7
1731.396	43.49
1734.616	43.5
1737.835	44
1741.054	43.37
1744.272	43.63
1747.491	43.76
1750.709	43.34
1753.927	42.54
1757.144	42.8
1760.361	42.4
1763.578	42.25
1766.795	42.12
1770.011	41.87
1773.227	42.06
1776.443	42.36
1779.658	41.37
1782.874	41.36
1786.089	41.41
1789.303	41.56
1792.518	41.61
1795.732	41.27
1798.945	41.83
1802.159	41.9
1805.372	41.8
1808.585	41.75
1811.797	42.38
1815.01	42.21
1818.222	42.37
1821.434	41.79
1824.645	41.76
1827.856	41.45
1831.067	40.97
1834.278	40.98
1837.488	41.03
1840.698	40.31
1843.908	39.63
1847.117	39.26
1850.326	38.66
1853.535	38.74
1856.744	38.73
1859.952	37.61
1863.16	36.69
1866.368	36.99
1869.575	35.49
1872.782	33.16
1875.989	31.89
1879.196	31.23
1882.402	28.18
1885.608	28.53
1888.814	25.71
1892.019	23.67
1895.224	22.66
1898.429	21.52
1901.634	20.03
1904.838	18.97
1908.042	18.68
1911.246	18.08
1914.449	17.48
1917.652	17.39
1920.855	15.44
1924.058	15.32
1927.26	15.06
1930.462	14.17
1933.664	14.68
1936.865	14.57
1940.066	13.39
1943.267	12.99
1946.467	13.66
1949.668	13.25
1952.868	13.68
1956.067	14.2
1959.267	15.54
1962.466	15.19
1965.665	16.77
1968.863	16.3
1972.061	16.99
1975.259	17.66
1978.457	18.17
1981.654	17.14
1984.852	17.96
1988.048	18.44
1991.245	19.14
1994.441	17.88
1997.637	19.48
2000.833	20.37
2004.028	20.57
2007.223	20.21
2010.418	21.65
2013.613	23.15
2016.807	25.22
2020.001	24.03
2023.194	26.64
2026.388	26.78
2029.581	29.64
2032.774	29.17
2035.966	28.54
2039.158	30.39
2042.35	29.59
2045.542	31.75
2048.733	32.83
2051.924	29.83
2055.115	32.29
2058.306	31.25
2061.496	30.44
2064.686	29.47
2067.875	31.21
2071.065	33.22
2074.254	31.98
2077.442	34.95
2080.631	32.13
2083.819	31.87
2087.007	35.43
2090.195	37.11
2093.382	33.18
2096.569	34.51
2099.756	37.61
2102.942	37.12
2106.128	36.93
2109.314	38.53
2112.5	37.39
2115.685	38.24
2118.87	38.31
2122.055	38.93
2125.239	36.22
2128.424	39.54
2131.608	39.31
2134.791	37.48
2137.974	37.56
2141.157	38.14
2144.34	37.87
2147.523	38.64
2150.705	38.64
2153.887	39.93
2157.068	40.63
2160.25	41.27
2163.431	43.9
2166.611	44.28
2169.792	45.36
2172.972	47.39
2176.152	47.24
2179.331	47.94
2182.511	49.25
2185.69	50.94
2188.868	47.8
2192.047	47.54
2195.225	50.62
2198.403	45.61
2201.58	47.46
2204.758	50.26
2207.935	48.19
2211.111	45.79
2214.288	46.24
2217.464	46.66
2220.64	48.77
2223.815	50.29
2226.991	50.91
2230.166	50.58
2233.34	54.82
2236.515	51.86
2239.689	47.24
2242.863	49.53
2246.036	51.55
2249.209	50.4
2252.382	50.9
2255.555	47.51
2258.727	49.46
2261.9	50.38
2265.071	50.05
2268.243	51.05
2271.414	50.71
2274.585	50.14
2277.756	53.68
2280.926	49.35
2284.096	53.11
2287.266	50.13
2290.436	52.52
2293.605	53.76
2296.774	55.57
2299.942	55.1
2303.111	54.33
2306.279	58.57
2309.447	62.32
2312.614	57.02
2315.781	60.08
2318.948	58.57
2322.115	63.47
2325.281	57.85
2328.447	53.14
2331.613	58.37
2334.779	59.4
2337.944	56.3
2341.109	56.19
2344.274	55.83
2347.438	53.72
2350.602	61.98
2353.766	66.75
2356.929	62.72
2360.092	69.14
2363.255	74.6
2366.418	67.79
2369.58	65.8
2372.742	82.93
2375.904	80.38
2379.066	81.57
2382.227	87
2385.388	77.24
2388.548	73.78
2391.709	76.93
2394.869	74.89
2398.029	85.15
2401.188	82.58
2404.347	86.35
2407.506	72.01
2410.665	74.64
2413.823	76.01
2416.981	79.11
2420.139	82.23
2423.296	86.28
2426.453	86.75
2429.61	85.74
2432.767	77.73
2435.923	86.18
2439.079	84.82
2442.235	88.25
2445.391	92.06
2448.546	92.36
2451.701	93.35
2454.855	96.33
2458.009	88.21
2461.163	91.29
2464.317	92.47
2467.471	90.51
2470.624	86.02
2473.777	92.03
2476.929	94.19
2480.082	93.26
2483.234	96.55
2486.385	91.2
2489.537	94.1
2492.688	106.55
2495.839	106.01
2498.989	106.7
2502.14	112.32
2505.29	111.84
2508.439	114.39
2511.589	112.9
2514.738	101.9
2517.887	101.4
2521.035	108.13
2524.183	103.89
2527.331	101.6
2530.479	97.78
2533.627	103.29
