Data from c_1_hir_wi_4n_043_Splice17_03.txt Node
Date: Sat Feb 29 13:29:11 EST 2020
User: sa697716
Spectrometer: FLMS03696
Trigger mode: 0
Integration Time (sec): 3.180400E-1
Scans to average: 20
Electric dark correction enabled: true
Nonlinearity correction enabled: true
Boxcar width: 5
XAxis mode: Wavelengths
Number of Pixels in Spectrum: 2048
>>>>>Begin Spectral Data<<<<<
187.83	22.68
188.298	25.96
188.766	30.21
189.233	18.32
189.701	34.41
190.169	43
190.636	46.3
191.104	50.25
191.571	142.05
192.039	149.12
192.506	10.47
192.974	5406.2
193.441	-375.78
193.908	54.17
194.375	10.14
194.842	111.28
195.31	51.44
195.777	27.93
196.244	72.68
196.711	80.67
197.177	83.98
197.644	84.68
198.111	84.9
198.578	86.42
199.045	88.21
199.511	88.78
199.978	89.26
200.445	89.48
200.911	90.24
201.378	90.19
201.844	91.6
202.31	91.93
202.777	91.98
203.243	92.23
203.709	91.91
204.176	91.6
204.642	90.55
205.108	89.68
205.574	89.54
206.04	88.48
206.506	87.92
206.972	86.39
207.438	85.71
207.903	84.57
208.369	82.77
208.835	81.88
209.301	80.18
209.766	78.46
210.232	76.81
210.697	74.9
211.163	73.06
211.628	71.39
212.094	70.15
212.559	68.52
213.024	66.88
213.49	64.95
213.955	63.06
214.42	60.77
214.885	58.63
215.35	55.85
215.815	52.42
216.28	48.48
216.745	43.87
217.21	39.06
217.675	34.66
218.14	30.76
218.604	27.41
219.069	24.39
219.534	21.92
219.998	19.84
220.463	18.18
220.927	16.71
221.392	15.51
221.856	14.52
222.32	13.69
222.785	12.98
223.249	12.36
223.713	11.81
224.177	11.3
224.642	10.89
225.106	10.49
225.57	10.08
226.034	9.73
226.497	9.41
226.961	9.1
227.425	8.79
227.889	8.51
228.353	8.24
228.816	8.01
229.28	7.77
229.744	7.56
230.207	7.39
230.671	7.21
231.134	7.03
231.597	6.86
232.061	6.72
232.524	6.61
232.987	6.47
233.45	6.36
233.914	6.25
234.377	6.16
234.84	6.06
235.303	5.95
235.766	5.88
236.229	5.82
236.691	5.76
237.154	5.69
237.617	5.62
238.08	5.57
238.542	5.52
239.005	5.46
239.468	5.39
239.93	5.34
240.393	5.29
240.855	5.22
241.317	5.16
241.78	5.09
242.242	5.02
242.704	4.96
243.166	4.89
243.629	4.85
244.091	4.8
244.553	4.76
245.015	4.71
245.477	4.65
245.939	4.6
246.4	4.55
246.862	4.51
247.324	4.48
247.786	4.44
248.247	4.4
248.709	4.35
249.17	4.3
249.632	4.25
250.093	4.19
250.555	4.16
251.016	4.13
251.477	4.08
251.939	4.03
252.4	3.99
252.861	3.95
253.322	3.9
253.783	3.88
254.244	3.84
254.705	3.81
255.166	3.8
255.627	3.76
256.088	3.72
256.549	3.69
257.009	3.65
257.47	3.61
257.931	3.58
258.391	3.53
258.852	3.48
259.312	3.44
259.773	3.39
260.233	3.35
260.694	3.31
261.154	3.28
261.614	3.24
262.074	3.2
262.534	3.15
262.994	3.11
263.455	3.09
263.915	3.06
264.374	3.02
264.834	3
265.294	2.97
265.754	2.93
266.214	2.91
266.673	2.88
267.133	2.87
267.593	2.86
268.052	2.84
268.512	2.82
268.971	2.8
269.431	2.79
269.89	2.77
270.349	2.76
270.809	2.76
271.268	2.75
271.727	2.74
272.186	2.73
272.645	2.72
273.104	2.71
273.563	2.7
274.022	2.7
274.481	2.69
274.94	2.69
275.399	2.68
275.857	2.67
276.316	2.67
276.775	2.65
277.233	2.65
277.692	2.64
278.15	2.64
278.609	2.63
279.067	2.63
279.525	2.63
279.984	2.62
280.442	2.63
280.9	2.63
281.358	2.63
281.816	2.63
282.274	2.63
282.732	2.64
283.19	2.65
283.648	2.65
284.106	2.65
284.564	2.66
285.021	2.66
285.479	2.67
285.937	2.66
286.394	2.66
286.852	2.65
287.309	2.66
287.767	2.65
288.224	2.64
288.682	2.63
289.139	2.63
289.596	2.6
290.053	2.58
290.511	2.56
290.968	2.54
291.425	2.53
291.882	2.51
292.339	2.49
292.796	2.47
293.252	2.46
293.709	2.44
294.166	2.42
294.623	2.41
295.079	2.4
295.536	2.39
295.992	2.38
296.449	2.37
296.905	2.36
297.362	2.35
297.818	2.35
298.274	2.34
298.731	2.34
299.187	2.34
299.643	2.34
300.099	2.33
300.555	2.33
301.011	2.33
301.467	2.33
301.923	2.33
302.379	2.33
302.835	2.33
303.291	2.32
303.746	2.32
304.202	2.32
304.658	2.32
305.113	2.33
305.569	2.33
306.024	2.34
306.479	2.34
306.935	2.35
307.39	2.36
307.845	2.36
308.301	2.38
308.756	2.39
309.211	2.4
309.666	2.41
310.121	2.41
310.576	2.42
311.031	2.42
311.486	2.42
311.94	2.42
312.395	2.43
312.85	2.44
313.305	2.44
313.759	2.44
314.214	2.44
314.668	2.44
315.123	2.45
315.577	2.44
316.032	2.43
316.486	2.43
316.94	2.43
317.394	2.43
317.849	2.41
318.303	2.41
318.757	2.39
319.211	2.38
319.665	2.37
320.119	2.36
320.572	2.36
321.026	2.35
321.48	2.35
321.934	2.34
322.387	2.34
322.841	2.33
323.295	2.33
323.748	2.33
324.202	2.34
324.655	2.34
325.108	2.34
325.562	2.32
326.015	2.32
326.468	2.31
326.921	2.31
327.374	2.31
327.827	2.31
328.28	2.31
328.733	2.31
329.186	2.32
329.639	2.31
330.092	2.3
330.545	2.32
330.997	2.33
331.45	2.34
331.903	2.34
332.355	2.35
332.808	2.35
333.26	2.36
333.713	2.38
334.165	2.38
334.617	2.4
335.069	2.4
335.522	2.41
335.974	2.42
336.426	2.43
336.878	2.43
337.33	2.42
337.782	2.43
338.234	2.43
338.686	2.41
339.137	2.42
339.589	2.42
340.041	2.41
340.493	2.4
340.944	2.39
341.396	2.38
341.847	2.37
342.299	2.35
342.75	2.34
343.201	2.33
343.653	2.32
344.104	2.3
344.555	2.29
345.006	2.28
345.457	2.28
345.908	2.27
346.359	2.27
346.81	2.26
347.261	2.26
347.712	2.26
348.163	2.25
348.613	2.24
349.064	2.23
349.515	2.23
349.965	2.23
350.416	2.22
350.866	2.22
351.317	2.22
351.767	2.22
352.217	2.23
352.668	2.23
353.118	2.23
353.568	2.24
354.018	2.26
354.468	2.28
354.918	2.29
355.368	2.29
355.818	2.29
356.268	2.3
356.718	2.29
357.168	2.3
357.617	2.3
358.067	2.3
358.517	2.29
358.966	2.29
359.416	2.29
359.865	2.28
360.315	2.29
360.764	2.29
361.213	2.28
361.663	2.28
362.112	2.29
362.561	2.29
363.01	2.29
363.459	2.29
363.908	2.29
364.357	2.3
364.806	2.3
365.255	2.31
365.703	2.32
366.152	2.33
366.601	2.33
367.05	2.35
367.498	2.35
367.947	2.36
368.395	2.37
368.844	2.37
369.292	2.36
369.74	2.37
370.189	2.36
370.637	2.36
371.085	2.37
371.533	2.39
371.981	2.38
372.429	2.38
372.877	2.38
373.325	2.37
373.773	2.38
374.221	2.38
374.669	2.38
375.116	2.38
375.564	2.38
376.012	2.39
376.459	2.38
376.907	2.39
377.354	2.39
377.801	2.4
378.249	2.43
378.696	2.44
379.143	2.45
379.591	2.45
380.038	2.47
380.485	2.48
380.932	2.48
381.379	2.49
381.826	2.51
382.273	2.52
382.72	2.53
383.166	2.53
383.613	2.53
384.06	2.54
384.506	2.55
384.953	2.56
385.4	2.57
385.846	2.59
386.292	2.6
386.739	2.61
387.185	2.64
387.631	2.66
388.078	2.68
388.524	2.68
388.97	2.7
389.416	2.73
389.862	2.75
390.308	2.77
390.754	2.8
391.2	2.84
391.645	2.87
392.091	2.9
392.537	2.93
392.983	2.96
393.428	3.02
393.874	3.06
394.319	3.11
394.765	3.18
395.21	3.22
395.655	3.28
396.101	3.35
396.546	3.41
396.991	3.47
397.436	3.53
397.881	3.62
398.326	3.71
398.771	3.79
399.216	3.86
399.661	3.93
400.106	4
400.551	4.04
400.995	4.07
401.44	4.1
401.885	4.14
402.329	4.19
402.774	4.22
403.218	4.26
403.663	4.3
404.107	4.34
404.551	4.4
404.995	4.46
405.44	4.51
405.884	4.57
406.328	4.63
406.772	4.7
407.216	4.77
407.66	4.85
408.104	4.9
408.547	4.96
408.991	4.99
409.435	5.04
409.879	5.1
410.322	5.18
410.766	5.27
411.209	5.35
411.653	5.41
412.096	5.46
412.54	5.53
412.983	5.6
413.426	5.68
413.869	5.78
414.312	5.85
414.756	5.92
415.199	5.99
415.642	6.06
416.085	6.12
416.527	6.19
416.97	6.24
417.413	6.26
417.856	6.28
418.298	6.27
418.741	6.28
419.184	6.31
419.626	6.32
420.069	6.35
420.511	6.36
420.953	6.37
421.396	6.4
421.838	6.45
422.28	6.53
422.722	6.59
423.164	6.65
423.606	6.71
424.048	6.74
424.49	6.8
424.932	6.78
425.374	6.76
425.816	6.71
426.258	6.63
426.699	6.56
427.141	6.53
427.582	6.56
428.024	6.63
428.465	6.7
428.907	6.77
429.348	6.82
429.789	6.92
430.231	7.03
430.672	7.2
431.113	7.4
431.554	7.6
431.995	7.78
432.436	7.89
432.877	7.96
433.318	8.02
433.759	8.1
434.2	8.2
434.64	8.3
435.081	8.41
435.522	8.5
435.962	8.59
436.403	8.7
436.843	8.74
437.284	8.8
437.724	8.9
438.164	8.98
438.604	9.08
439.045	9.19
439.485	9.28
439.925	9.34
440.365	9.42
440.805	9.48
441.245	9.49
441.685	9.56
442.125	9.61
442.564	9.67
443.004	9.72
443.444	9.81
443.883	9.89
444.323	9.95
444.762	10.06
445.202	10.16
445.641	10.26
446.081	10.4
446.52	10.5
446.959	10.63
447.398	10.75
447.837	10.85
448.276	10.87
448.716	10.89
449.154	10.92
449.593	10.96
450.032	10.97
450.471	10.97
450.91	10.92
451.349	10.9
451.787	10.86
452.226	10.81
452.664	10.78
453.103	10.77
453.541	10.76
453.98	10.73
454.418	10.68
454.856	10.63
455.295	10.57
455.733	10.54
456.171	10.5
456.609	10.5
457.047	10.46
457.485	10.45
457.923	10.46
458.361	10.46
458.798	10.51
459.236	10.51
459.674	10.52
460.111	10.56
460.549	10.59
460.987	10.64
461.424	10.65
461.862	10.68
462.299	10.71
462.736	10.73
463.173	10.78
463.611	10.82
464.048	10.9
464.485	10.99
464.922	11.07
465.359	11.16
465.796	11.22
466.233	11.31
466.67	11.41
467.106	11.5
467.543	11.6
467.98	11.71
468.416	11.8
468.853	11.87
469.29	11.95
469.726	12.02
470.162	12.08
470.599	12.16
471.035	12.23
471.471	12.27
471.907	12.3
472.344	12.33
472.78	12.33
473.216	12.35
473.652	12.37
474.088	12.39
474.523	12.37
474.959	12.37
475.395	12.37
475.831	12.38
476.266	12.37
476.702	12.36
477.138	12.36
477.573	12.34
478.008	12.32
478.444	12.26
478.879	12.22
479.314	12.18
479.75	12.12
480.185	12.05
480.62	11.96
481.055	11.85
481.49	11.68
481.925	11.48
482.36	11.28
482.795	11.09
483.229	10.97
483.664	10.86
484.099	10.77
484.534	10.67
484.968	10.61
485.403	10.56
485.837	10.55
486.271	10.59
486.706	10.66
487.14	10.72
487.574	10.77
488.009	10.79
488.443	10.8
488.877	10.81
489.311	10.83
489.745	10.84
490.179	10.87
490.613	10.89
491.046	10.91
491.48	10.94
491.914	10.98
492.348	11.04
492.781	11.11
493.215	11.17
493.648	11.21
494.082	11.27
494.515	11.3
494.948	11.34
495.382	11.37
495.815	11.42
496.248	11.45
496.681	11.48
497.114	11.5
497.547	11.52
497.98	11.56
498.413	11.63
498.846	11.71
499.279	11.8
499.711	11.88
500.144	11.97
500.577	12.06
501.009	12.2
501.442	12.36
501.874	12.53
502.306	12.71
502.739	12.89
503.171	13.04
503.603	13.2
504.036	13.36
504.468	13.57
504.9	13.77
505.332	13.97
505.764	14.17
506.196	14.36
506.627	14.56
507.059	14.79
507.491	15.02
507.923	15.28
508.354	15.54
508.786	15.8
509.217	16.01
509.649	16.26
510.08	16.53
510.512	16.78
510.943	17.08
511.374	17.37
511.805	17.64
512.237	17.88
512.668	18.08
513.099	18.31
513.53	18.54
513.961	18.84
514.391	19.12
514.822	19.43
515.253	19.8
515.684	20.18
516.114	20.58
516.545	21
516.975	21.5
517.406	22.06
517.836	22.59
518.267	23.16
518.697	23.71
519.127	24.26
519.558	24.78
519.988	25.3
520.418	25.79
520.848	26.27
521.278	26.73
521.708	27.19
522.138	27.52
522.567	27.85
522.997	28.17
523.427	28.49
523.857	28.81
524.286	29.18
524.716	29.52
525.145	29.85
525.575	30.17
526.004	30.49
526.433	30.79
526.863	31.19
527.292	31.6
527.721	31.95
528.15	32.27
528.579	32.54
529.008	32.74
529.437	32.92
529.866	33.1
530.295	33.28
530.724	33.49
531.152	33.66
531.581	33.82
532.01	33.96
532.438	34.09
532.867	34.24
533.295	34.41
533.723	34.59
534.152	34.74
534.58	34.86
535.008	34.95
535.436	35
535.865	34.99
536.293	35.01
536.721	35.06
537.149	35.12
537.576	35.2
538.004	35.27
538.432	35.33
538.86	35.41
539.287	35.48
539.715	35.6
540.143	35.72
540.57	35.89
540.998	36.06
541.425	36.2
541.852	36.34
542.28	36.43
542.707	36.58
543.134	36.71
543.561	36.8
543.988	36.92
544.415	37.02
544.842	37.14
545.269	37.25
545.696	37.33
546.123	37.45
546.549	37.54
546.976	37.65
547.403	37.74
547.829	37.82
548.256	37.94
548.682	38
549.108	38.07
549.535	38.13
549.961	38.18
550.387	38.21
550.813	38.24
551.24	38.31
551.666	38.36
552.092	38.35
552.518	38.32
552.943	38.28
553.369	38.26
553.795	38.24
554.221	38.14
554.646	38.02
555.072	37.9
555.498	37.77
555.923	37.62
556.349	37.44
556.774	37.29
557.199	37.17
557.625	37.03
558.05	36.9
558.475	36.71
558.9	36.59
559.325	36.45
559.75	36.3
560.175	36.13
560.6	35.92
561.025	35.72
561.449	35.47
561.874	35.2
562.299	34.96
562.723	34.69
563.148	34.43
563.572	34.15
563.997	33.84
564.421	33.51
564.846	33.19
565.27	32.89
565.694	32.57
566.118	32.26
566.542	31.96
566.966	31.63
567.39	31.3
567.814	30.98
568.238	30.69
568.662	30.44
569.086	30.2
569.509	29.98
569.933	29.75
570.357	29.53
570.78	29.34
571.204	29.13
571.627	28.92
572.05	28.75
572.474	28.57
572.897	28.37
573.32	28.15
573.743	27.94
574.166	27.72
574.589	27.5
575.012	27.32
575.435	27.14
575.858	26.99
576.281	26.86
576.704	26.72
577.126	26.56
577.549	26.44
577.972	26.36
578.394	26.25
578.817	26.17
579.239	26.1
579.661	26.01
580.084	25.9
580.506	25.79
580.928	25.67
581.35	25.51
581.772	25.39
582.194	25.25
582.616	25.09
583.038	24.96
583.46	24.82
583.882	24.68
584.303	24.49
584.725	24.28
585.147	24.03
585.568	23.81
585.99	23.65
586.411	23.47
586.833	23.31
587.254	23.16
587.675	23.02
588.096	22.88
588.518	22.76
588.939	22.68
589.36	22.63
589.781	22.62
590.202	22.61
590.623	22.55
591.043	22.49
591.464	22.42
591.885	22.34
592.305	22.27
592.726	22.18
593.147	22.1
593.567	22.02
593.987	21.94
594.408	21.84
594.828	21.73
595.248	21.64
595.669	21.57
596.089	21.47
596.509	21.35
596.929	21.23
597.349	21.09
597.769	20.96
598.189	20.84
598.608	20.72
599.028	20.62
599.448	20.55
599.867	20.47
600.287	20.38
600.706	20.29
601.126	20.22
601.545	20.15
601.965	20.07
602.384	19.99
602.803	19.89
603.222	19.79
603.641	19.67
604.061	19.53
604.48	19.39
604.898	19.22
605.317	19.07
605.736	18.93
606.155	18.77
606.574	18.62
606.992	18.46
607.411	18.33
607.829	18.13
608.248	17.98
608.666	17.83
609.085	17.67
609.503	17.54
609.921	17.38
610.339	17.23
610.758	17.09
611.176	16.94
611.594	16.79
612.012	16.63
612.43	16.53
612.847	16.39
613.265	16.26
613.683	16.14
614.101	16.03
614.518	15.93
614.936	15.83
615.353	15.72
615.771	15.64
616.188	15.57
616.606	15.5
617.023	15.41
617.44	15.34
617.857	15.27
618.274	15.18
618.691	15.1
619.108	15.02
619.525	14.93
619.942	14.85
620.359	14.76
620.776	14.66
621.192	14.57
621.609	14.5
622.026	14.42
622.442	14.34
622.859	14.28
623.275	14.21
623.691	14.15
624.108	14.08
624.524	14.03
624.94	13.99
625.356	13.95
625.772	13.92
626.188	13.89
626.604	13.84
627.02	13.81
627.436	13.77
627.852	13.74
628.268	13.72
628.683	13.71
629.099	13.68
629.514	13.66
629.93	13.63
630.345	13.6
630.761	13.55
631.176	13.55
631.591	13.51
632.007	13.48
632.422	13.45
632.837	13.4
633.252	13.36
633.667	13.33
634.082	13.28
634.497	13.22
634.911	13.16
635.326	13.09
635.741	13.01
636.155	12.93
636.57	12.84
636.984	12.74
637.399	12.64
637.813	12.54
638.228	12.42
638.642	12.32
639.056	12.22
639.47	12.11
639.884	12.01
640.298	11.91
640.712	11.82
641.126	11.74
641.54	11.64
641.954	11.55
642.368	11.44
642.781	11.34
643.195	11.22
643.609	11.12
644.022	11.02
644.436	10.92
644.849	10.82
645.262	10.71
645.676	10.6
646.089	10.5
646.502	10.41
646.915	10.34
647.328	10.29
647.741	10.22
648.154	10.17
648.567	10.12
648.98	10.06
649.393	10.02
649.805	9.99
650.218	9.95
650.631	9.92
651.043	9.86
651.456	9.8
651.868	9.68
652.28	9.58
652.693	9.46
653.105	9.35
653.517	9.27
653.929	9.2
654.341	9.14
654.753	9.09
655.165	9.04
655.577	8.99
655.989	8.96
656.401	8.96
656.813	8.97
657.224	8.97
657.636	8.98
658.047	8.96
658.459	8.91
658.87	8.86
659.282	8.8
659.693	8.73
660.104	8.68
660.515	8.62
660.926	8.57
661.338	8.52
661.749	8.46
662.159	8.4
662.57	8.34
662.981	8.29
663.392	8.24
663.803	8.2
664.213	8.16
664.624	8.12
665.035	8.08
665.445	8.03
665.855	8.01
666.266	7.99
666.676	7.95
667.086	7.91
667.497	7.89
667.907	7.85
668.317	7.83
668.727	7.82
669.137	7.79
669.547	7.77
669.956	7.76
670.366	7.75
670.776	7.73
671.186	7.73
671.595	7.75
672.005	7.75
672.414	7.76
672.824	7.77
673.233	7.77
673.642	7.78
674.052	7.78
674.461	7.79
674.87	7.81
675.279	7.85
675.688	7.86
676.097	7.86
676.506	7.88
676.915	7.9
677.323	7.94
677.732	7.97
678.141	8
678.549	8.05
678.958	8.09
679.366	8.11
679.775	8.15
680.183	8.19
680.592	8.23
681	8.27
681.408	8.32
681.816	8.35
682.224	8.39
682.632	8.41
683.04	8.4
683.448	8.41
683.856	8.44
684.264	8.46
684.671	8.52
685.079	8.58
685.487	8.66
685.894	8.75
686.302	8.87
686.709	9.02
687.116	9.22
687.524	9.46
687.931	9.73
688.338	10.02
688.745	10.34
689.152	10.67
689.559	11.02
689.966	11.4
690.373	11.8
690.78	12.22
691.187	12.66
691.593	13.12
692	13.57
692.407	14.06
692.813	14.59
693.22	15.1
693.626	15.65
694.032	16.22
694.439	16.82
694.845	17.42
695.251	18.01
695.657	18.62
696.063	19.25
696.469	19.89
696.875	20.52
697.281	21.14
697.687	21.79
698.093	22.42
698.498	23.05
698.904	23.69
699.31	24.32
699.715	25
700.12	25.64
700.526	26.3
700.931	26.98
701.337	27.66
701.742	28.32
702.147	28.99
702.552	29.68
702.957	30.35
703.362	31.03
703.767	31.68
704.172	32.34
704.577	32.99
704.981	33.62
705.386	34.24
705.791	34.87
706.195	35.49
706.6	36.09
707.004	36.7
707.408	37.28
707.813	37.86
708.217	38.43
708.621	39
709.025	39.57
709.43	40.11
709.834	40.66
710.237	41.17
710.641	41.75
711.045	42.26
711.449	42.79
711.853	43.31
712.256	43.8
712.66	44.25
713.064	44.63
713.467	45
713.87	45.37
714.274	45.71
714.677	45.98
715.08	46.19
715.484	46.45
715.887	46.69
716.29	46.93
716.693	47.22
717.096	47.62
717.499	48.09
717.901	48.57
718.304	49.1
718.707	49.6
719.109	50.17
719.512	50.71
719.915	51.23
720.317	51.74
720.719	52.19
721.122	52.62
721.524	53.01
721.926	53.31
722.328	53.61
722.731	53.9
723.133	54.2
723.535	54.51
723.937	54.81
724.338	55.08
724.74	55.35
725.142	55.62
725.544	55.88
725.945	56.15
726.347	56.41
726.748	56.66
727.15	56.9
727.551	57.16
727.952	57.38
728.354	57.68
728.755	57.95
729.156	58.25
729.557	58.58
729.958	58.88
730.359	59.15
730.76	59.38
731.161	59.66
731.562	59.9
731.962	60.09
732.363	60.27
732.763	60.43
733.164	60.61
733.564	60.74
733.965	60.84
734.365	60.93
734.766	61
735.166	61.08
735.566	61.08
735.966	61.11
736.366	61.15
736.766	61.22
737.166	61.25
737.566	61.29
737.966	61.33
738.365	61.4
738.765	61.47
739.165	61.52
739.564	61.63
739.964	61.7
740.363	61.78
740.763	61.84
741.162	61.92
741.561	61.99
741.96	62.09
742.36	62.16
742.759	62.18
743.158	62.23
743.557	62.29
743.955	62.31
744.354	62.39
744.753	62.44
745.152	62.45
745.55	62.44
745.949	62.44
746.348	62.4
746.746	62.37
747.144	62.36
747.543	62.33
747.941	62.3
748.339	62.29
748.737	62.28
749.136	62.22
749.534	62.2
749.932	62.19
750.33	62.16
750.727	62.14
751.125	62.11
751.523	62.05
751.921	62.05
752.318	62.02
752.716	61.92
753.113	61.84
753.511	61.8
753.908	61.74
754.305	61.63
754.703	61.44
755.1	61.1
755.497	60.52
755.894	59.64
756.291	58.48
756.688	57.26
757.085	56.07
757.482	54.98
757.878	53.99
758.275	53.02
758.672	52.03
759.068	51.16
759.465	50.42
759.861	49.98
760.258	49.9
760.654	50.13
761.05	50.57
761.447	51.04
761.843	51.48
762.239	51.91
762.635	52.4
763.031	53.05
763.427	53.7
763.822	54.42
764.218	55.16
764.614	55.86
765.01	56.55
765.405	57.12
765.801	57.68
766.196	58.18
766.592	58.61
766.987	58.98
767.382	59.2
767.778	59.41
768.173	59.56
768.568	59.64
768.963	59.68
769.358	59.7
769.753	59.77
770.148	59.78
770.542	59.75
770.937	59.71
771.332	59.65
771.726	59.6
772.121	59.51
772.515	59.48
772.91	59.44
773.304	59.41
773.699	59.34
774.093	59.22
774.487	59.17
774.881	59.14
775.275	59.1
775.669	59.04
776.063	58.98
776.457	58.93
776.851	58.82
777.245	58.77
777.638	58.74
778.032	58.7
778.425	58.7
778.819	58.67
779.212	58.59
779.606	58.53
779.999	58.45
780.392	58.42
780.786	58.37
781.179	58.32
781.572	58.22
781.965	58.13
782.358	58.06
782.751	57.95
783.143	57.85
783.536	57.82
783.929	57.75
784.322	57.71
784.714	57.62
785.107	57.56
785.499	57.52
785.891	57.46
786.284	57.36
786.676	57.29
787.068	57.23
787.46	57.13
787.852	57.02
788.245	56.92
788.636	56.81
789.028	56.73
789.42	56.58
789.812	56.44
790.204	56.29
790.595	56.19
790.987	56.07
791.378	55.95
791.77	55.9
792.161	55.83
792.553	55.74
792.944	55.66
793.335	55.55
793.726	55.5
794.117	55.46
794.508	55.48
794.899	55.39
795.29	55.32
795.681	55.24
796.072	55.14
796.463	55.03
796.853	54.94
797.244	54.83
797.634	54.76
798.025	54.67
798.415	54.57
798.806	54.45
799.196	54.42
799.586	54.34
799.976	54.27
800.366	54.19
800.756	54.07
801.146	53.98
801.536	53.85
801.926	53.72
802.316	53.64
802.706	53.55
803.095	53.44
803.485	53.32
803.874	53.24
804.264	53.13
804.653	53
805.043	52.91
805.432	52.76
805.821	52.69
806.21	52.6
806.599	52.49
806.988	52.36
807.377	52.29
807.766	52.15
808.155	52.02
808.544	51.86
808.933	51.73
809.321	51.61
809.71	51.52
810.098	51.33
810.487	51.16
810.875	50.97
811.264	50.8
811.652	50.6
812.04	50.42
812.428	50.2
812.816	50.05
813.204	49.87
813.592	49.68
813.98	49.49
814.368	49.34
814.756	49.23
815.144	49.1
815.531	49
815.919	48.89
816.306	48.81
816.694	48.79
817.081	48.72
817.469	48.67
817.856	48.66
818.243	48.59
818.63	48.55
819.017	48.43
819.404	48.32
819.791	48.22
820.178	48.15
820.565	48.07
820.952	47.98
821.339	47.92
821.725	47.87
822.112	47.78
822.498	47.73
822.885	47.7
823.271	47.7
823.657	47.66
824.044	47.64
824.43	47.6
824.816	47.53
825.202	47.46
825.588	47.41
825.974	47.32
826.36	47.22
826.746	47.16
827.132	47.04
827.517	46.97
827.903	46.92
828.289	46.85
828.674	46.76
829.06	46.71
829.445	46.66
829.83	46.61
830.216	46.55
830.601	46.51
830.986	46.46
831.371	46.46
831.756	46.38
832.141	46.38
832.526	46.33
832.911	46.33
833.295	46.3
833.68	46.25
834.065	46.21
834.449	46.19
834.834	46.15
835.218	46.11
835.603	46.07
835.987	46.09
836.371	46.04
836.755	46.02
837.139	45.98
837.524	45.94
837.908	45.92
838.291	45.87
838.675	45.84
839.059	45.81
839.443	45.8
839.827	45.74
840.21	45.7
840.594	45.67
840.977	45.62
841.361	45.6
841.744	45.55
842.127	45.54
842.511	45.54
842.894	45.48
843.277	45.46
843.66	45.41
844.043	45.38
844.426	45.34
844.809	45.28
845.191	45.25
845.574	45.19
845.957	45.13
846.339	45.07
846.722	45.02
847.104	44.98
847.487	44.94
847.869	44.91
848.252	44.88
848.634	44.89
849.016	44.91
849.398	44.86
849.78	44.81
850.162	44.76
850.544	44.72
850.926	44.65
851.307	44.62
851.689	44.56
852.071	44.5
852.452	44.49
852.834	44.42
853.215	44.37
853.597	44.37
853.978	44.37
854.359	44.39
854.741	44.42
855.122	44.41
855.503	44.41
855.884	44.39
856.265	44.39
856.646	44.36
857.026	44.35
857.407	44.3
857.788	44.29
858.169	44.28
858.549	44.29
858.93	44.24
859.31	44.22
859.69	44.21
860.071	44.2
860.451	44.17
860.831	44.16
861.211	44.12
861.591	44.12
861.971	44.05
862.351	44.03
862.731	43.96
863.111	43.91
863.491	43.86
863.87	43.83
864.25	43.81
864.629	43.8
865.009	43.78
865.388	43.77
865.768	43.72
866.147	43.71
866.526	43.69
866.905	43.72
867.284	43.7
867.663	43.73
868.042	43.7
868.421	43.68
868.8	43.69
869.179	43.69
869.558	43.66
869.936	43.67
870.315	43.67
870.693	43.67
871.072	43.63
871.45	43.63
871.828	43.61
872.207	43.62
872.585	43.62
872.963	43.55
873.341	43.54
873.719	43.55
874.097	43.54
874.475	43.55
874.853	43.51
875.23	43.5
875.608	43.49
875.986	43.48
876.363	43.45
876.741	43.44
877.118	43.43
877.495	43.39
877.873	43.36
878.25	43.31
878.627	43.27
879.004	43.26
879.381	43.24
879.758	43.21
880.135	43.17
880.512	43.16
880.889	43.16
881.265	43.19
881.642	43.17
882.019	43.17
882.395	43.17
882.772	43.18
883.148	43.16
883.524	43.15
883.901	43.13
884.277	43.11
884.653	43.11
885.029	43.08
885.405	43.03
885.781	43.01
886.157	43.02
886.532	43.01
886.908	42.98
887.284	42.97
887.659	42.96
888.035	42.96
888.411	42.96
888.786	42.94
889.161	42.93
889.537	42.92
889.912	42.88
890.287	42.83
890.662	42.83
891.037	42.79
891.412	42.74
891.787	42.71
892.162	42.7
892.536	42.67
892.911	42.63
893.286	42.59
893.66	42.55
894.035	42.54
894.409	42.5
894.784	42.46
895.158	42.45
895.532	42.44
895.906	42.42
896.281	42.37
896.655	42.35
897.029	42.3
897.402	42.3
897.776	42.31
898.15	42.28
898.524	42.28
898.898	42.25
899.271	42.23
899.645	42.23
900.018	42.19
900.392	42.24
900.765	42.25
901.138	42.29
901.511	42.29
901.884	42.3
902.258	42.32
902.631	42.35
903.003	42.37
903.376	42.38
903.749	42.41
904.122	42.46
904.495	42.47
904.867	42.47
905.24	42.44
905.612	42.43
905.985	42.41
906.357	42.39
906.729	42.35
907.102	42.35
907.474	42.38
907.846	42.33
908.218	42.3
908.59	42.27
908.962	42.26
909.334	42.29
909.705	42.3
910.077	42.27
910.449	42.29
910.82	42.29
911.192	42.3
911.563	42.27
911.935	42.29
912.306	42.29
912.677	42.3
913.048	42.29
913.419	42.25
913.79	42.23
914.161	42.26
914.532	42.24
914.903	42.24
915.274	42.23
915.645	42.26
916.015	42.25
916.386	42.22
916.756	42.2
917.127	42.2
917.497	42.22
917.868	42.23
918.238	42.24
918.608	42.26
918.978	42.27
919.348	42.24
919.718	42.21
920.088	42.21
920.458	42.27
920.828	42.31
921.198	42.32
921.567	42.33
921.937	42.37
922.306	42.34
922.676	42.33
923.045	42.36
923.415	42.37
923.784	42.39
924.153	42.42
924.522	42.43
924.891	42.37
925.26	42.37
925.629	42.37
925.998	42.31
926.367	42.33
926.736	42.31
927.104	42.28
927.473	42.28
927.842	42.25
928.21	42.22
928.578	42.13
928.947	42.13
929.315	42.11
929.683	42.09
930.051	42.07
930.42	42.04
930.788	42.05
931.156	42
931.523	41.99
931.891	41.95
932.259	41.93
932.627	41.93
932.994	41.98
933.362	41.97
933.729	41.92
934.097	41.94
934.464	41.98
934.831	41.98
935.199	42.04
935.566	42.11
935.933	42.2
936.3	42.27
936.667	42.31
937.034	42.32
937.401	42.39
937.767	42.53
938.134	42.65
938.501	42.73
938.867	42.87
939.234	42.99
939.6	43.05
939.967	43.07
940.333	43.2
940.699	43.43
941.065	43.57
941.431	43.64
941.798	43.72
942.163	43.83
942.529	43.77
942.895	43.8
943.261	43.8
943.627	43.8
943.992	43.92
944.358	43.83
944.723	43.75
945.089	43.71
945.454	43.75
945.82	43.64
946.185	43.59
946.55	43.7
946.915	43.61
947.28	43.55
947.645	43.51
948.01	43.38
948.375	43.4
948.74	43.26
949.104	43.21
949.469	43.06
949.834	43
950.198	42.86
950.562	42.75
950.927	42.68
951.291	42.6
951.655	42.52
952.02	42.48
952.384	42.51
952.748	42.53
953.112	42.5
953.476	42.48
953.839	42.52
954.203	42.55
954.567	42.56
954.931	42.56
955.294	42.58
955.658	42.52
956.021	42.54
956.385	42.43
956.748	42.41
957.111	42.36
957.474	42.37
957.837	42.33
958.2	42.24
958.563	42.19
958.926	42.11
959.289	42.06
959.652	42.13
960.015	42.09
960.377	42.05
960.74	41.97
961.102	41.97
961.465	41.99
961.827	41.95
962.189	41.93
962.552	41.9
962.914	41.92
963.276	41.93
963.638	41.86
964	41.89
964.362	41.95
964.724	42.04
965.085	42.01
965.447	41.97
965.809	41.93
966.17	41.94
966.532	41.93
966.893	41.99
967.255	42
967.616	42.08
967.977	42.05
968.338	42.01
968.699	41.96
969.061	41.97
969.421	41.93
969.782	42.02
970.143	42.09
970.504	42.15
970.865	42.09
971.225	42.06
971.586	42.07
971.946	42.04
972.307	42.05
972.667	42.08
973.027	42.15
973.388	42.27
973.748	42.3
974.108	42.28
974.468	42.3
974.828	42.41
975.188	42.47
975.548	42.47
975.907	42.59
976.267	42.68
976.627	42.65
976.986	42.6
977.346	42.6
977.705	42.59
978.064	42.6
978.424	42.63
978.783	42.63
979.142	42.63
979.501	42.71
979.86	42.62
980.219	42.49
980.578	42.53
980.937	42.64
981.296	42.61
981.654	42.71
982.013	42.81
982.371	42.81
982.73	42.81
983.088	42.8
983.447	42.8
983.805	42.88
984.163	43.04
984.521	43.01
984.879	43
985.237	43.18
985.595	43.13
985.953	43.1
986.311	43.24
986.669	43.3
987.026	43.36
987.384	43.32
987.741	43.46
988.099	43.54
988.456	43.67
988.814	43.73
989.171	43.68
989.528	43.72
989.885	43.66
990.242	43.71
990.599	43.77
990.956	43.91
991.313	44
991.67	44.08
992.027	44.1
992.383	44.22
992.74	44.12
993.096	44.17
993.453	44.24
993.809	44.36
994.165	44.36
994.522	44.44
994.878	44.44
995.234	44.53
995.59	44.41
995.946	44.42
996.302	44.4
996.658	44.61
997.013	44.75
997.369	44.8
997.725	44.96
998.08	44.92
998.436	45.02
998.791	45.05
999.147	45.09
999.502	45.13
999.857	45.19
1000.212	45.28
1000.567	45.38
1000.922	45.31
1001.277	45.3
1001.632	45.36
1001.987	45.52
1002.342	45.53
1002.696	45.64
1003.051	45.69
1003.406	45.77
1003.76	45.86
1004.114	46.01
1004.469	46.05
1004.823	46.27
1005.177	46.58
1005.531	46.64
1005.885	46.72
1006.239	46.66
1006.593	46.76
1006.947	46.88
1007.301	47.18
1007.655	47.31
1008.008	47.27
1008.362	47.33
1008.715	47.36
1009.069	47.16
1009.422	47.18
1009.776	47.31
1010.129	47.17
1010.482	47.28
1010.835	47.26
1011.188	47.19
1011.541	47.01
1011.894	47.05
1012.247	47.05
1012.6	47.14
1012.952	47.28
1013.305	47.4
1013.657	47.46
1014.01	48.1
1014.362	48.24
1014.715	48.49
1015.067	48.83
1015.419	49.29
1015.771	49.79
1016.123	50.06
1016.475	50.24
1016.827	50.49
1017.179	50.68
1017.531	50.85
1017.883	50.92
1018.234	51.14
1018.586	51.15
1018.938	51.1
1019.289	50.97
1019.64	50.97
1019.992	51.31
1020.343	51.44
1020.694	51.58
1021.045	51.79
1021.396	51.79
1021.747	51.91
1022.098	52.36
1022.449	52.61
1022.8	52.98
1023.151	53.35
1023.501	53.57
1023.852	53.67
1024.202	53.7
1024.553	53.89
1024.903	53.93
1025.253	54.34
1025.604	54.67
1025.954	54.12
1026.304	54.61
1026.654	54.73
1027.004	55.21
1027.354	55.11
1027.703	55.38
1028.053	55.64
1028.403	55.97
1028.753	56.34
1029.102	56.34
1029.452	56.09
1029.801	56.37
1030.15	56.22
1030.499	56.19
897.758	588.29
901.051	604.88
904.343	609.54
907.636	599.52
910.928	584.85
914.22	596.58
917.511	590.54
920.803	563.91
924.094	541.47
927.384	544.98
930.675	525.09
933.965	518.03
937.255	512.71
940.544	489.56
943.834	468.15
947.123	463.21
950.411	441.54
953.7	430.59
956.988	417.73
960.276	400.53
963.563	392.43
966.851	375.48
970.138	368.04
973.424	342.47
976.711	337.03
979.997	326.39
983.283	320.44
986.568	306.83
989.853	299.55
993.138	291.6
996.423	285.76
999.708	278.37
1002.992	276.2
1006.275	268.08
1009.559	267.82
1012.842	260.28
1016.125	250.71
1019.408	244.8
1022.69	243.55
1025.972	240.94
1029.254	233.02
1032.536	228.72
1035.817	221.4
1039.098	219.81
1042.379	215.03
1045.659	210.76
1048.939	208.38
1052.219	205.96
1055.498	203.26
1058.778	199.52
1062.057	196.4
1065.335	195.96
1068.614	191.48
1071.892	189.45
1075.17	184.8
1078.447	183.62
1081.724	181.77
1085.001	179.4
1088.278	177.15
1091.554	177.22
1094.83	174.94
1098.106	171.57
1101.382	171.24
1104.657	170.58
1107.932	169.28
1111.206	168
1114.481	166.21
1117.755	165.35
1121.029	164.22
1124.302	162.83
1127.575	158.81
1130.848	158.91
1134.121	156.09
1137.393	155.06
1140.665	154.23
1143.937	152.68
1147.208	149.74
1150.48	148.07
1153.75	146.76
1157.021	145.59
1160.291	145.64
1163.561	144.97
1166.831	143.56
1170.101	144.13
1173.37	143.06
1176.639	142.13
1179.907	141.91
1183.176	142.62
1186.444	142.47
1189.711	141.97
1192.979	142.43
1196.246	142.29
1199.513	141.91
1202.78	142.44
1206.046	142.84
1209.312	142.72
1212.578	143.66
1215.843	146.17
1219.108	146.73
1222.373	148.96
1225.638	151.19
1228.902	154.44
1232.166	159.02
1235.43	161.07
1238.693	165.06
1241.956	168.01
1245.219	174.06
1248.482	174.27
1251.744	173.2
1255.006	175.76
1258.268	171.22
1261.529	169.7
1264.79	165.67
1268.051	161.98
1271.312	160.48
1274.572	158.01
1277.832	153.59
1281.092	152.17
1284.351	149.73
1287.61	149.6
1290.869	147.17
1294.128	147.22
1297.386	146.34
1300.644	146.14
1303.902	145.9
1307.159	144.22
1310.416	144.45
1313.673	147.47
1316.93	147.48
1320.186	150.08
1323.442	151.28
1326.697	154.52
1329.953	155.99
1333.208	161.4
1336.463	167.84
1339.717	170.67
1342.972	181.3
1346.226	186.76
1349.479	188.07
1352.733	196.08
1355.986	199.77
1359.238	204.74
1362.491	206.74
1365.743	215.23
1368.995	215.14
1372.247	214.96
1375.498	213.62
1378.749	220.31
1382	218.75
1385.251	218.4
1388.501	216.79
1391.751	220.41
1395	220.57
1398.25	221.09
1401.499	218.81
1404.748	219.82
1407.996	214.16
1411.244	215.45
1414.492	210.05
1417.74	204.34
1420.987	199.6
1424.234	196.14
1427.481	189.06
1430.728	183.06
1433.974	178.64
1437.22	171.77
1440.465	166.07
1443.711	161.75
1446.956	156.58
1450.201	151.57
1453.445	144.67
1456.689	140.4
1459.933	135.54
1463.177	129.77
1466.42	126.77
1469.663	122.29
1472.906	119.2
1476.148	115.66
1479.391	112.99
1482.633	110.91
1485.874	108.7
1489.115	108.18
1492.356	105.89
1495.597	104.69
1498.838	103.74
1502.078	102.7
1505.318	102.37
1508.557	101.84
1511.797	100.64
1515.036	100.67
1518.274	99.99
1521.513	98.72
1524.751	98.03
1527.989	99.21
1531.227	98.81
1534.464	98.58
1537.701	97.79
1540.938	97.48
1544.174	97.5
1547.41	98.12
1550.646	97.07
1553.882	97.6
1557.117	97.13
1560.352	96.95
1563.587	95.84
1566.821	95.95
1570.055	95.87
1573.289	95.57
1576.523	95.67
1579.756	94.95
1582.989	94.84
1586.222	94.85
1589.454	94.36
1592.686	94.15
1595.918	94.16
1599.15	94.17
1602.381	94.01
1605.612	94
1608.843	94.09
1612.073	94.31
1615.303	94.6
1618.533	94.07
1621.762	94.24
1624.992	94.87
1628.221	94.9
1631.449	95.56
1634.678	95.31
1637.906	95.67
1641.134	95.57
1644.361	95.67
1647.588	95.36
1650.815	95.5
1654.042	96.03
1657.269	95.68
1660.495	95.84
1663.72	96.15
1666.946	95.59
1670.171	96.16
1673.396	96.22
1676.621	96.88
1679.845	97.43
1683.069	97.31
1686.293	97.2
1689.517	97.48
1692.74	98.1
1695.963	98.02
1699.185	98.19
1702.408	98.97
1705.63	98.77
1708.852	99.7
1712.073	98.55
1715.294	98.4
1718.515	99.06
1721.736	99.63
1724.956	98.8
1728.176	98.78
1731.396	99.43
1734.616	99.27
1737.835	98.83
1741.054	99.17
1744.272	98.74
1747.491	99.61
1750.709	99.65
1753.927	99.79
1757.144	99.39
1760.361	100.09
1763.578	100.84
1766.795	100.75
1770.011	101.8
1773.227	102.7
1776.443	102.89
1779.658	103.06
1782.874	103.32
1786.089	104.04
1789.303	104.31
1792.518	106.03
1795.732	106.72
1798.945	107.47
1802.159	107.52
1805.372	108.74
1808.585	108.95
1811.797	109.97
1815.01	110.99
1818.222	112.05
1821.434	113.49
1824.645	113.85
1827.856	114.74
1831.067	115
1834.278	116.87
1837.488	117.15
1840.698	117.92
1843.908	118.15
1847.117	119.62
1850.326	120.3
1853.535	120.86
1856.744	121.23
1859.952	122.69
1863.16	122.84
1866.368	123.27
1869.575	122.76
1872.782	123.38
1875.989	122.51
1879.196	122.48
1882.402	121.14
1885.608	122.02
1888.814	121.66
1892.019	121.65
1895.224	120.13
1898.429	120.97
1901.634	121.55
1904.838	121.67
1908.042	122.73
1911.246	123.19
1914.449	123.92
1917.652	124.54
1920.855	124.41
1924.058	124.15
1927.26	124.35
1930.462	125.28
1933.664	125.25
1936.865	124.83
1940.066	124.03
1943.267	123.31
1946.467	123.52
1949.668	122.75
1952.868	123.01
1956.067	122.35
1959.267	124.5
1962.466	125.46
1965.665	125.74
1968.863	126.13
1972.061	127.22
1975.259	129.96
1978.457	129.62
1981.654	130.89
1984.852	132.73
1988.048	134.21
1991.245	138.04
1994.441	138.38
1997.637	140.39
2000.833	143.67
2004.028	145.06
2007.223	149.13
2010.418	152.33
2013.613	161.18
2016.807	165.57
2020.001	168.87
2023.194	173.72
2026.388	178.08
2029.581	188.58
2032.774	195.11
2035.966	200.24
2039.158	206.98
2042.35	211.22
2045.542	213.35
2048.733	220.79
2051.924	223.48
2055.115	228.33
2058.306	230.97
2061.496	234.05
2064.686	231.64
2067.875	231.87
2071.065	235.62
2074.254	235.73
2077.442	242.24
2080.631	245.33
2083.819	245.2
2087.007	249.64
2090.195	253.46
2093.382	252.18
2096.569	252.49
2099.756	258.79
2102.942	263.24
2106.128	268.25
2109.314	270.7
2112.5	270.49
2115.685	269.46
2118.87	269.71
2122.055	270.91
2125.239	275.49
2128.424	284.84
2131.608	283.65
2134.791	281.73
2137.974	283.69
2141.157	286.16
2144.34	289.02
2147.523	292.1
2150.705	300.18
2153.887	296.7
2157.068	300.33
2160.25	301.29
2163.431	298.92
2166.611	304.35
2169.792	312.25
2172.972	316.13
2176.152	315.51
2179.331	322.57
2182.511	321.82
2185.69	324.31
2188.868	339.57
2192.047	347.84
2195.225	352.75
2198.403	359.82
2201.58	354.31
2204.758	369.07
2207.935	369.64
2211.111	377.64
2214.288	378.75
2217.464	384.11
2220.64	388.92
2223.815	387.48
2226.991	385.24
2230.166	388.64
2233.34	398.69
2236.515	411.55
2239.689	397.91
2242.863	409
2246.036	402.73
2249.209	416.54
2252.382	416.1
2255.555	429.45
2258.727	433.31
2261.9	439.14
2265.071	447.17
2268.243	442.52
2271.414	455.27
2274.585	467.51
2277.756	466.91
2280.926	483.93
2284.096	481.93
2287.266	485.85
2290.436	474.59
2293.605	485.71
2296.774	507.85
2299.942	506.44
2303.111	524.03
2306.279	531.57
2309.447	533.7
2312.614	532.67
2315.781	551.01
2318.948	555.35
2322.115	566.46
2325.281	595.17
2328.447	591.44
2331.613	596.15
2334.779	606.33
2337.944	611.09
2341.109	625.39
2344.274	632.73
2347.438	652.2
2350.602	660.34
2353.766	698.35
2356.929	701.15
2360.092	715.24
2363.255	715.33
2366.418	717.25
2369.58	735.45
2372.742	736.71
2375.904	734.72
2379.066	753.45
2382.227	797.7
2385.388	794.44
2388.548	757.78
2391.709	750.45
2394.869	769.03
2398.029	776.3
2401.188	780.08
2404.347	798.39
2407.506	829.76
2410.665	796.48
2413.823	797.36
2416.981	798.46
2420.139	760.31
2423.296	815.35
2426.453	871.82
2429.61	838.56
2432.767	894.29
2435.923	923.71
2439.079	894.39
2442.235	908.47
2445.391	934.28
2448.546	932.52
2451.701	973.75
2454.855	1040.55
2458.009	926.44
2461.163	940.97
2464.317	942.68
2467.471	920.34
2470.624	958.28
2473.777	944.22
2476.929	913.37
2480.082	974.32
2483.234	1021.26
2486.385	1036.27
2489.537	1060.53
2492.688	1176.4
2495.839	1156.28
2498.989	1186.28
2502.14	1195.21
2505.29	1129.67
2508.439	1250.38
2511.589	1292.89
2514.738	1252.42
2517.887	1241.84
2521.035	1170.19
2524.183	1151.09
2527.331	1136.95
2530.479	1106.88
2533.627	1140.89
