Data from c_1_dec_on_6n_019_Splice17_14.txt Node
Date: Sat Feb 29 13:17:25 EST 2020
User: sa697716
Spectrometer: FLMS03696
Trigger mode: 0
Integration Time (sec): 3.180400E-1
Scans to average: 20
Electric dark correction enabled: true
Nonlinearity correction enabled: true
Boxcar width: 5
XAxis mode: Wavelengths
Number of Pixels in Spectrum: 2048
>>>>>Begin Spectral Data<<<<<
187.83	117.36
188.298	115.33
188.766	97.08
189.233	94.94
189.701	107.25
190.169	101.8
190.636	99.29
191.104	99.63
191.571	295.63
192.039	312.82
192.506	-83.7
192.974	-1418.83
193.441	322.8
193.908	-6.99
194.375	-73.99
194.842	61.6
195.31	42.99
195.777	-0.52
196.244	29.11
196.711	41.4
197.177	42.34
197.644	41.28
198.111	41.13
198.578	40.43
199.045	40.52
199.511	40.72
199.978	41.16
200.445	40.74
200.911	40.76
201.378	40.9
201.844	40.9
202.31	41.16
202.777	41.2
203.243	41.83
203.709	42.46
204.176	42.04
204.642	41.98
205.108	41.17
205.574	41.69
206.04	41.65
206.506	41.36
206.972	41.08
207.438	40.47
207.903	40.55
208.369	39.78
208.835	39.38
209.301	39.7
209.766	39.37
210.232	39.21
210.697	38.6
211.163	38.52
211.628	38.22
212.094	38.09
212.559	37.83
213.024	37.23
213.49	37.07
213.955	36.86
214.42	36.21
214.885	35.47
215.35	34.98
215.815	34.13
216.28	33.15
216.745	32.3
217.21	31.25
217.675	30.36
218.14	29.39
218.604	28.46
219.069	27.61
219.534	26.97
219.998	26.53
220.463	26.07
220.927	25.68
221.392	25.2
221.856	24.73
222.32	24.32
222.785	23.91
223.249	23.6
223.713	23.33
224.177	22.98
224.642	22.68
225.106	22.33
225.57	22.01
226.034	21.72
226.497	21.46
226.961	21.17
227.425	20.9
227.889	20.64
228.353	20.36
228.816	20.1
229.28	19.82
229.744	19.59
230.207	19.38
230.671	19.15
231.134	18.92
231.597	18.67
232.061	18.47
232.524	18.3
232.987	18.08
233.45	17.88
233.914	17.67
234.377	17.51
234.84	17.31
235.303	17.12
235.766	16.93
236.229	16.75
236.691	16.58
237.154	16.41
237.617	16.24
238.08	16.09
238.542	15.95
239.005	15.8
239.468	15.64
239.93	15.5
240.393	15.36
240.855	15.21
241.317	15.08
241.78	14.98
242.242	14.84
242.704	14.73
243.166	14.62
243.629	14.49
244.091	14.37
244.553	14.26
245.015	14.16
245.477	14.04
245.939	13.93
246.4	13.82
246.862	13.71
247.324	13.63
247.786	13.52
248.247	13.41
248.709	13.33
249.17	13.23
249.632	13.12
250.093	12.99
250.555	12.91
251.016	12.83
251.477	12.74
251.939	12.66
252.4	12.57
252.861	12.49
253.322	12.41
253.783	12.33
254.244	12.25
254.705	12.2
255.166	12.17
255.627	12.1
256.088	12.02
256.549	11.95
257.009	11.87
257.47	11.82
257.931	11.74
258.391	11.67
258.852	11.6
259.312	11.54
259.773	11.47
260.233	11.4
260.694	11.34
261.154	11.29
261.614	11.23
262.074	11.18
262.534	11.1
262.994	11.05
263.455	11
263.915	10.95
264.374	10.9
264.834	10.85
265.294	10.79
265.754	10.74
266.214	10.69
266.673	10.65
267.133	10.59
267.593	10.56
268.052	10.52
268.512	10.47
268.971	10.43
269.431	10.39
269.89	10.35
270.349	10.32
270.809	10.28
271.268	10.25
271.727	10.21
272.186	10.17
272.645	10.13
273.104	10.1
273.563	10.07
274.022	10.03
274.481	9.99
274.94	9.95
275.399	9.91
275.857	9.88
276.316	9.83
276.775	9.79
277.233	9.76
277.692	9.72
278.15	9.68
278.609	9.63
279.067	9.59
279.525	9.55
279.984	9.52
280.442	9.47
280.9	9.44
281.358	9.4
281.816	9.36
282.274	9.32
282.732	9.29
283.19	9.25
283.648	9.22
284.106	9.19
284.564	9.17
285.021	9.14
285.479	9.12
285.937	9.09
286.394	9.07
286.852	9.04
287.309	9.02
287.767	9
288.224	8.98
288.682	8.95
289.139	8.93
289.596	8.89
290.053	8.85
290.511	8.8
290.968	8.77
291.425	8.73
291.882	8.71
292.339	8.67
292.796	8.63
293.252	8.6
293.709	8.57
294.166	8.54
294.623	8.51
295.079	8.49
295.536	8.47
295.992	8.44
296.449	8.41
296.905	8.38
297.362	8.36
297.818	8.35
298.274	8.32
298.731	8.3
299.187	8.27
299.643	8.25
300.099	8.23
300.555	8.2
301.011	8.18
301.467	8.16
301.923	8.15
302.379	8.12
302.835	8.09
303.291	8.07
303.746	8.04
304.202	8.03
304.658	8
305.113	7.98
305.569	7.97
306.024	7.95
306.479	7.93
306.935	7.9
307.39	7.89
307.845	7.87
308.301	7.87
308.756	7.86
309.211	7.85
309.666	7.85
310.121	7.83
310.576	7.82
311.031	7.8
311.486	7.79
311.94	7.78
312.395	7.78
312.85	7.76
313.305	7.74
313.759	7.73
314.214	7.72
314.668	7.71
315.123	7.7
315.577	7.7
316.032	7.69
316.486	7.68
316.94	7.66
317.394	7.65
317.849	7.64
318.303	7.63
318.757	7.61
319.211	7.58
319.665	7.56
320.119	7.54
320.572	7.52
321.026	7.51
321.48	7.49
321.934	7.49
322.387	7.47
322.841	7.46
323.295	7.44
323.748	7.43
324.202	7.42
324.655	7.41
325.108	7.39
325.562	7.37
326.015	7.35
326.468	7.33
326.921	7.3
327.374	7.29
327.827	7.27
328.28	7.26
328.733	7.24
329.186	7.22
329.639	7.21
330.092	7.2
330.545	7.19
330.997	7.19
331.45	7.19
331.903	7.19
332.355	7.18
332.808	7.18
333.26	7.19
333.713	7.2
334.165	7.21
334.617	7.2
335.069	7.19
335.522	7.19
335.974	7.18
336.426	7.17
336.878	7.17
337.33	7.16
337.782	7.16
338.234	7.14
338.686	7.12
339.137	7.11
339.589	7.1
340.041	7.08
340.493	7.07
340.944	7.06
341.396	7.05
341.847	7.01
342.299	6.99
342.75	6.96
343.201	6.93
343.653	6.91
344.104	6.89
344.555	6.89
345.006	6.87
345.457	6.85
345.908	6.83
346.359	6.8
346.81	6.79
347.261	6.78
347.712	6.77
348.163	6.76
348.613	6.75
349.064	6.72
349.515	6.69
349.965	6.69
350.416	6.68
350.866	6.68
351.317	6.67
351.767	6.67
352.217	6.66
352.668	6.66
353.118	6.66
353.568	6.65
354.018	6.67
354.468	6.67
354.918	6.68
355.368	6.67
355.818	6.65
356.268	6.65
356.718	6.64
357.168	6.63
357.617	6.62
358.067	6.61
358.517	6.6
358.966	6.59
359.416	6.59
359.865	6.58
360.315	6.57
360.764	6.56
361.213	6.55
361.663	6.55
362.112	6.56
362.561	6.56
363.01	6.56
363.459	6.55
363.908	6.55
364.357	6.53
364.806	6.53
365.255	6.54
365.703	6.55
366.152	6.54
366.601	6.54
367.05	6.54
367.498	6.53
367.947	6.53
368.395	6.52
368.844	6.52
369.292	6.53
369.74	6.53
370.189	6.51
370.637	6.51
371.085	6.52
371.533	6.52
371.981	6.51
372.429	6.5
372.877	6.49
373.325	6.5
373.773	6.5
374.221	6.48
374.669	6.48
375.116	6.47
375.564	6.46
376.012	6.44
376.459	6.44
376.907	6.45
377.354	6.46
377.801	6.47
378.249	6.47
378.696	6.49
379.143	6.51
379.591	6.53
380.038	6.55
380.485	6.56
380.932	6.57
381.379	6.57
381.826	6.58
382.273	6.6
382.72	6.6
383.166	6.61
383.613	6.61
384.06	6.61
384.506	6.61
384.953	6.61
385.4	6.62
385.846	6.62
386.292	6.64
386.739	6.65
387.185	6.66
387.631	6.67
388.078	6.68
388.524	6.67
388.97	6.68
389.416	6.67
389.862	6.68
390.308	6.69
390.754	6.7
391.2	6.72
391.645	6.73
392.091	6.74
392.537	6.74
392.983	6.75
393.428	6.78
393.874	6.8
394.319	6.82
394.765	6.83
395.21	6.84
395.655	6.86
396.101	6.86
396.546	6.87
396.991	6.9
397.436	6.9
397.881	6.91
398.326	6.94
398.771	6.96
399.216	6.98
399.661	7.01
400.106	7.02
400.551	7.03
400.995	7.03
401.44	7.04
401.885	7.04
402.329	7.06
402.774	7.05
403.218	7.04
403.663	7.04
404.107	7.05
404.551	7.06
404.995	7.05
405.44	7.05
405.884	7.06
406.328	7.06
406.772	7.06
407.216	7.07
407.66	7.08
408.104	7.09
408.547	7.09
408.991	7.09
409.435	7.08
409.879	7.09
410.322	7.11
410.766	7.12
411.209	7.12
411.653	7.12
412.096	7.1
412.54	7.11
412.983	7.12
413.426	7.14
413.869	7.16
414.312	7.19
414.756	7.22
415.199	7.22
415.642	7.23
416.085	7.24
416.527	7.27
416.97	7.3
417.413	7.3
417.856	7.3
418.298	7.28
418.741	7.27
419.184	7.26
419.626	7.24
420.069	7.23
420.511	7.23
420.953	7.21
421.396	7.2
421.838	7.21
422.28	7.22
422.722	7.23
423.164	7.24
423.606	7.25
424.048	7.24
424.49	7.24
424.932	7.24
425.374	7.24
425.816	7.25
426.258	7.23
426.699	7.2
427.141	7.18
427.582	7.17
428.024	7.17
428.465	7.16
428.907	7.18
429.348	7.2
429.789	7.21
430.231	7.21
430.672	7.21
431.113	7.24
431.554	7.27
431.995	7.29
432.436	7.3
432.877	7.3
433.318	7.29
433.759	7.28
434.2	7.27
434.64	7.28
435.081	7.29
435.522	7.31
435.962	7.32
436.403	7.34
436.843	7.35
437.284	7.37
437.724	7.38
438.164	7.41
438.604	7.42
439.045	7.43
439.485	7.44
439.925	7.42
440.365	7.42
440.805	7.41
441.245	7.4
441.685	7.4
442.125	7.42
442.564	7.44
443.004	7.47
443.444	7.49
443.883	7.5
444.323	7.5
444.762	7.57
445.202	7.59
445.641	7.61
446.081	7.64
446.52	7.66
446.959	7.67
447.398	7.68
447.837	7.69
448.276	7.69
448.716	7.71
449.154	7.75
449.593	7.75
450.032	7.76
450.471	7.76
450.91	7.75
451.349	7.76
451.787	7.78
452.226	7.78
452.664	7.77
453.103	7.77
453.541	7.77
453.98	7.75
454.418	7.73
454.856	7.71
455.295	7.7
455.733	7.69
456.171	7.68
456.609	7.67
457.047	7.65
457.485	7.65
457.923	7.65
458.361	7.65
458.798	7.65
459.236	7.65
459.674	7.66
460.111	7.7
460.549	7.69
460.987	7.69
461.424	7.69
461.862	7.7
462.299	7.7
462.736	7.71
463.173	7.7
463.611	7.7
464.048	7.69
464.485	7.68
464.922	7.64
465.359	7.66
465.796	7.63
466.233	7.63
466.67	7.63
467.106	7.64
467.543	7.61
467.98	7.61
468.416	7.62
468.853	7.64
469.29	7.66
469.726	7.69
470.162	7.69
470.599	7.7
471.035	7.7
471.471	7.67
471.907	7.67
472.344	7.67
472.78	7.67
473.216	7.66
473.652	7.64
474.088	7.62
474.523	7.62
474.959	7.59
475.395	7.58
475.831	7.59
476.266	7.6
476.702	7.57
477.138	7.56
477.573	7.54
478.008	7.54
478.444	7.53
478.879	7.53
479.314	7.51
479.75	7.51
480.185	7.51
480.62	7.5
481.055	7.5
481.49	7.49
481.925	7.49
482.36	7.48
482.795	7.47
483.229	7.46
483.664	7.46
484.099	7.45
484.534	7.45
484.968	7.44
485.403	7.44
485.837	7.44
486.271	7.45
486.706	7.44
487.14	7.44
487.574	7.45
488.009	7.47
488.443	7.47
488.877	7.48
489.311	7.49
489.745	7.51
490.179	7.51
490.613	7.53
491.046	7.55
491.48	7.58
491.914	7.61
492.348	7.63
492.781	7.65
493.215	7.66
493.648	7.69
494.082	7.73
494.515	7.76
494.948	7.8
495.382	7.82
495.815	7.87
496.248	7.91
496.681	7.94
497.114	7.99
497.547	8.06
497.98	8.11
498.413	8.19
498.846	8.25
499.279	8.31
499.711	8.38
500.144	8.47
500.577	8.54
501.009	8.63
501.442	8.72
501.874	8.81
502.306	8.9
502.739	8.99
503.171	9.1
503.603	9.22
504.036	9.35
504.468	9.49
504.9	9.63
505.332	9.78
505.764	9.93
506.196	10.1
506.627	10.27
507.059	10.43
507.491	10.63
507.923	10.81
508.354	11.01
508.786	11.21
509.217	11.4
509.649	11.62
510.08	11.86
510.512	12.07
510.943	12.32
511.374	12.56
511.805	12.82
512.237	13.09
512.668	13.36
513.099	13.64
513.53	13.92
513.961	14.22
514.391	14.52
514.822	14.8
515.253	15.1
515.684	15.42
516.114	15.74
516.545	16.07
516.975	16.38
517.406	16.7
517.836	17
518.267	17.33
518.697	17.66
519.127	18
519.558	18.33
519.988	18.67
520.418	18.98
520.848	19.28
521.278	19.6
521.708	19.88
522.138	20.18
522.567	20.51
522.997	20.8
523.427	21.09
523.857	21.36
524.286	21.64
524.716	21.9
525.145	22.18
525.575	22.44
526.004	22.7
526.433	22.98
526.863	23.24
527.292	23.48
527.721	23.68
528.15	23.89
528.579	24.1
529.008	24.31
529.437	24.51
529.866	24.68
530.295	24.86
530.724	25.02
531.152	25.16
531.581	25.31
532.01	25.42
532.438	25.58
532.867	25.71
533.295	25.84
533.723	25.95
534.152	26.06
534.58	26.13
535.008	26.21
535.436	26.29
535.865	26.38
536.293	26.45
536.721	26.53
537.149	26.57
537.576	26.63
538.004	26.68
538.432	26.72
538.86	26.76
539.287	26.84
539.715	26.89
540.143	26.94
540.57	26.97
540.998	27.02
541.425	27.06
541.852	27.11
542.28	27.14
542.707	27.17
543.134	27.21
543.561	27.23
543.988	27.25
544.415	27.29
544.842	27.33
545.269	27.38
545.696	27.39
546.123	27.4
546.549	27.45
546.976	27.47
547.403	27.49
547.829	27.52
548.256	27.55
548.682	27.56
549.108	27.56
549.535	27.57
549.961	27.56
550.387	27.55
550.813	27.56
551.24	27.55
551.666	27.56
552.092	27.53
552.518	27.5
552.943	27.5
553.369	27.47
553.795	27.44
554.221	27.4
554.646	27.34
555.072	27.29
555.498	27.25
555.923	27.17
556.349	27.07
556.774	27.02
557.199	26.95
557.625	26.83
558.05	26.72
558.475	26.61
558.9	26.5
559.325	26.4
559.75	26.29
560.175	26.16
560.6	26.03
561.025	25.92
561.449	25.77
561.874	25.62
562.299	25.49
562.723	25.35
563.148	25.21
563.572	25.05
563.997	24.86
564.421	24.69
564.846	24.51
565.27	24.33
565.694	24.14
566.118	23.94
566.542	23.75
566.966	23.57
567.39	23.36
567.814	23.16
568.238	22.95
568.662	22.76
569.086	22.57
569.509	22.38
569.933	22.18
570.357	21.98
570.78	21.81
571.204	21.61
571.627	21.42
572.05	21.25
572.474	21.09
572.897	20.93
573.32	20.76
573.743	20.59
574.166	20.44
574.589	20.29
575.012	20.14
575.435	19.99
575.858	19.85
576.281	19.7
576.704	19.56
577.126	19.41
577.549	19.29
577.972	19.17
578.394	19.05
578.817	18.91
579.239	18.81
579.661	18.69
580.084	18.58
580.506	18.47
580.928	18.38
581.35	18.29
581.772	18.2
582.194	18.1
582.616	18.01
583.038	17.93
583.46	17.85
583.882	17.76
584.303	17.69
584.725	17.61
585.147	17.51
585.568	17.44
585.99	17.37
586.411	17.31
586.833	17.24
587.254	17.18
587.675	17.1
588.096	17.03
588.518	16.96
588.939	16.9
589.36	16.85
589.781	16.82
590.202	16.77
590.623	16.71
591.043	16.65
591.464	16.6
591.885	16.54
592.305	16.5
592.726	16.45
593.147	16.44
593.567	16.38
593.987	16.35
594.408	16.3
594.828	16.27
595.248	16.23
595.669	16.19
596.089	16.15
596.509	16.12
596.929	16.09
597.349	16.06
597.769	16
598.189	15.96
598.608	15.91
599.028	15.86
599.448	15.83
599.867	15.79
600.287	15.74
600.706	15.69
601.126	15.63
601.545	15.57
601.965	15.51
602.384	15.46
602.803	15.4
603.222	15.34
603.641	15.28
604.061	15.2
604.48	15.13
604.898	15.06
605.317	14.99
605.736	14.92
606.155	14.85
606.574	14.77
606.992	14.69
607.411	14.62
607.829	14.5
608.248	14.42
608.666	14.36
609.085	14.29
609.503	14.21
609.921	14.12
610.339	14.06
610.758	13.99
611.176	13.9
611.594	13.82
612.012	13.74
612.43	13.71
612.847	13.63
613.265	13.56
613.683	13.47
614.101	13.4
614.518	13.33
614.936	13.24
615.353	13.17
615.771	13.1
616.188	13.03
616.606	12.96
617.023	12.89
617.44	12.82
617.857	12.75
618.274	12.71
618.691	12.66
619.108	12.62
619.525	12.57
619.942	12.52
620.359	12.48
620.776	12.45
621.192	12.43
621.609	12.4
622.026	12.38
622.442	12.35
622.859	12.34
623.275	12.33
623.691	12.31
624.108	12.3
624.524	12.29
624.94	12.28
625.356	12.26
625.772	12.24
626.188	12.23
626.604	12.2
627.02	12.17
627.436	12.14
627.852	12.13
628.268	12.11
628.683	12.08
629.099	12.07
629.514	12.05
629.93	12.03
630.345	12.01
630.761	11.97
631.176	11.96
631.591	11.94
632.007	11.89
632.422	11.84
632.837	11.79
633.252	11.72
633.667	11.66
634.082	11.6
634.497	11.52
634.911	11.43
635.326	11.34
635.741	11.24
636.155	11.17
636.57	11.08
636.984	10.96
637.399	10.86
637.813	10.77
638.228	10.66
638.642	10.56
639.056	10.46
639.47	10.35
639.884	10.25
640.298	10.17
640.712	10.04
641.126	9.95
641.54	9.86
641.954	9.79
642.368	9.69
642.781	9.59
643.195	9.48
643.609	9.4
644.022	9.32
644.436	9.24
644.849	9.17
645.262	9.11
645.676	9.04
646.089	8.97
646.502	8.89
646.915	8.83
647.328	8.79
647.741	8.73
648.154	8.67
648.567	8.63
648.98	8.6
649.393	8.56
649.805	8.52
650.218	8.48
650.631	8.46
651.043	8.44
651.456	8.43
651.868	8.4
652.28	8.4
652.693	8.36
653.105	8.34
653.517	8.31
653.929	8.27
654.341	8.25
654.753	8.21
655.165	8.18
655.577	8.12
655.989	8.07
656.401	8.03
656.813	7.96
657.224	7.92
657.636	7.87
658.047	7.8
658.459	7.75
658.87	7.69
659.282	7.65
659.693	7.6
660.104	7.55
660.515	7.5
660.926	7.46
661.338	7.42
661.749	7.38
662.159	7.34
662.57	7.31
662.981	7.29
663.392	7.25
663.803	7.21
664.213	7.19
664.624	7.17
665.035	7.14
665.445	7.12
665.855	7.12
666.266	7.11
666.676	7.11
667.086	7.11
667.497	7.08
667.907	7.07
668.317	7.06
668.727	7.07
669.137	7.08
669.547	7.11
669.956	7.1
670.366	7.12
670.776	7.13
671.186	7.13
671.595	7.16
672.005	7.19
672.414	7.22
672.824	7.26
673.233	7.28
673.642	7.28
674.052	7.3
674.461	7.33
674.87	7.35
675.279	7.37
675.688	7.39
676.097	7.42
676.506	7.45
676.915	7.5
677.323	7.53
677.732	7.58
678.141	7.62
678.549	7.67
678.958	7.72
679.366	7.75
679.775	7.81
680.183	7.85
680.592	7.9
681	7.96
681.408	7.99
681.816	8.05
682.224	8.11
682.632	8.2
683.04	8.27
683.448	8.35
683.856	8.47
684.264	8.58
684.671	8.71
685.079	8.83
685.487	8.99
685.894	9.18
686.302	9.37
686.709	9.58
687.116	9.81
687.524	10.08
687.931	10.36
688.338	10.68
688.745	11.02
689.152	11.39
689.559	11.81
689.966	12.23
690.373	12.7
690.78	13.19
691.187	13.71
691.593	14.23
692	14.8
692.407	15.39
692.813	15.99
693.22	16.6
693.626	17.24
694.032	17.87
694.439	18.57
694.845	19.24
695.251	19.94
695.657	20.62
696.063	21.35
696.469	22.06
696.875	22.77
697.281	23.5
697.687	24.25
698.093	24.98
698.498	25.72
698.904	26.43
699.31	27.12
699.715	27.83
700.12	28.52
700.526	29.23
700.931	29.92
701.337	30.61
701.742	31.25
702.147	31.9
702.552	32.57
702.957	33.2
703.362	33.85
703.767	34.5
704.172	35.15
704.577	35.8
704.981	36.41
705.386	37.01
705.791	37.61
706.195	38.21
706.6	38.79
707.004	39.37
707.408	39.98
707.813	40.54
708.217	41.12
708.621	41.67
709.025	42.22
709.43	42.75
709.834	43.31
710.237	43.85
710.641	44.39
711.045	44.93
711.449	45.43
711.853	45.92
712.256	46.42
712.66	46.9
713.064	47.36
713.467	47.82
713.87	48.28
714.274	48.77
714.677	49.21
715.08	49.64
715.484	50.07
715.887	50.51
716.29	50.92
716.693	51.33
717.096	51.75
717.499	52.17
717.901	52.55
718.304	52.96
718.707	53.31
719.109	53.69
719.512	54.08
719.915	54.45
720.317	54.8
720.719	55.14
721.122	55.48
721.524	55.8
721.926	56.13
722.328	56.47
722.731	56.77
723.133	57.06
723.535	57.4
723.937	57.68
724.338	57.93
724.74	58.17
725.142	58.33
725.544	58.58
725.945	58.82
726.347	59.09
726.748	59.27
727.15	59.48
727.551	59.69
727.952	59.87
728.354	60.06
728.755	60.3
729.156	60.53
729.557	60.84
729.958	61.02
730.359	61.23
730.76	61.36
731.161	61.56
731.562	61.77
731.962	61.9
732.363	62.04
732.763	62.22
733.164	62.32
733.564	62.44
733.965	62.52
734.365	62.63
734.766	62.71
735.166	62.79
735.566	62.85
735.966	62.9
736.366	62.98
736.766	63.06
737.166	63.11
737.566	63.2
737.966	63.27
738.365	63.36
738.765	63.44
739.165	63.48
739.564	63.56
739.964	63.67
740.363	63.73
740.763	63.78
741.162	63.82
741.561	63.88
741.96	63.97
742.36	64.03
742.759	64.08
743.158	64.11
743.557	64.2
743.955	64.27
744.354	64.27
744.753	64.34
745.152	64.4
745.55	64.45
745.949	64.48
746.348	64.48
746.746	64.53
747.144	64.59
747.543	64.66
747.941	64.72
748.339	64.81
748.737	64.88
749.136	64.93
749.534	64.97
749.932	65
750.33	65.04
750.727	65.07
751.125	65.09
751.523	65.08
751.921	65.09
752.318	65.09
752.716	65.03
753.113	65.04
753.511	64.99
753.908	65.01
754.305	65
754.703	64.97
755.1	64.95
755.497	64.96
755.894	64.97
756.291	64.97
756.688	64.91
757.085	64.91
757.482	64.92
757.878	64.99
758.275	64.99
758.672	65.01
759.068	65.04
759.465	65.05
759.861	65.01
760.258	64.98
760.654	64.98
761.05	65.01
761.447	65
761.843	64.96
762.239	64.92
762.635	64.88
763.031	64.87
763.427	64.87
763.822	64.83
764.218	64.82
764.614	64.83
765.01	64.81
765.405	64.84
765.801	64.84
766.196	64.84
766.592	64.84
766.987	64.82
767.382	64.81
767.778	64.82
768.173	64.84
768.568	64.84
768.963	64.84
769.358	64.82
769.753	64.83
770.148	64.82
770.542	64.82
770.937	64.8
771.332	64.81
771.726	64.81
772.121	64.72
772.515	64.72
772.91	64.7
773.304	64.68
773.699	64.68
774.093	64.61
774.487	64.62
774.881	64.67
775.275	64.68
775.669	64.68
776.063	64.68
776.457	64.67
776.851	64.65
777.245	64.67
777.638	64.71
778.032	64.74
778.425	64.79
778.819	64.77
779.212	64.7
779.606	64.69
779.999	64.69
780.392	64.68
780.786	64.73
781.179	64.78
781.572	64.78
781.965	64.72
782.358	64.69
782.751	64.67
783.143	64.69
783.536	64.72
783.929	64.74
784.322	64.74
784.714	64.73
785.107	64.76
785.499	64.77
785.891	64.77
786.284	64.79
786.676	64.82
787.068	64.81
787.46	64.82
787.852	64.81
788.245	64.81
788.636	64.84
789.028	64.84
789.42	64.79
789.812	64.79
790.204	64.79
790.595	64.79
790.987	64.82
791.378	64.83
791.77	64.85
792.161	64.88
792.553	64.86
792.944	64.88
793.335	64.88
793.726	64.85
794.117	64.83
794.508	64.83
794.899	64.85
795.29	64.84
795.681	64.84
796.072	64.84
796.463	64.77
796.853	64.8
797.244	64.77
797.634	64.81
798.025	64.85
798.415	64.87
798.806	64.88
799.196	64.87
799.586	64.85
799.976	64.85
800.366	64.84
800.756	64.88
801.146	64.89
801.536	64.9
801.926	64.88
802.316	64.91
802.706	64.96
803.095	64.97
803.485	65.01
803.874	65.02
804.264	65.06
804.653	65.02
805.043	65
805.432	64.95
805.821	64.93
806.21	64.97
806.599	64.96
806.988	64.88
807.377	64.92
807.766	64.91
808.155	64.94
808.544	64.89
808.933	64.92
809.321	64.96
809.71	65
810.098	65.05
810.487	65.05
810.875	65.02
811.264	65.06
811.652	65.01
812.04	65.01
812.428	65.03
812.816	65.05
813.204	65.03
813.592	65
813.98	64.96
814.368	64.92
814.756	64.86
815.144	64.89
815.531	64.88
815.919	64.91
816.306	64.88
816.694	64.85
817.081	64.83
817.469	64.84
817.856	64.92
818.243	64.95
818.63	64.98
819.017	65.02
819.404	65
819.791	65.02
820.178	65.02
820.565	65.06
820.952	65.04
821.339	65.05
821.725	65.08
822.112	65.02
822.498	65.07
822.885	65.07
823.271	65.09
823.657	65.11
824.044	65.1
824.43	65.14
824.816	65.14
825.202	65.16
825.588	65.16
825.974	65.14
826.36	65.14
826.746	65.14
827.132	65.12
827.517	65.12
827.903	65.12
828.289	65.12
828.674	65.09
829.06	65.14
829.445	65.18
829.83	65.23
830.216	65.26
830.601	65.27
830.986	65.28
831.371	65.3
831.756	65.25
832.141	65.26
832.526	65.27
832.911	65.31
833.295	65.32
833.68	65.33
834.065	65.3
834.449	65.28
834.834	65.27
835.218	65.23
835.603	65.24
835.987	65.29
836.371	65.28
836.755	65.3
837.139	65.26
837.524	65.18
837.908	65.15
838.291	65.15
838.675	65.17
839.059	65.18
839.443	65.2
839.827	65.2
840.21	65.19
840.594	65.21
840.977	65.19
841.361	65.21
841.744	65.24
842.127	65.24
842.511	65.24
842.894	65.23
843.277	65.23
843.66	65.23
844.043	65.22
844.426	65.2
844.809	65.16
845.191	65.13
845.574	65.11
845.957	65.1
846.339	65.09
846.722	65.13
847.104	65.1
847.487	65.11
847.869	65.1
848.252	65.09
848.634	65.1
849.016	65.15
849.398	65.2
849.78	65.2
850.162	65.2
850.544	65.22
850.926	65.17
851.307	65.21
851.689	65.2
852.071	65.22
852.452	65.25
852.834	65.24
853.215	65.22
853.597	65.22
853.978	65.21
854.359	65.22
854.741	65.21
855.122	65.23
855.503	65.24
855.884	65.22
856.265	65.21
856.646	65.21
857.026	65.22
857.407	65.19
857.788	65.21
858.169	65.21
858.549	65.23
858.93	65.21
859.31	65.21
859.69	65.18
860.071	65.22
860.451	65.22
860.831	65.2
861.211	65.19
861.591	65.22
861.971	65.19
862.351	65.22
862.731	65.23
863.111	65.25
863.491	65.24
863.87	65.23
864.25	65.23
864.629	65.24
865.009	65.25
865.388	65.23
865.768	65.24
866.147	65.25
866.526	65.21
866.905	65.19
867.284	65.19
867.663	65.21
868.042	65.17
868.421	65.16
868.8	65.13
869.179	65.12
869.558	65.12
869.936	65.12
870.315	65.11
870.693	65.13
871.072	65.14
871.45	65.13
871.828	65.12
872.207	65.21
872.585	65.21
872.963	65.21
873.341	65.22
873.719	65.24
874.097	65.22
874.475	65.24
874.853	65.24
875.23	65.24
875.608	65.25
875.986	65.25
876.363	65.23
876.741	65.22
877.118	65.23
877.495	65.24
877.873	65.22
878.25	65.23
878.627	65.23
879.004	65.22
879.381	65.21
879.758	65.19
880.135	65.19
880.512	65.16
880.889	65.16
881.265	65.17
881.642	65.19
882.019	65.19
882.395	65.19
882.772	65.18
883.148	65.17
883.524	65.17
883.901	65.17
884.277	65.13
884.653	65.16
885.029	65.17
885.405	65.14
885.781	65.09
886.157	65.09
886.532	65.1
886.908	65.14
887.284	65.16
887.659	65.17
888.035	65.18
888.411	65.19
888.786	65.18
889.161	65.2
889.537	65.23
889.912	65.25
890.287	65.25
890.662	65.22
891.037	65.18
891.412	65.15
891.787	65.14
892.162	65.1
892.536	65.1
892.911	65.1
893.286	65.09
893.66	65.05
894.035	65.04
894.409	65.04
894.784	65.06
895.158	65.04
895.532	65.03
895.906	65.02
896.281	65
896.655	64.98
897.029	64.95
897.402	64.93
897.776	64.94
898.15	64.92
898.524	64.88
898.898	64.84
899.271	64.88
899.645	64.87
900.018	64.85
900.392	64.87
900.765	64.88
901.138	64.89
901.511	64.86
901.884	64.87
902.258	64.84
902.631	64.87
903.003	64.88
903.376	64.85
903.749	64.83
904.122	64.85
904.495	64.84
904.867	64.81
905.24	64.81
905.612	64.81
905.985	64.77
906.357	64.75
906.729	64.71
907.102	64.72
907.474	64.73
907.846	64.71
908.218	64.69
908.59	64.66
908.962	64.66
909.334	64.6
909.705	64.6
910.077	64.6
910.449	64.63
910.82	64.64
911.192	64.61
911.563	64.55
911.935	64.57
912.306	64.57
912.677	64.59
913.048	64.6
913.419	64.6
913.79	64.58
914.161	64.55
914.532	64.51
914.903	64.48
915.274	64.43
915.645	64.46
916.015	64.44
916.386	64.4
916.756	64.32
917.127	64.3
917.497	64.28
917.868	64.25
918.238	64.26
918.608	64.25
918.978	64.24
919.348	64.23
919.718	64.23
920.088	64.21
920.458	64.26
920.828	64.3
921.198	64.3
921.567	64.3
921.937	64.32
922.306	64.25
922.676	64.25
923.045	64.23
923.415	64.25
923.784	64.25
924.153	64.26
924.522	64.21
924.891	64.19
925.26	64.19
925.629	64.22
925.998	64.21
926.367	64.22
926.736	64.18
927.104	64.17
927.473	64.2
927.842	64.14
928.21	64.15
928.578	64.13
928.947	64.08
929.315	64.05
929.683	64.04
930.051	64
930.42	63.98
930.788	63.99
931.156	63.95
931.523	63.87
931.891	63.83
932.259	63.73
932.627	63.64
932.994	63.62
933.362	63.53
933.729	63.37
934.097	63.31
934.464	63.26
934.831	63.15
935.199	63.09
935.566	62.96
935.933	62.97
936.3	62.91
936.667	62.83
937.034	62.74
937.401	62.74
937.767	62.7
938.134	62.67
938.501	62.61
938.867	62.65
939.234	62.69
939.6	62.73
939.967	62.66
940.333	62.72
940.699	62.83
941.065	63
941.431	63.06
941.798	63.25
942.163	63.31
942.529	63.38
942.895	63.39
943.261	63.47
943.627	63.56
943.992	63.65
944.358	63.75
944.723	63.81
945.089	63.83
945.454	63.86
945.82	63.87
946.185	63.93
946.55	64.05
946.915	64.08
947.28	64.11
947.645	64.1
948.01	64.18
948.375	64.13
948.74	64.04
949.104	64.04
949.469	63.93
949.834	63.91
950.198	63.78
950.562	63.73
950.927	63.72
951.291	63.66
951.655	63.69
952.02	63.59
952.384	63.55
952.748	63.55
953.112	63.47
953.476	63.47
953.839	63.4
954.203	63.39
954.567	63.33
954.931	63.35
955.294	63.31
955.658	63.29
956.021	63.24
956.385	63.3
956.748	63.28
957.111	63.24
957.474	63.3
957.837	63.34
958.2	63.24
958.563	63.21
958.926	63.11
959.289	63.09
959.652	63.04
960.015	62.99
960.377	62.94
960.74	62.88
961.102	62.86
961.465	62.78
961.827	62.58
962.189	62.65
962.552	62.56
962.914	62.57
963.276	62.54
963.638	62.43
964	62.42
964.362	62.36
964.724	62.39
965.085	62.35
965.447	62.31
965.809	62.38
966.17	62.36
966.532	62.49
966.893	62.44
967.255	62.38
967.616	62.41
967.977	62.4
968.338	62.42
968.699	62.35
969.061	62.32
969.421	62.32
969.782	62.27
970.143	62.25
970.504	62.07
970.865	62
971.225	61.94
971.586	62.03
971.946	62.02
972.307	61.97
972.667	62.06
973.027	62.15
973.388	62.04
973.748	62.07
974.108	62
974.468	62.02
974.828	62.09
975.188	62.19
975.548	62.12
975.907	62.08
976.267	61.96
976.627	61.92
976.986	61.86
977.346	61.89
977.705	61.93
978.064	62.01
978.424	62.03
978.783	61.99
979.142	61.94
979.501	61.9
979.86	61.83
980.219	61.93
980.578	61.86
980.937	61.9
981.296	61.92
981.654	61.93
982.013	61.93
982.371	61.88
982.73	61.83
983.088	61.77
983.447	61.74
983.805	61.73
984.163	61.71
984.521	61.61
984.879	61.53
985.237	61.59
985.595	61.58
985.953	61.51
986.311	61.64
986.669	61.72
987.026	61.76
987.384	61.81
987.741	61.92
988.099	61.86
988.456	61.92
988.814	61.97
989.171	61.89
989.528	61.8
989.885	61.81
990.242	61.71
990.599	61.65
990.956	61.66
991.313	61.59
991.67	61.6
992.027	61.58
992.383	61.6
992.74	61.53
993.096	61.48
993.453	61.39
993.809	61.38
994.165	61.34
994.522	61.24
994.878	61.19
995.234	61.16
995.59	60.92
995.946	60.97
996.302	60.92
996.658	60.88
997.013	60.88
997.369	60.92
997.725	60.99
998.08	61.01
998.436	61.1
998.791	60.98
999.147	60.96
999.502	61.03
999.857	61.11
1000.212	60.98
1000.567	61.08
1000.922	61.06
1001.277	60.99
1001.632	60.83
1001.987	60.77
1002.342	60.8
1002.696	60.97
1003.051	60.8
1003.406	60.8
1003.76	60.72
1004.114	60.99
1004.469	60.81
1004.823	60.8
1005.177	61.11
1005.531	60.99
1005.885	60.98
1006.239	60.91
1006.593	60.74
1006.947	60.77
1007.301	60.79
1007.655	60.75
1008.008	60.52
1008.362	60.4
1008.715	60.38
1009.069	60.05
1009.422	60
1009.776	60.16
1010.129	60.08
1010.482	60.33
1010.835	60.53
1011.188	60.57
1011.541	60.19
1011.894	60.14
1012.247	60.17
1012.6	60.23
1012.952	60.36
1013.305	60.27
1013.657	60.08
1014.01	60.02
1014.362	59.9
1014.715	59.65
1015.067	59.62
1015.419	60.01
1015.771	60.32
1016.123	60.33
1016.475	60.29
1016.827	60.29
1017.179	60.61
1017.531	60.53
1017.883	60.78
1018.234	60.68
1018.586	60.73
1018.938	60.49
1019.289	60.39
1019.64	60.43
1019.992	60.6
1020.343	60.64
1020.694	60.35
1021.045	60.32
1021.396	60.2
1021.747	60.26
1022.098	60.31
1022.449	60.46
1022.8	60.65
1023.151	60.6
1023.501	60.15
1023.852	60.21
1024.202	60.17
1024.553	60.16
1024.903	60.14
1025.253	60.29
1025.604	59.89
1025.954	59.7
1026.304	59.9
1026.654	59.81
1027.004	59.89
1027.354	60.11
1027.703	59.84
1028.053	59.49
1028.403	59.24
1028.753	59.73
1029.102	59.72
1029.452	59.85
1029.801	59.94
1030.15	59.61
1030.499	59.64
897.758	-22.65
901.051	-13.01
904.343	-15.34
907.636	-14.19
910.928	-8.97
914.22	-9.05
917.511	-12.88
920.803	-5.26
924.094	-1.75
927.384	-1.48
930.675	0.97
933.965	2.03
937.255	0.3
940.544	3.76
943.834	4.49
947.123	3.38
950.411	7.41
953.7	10.47
956.988	11.13
960.276	11.88
963.563	14.83
966.851	16.95
970.138	19.07
973.424	20.53
976.711	21.35
979.997	22.76
983.283	21.74
986.568	21.51
989.853	22.7
993.138	23.34
996.423	25.03
999.708	25.62
1002.992	25.1
1006.275	26.3
1009.559	27.62
1012.842	28.54
1016.125	29.7
1019.408	30.07
1022.69	31.02
1025.972	31.76
1029.254	32.38
1032.536	32.93
1035.817	32.23
1039.098	33.52
1042.379	34.21
1045.659	34.52
1048.939	34.71
1052.219	34.24
1055.498	36.36
1058.778	35.87
1062.057	36.07
1065.335	36.5
1068.614	35.35
1071.892	36.53
1075.17	36.3
1078.447	36.82
1081.724	36.78
1085.001	35.37
1088.278	35.76
1091.554	34.81
1094.83	36.16
1098.106	36.42
1101.382	36.84
1104.657	37.63
1107.932	36.94
1111.206	37.24
1114.481	37.17
1117.755	36.49
1121.029	37.69
1124.302	38.6
1127.575	39.09
1130.848	38.51
1134.121	37.91
1137.393	37.73
1140.665	37.41
1143.937	37.32
1147.208	37.33
1150.48	37.08
1153.75	36.86
1157.021	36.98
1160.291	37.45
1163.561	36.22
1166.831	37.09
1170.101	37.39
1173.37	37.09
1176.639	37.14
1179.907	37.48
1183.176	37
1186.444	36.72
1189.711	36.74
1192.979	36.12
1196.246	36.54
1199.513	37.33
1202.78	36.33
1206.046	36.39
1209.312	36.92
1212.578	37.07
1215.843	37.14
1219.108	36.98
1222.373	37.22
1225.638	37.56
1228.902	37.67
1232.166	35.26
1235.43	34.49
1238.693	34.38
1241.956	33.72
1245.219	32.82
1248.482	33.24
1251.744	32.93
1255.006	34.51
1258.268	34.04
1261.529	33.96
1264.79	35.54
1268.051	36
1271.312	37.33
1274.572	38.08
1277.832	39.21
1281.092	39.5
1284.351	39.87
1287.61	39.92
1290.869	38.54
1294.128	39.21
1297.386	39.1
1300.644	38.38
1303.902	37.87
1307.159	37.36
1310.416	36.32
1313.673	35.78
1316.93	35.51
1320.186	34.85
1323.442	34.03
1326.697	33.49
1329.953	31.74
1333.208	30.44
1336.463	29.28
1339.717	29.83
1342.972	27.94
1346.226	27.37
1349.479	26.44
1352.733	25.38
1355.986	23.03
1359.238	22.77
1362.491	22.5
1365.743	22.53
1368.995	23.77
1372.247	22.08
1375.498	21.13
1378.749	19.15
1382	18.09
1385.251	14.96
1388.501	15.52
1391.751	15.35
1395	14.05
1398.25	13.75
1401.499	12.84
1404.748	9.75
1407.996	10.53
1411.244	10.74
1414.492	11.02
1417.74	8.82
1420.987	10.89
1424.234	9.14
1427.481	9.2
1430.728	9.57
1433.974	9.28
1437.22	9.29
1440.465	9.49
1443.711	9.24
1446.956	9.55
1450.201	10.42
1453.445	11.72
1456.689	12.5
1459.933	13.04
1463.177	12.53
1466.42	13.17
1469.663	13.32
1472.906	13.76
1476.148	14.17
1479.391	14.81
1482.633	14.9
1485.874	15.74
1489.115	16.52
1492.356	16.11
1495.597	16.04
1498.838	17.83
1502.078	18.14
1505.318	18.47
1508.557	18.53
1511.797	19.44
1515.036	20.45
1518.274	20.47
1521.513	20.38
1524.751	20.8
1527.989	22.29
1531.227	22.61
1534.464	23.16
1537.701	23.31
1540.938	23.52
1544.174	24.08
1547.41	24.64
1550.646	25.01
1553.882	25.73
1557.117	26.28
1560.352	26.33
1563.587	26.14
1566.821	26.43
1570.055	26.56
1573.289	27.58
1576.523	27.52
1579.756	27.84
1582.989	28.24
1586.222	27.99
1589.454	28.37
1592.686	28.98
1595.918	29.11
1599.15	29.72
1602.381	29.55
1605.612	30.21
1608.843	29.46
1612.073	30.52
1615.303	31.09
1618.533	30.26
1621.762	30.78
1624.992	30.25
1628.221	29.97
1631.449	30.81
1634.678	30.75
1637.906	31.46
1641.134	31.03
1644.361	31.45
1647.588	31.31
1650.815	31.29
1654.042	32.1
1657.269	31.65
1660.495	32.42
1663.72	32.51
1666.946	31.82
1670.171	31.88
1673.396	31.61
1676.621	31.47
1679.845	31.95
1683.069	31.22
1686.293	30.79
1689.517	30.83
1692.74	30.93
1695.963	30.88
1699.185	30.41
1702.408	30.46
1705.63	30.18
1708.852	30.55
1712.073	29.79
1715.294	29.11
1718.515	29.76
1721.736	29.93
1724.956	29.08
1728.176	28.93
1731.396	28.33
1734.616	28.96
1737.835	28.7
1741.054	28.04
1744.272	28
1747.491	28.58
1750.709	28.24
1753.927	27.78
1757.144	27.44
1760.361	27.67
1763.578	27.29
1766.795	27.4
1770.011	27.24
1773.227	27.04
1776.443	27.31
1779.658	26.42
1782.874	25.94
1786.089	25.65
1789.303	25.6
1792.518	25.59
1795.732	25.31
1798.945	25.83
1802.159	25.51
1805.372	24.9
1808.585	25.18
1811.797	25.5
1815.01	24.8
1818.222	25.26
1821.434	24.89
1824.645	24.17
1827.856	23.71
1831.067	23.61
1834.278	23.28
1837.488	23.68
1840.698	22.9
1843.908	22.12
1847.117	21.81
1850.326	21.52
1853.535	21.43
1856.744	20.84
1859.952	20.65
1863.16	19.8
1866.368	18.99
1869.575	17.97
1872.782	15.97
1875.989	13.58
1879.196	13.63
1882.402	10.48
1885.608	10.92
1888.814	8.25
1892.019	6.7
1895.224	5.09
1898.429	4.5
1901.634	3.48
1904.838	1.76
1908.042	1.28
1911.246	2.1
1914.449	1.04
1917.652	1.76
1920.855	0.13
1924.058	0.01
1927.26	-0.43
1930.462	0.09
1933.664	0.68
1936.865	0.16
1940.066	0.09
1943.267	-0.04
1946.467	-0.58
1949.668	-1.04
1952.868	-0.81
1956.067	-0.31
1959.267	0.85
1962.466	0.85
1965.665	0.65
1968.863	1.27
1972.061	0.19
1975.259	0.91
1978.457	1.05
1981.654	1.79
1984.852	1.82
1988.048	2.05
1991.245	2.66
1994.441	2.14
1997.637	2.04
2000.833	3.2
2004.028	1.28
2007.223	2.79
2010.418	3.13
2013.613	3.24
2016.807	3.42
2020.001	2.9
2023.194	4.97
2026.388	4.22
2029.581	3.02
2032.774	2.77
2035.966	1.62
2039.158	3.23
2042.35	1.35
2045.542	1.68
2048.733	0.97
2051.924	-1.04
2055.115	-1.09
2058.306	-3.48
2061.496	-5.68
2064.686	-5.55
2067.875	-3.35
2071.065	-2.25
2074.254	-3.05
2077.442	-2.65
2080.631	-3.67
2083.819	-3.58
2087.007	-2.45
2090.195	-2.03
2093.382	-3.85
2096.569	-2.3
2099.756	-1.12
2102.942	-2.9
2106.128	-4.38
2109.314	-1.59
2112.5	-0.67
2115.685	-2.56
2118.87	-2.49
2122.055	-2.31
2125.239	-4.05
2128.424	-2.43
2131.608	-3.9
2134.791	-3.94
2137.974	-2.8
2141.157	-2.07
2144.34	-5.24
2147.523	-3.18
2150.705	-2.25
2153.887	-2.57
2157.068	-1.68
2160.25	-3.37
2163.431	-0.59
2166.611	-0.28
2169.792	0.21
2172.972	0.28
2176.152	0.14
2179.331	-1.01
2182.511	-4.18
2185.69	-2.95
2188.868	-6.57
2192.047	-6.66
2195.225	-2.69
2198.403	-11.49
2201.58	-9.28
2204.758	-9.93
2207.935	-11.19
2211.111	-15.52
2214.288	-14.42
2217.464	-12.44
2220.64	-11.4
2223.815	-10.21
2226.991	-10.76
2230.166	-11.07
2233.34	-8.26
2236.515	-12.08
2239.689	-11.89
2242.863	-12.4
2246.036	-10.5
2249.209	-12.81
2252.382	-13.18
2255.555	-17.71
2258.727	-16.25
2261.9	-19.93
2265.071	-20.32
2268.243	-14.17
2271.414	-18.12
2274.585	-18.9
2277.756	-19.65
2280.926	-22.27
2284.096	-18.94
2287.266	-18.8
2290.436	-17.37
2293.605	-17.13
2296.774	-14.27
2299.942	-18.93
2303.111	-20.01
2306.279	-16.91
2309.447	-18.05
2312.614	-18.74
2315.781	-21.37
2318.948	-21.28
2322.115	-22.15
2325.281	-31.04
2328.447	-32.76
2331.613	-32.55
2334.779	-31.19
2337.944	-42.66
2341.109	-41.53
2344.274	-39.07
2347.438	-44.32
2350.602	-40.89
2353.766	-53.73
2356.929	-55.65
2360.092	-47.38
2363.255	-46.37
2366.418	-50.33
2369.58	-55.66
2372.742	-37.85
2375.904	-39.76
2379.066	-42.77
2382.227	-38.99
2385.388	-46.33
2388.548	-34.89
2391.709	-30.96
2394.869	-36.79
2398.029	-34.88
2401.188	-34.69
2404.347	-32.94
2407.506	-47.48
2410.665	-40.27
2413.823	-44.16
2416.981	-43.75
2420.139	-34.86
2423.296	-39.47
2426.453	-53.13
2429.61	-43.26
2432.767	-49.08
2435.923	-49.26
2439.079	-45.95
2442.235	-49.62
2445.391	-50.25
2448.546	-41.48
2451.701	-53.84
2454.855	-59.98
2458.009	-47.48
2461.163	-44.93
2464.317	-50.73
2467.471	-50.23
2470.624	-54.7
2473.777	-51.15
2476.929	-36.31
2480.082	-54.62
2483.234	-65.75
2486.385	-69.69
2489.537	-69.06
2492.688	-79.19
2495.839	-73.24
2498.989	-73.85
2502.14	-76.84
2505.29	-69.54
2508.439	-83.14
2511.589	-99.76
2514.738	-85.46
2517.887	-83.11
2521.035	-73.35
2524.183	-72.57
2527.331	-73.83
2530.479	-72.34
2533.627	-76.92
