Data from c_1_div_wi_4n_031_Splice17_03.txt Node
Date: Sat Feb 29 13:23:18 EST 2020
User: sa697716
Spectrometer: FLMS03696
Trigger mode: 0
Integration Time (sec): 3.180400E-1
Scans to average: 20
Electric dark correction enabled: true
Nonlinearity correction enabled: true
Boxcar width: 5
XAxis mode: Wavelengths
Number of Pixels in Spectrum: 2048
>>>>>Begin Spectral Data<<<<<
187.83	76.43
188.298	58
188.766	43.62
189.233	46.06
189.701	69.94
190.169	71.12
190.636	73.37
191.104	89.88
191.571	363.98
192.039	272.16
192.506	14.29
192.974	4932.03
193.441	-163
193.908	-23.99
194.375	-46.8
194.842	103.76
195.31	55.4
195.777	48.37
196.244	65.25
196.711	59.3
197.177	58.39
197.644	57.39
198.111	58.06
198.578	57.82
199.045	59.33
199.511	59.35
199.978	59.44
200.445	59.26
200.911	59.55
201.378	59.42
201.844	60.18
202.31	60.29
202.777	60.32
203.243	60.24
203.709	60.26
204.176	59.25
204.642	58.84
205.108	58.87
205.574	59.02
206.04	58.58
206.506	57.85
206.972	57.05
207.438	56.26
207.903	55.91
208.369	54.99
208.835	54.51
209.301	54.3
209.766	53.33
210.232	52.11
210.697	51.29
211.163	50.66
211.628	49.91
212.094	49.26
212.559	48.41
213.024	47.26
213.49	46.37
213.955	45.16
214.42	43.85
214.885	42.42
215.35	41.12
215.815	39.03
216.28	36.82
216.745	34.79
217.21	32.5
217.675	30.41
218.14	28.47
218.604	26.63
219.069	25.18
219.534	23.91
219.998	22.84
220.463	21.88
220.927	21.11
221.392	20.41
221.856	19.73
222.32	19.17
222.785	18.66
223.249	18.24
223.713	17.87
224.177	17.46
224.642	17.17
225.106	16.9
225.57	16.57
226.034	16.28
226.497	16
226.961	15.75
227.425	15.49
227.889	15.24
228.353	15.02
228.816	14.8
229.28	14.6
229.744	14.4
230.207	14.19
230.671	14
231.134	13.83
231.597	13.64
232.061	13.48
232.524	13.33
232.987	13.2
233.45	13.03
233.914	12.89
234.377	12.73
234.84	12.59
235.303	12.45
235.766	12.32
236.229	12.2
236.691	12.1
237.154	11.97
237.617	11.85
238.08	11.73
238.542	11.62
239.005	11.51
239.468	11.39
239.93	11.29
240.393	11.18
240.855	11.07
241.317	10.98
241.78	10.88
242.242	10.78
242.704	10.69
243.166	10.58
243.629	10.49
244.091	10.4
244.553	10.33
245.015	10.25
245.477	10.15
245.939	10.07
246.4	9.96
246.862	9.88
247.324	9.82
247.786	9.74
248.247	9.67
248.709	9.6
249.17	9.53
249.632	9.44
250.093	9.34
250.555	9.26
251.016	9.19
251.477	9.13
251.939	9.04
252.4	8.95
252.861	8.87
253.322	8.79
253.783	8.73
254.244	8.66
254.705	8.6
255.166	8.55
255.627	8.5
256.088	8.43
256.549	8.38
257.009	8.31
257.47	8.26
257.931	8.2
258.391	8.13
258.852	8.05
259.312	8
259.773	7.94
260.233	7.88
260.694	7.81
261.154	7.75
261.614	7.69
262.074	7.65
262.534	7.59
262.994	7.54
263.455	7.49
263.915	7.44
264.374	7.39
264.834	7.34
265.294	7.3
265.754	7.26
266.214	7.22
266.673	7.18
267.133	7.14
267.593	7.1
268.052	7.07
268.512	7.04
268.971	7.02
269.431	6.99
269.89	6.96
270.349	6.93
270.809	6.91
271.268	6.89
271.727	6.85
272.186	6.82
272.645	6.78
273.104	6.75
273.563	6.72
274.022	6.69
274.481	6.66
274.94	6.62
275.399	6.59
275.857	6.56
276.316	6.53
276.775	6.5
277.233	6.47
277.692	6.46
278.15	6.42
278.609	6.39
279.067	6.36
279.525	6.33
279.984	6.31
280.442	6.29
280.9	6.27
281.358	6.24
281.816	6.21
282.274	6.19
282.732	6.18
283.19	6.17
283.648	6.16
284.106	6.14
284.564	6.13
285.021	6.12
285.479	6.11
285.937	6.1
286.394	6.09
286.852	6.08
287.309	6.06
287.767	6.04
288.224	6.02
288.682	5.99
289.139	5.97
289.596	5.93
290.053	5.9
290.511	5.86
290.968	5.83
291.425	5.8
291.882	5.77
292.339	5.74
292.796	5.71
293.252	5.68
293.709	5.66
294.166	5.63
294.623	5.61
295.079	5.59
295.536	5.57
295.992	5.55
296.449	5.54
296.905	5.52
297.362	5.49
297.818	5.48
298.274	5.47
298.731	5.45
299.187	5.44
299.643	5.42
300.099	5.41
300.555	5.39
301.011	5.37
301.467	5.36
301.923	5.34
302.379	5.34
302.835	5.33
303.291	5.31
303.746	5.29
304.202	5.28
304.658	5.27
305.113	5.26
305.569	5.25
306.024	5.25
306.479	5.24
306.935	5.23
307.39	5.23
307.845	5.22
308.301	5.22
308.756	5.22
309.211	5.22
309.666	5.21
310.121	5.21
310.576	5.2
311.031	5.19
311.486	5.18
311.94	5.17
312.395	5.17
312.85	5.16
313.305	5.15
313.759	5.15
314.214	5.13
314.668	5.13
315.123	5.13
315.577	5.12
316.032	5.11
316.486	5.1
316.94	5.1
317.394	5.08
317.849	5.06
318.303	5.05
318.757	5.03
319.211	5.01
319.665	4.99
320.119	4.97
320.572	4.97
321.026	4.95
321.48	4.94
321.934	4.93
322.387	4.91
322.841	4.9
323.295	4.88
323.748	4.88
324.202	4.87
324.655	4.86
325.108	4.84
325.562	4.83
326.015	4.82
326.468	4.8
326.921	4.78
327.374	4.77
327.827	4.77
328.28	4.77
328.733	4.75
329.186	4.75
329.639	4.74
330.092	4.74
330.545	4.73
330.997	4.74
331.45	4.73
331.903	4.74
332.355	4.74
332.808	4.74
333.26	4.73
333.713	4.74
334.165	4.73
334.617	4.74
335.069	4.73
335.522	4.73
335.974	4.73
336.426	4.73
336.878	4.73
337.33	4.71
337.782	4.7
338.234	4.7
338.686	4.69
339.137	4.69
339.589	4.67
340.041	4.67
340.493	4.66
340.944	4.64
341.396	4.64
341.847	4.62
342.299	4.6
342.75	4.59
343.201	4.57
343.653	4.55
344.104	4.53
344.555	4.52
345.006	4.5
345.457	4.49
345.908	4.48
346.359	4.46
346.81	4.46
347.261	4.44
347.712	4.43
348.163	4.42
348.613	4.41
349.064	4.4
349.515	4.39
349.965	4.37
350.416	4.37
350.866	4.36
351.317	4.35
351.767	4.35
352.217	4.35
352.668	4.35
353.118	4.36
353.568	4.37
354.018	4.38
354.468	4.39
354.918	4.41
355.368	4.41
355.818	4.4
356.268	4.41
356.718	4.39
357.168	4.38
357.617	4.38
358.067	4.37
358.517	4.36
358.966	4.36
359.416	4.35
359.865	4.33
360.315	4.33
360.764	4.34
361.213	4.33
361.663	4.34
362.112	4.34
362.561	4.34
363.01	4.34
363.459	4.34
363.908	4.34
364.357	4.34
364.806	4.34
365.255	4.34
365.703	4.33
366.152	4.34
366.601	4.34
367.05	4.34
367.498	4.34
367.947	4.34
368.395	4.34
368.844	4.34
369.292	4.34
369.74	4.34
370.189	4.33
370.637	4.34
371.085	4.34
371.533	4.34
371.981	4.34
372.429	4.34
372.877	4.34
373.325	4.35
373.773	4.35
374.221	4.35
374.669	4.36
375.116	4.36
375.564	4.36
376.012	4.36
376.459	4.37
376.907	4.38
377.354	4.39
377.801	4.4
378.249	4.41
378.696	4.41
379.143	4.43
379.591	4.43
380.038	4.45
380.485	4.46
380.932	4.47
381.379	4.47
381.826	4.48
382.273	4.48
382.72	4.5
383.166	4.51
383.613	4.51
384.06	4.51
384.506	4.53
384.953	4.54
385.4	4.55
385.846	4.57
386.292	4.59
386.739	4.6
387.185	4.63
387.631	4.65
388.078	4.68
388.524	4.69
388.97	4.72
389.416	4.73
389.862	4.75
390.308	4.77
390.754	4.8
391.2	4.82
391.645	4.86
392.091	4.87
392.537	4.89
392.983	4.91
393.428	4.93
393.874	4.96
394.319	4.99
394.765	5.01
395.21	5.03
395.655	5.06
396.101	5.09
396.546	5.11
396.991	5.14
397.436	5.16
397.881	5.19
398.326	5.26
398.771	5.3
399.216	5.34
399.661	5.37
400.106	5.43
400.551	5.44
400.995	5.46
401.44	5.49
401.885	5.51
402.329	5.55
402.774	5.58
403.218	5.59
403.663	5.62
404.107	5.65
404.551	5.69
404.995	5.71
405.44	5.75
405.884	5.79
406.328	5.83
406.772	5.87
407.216	5.89
407.66	5.93
408.104	5.97
408.547	5.99
408.991	6.01
409.435	6.03
409.879	6.06
410.322	6.11
410.766	6.14
411.209	6.16
411.653	6.18
412.096	6.21
412.54	6.23
412.983	6.25
413.426	6.3
413.869	6.33
414.312	6.37
414.756	6.4
415.199	6.42
415.642	6.46
416.085	6.5
416.527	6.53
416.97	6.56
417.413	6.58
417.856	6.59
418.298	6.59
418.741	6.61
419.184	6.62
419.626	6.63
420.069	6.64
420.511	6.65
420.953	6.64
421.396	6.66
421.838	6.69
422.28	6.73
422.722	6.76
423.164	6.78
423.606	6.8
424.048	6.81
424.49	6.83
424.932	6.84
425.374	6.85
425.816	6.84
426.258	6.84
426.699	6.81
427.141	6.79
427.582	6.79
428.024	6.8
428.465	6.82
428.907	6.82
429.348	6.82
429.789	6.83
430.231	6.85
430.672	6.88
431.113	6.91
431.554	6.95
431.995	6.99
432.436	7.01
432.877	7
433.318	7.03
433.759	7.05
434.2	7.07
434.64	7.09
435.081	7.09
435.522	7.13
435.962	7.15
436.403	7.18
436.843	7.19
437.284	7.22
437.724	7.26
438.164	7.25
438.604	7.29
439.045	7.28
439.485	7.29
439.925	7.32
440.365	7.31
440.805	7.3
441.245	7.29
441.685	7.31
442.125	7.31
442.564	7.32
443.004	7.33
443.444	7.35
443.883	7.38
444.323	7.41
444.762	7.45
445.202	7.49
445.641	7.53
446.081	7.58
446.52	7.58
446.959	7.6
447.398	7.65
447.837	7.69
448.276	7.7
448.716	7.71
449.154	7.74
449.593	7.75
450.032	7.78
450.471	7.77
450.91	7.75
451.349	7.78
451.787	7.8
452.226	7.78
452.664	7.76
453.103	7.78
453.541	7.78
453.98	7.76
454.418	7.73
454.856	7.68
455.295	7.68
455.733	7.68
456.171	7.66
456.609	7.63
457.047	7.62
457.485	7.62
457.923	7.6
458.361	7.58
458.798	7.59
459.236	7.59
459.674	7.61
460.111	7.61
460.549	7.58
460.987	7.59
461.424	7.6
461.862	7.61
462.299	7.6
462.736	7.6
463.173	7.62
463.611	7.61
464.048	7.62
464.485	7.61
464.922	7.61
465.359	7.64
465.796	7.63
466.233	7.63
466.67	7.63
467.106	7.63
467.543	7.63
467.98	7.62
468.416	7.63
468.853	7.61
469.29	7.62
469.726	7.61
470.162	7.59
470.599	7.59
471.035	7.6
471.471	7.58
471.907	7.55
472.344	7.55
472.78	7.55
473.216	7.53
473.652	7.52
474.088	7.52
474.523	7.5
474.959	7.48
475.395	7.48
475.831	7.45
476.266	7.45
476.702	7.46
477.138	7.44
477.573	7.41
478.008	7.41
478.444	7.4
478.879	7.4
479.314	7.38
479.75	7.38
480.185	7.37
480.62	7.36
481.055	7.34
481.49	7.32
481.925	7.32
482.36	7.3
482.795	7.28
483.229	7.27
483.664	7.25
484.099	7.25
484.534	7.24
484.968	7.22
485.403	7.22
485.837	7.22
486.271	7.22
486.706	7.2
487.14	7.2
487.574	7.2
488.009	7.21
488.443	7.21
488.877	7.22
489.311	7.23
489.745	7.25
490.179	7.27
490.613	7.28
491.046	7.3
491.48	7.33
491.914	7.35
492.348	7.38
492.781	7.38
493.215	7.41
493.648	7.43
494.082	7.46
494.515	7.48
494.948	7.51
495.382	7.55
495.815	7.58
496.248	7.61
496.681	7.64
497.114	7.67
497.547	7.72
497.98	7.75
498.413	7.8
498.846	7.85
499.279	7.9
499.711	7.95
500.144	8
500.577	8.06
501.009	8.12
501.442	8.19
501.874	8.27
502.306	8.35
502.739	8.43
503.171	8.52
503.603	8.61
504.036	8.69
504.468	8.8
504.9	8.9
505.332	9.02
505.764	9.13
506.196	9.26
506.627	9.37
507.059	9.5
507.491	9.64
507.923	9.77
508.354	9.92
508.786	10.07
509.217	10.2
509.649	10.37
510.08	10.53
510.512	10.7
510.943	10.88
511.374	11.07
511.805	11.24
512.237	11.43
512.668	11.62
513.099	11.84
513.53	12.04
513.961	12.28
514.391	12.48
514.822	12.69
515.253	12.91
515.684	13.13
516.114	13.37
516.545	13.6
516.975	13.85
517.406	14.1
517.836	14.32
518.267	14.58
518.697	14.82
519.127	15.08
519.558	15.35
519.988	15.62
520.418	15.87
520.848	16.13
521.278	16.4
521.708	16.65
522.138	16.88
522.567	17.13
522.997	17.36
523.427	17.59
523.857	17.8
524.286	18.02
524.716	18.23
525.145	18.44
525.575	18.65
526.004	18.86
526.433	19.06
526.863	19.27
527.292	19.48
527.721	19.66
528.15	19.82
528.579	20.03
529.008	20.19
529.437	20.35
529.866	20.5
530.295	20.64
530.724	20.77
531.152	20.91
531.581	21.03
532.01	21.15
532.438	21.27
532.867	21.4
533.295	21.48
533.723	21.58
534.152	21.67
534.58	21.74
535.008	21.82
535.436	21.9
535.865	21.96
536.293	22.04
536.721	22.09
537.149	22.15
537.576	22.2
538.004	22.26
538.432	22.3
538.86	22.36
539.287	22.41
539.715	22.44
540.143	22.46
540.57	22.5
540.998	22.53
541.425	22.57
541.852	22.61
542.28	22.65
542.707	22.68
543.134	22.71
543.561	22.72
543.988	22.76
544.415	22.81
544.842	22.84
545.269	22.89
545.696	22.9
546.123	22.92
546.549	22.93
546.976	22.96
547.403	22.98
547.829	23.02
548.256	23.02
548.682	23.03
549.108	23.04
549.535	23.06
549.961	23.05
550.387	23.05
550.813	23.02
551.24	23.02
551.666	23
552.092	22.96
552.518	22.94
552.943	22.95
553.369	22.94
553.795	22.89
554.221	22.85
554.646	22.82
555.072	22.78
555.498	22.74
555.923	22.71
556.349	22.64
556.774	22.6
557.199	22.53
557.625	22.45
558.05	22.35
558.475	22.27
558.9	22.18
559.325	22.09
559.75	21.99
560.175	21.9
560.6	21.79
561.025	21.7
561.449	21.58
561.874	21.45
562.299	21.33
562.723	21.22
563.148	21.09
563.572	20.96
563.997	20.84
564.421	20.7
564.846	20.57
565.27	20.41
565.694	20.26
566.118	20.11
566.542	19.98
566.966	19.82
567.39	19.67
567.814	19.51
568.238	19.35
568.662	19.19
569.086	19.03
569.509	18.88
569.933	18.73
570.357	18.57
570.78	18.45
571.204	18.29
571.627	18.14
572.05	18
572.474	17.87
572.897	17.74
573.32	17.6
573.743	17.45
574.166	17.31
574.589	17.18
575.012	17.05
575.435	16.92
575.858	16.81
576.281	16.72
576.704	16.62
577.126	16.5
577.549	16.4
577.972	16.3
578.394	16.21
578.817	16.12
579.239	16.03
579.661	15.95
580.084	15.87
580.506	15.77
580.928	15.68
581.35	15.6
581.772	15.54
582.194	15.45
582.616	15.39
583.038	15.31
583.46	15.25
583.882	15.2
584.303	15.13
584.725	15.06
585.147	15
585.568	14.92
585.99	14.85
586.411	14.79
586.833	14.74
587.254	14.69
587.675	14.65
588.096	14.58
588.518	14.53
588.939	14.49
589.36	14.45
589.781	14.4
590.202	14.36
590.623	14.31
591.043	14.26
591.464	14.2
591.885	14.16
592.305	14.13
592.726	14.1
593.147	14.08
593.567	14.04
593.987	14.02
594.408	14
594.828	13.97
595.248	13.94
595.669	13.92
596.089	13.9
596.509	13.85
596.929	13.82
597.349	13.79
597.769	13.74
598.189	13.71
598.608	13.67
599.028	13.63
599.448	13.6
599.867	13.57
600.287	13.54
600.706	13.49
601.126	13.44
601.545	13.38
601.965	13.34
602.384	13.3
602.803	13.24
603.222	13.19
603.641	13.14
604.061	13.08
604.48	13.03
604.898	12.97
605.317	12.91
605.736	12.86
606.155	12.81
606.574	12.75
606.992	12.69
607.411	12.64
607.829	12.53
608.248	12.47
608.666	12.41
609.085	12.34
609.503	12.27
609.921	12.2
610.339	12.14
610.758	12.08
611.176	12
611.594	11.93
612.012	11.87
612.43	11.85
612.847	11.79
613.265	11.74
613.683	11.67
614.101	11.61
614.518	11.56
614.936	11.5
615.353	11.45
615.771	11.4
616.188	11.37
616.606	11.32
617.023	11.27
617.44	11.22
617.857	11.17
618.274	11.14
618.691	11.11
619.108	11.08
619.525	11.05
619.942	11
620.359	10.97
620.776	10.93
621.192	10.89
621.609	10.86
622.026	10.84
622.442	10.82
622.859	10.79
623.275	10.78
623.691	10.77
624.108	10.74
624.524	10.74
624.94	10.72
625.356	10.7
625.772	10.7
626.188	10.68
626.604	10.66
627.02	10.66
627.436	10.65
627.852	10.63
628.268	10.62
628.683	10.61
629.099	10.59
629.514	10.58
629.93	10.57
630.345	10.54
630.761	10.53
631.176	10.53
631.591	10.48
632.007	10.45
632.422	10.43
632.837	10.4
633.252	10.35
633.667	10.3
634.082	10.27
634.497	10.21
634.911	10.16
635.326	10.1
635.741	10.03
636.155	9.97
636.57	9.91
636.984	9.82
637.399	9.73
637.813	9.65
638.228	9.58
638.642	9.5
639.056	9.43
639.47	9.35
639.884	9.26
640.298	9.18
640.712	9.08
641.126	8.98
641.54	8.92
641.954	8.86
642.368	8.8
642.781	8.71
643.195	8.64
643.609	8.56
644.022	8.5
644.436	8.43
644.849	8.37
645.262	8.35
645.676	8.31
646.089	8.25
646.502	8.18
646.915	8.13
647.328	8.09
647.741	8.05
648.154	8.02
648.567	7.97
648.98	7.94
649.393	7.91
649.805	7.85
650.218	7.81
650.631	7.79
651.043	7.77
651.456	7.74
651.868	7.72
652.28	7.72
652.693	7.68
653.105	7.65
653.517	7.63
653.929	7.62
654.341	7.61
654.753	7.58
655.165	7.55
655.577	7.51
655.989	7.47
656.401	7.41
656.813	7.36
657.224	7.34
657.636	7.31
658.047	7.27
658.459	7.22
658.87	7.17
659.282	7.14
659.693	7.1
660.104	7.06
660.515	7.03
660.926	7.01
661.338	6.98
661.749	6.92
662.159	6.87
662.57	6.84
662.981	6.82
663.392	6.78
663.803	6.75
664.213	6.72
664.624	6.7
665.035	6.68
665.445	6.66
665.855	6.63
666.266	6.63
666.676	6.62
667.086	6.61
667.497	6.58
667.907	6.57
668.317	6.55
668.727	6.55
669.137	6.55
669.547	6.56
669.956	6.56
670.366	6.58
670.776	6.57
671.186	6.58
671.595	6.6
672.005	6.62
672.414	6.65
672.824	6.68
673.233	6.7
673.642	6.71
674.052	6.71
674.461	6.74
674.87	6.78
675.279	6.8
675.688	6.82
676.097	6.84
676.506	6.86
676.915	6.89
677.323	6.92
677.732	6.97
678.141	7.03
678.549	7.08
678.958	7.11
679.366	7.14
679.775	7.2
680.183	7.25
680.592	7.31
681	7.37
681.408	7.42
681.816	7.47
682.224	7.53
682.632	7.6
683.04	7.67
683.448	7.74
683.856	7.84
684.264	7.95
684.671	8.06
685.079	8.16
685.487	8.3
685.894	8.46
686.302	8.62
686.709	8.79
687.116	8.96
687.524	9.16
687.931	9.38
688.338	9.6
688.745	9.84
689.152	10.13
689.559	10.43
689.966	10.74
690.373	11.08
690.78	11.46
691.187	11.85
691.593	12.26
692	12.68
692.407	13.13
692.813	13.59
693.22	14.07
693.626	14.54
694.032	15.06
694.439	15.56
694.845	16.09
695.251	16.61
695.657	17.13
696.063	17.68
696.469	18.26
696.875	18.83
697.281	19.39
697.687	19.96
698.093	20.53
698.498	21.09
698.904	21.7
699.31	22.27
699.715	22.86
700.12	23.44
700.526	24.02
700.931	24.56
701.337	25.13
701.742	25.69
702.147	26.26
702.552	26.85
702.957	27.41
703.362	27.95
703.767	28.48
704.172	29.04
704.577	29.58
704.981	30.14
705.386	30.67
705.791	31.24
706.195	31.77
706.6	32.28
707.004	32.78
707.408	33.29
707.813	33.8
708.217	34.31
708.621	34.79
709.025	35.29
709.43	35.74
709.834	36.29
710.237	36.74
710.641	37.25
711.045	37.72
711.449	38.19
711.853	38.66
712.256	39.13
712.66	39.58
713.064	40.02
713.467	40.47
713.87	40.93
714.274	41.35
714.677	41.78
715.08	42.2
715.484	42.64
715.887	43.05
716.29	43.47
716.693	43.85
717.096	44.27
717.499	44.65
717.901	45.03
718.304	45.41
718.707	45.75
719.109	46.14
719.512	46.52
719.915	46.85
720.317	47.21
720.719	47.55
721.122	47.94
721.524	48.29
721.926	48.65
722.328	48.98
722.731	49.32
723.133	49.65
723.535	49.93
723.937	50.23
724.338	50.52
724.74	50.8
725.142	51.01
725.544	51.25
725.945	51.47
726.347	51.72
726.748	51.95
727.15	52.18
727.551	52.39
727.952	52.6
728.354	52.82
728.755	53.04
729.156	53.26
729.557	53.54
729.958	53.73
730.359	53.91
730.76	54.07
731.161	54.21
731.562	54.37
731.962	54.52
732.363	54.67
732.763	54.81
733.164	54.93
733.564	55.03
733.965	55.13
734.365	55.23
734.766	55.36
735.166	55.47
735.566	55.58
735.966	55.64
736.366	55.74
736.766	55.82
737.166	55.9
737.566	55.96
737.966	56.07
738.365	56.14
738.765	56.23
739.165	56.28
739.564	56.36
739.964	56.44
740.363	56.55
740.763	56.61
741.162	56.69
741.561	56.77
741.96	56.88
742.36	56.93
742.759	56.99
743.158	57.02
743.557	57.11
743.955	57.17
744.354	57.25
744.753	57.31
745.152	57.36
745.55	57.39
745.949	57.42
746.348	57.46
746.746	57.49
747.144	57.55
747.543	57.61
747.941	57.65
748.339	57.72
748.737	57.74
749.136	57.75
749.534	57.79
749.932	57.82
750.33	57.84
750.727	57.83
751.125	57.84
751.523	57.86
751.921	57.88
752.318	57.87
752.716	57.83
753.113	57.82
753.511	57.83
753.908	57.82
754.305	57.82
754.703	57.8
755.1	57.81
755.497	57.84
755.894	57.86
756.291	57.85
756.688	57.85
757.085	57.86
757.482	57.87
757.878	57.91
758.275	57.89
758.672	57.92
759.068	57.95
759.465	57.97
759.861	57.97
760.258	57.93
760.654	57.97
761.05	57.97
761.447	57.97
761.843	57.97
762.239	57.93
762.635	57.92
763.031	57.92
763.427	57.89
763.822	57.86
764.218	57.83
764.614	57.81
765.01	57.78
765.405	57.76
765.801	57.75
766.196	57.73
766.592	57.73
766.987	57.72
767.382	57.7
767.778	57.7
768.173	57.7
768.568	57.69
768.963	57.69
769.358	57.72
769.753	57.73
770.148	57.72
770.542	57.71
770.937	57.67
771.332	57.67
771.726	57.64
772.121	57.59
772.515	57.6
772.91	57.59
773.304	57.57
773.699	57.53
774.093	57.51
774.487	57.54
774.881	57.55
775.275	57.57
775.669	57.57
776.063	57.58
776.457	57.6
776.851	57.55
777.245	57.59
777.638	57.58
778.032	57.58
778.425	57.58
778.819	57.53
779.212	57.53
779.606	57.54
779.999	57.5
780.392	57.55
780.786	57.55
781.179	57.6
781.572	57.56
781.965	57.59
782.358	57.55
782.751	57.56
783.143	57.63
783.536	57.67
783.929	57.67
784.322	57.73
784.714	57.69
785.107	57.72
785.499	57.71
785.891	57.73
786.284	57.69
786.676	57.77
787.068	57.77
787.46	57.71
787.852	57.7
788.245	57.69
788.636	57.65
789.028	57.63
789.42	57.6
789.812	57.58
790.204	57.54
790.595	57.56
790.987	57.52
791.378	57.52
791.77	57.57
792.161	57.54
792.553	57.54
792.944	57.57
793.335	57.63
793.726	57.61
794.117	57.61
794.508	57.62
794.899	57.6
795.29	57.61
795.681	57.61
796.072	57.6
796.463	57.6
796.853	57.63
797.244	57.63
797.634	57.59
798.025	57.64
798.415	57.67
798.806	57.73
799.196	57.78
799.586	57.78
799.976	57.79
800.366	57.79
800.756	57.79
801.146	57.79
801.536	57.79
801.926	57.81
802.316	57.8
802.706	57.79
803.095	57.78
803.485	57.75
803.874	57.76
804.264	57.77
804.653	57.74
805.043	57.76
805.432	57.69
805.821	57.65
806.21	57.68
806.599	57.69
806.988	57.68
807.377	57.67
807.766	57.68
808.155	57.65
808.544	57.63
808.933	57.63
809.321	57.64
809.71	57.69
810.098	57.7
810.487	57.67
810.875	57.65
811.264	57.67
811.652	57.68
812.04	57.68
812.428	57.72
812.816	57.72
813.204	57.72
813.592	57.71
813.98	57.71
814.368	57.73
814.756	57.72
815.144	57.71
815.531	57.7
815.919	57.7
816.306	57.67
816.694	57.68
817.081	57.66
817.469	57.68
817.856	57.71
818.243	57.73
818.63	57.76
819.017	57.77
819.404	57.79
819.791	57.8
820.178	57.82
820.565	57.83
820.952	57.81
821.339	57.85
821.725	57.85
822.112	57.86
822.498	57.82
822.885	57.82
823.271	57.84
823.657	57.87
824.044	57.87
824.43	57.87
824.816	57.89
825.202	57.91
825.588	57.91
825.974	57.92
826.36	57.93
826.746	57.95
827.132	57.9
827.517	57.88
827.903	57.87
828.289	57.88
828.674	57.87
829.06	57.86
829.445	57.85
829.83	57.85
830.216	57.86
830.601	57.84
830.986	57.87
831.371	57.93
831.756	57.93
832.141	57.91
832.526	57.91
832.911	57.93
833.295	57.93
833.68	57.95
834.065	57.96
834.449	57.92
834.834	57.92
835.218	57.9
835.603	57.87
835.987	57.89
836.371	57.92
836.755	57.94
837.139	57.92
837.524	57.9
837.908	57.85
838.291	57.83
838.675	57.87
839.059	57.87
839.443	57.89
839.827	57.91
840.21	57.9
840.594	57.87
840.977	57.84
841.361	57.86
841.744	57.89
842.127	57.92
842.511	57.91
842.894	57.89
843.277	57.9
843.66	57.86
844.043	57.85
844.426	57.86
844.809	57.84
845.191	57.84
845.574	57.83
845.957	57.77
846.339	57.74
846.722	57.76
847.104	57.76
847.487	57.76
847.869	57.78
848.252	57.75
848.634	57.74
849.016	57.78
849.398	57.8
849.78	57.78
850.162	57.82
850.544	57.86
850.926	57.84
851.307	57.83
851.689	57.8
852.071	57.79
852.452	57.82
852.834	57.81
853.215	57.81
853.597	57.81
853.978	57.81
854.359	57.79
854.741	57.77
855.122	57.79
855.503	57.81
855.884	57.79
856.265	57.8
856.646	57.77
857.026	57.75
857.407	57.71
857.788	57.71
858.169	57.71
858.549	57.75
858.93	57.74
859.31	57.71
859.69	57.69
860.071	57.7
860.451	57.69
860.831	57.72
861.211	57.72
861.591	57.73
861.971	57.7
862.351	57.74
862.731	57.7
863.111	57.7
863.491	57.72
863.87	57.74
864.25	57.78
864.629	57.78
865.009	57.76
865.388	57.76
865.768	57.76
866.147	57.78
866.526	57.73
866.905	57.75
867.284	57.78
867.663	57.77
868.042	57.76
868.421	57.72
868.8	57.71
869.179	57.71
869.558	57.75
869.936	57.75
870.315	57.78
870.693	57.79
871.072	57.81
871.45	57.8
871.828	57.8
872.207	57.81
872.585	57.84
872.963	57.84
873.341	57.85
873.719	57.82
874.097	57.83
874.475	57.83
874.853	57.82
875.23	57.81
875.608	57.82
875.986	57.81
876.363	57.8
876.741	57.78
877.118	57.76
877.495	57.75
877.873	57.77
878.25	57.74
878.627	57.74
879.004	57.76
879.381	57.74
879.758	57.7
880.135	57.7
880.512	57.7
880.889	57.71
881.265	57.73
881.642	57.73
882.019	57.7
882.395	57.7
882.772	57.69
883.148	57.66
883.524	57.64
883.901	57.65
884.277	57.65
884.653	57.68
885.029	57.66
885.405	57.65
885.781	57.65
886.157	57.67
886.532	57.69
886.908	57.71
887.284	57.72
887.659	57.79
888.035	57.81
888.411	57.81
888.786	57.76
889.161	57.76
889.537	57.78
889.912	57.78
890.287	57.74
890.662	57.72
891.037	57.67
891.412	57.65
891.787	57.61
892.162	57.57
892.536	57.55
892.911	57.54
893.286	57.54
893.66	57.49
894.035	57.47
894.409	57.5
894.784	57.5
895.158	57.49
895.532	57.49
895.906	57.46
896.281	57.46
896.655	57.44
897.029	57.42
897.402	57.4
897.776	57.43
898.15	57.44
898.524	57.38
898.898	57.33
899.271	57.33
899.645	57.31
900.018	57.32
900.392	57.33
900.765	57.36
901.138	57.4
901.511	57.43
901.884	57.43
902.258	57.41
902.631	57.46
903.003	57.5
903.376	57.5
903.749	57.52
904.122	57.54
904.495	57.53
904.867	57.48
905.24	57.44
905.612	57.39
905.985	57.35
906.357	57.29
906.729	57.29
907.102	57.27
907.474	57.29
907.846	57.27
908.218	57.22
908.59	57.21
908.962	57.22
909.334	57.24
909.705	57.28
910.077	57.28
910.449	57.35
910.82	57.32
911.192	57.31
911.563	57.28
911.935	57.25
912.306	57.22
912.677	57.21
913.048	57.2
913.419	57.17
913.79	57.15
914.161	57.18
914.532	57.21
914.903	57.25
915.274	57.25
915.645	57.27
916.015	57.28
916.386	57.29
916.756	57.29
917.127	57.29
917.497	57.3
917.868	57.25
918.238	57.25
918.608	57.21
918.978	57.13
919.348	57.1
919.718	57.07
920.088	57.13
920.458	57.18
920.828	57.19
921.198	57.19
921.567	57.2
921.937	57.26
922.306	57.23
922.676	57.2
923.045	57.23
923.415	57.22
923.784	57.26
924.153	57.21
924.522	57.16
924.891	57.18
925.26	57.18
925.629	57.15
925.998	57.13
926.367	57.1
926.736	57.1
927.104	57.1
927.473	57.14
927.842	57.09
928.21	57.1
928.578	57.11
928.947	57.11
929.315	57.12
929.683	57.14
930.051	57.14
930.42	57.14
930.788	57.18
931.156	57.21
931.523	57.19
931.891	57.16
932.259	57.12
932.627	57.09
932.994	57
933.362	56.96
933.729	56.91
934.097	56.9
934.464	56.91
934.831	56.82
935.199	56.77
935.566	56.75
935.933	56.85
936.3	56.83
936.667	56.86
937.034	56.86
937.401	56.85
937.767	56.81
938.134	56.71
938.501	56.72
938.867	56.85
939.234	56.92
939.6	57
939.967	56.88
940.333	56.98
940.699	57.05
941.065	57.14
941.431	57.22
941.798	57.31
942.163	57.5
942.529	57.52
942.895	57.43
943.261	57.45
943.627	57.45
943.992	57.53
944.358	57.57
944.723	57.5
945.089	57.57
945.454	57.61
945.82	57.62
946.185	57.63
946.55	57.67
946.915	57.73
947.28	57.65
947.645	57.58
948.01	57.57
948.375	57.56
948.74	57.52
949.104	57.47
949.469	57.39
949.834	57.34
950.198	57.17
950.562	57.07
950.927	57
951.291	56.93
951.655	56.91
952.02	56.88
952.384	56.87
952.748	56.85
953.112	56.8
953.476	56.81
953.839	56.78
954.203	56.73
954.567	56.75
954.931	56.74
955.294	56.74
955.658	56.73
956.021	56.72
956.385	56.69
956.748	56.68
957.111	56.68
957.474	56.65
957.837	56.7
958.2	56.7
958.563	56.73
958.926	56.71
959.289	56.75
959.652	56.75
960.015	56.71
960.377	56.65
960.74	56.62
961.102	56.62
961.465	56.61
961.827	56.53
962.189	56.54
962.552	56.43
962.914	56.39
963.276	56.36
963.638	56.29
964	56.27
964.362	56.25
964.724	56.25
965.085	56.24
965.447	56.21
965.809	56.2
966.17	56.23
966.532	56.32
966.893	56.27
967.255	56.24
967.616	56.23
967.977	56.3
968.338	56.29
968.699	56.36
969.061	56.27
969.421	56.28
969.782	56.26
970.143	56.21
970.504	56.2
970.865	56.22
971.225	56.25
971.586	56.35
971.946	56.28
972.307	56.3
972.667	56.31
973.027	56.49
973.388	56.49
973.748	56.57
974.108	56.54
974.468	56.46
974.828	56.52
975.188	56.49
975.548	56.44
975.907	56.48
976.267	56.46
976.627	56.45
976.986	56.4
977.346	56.43
977.705	56.43
978.064	56.57
978.424	56.63
978.783	56.65
979.142	56.6
979.501	56.61
979.86	56.6
980.219	56.59
980.578	56.56
980.937	56.58
981.296	56.51
981.654	56.61
982.013	56.62
982.371	56.54
982.73	56.52
983.088	56.6
983.447	56.67
983.805	56.59
984.163	56.68
984.521	56.67
984.879	56.62
985.237	56.67
985.595	56.55
985.953	56.51
986.311	56.56
986.669	56.64
987.026	56.58
987.384	56.5
987.741	56.57
988.099	56.56
988.456	56.55
988.814	56.53
989.171	56.53
989.528	56.49
989.885	56.49
990.242	56.61
990.599	56.54
990.956	56.6
991.313	56.8
991.67	56.8
992.027	56.79
992.383	56.95
992.74	56.98
993.096	56.99
993.453	57.09
993.809	57.15
994.165	57.09
994.522	57.09
994.878	57.22
995.234	57.13
995.59	57.15
995.946	57.2
996.302	56.87
996.658	56.91
997.013	56.83
997.369	56.79
997.725	56.86
998.08	56.89
998.436	56.96
998.791	56.81
999.147	56.85
999.502	56.85
999.857	56.81
1000.212	56.97
1000.567	57.1
1000.922	57.23
1001.277	57.28
1001.632	57.32
1001.987	57.34
1002.342	57.25
1002.696	57.29
1003.051	57.14
1003.406	57.11
1003.76	57.05
1004.114	57.23
1004.469	57.02
1004.823	57.09
1005.177	57.06
1005.531	56.87
1005.885	56.86
1006.239	57
1006.593	56.93
1006.947	56.99
1007.301	57.06
1007.655	57.34
1008.008	57.15
1008.362	57.34
1008.715	57.28
1009.069	57.26
1009.422	57.15
1009.776	57.31
1010.129	57.36
1010.482	57.57
1010.835	57.87
1011.188	57.91
1011.541	57.62
1011.894	57.83
1012.247	57.38
1012.6	57.24
1012.952	57.23
1013.305	57.45
1013.657	57.3
1014.01	57.24
1014.362	57.33
1014.715	57.04
1015.067	57.06
1015.419	57.21
1015.771	57.43
1016.123	57.92
1016.475	58.3
1016.827	58.48
1017.179	58.54
1017.531	58.52
1017.883	58.55
1018.234	58.32
1018.586	58.35
1018.938	58.32
1019.289	58.33
1019.64	58.27
1019.992	58.44
1020.343	58.27
1020.694	58.31
1021.045	58.33
1021.396	58.35
1021.747	58.38
1022.098	58.35
1022.449	58.37
1022.8	58.39
1023.151	58.52
1023.501	58.44
1023.852	58.54
1024.202	58.67
1024.553	58.38
1024.903	58.37
1025.253	58.7
1025.604	58.77
1025.954	58.84
1026.304	59.53
1026.654	59.92
1027.004	59.84
1027.354	59.62
1027.703	59.53
1028.053	59.23
1028.403	59.54
1028.753	60.53
1029.102	59.99
1029.452	59.61
1029.801	59.47
1030.15	58.91
1030.499	58.62
897.758	281.56
901.051	287.58
904.343	290.71
907.636	288.87
910.928	282.29
914.22	289.67
917.511	278.61
920.803	271.75
924.094	265.19
927.384	265.62
930.675	257.16
933.965	255.77
937.255	255.46
940.544	244.59
943.834	231.94
947.123	230.54
950.411	219.9
953.7	218.59
956.988	211.24
960.276	200.6
963.563	201.74
966.851	193.88
970.138	190.96
973.424	179.63
976.711	178.09
979.997	174.64
983.283	170.76
986.568	164.99
989.853	162.1
993.138	159.7
996.423	156.63
999.708	152.61
1002.992	152.3
1006.275	150.25
1009.559	151.64
1012.842	147.28
1016.125	142.6
1019.408	140.44
1022.69	140.43
1025.972	140.03
1029.254	136.23
1032.536	135.19
1035.817	131.78
1039.098	130.86
1042.379	129.13
1045.659	126.42
1048.939	125.76
1052.219	125.69
1055.498	124.95
1058.778	123.03
1062.057	120.69
1065.335	120.84
1068.614	118.65
1071.892	117.56
1075.17	115.32
1078.447	113.49
1081.724	112.74
1085.001	111.56
1088.278	111.63
1091.554	109.74
1094.83	109.92
1098.106	108.87
1101.382	109.19
1104.657	108.46
1107.932	106.87
1111.206	107.49
1114.481	107.82
1117.755	106.6
1121.029	105.93
1124.302	102.95
1127.575	104.77
1130.848	103.46
1134.121	101.77
1137.393	100.45
1140.665	100.72
1143.937	99.89
1147.208	98.56
1150.48	97
1153.75	96.05
1157.021	97.05
1160.291	97.92
1163.561	95.5
1166.831	95.38
1170.101	95.9
1173.37	95.82
1176.639	94.94
1179.907	95.4
1183.176	95.63
1186.444	95.39
1189.711	95.48
1192.979	94.75
1196.246	95.34
1199.513	94.69
1202.78	94.71
1206.046	95.19
1209.312	94.91
1212.578	95.94
1215.843	96.58
1219.108	96.32
1222.373	97.24
1225.638	98.48
1228.902	100.35
1232.166	101.67
1235.43	102.75
1238.693	104.69
1241.956	105.49
1245.219	106.81
1248.482	107.76
1251.744	107.42
1255.006	108.87
1258.268	107
1261.529	106.55
1264.79	104.3
1268.051	102.4
1271.312	103.01
1274.572	101.8
1277.832	100.68
1281.092	100.31
1284.351	98.48
1287.61	98.83
1290.869	97.15
1294.128	97.12
1297.386	96.82
1300.644	97.01
1303.902	96.83
1307.159	95.36
1310.416	95.43
1313.673	95.93
1316.93	96.36
1320.186	96.81
1323.442	97.04
1326.697	99.02
1329.953	99.39
1333.208	100.74
1336.463	102.21
1339.717	103.93
1342.972	107.67
1346.226	110.6
1349.479	110.97
1352.733	113.9
1355.986	116.51
1359.238	117.92
1362.491	118.11
1365.743	121.35
1368.995	122.91
1372.247	122.6
1375.498	120.88
1378.749	123.46
1382	121.45
1385.251	120.27
1388.501	119.34
1391.751	119.84
1395	118.8
1398.25	118.75
1401.499	116.97
1404.748	115.05
1407.996	112.66
1411.244	113.49
1414.492	110.82
1417.74	106.68
1420.987	104.33
1424.234	101.82
1427.481	98.48
1430.728	95.99
1433.974	92.8
1437.22	90.18
1440.465	87.82
1443.711	85
1446.956	82.18
1450.201	80.07
1453.445	77.66
1456.689	76.27
1459.933	74.15
1463.177	71.52
1466.42	69.8
1469.663	68.17
1472.906	66.48
1476.148	64.71
1479.391	65.24
1482.633	64.34
1485.874	63.7
1489.115	63.28
1492.356	62.38
1495.597	62.25
1498.838	62.49
1502.078	63
1505.318	63.03
1508.557	62.78
1511.797	63.09
1515.036	62.77
1518.274	62.73
1521.513	62.84
1524.751	62.72
1527.989	63.74
1531.227	63.69
1534.464	63.57
1537.701	62.97
1540.938	63.19
1544.174	63.47
1547.41	63.75
1550.646	64.04
1553.882	64.69
1557.117	65
1560.352	65.14
1563.587	64.55
1566.821	64.64
1570.055	64.84
1573.289	65.34
1576.523	65.66
1579.756	65.38
1582.989	65.88
1586.222	65.32
1589.454	65.22
1592.686	64.68
1595.918	64.95
1599.15	65.25
1602.381	65.62
1605.612	65.85
1608.843	65.69
1612.073	66.02
1615.303	66.6
1618.533	66.3
1621.762	66.59
1624.992	66.63
1628.221	66.94
1631.449	66.98
1634.678	67.33
1637.906	67.24
1641.134	67.43
1644.361	67.77
1647.588	67.34
1650.815	67.31
1654.042	67.97
1657.269	67.74
1660.495	68.32
1663.72	68.37
1666.946	67.95
1670.171	68.13
1673.396	68.01
1676.621	68.38
1679.845	68.73
1683.069	68.05
1686.293	67.96
1689.517	67.85
1692.74	67.91
1695.963	67.83
1699.185	67.9
1702.408	68.13
1705.63	67.78
1708.852	68.67
1712.073	67.41
1715.294	66.93
1718.515	68.44
1721.736	68.6
1724.956	67.81
1728.176	67.93
1731.396	67.88
1734.616	67.6
1737.835	67.62
1741.054	67.48
1744.272	66.8
1747.491	67.24
1750.709	67.27
1753.927	66.51
1757.144	66.81
1760.361	66.9
1763.578	66.78
1766.795	67.04
1770.011	67.62
1773.227	68.09
1776.443	68.14
1779.658	67.94
1782.874	68.74
1786.089	69
1789.303	68.74
1792.518	69.29
1795.732	69.48
1798.945	70.81
1802.159	70.25
1805.372	70.46
1808.585	70.31
1811.797	71
1815.01	71.14
1818.222	70.99
1821.434	71.42
1824.645	71.57
1827.856	71.72
1831.067	71.76
1834.278	71.57
1837.488	71.89
1840.698	71.76
1843.908	71.77
1847.117	72.11
1850.326	72.34
1853.535	72.17
1856.744	72.24
1859.952	73
1863.16	72.2
1866.368	71.49
1869.575	70.66
1872.782	70.32
1875.989	68.65
1879.196	68.44
1882.402	65.94
1885.608	66.23
1888.814	64.52
1892.019	63.96
1895.224	61.86
1898.429	61.21
1901.634	61.04
1904.838	60.61
1908.042	59.94
1911.246	60.54
1914.449	59.73
1917.652	60.44
1920.855	60.43
1924.058	59.1
1927.26	57.79
1930.462	58.63
1933.664	59
1936.865	58.72
1940.066	57.81
1943.267	57.17
1946.467	57.12
1949.668	56.86
1952.868	56.62
1956.067	55.63
1959.267	58.66
1962.466	58.74
1965.665	58.81
1968.863	59.8
1972.061	60.25
1975.259	61.86
1978.457	62.53
1981.654	63.83
1984.852	64.69
1988.048	66.42
1991.245	67.15
1994.441	68.48
1997.637	69.49
2000.833	71.77
2004.028	71.11
2007.223	73.99
2010.418	76.22
2013.613	79.7
2016.807	81.35
2020.001	82.25
2023.194	85.74
2026.388	88.96
2029.581	92.63
2032.774	95.88
2035.966	97.69
2039.158	102.27
2042.35	103.49
2045.542	104.45
2048.733	107.44
2051.924	108.76
2055.115	112.05
2058.306	111.46
2061.496	113.19
2064.686	112.16
2067.875	111.96
2071.065	114.5
2074.254	113.07
2077.442	117.02
2080.631	117.39
2083.819	119.01
2087.007	121.35
2090.195	123.45
2093.382	122.51
2096.569	122.33
2099.756	127.1
2102.942	129.44
2106.128	129.87
2109.314	133.74
2112.5	132.43
2115.685	132.57
2118.87	132.61
2122.055	131.69
2125.239	132.53
2128.424	137.28
2131.608	137.25
2134.791	134.5
2137.974	136.02
2141.157	138.29
2144.34	138.14
2147.523	141.95
2150.705	145.39
2153.887	145.64
2157.068	148.92
2160.25	149.66
2163.431	149.14
2166.611	153.01
2169.792	155.98
2172.972	158.41
2176.152	159
2179.331	161.65
2182.511	160.44
2185.69	161.2
2188.868	163.39
2192.047	166.34
2195.225	169.43
2198.403	170.92
2201.58	168.04
2204.758	175.45
2207.935	174.83
2211.111	177.16
2214.288	179.06
2217.464	180.69
2220.64	183.53
2223.815	185.44
2226.991	183.7
2230.166	185.47
2233.34	190.93
2236.515	196.45
2239.689	189.27
2242.863	192.56
2246.036	189.43
2249.209	194.15
2252.382	196.61
2255.555	201.62
2258.727	204.34
2261.9	205.98
2265.071	207.57
2268.243	210.34
2271.414	213.74
2274.585	218.64
2277.756	221.93
2280.926	229.51
2284.096	228.67
2287.266	226
2290.436	223.52
2293.605	225.46
2296.774	242.1
2299.942	237.85
2303.111	242.88
2306.279	246.31
2309.447	247.3
2312.614	247.66
2315.781	251.56
2318.948	258.75
2322.115	263.64
2325.281	272.61
2328.447	276.4
2331.613	271.06
2334.779	280.35
2337.944	277.69
2341.109	282.24
2344.274	290.07
2347.438	295.69
2350.602	304.3
2353.766	313.19
2356.929	314.39
2360.092	323.57
2363.255	317.42
2366.418	323.31
2369.58	327.87
2372.742	346.07
2375.904	344.28
2379.066	348.03
2382.227	372.43
2385.388	365.32
2388.548	357.64
2391.709	353.72
2394.869	366.3
2398.029	368.72
2401.188	375.3
2404.347	386.24
2407.506	383.13
2410.665	372.45
2413.823	376.6
2416.981	372.14
2420.139	362.17
2423.296	378.15
2426.453	407.53
2429.61	386.18
2432.767	413.35
2435.923	420.61
2439.079	411.06
2442.235	416.91
2445.391	430.33
2448.546	426.16
2451.701	441.27
2454.855	468.03
2458.009	426.33
2461.163	429.56
2464.317	433.75
2467.471	424.5
2470.624	435.07
2473.777	429.39
2476.929	424.32
2480.082	443.23
2483.234	460.71
2486.385	471.93
2489.537	481.66
2492.688	528.38
2495.839	522.24
2498.989	533.13
2502.14	540.54
2505.29	514.96
2508.439	561.15
2511.589	572.37
2514.738	559.63
2517.887	557.01
2521.035	527.13
2524.183	523.13
2527.331	511.3
2530.479	494.84
2533.627	509.32
