Data from c_1_dec_va_2n_011_Splice17_02.txt Node
Date: Sat Feb 29 13:12:30 EST 2020
User: sa697716
Spectrometer: FLMS03696
Trigger mode: 0
Integration Time (sec): 3.180400E-1
Scans to average: 20
Electric dark correction enabled: true
Nonlinearity correction enabled: true
Boxcar width: 5
XAxis mode: Wavelengths
Number of Pixels in Spectrum: 2048
>>>>>Begin Spectral Data<<<<<
187.83	81.3
188.298	85.86
188.766	69.08
189.233	63.09
189.701	70.39
190.169	66.41
190.636	66.94
191.104	67.57
191.571	228.31
192.039	160.9
192.506	-103.16
192.974	2583.82
193.441	-165.92
193.908	64.92
194.375	25.77
194.842	150.45
195.31	86.76
195.777	11.83
196.244	5.55
196.711	19.99
197.177	18.94
197.644	20.27
198.111	21.31
198.578	22.23
199.045	22.04
199.511	22.6
199.978	23.02
200.445	22.7
200.911	23.41
201.378	23.83
201.844	24.16
202.31	24.4
202.777	24.61
203.243	25.13
203.709	25.19
204.176	25.06
204.642	25.13
205.108	24.86
205.574	25.23
206.04	25.08
206.506	24.66
206.972	24.39
207.438	24.44
207.903	24.43
208.369	23.86
208.835	23.4
209.301	23.39
209.766	23.05
210.232	22.87
210.697	22.62
211.163	22.46
211.628	22.55
212.094	22.36
212.559	21.82
213.024	21.31
213.49	21.23
213.955	20.98
214.42	20.59
214.885	20.22
215.35	19.74
215.815	19.05
216.28	18.42
216.745	17.82
217.21	17.08
217.675	16.53
218.14	15.84
218.604	15.03
219.069	14.59
219.534	14.04
219.998	13.5
220.463	13.05
220.927	12.75
221.392	12.41
221.856	12.1
222.32	11.88
222.785	11.65
223.249	11.44
223.713	11.31
224.177	11.08
224.642	10.93
225.106	10.8
225.57	10.64
226.034	10.48
226.497	10.34
226.961	10.16
227.425	9.97
227.889	9.77
228.353	9.62
228.816	9.48
229.28	9.33
229.744	9.21
230.207	9.07
230.671	8.95
231.134	8.83
231.597	8.7
232.061	8.61
232.524	8.53
232.987	8.45
233.45	8.34
233.914	8.23
234.377	8.15
234.84	8.04
235.303	7.97
235.766	7.88
236.229	7.79
236.691	7.71
237.154	7.64
237.617	7.54
238.08	7.46
238.542	7.39
239.005	7.32
239.468	7.23
239.93	7.18
240.393	7.1
240.855	7.03
241.317	6.97
241.78	6.92
242.242	6.83
242.704	6.77
243.166	6.72
243.629	6.66
244.091	6.6
244.553	6.56
245.015	6.5
245.477	6.44
245.939	6.37
246.4	6.31
246.862	6.25
247.324	6.22
247.786	6.18
248.247	6.13
248.709	6.07
249.17	6.02
249.632	5.96
250.093	5.89
250.555	5.84
251.016	5.81
251.477	5.76
251.939	5.71
252.4	5.67
252.861	5.62
253.322	5.57
253.783	5.56
254.244	5.52
254.705	5.49
255.166	5.47
255.627	5.45
256.088	5.41
256.549	5.39
257.009	5.36
257.47	5.34
257.931	5.31
258.391	5.28
258.852	5.23
259.312	5.2
259.773	5.18
260.233	5.15
260.694	5.12
261.154	5.09
261.614	5.05
262.074	5.03
262.534	4.98
262.994	4.96
263.455	4.94
263.915	4.91
264.374	4.88
264.834	4.85
265.294	4.83
265.754	4.8
266.214	4.77
266.673	4.76
267.133	4.73
267.593	4.72
268.052	4.7
268.512	4.67
268.971	4.65
269.431	4.64
269.89	4.63
270.349	4.61
270.809	4.6
271.268	4.6
271.727	4.57
272.186	4.56
272.645	4.54
273.104	4.53
273.563	4.52
274.022	4.51
274.481	4.49
274.94	4.47
275.399	4.45
275.857	4.44
276.316	4.42
276.775	4.4
277.233	4.38
277.692	4.37
278.15	4.35
278.609	4.33
279.067	4.29
279.525	4.28
279.984	4.27
280.442	4.26
280.9	4.23
281.358	4.23
281.816	4.21
282.274	4.2
282.732	4.19
283.19	4.18
283.648	4.18
284.106	4.17
284.564	4.17
285.021	4.15
285.479	4.15
285.937	4.15
286.394	4.13
286.852	4.13
287.309	4.13
287.767	4.11
288.224	4.11
288.682	4.1
289.139	4.1
289.596	4.08
290.053	4.07
290.511	4.04
290.968	4.03
291.425	4.02
291.882	4
292.339	3.98
292.796	3.96
293.252	3.95
293.709	3.93
294.166	3.91
294.623	3.91
295.079	3.89
295.536	3.88
295.992	3.87
296.449	3.86
296.905	3.84
297.362	3.83
297.818	3.82
298.274	3.81
298.731	3.8
299.187	3.8
299.643	3.78
300.099	3.78
300.555	3.77
301.011	3.77
301.467	3.76
301.923	3.75
302.379	3.74
302.835	3.74
303.291	3.74
303.746	3.72
304.202	3.71
304.658	3.71
305.113	3.7
305.569	3.69
306.024	3.68
306.479	3.67
306.935	3.67
307.39	3.67
307.845	3.66
308.301	3.66
308.756	3.67
309.211	3.67
309.666	3.67
310.121	3.67
310.576	3.67
311.031	3.66
311.486	3.67
311.94	3.66
312.395	3.66
312.85	3.65
313.305	3.65
313.759	3.65
314.214	3.64
314.668	3.63
315.123	3.63
315.577	3.62
316.032	3.61
316.486	3.61
316.94	3.61
317.394	3.6
317.849	3.59
318.303	3.58
318.757	3.56
319.211	3.54
319.665	3.54
320.119	3.53
320.572	3.53
321.026	3.53
321.48	3.52
321.934	3.51
322.387	3.51
322.841	3.51
323.295	3.51
323.748	3.51
324.202	3.51
324.655	3.5
325.108	3.49
325.562	3.47
326.015	3.47
326.468	3.46
326.921	3.44
327.374	3.44
327.827	3.43
328.28	3.42
328.733	3.41
329.186	3.4
329.639	3.4
330.092	3.4
330.545	3.4
330.997	3.4
331.45	3.39
331.903	3.4
332.355	3.41
332.808	3.41
333.26	3.42
333.713	3.43
334.165	3.44
334.617	3.44
335.069	3.44
335.522	3.44
335.974	3.45
336.426	3.45
336.878	3.45
337.33	3.45
337.782	3.44
338.234	3.44
338.686	3.43
339.137	3.43
339.589	3.43
340.041	3.43
340.493	3.42
340.944	3.41
341.396	3.41
341.847	3.4
342.299	3.38
342.75	3.36
343.201	3.35
343.653	3.35
344.104	3.33
344.555	3.32
345.006	3.3
345.457	3.3
345.908	3.29
346.359	3.29
346.81	3.29
347.261	3.29
347.712	3.28
348.163	3.28
348.613	3.26
349.064	3.25
349.515	3.24
349.965	3.24
350.416	3.24
350.866	3.24
351.317	3.24
351.767	3.24
352.217	3.23
352.668	3.24
353.118	3.25
353.568	3.25
354.018	3.27
354.468	3.27
354.918	3.28
355.368	3.29
355.818	3.28
356.268	3.28
356.718	3.27
357.168	3.27
357.617	3.27
358.067	3.26
358.517	3.26
358.966	3.26
359.416	3.27
359.865	3.26
360.315	3.26
360.764	3.27
361.213	3.26
361.663	3.28
362.112	3.3
362.561	3.3
363.01	3.3
363.459	3.3
363.908	3.31
364.357	3.31
364.806	3.31
365.255	3.32
365.703	3.33
366.152	3.33
366.601	3.34
367.05	3.34
367.498	3.34
367.947	3.35
368.395	3.36
368.844	3.37
369.292	3.37
369.74	3.38
370.189	3.38
370.637	3.39
371.085	3.41
371.533	3.42
371.981	3.43
372.429	3.43
372.877	3.45
373.325	3.45
373.773	3.47
374.221	3.48
374.669	3.49
375.116	3.51
375.564	3.52
376.012	3.52
376.459	3.54
376.907	3.56
377.354	3.59
377.801	3.61
378.249	3.63
378.696	3.65
379.143	3.68
379.591	3.7
380.038	3.73
380.485	3.76
380.932	3.79
381.379	3.8
381.826	3.83
382.273	3.85
382.72	3.88
383.166	3.9
383.613	3.93
384.06	3.96
384.506	3.99
384.953	4.01
385.4	4.04
385.846	4.06
386.292	4.09
386.739	4.11
387.185	4.15
387.631	4.19
388.078	4.21
388.524	4.21
388.97	4.25
389.416	4.27
389.862	4.3
390.308	4.32
390.754	4.34
391.2	4.37
391.645	4.41
392.091	4.43
392.537	4.45
392.983	4.5
393.428	4.55
393.874	4.6
394.319	4.63
394.765	4.65
395.21	4.68
395.655	4.71
396.101	4.74
396.546	4.76
396.991	4.78
397.436	4.79
397.881	4.8
398.326	4.84
398.771	4.85
399.216	4.88
399.661	4.9
400.106	4.93
400.551	4.93
400.995	4.93
401.44	4.93
401.885	4.95
402.329	4.97
402.774	4.98
403.218	4.97
403.663	4.96
404.107	4.96
404.551	4.97
404.995	4.97
405.44	4.98
405.884	4.98
406.328	4.98
406.772	4.98
407.216	4.97
407.66	4.97
408.104	4.97
408.547	4.97
408.991	4.96
409.435	4.96
409.879	4.96
410.322	4.97
410.766	4.97
411.209	4.98
411.653	4.96
412.096	4.96
412.54	4.97
412.983	4.95
413.426	4.97
413.869	4.98
414.312	4.99
414.756	4.99
415.199	5
415.642	5.02
416.085	5.03
416.527	5.06
416.97	5.09
417.413	5.08
417.856	5.09
418.298	5.07
418.741	5.07
419.184	5.06
419.626	5.05
420.069	5.04
420.511	5.02
420.953	5
421.396	5
421.838	5
422.28	5.02
422.722	5.01
423.164	5.01
423.606	5.02
424.048	5
424.49	5
424.932	4.99
425.374	5
425.816	4.99
426.258	4.97
426.699	4.93
427.141	4.91
427.582	4.92
428.024	4.91
428.465	4.9
428.907	4.92
429.348	4.92
429.789	4.92
430.231	4.91
430.672	4.92
431.113	4.92
431.554	4.95
431.995	4.95
432.436	4.95
432.877	4.94
433.318	4.93
433.759	4.91
434.2	4.91
434.64	4.93
435.081	4.94
435.522	4.95
435.962	4.97
436.403	5
436.843	5.03
437.284	5.05
437.724	5.09
438.164	5.11
438.604	5.14
439.045	5.15
439.485	5.15
439.925	5.17
440.365	5.17
440.805	5.18
441.245	5.17
441.685	5.19
442.125	5.2
442.564	5.21
443.004	5.25
443.444	5.28
443.883	5.31
444.323	5.35
444.762	5.39
445.202	5.46
445.641	5.51
446.081	5.58
446.52	5.6
446.959	5.65
447.398	5.7
447.837	5.76
448.276	5.81
448.716	5.88
449.154	5.92
449.593	5.95
450.032	5.96
450.471	6.01
450.91	6.02
451.349	6.06
451.787	6.09
452.226	6.07
452.664	6.06
453.103	6.05
453.541	6.05
453.98	6.05
454.418	6.05
454.856	6.04
455.295	6.02
455.733	6.02
456.171	6.02
456.609	6.01
457.047	6.02
457.485	6.02
457.923	6.02
458.361	6.01
458.798	6.01
459.236	6.02
459.674	6.02
460.111	6.03
460.549	6.02
460.987	6.01
461.424	6
461.862	6
462.299	6
462.736	6
463.173	5.99
463.611	5.97
464.048	5.98
464.485	5.98
464.922	5.97
465.359	5.98
465.796	5.98
466.233	5.99
466.67	6
467.106	5.99
467.543	5.99
467.98	6.01
468.416	6.04
468.853	6.04
469.29	6.06
469.726	6.06
470.162	6.04
470.599	6.06
471.035	6.07
471.471	6.07
471.907	6.07
472.344	6.09
472.78	6.08
473.216	6.08
473.652	6.1
474.088	6.11
474.523	6.13
474.959	6.14
475.395	6.13
475.831	6.14
476.266	6.16
476.702	6.16
477.138	6.15
477.573	6.14
478.008	6.15
478.444	6.13
478.879	6.12
479.314	6.12
479.75	6.13
480.185	6.13
480.62	6.12
481.055	6.13
481.49	6.13
481.925	6.13
482.36	6.13
482.795	6.13
483.229	6.14
483.664	6.15
484.099	6.15
484.534	6.16
484.968	6.18
485.403	6.19
485.837	6.2
486.271	6.22
486.706	6.24
487.14	6.27
487.574	6.29
488.009	6.32
488.443	6.34
488.877	6.37
489.311	6.4
489.745	6.43
490.179	6.47
490.613	6.5
491.046	6.54
491.48	6.59
491.914	6.65
492.348	6.7
492.781	6.76
493.215	6.82
493.648	6.89
494.082	6.98
494.515	7.05
494.948	7.13
495.382	7.21
495.815	7.31
496.248	7.4
496.681	7.49
497.114	7.58
497.547	7.68
497.98	7.79
498.413	7.89
498.846	8
499.279	8.14
499.711	8.26
500.144	8.39
500.577	8.53
501.009	8.68
501.442	8.84
501.874	9
502.306	9.18
502.739	9.34
503.171	9.55
503.603	9.75
504.036	9.95
504.468	10.17
504.9	10.4
505.332	10.63
505.764	10.88
506.196	11.12
506.627	11.38
507.059	11.65
507.491	11.94
507.923	12.21
508.354	12.5
508.786	12.78
509.217	13.07
509.649	13.39
510.08	13.72
510.512	14.03
510.943	14.36
511.374	14.7
511.805	15.04
512.237	15.41
512.668	15.76
513.099	16.14
513.53	16.53
513.961	16.92
514.391	17.28
514.822	17.65
515.253	18.05
515.684	18.44
516.114	18.84
516.545	19.23
516.975	19.62
517.406	20.05
517.836	20.44
518.267	20.84
518.697	21.24
519.127	21.66
519.558	22.06
519.988	22.45
520.418	22.84
520.848	23.24
521.278	23.65
521.708	23.96
522.138	24.33
522.567	24.69
522.997	25.05
523.427	25.41
523.857	25.72
524.286	26.06
524.716	26.39
525.145	26.71
525.575	27.01
526.004	27.31
526.433	27.66
526.863	27.92
527.292	28.21
527.721	28.46
528.15	28.67
528.579	28.91
529.008	29.13
529.437	29.34
529.866	29.54
530.295	29.73
530.724	29.92
531.152	30.09
531.581	30.27
532.01	30.4
532.438	30.56
532.867	30.73
533.295	30.88
533.723	31.03
534.152	31.16
534.58	31.27
535.008	31.36
535.436	31.44
535.865	31.54
536.293	31.63
536.721	31.74
537.149	31.83
537.576	31.9
538.004	31.96
538.432	32.02
538.86	32.08
539.287	32.16
539.715	32.25
540.143	32.32
540.57	32.37
540.998	32.43
541.425	32.48
541.852	32.52
542.28	32.56
542.707	32.64
543.134	32.71
543.561	32.74
543.988	32.78
544.415	32.81
544.842	32.86
545.269	32.92
545.696	32.94
546.123	32.97
546.549	33.03
546.976	33.08
547.403	33.1
547.829	33.12
548.256	33.16
548.682	33.18
549.108	33.22
549.535	33.26
549.961	33.28
550.387	33.31
550.813	33.31
551.24	33.29
551.666	33.3
552.092	33.3
552.518	33.28
552.943	33.26
553.369	33.25
553.795	33.2
554.221	33.16
554.646	33.13
555.072	33.06
555.498	33.01
555.923	32.95
556.349	32.86
556.774	32.79
557.199	32.72
557.625	32.63
558.05	32.54
558.475	32.43
558.9	32.32
559.325	32.19
559.75	32.09
560.175	31.96
560.6	31.83
561.025	31.69
561.449	31.52
561.874	31.34
562.299	31.17
562.723	31.02
563.148	30.84
563.572	30.67
563.997	30.48
564.421	30.28
564.846	30.07
565.27	29.9
565.694	29.69
566.118	29.51
566.542	29.32
566.966	29.13
567.39	28.89
567.814	28.68
568.238	28.44
568.662	28.24
569.086	28.02
569.509	27.81
569.933	27.56
570.357	27.34
570.78	27.13
571.204	26.89
571.627	26.66
572.05	26.47
572.474	26.26
572.897	26.08
573.32	25.88
573.743	25.68
574.166	25.48
574.589	25.31
575.012	25.14
575.435	24.95
575.858	24.79
576.281	24.65
576.704	24.5
577.126	24.34
577.549	24.2
577.972	24.06
578.394	23.92
578.817	23.79
579.239	23.68
579.661	23.54
580.084	23.41
580.506	23.29
580.928	23.16
581.35	23.03
581.772	22.95
582.194	22.81
582.616	22.71
583.038	22.62
583.46	22.52
583.882	22.4
584.303	22.31
584.725	22.2
585.147	22.08
585.568	21.98
585.99	21.89
586.411	21.78
586.833	21.69
587.254	21.6
587.675	21.5
588.096	21.42
588.518	21.34
588.939	21.28
589.36	21.21
589.781	21.16
590.202	21.08
590.623	21.02
591.043	20.96
591.464	20.9
591.885	20.84
592.305	20.79
592.726	20.74
593.147	20.7
593.567	20.63
593.987	20.61
594.408	20.57
594.828	20.55
595.248	20.5
595.669	20.46
596.089	20.4
596.509	20.33
596.929	20.29
597.349	20.23
597.769	20.18
598.189	20.14
598.608	20.08
599.028	20.02
599.448	19.98
599.867	19.9
600.287	19.84
600.706	19.79
601.126	19.72
601.545	19.64
601.965	19.57
602.384	19.51
602.803	19.42
603.222	19.33
603.641	19.25
604.061	19.14
604.48	19.06
604.898	18.97
605.317	18.88
605.736	18.81
606.155	18.72
606.574	18.62
606.992	18.51
607.411	18.42
607.829	18.29
608.248	18.2
608.666	18.1
609.085	18
609.503	17.88
609.921	17.77
610.339	17.66
610.758	17.55
611.176	17.46
611.594	17.34
612.012	17.24
612.43	17.17
612.847	17.06
613.265	16.96
613.683	16.85
614.101	16.76
614.518	16.68
614.936	16.58
615.353	16.48
615.771	16.38
616.188	16.31
616.606	16.22
617.023	16.14
617.44	16.06
617.857	15.98
618.274	15.91
618.691	15.83
619.108	15.74
619.525	15.69
619.942	15.63
620.359	15.59
620.776	15.53
621.192	15.49
621.609	15.45
622.026	15.42
622.442	15.38
622.859	15.35
623.275	15.34
623.691	15.33
624.108	15.32
624.524	15.31
624.94	15.27
625.356	15.25
625.772	15.24
626.188	15.24
626.604	15.21
627.02	15.2
627.436	15.2
627.852	15.18
628.268	15.16
628.683	15.11
629.099	15.08
629.514	15.06
629.93	15.03
630.345	14.97
630.761	14.92
631.176	14.88
631.591	14.82
632.007	14.75
632.422	14.68
632.837	14.61
633.252	14.53
633.667	14.44
634.082	14.34
634.497	14.24
634.911	14.1
635.326	13.99
635.741	13.86
636.155	13.73
636.57	13.59
636.984	13.42
637.399	13.26
637.813	13.11
638.228	12.96
638.642	12.82
639.056	12.65
639.47	12.52
639.884	12.33
640.298	12.17
640.712	12
641.126	11.83
641.54	11.69
641.954	11.54
642.368	11.37
642.781	11.19
643.195	11.03
643.609	10.89
644.022	10.74
644.436	10.61
644.849	10.46
645.262	10.33
645.676	10.22
646.089	10.09
646.502	9.98
646.915	9.89
647.328	9.81
647.741	9.72
648.154	9.63
648.567	9.55
648.98	9.47
649.393	9.39
649.805	9.33
650.218	9.25
650.631	9.2
651.043	9.14
651.456	9.09
651.868	9.03
652.28	8.98
652.693	8.93
653.105	8.88
653.517	8.83
653.929	8.78
654.341	8.73
654.753	8.66
655.165	8.6
655.577	8.5
655.989	8.4
656.401	8.3
656.813	8.2
657.224	8.09
657.636	8
658.047	7.9
658.459	7.78
658.87	7.67
659.282	7.57
659.693	7.44
660.104	7.34
660.515	7.25
660.926	7.17
661.338	7.06
661.749	6.95
662.159	6.85
662.57	6.76
662.981	6.68
663.392	6.59
663.803	6.5
664.213	6.44
664.624	6.37
665.035	6.29
665.445	6.23
665.855	6.17
666.266	6.13
666.676	6.08
667.086	6.02
667.497	5.97
667.907	5.92
668.317	5.88
668.727	5.84
669.137	5.82
669.547	5.81
669.956	5.79
670.366	5.78
670.776	5.77
671.186	5.77
671.595	5.77
672.005	5.79
672.414	5.79
672.824	5.81
673.233	5.84
673.642	5.85
674.052	5.86
674.461	5.88
674.87	5.91
675.279	5.93
675.688	5.96
676.097	6
676.506	6.03
676.915	6.09
677.323	6.13
677.732	6.17
678.141	6.24
678.549	6.31
678.958	6.38
679.366	6.45
679.775	6.54
680.183	6.63
680.592	6.73
681	6.85
681.408	6.97
681.816	7.11
682.224	7.26
682.632	7.43
683.04	7.61
683.448	7.82
683.856	8.06
684.264	8.32
684.671	8.61
685.079	8.92
685.487	9.28
685.894	9.66
686.302	10.05
686.709	10.48
687.116	10.93
687.524	11.43
687.931	11.95
688.338	12.5
688.745	13.1
689.152	13.74
689.559	14.4
689.966	15.08
690.373	15.79
690.78	16.53
691.187	17.32
691.593	18.11
692	18.93
692.407	19.76
692.813	20.61
693.22	21.44
693.626	22.27
694.032	23.12
694.439	23.99
694.845	24.86
695.251	25.72
695.657	26.56
696.063	27.42
696.469	28.29
696.875	29.12
697.281	29.94
697.687	30.77
698.093	31.59
698.498	32.41
698.904	33.21
699.31	33.98
699.715	34.77
700.12	35.53
700.526	36.27
700.931	36.96
701.337	37.68
701.742	38.36
702.147	39.04
702.552	39.74
702.957	40.42
703.362	41.07
703.767	41.76
704.172	42.39
704.577	43
704.981	43.62
705.386	44.23
705.791	44.84
706.195	45.43
706.6	46.03
707.004	46.59
707.408	47.11
707.813	47.63
708.217	48.11
708.621	48.64
709.025	49.17
709.43	49.66
709.834	50.18
710.237	50.63
710.641	51.13
711.045	51.56
711.449	51.98
711.853	52.43
712.256	52.9
712.66	53.34
713.064	53.77
713.467	54.19
713.87	54.6
714.274	55
714.677	55.39
715.08	55.78
715.484	56.18
715.887	56.57
716.29	56.97
716.693	57.26
717.096	57.63
717.499	57.95
717.901	58.28
718.304	58.59
718.707	58.89
719.109	59.21
719.512	59.54
719.915	59.85
720.317	60.12
720.719	60.39
721.122	60.69
721.524	60.98
721.926	61.26
722.328	61.48
722.731	61.74
723.133	62
723.535	62.27
723.937	62.47
724.338	62.64
724.74	62.86
725.142	62.97
725.544	63.14
725.945	63.3
726.347	63.51
726.748	63.66
727.15	63.84
727.551	64
727.952	64.15
728.354	64.35
728.755	64.57
729.156	64.73
729.557	64.99
729.958	65.18
730.359	65.31
730.76	65.42
731.161	65.58
731.562	65.72
731.962	65.88
732.363	65.95
732.763	66.04
733.164	66.15
733.564	66.24
733.965	66.32
734.365	66.41
734.766	66.48
735.166	66.53
735.566	66.56
735.966	66.58
736.366	66.58
736.766	66.65
737.166	66.7
737.566	66.73
737.966	66.8
738.365	66.87
738.765	66.9
739.165	66.94
739.564	67.01
739.964	67.08
740.363	67.14
740.763	67.2
741.162	67.26
741.561	67.33
741.96	67.37
742.36	67.39
742.759	67.38
743.158	67.4
743.557	67.45
743.955	67.51
744.354	67.55
744.753	67.62
745.152	67.63
745.55	67.66
745.949	67.69
746.348	67.73
746.746	67.78
747.144	67.87
747.543	67.91
747.941	67.94
748.339	68.02
748.737	68.08
749.136	68.12
749.534	68.18
749.932	68.22
750.33	68.24
750.727	68.24
751.125	68.28
751.523	68.25
751.921	68.25
752.318	68.27
752.716	68.23
753.113	68.18
753.511	68.12
753.908	68.1
754.305	68.06
754.703	68.02
755.1	68.02
755.497	68.01
755.894	68.03
756.291	68.03
756.688	68.01
757.085	68
757.482	68.02
757.878	68.07
758.275	68.11
758.672	68.14
759.068	68.18
759.465	68.18
759.861	68.19
760.258	68.16
760.654	68.18
761.05	68.18
761.447	68.18
761.843	68.12
762.239	68.07
762.635	68.04
763.031	68
763.427	67.97
763.822	67.91
764.218	67.84
764.614	67.82
765.01	67.8
765.405	67.77
765.801	67.73
766.196	67.74
766.592	67.73
766.987	67.71
767.382	67.71
767.778	67.73
768.173	67.75
768.568	67.76
768.963	67.77
769.358	67.76
769.753	67.8
770.148	67.8
770.542	67.78
770.937	67.77
771.332	67.77
771.726	67.74
772.121	67.67
772.515	67.66
772.91	67.64
773.304	67.6
773.699	67.58
774.093	67.53
774.487	67.52
774.881	67.58
775.275	67.6
775.669	67.61
776.063	67.62
776.457	67.61
776.851	67.56
777.245	67.6
777.638	67.6
778.032	67.6
778.425	67.62
778.819	67.62
779.212	67.58
779.606	67.53
779.999	67.51
780.392	67.53
780.786	67.55
781.179	67.61
781.572	67.57
781.965	67.61
782.358	67.58
782.751	67.59
783.143	67.63
783.536	67.66
783.929	67.69
784.322	67.71
784.714	67.76
785.107	67.79
785.499	67.78
785.891	67.82
786.284	67.78
786.676	67.85
787.068	67.82
787.46	67.8
787.852	67.76
788.245	67.78
788.636	67.78
789.028	67.72
789.42	67.68
789.812	67.7
790.204	67.66
790.595	67.7
790.987	67.68
791.378	67.69
791.77	67.73
792.161	67.78
792.553	67.77
792.944	67.83
793.335	67.84
793.726	67.84
794.117	67.78
794.508	67.84
794.899	67.82
795.29	67.81
795.681	67.84
796.072	67.81
796.463	67.73
796.853	67.73
797.244	67.68
797.634	67.67
798.025	67.67
798.415	67.72
798.806	67.71
799.196	67.7
799.586	67.73
799.976	67.69
800.366	67.67
800.756	67.73
801.146	67.71
801.536	67.73
801.926	67.7
802.316	67.72
802.706	67.74
803.095	67.72
803.485	67.75
803.874	67.73
804.264	67.77
804.653	67.74
805.043	67.73
805.432	67.76
805.821	67.71
806.21	67.75
806.599	67.78
806.988	67.74
807.377	67.77
807.766	67.78
808.155	67.77
808.544	67.74
808.933	67.77
809.321	67.79
809.71	67.83
810.098	67.87
810.487	67.9
810.875	67.82
811.264	67.85
811.652	67.85
812.04	67.83
812.428	67.85
812.816	67.88
813.204	67.85
813.592	67.85
813.98	67.83
814.368	67.82
814.756	67.84
815.144	67.9
815.531	67.94
815.919	67.92
816.306	67.92
816.694	67.94
817.081	67.93
817.469	67.97
817.856	68
818.243	67.99
818.63	68.03
819.017	68.04
819.404	68.02
819.791	67.99
820.178	67.98
820.565	68.01
820.952	68.01
821.339	68.02
821.725	68.03
822.112	68.03
822.498	68.04
822.885	68.03
823.271	68.03
823.657	68.03
824.044	68.03
824.43	68.08
824.816	68.05
825.202	68.06
825.588	68.1
825.974	68.09
826.36	68.1
826.746	68.17
827.132	68.15
827.517	68.15
827.903	68.15
828.289	68.17
828.674	68.15
829.06	68.17
829.445	68.16
829.83	68.12
830.216	68.12
830.601	68.1
830.986	68.05
831.371	68.09
831.756	68.05
832.141	68.08
832.526	68.08
832.911	68.1
833.295	68.11
833.68	68.13
834.065	68.17
834.449	68.17
834.834	68.17
835.218	68.19
835.603	68.15
835.987	68.14
836.371	68.16
836.755	68.13
837.139	68.12
837.524	68.08
837.908	68.05
838.291	68.03
838.675	68.02
839.059	67.99
839.443	67.95
839.827	67.95
840.21	67.97
840.594	67.92
840.977	67.92
841.361	67.92
841.744	67.97
842.127	67.99
842.511	67.97
842.894	67.94
843.277	67.97
843.66	68
844.043	68.03
844.426	68.03
844.809	68.06
845.191	68.05
845.574	68.05
845.957	67.99
846.339	67.97
846.722	67.98
847.104	68.03
847.487	68.05
847.869	68.05
848.252	68.03
848.634	68.03
849.016	68.03
849.398	68.04
849.78	68.02
850.162	68.04
850.544	68.06
850.926	68.07
851.307	68.06
851.689	68.02
852.071	68
852.452	67.98
852.834	67.98
853.215	67.98
853.597	67.98
853.978	67.97
854.359	67.96
854.741	67.96
855.122	67.94
855.503	67.95
855.884	67.94
856.265	67.95
856.646	67.96
857.026	67.95
857.407	67.9
857.788	67.91
858.169	67.93
858.549	67.95
858.93	67.92
859.31	67.93
859.69	67.9
860.071	67.88
860.451	67.89
860.831	67.89
861.211	67.88
861.591	67.92
861.971	67.91
862.351	67.92
862.731	67.89
863.111	67.9
863.491	67.9
863.87	67.91
864.25	67.94
864.629	67.93
865.009	67.93
865.388	67.92
865.768	67.92
866.147	67.91
866.526	67.91
866.905	67.91
867.284	67.93
867.663	67.93
868.042	67.91
868.421	67.88
868.8	67.86
869.179	67.88
869.558	67.89
869.936	67.85
870.315	67.87
870.693	67.85
871.072	67.84
871.45	67.83
871.828	67.8
872.207	67.83
872.585	67.84
872.963	67.83
873.341	67.8
873.719	67.78
874.097	67.79
874.475	67.79
874.853	67.83
875.23	67.87
875.608	67.85
875.986	67.86
876.363	67.83
876.741	67.86
877.118	67.88
877.495	67.88
877.873	67.88
878.25	67.91
878.627	67.91
879.004	67.9
879.381	67.91
879.758	67.9
880.135	67.92
880.512	67.97
880.889	67.96
881.265	67.98
881.642	68
882.019	68.01
882.395	67.98
882.772	67.96
883.148	67.91
883.524	67.91
883.901	67.92
884.277	67.88
884.653	67.89
885.029	67.88
885.405	67.86
885.781	67.84
886.157	67.85
886.532	67.87
886.908	67.9
887.284	67.94
887.659	67.94
888.035	67.93
888.411	67.93
888.786	67.9
889.161	67.91
889.537	67.93
889.912	67.92
890.287	67.92
890.662	67.88
891.037	67.84
891.412	67.79
891.787	67.77
892.162	67.76
892.536	67.76
892.911	67.74
893.286	67.69
893.66	67.64
894.035	67.63
894.409	67.63
894.784	67.65
895.158	67.66
895.532	67.66
895.906	67.63
896.281	67.63
896.655	67.58
897.029	67.58
897.402	67.59
897.776	67.59
898.15	67.57
898.524	67.5
898.898	67.45
899.271	67.42
899.645	67.4
900.018	67.38
900.392	67.4
900.765	67.42
901.138	67.4
901.511	67.36
901.884	67.36
902.258	67.39
902.631	67.44
903.003	67.47
903.376	67.47
903.749	67.48
904.122	67.5
904.495	67.49
904.867	67.47
905.24	67.49
905.612	67.49
905.985	67.46
906.357	67.42
906.729	67.38
907.102	67.37
907.474	67.41
907.846	67.39
908.218	67.41
908.59	67.37
908.962	67.37
909.334	67.37
909.705	67.38
910.077	67.37
910.449	67.4
910.82	67.44
911.192	67.4
911.563	67.37
911.935	67.33
912.306	67.32
912.677	67.31
913.048	67.29
913.419	67.24
913.79	67.24
914.161	67.23
914.532	67.19
914.903	67.16
915.274	67.17
915.645	67.18
916.015	67.21
916.386	67.16
916.756	67.14
917.127	67.14
917.497	67.18
917.868	67.17
918.238	67.22
918.608	67.23
918.978	67.19
919.348	67.12
919.718	67.1
920.088	67.11
920.458	67.11
920.828	67.09
921.198	67.08
921.567	67.04
921.937	67.04
922.306	66.99
922.676	66.97
923.045	66.94
923.415	66.98
923.784	66.96
924.153	66.93
924.522	66.92
924.891	66.96
925.26	66.94
925.629	66.91
925.998	66.92
926.367	66.89
926.736	66.84
927.104	66.86
927.473	66.85
927.842	66.8
928.21	66.82
928.578	66.79
928.947	66.73
929.315	66.72
929.683	66.75
930.051	66.7
930.42	66.68
930.788	66.7
931.156	66.68
931.523	66.64
931.891	66.57
932.259	66.49
932.627	66.41
932.994	66.41
933.362	66.36
933.729	66.25
934.097	66.18
934.464	66.15
934.831	66.03
935.199	65.94
935.566	65.87
935.933	65.85
936.3	65.79
936.667	65.73
937.034	65.58
937.401	65.49
937.767	65.44
938.134	65.38
938.501	65.26
938.867	65.32
939.234	65.37
939.6	65.36
939.967	65.38
940.333	65.44
940.699	65.57
941.065	65.65
941.431	65.74
941.798	65.86
942.163	65.95
942.529	66.05
942.895	65.99
943.261	66.02
943.627	66.08
943.992	66.07
944.358	66.07
944.723	66.07
945.089	66.17
945.454	66.21
945.82	66.18
946.185	66.17
946.55	66.25
946.915	66.33
947.28	66.38
947.645	66.44
948.01	66.53
948.375	66.61
948.74	66.55
949.104	66.57
949.469	66.5
949.834	66.5
950.198	66.45
950.562	66.47
950.927	66.49
951.291	66.37
951.655	66.27
952.02	66.2
952.384	66.17
952.748	66.24
953.112	66.22
953.476	66.22
953.839	66.18
954.203	66.15
954.567	66.14
954.931	66.08
955.294	66.11
955.658	66.1
956.021	66.22
956.385	66.23
956.748	66.2
957.111	66.11
957.474	66.15
957.837	66.16
958.2	66.18
958.563	66.08
958.926	66.01
959.289	66.08
959.652	66.08
960.015	65.93
960.377	65.88
960.74	65.8
961.102	65.85
961.465	65.81
961.827	65.64
962.189	65.61
962.552	65.59
962.914	65.68
963.276	65.58
963.638	65.58
964	65.52
964.362	65.53
964.724	65.56
965.085	65.51
965.447	65.39
965.809	65.43
966.17	65.4
966.532	65.44
966.893	65.42
967.255	65.45
967.616	65.42
967.977	65.45
968.338	65.44
968.699	65.4
969.061	65.43
969.421	65.45
969.782	65.52
970.143	65.47
970.504	65.39
970.865	65.22
971.225	65.15
971.586	65.19
971.946	65.2
972.307	65.11
972.667	65.16
973.027	65.17
973.388	65.22
973.748	65.29
974.108	65.32
974.468	65.37
974.828	65.45
975.188	65.47
975.548	65.47
975.907	65.41
976.267	65.42
976.627	65.37
976.986	65.32
977.346	65.3
977.705	65.2
978.064	65.21
978.424	65.16
978.783	65.26
979.142	65.23
979.501	65.14
979.86	65.11
980.219	65.13
980.578	65.06
980.937	65
981.296	65.01
981.654	65.12
982.013	65.17
982.371	65.12
982.73	65.02
983.088	65.04
983.447	65.15
983.805	65.13
984.163	65.08
984.521	65
984.879	65.07
985.237	65.04
985.595	64.94
985.953	64.86
986.311	64.96
986.669	64.99
987.026	64.98
987.384	64.85
987.741	64.93
988.099	65.01
988.456	65.13
988.814	65.09
989.171	65.01
989.528	64.97
989.885	65.05
990.242	65.04
990.599	65.01
990.956	65.01
991.313	65.03
991.67	64.99
992.027	64.81
992.383	64.79
992.74	64.65
993.096	64.59
993.453	64.5
993.809	64.4
994.165	64.27
994.522	64.13
994.878	64.03
995.234	64
995.59	63.96
995.946	64.2
996.302	64.19
996.658	64.34
997.013	64.41
997.369	64.41
997.725	64.51
998.08	64.61
998.436	64.64
998.791	64.63
999.147	64.63
999.502	64.68
999.857	64.57
1000.212	64.56
1000.567	64.5
1000.922	64.46
1001.277	64.42
1001.632	64.36
1001.987	64.21
1002.342	64.35
1002.696	64.45
1003.051	64.34
1003.406	64.24
1003.76	63.94
1004.114	63.86
1004.469	63.63
1004.823	63.79
1005.177	63.92
1005.531	63.85
1005.885	63.79
1006.239	63.61
1006.593	63.28
1006.947	63.22
1007.301	63.23
1007.655	63.24
1008.008	63.09
1008.362	63.14
1008.715	62.88
1009.069	62.59
1009.422	62.4
1009.776	62.38
1010.129	62.28
1010.482	62.5
1010.835	62.51
1011.188	62.4
1011.541	62.2
1011.894	62.25
1012.247	62.34
1012.6	62.46
1012.952	62.52
1013.305	62.73
1013.657	62.73
1014.01	62.79
1014.362	62.77
1014.715	62.79
1015.067	62.65
1015.419	63.04
1015.771	63.09
1016.123	62.96
1016.475	62.91
1016.827	63
1017.179	62.81
1017.531	62.84
1017.883	62.95
1018.234	62.77
1018.586	62.71
1018.938	62.36
1019.289	61.84
1019.64	61.68
1019.992	61.78
1020.343	61.59
1020.694	61.33
1021.045	61.34
1021.396	61.18
1021.747	60.95
1022.098	60.88
1022.449	60.62
1022.8	61.05
1023.151	61.44
1023.501	61.58
1023.852	61.59
1024.202	61.33
1024.553	61.25
1024.903	60.57
1025.253	60.49
1025.604	60.56
1025.954	60.42
1026.304	60.83
1026.654	60.84
1027.004	61.04
1027.354	60.86
1027.703	60.52
1028.053	60.43
1028.403	60.41
1028.753	61.17
1029.102	61.1
1029.452	60.91
1029.801	60.85
1030.15	60.61
1030.499	60.51
897.758	-86.46
901.051	-83.9
904.343	-83.39
907.636	-80.69
910.928	-72.86
914.22	-77.21
917.511	-76.9
920.803	-72.31
924.094	-66.07
927.384	-62.47
930.675	-57.65
933.965	-57.42
937.255	-52.64
940.544	-49.03
943.834	-49.99
947.123	-50.11
950.411	-40.84
953.7	-39.71
956.988	-35.73
960.276	-28.12
963.563	-23.23
966.851	-18.63
970.138	-16.5
973.424	-14.59
976.711	-11.67
979.997	-5.63
983.283	-6.86
986.568	-6.1
989.853	0.08
993.138	1.72
996.423	0.92
999.708	2.04
1002.992	1.46
1006.275	5.95
1009.559	7.5
1012.842	8.8
1016.125	10.68
1019.408	12.55
1022.69	15.77
1025.972	14.99
1029.254	16.15
1032.536	18.5
1035.817	18.22
1039.098	20.89
1042.379	22.63
1045.659	22.57
1048.939	24.44
1052.219	25.26
1055.498	27.56
1058.778	26.58
1062.057	27.18
1065.335	29.07
1068.614	28.24
1071.892	30.51
1075.17	30.37
1078.447	30.11
1081.724	31.63
1085.001	29.92
1088.278	31.17
1091.554	30.9
1094.83	32.4
1098.106	32.73
1101.382	32.34
1104.657	33.35
1107.932	32.91
1111.206	33.52
1114.481	34.29
1117.755	33.31
1121.029	34.51
1124.302	35.2
1127.575	35.62
1130.848	35.19
1134.121	34.5
1137.393	35.48
1140.665	35.58
1143.937	35.11
1147.208	35.67
1150.48	35.23
1153.75	35.53
1157.021	36.65
1160.291	36.13
1163.561	35.73
1166.831	36.2
1170.101	37.05
1173.37	37.46
1176.639	37.16
1179.907	38.07
1183.176	38.08
1186.444	37.36
1189.711	37.45
1192.979	36.28
1196.246	37.52
1199.513	37.41
1202.78	37.19
1206.046	37.07
1209.312	37.03
1212.578	37.29
1215.843	36.71
1219.108	35.5
1222.373	35.95
1225.638	35.34
1228.902	35.23
1232.166	32.26
1235.43	31.07
1238.693	30.32
1241.956	29.51
1245.219	26.81
1248.482	27.63
1251.744	26.74
1255.006	29.45
1258.268	28.38
1261.529	29.1
1264.79	30.75
1268.051	31.67
1271.312	33.38
1274.572	33.87
1277.832	35.78
1281.092	36.37
1284.351	36.51
1287.61	36.58
1290.869	34.87
1294.128	36.17
1297.386	37.03
1300.644	36.54
1303.902	35.82
1307.159	36.28
1310.416	35.13
1313.673	34.06
1316.93	33.63
1320.186	33.23
1323.442	31.66
1326.697	31.48
1329.953	29.39
1333.208	27.09
1336.463	24.58
1339.717	24.82
1342.972	21.03
1346.226	20.25
1349.479	18.66
1352.733	16.73
1355.986	13.34
1359.238	13.72
1362.491	10.6
1365.743	10.97
1368.995	10.62
1372.247	7.6
1375.498	6.48
1378.749	3.21
1382	0.99
1385.251	0.14
1388.501	-0.14
1391.751	-2.03
1395	-2.74
1398.25	-2.58
1401.499	-5.63
1404.748	-7.98
1407.996	-5.5
1411.244	-5.66
1414.492	-5.43
1417.74	-4.77
1420.987	-3.75
1424.234	-5.03
1427.481	-3.95
1430.728	-2.68
1433.974	-1.89
1437.22	-0.65
1440.465	-0.2
1443.711	-0.14
1446.956	1.1
1450.201	3.92
1453.445	4.25
1456.689	5.18
1459.933	6.6
1463.177	8.03
1466.42	8.73
1469.663	9.38
1472.906	10.44
1476.148	11.44
1479.391	13.1
1482.633	13.2
1485.874	13.88
1489.115	15.63
1492.356	16.03
1495.597	16.85
1498.838	18
1502.078	18.61
1505.318	19.31
1508.557	19.56
1511.797	20.92
1515.036	21.6
1518.274	23.12
1521.513	23.49
1524.751	23.74
1527.989	25.22
1531.227	25.36
1534.464	26.14
1537.701	26.79
1540.938	26.99
1544.174	27.61
1547.41	27.84
1550.646	28.75
1553.882	28.55
1557.117	29.54
1560.352	30.02
1563.587	29.91
1566.821	30.37
1570.055	31.37
1573.289	31.58
1576.523	32.25
1579.756	32.3
1582.989	33.14
1586.222	32.57
1589.454	33.42
1592.686	32.99
1595.918	32.97
1599.15	33.45
1602.381	33.99
1605.612	34.1
1608.843	33.87
1612.073	33.96
1615.303	34.69
1618.533	34.44
1621.762	35.1
1624.992	34.35
1628.221	34.76
1631.449	34.89
1634.678	35.23
1637.906	35.2
1641.134	34.88
1644.361	35.21
1647.588	35.13
1650.815	35
1654.042	35.79
1657.269	35.12
1660.495	35.82
1663.72	36.31
1666.946	36.14
1670.171	35.98
1673.396	35.74
1676.621	35.84
1679.845	36.53
1683.069	35.94
1686.293	35.9
1689.517	35.33
1692.74	35.76
1695.963	35.63
1699.185	34.82
1702.408	35.16
1705.63	35.05
1708.852	34.9
1712.073	34.35
1715.294	33.75
1718.515	34.43
1721.736	34.23
1724.956	33.64
1728.176	33.71
1731.396	32.93
1734.616	33.24
1737.835	32.9
1741.054	32.14
1744.272	32.14
1747.491	32.23
1750.709	32.02
1753.927	31.35
1757.144	30.74
1760.361	30.73
1763.578	30.07
1766.795	30.51
1770.011	30.37
1773.227	29.85
1776.443	29.83
1779.658	29.55
1782.874	28.61
1786.089	27.81
1789.303	27.84
1792.518	27.9
1795.732	27.62
1798.945	27.99
1802.159	27.16
1805.372	26.3
1808.585	26.51
1811.797	26.52
1815.01	26.39
1818.222	26.52
1821.434	26.86
1824.645	25.83
1827.856	25.4
1831.067	24.88
1834.278	23.97
1837.488	23.88
1840.698	22.92
1843.908	22.09
1847.117	21.55
1850.326	20.16
1853.535	20.32
1856.744	18.55
1859.952	17.34
1863.16	16.04
1866.368	15.57
1869.575	14.19
1872.782	11.36
1875.989	8.26
1879.196	8.33
1882.402	4.97
1885.608	4.39
1888.814	1.12
1892.019	-3.47
1895.224	-4.47
1898.429	-6.41
1901.634	-8.97
1904.838	-11.94
1908.042	-12.65
1911.246	-12.03
1914.449	-14.69
1917.652	-15.2
1920.855	-16.74
1924.058	-17.8
1927.26	-17.45
1930.462	-18.22
1933.664	-17.04
1936.865	-17.18
1940.066	-17
1943.267	-17.88
1946.467	-18.36
1949.668	-18.6
1952.868	-17.27
1956.067	-17.45
1959.267	-15.25
1962.466	-15.28
1965.665	-14.25
1968.863	-14.38
1972.061	-14.41
1975.259	-13.55
1978.457	-12.36
1981.654	-11.57
1984.852	-11.46
1988.048	-11.91
1991.245	-11.6
1994.441	-11.94
1997.637	-11.34
2000.833	-11.15
2004.028	-12.71
2007.223	-14.15
2010.418	-13.96
2013.613	-13.26
2016.807	-14.17
2020.001	-14.65
2023.194	-13.73
2026.388	-14.38
2029.581	-17.36
2032.774	-19.17
2035.966	-20.54
2039.158	-19.16
2042.35	-20.76
2045.542	-21.34
2048.733	-24.53
2051.924	-26.54
2055.115	-27.46
2058.306	-29.18
2061.496	-32.26
2064.686	-29.82
2067.875	-27.88
2071.065	-26.67
2074.254	-27.7
2077.442	-27.85
2080.631	-28
2083.819	-27.98
2087.007	-26.34
2090.195	-28.21
2093.382	-29.66
2096.569	-28.37
2099.756	-26.72
2102.942	-28.52
2106.128	-30.86
2109.314	-29.36
2112.5	-27.85
2115.685	-30.09
2118.87	-30.41
2122.055	-29.27
2125.239	-30.12
2128.424	-28.19
2131.608	-30.88
2134.791	-32.27
2137.974	-33
2141.157	-32.28
2144.34	-34.04
2147.523	-34.25
2150.705	-33.33
2153.887	-32.1
2157.068	-33.8
2160.25	-34.21
2163.431	-33.73
2166.611	-31.59
2169.792	-35.86
2172.972	-32.23
2176.152	-33.05
2179.331	-36.02
2182.511	-35.9
2185.69	-38.07
2188.868	-43.65
2192.047	-44.18
2195.225	-42.7
2198.403	-51.01
2201.58	-48.8
2204.758	-47.58
2207.935	-53.87
2211.111	-59.28
2214.288	-56.89
2217.464	-57.68
2220.64	-54.5
2223.815	-55.67
2226.991	-55.32
2230.166	-55.56
2233.34	-53.6
2236.515	-59.66
2239.689	-59.64
2242.863	-58.63
2246.036	-55.4
2249.209	-60.39
2252.382	-60.91
2255.555	-68.83
2258.727	-66.71
2261.9	-74.19
2265.071	-74.7
2268.243	-72.6
2271.414	-78.02
2274.585	-81.74
2277.756	-79.72
2280.926	-84.88
2284.096	-83.55
2287.266	-81.52
2290.436	-80
2293.605	-81.55
2296.774	-80.96
2299.942	-83.32
2303.111	-86.56
2306.279	-84.31
2309.447	-84
2312.614	-89.93
2315.781	-95.38
2318.948	-92.44
2322.115	-96.39
2325.281	-107.31
2328.447	-108.61
2331.613	-108.77
2334.779	-111.51
2337.944	-117.27
2341.109	-123.24
2344.274	-119.85
2347.438	-126.73
2350.602	-123.51
2353.766	-138.47
2356.929	-142.32
2360.092	-137.03
2363.255	-136.41
2366.418	-141.42
2369.58	-146.57
2372.742	-133.98
2375.904	-130.51
2379.066	-140.66
2382.227	-147.26
2385.388	-154.98
2388.548	-146.27
2391.709	-139.33
2394.869	-151.36
2398.029	-147.59
2401.188	-144.81
2404.347	-150.37
2407.506	-168.55
2410.665	-154.58
2413.823	-159.19
2416.981	-157.72
2420.139	-142.17
2423.296	-157.32
2426.453	-173
2429.61	-161.47
2432.767	-179.14
2435.923	-183.68
2439.079	-173.76
2442.235	-181.94
2445.391	-191.3
2448.546	-186
2451.701	-203.72
2454.855	-227.26
2458.009	-183.8
2461.163	-189.55
2464.317	-185.63
2467.471	-180.5
2470.624	-193.64
2473.777	-185.89
2476.929	-174.56
2480.082	-196.78
2483.234	-208.83
2486.385	-209.09
2489.537	-209.82
2492.688	-245.28
2495.839	-247.31
2498.989	-254.7
2502.14	-251.57
2505.29	-232.83
2508.439	-279.81
2511.589	-284.85
2514.738	-269.67
2517.887	-267.68
2521.035	-246.36
2524.183	-246.27
2527.331	-243.17
2530.479	-229.33
2533.627	-239.46
