Data from c_1_dec_oh_4n_015_Splice17_12.txt Node
Date: Sat Feb 29 13:14:43 EST 2020
User: sa697716
Spectrometer: FLMS03696
Trigger mode: 0
Integration Time (sec): 3.180400E-1
Scans to average: 20
Electric dark correction enabled: true
Nonlinearity correction enabled: true
Boxcar width: 5
XAxis mode: Wavelengths
Number of Pixels in Spectrum: 2048
>>>>>Begin Spectral Data<<<<<
187.83	89.2
188.298	81.58
188.766	75.21
189.233	70.32
189.701	76.74
190.169	79.14
190.636	88.51
191.104	53.64
191.571	195.22
192.039	159.57
192.506	45.85
192.974	2422.99
193.441	25.3
193.908	48.64
194.375	88.22
194.842	33.23
195.31	10.33
195.777	-16.69
196.244	-28.86
196.711	3.77
197.177	3.6
197.644	4.08
198.111	4.8
198.578	5.04
199.045	5.63
199.511	6.11
199.978	7.47
200.445	7.91
200.911	8.33
201.378	8.88
201.844	9.28
202.31	9.68
202.777	10.21
203.243	10.55
203.709	10.81
204.176	10.33
204.642	10.13
205.108	10
205.574	10.44
206.04	10.38
206.506	10.18
206.972	10.01
207.438	9.95
207.903	9.99
208.369	9.94
208.835	10.19
209.301	10.54
209.766	10.8
210.232	10.83
210.697	10.53
211.163	10.82
211.628	10.63
212.094	10.75
212.559	10.56
213.024	10.51
213.49	10.36
213.955	10.4
214.42	10.35
214.885	9.81
215.35	9.66
215.815	9.42
216.28	9.11
216.745	9.11
217.21	8.86
217.675	8.87
218.14	8.53
218.604	8.22
219.069	7.93
219.534	7.74
219.998	7.65
220.463	7.55
220.927	7.43
221.392	7.31
221.856	7.17
222.32	7.09
222.785	6.94
223.249	6.89
223.713	6.82
224.177	6.73
224.642	6.66
225.106	6.58
225.57	6.48
226.034	6.4
226.497	6.31
226.961	6.21
227.425	6.07
227.889	5.99
228.353	5.9
228.816	5.84
229.28	5.75
229.744	5.69
230.207	5.62
230.671	5.56
231.134	5.51
231.597	5.44
232.061	5.38
232.524	5.35
232.987	5.3
233.45	5.23
233.914	5.17
234.377	5.14
234.84	5.08
235.303	5.05
235.766	5
236.229	4.94
236.691	4.92
237.154	4.88
237.617	4.83
238.08	4.79
238.542	4.77
239.005	4.73
239.468	4.67
239.93	4.64
240.393	4.59
240.855	4.53
241.317	4.49
241.78	4.46
242.242	4.41
242.704	4.38
243.166	4.35
243.629	4.3
244.091	4.28
244.553	4.25
245.015	4.21
245.477	4.18
245.939	4.14
246.4	4.12
246.862	4.08
247.324	4.06
247.786	4.03
248.247	4
248.709	3.98
249.17	3.95
249.632	3.93
250.093	3.88
250.555	3.86
251.016	3.86
251.477	3.83
251.939	3.81
252.4	3.79
252.861	3.77
253.322	3.74
253.783	3.73
254.244	3.71
254.705	3.69
255.166	3.68
255.627	3.66
256.088	3.63
256.549	3.62
257.009	3.6
257.47	3.59
257.931	3.57
258.391	3.56
258.852	3.53
259.312	3.51
259.773	3.5
260.233	3.47
260.694	3.45
261.154	3.43
261.614	3.41
262.074	3.4
262.534	3.37
262.994	3.35
263.455	3.34
263.915	3.33
264.374	3.31
264.834	3.3
265.294	3.29
265.754	3.27
266.214	3.25
266.673	3.24
267.133	3.22
267.593	3.22
268.052	3.2
268.512	3.19
268.971	3.18
269.431	3.17
269.89	3.15
270.349	3.15
270.809	3.14
271.268	3.14
271.727	3.13
272.186	3.13
272.645	3.11
273.104	3.11
273.563	3.11
274.022	3.1
274.481	3.1
274.94	3.08
275.399	3.07
275.857	3.06
276.316	3.05
276.775	3.02
277.233	3.01
277.692	2.99
278.15	2.98
278.609	2.95
279.067	2.94
279.525	2.93
279.984	2.92
280.442	2.91
280.9	2.9
281.358	2.9
281.816	2.89
282.274	2.89
282.732	2.89
283.19	2.88
283.648	2.88
284.106	2.87
284.564	2.87
285.021	2.86
285.479	2.85
285.937	2.84
286.394	2.83
286.852	2.82
287.309	2.82
287.767	2.81
288.224	2.8
288.682	2.79
289.139	2.8
289.596	2.78
290.053	2.78
290.511	2.76
290.968	2.76
291.425	2.75
291.882	2.74
292.339	2.73
292.796	2.72
293.252	2.72
293.709	2.71
294.166	2.7
294.623	2.69
295.079	2.69
295.536	2.69
295.992	2.68
296.449	2.68
296.905	2.67
297.362	2.66
297.818	2.65
298.274	2.64
298.731	2.64
299.187	2.63
299.643	2.62
300.099	2.62
300.555	2.61
301.011	2.6
301.467	2.6
301.923	2.6
302.379	2.59
302.835	2.59
303.291	2.58
303.746	2.58
304.202	2.57
304.658	2.57
305.113	2.56
305.569	2.56
306.024	2.56
306.479	2.55
306.935	2.54
307.39	2.54
307.845	2.54
308.301	2.53
308.756	2.53
309.211	2.54
309.666	2.53
310.121	2.53
310.576	2.53
311.031	2.53
311.486	2.53
311.94	2.53
312.395	2.53
312.85	2.54
313.305	2.54
313.759	2.52
314.214	2.52
314.668	2.51
315.123	2.51
315.577	2.5
316.032	2.5
316.486	2.5
316.94	2.5
317.394	2.48
317.849	2.48
318.303	2.48
318.757	2.48
319.211	2.47
319.665	2.47
320.119	2.47
320.572	2.47
321.026	2.46
321.48	2.45
321.934	2.46
322.387	2.46
322.841	2.46
323.295	2.45
323.748	2.45
324.202	2.44
324.655	2.43
325.108	2.42
325.562	2.4
326.015	2.4
326.468	2.39
326.921	2.38
327.374	2.38
327.827	2.37
328.28	2.37
328.733	2.36
329.186	2.36
329.639	2.36
330.092	2.36
330.545	2.36
330.997	2.35
331.45	2.35
331.903	2.34
332.355	2.34
332.808	2.34
333.26	2.34
333.713	2.34
334.165	2.34
334.617	2.35
335.069	2.35
335.522	2.36
335.974	2.36
336.426	2.36
336.878	2.36
337.33	2.36
337.782	2.36
338.234	2.36
338.686	2.35
339.137	2.36
339.589	2.35
340.041	2.35
340.493	2.33
340.944	2.33
341.396	2.33
341.847	2.33
342.299	2.32
342.75	2.3
343.201	2.3
343.653	2.3
344.104	2.29
344.555	2.29
345.006	2.28
345.457	2.28
345.908	2.28
346.359	2.27
346.81	2.28
347.261	2.28
347.712	2.28
348.163	2.28
348.613	2.26
349.064	2.25
349.515	2.25
349.965	2.25
350.416	2.25
350.866	2.25
351.317	2.24
351.767	2.23
352.217	2.22
352.668	2.22
353.118	2.23
353.568	2.24
354.018	2.25
354.468	2.25
354.918	2.25
355.368	2.26
355.818	2.25
356.268	2.25
356.718	2.25
357.168	2.25
357.617	2.25
358.067	2.24
358.517	2.23
358.966	2.23
359.416	2.24
359.865	2.24
360.315	2.23
360.764	2.24
361.213	2.23
361.663	2.24
362.112	2.24
362.561	2.24
363.01	2.25
363.459	2.25
363.908	2.24
364.357	2.24
364.806	2.24
365.255	2.23
365.703	2.23
366.152	2.23
366.601	2.23
367.05	2.23
367.498	2.23
367.947	2.22
368.395	2.22
368.844	2.22
369.292	2.2
369.74	2.21
370.189	2.21
370.637	2.21
371.085	2.22
371.533	2.22
371.981	2.21
372.429	2.2
372.877	2.2
373.325	2.2
373.773	2.2
374.221	2.2
374.669	2.19
375.116	2.19
375.564	2.19
376.012	2.19
376.459	2.19
376.907	2.2
377.354	2.21
377.801	2.22
378.249	2.22
378.696	2.23
379.143	2.23
379.591	2.23
380.038	2.23
380.485	2.24
380.932	2.24
381.379	2.23
381.826	2.23
382.273	2.23
382.72	2.23
383.166	2.22
383.613	2.22
384.06	2.22
384.506	2.22
384.953	2.22
385.4	2.23
385.846	2.22
386.292	2.23
386.739	2.22
387.185	2.23
387.631	2.23
388.078	2.24
388.524	2.22
388.97	2.22
389.416	2.23
389.862	2.23
390.308	2.23
390.754	2.24
391.2	2.25
391.645	2.27
392.091	2.26
392.537	2.27
392.983	2.28
393.428	2.3
393.874	2.32
394.319	2.33
394.765	2.33
395.21	2.33
395.655	2.34
396.101	2.34
396.546	2.35
396.991	2.37
397.436	2.36
397.881	2.37
398.326	2.39
398.771	2.4
399.216	2.42
399.661	2.43
400.106	2.45
400.551	2.45
400.995	2.46
401.44	2.46
401.885	2.48
402.329	2.5
402.774	2.5
403.218	2.5
403.663	2.51
404.107	2.51
404.551	2.53
404.995	2.54
405.44	2.55
405.884	2.54
406.328	2.56
406.772	2.56
407.216	2.57
407.66	2.59
408.104	2.61
408.547	2.63
408.991	2.64
409.435	2.64
409.879	2.65
410.322	2.68
410.766	2.69
411.209	2.69
411.653	2.7
412.096	2.7
412.54	2.7
412.983	2.69
413.426	2.7
413.869	2.71
414.312	2.73
414.756	2.74
415.199	2.75
415.642	2.77
416.085	2.79
416.527	2.8
416.97	2.83
417.413	2.83
417.856	2.84
418.298	2.83
418.741	2.84
419.184	2.83
419.626	2.82
420.069	2.83
420.511	2.81
420.953	2.82
421.396	2.82
421.838	2.83
422.28	2.85
422.722	2.86
423.164	2.88
423.606	2.9
424.048	2.9
424.49	2.91
424.932	2.9
425.374	2.91
425.816	2.91
426.258	2.92
426.699	2.9
427.141	2.89
427.582	2.89
428.024	2.88
428.465	2.89
428.907	2.9
429.348	2.91
429.789	2.91
430.231	2.9
430.672	2.91
431.113	2.91
431.554	2.93
431.995	2.93
432.436	2.92
432.877	2.91
433.318	2.89
433.759	2.88
434.2	2.87
434.64	2.88
435.081	2.9
435.522	2.89
435.962	2.9
436.403	2.91
436.843	2.91
437.284	2.93
437.724	2.97
438.164	2.97
438.604	2.98
439.045	2.99
439.485	2.99
439.925	2.99
440.365	2.98
440.805	2.96
441.245	2.93
441.685	2.94
442.125	2.93
442.564	2.92
443.004	2.93
443.444	2.94
443.883	2.93
444.323	2.91
444.762	2.95
445.202	2.97
445.641	3
446.081	3.03
446.52	3.03
446.959	3.02
447.398	3.03
447.837	3.05
448.276	3.06
448.716	3.08
449.154	3.11
449.593	3.08
450.032	3.1
450.471	3.11
450.91	3.12
451.349	3.12
451.787	3.13
452.226	3.11
452.664	3.1
453.103	3.09
453.541	3.09
453.98	3.07
454.418	3.08
454.856	3.07
455.295	3.04
455.733	3.05
456.171	3.04
456.609	3.04
457.047	3.04
457.485	3.04
457.923	3.03
458.361	3.02
458.798	3.03
459.236	3.02
459.674	3.02
460.111	3.02
460.549	3
460.987	3.01
461.424	3.01
461.862	3.02
462.299	3.01
462.736	3.01
463.173	3.03
463.611	3.01
464.048	3.02
464.485	3.01
464.922	3.04
465.359	3.07
465.796	3.04
466.233	3.03
466.67	3.05
467.106	3.04
467.543	3.06
467.98	3.06
468.416	3.07
468.853	3.09
469.29	3.09
469.726	3.08
470.162	3.07
470.599	3.09
471.035	3.1
471.471	3.07
471.907	3.08
472.344	3.07
472.78	3.08
473.216	3.08
473.652	3.05
474.088	3.07
474.523	3.07
474.959	3.07
475.395	3.07
475.831	3.08
476.266	3.1
476.702	3.1
477.138	3.09
477.573	3.08
478.008	3.09
478.444	3.09
478.879	3.08
479.314	3.07
479.75	3.07
480.185	3.07
480.62	3.06
481.055	3.06
481.49	3.05
481.925	3.05
482.36	3.05
482.795	3.03
483.229	3.03
483.664	3.02
484.099	3.04
484.534	3.03
484.968	3.03
485.403	3.04
485.837	3.03
486.271	3.03
486.706	3.04
487.14	3.05
487.574	3.06
488.009	3.06
488.443	3.07
488.877	3.07
489.311	3.09
489.745	3.1
490.179	3.12
490.613	3.13
491.046	3.15
491.48	3.17
491.914	3.18
492.348	3.2
492.781	3.23
493.215	3.24
493.648	3.27
494.082	3.3
494.515	3.31
494.948	3.34
495.382	3.36
495.815	3.39
496.248	3.42
496.681	3.45
497.114	3.47
497.547	3.5
497.98	3.54
498.413	3.57
498.846	3.62
499.279	3.67
499.711	3.71
500.144	3.77
500.577	3.81
501.009	3.85
501.442	3.91
501.874	3.98
502.306	4.06
502.739	4.1
503.171	4.18
503.603	4.26
504.036	4.34
504.468	4.43
504.9	4.52
505.332	4.62
505.764	4.73
506.196	4.84
506.627	4.94
507.059	5.06
507.491	5.2
507.923	5.32
508.354	5.44
508.786	5.57
509.217	5.69
509.649	5.82
510.08	5.97
510.512	6.11
510.943	6.27
511.374	6.43
511.805	6.58
512.237	6.73
512.668	6.9
513.099	7.08
513.53	7.28
513.961	7.48
514.391	7.66
514.822	7.85
515.253	8.05
515.684	8.25
516.114	8.46
516.545	8.68
516.975	8.89
517.406	9.1
517.836	9.32
518.267	9.53
518.697	9.74
519.127	9.96
519.558	10.18
519.988	10.4
520.418	10.61
520.848	10.83
521.278	11.04
521.708	11.21
522.138	11.4
522.567	11.6
522.997	11.79
523.427	12
523.857	12.18
524.286	12.36
524.716	12.54
525.145	12.71
525.575	12.87
526.004	13.04
526.433	13.25
526.863	13.41
527.292	13.56
527.721	13.7
528.15	13.83
528.579	13.96
529.008	14.11
529.437	14.22
529.866	14.33
530.295	14.44
530.724	14.55
531.152	14.66
531.581	14.76
532.01	14.86
532.438	14.96
532.867	15.04
533.295	15.11
533.723	15.17
534.152	15.26
534.58	15.33
535.008	15.39
535.436	15.44
535.865	15.49
536.293	15.54
536.721	15.6
537.149	15.65
537.576	15.7
538.004	15.73
538.432	15.78
538.86	15.81
539.287	15.85
539.715	15.89
540.143	15.91
540.57	15.92
540.998	15.95
541.425	15.97
541.852	16
542.28	16.03
542.707	16.07
543.134	16.09
543.561	16.11
543.988	16.13
544.415	16.16
544.842	16.21
545.269	16.25
545.696	16.25
546.123	16.27
546.549	16.29
546.976	16.31
547.403	16.31
547.829	16.34
548.256	16.37
548.682	16.38
549.108	16.38
549.535	16.37
549.961	16.36
550.387	16.38
550.813	16.37
551.24	16.37
551.666	16.39
552.092	16.39
552.518	16.36
552.943	16.35
553.369	16.33
553.795	16.3
554.221	16.29
554.646	16.26
555.072	16.22
555.498	16.18
555.923	16.15
556.349	16.08
556.774	16.01
557.199	15.96
557.625	15.91
558.05	15.85
558.475	15.79
558.9	15.72
559.325	15.64
559.75	15.56
560.175	15.49
560.6	15.4
561.025	15.32
561.449	15.23
561.874	15.14
562.299	15.04
562.723	14.94
563.148	14.84
563.572	14.76
563.997	14.65
564.421	14.53
564.846	14.41
565.27	14.29
565.694	14.16
566.118	14.05
566.542	13.93
566.966	13.82
567.39	13.7
567.814	13.56
568.238	13.41
568.662	13.29
569.086	13.17
569.509	13.06
569.933	12.93
570.357	12.8
570.78	12.68
571.204	12.56
571.627	12.43
572.05	12.32
572.474	12.2
572.897	12.09
573.32	11.97
573.743	11.87
574.166	11.76
574.589	11.66
575.012	11.57
575.435	11.46
575.858	11.37
576.281	11.28
576.704	11.19
577.126	11.11
577.549	11.04
577.972	10.96
578.394	10.86
578.817	10.78
579.239	10.71
579.661	10.64
580.084	10.57
580.506	10.49
580.928	10.42
581.35	10.36
581.772	10.31
582.194	10.24
582.616	10.19
583.038	10.15
583.46	10.1
583.882	10.05
584.303	10
584.725	9.94
585.147	9.88
585.568	9.82
585.99	9.76
586.411	9.7
586.833	9.66
587.254	9.61
587.675	9.57
588.096	9.53
588.518	9.49
588.939	9.46
589.36	9.43
589.781	9.41
590.202	9.38
590.623	9.34
591.043	9.31
591.464	9.27
591.885	9.24
592.305	9.22
592.726	9.19
593.147	9.16
593.567	9.12
593.987	9.1
594.408	9.09
594.828	9.08
595.248	9.06
595.669	9.05
596.089	9.04
596.509	9
596.929	8.97
597.349	8.93
597.769	8.9
598.189	8.89
598.608	8.86
599.028	8.82
599.448	8.8
599.867	8.79
600.287	8.76
600.706	8.72
601.126	8.7
601.545	8.65
601.965	8.62
602.384	8.59
602.803	8.54
603.222	8.49
603.641	8.44
604.061	8.37
604.48	8.32
604.898	8.27
605.317	8.22
605.736	8.17
606.155	8.12
606.574	8.08
606.992	8.02
607.411	7.98
607.829	7.89
608.248	7.84
608.666	7.79
609.085	7.74
609.503	7.68
609.921	7.62
610.339	7.56
610.758	7.51
611.176	7.45
611.594	7.38
612.012	7.31
612.43	7.3
612.847	7.26
613.265	7.22
613.683	7.17
614.101	7.12
614.518	7.06
614.936	7.01
615.353	6.95
615.771	6.89
616.188	6.87
616.606	6.85
617.023	6.8
617.44	6.75
617.857	6.71
618.274	6.68
618.691	6.66
619.108	6.64
619.525	6.61
619.942	6.6
620.359	6.58
620.776	6.56
621.192	6.53
621.609	6.51
622.026	6.49
622.442	6.45
622.859	6.44
623.275	6.42
623.691	6.41
624.108	6.41
624.524	6.39
624.94	6.38
625.356	6.37
625.772	6.36
626.188	6.35
626.604	6.33
627.02	6.33
627.436	6.33
627.852	6.31
628.268	6.3
628.683	6.28
629.099	6.26
629.514	6.24
629.93	6.23
630.345	6.21
630.761	6.19
631.176	6.17
631.591	6.15
632.007	6.12
632.422	6.1
632.837	6.07
633.252	6.03
633.667	6.01
634.082	5.98
634.497	5.93
634.911	5.87
635.326	5.82
635.741	5.76
636.155	5.71
636.57	5.64
636.984	5.57
637.399	5.48
637.813	5.41
638.228	5.33
638.642	5.27
639.056	5.21
639.47	5.15
639.884	5.09
640.298	5.03
640.712	4.96
641.126	4.91
641.54	4.85
641.954	4.81
642.368	4.75
642.781	4.69
643.195	4.61
643.609	4.55
644.022	4.5
644.436	4.44
644.849	4.4
645.262	4.36
645.676	4.3
646.089	4.25
646.502	4.2
646.915	4.15
647.328	4.12
647.741	4.09
648.154	4.06
648.567	4.03
648.98	4
649.393	3.97
649.805	3.92
650.218	3.91
650.631	3.89
651.043	3.86
651.456	3.85
651.868	3.83
652.28	3.81
652.693	3.78
653.105	3.77
653.517	3.75
653.929	3.73
654.341	3.72
654.753	3.69
655.165	3.67
655.577	3.63
655.989	3.6
656.401	3.56
656.813	3.52
657.224	3.48
657.636	3.44
658.047	3.4
658.459	3.36
658.87	3.32
659.282	3.29
659.693	3.25
660.104	3.24
660.515	3.21
660.926	3.17
661.338	3.15
661.749	3.11
662.159	3.08
662.57	3.06
662.981	3.04
663.392	3.01
663.803	2.98
664.213	2.97
664.624	2.95
665.035	2.94
665.445	2.94
665.855	2.93
666.266	2.92
666.676	2.92
667.086	2.91
667.497	2.9
667.907	2.89
668.317	2.88
668.727	2.87
669.137	2.87
669.547	2.9
669.956	2.9
670.366	2.91
670.776	2.92
671.186	2.93
671.595	2.94
672.005	2.95
672.414	2.97
672.824	3.01
673.233	3.03
673.642	3.04
674.052	3.03
674.461	3.04
674.87	3.05
675.279	3.07
675.688	3.08
676.097	3.11
676.506	3.13
676.915	3.15
677.323	3.17
677.732	3.19
678.141	3.23
678.549	3.27
678.958	3.31
679.366	3.34
679.775	3.37
680.183	3.4
680.592	3.43
681	3.46
681.408	3.5
681.816	3.53
682.224	3.57
682.632	3.62
683.04	3.68
683.448	3.73
683.856	3.8
684.264	3.87
684.671	3.96
685.079	4.05
685.487	4.17
685.894	4.27
686.302	4.41
686.709	4.55
687.116	4.7
687.524	4.86
687.931	5.04
688.338	5.26
688.745	5.5
689.152	5.73
689.559	6.01
689.966	6.28
690.373	6.59
690.78	6.9
691.187	7.24
691.593	7.59
692	7.97
692.407	8.34
692.813	8.73
693.22	9.12
693.626	9.55
694.032	9.96
694.439	10.4
694.845	10.85
695.251	11.3
695.657	11.75
696.063	12.21
696.469	12.67
696.875	13.14
697.281	13.6
697.687	14.07
698.093	14.52
698.498	14.99
698.904	15.45
699.31	15.9
699.715	16.35
700.12	16.81
700.526	17.27
700.931	17.71
701.337	18.14
701.742	18.57
702.147	18.98
702.552	19.42
702.957	19.83
703.362	20.24
703.767	20.65
704.172	21.04
704.577	21.44
704.981	21.84
705.386	22.22
705.791	22.61
706.195	22.99
706.6	23.36
707.004	23.71
707.408	24.07
707.813	24.43
708.217	24.79
708.621	25.16
709.025	25.5
709.43	25.82
709.834	26.16
710.237	26.46
710.641	26.81
711.045	27.11
711.449	27.42
711.853	27.74
712.256	28.04
712.66	28.33
713.064	28.58
713.467	28.87
713.87	29.15
714.274	29.41
714.677	29.71
715.08	29.93
715.484	30.23
715.887	30.5
716.29	30.75
716.693	31
717.096	31.24
717.499	31.51
717.901	31.73
718.304	31.98
718.707	32.21
719.109	32.46
719.512	32.74
719.915	32.93
720.317	33.14
720.719	33.34
721.122	33.53
721.524	33.75
721.926	33.94
722.328	34.15
722.731	34.34
723.133	34.54
723.535	34.71
723.937	34.83
724.338	34.99
724.74	35.16
725.142	35.25
725.544	35.38
725.945	35.49
726.347	35.63
726.748	35.75
727.15	35.89
727.551	36.01
727.952	36.12
728.354	36.27
728.755	36.41
729.156	36.56
729.557	36.76
729.958	36.9
730.359	37.04
730.76	37.14
731.161	37.25
731.562	37.34
731.962	37.43
732.363	37.52
732.763	37.62
733.164	37.7
733.564	37.77
733.965	37.85
734.365	37.92
734.766	37.97
735.166	38.03
735.566	38.05
735.966	38.08
736.366	38.13
736.766	38.18
737.166	38.21
737.566	38.26
737.966	38.33
738.365	38.34
738.765	38.35
739.165	38.41
739.564	38.49
739.964	38.55
740.363	38.61
740.763	38.63
741.162	38.65
741.561	38.69
741.96	38.73
742.36	38.74
742.759	38.77
743.158	38.8
743.557	38.8
743.955	38.82
744.354	38.86
744.753	38.9
745.152	38.96
745.55	39.01
745.949	39.01
746.348	39.03
746.746	39.07
747.144	39.1
747.543	39.16
747.941	39.24
748.339	39.27
748.737	39.31
749.136	39.33
749.534	39.34
749.932	39.34
750.33	39.4
750.727	39.41
751.125	39.41
751.523	39.41
751.921	39.4
752.318	39.38
752.716	39.35
753.113	39.34
753.511	39.29
753.908	39.28
754.305	39.27
754.703	39.25
755.1	39.24
755.497	39.23
755.894	39.22
756.291	39.2
756.688	39.2
757.085	39.19
757.482	39.16
757.878	39.2
758.275	39.19
758.672	39.21
759.068	39.2
759.465	39.18
759.861	39.19
760.258	39.16
760.654	39.18
761.05	39.21
761.447	39.22
761.843	39.21
762.239	39.2
762.635	39.2
763.031	39.22
763.427	39.21
763.822	39.22
764.218	39.19
764.614	39.21
765.01	39.2
765.405	39.16
765.801	39.14
766.196	39.14
766.592	39.13
766.987	39.14
767.382	39.1
767.778	39.1
768.173	39.1
768.568	39.09
768.963	39.11
769.358	39.13
769.753	39.15
770.148	39.14
770.542	39.09
770.937	39.08
771.332	39.07
771.726	39.08
772.121	39.01
772.515	38.99
772.91	39.03
773.304	39.01
773.699	38.96
774.093	38.93
774.487	38.95
774.881	38.98
775.275	38.97
775.669	38.94
776.063	38.91
776.457	38.95
776.851	38.91
777.245	38.9
777.638	38.9
778.032	38.91
778.425	38.89
778.819	38.86
779.212	38.82
779.606	38.82
779.999	38.83
780.392	38.84
780.786	38.84
781.179	38.89
781.572	38.85
781.965	38.81
782.358	38.82
782.751	38.83
783.143	38.87
783.536	38.91
783.929	38.93
784.322	38.91
784.714	38.92
785.107	38.94
785.499	38.93
785.891	38.95
786.284	38.98
786.676	38.99
787.068	39.03
787.46	39
787.852	39
788.245	38.99
788.636	38.99
789.028	38.98
789.42	38.92
789.812	38.92
790.204	38.9
790.595	38.85
790.987	38.81
791.378	38.79
791.77	38.81
792.161	38.84
792.553	38.82
792.944	38.85
793.335	38.86
793.726	38.86
794.117	38.87
794.508	38.88
794.899	38.92
795.29	38.94
795.681	38.95
796.072	38.93
796.463	38.87
796.853	38.87
797.244	38.86
797.634	38.88
798.025	38.92
798.415	38.91
798.806	38.93
799.196	38.91
799.586	38.9
799.976	38.88
800.366	38.87
800.756	38.89
801.146	38.91
801.536	38.9
801.926	38.87
802.316	38.84
802.706	38.81
803.095	38.8
803.485	38.81
803.874	38.81
804.264	38.84
804.653	38.82
805.043	38.81
805.432	38.76
805.821	38.73
806.21	38.76
806.599	38.78
806.988	38.81
807.377	38.79
807.766	38.78
808.155	38.8
808.544	38.75
808.933	38.76
809.321	38.74
809.71	38.76
810.098	38.76
810.487	38.73
810.875	38.72
811.264	38.68
811.652	38.67
812.04	38.66
812.428	38.65
812.816	38.68
813.204	38.66
813.592	38.67
813.98	38.67
814.368	38.69
814.756	38.69
815.144	38.7
815.531	38.73
815.919	38.74
816.306	38.74
816.694	38.75
817.081	38.7
817.469	38.74
817.856	38.8
818.243	38.79
818.63	38.81
819.017	38.82
819.404	38.81
819.791	38.83
820.178	38.85
820.565	38.87
820.952	38.86
821.339	38.9
821.725	38.89
822.112	38.88
822.498	38.9
822.885	38.89
823.271	38.93
823.657	38.91
824.044	38.9
824.43	38.91
824.816	38.91
825.202	38.93
825.588	38.93
825.974	38.95
826.36	38.94
826.746	38.95
827.132	38.91
827.517	38.89
827.903	38.9
828.289	38.92
828.674	38.9
829.06	38.9
829.445	38.91
829.83	38.93
830.216	38.92
830.601	38.92
830.986	38.91
831.371	38.95
831.756	38.93
832.141	38.94
832.526	38.91
832.911	38.96
833.295	38.96
833.68	38.96
834.065	38.97
834.449	38.96
834.834	38.94
835.218	38.95
835.603	38.96
835.987	38.96
836.371	38.97
836.755	38.97
837.139	38.93
837.524	38.93
837.908	38.91
838.291	38.87
838.675	38.86
839.059	38.86
839.443	38.85
839.827	38.84
840.21	38.85
840.594	38.82
840.977	38.81
841.361	38.82
841.744	38.81
842.127	38.79
842.511	38.78
842.894	38.78
843.277	38.79
843.66	38.79
844.043	38.77
844.426	38.75
844.809	38.74
845.191	38.73
845.574	38.74
845.957	38.71
846.339	38.71
846.722	38.73
847.104	38.75
847.487	38.76
847.869	38.74
848.252	38.74
848.634	38.75
849.016	38.76
849.398	38.78
849.78	38.76
850.162	38.78
850.544	38.81
850.926	38.82
851.307	38.81
851.689	38.78
852.071	38.8
852.452	38.8
852.834	38.8
853.215	38.82
853.597	38.83
853.978	38.82
854.359	38.8
854.741	38.79
855.122	38.76
855.503	38.74
855.884	38.73
856.265	38.73
856.646	38.72
857.026	38.71
857.407	38.69
857.788	38.67
858.169	38.68
858.549	38.69
858.93	38.69
859.31	38.7
859.69	38.69
860.071	38.7
860.451	38.72
860.831	38.71
861.211	38.71
861.591	38.71
861.971	38.69
862.351	38.71
862.731	38.72
863.111	38.71
863.491	38.71
863.87	38.72
864.25	38.73
864.629	38.67
865.009	38.68
865.388	38.69
865.768	38.69
866.147	38.7
866.526	38.68
866.905	38.67
867.284	38.68
867.663	38.67
868.042	38.68
868.421	38.66
868.8	38.68
869.179	38.68
869.558	38.65
869.936	38.64
870.315	38.66
870.693	38.67
871.072	38.65
871.45	38.63
871.828	38.63
872.207	38.61
872.585	38.62
872.963	38.62
873.341	38.62
873.719	38.64
874.097	38.64
874.475	38.65
874.853	38.63
875.23	38.64
875.608	38.62
875.986	38.63
876.363	38.64
876.741	38.62
877.118	38.63
877.495	38.63
877.873	38.59
878.25	38.57
878.627	38.56
879.004	38.57
879.381	38.57
879.758	38.56
880.135	38.58
880.512	38.59
880.889	38.64
881.265	38.64
881.642	38.63
882.019	38.64
882.395	38.65
882.772	38.65
883.148	38.64
883.524	38.66
883.901	38.66
884.277	38.64
884.653	38.64
885.029	38.64
885.405	38.65
885.781	38.67
886.157	38.7
886.532	38.7
886.908	38.72
887.284	38.75
887.659	38.73
888.035	38.74
888.411	38.74
888.786	38.72
889.161	38.71
889.537	38.72
889.912	38.69
890.287	38.68
890.662	38.68
891.037	38.64
891.412	38.62
891.787	38.64
892.162	38.6
892.536	38.6
892.911	38.61
893.286	38.59
893.66	38.58
894.035	38.55
894.409	38.55
894.784	38.55
895.158	38.56
895.532	38.54
895.906	38.52
896.281	38.52
896.655	38.5
897.029	38.5
897.402	38.51
897.776	38.48
898.15	38.51
898.524	38.5
898.898	38.46
899.271	38.45
899.645	38.45
900.018	38.43
900.392	38.44
900.765	38.42
901.138	38.42
901.511	38.38
901.884	38.38
902.258	38.36
902.631	38.35
903.003	38.36
903.376	38.34
903.749	38.34
904.122	38.33
904.495	38.33
904.867	38.32
905.24	38.31
905.612	38.32
905.985	38.31
906.357	38.29
906.729	38.29
907.102	38.26
907.474	38.27
907.846	38.25
908.218	38.26
908.59	38.23
908.962	38.25
909.334	38.24
909.705	38.24
910.077	38.22
910.449	38.21
910.82	38.22
911.192	38.23
911.563	38.21
911.935	38.21
912.306	38.23
912.677	38.24
913.048	38.18
913.419	38.15
913.79	38.12
914.161	38.14
914.532	38.15
914.903	38.14
915.274	38.15
915.645	38.18
916.015	38.19
916.386	38.15
916.756	38.12
917.127	38.15
917.497	38.18
917.868	38.2
918.238	38.18
918.608	38.15
918.978	38.13
919.348	38.1
919.718	38.06
920.088	38.05
920.458	38.07
920.828	38.09
921.198	38.1
921.567	38.08
921.937	38.07
922.306	38.07
922.676	38.09
923.045	38.08
923.415	38.08
923.784	38.07
924.153	38.06
924.522	38.05
924.891	38.02
925.26	37.97
925.629	37.98
925.998	37.99
926.367	37.96
926.736	37.92
927.104	37.93
927.473	37.96
927.842	37.96
928.21	37.95
928.578	37.9
928.947	37.89
929.315	37.91
929.683	37.86
930.051	37.85
930.42	37.87
930.788	37.9
931.156	37.88
931.523	37.87
931.891	37.81
932.259	37.78
932.627	37.74
932.994	37.71
933.362	37.65
933.729	37.6
934.097	37.48
934.464	37.4
934.831	37.32
935.199	37.28
935.566	37.16
935.933	37.12
936.3	37.03
936.667	37.04
937.034	36.97
937.401	36.88
937.767	36.9
938.134	36.94
938.501	36.92
938.867	36.87
939.234	36.82
939.6	36.79
939.967	36.85
940.333	36.95
940.699	37
941.065	37.02
941.431	37.12
941.798	37.15
942.163	37.18
942.529	37.25
942.895	37.3
943.261	37.37
943.627	37.48
943.992	37.56
944.358	37.52
944.723	37.45
945.089	37.49
945.454	37.5
945.82	37.48
946.185	37.46
946.55	37.5
946.915	37.46
947.28	37.43
947.645	37.37
948.01	37.28
948.375	37.32
948.74	37.33
949.104	37.38
949.469	37.4
949.834	37.41
950.198	37.37
950.562	37.29
950.927	37.33
951.291	37.27
951.655	37.33
952.02	37.33
952.384	37.28
952.748	37.29
953.112	37.2
953.476	37.17
953.839	37.17
954.203	37.14
954.567	37.14
954.931	37.12
955.294	37.12
955.658	37.08
956.021	37.09
956.385	37.09
956.748	37.08
957.111	37.12
957.474	37.12
957.837	37.12
958.2	37.12
958.563	37.16
958.926	37.1
959.289	37.14
959.652	37.15
960.015	37.1
960.377	37.13
960.74	37.05
961.102	36.97
961.465	36.9
961.827	36.78
962.189	36.75
962.552	36.63
962.914	36.62
963.276	36.51
963.638	36.44
964	36.45
964.362	36.36
964.724	36.4
965.085	36.44
965.447	36.44
965.809	36.45
966.17	36.48
966.532	36.59
966.893	36.62
967.255	36.68
967.616	36.74
967.977	36.72
968.338	36.69
968.699	36.66
969.061	36.63
969.421	36.62
969.782	36.65
970.143	36.54
970.504	36.48
970.865	36.38
971.225	36.4
971.586	36.43
971.946	36.4
972.307	36.42
972.667	36.49
973.027	36.55
973.388	36.5
973.748	36.51
974.108	36.58
974.468	36.59
974.828	36.65
975.188	36.65
975.548	36.57
975.907	36.6
976.267	36.59
976.627	36.47
976.986	36.4
977.346	36.51
977.705	36.48
978.064	36.5
978.424	36.47
978.783	36.46
979.142	36.44
979.501	36.38
979.86	36.29
980.219	36.26
980.578	36.34
980.937	36.35
981.296	36.3
981.654	36.34
982.013	36.31
982.371	36.33
982.73	36.28
983.088	36.18
983.447	36.24
983.805	36.3
984.163	36.36
984.521	36.3
984.879	36.33
985.237	36.37
985.595	36.33
985.953	36.38
986.311	36.35
986.669	36.4
987.026	36.31
987.384	36.31
987.741	36.37
988.099	36.29
988.456	36.33
988.814	36.26
989.171	36.21
989.528	36.11
989.885	35.99
990.242	35.98
990.599	35.93
990.956	36.17
991.313	36.17
991.67	36.09
992.027	36.06
992.383	35.94
992.74	35.93
993.096	35.86
993.453	35.83
993.809	35.89
994.165	35.87
994.522	35.78
994.878	35.7
995.234	35.6
995.59	35.45
995.946	35.51
996.302	35.51
996.658	35.64
997.013	35.57
997.369	35.58
997.725	35.59
998.08	35.51
998.436	35.64
998.791	35.6
999.147	35.48
999.502	35.57
999.857	35.52
1000.212	35.48
1000.567	35.28
1000.922	35.42
1001.277	35.47
1001.632	35.47
1001.987	35.57
1002.342	35.54
1002.696	35.56
1003.051	35.56
1003.406	35.51
1003.76	35.52
1004.114	35.68
1004.469	35.6
1004.823	35.53
1005.177	35.58
1005.531	35.49
1005.885	35.38
1006.239	35.36
1006.593	35.2
1006.947	35.29
1007.301	35.43
1007.655	35.41
1008.008	35.2
1008.362	35.2
1008.715	35.31
1009.069	35.27
1009.422	35.14
1009.776	35.11
1010.129	35.02
1010.482	35.13
1010.835	35.22
1011.188	35.07
1011.541	34.87
1011.894	34.99
1012.247	34.97
1012.6	34.74
1012.952	34.61
1013.305	34.54
1013.657	34.39
1014.01	34.41
1014.362	34.33
1014.715	34.19
1015.067	34.1
1015.419	34.2
1015.771	34.15
1016.123	34.01
1016.475	33.99
1016.827	34.1
1017.179	33.98
1017.531	34.07
1017.883	34.18
1018.234	33.86
1018.586	33.59
1018.938	33.43
1019.289	33.3
1019.64	33.26
1019.992	33.37
1020.343	33.49
1020.694	33.11
1021.045	33.28
1021.396	33.28
1021.747	32.95
1022.098	33.33
1022.449	33.44
1022.8	33.34
1023.151	33.28
1023.501	33.13
1023.852	33.19
1024.202	33.16
1024.553	33.35
1024.903	33.34
1025.253	33.45
1025.604	33.45
1025.954	33.05
1026.304	33.39
1026.654	33.69
1027.004	34.11
1027.354	33.96
1027.703	33.75
1028.053	33.37
1028.403	33.19
1028.753	33.1
1029.102	32.94
1029.452	33.01
1029.801	33.24
1030.15	32.96
1030.499	32.86
897.758	-101.79
901.051	-92.11
904.343	-95.04
907.636	-93.61
910.928	-83.96
914.22	-89.28
917.511	-92.42
920.803	-80.57
924.094	-75.44
927.384	-76.17
930.675	-68.12
933.965	-68.25
937.255	-70.58
940.544	-64.58
943.834	-64.91
947.123	-67.6
950.411	-56.56
953.7	-51.55
956.988	-55.33
960.276	-48.16
963.563	-44.86
966.851	-41.24
970.138	-38.42
973.424	-33.45
976.711	-32.1
979.997	-26.36
983.283	-26
986.568	-26.18
989.853	-22.53
993.138	-17.13
996.423	-19.33
999.708	-16.67
1002.992	-16.85
1006.275	-14.16
1009.559	-13.67
1012.842	-12.41
1016.125	-11.49
1019.408	-9.4
1022.69	-7.15
1025.972	-6.67
1029.254	-6.74
1032.536	-4.17
1035.817	-4.81
1039.098	-2.72
1042.379	-1.68
1045.659	-0.26
1048.939	0.98
1052.219	2.83
1055.498	3.16
1058.778	3.26
1062.057	3.38
1065.335	5.69
1068.614	5.02
1071.892	6.43
1075.17	6.08
1078.447	6.14
1081.724	6.23
1085.001	5.15
1088.278	4.63
1091.554	4.01
1094.83	4.61
1098.106	5.4
1101.382	5.1
1104.657	6.45
1107.932	6.36
1111.206	7.37
1114.481	8.49
1117.755	7.29
1121.029	8.6
1124.302	9.81
1127.575	11.36
1130.848	10.67
1134.121	10.63
1137.393	11.01
1140.665	9.9
1143.937	10.07
1147.208	10.21
1150.48	10.12
1153.75	10.02
1157.021	11.33
1160.291	11.61
1163.561	10.38
1166.831	11.53
1170.101	11.3
1173.37	10.96
1176.639	11.47
1179.907	11.58
1183.176	11.14
1186.444	10.56
1189.711	11.48
1192.979	9.85
1196.246	10.4
1199.513	11.2
1202.78	9.67
1206.046	10.15
1209.312	10.77
1212.578	10.55
1215.843	10.49
1219.108	9.59
1222.373	10.02
1225.638	9.87
1228.902	9.67
1232.166	7.38
1235.43	5.59
1238.693	6.19
1241.956	4.72
1245.219	2.75
1248.482	3.87
1251.744	3.29
1255.006	4.21
1258.268	4.15
1261.529	4.04
1264.79	5.18
1268.051	6.25
1271.312	7.98
1274.572	7.91
1277.832	10.05
1281.092	10.36
1284.351	10.29
1287.61	10.14
1290.869	10.84
1294.128	10.89
1297.386	11.84
1300.644	11.49
1303.902	9.71
1307.159	9.99
1310.416	9.73
1313.673	8.66
1316.93	8.53
1320.186	8.45
1323.442	7.57
1326.697	6.09
1329.953	4.78
1333.208	1.9
1336.463	-0.19
1339.717	1.49
1342.972	-0.52
1346.226	-2.01
1349.479	-3.42
1352.733	-4.55
1355.986	-8.25
1359.238	-8.2
1362.491	-9.56
1365.743	-10.11
1368.995	-8.31
1372.247	-9.99
1375.498	-11.46
1378.749	-15.53
1382	-16.22
1385.251	-17.34
1388.501	-18.07
1391.751	-18.05
1395	-18.58
1398.25	-19.24
1401.499	-21.53
1404.748	-24.22
1407.996	-20.84
1411.244	-21.48
1414.492	-20.69
1417.74	-20.78
1420.987	-18.87
1424.234	-19.8
1427.481	-20.01
1430.728	-19.5
1433.974	-18.63
1437.22	-16.88
1440.465	-16.02
1443.711	-16.21
1446.956	-15.42
1450.201	-13.55
1453.445	-11.74
1456.689	-11.57
1459.933	-10.36
1463.177	-8.89
1466.42	-8.63
1469.663	-8.34
1472.906	-7.56
1476.148	-7.05
1479.391	-6.78
1482.633	-6.17
1485.874	-5.35
1489.115	-4.7
1492.356	-3.97
1495.597	-3.25
1498.838	-2.81
1502.078	-1.9
1505.318	-1.43
1508.557	-1.39
1511.797	0.07
1515.036	1.8
1518.274	1.85
1521.513	1.99
1524.751	2.22
1527.989	3.16
1531.227	3.3
1534.464	4.64
1537.701	4.85
1540.938	5.23
1544.174	5.09
1547.41	5.14
1550.646	5.35
1553.882	6.24
1557.117	6.97
1560.352	7.21
1563.587	6.96
1566.821	7.08
1570.055	7.55
1573.289	7.83
1576.523	8.33
1579.756	9.26
1582.989	9.49
1586.222	8.96
1589.454	9.57
1592.686	9.46
1595.918	9.26
1599.15	9.81
1602.381	9.92
1605.612	10.17
1608.843	9.88
1612.073	9.59
1615.303	10.3
1618.533	10.22
1621.762	10.2
1624.992	9.46
1628.221	9.52
1631.449	10.3
1634.678	10.19
1637.906	10.47
1641.134	9.99
1644.361	10.22
1647.588	10.69
1650.815	10.18
1654.042	10.61
1657.269	10.72
1660.495	11.17
1663.72	11.59
1666.946	10.84
1670.171	11.02
1673.396	10.87
1676.621	10.96
1679.845	11.54
1683.069	10.42
1686.293	10.5
1689.517	10.44
1692.74	10.59
1695.963	10.25
1699.185	9.61
1702.408	9.96
1705.63	9.98
1708.852	9.54
1712.073	9.19
1715.294	8.4
1718.515	9.59
1721.736	9.23
1724.956	8.68
1728.176	8.84
1731.396	8.26
1734.616	8.62
1737.835	8.25
1741.054	7.77
1744.272	8.85
1747.491	8.85
1750.709	8.44
1753.927	7.82
1757.144	7.99
1760.361	7.63
1763.578	7.31
1766.795	7.92
1770.011	7.41
1773.227	7.07
1776.443	6.69
1779.658	5.38
1782.874	5.08
1786.089	4.71
1789.303	5
1792.518	4.02
1795.732	4.35
1798.945	4.52
1802.159	4.52
1805.372	3.99
1808.585	3.68
1811.797	3.97
1815.01	3.9
1818.222	4.32
1821.434	3.93
1824.645	2.74
1827.856	2.89
1831.067	1.89
1834.278	1.81
1837.488	0.98
1840.698	0.51
1843.908	0.37
1847.117	-0.32
1850.326	-1.24
1853.535	-0.74
1856.744	-1.75
1859.952	-1.96
1863.16	-2.82
1866.368	-2.84
1869.575	-4.53
1872.782	-5.27
1875.989	-7.13
1879.196	-6.97
1882.402	-8.9
1885.608	-8.88
1888.814	-11.68
1892.019	-13.04
1895.224	-14.06
1898.429	-14.68
1901.634	-16
1904.838	-18.05
1908.042	-18.66
1911.246	-18.41
1914.449	-19.58
1917.652	-20.31
1920.855	-21.31
1924.058	-21.94
1927.26	-22.26
1930.462	-22.21
1933.664	-21.35
1936.865	-21.51
1940.066	-20.33
1943.267	-21.16
1946.467	-20.84
1949.668	-21.32
1952.868	-20.24
1956.067	-20.28
1959.267	-19.3
1962.466	-19.29
1965.665	-18.97
1968.863	-19.93
1972.061	-19.89
1975.259	-20.02
1978.457	-20.83
1981.654	-20.65
1984.852	-20.52
1988.048	-20.62
1991.245	-20.82
1994.441	-20.94
1997.637	-21.77
2000.833	-20.89
2004.028	-21.44
2007.223	-23.09
2010.418	-22.85
2013.613	-22.23
2016.807	-23.18
2020.001	-23.13
2023.194	-22.76
2026.388	-24.54
2029.581	-25.23
2032.774	-25.63
2035.966	-27.74
2039.158	-27.6
2042.35	-27.43
2045.542	-29.11
2048.733	-31.07
2051.924	-33.06
2055.115	-34.82
2058.306	-35.85
2061.496	-36.74
2064.686	-38.06
2067.875	-36.61
2071.065	-35.93
2074.254	-37.13
2077.442	-39.02
2080.631	-39.31
2083.819	-38.27
2087.007	-38.28
2090.195	-38.49
2093.382	-38.74
2096.569	-38.05
2099.756	-37.33
2102.942	-38.07
2106.128	-41.33
2109.314	-39.28
2112.5	-37.82
2115.685	-38.58
2118.87	-38.76
2122.055	-37.03
2125.239	-40.43
2128.424	-39.67
2131.608	-40.92
2134.791	-42.01
2137.974	-43.88
2141.157	-42.36
2144.34	-44.12
2147.523	-44.66
2150.705	-45.12
2153.887	-45.19
2157.068	-46.43
2160.25	-46.8
2163.431	-45.74
2166.611	-44.46
2169.792	-45.6
2172.972	-43.99
2176.152	-42.78
2179.331	-46.83
2182.511	-47.08
2185.69	-46.47
2188.868	-50.54
2192.047	-52.43
2195.225	-49.94
2198.403	-58.5
2201.58	-56.57
2204.758	-58.56
2207.935	-60.87
2211.111	-68.8
2214.288	-65.22
2217.464	-65.57
2220.64	-64.54
2223.815	-64.6
2226.991	-63.64
2230.166	-62.69
2233.34	-62.28
2236.515	-70.01
2239.689	-69.9
2242.863	-69.25
2246.036	-64.45
2249.209	-70.01
2252.382	-70
2255.555	-76.56
2258.727	-76.2
2261.9	-81.92
2265.071	-84.22
2268.243	-79.96
2271.414	-81.35
2274.585	-82.97
2277.756	-86.38
2280.926	-91.49
2284.096	-89.17
2287.266	-89.38
2290.436	-86.34
2293.605	-84.86
2296.774	-85.88
2299.942	-88.68
2303.111	-90.96
2306.279	-91.5
2309.447	-91.61
2312.614	-90.12
2315.781	-93.34
2318.948	-95.07
2322.115	-97.26
2325.281	-112.7
2328.447	-113.06
2331.613	-114.38
2334.779	-115.5
2337.944	-121.81
2341.109	-127.09
2344.274	-123
2347.438	-129.38
2350.602	-129.37
2353.766	-143.49
2356.929	-144.36
2360.092	-135.6
2363.255	-138.71
2366.418	-136.27
2369.58	-139.76
2372.742	-135.44
2375.904	-129.08
2379.066	-136.46
2382.227	-142.28
2385.388	-148.5
2388.548	-129.24
2391.709	-126.57
2394.869	-135.66
2398.029	-134.29
2401.188	-138.54
2404.347	-144.59
2407.506	-152.13
2410.665	-144.97
2413.823	-154.21
2416.981	-154.39
2420.139	-143.14
2423.296	-160.75
2426.453	-176.53
2429.61	-165.52
2432.767	-183.05
2435.923	-181.85
2439.079	-175.31
2442.235	-187.72
2445.391	-193.65
2448.546	-181.98
2451.701	-198.8
2454.855	-215.36
2458.009	-181.59
2461.163	-186.63
2464.317	-182.8
2467.471	-173.06
2470.624	-185.64
2473.777	-180.29
2476.929	-160.89
2480.082	-179.92
2483.234	-194.78
2486.385	-196.21
2489.537	-200.05
2492.688	-227.17
2495.839	-223.48
2498.989	-235.37
2502.14	-240.54
2505.29	-224.96
2508.439	-253.01
2511.589	-265.62
2514.738	-258.39
2517.887	-256.35
2521.035	-229.93
2524.183	-236.99
2527.331	-230.29
2530.479	-220.88
2533.627	-228.72
