Data from c_1_div_wi_4n_031_Splice17_11.txt Node
Date: Sat Feb 29 13:23:36 EST 2020
User: sa697716
Spectrometer: FLMS03696
Trigger mode: 0
Integration Time (sec): 3.180400E-1
Scans to average: 20
Electric dark correction enabled: true
Nonlinearity correction enabled: true
Boxcar width: 5
XAxis mode: Wavelengths
Number of Pixels in Spectrum: 2048
>>>>>Begin Spectral Data<<<<<
187.83	54.15
188.298	50.9
188.766	47.01
189.233	38.44
189.701	49.23
190.169	49.07
190.636	54.02
191.104	69.58
191.571	262.29
192.039	237.1
192.506	-326.12
192.974	699.84
193.441	131.58
193.908	7.33
194.375	-95.73
194.842	62.7
195.31	29.46
195.777	60.77
196.244	66.73
196.711	64.34
197.177	60.82
197.644	60.78
198.111	60.74
198.578	60.82
199.045	61.58
199.511	62.36
199.978	62.28
200.445	62.55
200.911	62.33
201.378	62.68
201.844	63.21
202.31	64.07
202.777	64.3
203.243	64.58
203.709	64.81
204.176	64.37
204.642	63.8
205.108	63
205.574	62.79
206.04	62.26
206.506	61.36
206.972	60.24
207.438	59.17
207.903	58.23
208.369	56.65
208.835	55.63
209.301	54.95
209.766	53.96
210.232	53.29
210.697	52.13
211.163	51.16
211.628	50.3
212.094	49.68
212.559	48.79
213.024	48.1
213.49	47.35
213.955	46.35
214.42	45.06
214.885	43.51
215.35	41.93
215.815	39.82
216.28	37.64
216.745	35.16
217.21	32.67
217.675	30.36
218.14	28.06
218.604	26.13
219.069	24.55
219.534	23.1
219.998	22.11
220.463	21.11
220.927	20.32
221.392	19.61
221.856	18.98
222.32	18.4
222.785	17.91
223.249	17.54
223.713	17.2
224.177	16.85
224.642	16.53
225.106	16.16
225.57	15.84
226.034	15.57
226.497	15.29
226.961	15
227.425	14.73
227.889	14.5
228.353	14.26
228.816	14.01
229.28	13.73
229.744	13.53
230.207	13.33
230.671	13.13
231.134	12.93
231.597	12.75
232.061	12.59
232.524	12.43
232.987	12.26
233.45	12.11
233.914	11.98
234.377	11.88
234.84	11.74
235.303	11.62
235.766	11.49
236.229	11.38
236.691	11.26
237.154	11.15
237.617	11.04
238.08	10.94
238.542	10.82
239.005	10.7
239.468	10.57
239.93	10.46
240.393	10.36
240.855	10.27
241.317	10.17
241.78	10.07
242.242	9.97
242.704	9.88
243.166	9.78
243.629	9.68
244.091	9.59
244.553	9.52
245.015	9.44
245.477	9.35
245.939	9.25
246.4	9.16
246.862	9.09
247.324	9.01
247.786	8.93
248.247	8.86
248.709	8.79
249.17	8.71
249.632	8.63
250.093	8.55
250.555	8.47
251.016	8.42
251.477	8.35
251.939	8.28
252.4	8.22
252.861	8.16
253.322	8.1
253.783	8.05
254.244	8
254.705	7.93
255.166	7.89
255.627	7.84
256.088	7.77
256.549	7.72
257.009	7.66
257.47	7.6
257.931	7.54
258.391	7.48
258.852	7.4
259.312	7.34
259.773	7.29
260.233	7.24
260.694	7.18
261.154	7.14
261.614	7.08
262.074	7.04
262.534	6.98
262.994	6.94
263.455	6.89
263.915	6.85
264.374	6.81
264.834	6.76
265.294	6.72
265.754	6.68
266.214	6.64
266.673	6.6
267.133	6.56
267.593	6.53
268.052	6.49
268.512	6.46
268.971	6.43
269.431	6.4
269.89	6.37
270.349	6.34
270.809	6.32
271.268	6.3
271.727	6.28
272.186	6.26
272.645	6.23
273.104	6.21
273.563	6.19
274.022	6.18
274.481	6.15
274.94	6.13
275.399	6.1
275.857	6.08
276.316	6.05
276.775	6.03
277.233	6
277.692	5.98
278.15	5.95
278.609	5.92
279.067	5.89
279.525	5.87
279.984	5.85
280.442	5.83
280.9	5.81
281.358	5.78
281.816	5.76
282.274	5.73
282.732	5.72
283.19	5.71
283.648	5.69
284.106	5.68
284.564	5.67
285.021	5.65
285.479	5.64
285.937	5.62
286.394	5.61
286.852	5.6
287.309	5.59
287.767	5.56
288.224	5.54
288.682	5.52
289.139	5.5
289.596	5.46
290.053	5.44
290.511	5.4
290.968	5.37
291.425	5.34
291.882	5.31
292.339	5.29
292.796	5.26
293.252	5.23
293.709	5.2
294.166	5.18
294.623	5.17
295.079	5.15
295.536	5.13
295.992	5.12
296.449	5.1
296.905	5.08
297.362	5.06
297.818	5.04
298.274	5.03
298.731	5.01
299.187	4.99
299.643	4.97
300.099	4.97
300.555	4.95
301.011	4.93
301.467	4.91
301.923	4.9
302.379	4.9
302.835	4.89
303.291	4.87
303.746	4.86
304.202	4.85
304.658	4.84
305.113	4.82
305.569	4.81
306.024	4.81
306.479	4.8
306.935	4.79
307.39	4.78
307.845	4.77
308.301	4.78
308.756	4.78
309.211	4.78
309.666	4.78
310.121	4.77
310.576	4.76
311.031	4.75
311.486	4.76
311.94	4.75
312.395	4.75
312.85	4.75
313.305	4.74
313.759	4.74
314.214	4.73
314.668	4.72
315.123	4.73
315.577	4.72
316.032	4.71
316.486	4.69
316.94	4.68
317.394	4.66
317.849	4.64
318.303	4.63
318.757	4.6
319.211	4.58
319.665	4.57
320.119	4.56
320.572	4.55
321.026	4.53
321.48	4.51
321.934	4.51
322.387	4.5
322.841	4.49
323.295	4.47
323.748	4.47
324.202	4.47
324.655	4.45
325.108	4.44
325.562	4.42
326.015	4.42
326.468	4.4
326.921	4.4
327.374	4.39
327.827	4.38
328.28	4.37
328.733	4.36
329.186	4.36
329.639	4.36
330.092	4.35
330.545	4.35
330.997	4.35
331.45	4.36
331.903	4.36
332.355	4.36
332.808	4.36
333.26	4.36
333.713	4.37
334.165	4.37
334.617	4.37
335.069	4.38
335.522	4.38
335.974	4.37
336.426	4.37
336.878	4.36
337.33	4.35
337.782	4.35
338.234	4.35
338.686	4.35
339.137	4.35
339.589	4.34
340.041	4.34
340.493	4.32
340.944	4.31
341.396	4.3
341.847	4.29
342.299	4.27
342.75	4.24
343.201	4.23
343.653	4.2
344.104	4.17
344.555	4.15
345.006	4.13
345.457	4.12
345.908	4.11
346.359	4.1
346.81	4.1
347.261	4.09
347.712	4.09
348.163	4.09
348.613	4.09
349.064	4.07
349.515	4.06
349.965	4.05
350.416	4.04
350.866	4.04
351.317	4.03
351.767	4.03
352.217	4.02
352.668	4.02
353.118	4.01
353.568	4.01
354.018	4.02
354.468	4.03
354.918	4.04
355.368	4.04
355.818	4.03
356.268	4.03
356.718	4.02
357.168	4.02
357.617	4.02
358.067	4.02
358.517	4.01
358.966	4.01
359.416	4.01
359.865	4.01
360.315	4
360.764	3.99
361.213	3.99
361.663	3.99
362.112	3.99
362.561	3.98
363.01	3.99
363.459	3.98
363.908	3.97
364.357	3.97
364.806	3.97
365.255	3.98
365.703	3.98
366.152	3.98
366.601	3.98
367.05	3.99
367.498	3.99
367.947	4
368.395	4.01
368.844	4.01
369.292	4
369.74	4
370.189	4
370.637	4
371.085	4.01
371.533	4
371.981	3.99
372.429	3.98
372.877	3.98
373.325	3.97
373.773	3.98
374.221	4
374.669	4
375.116	3.99
375.564	4
376.012	4
376.459	4.01
376.907	4.03
377.354	4.05
377.801	4.05
378.249	4.07
378.696	4.09
379.143	4.09
379.591	4.11
380.038	4.12
380.485	4.14
380.932	4.15
381.379	4.16
381.826	4.17
382.273	4.17
382.72	4.19
383.166	4.2
383.613	4.2
384.06	4.22
384.506	4.23
384.953	4.25
385.4	4.26
385.846	4.28
386.292	4.3
386.739	4.32
387.185	4.35
387.631	4.36
388.078	4.38
388.524	4.39
388.97	4.42
389.416	4.44
389.862	4.45
390.308	4.48
390.754	4.48
391.2	4.51
391.645	4.55
392.091	4.58
392.537	4.61
392.983	4.64
393.428	4.68
393.874	4.7
394.319	4.73
394.765	4.75
395.21	4.77
395.655	4.81
396.101	4.83
396.546	4.85
396.991	4.86
397.436	4.87
397.881	4.9
398.326	4.95
398.771	4.99
399.216	5.03
399.661	5.07
400.106	5.12
400.551	5.14
400.995	5.16
401.44	5.19
401.885	5.23
402.329	5.28
402.774	5.29
403.218	5.31
403.663	5.32
404.107	5.35
404.551	5.39
404.995	5.41
405.44	5.45
405.884	5.48
406.328	5.52
406.772	5.55
407.216	5.58
407.66	5.61
408.104	5.64
408.547	5.67
408.991	5.7
409.435	5.73
409.879	5.76
410.322	5.8
410.766	5.84
411.209	5.87
411.653	5.89
412.096	5.91
412.54	5.94
412.983	5.97
413.426	6.01
413.869	6.04
414.312	6.08
414.756	6.11
415.199	6.13
415.642	6.16
416.085	6.18
416.527	6.22
416.97	6.25
417.413	6.26
417.856	6.28
418.298	6.27
418.741	6.27
419.184	6.28
419.626	6.28
420.069	6.3
420.511	6.31
420.953	6.31
421.396	6.34
421.838	6.37
422.28	6.41
422.722	6.44
423.164	6.46
423.606	6.5
424.048	6.51
424.49	6.52
424.932	6.52
425.374	6.53
425.816	6.52
426.258	6.51
426.699	6.5
427.141	6.48
427.582	6.47
428.024	6.49
428.465	6.49
428.907	6.52
429.348	6.54
429.789	6.57
430.231	6.58
430.672	6.61
431.113	6.64
431.554	6.66
431.995	6.7
432.436	6.72
432.877	6.72
433.318	6.73
433.759	6.74
434.2	6.76
434.64	6.77
435.081	6.77
435.522	6.82
435.962	6.84
436.403	6.87
436.843	6.88
437.284	6.9
437.724	6.94
438.164	6.94
438.604	6.96
439.045	6.98
439.485	6.99
439.925	7.01
440.365	6.99
440.805	6.99
441.245	6.98
441.685	7.01
442.125	7.01
442.564	7.01
443.004	7.04
443.444	7.04
443.883	7.06
444.323	7.07
444.762	7.1
445.202	7.14
445.641	7.15
446.081	7.2
446.52	7.2
446.959	7.23
447.398	7.28
447.837	7.33
448.276	7.35
448.716	7.37
449.154	7.4
449.593	7.42
450.032	7.45
450.471	7.46
450.91	7.46
451.349	7.48
451.787	7.46
452.226	7.45
452.664	7.42
453.103	7.41
453.541	7.39
453.98	7.39
454.418	7.36
454.856	7.33
455.295	7.3
455.733	7.29
456.171	7.27
456.609	7.27
457.047	7.26
457.485	7.25
457.923	7.25
458.361	7.24
458.798	7.25
459.236	7.25
459.674	7.25
460.111	7.25
460.549	7.24
460.987	7.25
461.424	7.24
461.862	7.23
462.299	7.24
462.736	7.25
463.173	7.26
463.611	7.25
464.048	7.25
464.485	7.26
464.922	7.27
465.359	7.27
465.796	7.27
466.233	7.3
466.67	7.31
467.106	7.3
467.543	7.3
467.98	7.3
468.416	7.3
468.853	7.3
469.29	7.3
469.726	7.31
470.162	7.29
470.599	7.28
471.035	7.26
471.471	7.25
471.907	7.25
472.344	7.24
472.78	7.24
473.216	7.24
473.652	7.22
474.088	7.22
474.523	7.2
474.959	7.19
475.395	7.18
475.831	7.17
476.266	7.17
476.702	7.16
477.138	7.12
477.573	7.09
478.008	7.08
478.444	7.06
478.879	7.04
479.314	7.03
479.75	7.04
480.185	7.03
480.62	7.02
481.055	7.01
481.49	6.99
481.925	7
482.36	6.97
482.795	6.96
483.229	6.96
483.664	6.94
484.099	6.93
484.534	6.91
484.968	6.91
485.403	6.91
485.837	6.89
486.271	6.88
486.706	6.88
487.14	6.89
487.574	6.9
488.009	6.91
488.443	6.91
488.877	6.92
489.311	6.93
489.745	6.94
490.179	6.95
490.613	6.97
491.046	7
491.48	7.01
491.914	7.04
492.348	7.06
492.781	7.07
493.215	7.09
493.648	7.12
494.082	7.16
494.515	7.19
494.948	7.21
495.382	7.25
495.815	7.27
496.248	7.32
496.681	7.34
497.114	7.39
497.547	7.43
497.98	7.49
498.413	7.53
498.846	7.58
499.279	7.64
499.711	7.69
500.144	7.75
500.577	7.82
501.009	7.89
501.442	7.96
501.874	8.03
502.306	8.11
502.739	8.18
503.171	8.27
503.603	8.37
504.036	8.46
504.468	8.59
504.9	8.69
505.332	8.81
505.764	8.93
506.196	9.05
506.627	9.17
507.059	9.31
507.491	9.46
507.923	9.6
508.354	9.75
508.786	9.9
509.217	10.02
509.649	10.19
510.08	10.36
510.512	10.53
510.943	10.72
511.374	10.91
511.805	11.09
512.237	11.29
512.668	11.48
513.099	11.68
513.53	11.9
513.961	12.14
514.391	12.35
514.822	12.57
515.253	12.78
515.684	13.01
516.114	13.26
516.545	13.5
516.975	13.75
517.406	14
517.836	14.26
518.267	14.53
518.697	14.79
519.127	15.05
519.558	15.31
519.988	15.59
520.418	15.85
520.848	16.1
521.278	16.36
521.708	16.62
522.138	16.88
522.567	17.12
522.997	17.36
523.427	17.61
523.857	17.83
524.286	18.08
524.716	18.29
525.145	18.51
525.575	18.72
526.004	18.94
526.433	19.15
526.863	19.33
527.292	19.53
527.721	19.71
528.15	19.87
528.579	20.07
529.008	20.24
529.437	20.39
529.866	20.53
530.295	20.69
530.724	20.82
531.152	20.94
531.581	21.07
532.01	21.18
532.438	21.3
532.867	21.4
533.295	21.49
533.723	21.58
534.152	21.69
534.58	21.79
535.008	21.85
535.436	21.92
535.865	21.98
536.293	22.06
536.721	22.12
537.149	22.17
537.576	22.22
538.004	22.28
538.432	22.32
538.86	22.36
539.287	22.42
539.715	22.47
540.143	22.51
540.57	22.56
540.998	22.61
541.425	22.64
541.852	22.67
542.28	22.7
542.707	22.74
543.134	22.77
543.561	22.77
543.988	22.8
544.415	22.81
544.842	22.84
545.269	22.89
545.696	22.9
546.123	22.93
546.549	22.96
546.976	22.99
547.403	22.99
547.829	23.01
548.256	23.03
548.682	23.03
549.108	23.06
549.535	23.07
549.961	23.05
550.387	23.04
550.813	23.02
551.24	23.01
551.666	23
552.092	23
552.518	22.96
552.943	22.96
553.369	22.94
553.795	22.9
554.221	22.86
554.646	22.83
555.072	22.8
555.498	22.79
555.923	22.73
556.349	22.65
556.774	22.59
557.199	22.53
557.625	22.47
558.05	22.39
558.475	22.3
558.9	22.21
559.325	22.11
559.75	21.99
560.175	21.86
560.6	21.77
561.025	21.67
561.449	21.55
561.874	21.42
562.299	21.29
562.723	21.15
563.148	21.04
563.572	20.92
563.997	20.79
564.421	20.66
564.846	20.53
565.27	20.37
565.694	20.22
566.118	20.06
566.542	19.93
566.966	19.77
567.39	19.61
567.814	19.43
568.238	19.26
568.662	19.12
569.086	18.95
569.509	18.8
569.933	18.63
570.357	18.48
570.78	18.34
571.204	18.18
571.627	18.03
572.05	17.9
572.474	17.76
572.897	17.63
573.32	17.48
573.743	17.35
574.166	17.22
574.589	17.1
575.012	16.99
575.435	16.86
575.858	16.75
576.281	16.64
576.704	16.53
577.126	16.42
577.549	16.33
577.972	16.22
578.394	16.11
578.817	16.01
579.239	15.93
579.661	15.85
580.084	15.76
580.506	15.68
580.928	15.59
581.35	15.52
581.772	15.45
582.194	15.35
582.616	15.28
583.038	15.22
583.46	15.14
583.882	15.07
584.303	14.99
584.725	14.92
585.147	14.83
585.568	14.76
585.99	14.7
586.411	14.63
586.833	14.58
587.254	14.55
587.675	14.49
588.096	14.45
588.518	14.39
588.939	14.36
589.36	14.31
589.781	14.28
590.202	14.23
590.623	14.17
591.043	14.12
591.464	14.08
591.885	14.02
592.305	13.98
592.726	13.94
593.147	13.91
593.567	13.87
593.987	13.86
594.408	13.82
594.828	13.8
595.248	13.76
595.669	13.74
596.089	13.72
596.509	13.68
596.929	13.64
597.349	13.61
597.769	13.58
598.189	13.55
598.608	13.5
599.028	13.46
599.448	13.43
599.867	13.4
600.287	13.36
600.706	13.31
601.126	13.27
601.545	13.23
601.965	13.18
602.384	13.13
602.803	13.08
603.222	13.02
603.641	12.97
604.061	12.92
604.48	12.88
604.898	12.82
605.317	12.75
605.736	12.69
606.155	12.64
606.574	12.57
606.992	12.5
607.411	12.45
607.829	12.35
608.248	12.28
608.666	12.21
609.085	12.14
609.503	12.07
609.921	12
610.339	11.95
610.758	11.88
611.176	11.81
611.594	11.75
612.012	11.68
612.43	11.68
612.847	11.63
613.265	11.57
613.683	11.5
614.101	11.45
614.518	11.39
614.936	11.34
615.353	11.29
615.771	11.22
616.188	11.18
616.606	11.13
617.023	11.08
617.44	11.01
617.857	10.96
618.274	10.92
618.691	10.88
619.108	10.86
619.525	10.81
619.942	10.78
620.359	10.76
620.776	10.73
621.192	10.71
621.609	10.67
622.026	10.67
622.442	10.65
622.859	10.63
623.275	10.63
623.691	10.61
624.108	10.61
624.524	10.6
624.94	10.58
625.356	10.57
625.772	10.55
626.188	10.56
626.604	10.54
627.02	10.53
627.436	10.52
627.852	10.5
628.268	10.48
628.683	10.46
629.099	10.44
629.514	10.43
629.93	10.4
630.345	10.38
630.761	10.35
631.176	10.32
631.591	10.3
632.007	10.25
632.422	10.22
632.837	10.18
633.252	10.14
633.667	10.09
634.082	10.06
634.497	10.01
634.911	9.96
635.326	9.9
635.741	9.83
636.155	9.76
636.57	9.7
636.984	9.62
637.399	9.53
637.813	9.46
638.228	9.37
638.642	9.29
639.056	9.22
639.47	9.14
639.884	9.05
640.298	8.98
640.712	8.89
641.126	8.81
641.54	8.74
641.954	8.67
642.368	8.6
642.781	8.53
643.195	8.45
643.609	8.39
644.022	8.32
644.436	8.25
644.849	8.19
645.262	8.15
645.676	8.08
646.089	8.02
646.502	7.96
646.915	7.91
647.328	7.88
647.741	7.84
648.154	7.8
648.567	7.77
648.98	7.74
649.393	7.73
649.805	7.69
650.218	7.67
650.631	7.66
651.043	7.64
651.456	7.62
651.868	7.59
652.28	7.57
652.693	7.54
653.105	7.51
653.517	7.48
653.929	7.45
654.341	7.41
654.753	7.38
655.165	7.35
655.577	7.31
655.989	7.26
656.401	7.21
656.813	7.16
657.224	7.12
657.636	7.08
658.047	7.04
658.459	6.99
658.87	6.94
659.282	6.9
659.693	6.85
660.104	6.81
660.515	6.77
660.926	6.76
661.338	6.72
661.749	6.69
662.159	6.65
662.57	6.61
662.981	6.58
663.392	6.55
663.803	6.52
664.213	6.5
664.624	6.47
665.035	6.46
665.445	6.44
665.855	6.42
666.266	6.4
666.676	6.39
667.086	6.37
667.497	6.37
667.907	6.35
668.317	6.34
668.727	6.35
669.137	6.35
669.547	6.37
669.956	6.36
670.366	6.37
670.776	6.39
671.186	6.41
671.595	6.42
672.005	6.44
672.414	6.46
672.824	6.48
673.233	6.5
673.642	6.51
674.052	6.52
674.461	6.53
674.87	6.56
675.279	6.59
675.688	6.61
676.097	6.64
676.506	6.66
676.915	6.7
677.323	6.73
677.732	6.76
678.141	6.81
678.549	6.86
678.958	6.9
679.366	6.94
679.775	6.99
680.183	7.05
680.592	7.1
681	7.16
681.408	7.21
681.816	7.27
682.224	7.35
682.632	7.42
683.04	7.49
683.448	7.58
683.856	7.67
684.264	7.77
684.671	7.88
685.079	7.99
685.487	8.13
685.894	8.28
686.302	8.43
686.709	8.59
687.116	8.76
687.524	8.98
687.931	9.19
688.338	9.44
688.745	9.7
689.152	9.98
689.559	10.29
689.966	10.6
690.373	10.95
690.78	11.32
691.187	11.73
691.593	12.13
692	12.56
692.407	13.01
692.813	13.47
693.22	13.93
693.626	14.4
694.032	14.9
694.439	15.44
694.845	15.95
695.251	16.49
695.657	17.03
696.063	17.59
696.469	18.16
696.875	18.71
697.281	19.27
697.687	19.87
698.093	20.46
698.498	21.06
698.904	21.64
699.31	22.21
699.715	22.79
700.12	23.37
700.526	23.96
700.931	24.53
701.337	25.11
701.742	25.68
702.147	26.28
702.552	26.85
702.957	27.4
703.362	27.96
703.767	28.52
704.172	29.09
704.577	29.64
704.981	30.22
705.386	30.75
705.791	31.32
706.195	31.88
706.6	32.39
707.004	32.91
707.408	33.44
707.813	33.95
708.217	34.45
708.621	34.94
709.025	35.46
709.43	35.92
709.834	36.46
710.237	36.91
710.641	37.38
711.045	37.85
711.449	38.33
711.853	38.79
712.256	39.26
712.66	39.74
713.064	40.2
713.467	40.64
713.87	41.09
714.274	41.52
714.677	41.96
715.08	42.39
715.484	42.84
715.887	43.25
716.29	43.68
716.693	44.07
717.096	44.46
717.499	44.85
717.901	45.22
718.304	45.58
718.707	45.9
719.109	46.29
719.512	46.65
719.915	46.99
720.317	47.33
720.719	47.65
721.122	48.01
721.524	48.37
721.926	48.7
722.328	49.03
722.731	49.37
723.133	49.7
723.535	50
723.937	50.27
724.338	50.54
724.74	50.82
725.142	51.04
725.544	51.31
725.945	51.53
726.347	51.78
726.748	51.98
727.15	52.19
727.551	52.44
727.952	52.63
728.354	52.86
728.755	53.07
729.156	53.27
729.557	53.52
729.958	53.72
730.359	53.92
730.76	54.09
731.161	54.27
731.562	54.43
731.962	54.55
732.363	54.71
732.763	54.87
733.164	55.02
733.564	55.15
733.965	55.28
734.365	55.38
734.766	55.49
735.166	55.59
735.566	55.72
735.966	55.82
736.366	55.94
736.766	56.02
737.166	56.11
737.566	56.18
737.966	56.29
738.365	56.36
738.765	56.42
739.165	56.49
739.564	56.57
739.964	56.62
740.363	56.69
740.763	56.76
741.162	56.82
741.561	56.88
741.96	56.95
742.36	56.99
742.759	57.03
743.158	57.06
743.557	57.11
743.955	57.19
744.354	57.28
744.753	57.35
745.152	57.37
745.55	57.42
745.949	57.47
746.348	57.52
746.746	57.55
747.144	57.65
747.543	57.74
747.941	57.84
748.339	57.87
748.737	57.9
749.136	57.9
749.534	57.94
749.932	58
750.33	58.02
750.727	58.04
751.125	58.08
751.523	58.04
751.921	58.05
752.318	58.05
752.716	58.03
753.113	58.02
753.511	58.04
753.908	58.02
754.305	57.98
754.703	57.96
755.1	57.96
755.497	57.96
755.894	58
756.291	57.99
756.688	58
757.085	58.03
757.482	58.01
757.878	58.03
758.275	58.07
758.672	58.12
759.068	58.15
759.465	58.16
759.861	58.17
760.258	58.15
760.654	58.18
761.05	58.17
761.447	58.14
761.843	58.15
762.239	58.12
762.635	58.11
763.031	58.09
763.427	58.05
763.822	58.02
764.218	58.01
764.614	58.02
765.01	57.98
765.405	57.93
765.801	57.93
766.196	57.91
766.592	57.93
766.987	57.92
767.382	57.93
767.778	57.93
768.173	57.94
768.568	57.89
768.963	57.86
769.358	57.87
769.753	57.92
770.148	57.92
770.542	57.93
770.937	57.92
771.332	57.93
771.726	57.9
772.121	57.86
772.515	57.87
772.91	57.89
773.304	57.87
773.699	57.86
774.093	57.79
774.487	57.8
774.881	57.83
775.275	57.81
775.669	57.82
776.063	57.81
776.457	57.83
776.851	57.79
777.245	57.8
777.638	57.82
778.032	57.83
778.425	57.86
778.819	57.85
779.212	57.8
779.606	57.8
779.999	57.77
780.392	57.79
780.786	57.77
781.179	57.79
781.572	57.79
781.965	57.78
782.358	57.74
782.751	57.74
783.143	57.73
783.536	57.76
783.929	57.83
784.322	57.85
784.714	57.86
785.107	57.9
785.499	57.92
785.891	57.91
786.284	57.9
786.676	57.95
787.068	57.94
787.46	57.94
787.852	57.94
788.245	57.88
788.636	57.88
789.028	57.83
789.42	57.82
789.812	57.8
790.204	57.76
790.595	57.77
790.987	57.77
791.378	57.75
791.77	57.78
792.161	57.8
792.553	57.8
792.944	57.8
793.335	57.85
793.726	57.81
794.117	57.8
794.508	57.88
794.899	57.92
795.29	57.9
795.681	57.96
796.072	57.94
796.463	57.92
796.853	57.91
797.244	57.88
797.634	57.89
798.025	57.92
798.415	57.94
798.806	57.9
799.196	57.89
799.586	57.91
799.976	57.88
800.366	57.9
800.756	57.89
801.146	57.9
801.536	57.93
801.926	57.91
802.316	57.89
802.706	57.89
803.095	57.91
803.485	57.89
803.874	57.87
804.264	57.9
804.653	57.85
805.043	57.84
805.432	57.8
805.821	57.76
806.21	57.77
806.599	57.82
806.988	57.78
807.377	57.79
807.766	57.77
808.155	57.78
808.544	57.72
808.933	57.73
809.321	57.77
809.71	57.83
810.098	57.84
810.487	57.83
810.875	57.76
811.264	57.8
811.652	57.79
812.04	57.82
812.428	57.85
812.816	57.9
813.204	57.93
813.592	57.91
813.98	57.88
814.368	57.89
814.756	57.87
815.144	57.92
815.531	57.91
815.919	57.9
816.306	57.88
816.694	57.86
817.081	57.86
817.469	57.85
817.856	57.88
818.243	57.89
818.63	57.94
819.017	58
819.404	57.98
819.791	58.01
820.178	58.02
820.565	58.03
820.952	58.02
821.339	58.04
821.725	58.04
822.112	58.03
822.498	58
822.885	57.98
823.271	57.97
823.657	57.99
824.044	57.97
824.43	58.01
824.816	58.01
825.202	58.01
825.588	58
825.974	58.01
826.36	58.01
826.746	58.07
827.132	58.05
827.517	58.03
827.903	58.01
828.289	58.05
828.674	58.04
829.06	58.05
829.445	58.11
829.83	58.1
830.216	58.1
830.601	58.1
830.986	58.08
831.371	58.13
831.756	58.14
832.141	58.16
832.526	58.12
832.911	58.14
833.295	58.16
833.68	58.12
834.065	58.15
834.449	58.11
834.834	58.11
835.218	58.13
835.603	58.12
835.987	58.12
836.371	58.15
836.755	58.16
837.139	58.12
837.524	58.1
837.908	58.07
838.291	58.06
838.675	58.1
839.059	58.1
839.443	58.08
839.827	58.06
840.21	58.08
840.594	58.07
840.977	58.07
841.361	58.1
841.744	58.1
842.127	58.15
842.511	58.13
842.894	58.09
843.277	58.08
843.66	58.09
844.043	58.09
844.426	58.07
844.809	58.06
845.191	58.02
845.574	57.99
845.957	57.97
846.339	57.93
846.722	57.96
847.104	57.98
847.487	57.98
847.869	57.98
848.252	57.95
848.634	57.96
849.016	57.94
849.398	57.96
849.78	57.96
850.162	57.99
850.544	58.01
850.926	57.98
851.307	57.99
851.689	57.99
852.071	57.98
852.452	57.99
852.834	57.98
853.215	58.01
853.597	58.02
853.978	57.99
854.359	57.96
854.741	57.94
855.122	57.93
855.503	57.91
855.884	57.9
856.265	57.88
856.646	57.87
857.026	57.82
857.407	57.76
857.788	57.76
858.169	57.78
858.549	57.78
858.93	57.8
859.31	57.79
859.69	57.8
860.071	57.8
860.451	57.83
860.831	57.83
861.211	57.86
861.591	57.9
861.971	57.89
862.351	57.9
862.731	57.91
863.111	57.9
863.491	57.93
863.87	57.92
864.25	57.95
864.629	57.93
865.009	57.94
865.388	57.94
865.768	57.91
866.147	57.91
866.526	57.88
866.905	57.9
867.284	57.88
867.663	57.85
868.042	57.86
868.421	57.83
868.8	57.83
869.179	57.85
869.558	57.85
869.936	57.85
870.315	57.85
870.693	57.88
871.072	57.86
871.45	57.86
871.828	57.89
872.207	57.9
872.585	57.91
872.963	57.89
873.341	57.9
873.719	57.89
874.097	57.92
874.475	57.93
874.853	57.89
875.23	57.92
875.608	57.91
875.986	57.88
876.363	57.88
876.741	57.88
877.118	57.85
877.495	57.81
877.873	57.8
878.25	57.78
878.627	57.77
879.004	57.78
879.381	57.78
879.758	57.79
880.135	57.8
880.512	57.81
880.889	57.82
881.265	57.87
881.642	57.89
882.019	57.91
882.395	57.93
882.772	57.93
883.148	57.92
883.524	57.89
883.901	57.87
884.277	57.87
884.653	57.85
885.029	57.83
885.405	57.79
885.781	57.77
886.157	57.77
886.532	57.75
886.908	57.76
887.284	57.78
887.659	57.81
888.035	57.86
888.411	57.84
888.786	57.84
889.161	57.85
889.537	57.86
889.912	57.86
890.287	57.83
890.662	57.81
891.037	57.8
891.412	57.76
891.787	57.74
892.162	57.69
892.536	57.71
892.911	57.67
893.286	57.64
893.66	57.62
894.035	57.59
894.409	57.59
894.784	57.58
895.158	57.56
895.532	57.56
895.906	57.55
896.281	57.55
896.655	57.53
897.029	57.57
897.402	57.62
897.776	57.65
898.15	57.69
898.524	57.73
898.898	57.73
899.271	57.73
899.645	57.73
900.018	57.71
900.392	57.73
900.765	57.74
901.138	57.73
901.511	57.69
901.884	57.69
902.258	57.63
902.631	57.6
903.003	57.63
903.376	57.64
903.749	57.65
904.122	57.63
904.495	57.61
904.867	57.61
905.24	57.6
905.612	57.59
905.985	57.54
906.357	57.55
906.729	57.52
907.102	57.49
907.474	57.51
907.846	57.53
908.218	57.54
908.59	57.51
908.962	57.47
909.334	57.46
909.705	57.48
910.077	57.48
910.449	57.49
910.82	57.47
911.192	57.43
911.563	57.4
911.935	57.36
912.306	57.39
912.677	57.41
913.048	57.4
913.419	57.39
913.79	57.37
914.161	57.35
914.532	57.35
914.903	57.39
915.274	57.39
915.645	57.39
916.015	57.41
916.386	57.37
916.756	57.33
917.127	57.36
917.497	57.37
917.868	57.36
918.238	57.38
918.608	57.42
918.978	57.39
919.348	57.36
919.718	57.37
920.088	57.39
920.458	57.45
920.828	57.5
921.198	57.53
921.567	57.48
921.937	57.49
922.306	57.46
922.676	57.42
923.045	57.39
923.415	57.44
923.784	57.46
924.153	57.41
924.522	57.36
924.891	57.31
925.26	57.28
925.629	57.3
925.998	57.29
926.367	57.3
926.736	57.28
927.104	57.34
927.473	57.37
927.842	57.35
928.21	57.39
928.578	57.38
928.947	57.39
929.315	57.41
929.683	57.44
930.051	57.45
930.42	57.43
930.788	57.48
931.156	57.45
931.523	57.41
931.891	57.35
932.259	57.31
932.627	57.27
932.994	57.24
933.362	57.19
933.729	57.14
934.097	57.08
934.464	57.09
934.831	57.07
935.199	57.05
935.566	57.01
935.933	57.01
936.3	57
936.667	57
937.034	57
937.401	56.97
937.767	56.96
938.134	57.05
938.501	56.99
938.867	57
939.234	57.03
939.6	57.12
939.967	57.23
940.333	57.3
940.699	57.38
941.065	57.51
941.431	57.6
941.798	57.73
942.163	57.75
942.529	57.83
942.895	57.77
943.261	57.75
943.627	57.77
943.992	57.69
944.358	57.67
944.723	57.7
945.089	57.65
945.454	57.67
945.82	57.61
946.185	57.67
946.55	57.78
946.915	57.8
947.28	57.82
947.645	57.78
948.01	57.87
948.375	57.81
948.74	57.69
949.104	57.73
949.469	57.64
949.834	57.63
950.198	57.48
950.562	57.37
950.927	57.39
951.291	57.3
951.655	57.29
952.02	57.17
952.384	57.18
952.748	57.19
953.112	57.16
953.476	57.17
953.839	57.09
954.203	57.05
954.567	57.05
954.931	57.07
955.294	57.09
955.658	57.03
956.021	57.05
956.385	57.01
956.748	57.04
957.111	57
957.474	57.03
957.837	57.05
958.2	57.02
958.563	56.9
958.926	56.81
959.289	56.89
959.652	56.91
960.015	56.87
960.377	56.83
960.74	56.76
961.102	56.73
961.465	56.74
961.827	56.59
962.189	56.6
962.552	56.64
962.914	56.62
963.276	56.56
963.638	56.49
964	56.49
964.362	56.5
964.724	56.49
965.085	56.53
965.447	56.44
965.809	56.5
966.17	56.55
966.532	56.57
966.893	56.54
967.255	56.47
967.616	56.51
967.977	56.52
968.338	56.55
968.699	56.47
969.061	56.4
969.421	56.38
969.782	56.36
970.143	56.32
970.504	56.26
970.865	56.24
971.225	56.25
971.586	56.29
971.946	56.26
972.307	56.24
972.667	56.37
973.027	56.42
973.388	56.34
973.748	56.41
974.108	56.33
974.468	56.36
974.828	56.44
975.188	56.39
975.548	56.35
975.907	56.37
976.267	56.41
976.627	56.25
976.986	56.24
977.346	56.26
977.705	56.26
978.064	56.36
978.424	56.31
978.783	56.24
979.142	56.23
979.501	56.21
979.86	56.17
980.219	56.15
980.578	56.31
980.937	56.36
981.296	56.4
981.654	56.46
982.013	56.51
982.371	56.57
982.73	56.68
983.088	56.75
983.447	56.82
983.805	56.85
984.163	56.88
984.521	56.77
984.879	56.71
985.237	56.69
985.595	56.68
985.953	56.55
986.311	56.61
986.669	56.56
987.026	56.58
987.384	56.52
987.741	56.6
988.099	56.59
988.456	56.69
988.814	56.76
989.171	56.78
989.528	56.74
989.885	56.79
990.242	56.8
990.599	56.81
990.956	56.78
991.313	56.83
991.67	56.87
992.027	56.84
992.383	56.89
992.74	56.91
993.096	56.96
993.453	57.05
993.809	57.14
994.165	57.23
994.522	57.21
994.878	57.28
995.234	57.37
995.59	57.22
995.946	57.41
996.302	57.32
996.658	57.34
997.013	57.45
997.369	57.49
997.725	57.54
998.08	57.57
998.436	57.85
998.791	57.8
999.147	57.74
999.502	57.95
999.857	57.98
1000.212	57.93
1000.567	57.86
1000.922	57.9
1001.277	57.88
1001.632	57.98
1001.987	57.84
1002.342	57.7
1002.696	57.9
1003.051	57.79
1003.406	57.68
1003.76	57.54
1004.114	57.8
1004.469	57.87
1004.823	57.94
1005.177	57.91
1005.531	57.74
1005.885	57.72
1006.239	57.78
1006.593	57.58
1006.947	57.73
1007.301	57.82
1007.655	58
1008.008	57.89
1008.362	57.9
1008.715	57.84
1009.069	57.75
1009.422	57.8
1009.776	58.02
1010.129	57.79
1010.482	58.2
1010.835	58.33
1011.188	58.24
1011.541	57.89
1011.894	57.94
1012.247	57.85
1012.6	57.88
1012.952	58.21
1013.305	58.26
1013.657	58.19
1014.01	58.45
1014.362	58.31
1014.715	58.25
1015.067	58.36
1015.419	58.72
1015.771	58.84
1016.123	58.92
1016.475	59.02
1016.827	59.13
1017.179	59.26
1017.531	59.19
1017.883	59.25
1018.234	59.33
1018.586	59.62
1018.938	59.59
1019.289	59.44
1019.64	59.62
1019.992	59.93
1020.343	59.95
1020.694	59.78
1021.045	59.69
1021.396	59.58
1021.747	59.68
1022.098	59.62
1022.449	59.23
1022.8	59.23
1023.151	59.26
1023.501	59.34
1023.852	59.26
1024.202	59.21
1024.553	59.2
1024.903	59.09
1025.253	59.49
1025.604	59.44
1025.954	59.51
1026.304	59.91
1026.654	60.32
1027.004	61.03
1027.354	60.95
1027.703	60.85
1028.053	60.68
1028.403	61.02
1028.753	61.28
1029.102	61.06
1029.452	60.78
1029.801	60.44
1030.15	60.31
1030.499	60.06
897.758	290.75
901.051	305.08
904.343	306.21
907.636	301.41
910.928	295.84
914.22	303.66
917.511	295.87
920.803	286.59
924.094	278.58
927.384	279.86
930.675	271.39
933.965	268.21
937.255	264.58
940.544	254.5
943.834	243.69
947.123	240.89
950.411	230.94
953.7	228.38
956.988	221.96
960.276	212.83
963.563	213.08
966.851	202.87
970.138	201.18
973.424	188.9
976.711	187.65
979.997	184.16
983.283	179.44
986.568	172.03
989.853	169.39
993.138	165.49
996.423	161.13
999.708	156.02
1002.992	157.79
1006.275	155.09
1009.559	155.11
1012.842	149.48
1016.125	144.16
1019.408	143.17
1022.69	142.91
1025.972	141.83
1029.254	138.59
1032.536	138.27
1035.817	134.69
1039.098	132.26
1042.379	131.64
1045.659	129.67
1048.939	129.21
1052.219	128.31
1055.498	127.47
1058.778	125.39
1062.057	123.78
1065.335	123.33
1068.614	121.25
1071.892	120.34
1075.17	117.72
1078.447	115.51
1081.724	114.89
1085.001	113.92
1088.278	113.67
1091.554	112.57
1094.83	112.39
1098.106	110.78
1101.382	111
1104.657	110.9
1107.932	109.03
1111.206	110.51
1114.481	109.22
1117.755	108.07
1121.029	107.24
1124.302	105.65
1127.575	105.53
1130.848	104.92
1134.121	103.25
1137.393	102.12
1140.665	101.86
1143.937	101.29
1147.208	99.87
1150.48	99.14
1153.75	97.61
1157.021	98.04
1160.291	98.56
1163.561	96.68
1166.831	96.84
1170.101	97.13
1173.37	96.81
1176.639	95.46
1179.907	96.72
1183.176	96.26
1186.444	96.33
1189.711	96.83
1192.979	96.75
1196.246	96.79
1199.513	96.34
1202.78	96.34
1206.046	96.56
1209.312	97.13
1212.578	97.56
1215.843	98.64
1219.108	98.25
1222.373	99.42
1225.638	100.67
1228.902	102.09
1232.166	104.22
1235.43	104.49
1238.693	106.83
1241.956	107.88
1245.219	109.31
1248.482	110.71
1251.744	108.94
1255.006	111.85
1258.268	107.91
1261.529	107.61
1264.79	105.89
1268.051	103.49
1271.312	104.69
1274.572	102.06
1277.832	101.21
1281.092	100.73
1284.351	99.03
1287.61	99.12
1290.869	97.72
1294.128	98.78
1297.386	98.46
1300.644	98.54
1303.902	98.4
1307.159	97.31
1310.416	97.89
1313.673	98.57
1316.93	98.45
1320.186	99.41
1323.442	99.89
1326.697	100.5
1329.953	101.33
1333.208	102.85
1336.463	104.66
1339.717	106.44
1342.972	109.27
1346.226	113.04
1349.479	112.93
1352.733	116.53
1355.986	118.48
1359.238	120.3
1362.491	121.55
1365.743	122.96
1368.995	124.73
1372.247	124.98
1375.498	123.6
1378.749	127.29
1382	124.69
1385.251	124.44
1388.501	122.93
1391.751	123.47
1395	123.17
1398.25	122.99
1401.499	122.87
1404.748	120.57
1407.996	117.44
1411.244	117.96
1414.492	115.61
1417.74	110.93
1420.987	108.89
1424.234	106.79
1427.481	102.78
1430.728	99.32
1433.974	97.17
1437.22	93.76
1440.465	91.91
1443.711	88.87
1446.956	85.68
1450.201	83.92
1453.445	81.17
1456.689	78.65
1459.933	77.07
1463.177	74.19
1466.42	72.67
1469.663	70.6
1472.906	69.19
1476.148	66.82
1479.391	66.89
1482.633	66.08
1485.874	65.14
1489.115	64.93
1492.356	64.44
1495.597	63.9
1498.838	63.82
1502.078	64.05
1505.318	63.85
1508.557	63.68
1511.797	63.64
1515.036	63.65
1518.274	63.92
1521.513	63.36
1524.751	63.08
1527.989	64.24
1531.227	64.01
1534.464	64.37
1537.701	63.8
1540.938	63.8
1544.174	64.19
1547.41	64.63
1550.646	64.53
1553.882	64.8
1557.117	65.23
1560.352	65.73
1563.587	64.83
1566.821	64.93
1570.055	65.35
1573.289	65.7
1576.523	66.15
1579.756	65.95
1582.989	66.39
1586.222	65.83
1589.454	65.65
1592.686	65.01
1595.918	64.87
1599.15	65.3
1602.381	65.46
1605.612	65.47
1608.843	65.38
1612.073	65.67
1615.303	66.27
1618.533	65.68
1621.762	66.31
1624.992	66.38
1628.221	66.99
1631.449	67.14
1634.678	67.48
1637.906	67.39
1641.134	67.52
1644.361	67.83
1647.588	67.22
1650.815	67.08
1654.042	67.78
1657.269	67.78
1660.495	68.29
1663.72	68.18
1666.946	68.18
1670.171	67.96
1673.396	68.24
1676.621	68.5
1679.845	68.95
1683.069	68.74
1686.293	68.15
1689.517	68.15
1692.74	67.92
1695.963	68.28
1699.185	68.44
1702.408	68.14
1705.63	68.14
1708.852	68.77
1712.073	67.89
1715.294	67.49
1718.515	68.41
1721.736	68.88
1724.956	68.76
1728.176	68.77
1731.396	68.62
1734.616	68.47
1737.835	68.76
1741.054	68.14
1744.272	67.95
1747.491	68.19
1750.709	68.17
1753.927	67.82
1757.144	68.09
1760.361	67.9
1763.578	67.57
1766.795	67.7
1770.011	68.03
1773.227	68.33
1776.443	68.82
1779.658	68.24
1782.874	68.47
1786.089	68.38
1789.303	68.36
1792.518	69.12
1795.732	69.23
1798.945	70.42
1802.159	69.87
1805.372	70.31
1808.585	70.47
1811.797	70.67
1815.01	71.54
1818.222	72.23
1821.434	72.55
1824.645	72.67
1827.856	72.46
1831.067	72.67
1834.278	73.04
1837.488	73.36
1840.698	73.24
1843.908	73.15
1847.117	73.47
1850.326	72.99
1853.535	72.59
1856.744	72.72
1859.952	73.6
1863.16	72.95
1866.368	72.42
1869.575	71.17
1872.782	71.72
1875.989	69.46
1879.196	69.25
1882.402	67.54
1885.608	68.02
1888.814	66.64
1892.019	66.07
1895.224	63.82
1898.429	64
1901.634	63.54
1904.838	63.92
1908.042	61.88
1911.246	63.02
1914.449	62.32
1917.652	63.19
1920.855	62.54
1924.058	62.11
1927.26	61.5
1930.462	61.94
1933.664	61.43
1936.865	61.96
1940.066	60.61
1943.267	60.75
1946.467	60.73
1949.668	60.88
1952.868	60.84
1956.067	60.67
1959.267	62.37
1962.466	62.63
1965.665	63.19
1968.863	63.76
1972.061	63.87
1975.259	65.71
1978.457	66.18
1981.654	66.8
1984.852	67.51
1988.048	68.09
1991.245	69.47
1994.441	70.96
1997.637	72.33
2000.833	73.86
2004.028	74.47
2007.223	76.67
2010.418	78.32
2013.613	82.4
2016.807	84.82
2020.001	86.47
2023.194	89.59
2026.388	91.35
2029.581	95.97
2032.774	98.99
2035.966	101.3
2039.158	105.51
2042.35	107.43
2045.542	108.81
2048.733	112.21
2051.924	114.16
2055.115	115.48
2058.306	116.46
2061.496	119.08
2064.686	118.38
2067.875	118.01
2071.065	121.06
2074.254	120.47
2077.442	124.21
2080.631	125.8
2083.819	126.27
2087.007	128.12
2090.195	132.09
2093.382	130.51
2096.569	130.58
2099.756	134.38
2102.942	136.76
2106.128	138.16
2109.314	139.87
2112.5	139.72
2115.685	137.58
2118.87	138.43
2122.055	138.52
2125.239	138.04
2128.424	142.8
2131.608	143.17
2134.791	140.84
2137.974	141.84
2141.157	144.87
2144.34	145.79
2147.523	147.66
2150.705	152.06
2153.887	151.51
2157.068	154.49
2160.25	154.43
2163.431	155.73
2166.611	158.56
2169.792	162.09
2172.972	166.22
2176.152	166.5
2179.331	168.93
2182.511	168.38
2185.69	170.86
2188.868	172.36
2192.047	176.9
2195.225	182.38
2198.403	182.04
2201.58	182.34
2204.758	186.05
2207.935	185.26
2211.111	184.65
2214.288	186.08
2217.464	188.31
2220.64	192.94
2223.815	196.86
2226.991	193.76
2230.166	195.48
2233.34	201.41
2236.515	206.1
2239.689	201.17
2242.863	204.08
2246.036	204.17
2249.209	206.85
2252.382	210.56
2255.555	214.28
2258.727	216.13
2261.9	219.96
2265.071	222.9
2268.243	223.4
2271.414	226.21
2274.585	233.35
2277.756	233.94
2280.926	238.64
2284.096	242.48
2287.266	240.14
2290.436	235.58
2293.605	240.18
2296.774	252.46
2299.942	251.96
2303.111	259.76
2306.279	262.9
2309.447	266.7
2312.614	266.15
2315.781	274.28
2318.948	278.82
2322.115	282.17
2325.281	296.47
2328.447	297.79
2331.613	292.53
2334.779	297.79
2337.944	295.95
2341.109	301.5
2344.274	304.47
2347.438	315.4
2350.602	321.68
2353.766	335.83
2356.929	337.69
2360.092	346.78
2363.255	342.9
2366.418	352.82
2369.58	357.71
2372.742	368.9
2375.904	367.4
2379.066	372.94
2382.227	395.1
2385.388	389.82
2388.548	373.48
2391.709	373.61
2394.869	376.52
2398.029	384.73
2401.188	386.64
2404.347	395.45
2407.506	399.3
2410.665	386.31
2413.823	389.27
2416.981	387.83
2420.139	374.03
2423.296	399.94
2426.453	427.42
2429.61	408.44
2432.767	431.3
2435.923	443.18
2439.079	433.97
2442.235	444.24
2445.391	455.03
2448.546	456.55
2451.701	474.18
2454.855	504.63
2458.009	456.81
2461.163	457.93
2464.317	462.01
2467.471	452.79
2470.624	462.88
2473.777	464.77
2476.929	448.79
2480.082	477.15
2483.234	496.95
2486.385	510.74
2489.537	521.52
2492.688	565.33
2495.839	556.2
2498.989	572.91
2502.14	579.34
2505.29	550.87
2508.439	608.41
2511.589	627.31
2514.738	604.43
2517.887	599.92
2521.035	559.35
2524.183	549.09
2527.331	545.73
2530.479	533.48
2533.627	548
