Data from c_1_dec_ct_2n_035_Splice17_17.txt Node
Date: Sat Feb 29 13:25:43 EST 2020
User: sa697716
Spectrometer: FLMS03696
Trigger mode: 0
Integration Time (sec): 3.180400E-1
Scans to average: 20
Electric dark correction enabled: true
Nonlinearity correction enabled: true
Boxcar width: 5
XAxis mode: Wavelengths
Number of Pixels in Spectrum: 2048
>>>>>Begin Spectral Data<<<<<
187.83	73.41
188.298	74.67
188.766	81.44
189.233	66.31
189.701	72.37
190.169	72.92
190.636	90.49
191.104	88.42
191.571	282.88
192.039	126.61
192.506	58.71
192.974	-341.48
193.441	288.86
193.908	26.16
194.375	-64.56
194.842	48.31
195.31	-1.3
195.777	58.84
196.244	57.92
196.711	70.87
197.177	71.23
197.644	71.25
198.111	71.88
198.578	73.37
199.045	74.4
199.511	74.75
199.978	74.43
200.445	74.51
200.911	74.6
201.378	74.77
201.844	75.13
202.31	75.61
202.777	75.97
203.243	76.19
203.709	75.91
204.176	75.48
204.642	74.88
205.108	74.66
205.574	74.89
206.04	74.49
206.506	73.75
206.972	72.84
207.438	72.07
207.903	70.86
208.369	69.51
208.835	68.46
209.301	67.34
209.766	66.23
210.232	64.89
210.697	63.52
211.163	61.95
211.628	60.66
212.094	59.88
212.559	58.63
213.024	57.49
213.49	56.39
213.955	54.9
214.42	53.41
214.885	51.66
215.35	49.56
215.815	46.81
216.28	43.88
216.745	40.62
217.21	37.09
217.675	33.89
218.14	30.99
218.604	28.35
219.069	26.32
219.534	24.46
219.998	22.89
220.463	21.59
220.927	20.48
221.392	19.59
221.856	18.87
222.32	18.2
222.785	17.67
223.249	17.17
223.713	16.78
224.177	16.32
224.642	15.95
225.106	15.56
225.57	15.24
226.034	14.92
226.497	14.59
226.961	14.26
227.425	13.95
227.889	13.63
228.353	13.35
228.816	13.11
229.28	12.85
229.744	12.63
230.207	12.43
230.671	12.22
231.134	12.03
231.597	11.87
232.061	11.69
232.524	11.52
232.987	11.36
233.45	11.2
233.914	11.03
234.377	10.88
234.84	10.73
235.303	10.58
235.766	10.45
236.229	10.33
236.691	10.19
237.154	10.08
237.617	10
238.08	9.91
238.542	9.79
239.005	9.68
239.468	9.58
239.93	9.47
240.393	9.38
240.855	9.27
241.317	9.17
241.78	9.1
242.242	8.99
242.704	8.89
243.166	8.79
243.629	8.72
244.091	8.64
244.553	8.58
245.015	8.5
245.477	8.41
245.939	8.34
246.4	8.25
246.862	8.17
247.324	8.11
247.786	8.04
248.247	7.96
248.709	7.88
249.17	7.82
249.632	7.74
250.093	7.67
250.555	7.6
251.016	7.55
251.477	7.49
251.939	7.42
252.4	7.35
252.861	7.3
253.322	7.24
253.783	7.2
254.244	7.14
254.705	7.09
255.166	7.05
255.627	7
256.088	6.95
256.549	6.91
257.009	6.86
257.47	6.82
257.931	6.77
258.391	6.71
258.852	6.65
259.312	6.6
259.773	6.56
260.233	6.51
260.694	6.45
261.154	6.4
261.614	6.35
262.074	6.3
262.534	6.24
262.994	6.2
263.455	6.16
263.915	6.11
264.374	6.06
264.834	6.03
265.294	5.98
265.754	5.94
266.214	5.91
266.673	5.88
267.133	5.85
267.593	5.83
268.052	5.79
268.512	5.77
268.971	5.75
269.431	5.72
269.89	5.7
270.349	5.67
270.809	5.66
271.268	5.64
271.727	5.61
272.186	5.59
272.645	5.56
273.104	5.54
273.563	5.52
274.022	5.5
274.481	5.48
274.94	5.46
275.399	5.44
275.857	5.43
276.316	5.4
276.775	5.38
277.233	5.36
277.692	5.35
278.15	5.33
278.609	5.31
279.067	5.29
279.525	5.27
279.984	5.26
280.442	5.24
280.9	5.22
281.358	5.21
281.816	5.2
282.274	5.19
282.732	5.18
283.19	5.18
283.648	5.17
284.106	5.16
284.564	5.16
285.021	5.16
285.479	5.15
285.937	5.14
286.394	5.13
286.852	5.12
287.309	5.11
287.767	5.09
288.224	5.07
288.682	5.05
289.139	5.04
289.596	5
290.053	4.97
290.511	4.93
290.968	4.91
291.425	4.89
291.882	4.86
292.339	4.83
292.796	4.8
293.252	4.77
293.709	4.74
294.166	4.72
294.623	4.7
295.079	4.68
295.536	4.67
295.992	4.65
296.449	4.63
296.905	4.61
297.362	4.59
297.818	4.58
298.274	4.57
298.731	4.55
299.187	4.54
299.643	4.52
300.099	4.52
300.555	4.5
301.011	4.49
301.467	4.47
301.923	4.47
302.379	4.47
302.835	4.46
303.291	4.45
303.746	4.44
304.202	4.43
304.658	4.42
305.113	4.41
305.569	4.41
306.024	4.41
306.479	4.41
306.935	4.4
307.39	4.39
307.845	4.38
308.301	4.38
308.756	4.38
309.211	4.37
309.666	4.37
310.121	4.36
310.576	4.35
311.031	4.34
311.486	4.34
311.94	4.34
312.395	4.35
312.85	4.35
313.305	4.34
313.759	4.34
314.214	4.34
314.668	4.34
315.123	4.34
315.577	4.34
316.032	4.33
316.486	4.32
316.94	4.31
317.394	4.29
317.849	4.28
318.303	4.26
318.757	4.24
319.211	4.23
319.665	4.21
320.119	4.2
320.572	4.19
321.026	4.18
321.48	4.17
321.934	4.16
322.387	4.16
322.841	4.15
323.295	4.13
323.748	4.13
324.202	4.12
324.655	4.11
325.108	4.1
325.562	4.09
326.015	4.08
326.468	4.06
326.921	4.05
327.374	4.04
327.827	4.04
328.28	4.04
328.733	4.03
329.186	4.04
329.639	4.02
330.092	4.02
330.545	4.02
330.997	4.02
331.45	4.02
331.903	4.03
332.355	4.03
332.808	4.03
333.26	4.02
333.713	4.03
334.165	4.04
334.617	4.04
335.069	4.05
335.522	4.05
335.974	4.05
336.426	4.05
336.878	4.05
337.33	4.05
337.782	4.04
338.234	4.05
338.686	4.03
339.137	4.02
339.589	4.01
340.041	4
340.493	3.97
340.944	3.96
341.396	3.96
341.847	3.94
342.299	3.93
342.75	3.91
343.201	3.89
343.653	3.88
344.104	3.87
344.555	3.85
345.006	3.84
345.457	3.83
345.908	3.82
346.359	3.82
346.81	3.81
347.261	3.8
347.712	3.79
348.163	3.78
348.613	3.78
349.064	3.76
349.515	3.75
349.965	3.75
350.416	3.74
350.866	3.74
351.317	3.72
351.767	3.71
352.217	3.71
352.668	3.7
353.118	3.7
353.568	3.71
354.018	3.71
354.468	3.72
354.918	3.72
355.368	3.72
355.818	3.72
356.268	3.72
356.718	3.73
357.168	3.73
357.617	3.74
358.067	3.74
358.517	3.74
358.966	3.74
359.416	3.75
359.865	3.74
360.315	3.74
360.764	3.74
361.213	3.73
361.663	3.71
362.112	3.71
362.561	3.7
363.01	3.71
363.459	3.69
363.908	3.68
364.357	3.68
364.806	3.67
365.255	3.68
365.703	3.68
366.152	3.68
366.601	3.68
367.05	3.68
367.498	3.67
367.947	3.67
368.395	3.68
368.844	3.68
369.292	3.67
369.74	3.68
370.189	3.68
370.637	3.68
371.085	3.69
371.533	3.69
371.981	3.68
372.429	3.68
372.877	3.67
373.325	3.65
373.773	3.64
374.221	3.64
374.669	3.62
375.116	3.61
375.564	3.6
376.012	3.57
376.459	3.57
376.907	3.57
377.354	3.57
377.801	3.58
378.249	3.59
378.696	3.6
379.143	3.59
379.591	3.59
380.038	3.59
380.485	3.6
380.932	3.61
381.379	3.6
381.826	3.61
382.273	3.61
382.72	3.6
383.166	3.58
383.613	3.57
384.06	3.58
384.506	3.57
384.953	3.56
385.4	3.55
385.846	3.54
386.292	3.54
386.739	3.52
387.185	3.52
387.631	3.52
388.078	3.51
388.524	3.5
388.97	3.5
389.416	3.49
389.862	3.5
390.308	3.5
390.754	3.52
391.2	3.53
391.645	3.55
392.091	3.55
392.537	3.55
392.983	3.56
393.428	3.58
393.874	3.59
394.319	3.6
394.765	3.6
395.21	3.6
395.655	3.6
396.101	3.6
396.546	3.6
396.991	3.6
397.436	3.61
397.881	3.63
398.326	3.65
398.771	3.67
399.216	3.69
399.661	3.71
400.106	3.73
400.551	3.73
400.995	3.72
401.44	3.72
401.885	3.73
402.329	3.75
402.774	3.75
403.218	3.75
403.663	3.75
404.107	3.76
404.551	3.76
404.995	3.77
405.44	3.79
405.884	3.8
406.328	3.81
406.772	3.82
407.216	3.83
407.66	3.84
408.104	3.85
408.547	3.86
408.991	3.87
409.435	3.87
409.879	3.9
410.322	3.92
410.766	3.94
411.209	3.98
411.653	3.99
412.096	4.02
412.54	4.05
412.983	4.07
413.426	4.1
413.869	4.12
414.312	4.17
414.756	4.19
415.199	4.2
415.642	4.23
416.085	4.24
416.527	4.27
416.97	4.27
417.413	4.26
417.856	4.25
418.298	4.24
418.741	4.24
419.184	4.23
419.626	4.21
420.069	4.22
420.511	4.22
420.953	4.21
421.396	4.22
421.838	4.25
422.28	4.28
422.722	4.32
423.164	4.35
423.606	4.37
424.048	4.37
424.49	4.4
424.932	4.4
425.374	4.39
425.816	4.38
426.258	4.38
426.699	4.35
427.141	4.35
427.582	4.34
428.024	4.33
428.465	4.34
428.907	4.36
429.348	4.35
429.789	4.35
430.231	4.37
430.672	4.39
431.113	4.4
431.554	4.43
431.995	4.46
432.436	4.47
432.877	4.48
433.318	4.49
433.759	4.52
434.2	4.56
434.64	4.57
435.081	4.59
435.522	4.62
435.962	4.64
436.403	4.67
436.843	4.67
437.284	4.68
437.724	4.72
438.164	4.73
438.604	4.75
439.045	4.75
439.485	4.76
439.925	4.75
440.365	4.74
440.805	4.75
441.245	4.72
441.685	4.73
442.125	4.73
442.564	4.7
443.004	4.7
443.444	4.7
443.883	4.71
444.323	4.71
444.762	4.76
445.202	4.8
445.641	4.8
446.081	4.84
446.52	4.85
446.959	4.88
447.398	4.92
447.837	4.96
448.276	4.96
448.716	4.98
449.154	5
449.593	4.98
450.032	4.96
450.471	4.96
450.91	4.93
451.349	4.94
451.787	4.93
452.226	4.9
452.664	4.86
453.103	4.84
453.541	4.82
453.98	4.8
454.418	4.78
454.856	4.76
455.295	4.73
455.733	4.74
456.171	4.73
456.609	4.72
457.047	4.72
457.485	4.72
457.923	4.72
458.361	4.71
458.798	4.72
459.236	4.73
459.674	4.73
460.111	4.75
460.549	4.73
460.987	4.75
461.424	4.75
461.862	4.76
462.299	4.77
462.736	4.76
463.173	4.76
463.611	4.74
464.048	4.75
464.485	4.75
464.922	4.73
465.359	4.75
465.796	4.74
466.233	4.75
466.67	4.75
467.106	4.74
467.543	4.76
467.98	4.75
468.416	4.76
468.853	4.77
469.29	4.77
469.726	4.79
470.162	4.78
470.599	4.77
471.035	4.76
471.471	4.76
471.907	4.76
472.344	4.73
472.78	4.73
473.216	4.72
473.652	4.71
474.088	4.71
474.523	4.69
474.959	4.67
475.395	4.65
475.831	4.64
476.266	4.61
476.702	4.6
477.138	4.59
477.573	4.57
478.008	4.55
478.444	4.54
478.879	4.51
479.314	4.49
479.75	4.47
480.185	4.47
480.62	4.45
481.055	4.44
481.49	4.42
481.925	4.4
482.36	4.39
482.795	4.37
483.229	4.35
483.664	4.34
484.099	4.33
484.534	4.31
484.968	4.3
485.403	4.29
485.837	4.29
486.271	4.28
486.706	4.26
487.14	4.27
487.574	4.26
488.009	4.27
488.443	4.27
488.877	4.27
489.311	4.28
489.745	4.29
490.179	4.3
490.613	4.32
491.046	4.34
491.48	4.37
491.914	4.38
492.348	4.4
492.781	4.41
493.215	4.43
493.648	4.46
494.082	4.49
494.515	4.5
494.948	4.52
495.382	4.54
495.815	4.58
496.248	4.6
496.681	4.63
497.114	4.67
497.547	4.71
497.98	4.76
498.413	4.79
498.846	4.84
499.279	4.9
499.711	4.95
500.144	5.01
500.577	5.06
501.009	5.13
501.442	5.2
501.874	5.26
502.306	5.33
502.739	5.41
503.171	5.5
503.603	5.59
504.036	5.68
504.468	5.78
504.9	5.89
505.332	6
505.764	6.12
506.196	6.24
506.627	6.37
507.059	6.5
507.491	6.64
507.923	6.78
508.354	6.93
508.786	7.1
509.217	7.25
509.649	7.43
510.08	7.62
510.512	7.79
510.943	7.98
511.374	8.18
511.805	8.39
512.237	8.6
512.668	8.81
513.099	9.05
513.53	9.29
513.961	9.53
514.391	9.76
514.822	10
515.253	10.27
515.684	10.54
516.114	10.82
516.545	11.1
516.975	11.39
517.406	11.68
517.836	11.96
518.267	12.25
518.697	12.56
519.127	12.87
519.558	13.18
519.988	13.47
520.418	13.78
520.848	14.08
521.278	14.39
521.708	14.72
522.138	15.02
522.567	15.32
522.997	15.61
523.427	15.89
523.857	16.16
524.286	16.44
524.716	16.71
525.145	16.98
525.575	17.23
526.004	17.47
526.433	17.68
526.863	17.92
527.292	18.16
527.721	18.39
528.15	18.6
528.579	18.81
529.008	18.99
529.437	19.18
529.866	19.33
530.295	19.5
530.724	19.67
531.152	19.83
531.581	19.97
532.01	20.11
532.438	20.25
532.867	20.39
533.295	20.51
533.723	20.64
534.152	20.77
534.58	20.89
535.008	20.98
535.436	21.06
535.865	21.13
536.293	21.21
536.721	21.28
537.149	21.35
537.576	21.41
538.004	21.46
538.432	21.53
538.86	21.58
539.287	21.65
539.715	21.7
540.143	21.75
540.57	21.8
540.998	21.86
541.425	21.91
541.852	21.96
542.28	22.01
542.707	22.06
543.134	22.1
543.561	22.12
543.988	22.15
544.415	22.21
544.842	22.26
545.269	22.32
545.696	22.35
546.123	22.38
546.549	22.41
546.976	22.44
547.403	22.47
547.829	22.5
548.256	22.56
548.682	22.59
549.108	22.59
549.535	22.61
549.961	22.6
550.387	22.62
550.813	22.63
551.24	22.65
551.666	22.67
552.092	22.66
552.518	22.63
552.943	22.59
553.369	22.56
553.795	22.55
554.221	22.52
554.646	22.5
555.072	22.44
555.498	22.38
555.923	22.32
556.349	22.21
556.774	22.14
557.199	22.08
557.625	22.01
558.05	21.92
558.475	21.82
558.9	21.7
559.325	21.6
559.75	21.49
560.175	21.37
560.6	21.23
561.025	21.11
561.449	20.95
561.874	20.83
562.299	20.69
562.723	20.55
563.148	20.4
563.572	20.27
563.997	20.12
564.421	19.96
564.846	19.8
565.27	19.65
565.694	19.49
566.118	19.32
566.542	19.13
566.966	18.94
567.39	18.76
567.814	18.57
568.238	18.36
568.662	18.18
569.086	18
569.509	17.82
569.933	17.63
570.357	17.45
570.78	17.29
571.204	17.11
571.627	16.97
572.05	16.81
572.474	16.66
572.897	16.51
573.32	16.34
573.743	16.2
574.166	16.05
574.589	15.91
575.012	15.78
575.435	15.63
575.858	15.51
576.281	15.37
576.704	15.23
577.126	15.1
577.549	15
577.972	14.9
578.394	14.78
578.817	14.66
579.239	14.57
579.661	14.45
580.084	14.37
580.506	14.27
580.928	14.17
581.35	14.07
581.772	13.99
582.194	13.9
582.616	13.81
583.038	13.72
583.46	13.66
583.882	13.58
584.303	13.5
584.725	13.43
585.147	13.36
585.568	13.29
585.99	13.26
586.411	13.19
586.833	13.11
587.254	13.05
587.675	13.01
588.096	12.94
588.518	12.89
588.939	12.85
589.36	12.79
589.781	12.75
590.202	12.71
590.623	12.65
591.043	12.59
591.464	12.55
591.885	12.5
592.305	12.48
592.726	12.43
593.147	12.39
593.567	12.35
593.987	12.31
594.408	12.27
594.828	12.24
595.248	12.21
595.669	12.19
596.089	12.15
596.509	12.12
596.929	12.05
597.349	12.01
597.769	11.98
598.189	11.94
598.608	11.9
599.028	11.85
599.448	11.8
599.867	11.74
600.287	11.71
600.706	11.65
601.126	11.61
601.545	11.55
601.965	11.5
602.384	11.46
602.803	11.39
603.222	11.34
603.641	11.3
604.061	11.23
604.48	11.18
604.898	11.12
605.317	11.07
605.736	11.01
606.155	10.94
606.574	10.88
606.992	10.79
607.411	10.73
607.829	10.62
608.248	10.55
608.666	10.48
609.085	10.4
609.503	10.31
609.921	10.23
610.339	10.16
610.758	10.09
611.176	10.01
611.594	9.94
612.012	9.86
612.43	9.82
612.847	9.75
613.265	9.69
613.683	9.62
614.101	9.54
614.518	9.47
614.936	9.4
615.353	9.34
615.771	9.27
616.188	9.22
616.606	9.17
617.023	9.11
617.44	9.03
617.857	8.97
618.274	8.92
618.691	8.89
619.108	8.84
619.525	8.8
619.942	8.77
620.359	8.74
620.776	8.7
621.192	8.68
621.609	8.65
622.026	8.62
622.442	8.6
622.859	8.58
623.275	8.57
623.691	8.55
624.108	8.53
624.524	8.51
624.94	8.49
625.356	8.49
625.772	8.47
626.188	8.48
626.604	8.48
627.02	8.48
627.436	8.48
627.852	8.45
628.268	8.44
628.683	8.43
629.099	8.43
629.514	8.4
629.93	8.39
630.345	8.37
630.761	8.34
631.176	8.31
631.591	8.26
632.007	8.23
632.422	8.2
632.837	8.18
633.252	8.15
633.667	8.09
634.082	8.05
634.497	7.99
634.911	7.93
635.326	7.85
635.741	7.79
636.155	7.72
636.57	7.66
636.984	7.57
637.399	7.47
637.813	7.36
638.228	7.29
638.642	7.2
639.056	7.11
639.47	7.03
639.884	6.95
640.298	6.88
640.712	6.8
641.126	6.7
641.54	6.62
641.954	6.57
642.368	6.48
642.781	6.41
643.195	6.32
643.609	6.25
644.022	6.17
644.436	6.09
644.849	6.01
645.262	5.94
645.676	5.87
646.089	5.81
646.502	5.74
646.915	5.7
647.328	5.64
647.741	5.61
648.154	5.58
648.567	5.54
648.98	5.51
649.393	5.49
649.805	5.46
650.218	5.44
650.631	5.43
651.043	5.4
651.456	5.37
651.868	5.33
652.28	5.31
652.693	5.26
653.105	5.24
653.517	5.21
653.929	5.2
654.341	5.17
654.753	5.13
655.165	5.1
655.577	5.05
655.989	5
656.401	4.96
656.813	4.92
657.224	4.89
657.636	4.84
658.047	4.78
658.459	4.73
658.87	4.67
659.282	4.64
659.693	4.6
660.104	4.57
660.515	4.54
660.926	4.51
661.338	4.47
661.749	4.43
662.159	4.4
662.57	4.38
662.981	4.35
663.392	4.32
663.803	4.29
664.213	4.26
664.624	4.23
665.035	4.2
665.445	4.19
665.855	4.18
666.266	4.17
666.676	4.16
667.086	4.15
667.497	4.13
667.907	4.14
668.317	4.13
668.727	4.12
669.137	4.12
669.547	4.14
669.956	4.13
670.366	4.14
670.776	4.14
671.186	4.15
671.595	4.18
672.005	4.19
672.414	4.2
672.824	4.22
673.233	4.25
673.642	4.28
674.052	4.3
674.461	4.32
674.87	4.34
675.279	4.37
675.688	4.37
676.097	4.39
676.506	4.43
676.915	4.45
677.323	4.48
677.732	4.5
678.141	4.53
678.549	4.56
678.958	4.59
679.366	4.62
679.775	4.65
680.183	4.7
680.592	4.75
681	4.79
681.408	4.84
681.816	4.89
682.224	4.94
682.632	5
683.04	5.07
683.448	5.15
683.856	5.24
684.264	5.34
684.671	5.45
685.079	5.55
685.487	5.67
685.894	5.82
686.302	5.97
686.709	6.14
687.116	6.33
687.524	6.55
687.931	6.77
688.338	7.02
688.745	7.3
689.152	7.6
689.559	7.93
689.966	8.28
690.373	8.67
690.78	9.07
691.187	9.53
691.593	9.98
692	10.45
692.407	10.96
692.813	11.5
693.22	12.04
693.626	12.6
694.032	13.18
694.439	13.8
694.845	14.42
695.251	15.04
695.657	15.66
696.063	16.3
696.469	16.97
696.875	17.61
697.281	18.25
697.687	18.94
698.093	19.62
698.498	20.28
698.904	20.97
699.31	21.62
699.715	22.3
700.12	22.97
700.526	23.64
700.931	24.29
701.337	24.95
701.742	25.59
702.147	26.24
702.552	26.86
702.957	27.49
703.362	28.1
703.767	28.71
704.172	29.32
704.577	29.92
704.981	30.51
705.386	31.1
705.791	31.71
706.195	32.29
706.6	32.83
707.004	33.4
707.408	33.97
707.813	34.52
708.217	35.09
708.621	35.62
709.025	36.14
709.43	36.63
709.834	37.16
710.237	37.65
710.641	38.18
711.045	38.67
711.449	39.16
711.853	39.64
712.256	40.13
712.66	40.6
713.064	41.08
713.467	41.57
713.87	42.05
714.274	42.53
714.677	42.97
715.08	43.41
715.484	43.87
715.887	44.3
716.29	44.75
716.693	45.15
717.096	45.56
717.499	45.97
717.901	46.32
718.304	46.72
718.707	47.08
719.109	47.48
719.512	47.85
719.915	48.23
720.317	48.59
720.719	48.92
721.122	49.25
721.524	49.61
721.926	49.96
722.328	50.33
722.731	50.66
723.133	50.98
723.535	51.28
723.937	51.59
724.338	51.84
724.74	52.14
725.142	52.39
725.544	52.67
725.945	52.92
726.347	53.15
726.748	53.33
727.15	53.52
727.551	53.74
727.952	53.93
728.354	54.14
728.755	54.35
729.156	54.55
729.557	54.77
729.958	54.97
730.359	55.12
730.76	55.27
731.161	55.48
731.562	55.66
731.962	55.81
732.363	55.96
732.763	56.1
733.164	56.23
733.564	56.34
733.965	56.44
734.365	56.53
734.766	56.65
735.166	56.75
735.566	56.83
735.966	56.9
736.366	56.98
736.766	57.09
737.166	57.18
737.566	57.27
737.966	57.37
738.365	57.49
738.765	57.6
739.165	57.67
739.564	57.78
739.964	57.87
740.363	57.99
740.763	58.07
741.162	58.13
741.561	58.17
741.96	58.27
742.36	58.33
742.759	58.34
743.158	58.36
743.557	58.43
743.955	58.5
744.354	58.59
744.753	58.65
745.152	58.7
745.55	58.72
745.949	58.76
746.348	58.76
746.746	58.78
747.144	58.87
747.543	58.97
747.941	59.02
748.339	59.07
748.737	59.07
749.136	59.09
749.534	59.15
749.932	59.18
750.33	59.22
750.727	59.26
751.125	59.31
751.523	59.27
751.921	59.28
752.318	59.28
752.716	59.28
753.113	59.3
753.511	59.28
753.908	59.26
754.305	59.28
754.703	59.26
755.1	59.26
755.497	59.25
755.894	59.27
756.291	59.25
756.688	59.26
757.085	59.25
757.482	59.25
757.878	59.3
758.275	59.32
758.672	59.35
759.068	59.38
759.465	59.42
759.861	59.45
760.258	59.45
760.654	59.44
761.05	59.43
761.447	59.4
761.843	59.42
762.239	59.39
762.635	59.4
763.031	59.39
763.427	59.37
763.822	59.33
764.218	59.32
764.614	59.33
765.01	59.35
765.405	59.34
765.801	59.35
766.196	59.35
766.592	59.38
766.987	59.37
767.382	59.36
767.778	59.39
768.173	59.39
768.568	59.37
768.963	59.36
769.358	59.33
769.753	59.38
770.148	59.37
770.542	59.35
770.937	59.28
771.332	59.24
771.726	59.22
772.121	59.18
772.515	59.19
772.91	59.2
773.304	59.21
773.699	59.22
774.093	59.18
774.487	59.17
774.881	59.19
775.275	59.21
775.669	59.27
776.063	59.23
776.457	59.21
776.851	59.2
777.245	59.22
777.638	59.2
778.032	59.21
778.425	59.24
778.819	59.24
779.212	59.2
779.606	59.19
779.999	59.16
780.392	59.24
780.786	59.28
781.179	59.28
781.572	59.26
781.965	59.29
782.358	59.26
782.751	59.25
783.143	59.28
783.536	59.34
783.929	59.4
784.322	59.4
784.714	59.4
785.107	59.42
785.499	59.43
785.891	59.43
786.284	59.37
786.676	59.43
787.068	59.39
787.46	59.39
787.852	59.39
788.245	59.37
788.636	59.39
789.028	59.37
789.42	59.34
789.812	59.36
790.204	59.33
790.595	59.38
790.987	59.36
791.378	59.39
791.77	59.42
792.161	59.41
792.553	59.41
792.944	59.4
793.335	59.42
793.726	59.39
794.117	59.35
794.508	59.38
794.899	59.32
795.29	59.31
795.681	59.31
796.072	59.29
796.463	59.27
796.853	59.27
797.244	59.22
797.634	59.2
798.025	59.27
798.415	59.3
798.806	59.3
799.196	59.36
799.586	59.35
799.976	59.36
800.366	59.34
800.756	59.36
801.146	59.35
801.536	59.39
801.926	59.39
802.316	59.39
802.706	59.41
803.095	59.41
803.485	59.4
803.874	59.45
804.264	59.46
804.653	59.45
805.043	59.44
805.432	59.41
805.821	59.38
806.21	59.36
806.599	59.39
806.988	59.36
807.377	59.36
807.766	59.36
808.155	59.32
808.544	59.33
808.933	59.36
809.321	59.37
809.71	59.42
810.098	59.42
810.487	59.44
810.875	59.4
811.264	59.39
811.652	59.42
812.04	59.41
812.428	59.43
812.816	59.41
813.204	59.4
813.592	59.37
813.98	59.37
814.368	59.36
814.756	59.39
815.144	59.38
815.531	59.4
815.919	59.38
816.306	59.4
816.694	59.4
817.081	59.37
817.469	59.39
817.856	59.44
818.243	59.44
818.63	59.49
819.017	59.49
819.404	59.52
819.791	59.52
820.178	59.52
820.565	59.54
820.952	59.53
821.339	59.6
821.725	59.59
822.112	59.57
822.498	59.59
822.885	59.62
823.271	59.6
823.657	59.6
824.044	59.61
824.43	59.63
824.816	59.61
825.202	59.6
825.588	59.58
825.974	59.58
826.36	59.58
826.746	59.56
827.132	59.52
827.517	59.55
827.903	59.53
828.289	59.52
828.674	59.52
829.06	59.55
829.445	59.6
829.83	59.58
830.216	59.6
830.601	59.6
830.986	59.6
831.371	59.63
831.756	59.63
832.141	59.67
832.526	59.66
832.911	59.69
833.295	59.71
833.68	59.69
834.065	59.71
834.449	59.69
834.834	59.69
835.218	59.69
835.603	59.69
835.987	59.69
836.371	59.71
836.755	59.72
837.139	59.69
837.524	59.65
837.908	59.62
838.291	59.61
838.675	59.64
839.059	59.63
839.443	59.66
839.827	59.64
840.21	59.65
840.594	59.63
840.977	59.64
841.361	59.66
841.744	59.69
842.127	59.7
842.511	59.69
842.894	59.67
843.277	59.71
843.66	59.68
844.043	59.69
844.426	59.63
844.809	59.62
845.191	59.59
845.574	59.58
845.957	59.54
846.339	59.55
846.722	59.55
847.104	59.58
847.487	59.58
847.869	59.59
848.252	59.59
848.634	59.66
849.016	59.66
849.398	59.68
849.78	59.67
850.162	59.66
850.544	59.68
850.926	59.68
851.307	59.64
851.689	59.59
852.071	59.58
852.452	59.56
852.834	59.49
853.215	59.5
853.597	59.49
853.978	59.47
854.359	59.47
854.741	59.45
855.122	59.43
855.503	59.41
855.884	59.41
856.265	59.41
856.646	59.43
857.026	59.49
857.407	59.43
857.788	59.41
858.169	59.39
858.549	59.42
858.93	59.41
859.31	59.44
859.69	59.44
860.071	59.46
860.451	59.43
860.831	59.42
861.211	59.39
861.591	59.41
861.971	59.42
862.351	59.45
862.731	59.42
863.111	59.42
863.491	59.44
863.87	59.47
864.25	59.48
864.629	59.49
865.009	59.5
865.388	59.49
865.768	59.5
866.147	59.5
866.526	59.48
866.905	59.47
867.284	59.48
867.663	59.47
868.042	59.43
868.421	59.44
868.8	59.43
869.179	59.42
869.558	59.41
869.936	59.42
870.315	59.43
870.693	59.46
871.072	59.45
871.45	59.42
871.828	59.41
872.207	59.43
872.585	59.44
872.963	59.44
873.341	59.46
873.719	59.47
874.097	59.46
874.475	59.47
874.853	59.46
875.23	59.47
875.608	59.5
875.986	59.48
876.363	59.46
876.741	59.45
877.118	59.47
877.495	59.42
877.873	59.41
878.25	59.42
878.627	59.39
879.004	59.37
879.381	59.39
879.758	59.36
880.135	59.36
880.512	59.36
880.889	59.37
881.265	59.35
881.642	59.36
882.019	59.36
882.395	59.37
882.772	59.37
883.148	59.37
883.524	59.36
883.901	59.35
884.277	59.35
884.653	59.35
885.029	59.35
885.405	59.36
885.781	59.33
886.157	59.34
886.532	59.34
886.908	59.36
887.284	59.37
887.659	59.37
888.035	59.43
888.411	59.4
888.786	59.39
889.161	59.36
889.537	59.33
889.912	59.32
890.287	59.3
890.662	59.25
891.037	59.23
891.412	59.19
891.787	59.17
892.162	59.12
892.536	59.12
892.911	59.11
893.286	59.09
893.66	59.1
894.035	59.12
894.409	59.12
894.784	59.16
895.158	59.17
895.532	59.16
895.906	59.18
896.281	59.16
896.655	59.17
897.029	59.13
897.402	59.16
897.776	59.16
898.15	59.16
898.524	59.17
898.898	59.13
899.271	59.12
899.645	59.12
900.018	59.1
900.392	59.12
900.765	59.14
901.138	59.19
901.511	59.21
901.884	59.22
902.258	59.19
902.631	59.2
903.003	59.19
903.376	59.19
903.749	59.22
904.122	59.25
904.495	59.29
904.867	59.27
905.24	59.27
905.612	59.26
905.985	59.23
906.357	59.2
906.729	59.14
907.102	59.13
907.474	59.09
907.846	59.04
908.218	58.96
908.59	58.88
908.962	58.86
909.334	58.84
909.705	58.82
910.077	58.79
910.449	58.83
910.82	58.85
911.192	58.83
911.563	58.83
911.935	58.79
912.306	58.82
912.677	58.84
913.048	58.82
913.419	58.78
913.79	58.74
914.161	58.76
914.532	58.75
914.903	58.75
915.274	58.76
915.645	58.74
916.015	58.8
916.386	58.76
916.756	58.71
917.127	58.72
917.497	58.72
917.868	58.71
918.238	58.74
918.608	58.75
918.978	58.71
919.348	58.68
919.718	58.69
920.088	58.68
920.458	58.76
920.828	58.83
921.198	58.84
921.567	58.86
921.937	58.89
922.306	58.86
922.676	58.84
923.045	58.84
923.415	58.86
923.784	58.88
924.153	58.86
924.522	58.82
924.891	58.79
925.26	58.81
925.629	58.77
925.998	58.76
926.367	58.73
926.736	58.7
927.104	58.72
927.473	58.71
927.842	58.68
928.21	58.7
928.578	58.68
928.947	58.63
929.315	58.61
929.683	58.65
930.051	58.61
930.42	58.62
930.788	58.62
931.156	58.6
931.523	58.63
931.891	58.58
932.259	58.57
932.627	58.5
932.994	58.52
933.362	58.47
933.729	58.47
934.097	58.46
934.464	58.44
934.831	58.46
935.199	58.47
935.566	58.41
935.933	58.44
936.3	58.39
936.667	58.42
937.034	58.43
937.401	58.41
937.767	58.31
938.134	58.33
938.501	58.31
938.867	58.35
939.234	58.33
939.6	58.38
939.967	58.39
940.333	58.46
940.699	58.6
941.065	58.6
941.431	58.74
941.798	58.93
942.163	59
942.529	59.05
942.895	59.04
943.261	59.03
943.627	59.07
943.992	59.23
944.358	59.23
944.723	59.15
945.089	59.2
945.454	59.26
945.82	59.14
946.185	59.19
946.55	59.29
946.915	59.3
947.28	59.27
947.645	59.22
948.01	59.14
948.375	59.2
948.74	59.15
949.104	59.18
949.469	58.96
949.834	58.9
950.198	58.71
950.562	58.59
950.927	58.53
951.291	58.57
951.655	58.52
952.02	58.47
952.384	58.49
952.748	58.53
953.112	58.46
953.476	58.52
953.839	58.6
954.203	58.65
954.567	58.61
954.931	58.55
955.294	58.45
955.658	58.42
956.021	58.44
956.385	58.29
956.748	58.27
957.111	58.21
957.474	58.17
957.837	58.09
958.2	58.06
958.563	58.03
958.926	58
959.289	58.02
959.652	58.07
960.015	58.05
960.377	58.11
960.74	58.04
961.102	58.03
961.465	58.05
961.827	57.96
962.189	57.89
962.552	57.89
962.914	57.9
963.276	57.88
963.638	57.81
964	57.78
964.362	57.78
964.724	57.77
965.085	57.75
965.447	57.7
965.809	57.68
966.17	57.73
966.532	57.75
966.893	57.77
967.255	57.73
967.616	57.74
967.977	57.78
968.338	57.67
968.699	57.65
969.061	57.68
969.421	57.7
969.782	57.81
970.143	57.81
970.504	57.83
970.865	57.72
971.225	57.74
971.586	57.76
971.946	57.7
972.307	57.75
972.667	57.84
973.027	57.84
973.388	57.76
973.748	57.72
974.108	57.65
974.468	57.58
974.828	57.75
975.188	57.79
975.548	57.8
975.907	57.8
976.267	57.85
976.627	57.77
976.986	57.81
977.346	57.92
977.705	57.89
978.064	58.05
978.424	58.14
978.783	58.08
979.142	58.03
979.501	57.91
979.86	57.95
980.219	57.85
980.578	57.86
980.937	57.84
981.296	57.85
981.654	57.96
982.013	57.9
982.371	57.8
982.73	57.83
983.088	57.85
983.447	58
983.805	57.96
984.163	58.07
984.521	58.05
984.879	58.1
985.237	58.09
985.595	58.08
985.953	58.07
986.311	58.18
986.669	58.13
987.026	58.15
987.384	58.14
987.741	58.22
988.099	58.18
988.456	58.19
988.814	58.16
989.171	58.17
989.528	58
989.885	57.97
990.242	57.95
990.599	57.98
990.956	57.98
991.313	57.94
991.67	57.97
992.027	57.94
992.383	58.02
992.74	58.01
993.096	57.91
993.453	58.06
993.809	58.12
994.165	58.15
994.522	58.33
994.878	58.34
995.234	58.3
995.59	58.17
995.946	58.27
996.302	58.22
996.658	58.29
997.013	58.38
997.369	58.52
997.725	58.65
998.08	58.67
998.436	58.57
998.791	58.59
999.147	58.68
999.502	58.8
999.857	58.82
1000.212	58.82
1000.567	58.82
1000.922	58.84
1001.277	58.71
1001.632	58.62
1001.987	58.63
1002.342	58.59
1002.696	58.59
1003.051	58.62
1003.406	58.6
1003.76	58.59
1004.114	58.63
1004.469	58.58
1004.823	58.76
1005.177	58.94
1005.531	59.01
1005.885	59.15
1006.239	59.19
1006.593	59.1
1006.947	59.17
1007.301	59.27
1007.655	59.31
1008.008	59.4
1008.362	59.57
1008.715	59.42
1009.069	59.26
1009.422	59.18
1009.776	59.05
1010.129	58.99
1010.482	59.4
1010.835	59.53
1011.188	59.62
1011.541	59.67
1011.894	59.72
1012.247	59.6
1012.6	59.81
1012.952	59.99
1013.305	60.19
1013.657	60.44
1014.01	60.82
1014.362	60.67
1014.715	60.38
1015.067	60.46
1015.419	60.63
1015.771	60.91
1016.123	60.93
1016.475	61.2
1016.827	61.4
1017.179	61.51
1017.531	61.6
1017.883	61.63
1018.234	61.89
1018.586	62.38
1018.938	62.35
1019.289	62.36
1019.64	62.4
1019.992	62.69
1020.343	62.43
1020.694	62.44
1021.045	62.63
1021.396	62.47
1021.747	62.56
1022.098	62.52
1022.449	62.62
1022.8	62.62
1023.151	62.66
1023.501	62.45
1023.852	62.48
1024.202	62.4
1024.553	62.42
1024.903	62.3
1025.253	62.62
1025.604	62.66
1025.954	62.39
1026.304	62.99
1026.654	63.53
1027.004	64.12
1027.354	64.38
1027.703	64.69
1028.053	65.24
1028.403	65.15
1028.753	65.91
1029.102	65.59
1029.452	65.39
1029.801	65.63
1030.15	65.06
1030.499	64.89
897.758	417.33
901.051	419.29
904.343	424.86
907.636	420.89
910.928	412.27
914.22	422.28
917.511	414.09
920.803	399.61
924.094	382.93
927.384	383.61
930.675	372.94
933.965	368.16
937.255	372.14
940.544	354.52
943.834	338.56
947.123	334.54
950.411	316.5
953.7	310.69
956.988	301.42
960.276	289.49
963.563	288.07
966.851	273.8
970.138	269.84
973.424	251.46
976.711	249.66
979.997	242.5
983.283	238.24
986.568	229.98
989.853	224.24
993.138	218.21
996.423	215.4
999.708	208.43
1002.992	209.58
1006.275	205.21
1009.559	202.33
1012.842	196.04
1016.125	190.01
1019.408	186.24
1022.69	186.87
1025.972	185.6
1029.254	181.43
1032.536	178.96
1035.817	174.79
1039.098	171.66
1042.379	167.66
1045.659	166.67
1048.939	166.49
1052.219	164.27
1055.498	162.25
1058.778	158.98
1062.057	156.56
1065.335	156.32
1068.614	153.45
1071.892	151.53
1075.17	149.02
1078.447	147.97
1081.724	147.32
1085.001	144.9
1088.278	143.31
1091.554	142.45
1094.83	142.34
1098.106	140.53
1101.382	139.33
1104.657	138.61
1107.932	137.96
1111.206	138.23
1114.481	137.76
1117.755	135.78
1121.029	134.76
1124.302	134.09
1127.575	132.81
1130.848	131.68
1134.121	129.81
1137.393	129.32
1140.665	129.14
1143.937	128.47
1147.208	125.32
1150.48	123.37
1153.75	122.94
1157.021	123.13
1160.291	123.2
1163.561	121.61
1166.831	121.69
1170.101	122.14
1173.37	121.27
1176.639	120.01
1179.907	119.8
1183.176	120.97
1186.444	121
1189.711	120.43
1192.979	120.54
1196.246	121
1199.513	121.03
1202.78	120.8
1206.046	120.7
1209.312	121.6
1212.578	122.08
1215.843	123.15
1219.108	123.28
1222.373	125.1
1225.638	126.92
1228.902	129.07
1232.166	131.01
1235.43	133.26
1238.693	135.56
1241.956	137.36
1245.219	140.22
1248.482	141.75
1251.744	141.14
1255.006	142.3
1258.268	138.53
1261.529	138.01
1264.79	134.91
1268.051	133.01
1271.312	131.37
1274.572	129.11
1277.832	127.76
1281.092	125.6
1284.351	123.47
1287.61	123.66
1290.869	122.74
1294.128	122.98
1297.386	122.2
1300.644	122.45
1303.902	121.2
1307.159	120.64
1310.416	121.19
1313.673	122.54
1316.93	124.03
1320.186	125.54
1323.442	125.76
1326.697	128.38
1329.953	129.76
1333.208	132.89
1336.463	135.65
1339.717	139.05
1342.972	146.01
1346.226	149.51
1349.479	149.88
1352.733	155.19
1355.986	156.93
1359.238	160.69
1362.491	160.95
1365.743	164.59
1368.995	167.82
1372.247	168.45
1375.498	167.22
1378.749	171.29
1382	169.73
1385.251	169.4
1388.501	167.71
1391.751	170.8
1395	170.44
1398.25	170.57
1401.499	169.41
1404.748	167.41
1407.996	164.03
1411.244	164.92
1414.492	160.2
1417.74	156.68
1420.987	153.49
1424.234	150.47
1427.481	144.78
1430.728	140.66
1433.974	136.95
1437.22	132.86
1440.465	128.59
1443.711	124.87
1446.956	121.21
1450.201	117.61
1453.445	112.48
1456.689	109.52
1459.933	106.54
1463.177	102.33
1466.42	100.44
1469.663	97.62
1472.906	95.26
1476.148	93.19
1479.391	91.41
1482.633	89.7
1485.874	89.61
1489.115	89.53
1492.356	87.06
1495.597	86.22
1498.838	86.5
1502.078	85.9
1505.318	85.63
1508.557	85.46
1511.797	84.83
1515.036	85.54
1518.274	84.77
1521.513	83.9
1524.751	83.32
1527.989	85.24
1531.227	85.02
1534.464	85.01
1537.701	84.31
1540.938	84.27
1544.174	84.2
1547.41	84.57
1550.646	84.08
1553.882	85.16
1557.117	84.24
1560.352	84.65
1563.587	83.58
1566.821	83.63
1570.055	83
1573.289	83.03
1576.523	83.7
1579.756	83.07
1582.989	83.02
1586.222	82.88
1589.454	82.15
1592.686	82.34
1595.918	82.1
1599.15	82.18
1602.381	82.49
1605.612	82.88
1608.843	83.13
1612.073	82.74
1615.303	83.47
1618.533	83.05
1621.762	83.32
1624.992	83.76
1628.221	83.78
1631.449	84.23
1634.678	84.02
1637.906	84.47
1641.134	84.43
1644.361	84.41
1647.588	84.44
1650.815	84.31
1654.042	85.07
1657.269	84.99
1660.495	85.58
1663.72	84.88
1666.946	84.95
1670.171	85.49
1673.396	85.38
1676.621	85.69
1679.845	85.56
1683.069	85.71
1686.293	85.45
1689.517	85.71
1692.74	85.6
1695.963	85.4
1699.185	86.28
1702.408	85.73
1705.63	86.18
1708.852	86.13
1712.073	85.44
1715.294	85.67
1718.515	85.88
1721.736	86
1724.956	85.27
1728.176	85.41
1731.396	86.24
1734.616	86.05
1737.835	86.3
1741.054	85.53
1744.272	85.67
1747.491	86.47
1750.709	86.15
1753.927	85.91
1757.144	86.39
1760.361	86.34
1763.578	86.71
1766.795	86.58
1770.011	87.43
1773.227	87.92
1776.443	88.44
1779.658	88.52
1782.874	87.94
1786.089	89.09
1789.303	89.3
1792.518	89.52
1795.732	90.18
1798.945	91.09
1802.159	90.85
1805.372	91.21
1808.585	91.78
1811.797	92.28
1815.01	92.75
1818.222	94.13
1821.434	94.81
1824.645	94.93
1827.856	96.26
1831.067	96.58
1834.278	97.32
1837.488	97.59
1840.698	97.66
1843.908	97.35
1847.117	98.21
1850.326	98.94
1853.535	98.57
1856.744	98.75
1859.952	99.07
1863.16	98.69
1866.368	98.7
1869.575	97.64
1872.782	97.23
1875.989	96.51
1879.196	96.22
1882.402	94.18
1885.608	94.49
1888.814	93.67
1892.019	92.42
1895.224	90.86
1898.429	90.22
1901.634	89.37
1904.838	89.33
1908.042	89.24
1911.246	88.5
1914.449	88.2
1917.652	89.45
1920.855	88.74
1924.058	87.95
1927.26	87.83
1930.462	88.68
1933.664	89.46
1936.865	89.36
1940.066	88.14
1943.267	87.52
1946.467	88.25
1949.668	87.95
1952.868	87.35
1956.067	87.09
1959.267	89.68
1962.466	89.86
1965.665	90.65
1968.863	90.35
1972.061	90.9
1975.259	93.26
1978.457	94.22
1981.654	96.47
1984.852	97.4
1988.048	98.55
1991.245	100.98
1994.441	101.58
1997.637	104.53
2000.833	106.38
2004.028	107.42
2007.223	111.16
2010.418	114.16
2013.613	118.97
2016.807	121.39
2020.001	122.39
2023.194	126.41
2026.388	130.86
2029.581	136.68
2032.774	139.66
2035.966	144.44
2039.158	150.1
2042.35	151.22
2045.542	152.85
2048.733	159.01
2051.924	159.86
2055.115	166.26
2058.306	167.57
2061.496	168.07
2064.686	167.5
2067.875	167.36
2071.065	169.45
2074.254	169.08
2077.442	174.61
2080.631	176.83
2083.819	176.85
2087.007	180.31
2090.195	182.71
2093.382	181.6
2096.569	182.02
2099.756	186.61
2102.942	189.28
2106.128	192.41
2109.314	194.81
2112.5	195.44
2115.685	193.75
2118.87	192.78
2122.055	193.91
2125.239	195.28
2128.424	203.07
2131.608	200.57
2134.791	200.94
2137.974	201.85
2141.157	203.35
2144.34	204.48
2147.523	208.97
2150.705	214.09
2153.887	213.65
2157.068	216.1
2160.25	216.84
2163.431	213.75
2166.611	219.87
2169.792	223.6
2172.972	228.41
2176.152	228.05
2179.331	231.63
2182.511	230.2
2185.69	232.12
2188.868	239.02
2192.047	244.55
2195.225	249
2198.403	254.85
2201.58	253.23
2204.758	260.32
2207.935	259.81
2211.111	266.03
2214.288	268.31
2217.464	269.91
2220.64	272.67
2223.815	272.93
2226.991	273.08
2230.166	275.66
2233.34	283.26
2236.515	286.17
2239.689	281.75
2242.863	288.23
2246.036	285.13
2249.209	292.1
2252.382	293.12
2255.555	302.23
2258.727	306.67
2261.9	307.32
2265.071	312.13
2268.243	310
2271.414	320.41
2274.585	327.25
2277.756	324.26
2280.926	335.5
2284.096	335.03
2287.266	337.47
2290.436	331.1
2293.605	338.1
2296.774	355.4
2299.942	355.08
2303.111	363.42
2306.279	370.53
2309.447	374.1
2312.614	377.31
2315.781	386.07
2318.948	395.23
2322.115	401.91
2325.281	420.11
2328.447	418.11
2331.613	416.92
2334.779	423.16
2337.944	427.3
2341.109	432.67
2344.274	435.46
2347.438	449.24
2350.602	455.5
2353.766	475.44
2356.929	478.59
2360.092	484.87
2363.255	484.01
2366.418	494.26
2369.58	502.1
2372.742	511.32
2375.904	509.86
2379.066	522.97
2382.227	553.54
2385.388	550.86
2388.548	529.52
2391.709	525.74
2394.869	545.25
2398.029	547.15
2401.188	541.41
2404.347	562.76
2407.506	573.9
2410.665	555.67
2413.823	557.38
2416.981	554.92
2420.139	528.76
2423.296	567.94
2426.453	606.48
2429.61	580.56
2432.767	619.16
2435.923	646.44
2439.079	612.84
2442.235	626.38
2445.391	641.64
2448.546	640.43
2451.701	669.06
2454.855	717.15
2458.009	633.31
2461.163	637.61
2464.317	644.01
2467.471	633.11
2470.624	647.59
2473.777	644.6
2476.929	622.83
2480.082	667.68
2483.234	697.54
2486.385	703.26
2489.537	717.64
2492.688	792.53
2495.839	784.16
2498.989	803.79
2502.14	807.5
2505.29	772.89
2508.439	847.08
2511.589	873.48
2514.738	845.12
2517.887	839.69
2521.035	790.66
2524.183	778.89
2527.331	769.53
2530.479	745.33
2533.627	762.4
