Data from c_1_hir_il_4n_023_Splice17_11.txt Node
Date: Sat Feb 29 13:19:35 EST 2020
User: sa697716
Spectrometer: FLMS03696
Trigger mode: 0
Integration Time (sec): 3.180400E-1
Scans to average: 20
Electric dark correction enabled: true
Nonlinearity correction enabled: true
Boxcar width: 5
XAxis mode: Wavelengths
Number of Pixels in Spectrum: 2048
>>>>>Begin Spectral Data<<<<<
187.83	80.05
188.298	69.08
188.766	75.47
189.233	67.86
189.701	70.78
190.169	62.3
190.636	69.64
191.104	53.18
191.571	26.11
192.039	94.63
192.506	194.65
192.974	5684.23
193.441	31.95
193.908	80.89
194.375	67.39
194.842	122.64
195.31	47.72
195.777	63.47
196.244	31.4
196.711	34.24
197.177	31.04
197.644	32.23
198.111	32.68
198.578	33.47
199.045	34.32
199.511	34.8
199.978	35.18
200.445	35.07
200.911	35.13
201.378	35.29
201.844	35.22
202.31	35.83
202.777	35.8
203.243	36.21
203.709	36.62
204.176	35.55
204.642	35.25
205.108	34.74
205.574	35.24
206.04	34.97
206.506	34.47
206.972	34.82
207.438	34.4
207.903	34.09
208.369	33.29
208.835	32.73
209.301	33
209.766	32.67
210.232	32.32
210.697	31.6
211.163	31.03
211.628	30.85
212.094	29.84
212.559	29.64
213.024	29.22
213.49	28.67
213.955	27.97
214.42	27.42
214.885	26.53
215.35	25.68
215.815	24.38
216.28	23.31
216.745	22.07
217.21	20.94
217.675	19.63
218.14	18.31
218.604	17.4
219.069	16.49
219.534	15.6
219.998	14.98
220.463	14.5
220.927	14.12
221.392	13.72
221.856	13.3
222.32	12.97
222.785	12.67
223.249	12.41
223.713	12.19
224.177	12
224.642	11.84
225.106	11.68
225.57	11.42
226.034	11.21
226.497	11.02
226.961	10.88
227.425	10.7
227.889	10.55
228.353	10.4
228.816	10.25
229.28	10.05
229.744	9.9
230.207	9.74
230.671	9.65
231.134	9.51
231.597	9.39
232.061	9.26
232.524	9.14
232.987	9.03
233.45	8.91
233.914	8.79
234.377	8.71
234.84	8.63
235.303	8.52
235.766	8.42
236.229	8.34
236.691	8.27
237.154	8.18
237.617	8.11
238.08	8.03
238.542	7.96
239.005	7.88
239.468	7.8
239.93	7.72
240.393	7.65
240.855	7.59
241.317	7.53
241.78	7.46
242.242	7.4
242.704	7.33
243.166	7.27
243.629	7.19
244.091	7.13
244.553	7.08
245.015	7.01
245.477	6.96
245.939	6.89
246.4	6.81
246.862	6.75
247.324	6.72
247.786	6.66
248.247	6.6
248.709	6.57
249.17	6.51
249.632	6.45
250.093	6.4
250.555	6.35
251.016	6.31
251.477	6.26
251.939	6.22
252.4	6.16
252.861	6.11
253.322	6.07
253.783	6.03
254.244	5.99
254.705	5.95
255.166	5.93
255.627	5.89
256.088	5.84
256.549	5.82
257.009	5.78
257.47	5.74
257.931	5.71
258.391	5.67
258.852	5.63
259.312	5.59
259.773	5.56
260.233	5.51
260.694	5.48
261.154	5.45
261.614	5.42
262.074	5.39
262.534	5.36
262.994	5.33
263.455	5.3
263.915	5.28
264.374	5.25
264.834	5.22
265.294	5.2
265.754	5.18
266.214	5.16
266.673	5.14
267.133	5.11
267.593	5.09
268.052	5.06
268.512	5.04
268.971	5.02
269.431	5
269.89	4.98
270.349	4.97
270.809	4.95
271.268	4.94
271.727	4.92
272.186	4.91
272.645	4.89
273.104	4.87
273.563	4.86
274.022	4.85
274.481	4.83
274.94	4.82
275.399	4.8
275.857	4.78
276.316	4.76
276.775	4.74
277.233	4.72
277.692	4.71
278.15	4.69
278.609	4.66
279.067	4.64
279.525	4.61
279.984	4.59
280.442	4.57
280.9	4.56
281.358	4.54
281.816	4.53
282.274	4.51
282.732	4.5
283.19	4.49
283.648	4.48
284.106	4.47
284.564	4.47
285.021	4.46
285.479	4.45
285.937	4.44
286.394	4.43
286.852	4.42
287.309	4.41
287.767	4.4
288.224	4.39
288.682	4.38
289.139	4.37
289.596	4.35
290.053	4.33
290.511	4.3
290.968	4.28
291.425	4.26
291.882	4.24
292.339	4.22
292.796	4.19
293.252	4.17
293.709	4.15
294.166	4.13
294.623	4.12
295.079	4.11
295.536	4.09
295.992	4.08
296.449	4.07
296.905	4.05
297.362	4.04
297.818	4.03
298.274	4.01
298.731	4
299.187	3.99
299.643	3.98
300.099	3.97
300.555	3.96
301.011	3.95
301.467	3.93
301.923	3.92
302.379	3.92
302.835	3.91
303.291	3.9
303.746	3.89
304.202	3.88
304.658	3.86
305.113	3.86
305.569	3.85
306.024	3.84
306.479	3.83
306.935	3.83
307.39	3.82
307.845	3.8
308.301	3.8
308.756	3.8
309.211	3.8
309.666	3.8
310.121	3.79
310.576	3.79
311.031	3.79
311.486	3.78
311.94	3.78
312.395	3.78
312.85	3.77
313.305	3.77
313.759	3.77
314.214	3.76
314.668	3.76
315.123	3.75
315.577	3.75
316.032	3.74
316.486	3.74
316.94	3.74
317.394	3.72
317.849	3.72
318.303	3.71
318.757	3.7
319.211	3.69
319.665	3.68
320.119	3.67
320.572	3.66
321.026	3.65
321.48	3.63
321.934	3.63
322.387	3.62
322.841	3.61
323.295	3.6
323.748	3.59
324.202	3.58
324.655	3.58
325.108	3.57
325.562	3.56
326.015	3.55
326.468	3.54
326.921	3.53
327.374	3.52
327.827	3.51
328.28	3.51
328.733	3.5
329.186	3.49
329.639	3.48
330.092	3.47
330.545	3.47
330.997	3.47
331.45	3.47
331.903	3.46
332.355	3.46
332.808	3.46
333.26	3.46
333.713	3.46
334.165	3.46
334.617	3.47
335.069	3.47
335.522	3.48
335.974	3.48
336.426	3.48
336.878	3.49
337.33	3.49
337.782	3.49
338.234	3.49
338.686	3.48
339.137	3.47
339.589	3.46
340.041	3.47
340.493	3.45
340.944	3.44
341.396	3.43
341.847	3.42
342.299	3.4
342.75	3.39
343.201	3.37
343.653	3.36
344.104	3.35
344.555	3.34
345.006	3.33
345.457	3.32
345.908	3.32
346.359	3.32
346.81	3.31
347.261	3.31
347.712	3.3
348.163	3.31
348.613	3.3
349.064	3.29
349.515	3.28
349.965	3.27
350.416	3.26
350.866	3.26
351.317	3.24
351.767	3.23
352.217	3.23
352.668	3.23
353.118	3.23
353.568	3.23
354.018	3.24
354.468	3.23
354.918	3.25
355.368	3.25
355.818	3.24
356.268	3.25
356.718	3.25
357.168	3.24
357.617	3.23
358.067	3.21
358.517	3.21
358.966	3.22
359.416	3.22
359.865	3.22
360.315	3.22
360.764	3.22
361.213	3.2
361.663	3.2
362.112	3.2
362.561	3.21
363.01	3.22
363.459	3.21
363.908	3.2
364.357	3.19
364.806	3.18
365.255	3.18
365.703	3.17
366.152	3.18
366.601	3.19
367.05	3.2
367.498	3.2
367.947	3.2
368.395	3.2
368.844	3.21
369.292	3.21
369.74	3.22
370.189	3.22
370.637	3.23
371.085	3.23
371.533	3.23
371.981	3.23
372.429	3.23
372.877	3.23
373.325	3.23
373.773	3.23
374.221	3.23
374.669	3.24
375.116	3.23
375.564	3.23
376.012	3.24
376.459	3.26
376.907	3.27
377.354	3.28
377.801	3.3
378.249	3.31
378.696	3.34
379.143	3.35
379.591	3.37
380.038	3.39
380.485	3.41
380.932	3.42
381.379	3.42
381.826	3.44
382.273	3.45
382.72	3.47
383.166	3.49
383.613	3.5
384.06	3.52
384.506	3.53
384.953	3.55
385.4	3.56
385.846	3.58
386.292	3.61
386.739	3.61
387.185	3.63
387.631	3.63
388.078	3.65
388.524	3.63
388.97	3.64
389.416	3.64
389.862	3.66
390.308	3.67
390.754	3.69
391.2	3.71
391.645	3.74
392.091	3.75
392.537	3.76
392.983	3.79
393.428	3.81
393.874	3.84
394.319	3.87
394.765	3.87
395.21	3.89
395.655	3.89
396.101	3.89
396.546	3.91
396.991	3.92
397.436	3.92
397.881	3.93
398.326	3.96
398.771	3.97
399.216	3.98
399.661	4.01
400.106	4.02
400.551	4.02
400.995	4.02
401.44	4.02
401.885	4.03
402.329	4.05
402.774	4.04
403.218	4.03
403.663	4.03
404.107	4.02
404.551	4.03
404.995	4.03
405.44	4.04
405.884	4.05
406.328	4.05
406.772	4.05
407.216	4.04
407.66	4.06
408.104	4.06
408.547	4.06
408.991	4.07
409.435	4.06
409.879	4.06
410.322	4.07
410.766	4.07
411.209	4.08
411.653	4.08
412.096	4.07
412.54	4.08
412.983	4.09
413.426	4.1
413.869	4.11
414.312	4.13
414.756	4.13
415.199	4.14
415.642	4.16
416.085	4.18
416.527	4.2
416.97	4.21
417.413	4.21
417.856	4.2
418.298	4.19
418.741	4.18
419.184	4.17
419.626	4.17
420.069	4.16
420.511	4.14
420.953	4.12
421.396	4.12
421.838	4.13
422.28	4.15
422.722	4.15
423.164	4.17
423.606	4.18
424.048	4.18
424.49	4.19
424.932	4.19
425.374	4.2
425.816	4.18
426.258	4.16
426.699	4.14
427.141	4.13
427.582	4.12
428.024	4.12
428.465	4.11
428.907	4.11
429.348	4.11
429.789	4.1
430.231	4.1
430.672	4.11
431.113	4.13
431.554	4.15
431.995	4.15
432.436	4.15
432.877	4.13
433.318	4.13
433.759	4.13
434.2	4.14
434.64	4.15
435.081	4.15
435.522	4.17
435.962	4.2
436.403	4.21
436.843	4.22
437.284	4.26
437.724	4.29
438.164	4.32
438.604	4.33
439.045	4.32
439.485	4.33
439.925	4.33
440.365	4.32
440.805	4.31
441.245	4.27
441.685	4.28
442.125	4.25
442.564	4.24
443.004	4.25
443.444	4.22
443.883	4.23
444.323	4.23
444.762	4.26
445.202	4.27
445.641	4.27
446.081	4.32
446.52	4.32
446.959	4.32
447.398	4.36
447.837	4.37
448.276	4.4
448.716	4.41
449.154	4.44
449.593	4.44
450.032	4.42
450.471	4.45
450.91	4.43
451.349	4.44
451.787	4.44
452.226	4.42
452.664	4.4
453.103	4.39
453.541	4.38
453.98	4.35
454.418	4.35
454.856	4.34
455.295	4.31
455.733	4.29
456.171	4.29
456.609	4.28
457.047	4.26
457.485	4.25
457.923	4.25
458.361	4.25
458.798	4.25
459.236	4.25
459.674	4.25
460.111	4.28
460.549	4.29
460.987	4.29
461.424	4.29
461.862	4.3
462.299	4.3
462.736	4.29
463.173	4.3
463.611	4.3
464.048	4.31
464.485	4.31
464.922	4.28
465.359	4.29
465.796	4.26
466.233	4.26
466.67	4.27
467.106	4.26
467.543	4.26
467.98	4.27
468.416	4.28
468.853	4.27
469.29	4.28
469.726	4.29
470.162	4.28
470.599	4.31
471.035	4.31
471.471	4.29
471.907	4.31
472.344	4.31
472.78	4.3
473.216	4.3
473.652	4.29
474.088	4.29
474.523	4.29
474.959	4.28
475.395	4.26
475.831	4.26
476.266	4.26
476.702	4.24
477.138	4.23
477.573	4.22
478.008	4.21
478.444	4.2
478.879	4.19
479.314	4.17
479.75	4.16
480.185	4.16
480.62	4.15
481.055	4.13
481.49	4.12
481.925	4.11
482.36	4.09
482.795	4.08
483.229	4.09
483.664	4.07
484.099	4.07
484.534	4.06
484.968	4.06
485.403	4.06
485.837	4.06
486.271	4.06
486.706	4.06
487.14	4.08
487.574	4.09
488.009	4.1
488.443	4.12
488.877	4.12
489.311	4.14
489.745	4.14
490.179	4.15
490.613	4.17
491.046	4.2
491.48	4.22
491.914	4.23
492.348	4.24
492.781	4.26
493.215	4.28
493.648	4.3
494.082	4.34
494.515	4.37
494.948	4.4
495.382	4.43
495.815	4.46
496.248	4.5
496.681	4.53
497.114	4.56
497.547	4.61
497.98	4.66
498.413	4.72
498.846	4.77
499.279	4.83
499.711	4.89
500.144	4.95
500.577	5.01
501.009	5.07
501.442	5.16
501.874	5.25
502.306	5.33
502.739	5.41
503.171	5.5
503.603	5.6
504.036	5.7
504.468	5.81
504.9	5.93
505.332	6.06
505.764	6.2
506.196	6.32
506.627	6.46
507.059	6.6
507.491	6.76
507.923	6.9
508.354	7.07
508.786	7.24
509.217	7.41
509.649	7.59
510.08	7.78
510.512	7.95
510.943	8.15
511.374	8.36
511.805	8.56
512.237	8.77
512.668	8.98
513.099	9.21
513.53	9.43
513.961	9.67
514.391	9.9
514.822	10.13
515.253	10.38
515.684	10.62
516.114	10.88
516.545	11.15
516.975	11.42
517.406	11.69
517.836	11.96
518.267	12.25
518.697	12.52
519.127	12.81
519.558	13.1
519.988	13.37
520.418	13.65
520.848	13.91
521.278	14.18
521.708	14.42
522.138	14.68
522.567	14.93
522.997	15.17
523.427	15.42
523.857	15.67
524.286	15.9
524.716	16.13
525.145	16.35
525.575	16.59
526.004	16.81
526.433	17.04
526.863	17.25
527.292	17.45
527.721	17.66
528.15	17.83
528.579	17.99
529.008	18.17
529.437	18.33
529.866	18.47
530.295	18.61
530.724	18.76
531.152	18.89
531.581	19
532.01	19.13
532.438	19.23
532.867	19.33
533.295	19.43
533.723	19.53
534.152	19.63
534.58	19.72
535.008	19.79
535.436	19.84
535.865	19.89
536.293	19.96
536.721	20.04
537.149	20.1
537.576	20.14
538.004	20.2
538.432	20.24
538.86	20.26
539.287	20.32
539.715	20.36
540.143	20.4
540.57	20.44
540.998	20.48
541.425	20.49
541.852	20.52
542.28	20.55
542.707	20.6
543.134	20.61
543.561	20.63
543.988	20.65
544.415	20.68
544.842	20.7
545.269	20.73
545.696	20.75
546.123	20.75
546.549	20.77
546.976	20.78
547.403	20.79
547.829	20.82
548.256	20.87
548.682	20.87
549.108	20.88
549.535	20.92
549.961	20.91
550.387	20.91
550.813	20.9
551.24	20.9
551.666	20.92
552.092	20.9
552.518	20.87
552.943	20.84
553.369	20.82
553.795	20.8
554.221	20.76
554.646	20.73
555.072	20.68
555.498	20.65
555.923	20.58
556.349	20.49
556.774	20.44
557.199	20.36
557.625	20.26
558.05	20.17
558.475	20.08
558.9	19.98
559.325	19.88
559.75	19.77
560.175	19.66
560.6	19.57
561.025	19.47
561.449	19.34
561.874	19.23
562.299	19.12
562.723	18.99
563.148	18.86
563.572	18.71
563.997	18.56
564.421	18.42
564.846	18.28
565.27	18.09
565.694	17.93
566.118	17.76
566.542	17.59
566.966	17.43
567.39	17.25
567.814	17.08
568.238	16.9
568.662	16.74
569.086	16.57
569.509	16.41
569.933	16.24
570.357	16.07
570.78	15.9
571.204	15.74
571.627	15.56
572.05	15.43
572.474	15.27
572.897	15.13
573.32	14.97
573.743	14.82
574.166	14.66
574.589	14.54
575.012	14.42
575.435	14.29
575.858	14.16
576.281	14.04
576.704	13.92
577.126	13.81
577.549	13.7
577.972	13.61
578.394	13.5
578.817	13.4
579.239	13.29
579.661	13.19
580.084	13.1
580.506	13.02
580.928	12.93
581.35	12.84
581.772	12.76
582.194	12.68
582.616	12.6
583.038	12.52
583.46	12.45
583.882	12.4
584.303	12.32
584.725	12.26
585.147	12.17
585.568	12.1
585.99	12.04
586.411	11.97
586.833	11.91
587.254	11.85
587.675	11.79
588.096	11.75
588.518	11.7
588.939	11.68
589.36	11.63
589.781	11.61
590.202	11.58
590.623	11.52
591.043	11.48
591.464	11.45
591.885	11.42
592.305	11.39
592.726	11.35
593.147	11.32
593.567	11.27
593.987	11.24
594.408	11.2
594.828	11.18
595.248	11.16
595.669	11.15
596.089	11.11
596.509	11.07
596.929	11.03
597.349	10.97
597.769	10.93
598.189	10.9
598.608	10.86
599.028	10.81
599.448	10.77
599.867	10.72
600.287	10.67
600.706	10.63
601.126	10.6
601.545	10.56
601.965	10.52
602.384	10.49
602.803	10.45
603.222	10.39
603.641	10.35
604.061	10.29
604.48	10.23
604.898	10.17
605.317	10.11
605.736	10.05
606.155	9.98
606.574	9.91
606.992	9.84
607.411	9.77
607.829	9.67
608.248	9.6
608.666	9.53
609.085	9.46
609.503	9.39
609.921	9.32
610.339	9.26
610.758	9.2
611.176	9.12
611.594	9.05
612.012	8.97
612.43	8.94
612.847	8.88
613.265	8.81
613.683	8.74
614.101	8.66
614.518	8.61
614.936	8.55
615.353	8.49
615.771	8.43
616.188	8.39
616.606	8.34
617.023	8.27
617.44	8.21
617.857	8.17
618.274	8.13
618.691	8.09
619.108	8.05
619.525	8
619.942	7.97
620.359	7.94
620.776	7.91
621.192	7.88
621.609	7.87
622.026	7.85
622.442	7.83
622.859	7.82
623.275	7.81
623.691	7.8
624.108	7.79
624.524	7.77
624.94	7.76
625.356	7.74
625.772	7.72
626.188	7.72
626.604	7.71
627.02	7.7
627.436	7.67
627.852	7.65
628.268	7.63
628.683	7.61
629.099	7.61
629.514	7.61
629.93	7.6
630.345	7.57
630.761	7.53
631.176	7.5
631.591	7.48
632.007	7.44
632.422	7.42
632.837	7.38
633.252	7.35
633.667	7.29
634.082	7.24
634.497	7.17
634.911	7.13
635.326	7.06
635.741	7.01
636.155	6.95
636.57	6.89
636.984	6.81
637.399	6.73
637.813	6.65
638.228	6.56
638.642	6.49
639.056	6.42
639.47	6.35
639.884	6.29
640.298	6.2
640.712	6.13
641.126	6.06
641.54	5.98
641.954	5.95
642.368	5.88
642.781	5.82
643.195	5.75
643.609	5.69
644.022	5.62
644.436	5.56
644.849	5.5
645.262	5.45
645.676	5.39
646.089	5.33
646.502	5.25
646.915	5.21
647.328	5.17
647.741	5.12
648.154	5.08
648.567	5.06
648.98	5.03
649.393	5.01
649.805	4.97
650.218	4.96
650.631	4.94
651.043	4.92
651.456	4.9
651.868	4.88
652.28	4.85
652.693	4.82
653.105	4.79
653.517	4.76
653.929	4.73
654.341	4.7
654.753	4.65
655.165	4.62
655.577	4.58
655.989	4.54
656.401	4.49
656.813	4.45
657.224	4.41
657.636	4.38
658.047	4.33
658.459	4.28
658.87	4.24
659.282	4.21
659.693	4.16
660.104	4.13
660.515	4.09
660.926	4.06
661.338	4.03
661.749	3.98
662.159	3.95
662.57	3.93
662.981	3.9
663.392	3.87
663.803	3.85
664.213	3.83
664.624	3.82
665.035	3.79
665.445	3.8
665.855	3.79
666.266	3.8
666.676	3.79
667.086	3.78
667.497	3.77
667.907	3.76
668.317	3.75
668.727	3.74
669.137	3.74
669.547	3.76
669.956	3.76
670.366	3.76
670.776	3.75
671.186	3.76
671.595	3.78
672.005	3.8
672.414	3.83
672.824	3.85
673.233	3.88
673.642	3.88
674.052	3.89
674.461	3.9
674.87	3.92
675.279	3.96
675.688	3.98
676.097	4
676.506	4.02
676.915	4.05
677.323	4.07
677.732	4.1
678.141	4.13
678.549	4.16
678.958	4.19
679.366	4.21
679.775	4.24
680.183	4.28
680.592	4.32
681	4.35
681.408	4.38
681.816	4.43
682.224	4.48
682.632	4.54
683.04	4.61
683.448	4.68
683.856	4.76
684.264	4.83
684.671	4.92
685.079	5.02
685.487	5.15
685.894	5.28
686.302	5.42
686.709	5.57
687.116	5.74
687.524	5.93
687.931	6.14
688.338	6.38
688.745	6.63
689.152	6.91
689.559	7.2
689.966	7.51
690.373	7.85
690.78	8.21
691.187	8.61
691.593	9.01
692	9.43
692.407	9.86
692.813	10.32
693.22	10.79
693.626	11.3
694.032	11.82
694.439	12.36
694.845	12.91
695.251	13.48
695.657	14.03
696.063	14.61
696.469	15.22
696.875	15.82
697.281	16.41
697.687	17.04
698.093	17.63
698.498	18.25
698.904	18.85
699.31	19.47
699.715	20.07
700.12	20.69
700.526	21.3
700.931	21.89
701.337	22.49
701.742	23.09
702.147	23.66
702.552	24.27
702.957	24.85
703.362	25.45
703.767	25.98
704.172	26.55
704.577	27.12
704.981	27.67
705.386	28.2
705.791	28.77
706.195	29.31
706.6	29.85
707.004	30.37
707.408	30.89
707.813	31.42
708.217	31.95
708.621	32.47
709.025	32.96
709.43	33.45
709.834	33.98
710.237	34.45
710.641	34.96
711.045	35.44
711.449	35.93
711.853	36.4
712.256	36.88
712.66	37.35
713.064	37.79
713.467	38.26
713.87	38.73
714.274	39.17
714.677	39.61
715.08	40.04
715.484	40.49
715.887	40.91
716.29	41.34
716.693	41.74
717.096	42.15
717.499	42.57
717.901	42.95
718.304	43.35
718.707	43.7
719.109	44.08
719.512	44.47
719.915	44.79
720.317	45.17
720.719	45.5
721.122	45.83
721.524	46.17
721.926	46.5
722.328	46.83
722.731	47.14
723.133	47.46
723.535	47.77
723.937	48.07
724.338	48.34
724.74	48.57
725.142	48.74
725.544	48.98
725.945	49.19
726.347	49.43
726.748	49.64
727.15	49.86
727.551	50.11
727.952	50.3
728.354	50.52
728.755	50.76
729.156	50.99
729.557	51.29
729.958	51.52
730.359	51.73
730.76	51.89
731.161	52.08
731.562	52.25
731.962	52.39
732.363	52.55
732.763	52.71
733.164	52.83
733.564	52.97
733.965	53.06
734.365	53.17
734.766	53.27
735.166	53.38
735.566	53.48
735.966	53.61
736.366	53.7
736.766	53.76
737.166	53.84
737.566	53.9
737.966	53.98
738.365	54.1
738.765	54.21
739.165	54.29
739.564	54.4
739.964	54.47
740.363	54.53
740.763	54.57
741.162	54.66
741.561	54.73
741.96	54.81
742.36	54.88
742.759	54.91
743.158	54.94
743.557	55
743.955	55.05
744.354	55.11
744.753	55.17
745.152	55.24
745.55	55.3
745.949	55.34
746.348	55.37
746.746	55.39
747.144	55.45
747.543	55.52
747.941	55.59
748.339	55.64
748.737	55.72
749.136	55.77
749.534	55.79
749.932	55.82
750.33	55.86
750.727	55.91
751.125	55.94
751.523	55.95
751.921	55.94
752.318	55.94
752.716	55.92
753.113	55.89
753.511	55.85
753.908	55.85
754.305	55.84
754.703	55.84
755.1	55.82
755.497	55.84
755.894	55.83
756.291	55.82
756.688	55.82
757.085	55.83
757.482	55.82
757.878	55.86
758.275	55.83
758.672	55.85
759.068	55.87
759.465	55.87
759.861	55.82
760.258	55.83
760.654	55.84
761.05	55.85
761.447	55.83
761.843	55.83
762.239	55.79
762.635	55.83
763.031	55.85
763.427	55.79
763.822	55.77
764.218	55.81
764.614	55.81
765.01	55.79
765.405	55.75
765.801	55.75
766.196	55.73
766.592	55.78
766.987	55.8
767.382	55.79
767.778	55.79
768.173	55.82
768.568	55.79
768.963	55.8
769.358	55.82
769.753	55.84
770.148	55.83
770.542	55.85
770.937	55.79
771.332	55.77
771.726	55.75
772.121	55.73
772.515	55.71
772.91	55.71
773.304	55.7
773.699	55.67
774.093	55.65
774.487	55.64
774.881	55.63
775.275	55.67
775.669	55.65
776.063	55.64
776.457	55.65
776.851	55.63
777.245	55.61
777.638	55.61
778.032	55.63
778.425	55.69
778.819	55.68
779.212	55.66
779.606	55.63
779.999	55.62
780.392	55.64
780.786	55.64
781.179	55.67
781.572	55.65
781.965	55.64
782.358	55.62
782.751	55.6
783.143	55.66
783.536	55.7
783.929	55.72
784.322	55.74
784.714	55.73
785.107	55.75
785.499	55.78
785.891	55.81
786.284	55.76
786.676	55.77
787.068	55.73
787.46	55.67
787.852	55.61
788.245	55.58
788.636	55.56
789.028	55.56
789.42	55.49
789.812	55.48
790.204	55.42
790.595	55.44
790.987	55.39
791.378	55.38
791.77	55.39
792.161	55.41
792.553	55.42
792.944	55.43
793.335	55.43
793.726	55.43
794.117	55.39
794.508	55.42
794.899	55.42
795.29	55.44
795.681	55.46
796.072	55.45
796.463	55.4
796.853	55.42
797.244	55.4
797.634	55.39
798.025	55.42
798.415	55.46
798.806	55.5
799.196	55.58
799.586	55.58
799.976	55.6
800.366	55.64
800.756	55.69
801.146	55.69
801.536	55.71
801.926	55.71
802.316	55.74
802.706	55.74
803.095	55.72
803.485	55.71
803.874	55.73
804.264	55.72
804.653	55.68
805.043	55.68
805.432	55.65
805.821	55.63
806.21	55.66
806.599	55.68
806.988	55.64
807.377	55.66
807.766	55.62
808.155	55.59
808.544	55.6
808.933	55.62
809.321	55.64
809.71	55.71
810.098	55.72
810.487	55.73
810.875	55.7
811.264	55.74
811.652	55.73
812.04	55.75
812.428	55.78
812.816	55.79
813.204	55.79
813.592	55.77
813.98	55.7
814.368	55.7
814.756	55.69
815.144	55.71
815.531	55.7
815.919	55.69
816.306	55.69
816.694	55.7
817.081	55.67
817.469	55.68
817.856	55.75
818.243	55.78
818.63	55.82
819.017	55.82
819.404	55.81
819.791	55.81
820.178	55.84
820.565	55.85
820.952	55.83
821.339	55.89
821.725	55.92
822.112	55.9
822.498	55.9
822.885	55.9
823.271	55.91
823.657	55.92
824.044	55.92
824.43	55.9
824.816	55.87
825.202	55.89
825.588	55.9
825.974	55.88
826.36	55.85
826.746	55.9
827.132	55.89
827.517	55.9
827.903	55.9
828.289	55.92
828.674	55.92
829.06	55.98
829.445	55.98
829.83	55.98
830.216	55.99
830.601	56
830.986	55.98
831.371	56.01
831.756	55.97
832.141	56
832.526	55.99
832.911	56.03
833.295	56.03
833.68	56.04
834.065	56.05
834.449	56.03
834.834	56.03
835.218	56.01
835.603	56.03
835.987	56.05
836.371	56.06
836.755	56.04
837.139	56.03
837.524	56.01
837.908	56.02
838.291	55.99
838.675	56.04
839.059	56.05
839.443	56.07
839.827	56.07
840.21	56.09
840.594	56.08
840.977	56.11
841.361	56.13
841.744	56.15
842.127	56.13
842.511	56.12
842.894	56.07
843.277	56.09
843.66	56.07
844.043	56.07
844.426	56.06
844.809	56.04
845.191	56.01
845.574	55.97
845.957	55.96
846.339	55.97
846.722	56.01
847.104	56.04
847.487	56.05
847.869	56.04
848.252	56.03
848.634	56.05
849.016	56.1
849.398	56.11
849.78	56.13
850.162	56.11
850.544	56.12
850.926	56.07
851.307	56.05
851.689	56.02
852.071	56.01
852.452	56.02
852.834	55.97
853.215	55.95
853.597	55.96
853.978	55.96
854.359	55.97
854.741	55.98
855.122	55.98
855.503	56
855.884	55.99
856.265	55.98
856.646	55.95
857.026	55.96
857.407	55.93
857.788	55.93
858.169	55.92
858.549	55.92
858.93	55.91
859.31	55.89
859.69	55.89
860.071	55.89
860.451	55.92
860.831	55.93
861.211	55.9
861.591	55.9
861.971	55.85
862.351	55.86
862.731	55.85
863.111	55.84
863.491	55.85
863.87	55.82
864.25	55.81
864.629	55.78
865.009	55.75
865.388	55.75
865.768	55.75
866.147	55.79
866.526	55.77
866.905	55.76
867.284	55.76
867.663	55.78
868.042	55.79
868.421	55.79
868.8	55.81
869.179	55.84
869.558	55.88
869.936	55.84
870.315	55.84
870.693	55.85
871.072	55.87
871.45	55.85
871.828	55.84
872.207	55.88
872.585	55.86
872.963	55.85
873.341	55.84
873.719	55.78
874.097	55.85
874.475	55.82
874.853	55.8
875.23	55.81
875.608	55.82
875.986	55.83
876.363	55.78
876.741	55.79
877.118	55.76
877.495	55.76
877.873	55.78
878.25	55.77
878.627	55.77
879.004	55.81
879.381	55.79
879.758	55.82
880.135	55.81
880.512	55.85
880.889	55.85
881.265	55.89
881.642	55.87
882.019	55.91
882.395	55.93
882.772	55.96
883.148	55.96
883.524	55.97
883.901	55.92
884.277	55.92
884.653	55.92
885.029	55.94
885.405	55.94
885.781	55.93
886.157	55.91
886.532	55.91
886.908	55.93
887.284	55.92
887.659	55.93
888.035	55.94
888.411	55.93
888.786	55.93
889.161	55.92
889.537	55.92
889.912	55.93
890.287	55.92
890.662	55.89
891.037	55.84
891.412	55.84
891.787	55.81
892.162	55.81
892.536	55.81
892.911	55.78
893.286	55.74
893.66	55.7
894.035	55.69
894.409	55.69
894.784	55.68
895.158	55.68
895.532	55.66
895.906	55.63
896.281	55.62
896.655	55.6
897.029	55.6
897.402	55.62
897.776	55.62
898.15	55.62
898.524	55.59
898.898	55.55
899.271	55.55
899.645	55.54
900.018	55.55
900.392	55.58
900.765	55.58
901.138	55.58
901.511	55.55
901.884	55.56
902.258	55.57
902.631	55.6
903.003	55.61
903.376	55.61
903.749	55.63
904.122	55.6
904.495	55.54
904.867	55.49
905.24	55.47
905.612	55.47
905.985	55.43
906.357	55.4
906.729	55.34
907.102	55.33
907.474	55.32
907.846	55.25
908.218	55.23
908.59	55.22
908.962	55.25
909.334	55.27
909.705	55.26
910.077	55.23
910.449	55.23
910.82	55.22
911.192	55.19
911.563	55.13
911.935	55.13
912.306	55.12
912.677	55.14
913.048	55.13
913.419	55.09
913.79	55.08
914.161	55.06
914.532	55.05
914.903	55.05
915.274	55.03
915.645	55.07
916.015	55.1
916.386	55.09
916.756	55.06
917.127	55.03
917.497	55.01
917.868	54.99
918.238	55.03
918.608	55.07
918.978	55.05
919.348	55.05
919.718	55.03
920.088	55.04
920.458	55.06
920.828	55.08
921.198	55.11
921.567	55.1
921.937	55.12
922.306	55.12
922.676	55.1
923.045	55.11
923.415	55.11
923.784	55.15
924.153	55.12
924.522	55.11
924.891	55.09
925.26	55.05
925.629	55.02
925.998	54.99
926.367	54.99
926.736	54.96
927.104	54.98
927.473	55
927.842	54.96
928.21	54.97
928.578	54.89
928.947	54.86
929.315	54.84
929.683	54.9
930.051	54.9
930.42	54.89
930.788	54.88
931.156	54.86
931.523	54.79
931.891	54.72
932.259	54.66
932.627	54.65
932.994	54.65
933.362	54.61
933.729	54.5
934.097	54.44
934.464	54.32
934.831	54.3
935.199	54.21
935.566	54.16
935.933	54.18
936.3	54.07
936.667	54.05
937.034	54
937.401	53.92
937.767	53.97
938.134	53.91
938.501	53.9
938.867	53.89
939.234	53.92
939.6	53.96
939.967	53.95
940.333	54.11
940.699	54.22
941.065	54.26
941.431	54.36
941.798	54.37
942.163	54.5
942.529	54.56
942.895	54.58
943.261	54.64
943.627	54.71
943.992	54.72
944.358	54.68
944.723	54.63
945.089	54.67
945.454	54.69
945.82	54.65
946.185	54.64
946.55	54.71
946.915	54.71
947.28	54.71
947.645	54.68
948.01	54.63
948.375	54.61
948.74	54.57
949.104	54.57
949.469	54.5
949.834	54.52
950.198	54.49
950.562	54.4
950.927	54.35
951.291	54.33
951.655	54.36
952.02	54.46
952.384	54.59
952.748	54.58
953.112	54.53
953.476	54.56
953.839	54.56
954.203	54.46
954.567	54.44
954.931	54.43
955.294	54.36
955.658	54.27
956.021	54.21
956.385	54.16
956.748	54.2
957.111	54.17
957.474	54.2
957.837	54.17
958.2	54.18
958.563	54.2
958.926	54.2
959.289	54.18
959.652	54.21
960.015	54.16
960.377	54.06
960.74	53.99
961.102	53.99
961.465	53.95
961.827	53.81
962.189	53.79
962.552	53.69
962.914	53.63
963.276	53.65
963.638	53.57
964	53.5
964.362	53.52
964.724	53.57
965.085	53.58
965.447	53.47
965.809	53.57
966.17	53.57
966.532	53.68
966.893	53.75
967.255	53.73
967.616	53.81
967.977	53.91
968.338	53.92
968.699	53.88
969.061	53.8
969.421	53.85
969.782	53.84
970.143	53.84
970.504	53.71
970.865	53.57
971.225	53.59
971.586	53.54
971.946	53.44
972.307	53.36
972.667	53.4
973.027	53.48
973.388	53.46
973.748	53.47
974.108	53.44
974.468	53.5
974.828	53.59
975.188	53.56
975.548	53.62
975.907	53.65
976.267	53.71
976.627	53.67
976.986	53.64
977.346	53.6
977.705	53.64
978.064	53.68
978.424	53.73
978.783	53.7
979.142	53.67
979.501	53.5
979.86	53.53
980.219	53.4
980.578	53.37
980.937	53.34
981.296	53.35
981.654	53.31
982.013	53.26
982.371	53.19
982.73	53.14
983.088	53.13
983.447	53.25
983.805	53.26
984.163	53.35
984.521	53.3
984.879	53.38
985.237	53.43
985.595	53.38
985.953	53.39
986.311	53.45
986.669	53.51
987.026	53.54
987.384	53.52
987.741	53.48
988.099	53.44
988.456	53.44
988.814	53.37
989.171	53.34
989.528	53.31
989.885	53.32
990.242	53.35
990.599	53.34
990.956	53.39
991.313	53.41
991.67	53.4
992.027	53.39
992.383	53.43
992.74	53.33
993.096	53.22
993.453	53.19
993.809	53.22
994.165	53.18
994.522	53.12
994.878	53.04
995.234	52.91
995.59	52.94
995.946	53.05
996.302	52.96
996.658	53.12
997.013	53.3
997.369	53.28
997.725	53.32
998.08	53.31
998.436	53.48
998.791	53.47
999.147	53.54
999.502	53.44
999.857	53.38
1000.212	53.28
1000.567	53.19
1000.922	53.13
1001.277	53.21
1001.632	53.22
1001.987	53.04
1002.342	52.89
1002.696	53.06
1003.051	52.93
1003.406	52.93
1003.76	52.93
1004.114	53.18
1004.469	52.96
1004.823	52.9
1005.177	53.07
1005.531	52.88
1005.885	53
1006.239	53.05
1006.593	52.79
1006.947	52.7
1007.301	52.67
1007.655	52.74
1008.008	52.54
1008.362	52.77
1008.715	52.84
1009.069	52.47
1009.422	52.51
1009.776	52.47
1010.129	52.21
1010.482	52.47
1010.835	52.61
1011.188	52.68
1011.541	52.26
1011.894	52.31
1012.247	52.37
1012.6	52.21
1012.952	52.38
1013.305	52.2
1013.657	52.09
1014.01	52.44
1014.362	52.09
1014.715	51.84
1015.067	52.03
1015.419	52.33
1015.771	52.4
1016.123	52.24
1016.475	52.38
1016.827	52.38
1017.179	52.54
1017.531	52.73
1017.883	52.52
1018.234	52.43
1018.586	52.67
1018.938	52.29
1019.289	51.98
1019.64	52.06
1019.992	51.95
1020.343	51.73
1020.694	51.74
1021.045	51.8
1021.396	51.73
1021.747	51.7
1022.098	52.02
1022.449	52.16
1022.8	52.43
1023.151	52.57
1023.501	52.52
1023.852	52.59
1024.202	52.73
1024.553	52.49
1024.903	52.43
1025.253	52.49
1025.604	52.42
1025.954	52.18
1026.304	52.44
1026.654	52.41
1027.004	53.02
1027.354	52.87
1027.703	52.94
1028.053	52.71
1028.403	53.19
1028.753	53.41
1029.102	52.9
1029.452	52.69
1029.801	52.5
1030.15	52.16
1030.499	51.89
897.758	80.07
901.051	91.44
904.343	91.56
907.636	93.01
910.928	94.68
914.22	93.15
917.511	91.3
920.803	95.77
924.094	94.43
927.384	98.9
930.675	91.68
933.965	91.78
937.255	90.48
940.544	87.85
943.834	81.79
947.123	80.7
950.411	81.36
953.7	81.82
956.988	76.87
960.276	76.13
963.563	77.13
966.851	76.37
970.138	77.4
973.424	72.99
976.711	73.13
979.997	73.06
983.283	71.38
986.568	69.6
989.853	68.79
993.138	69.62
996.423	68.41
999.708	67.1
1002.992	66.67
1006.275	66.83
1009.559	68.53
1012.842	66.51
1016.125	66.69
1019.408	66.3
1022.69	67.96
1025.972	68.82
1029.254	67.65
1032.536	67.82
1035.817	67.26
1039.098	67.29
1042.379	66.68
1045.659	64.87
1048.939	65.28
1052.219	64.98
1055.498	65.34
1058.778	64.04
1062.057	63.08
1065.335	63.69
1068.614	62.34
1071.892	62.14
1075.17	61.42
1078.447	61.87
1081.724	62.08
1085.001	61.96
1088.278	61.25
1091.554	60.92
1094.83	61.72
1098.106	62.45
1101.382	62.55
1104.657	63.03
1107.932	62.34
1111.206	62.96
1114.481	62.07
1117.755	61.69
1121.029	61.63
1124.302	61.6
1127.575	61.78
1130.848	60.75
1134.121	59.57
1137.393	59.51
1140.665	58.78
1143.937	58.07
1147.208	57.69
1150.48	57.45
1153.75	57.28
1157.021	57.7
1160.291	57.84
1163.561	56.31
1166.831	57.22
1170.101	57.25
1173.37	57.17
1176.639	57.12
1179.907	57.64
1183.176	57.64
1186.444	57.48
1189.711	57.39
1192.979	57.18
1196.246	58.01
1199.513	57.78
1202.78	57.34
1206.046	57.62
1209.312	56.89
1212.578	56.94
1215.843	57.81
1219.108	57.16
1222.373	57.44
1225.638	57.58
1228.902	57.94
1232.166	57.55
1235.43	57.9
1238.693	57.55
1241.956	57.42
1245.219	58.3
1248.482	58.8
1251.744	57.95
1255.006	59.35
1258.268	58.42
1261.529	58.72
1264.79	59.2
1268.051	58.93
1271.312	60.26
1274.572	59.93
1277.832	60.04
1281.092	60.06
1284.351	60.27
1287.61	60.18
1290.869	58.82
1294.128	59.42
1297.386	58.99
1300.644	57.97
1303.902	57.45
1307.159	56.84
1310.416	56.6
1313.673	57.06
1316.93	56.74
1320.186	56.5
1323.442	55.93
1326.697	56.34
1329.953	55.41
1333.208	55.05
1336.463	55.14
1339.717	55.49
1342.972	55.64
1346.226	56.2
1349.479	56.01
1352.733	56.5
1355.986	54.98
1359.238	55.57
1362.491	55.59
1365.743	56.15
1368.995	56.24
1372.247	54.61
1375.498	53.62
1378.749	52.49
1382	51.95
1385.251	49.04
1388.501	49.08
1391.751	49.54
1395	48.38
1398.25	47.67
1401.499	46.55
1404.748	45.67
1407.996	46.89
1411.244	47.61
1414.492	46.59
1417.74	43.39
1420.987	43.4
1424.234	42.47
1427.481	40.71
1430.728	40.49
1433.974	39.65
1437.22	38.97
1440.465	37.67
1443.711	35.48
1446.956	34.98
1450.201	34.64
1453.445	34.16
1456.689	34.05
1459.933	33.45
1463.177	31.37
1466.42	31.14
1469.663	31.14
1472.906	30.94
1476.148	30.95
1479.391	31.15
1482.633	30.7
1485.874	30.83
1489.115	31.68
1492.356	31.42
1495.597	31.49
1498.838	33.27
1502.078	33.42
1505.318	33.34
1508.557	32.83
1511.797	33.7
1515.036	35.08
1518.274	35.16
1521.513	35.17
1524.751	35.54
1527.989	36.53
1531.227	36.35
1534.464	36.9
1537.701	36.53
1540.938	36.7
1544.174	37.57
1547.41	37.78
1550.646	37.84
1553.882	38.23
1557.117	39.02
1560.352	38.58
1563.587	38.86
1566.821	39.27
1570.055	39.43
1573.289	40.71
1576.523	40.6
1579.756	40.5
1582.989	40.9
1586.222	40.7
1589.454	41.11
1592.686	41.29
1595.918	41.63
1599.15	41.75
1602.381	41.76
1605.612	42.26
1608.843	41.71
1612.073	41.97
1615.303	43.07
1618.533	42.63
1621.762	43.15
1624.992	42.61
1628.221	42.61
1631.449	42.96
1634.678	43.15
1637.906	43.45
1641.134	43.44
1644.361	43.65
1647.588	44.34
1650.815	43.84
1654.042	44.39
1657.269	43.77
1660.495	44.53
1663.72	44.25
1666.946	44.25
1670.171	44.22
1673.396	43.6
1676.621	43.61
1679.845	44
1683.069	43.09
1686.293	42.54
1689.517	42.71
1692.74	42.8
1695.963	42.66
1699.185	42.7
1702.408	42.47
1705.63	42.33
1708.852	42.82
1712.073	42.44
1715.294	42.03
1718.515	42.47
1721.736	42.86
1724.956	42.08
1728.176	42.12
1731.396	42
1734.616	42.33
1737.835	41.98
1741.054	41.81
1744.272	42.01
1747.491	42.02
1750.709	41.5
1753.927	41.37
1757.144	41.58
1760.361	41.32
1763.578	40.97
1766.795	40.89
1770.011	40.85
1773.227	40.86
1776.443	40.83
1779.658	40.12
1782.874	40.33
1786.089	39.83
1789.303	39.94
1792.518	39.9
1795.732	40.22
1798.945	40.89
1802.159	40.84
1805.372	40.49
1808.585	40.77
1811.797	40.93
1815.01	41.1
1818.222	41.06
1821.434	41.37
1824.645	41.06
1827.856	40.63
1831.067	40.12
1834.278	40.26
1837.488	40.24
1840.698	39.6
1843.908	39.23
1847.117	39.19
1850.326	38.34
1853.535	38.64
1856.744	37.69
1859.952	37.42
1863.16	36.82
1866.368	36.64
1869.575	35.19
1872.782	33.39
1875.989	31.81
1879.196	31.42
1882.402	28.76
1885.608	29.11
1888.814	26.24
1892.019	25.27
1895.224	23.68
1898.429	22.32
1901.634	21.49
1904.838	19.9
1908.042	19.85
1911.246	19.72
1914.449	18.73
1917.652	19.5
1920.855	17.43
1924.058	17.23
1927.26	16.76
1930.462	16.38
1933.664	17.56
1936.865	17.43
1940.066	16.67
1943.267	16.3
1946.467	16.48
1949.668	15.99
1952.868	15.64
1956.067	16.21
1959.267	17.72
1962.466	17.75
1965.665	18.74
1968.863	18.78
1972.061	17.38
1975.259	19.02
1978.457	19.76
1981.654	20.12
1984.852	20.93
1988.048	21.4
1991.245	22.66
1994.441	21.94
1997.637	22.54
2000.833	24.4
2004.028	23.7
2007.223	25.5
2010.418	26.62
2013.613	27.83
2016.807	28.98
2020.001	28.13
2023.194	30.19
2026.388	30.21
2029.581	31.81
2032.774	33.07
2035.966	31.42
2039.158	33.71
2042.35	33.86
2045.542	34
2048.733	35.8
2051.924	31.94
2055.115	35.6
2058.306	35.21
2061.496	34.62
2064.686	33.81
2067.875	34.19
2071.065	37.14
2074.254	36.47
2077.442	37.69
2080.631	37.06
2083.819	35.66
2087.007	40.33
2090.195	40.22
2093.382	37.65
2096.569	38.79
2099.756	43.4
2102.942	44.12
2106.128	42.58
2109.314	44.21
2112.5	44.61
2115.685	44.59
2118.87	44.55
2122.055	45.62
2125.239	44.22
2128.424	46.97
2131.608	45.25
2134.791	43.15
2137.974	42.59
2141.157	44.2
2144.34	43.56
2147.523	45.49
2150.705	46.57
2153.887	45.38
2157.068	46.09
2160.25	47.11
2163.431	47.12
2166.611	49.28
2169.792	48.61
2172.972	52.43
2176.152	52.63
2179.331	53.18
2182.511	51.27
2185.69	53.94
2188.868	53.32
2192.047	52.43
2195.225	54.11
2198.403	50.01
2201.58	52.21
2204.758	54.97
2207.935	52.4
2211.111	50.15
2214.288	51.77
2217.464	53.02
2220.64	53.8
2223.815	56.02
2226.991	57.8
2230.166	57.73
2233.34	62.8
2236.515	59.57
2239.689	56.34
2242.863	57.74
2246.036	59.03
2249.209	56.33
2252.382	57.15
2255.555	55.44
2258.727	56.88
2261.9	56.39
2265.071	56.14
2268.243	59.86
2271.414	58.66
2274.585	59.72
2277.756	62.04
2280.926	58.62
2284.096	59.68
2287.266	60.74
2290.436	61.05
2293.605	64.03
2296.774	68.91
2299.942	66.16
2303.111	64.49
2306.279	70.91
2309.447	72.51
2312.614	69.81
2315.781	71.15
2318.948	75.12
2322.115	76.56
2325.281	73.3
2328.447	67.13
2331.613	67.58
2334.779	71.8
2337.944	68.14
2341.109	67.27
2344.274	67.57
2347.438	65.75
2350.602	73.84
2353.766	76.13
2356.929	71.96
2360.092	77.83
2363.255	83.13
2366.418	79.92
2369.58	76.82
2372.742	88.58
2375.904	88.22
2379.066	90.65
2382.227	98.58
2385.388	91.63
2388.548	89.5
2391.709	90.93
2394.869	93.79
2398.029	98.97
2401.188	98.98
2404.347	101.55
2407.506	95.68
2410.665	95.25
2413.823	96.65
2416.981	98.83
2420.139	97.7
2423.296	102.01
2426.453	107.17
2429.61	100.09
2432.767	97.57
2435.923	102.7
2439.079	105.97
2442.235	107.71
2445.391	112.08
2448.546	115.55
2451.701	114.11
2454.855	121.25
2458.009	111.12
2461.163	111.2
2464.317	116.35
2467.471	111.5
2470.624	117.08
2473.777	114.75
2476.929	121.2
2480.082	115.26
2483.234	116.43
2486.385	117.66
2489.537	122.88
2492.688	136.62
2495.839	139.52
2498.989	142.02
2502.14	150.05
2505.29	134.4
2508.439	145.05
2511.589	141.02
2514.738	138.04
2517.887	136.31
2521.035	132.1
2524.183	132.2
2527.331	129.82
2530.479	123.95
2533.627	126.27
