Data from c_1_hir_wi_4n_043_Splice17_18.txt Node
Date: Sat Feb 29 13:29:41 EST 2020
User: sa697716
Spectrometer: FLMS03696
Trigger mode: 0
Integration Time (sec): 3.180400E-1
Scans to average: 20
Electric dark correction enabled: true
Nonlinearity correction enabled: true
Boxcar width: 5
XAxis mode: Wavelengths
Number of Pixels in Spectrum: 2048
>>>>>Begin Spectral Data<<<<<
187.83	72.7
188.298	78.52
188.766	72.02
189.233	51.07
189.701	63.15
190.169	73.21
190.636	84.62
191.104	91.5
191.571	206.43
192.039	108.68
192.506	127.65
192.974	548.8
193.441	113.37
193.908	51.79
194.375	-100.46
194.842	-37.33
195.31	40.99
195.777	70.56
196.244	92.94
196.711	92.46
197.177	91.65
197.644	92.89
198.111	93.03
198.578	93.59
199.045	94.81
199.511	95.09
199.978	95.61
200.445	95.3
200.911	95.56
201.378	95.49
201.844	96.58
202.31	97.05
202.777	97.02
203.243	97.9
203.709	97.64
204.176	96.93
204.642	96.49
205.108	95.93
205.574	96.04
206.04	95.09
206.506	94.58
206.972	92.9
207.438	92.02
207.903	91.05
208.369	88.66
208.835	87.48
209.301	86.23
209.766	84.44
210.232	82.54
210.697	80.29
211.163	78.66
211.628	76.67
212.094	75
212.559	73.25
213.024	71.21
213.49	69.57
213.955	67.49
214.42	64.96
214.885	62.43
215.35	59.29
215.815	55.87
216.28	51.89
216.745	47.14
217.21	42.5
217.675	38.15
218.14	34.14
218.604	30.53
219.069	27.58
219.534	25.03
219.998	22.91
220.463	21.13
220.927	19.55
221.392	18.22
221.856	17.17
222.32	16.28
222.785	15.45
223.249	14.79
223.713	14.21
224.177	13.62
224.642	13.14
225.106	12.71
225.57	12.3
226.034	11.97
226.497	11.62
226.961	11.27
227.425	10.92
227.889	10.61
228.353	10.3
228.816	10.05
229.28	9.82
229.744	9.59
230.207	9.37
230.671	9.17
231.134	8.96
231.597	8.79
232.061	8.62
232.524	8.49
232.987	8.35
233.45	8.22
233.914	8.08
234.377	7.97
234.84	7.84
235.303	7.73
235.766	7.62
236.229	7.53
236.691	7.43
237.154	7.35
237.617	7.28
238.08	7.19
238.542	7.11
239.005	7.03
239.468	6.92
239.93	6.87
240.393	6.8
240.855	6.72
241.317	6.64
241.78	6.58
242.242	6.51
242.704	6.44
243.166	6.37
243.629	6.31
244.091	6.24
244.553	6.19
245.015	6.13
245.477	6.04
245.939	5.98
246.4	5.92
246.862	5.86
247.324	5.81
247.786	5.75
248.247	5.69
248.709	5.65
249.17	5.61
249.632	5.56
250.093	5.49
250.555	5.45
251.016	5.41
251.477	5.37
251.939	5.32
252.4	5.27
252.861	5.22
253.322	5.17
253.783	5.13
254.244	5.08
254.705	5.03
255.166	4.99
255.627	4.96
256.088	4.91
256.549	4.85
257.009	4.81
257.47	4.77
257.931	4.72
258.391	4.66
258.852	4.6
259.312	4.56
259.773	4.51
260.233	4.46
260.694	4.4
261.154	4.35
261.614	4.31
262.074	4.27
262.534	4.22
262.994	4.17
263.455	4.14
263.915	4.1
264.374	4.07
264.834	4.03
265.294	3.99
265.754	3.96
266.214	3.93
266.673	3.9
267.133	3.88
267.593	3.86
268.052	3.84
268.512	3.81
268.971	3.8
269.431	3.78
269.89	3.77
270.349	3.76
270.809	3.75
271.268	3.74
271.727	3.72
272.186	3.71
272.645	3.7
273.104	3.68
273.563	3.68
274.022	3.67
274.481	3.66
274.94	3.64
275.399	3.63
275.857	3.63
276.316	3.61
276.775	3.6
277.233	3.59
277.692	3.58
278.15	3.57
278.609	3.56
279.067	3.55
279.525	3.54
279.984	3.54
280.442	3.53
280.9	3.52
281.358	3.53
281.816	3.53
282.274	3.53
282.732	3.52
283.19	3.53
283.648	3.53
284.106	3.54
284.564	3.54
285.021	3.53
285.479	3.55
285.937	3.55
286.394	3.54
286.852	3.52
287.309	3.52
287.767	3.51
288.224	3.5
288.682	3.48
289.139	3.47
289.596	3.44
290.053	3.43
290.511	3.39
290.968	3.37
291.425	3.35
291.882	3.33
292.339	3.31
292.796	3.29
293.252	3.26
293.709	3.25
294.166	3.23
294.623	3.22
295.079	3.2
295.536	3.19
295.992	3.18
296.449	3.17
296.905	3.16
297.362	3.14
297.818	3.13
298.274	3.12
298.731	3.12
299.187	3.11
299.643	3.11
300.099	3.1
300.555	3.09
301.011	3.09
301.467	3.08
301.923	3.07
302.379	3.08
302.835	3.08
303.291	3.08
303.746	3.07
304.202	3.07
304.658	3.06
305.113	3.06
305.569	3.07
306.024	3.07
306.479	3.08
306.935	3.08
307.39	3.08
307.845	3.08
308.301	3.09
308.756	3.1
309.211	3.11
309.666	3.12
310.121	3.13
310.576	3.13
311.031	3.14
311.486	3.14
311.94	3.15
312.395	3.15
312.85	3.15
313.305	3.15
313.759	3.16
314.214	3.15
314.668	3.16
315.123	3.16
315.577	3.16
316.032	3.15
316.486	3.14
316.94	3.14
317.394	3.13
317.849	3.12
318.303	3.1
318.757	3.08
319.211	3.06
319.665	3.04
320.119	3.03
320.572	3.02
321.026	3.01
321.48	3
321.934	3
322.387	2.99
322.841	2.99
323.295	2.98
323.748	2.99
324.202	2.99
324.655	2.99
325.108	2.98
325.562	2.98
326.015	2.96
326.468	2.96
326.921	2.95
327.374	2.95
327.827	2.96
328.28	2.95
328.733	2.95
329.186	2.95
329.639	2.94
330.092	2.94
330.545	2.95
330.997	2.96
331.45	2.97
331.903	2.97
332.355	2.97
332.808	2.98
333.26	2.99
333.713	3
334.165	3.01
334.617	3.02
335.069	3.04
335.522	3.06
335.974	3.07
336.426	3.07
336.878	3.07
337.33	3.07
337.782	3.07
338.234	3.08
338.686	3.08
339.137	3.08
339.589	3.07
340.041	3.07
340.493	3.03
340.944	3.01
341.396	3.01
341.847	3
342.299	2.98
342.75	2.96
343.201	2.94
343.653	2.92
344.104	2.91
344.555	2.9
345.006	2.89
345.457	2.89
345.908	2.88
346.359	2.88
346.81	2.88
347.261	2.87
347.712	2.87
348.163	2.87
348.613	2.87
349.064	2.86
349.515	2.84
349.965	2.84
350.416	2.83
350.866	2.83
351.317	2.82
351.767	2.82
352.217	2.81
352.668	2.82
353.118	2.82
353.568	2.83
354.018	2.85
354.468	2.85
354.918	2.86
355.368	2.87
355.818	2.86
356.268	2.86
356.718	2.87
357.168	2.87
357.617	2.87
358.067	2.87
358.517	2.86
358.966	2.86
359.416	2.87
359.865	2.86
360.315	2.86
360.764	2.86
361.213	2.85
361.663	2.86
362.112	2.86
362.561	2.87
363.01	2.88
363.459	2.88
363.908	2.87
364.357	2.87
364.806	2.88
365.255	2.89
365.703	2.89
366.152	2.91
366.601	2.92
367.05	2.92
367.498	2.93
367.947	2.92
368.395	2.94
368.844	2.95
369.292	2.96
369.74	2.95
370.189	2.94
370.637	2.95
371.085	2.95
371.533	2.95
371.981	2.95
372.429	2.94
372.877	2.94
373.325	2.93
373.773	2.93
374.221	2.92
374.669	2.93
375.116	2.93
375.564	2.92
376.012	2.93
376.459	2.93
376.907	2.93
377.354	2.95
377.801	2.96
378.249	2.98
378.696	2.99
379.143	3
379.591	3.01
380.038	3.03
380.485	3.05
380.932	3.05
381.379	3.06
381.826	3.07
382.273	3.07
382.72	3.08
383.166	3.08
383.613	3.09
384.06	3.11
384.506	3.11
384.953	3.12
385.4	3.12
385.846	3.13
386.292	3.15
386.739	3.15
387.185	3.18
387.631	3.18
388.078	3.21
388.524	3.21
388.97	3.22
389.416	3.23
389.862	3.24
390.308	3.26
390.754	3.29
391.2	3.31
391.645	3.33
392.091	3.34
392.537	3.36
392.983	3.38
393.428	3.41
393.874	3.44
394.319	3.46
394.765	3.49
395.21	3.5
395.655	3.52
396.101	3.53
396.546	3.55
396.991	3.58
397.436	3.57
397.881	3.6
398.326	3.62
398.771	3.65
399.216	3.68
399.661	3.69
400.106	3.72
400.551	3.74
400.995	3.74
401.44	3.74
401.885	3.76
402.329	3.8
402.774	3.81
403.218	3.83
403.663	3.82
404.107	3.85
404.551	3.87
404.995	3.87
405.44	3.89
405.884	3.91
406.328	3.94
406.772	3.97
407.216	3.99
407.66	4
408.104	4.01
408.547	4.03
408.991	4.03
409.435	4.04
409.879	4.07
410.322	4.1
410.766	4.13
411.209	4.16
411.653	4.17
412.096	4.19
412.54	4.22
412.983	4.25
413.426	4.3
413.869	4.33
414.312	4.38
414.756	4.42
415.199	4.44
415.642	4.47
416.085	4.5
416.527	4.53
416.97	4.54
417.413	4.53
417.856	4.53
418.298	4.51
418.741	4.53
419.184	4.51
419.626	4.5
420.069	4.5
420.511	4.5
420.953	4.51
421.396	4.53
421.838	4.57
422.28	4.62
422.722	4.65
423.164	4.66
423.606	4.68
424.048	4.69
424.49	4.72
424.932	4.71
425.374	4.71
425.816	4.69
426.258	4.68
426.699	4.65
427.141	4.62
427.582	4.62
428.024	4.65
428.465	4.67
428.907	4.68
429.348	4.68
429.789	4.72
430.231	4.73
430.672	4.75
431.113	4.77
431.554	4.81
431.995	4.84
432.436	4.84
432.877	4.83
433.318	4.84
433.759	4.87
434.2	4.89
434.64	4.9
435.081	4.92
435.522	4.95
435.962	4.97
436.403	5
436.843	5.02
437.284	5.04
437.724	5.06
438.164	5.06
438.604	5.07
439.045	5.07
439.485	5.08
439.925	5.09
440.365	5.08
440.805	5.08
441.245	5.07
441.685	5.08
442.125	5.07
442.564	5.07
443.004	5.08
443.444	5.1
443.883	5.11
444.323	5.11
444.762	5.14
445.202	5.18
445.641	5.22
446.081	5.24
446.52	5.25
446.959	5.26
447.398	5.3
447.837	5.33
448.276	5.32
448.716	5.33
449.154	5.35
449.593	5.35
450.032	5.34
450.471	5.31
450.91	5.31
451.349	5.31
451.787	5.31
452.226	5.27
452.664	5.24
453.103	5.24
453.541	5.22
453.98	5.19
454.418	5.16
454.856	5.12
455.295	5.1
455.733	5.08
456.171	5.06
456.609	5.04
457.047	5.04
457.485	5.04
457.923	5.02
458.361	5.02
458.798	5.02
459.236	5.02
459.674	5.01
460.111	5.01
460.549	5
460.987	5.01
461.424	4.99
461.862	4.99
462.299	4.98
462.736	4.98
463.173	4.99
463.611	5
464.048	5.02
464.485	5.04
464.922	5.05
465.359	5.06
465.796	5.07
466.233	5.09
466.67	5.11
467.106	5.12
467.543	5.11
467.98	5.1
468.416	5.1
468.853	5.09
469.29	5.09
469.726	5.09
470.162	5.07
470.599	5.06
471.035	5.05
471.471	5.03
471.907	5.02
472.344	5.01
472.78	5.03
473.216	5.01
473.652	4.99
474.088	4.98
474.523	4.96
474.959	4.95
475.395	4.91
475.831	4.9
476.266	4.89
476.702	4.85
477.138	4.82
477.573	4.78
478.008	4.78
478.444	4.76
478.879	4.74
479.314	4.71
479.75	4.69
480.185	4.68
480.62	4.65
481.055	4.63
481.49	4.6
481.925	4.59
482.36	4.57
482.795	4.54
483.229	4.51
483.664	4.49
484.099	4.47
484.534	4.45
484.968	4.45
485.403	4.45
485.837	4.43
486.271	4.43
486.706	4.42
487.14	4.42
487.574	4.42
488.009	4.44
488.443	4.44
488.877	4.45
489.311	4.46
489.745	4.47
490.179	4.48
490.613	4.49
491.046	4.51
491.48	4.52
491.914	4.54
492.348	4.55
492.781	4.56
493.215	4.57
493.648	4.6
494.082	4.62
494.515	4.64
494.948	4.66
495.382	4.68
495.815	4.7
496.248	4.74
496.681	4.76
497.114	4.79
497.547	4.82
497.98	4.85
498.413	4.87
498.846	4.91
499.279	4.95
499.711	4.99
500.144	5.03
500.577	5.08
501.009	5.13
501.442	5.18
501.874	5.23
502.306	5.29
502.739	5.35
503.171	5.43
503.603	5.5
504.036	5.58
504.468	5.67
504.9	5.76
505.332	5.86
505.764	5.95
506.196	6.06
506.627	6.16
507.059	6.28
507.491	6.4
507.923	6.51
508.354	6.64
508.786	6.77
509.217	6.88
509.649	7.03
510.08	7.17
510.512	7.32
510.943	7.48
511.374	7.65
511.805	7.83
512.237	8
512.668	8.17
513.099	8.36
513.53	8.56
513.961	8.78
514.391	8.98
514.822	9.19
515.253	9.41
515.684	9.61
516.114	9.83
516.545	10.06
516.975	10.3
517.406	10.52
517.836	10.74
518.267	10.99
518.697	11.22
519.127	11.47
519.558	11.7
519.988	11.94
520.418	12.18
520.848	12.42
521.278	12.67
521.708	12.99
522.138	13.24
522.567	13.47
522.997	13.69
523.427	13.92
523.857	14.13
524.286	14.36
524.716	14.59
525.145	14.81
525.575	15.02
526.004	15.22
526.433	15.34
526.863	15.56
527.292	15.74
527.721	15.94
528.15	16.11
528.579	16.27
529.008	16.42
529.437	16.56
529.866	16.7
530.295	16.86
530.724	17.01
531.152	17.14
531.581	17.24
532.01	17.37
532.438	17.46
532.867	17.58
533.295	17.69
533.723	17.8
534.152	17.91
534.58	17.99
535.008	18.08
535.436	18.15
535.865	18.21
536.293	18.3
536.721	18.37
537.149	18.44
537.576	18.5
538.004	18.55
538.432	18.58
538.86	18.62
539.287	18.69
539.715	18.72
540.143	18.75
540.57	18.81
540.998	18.84
541.425	18.88
541.852	18.9
542.28	18.93
542.707	18.98
543.134	19.02
543.561	19.03
543.988	19.05
544.415	19.09
544.842	19.12
545.269	19.14
545.696	19.15
546.123	19.18
546.549	19.22
546.976	19.24
547.403	19.27
547.829	19.3
548.256	19.34
548.682	19.36
549.108	19.37
549.535	19.39
549.961	19.39
550.387	19.41
550.813	19.4
551.24	19.39
551.666	19.38
552.092	19.36
552.518	19.34
552.943	19.34
553.369	19.31
553.795	19.28
554.221	19.23
554.646	19.19
555.072	19.16
555.498	19.1
555.923	19.06
556.349	18.98
556.774	18.91
557.199	18.85
557.625	18.78
558.05	18.7
558.475	18.61
558.9	18.54
559.325	18.46
559.75	18.36
560.175	18.27
560.6	18.17
561.025	18.07
561.449	17.96
561.874	17.84
562.299	17.71
562.723	17.57
563.148	17.46
563.572	17.31
563.997	17.16
564.421	17.03
564.846	16.89
565.27	16.73
565.694	16.59
566.118	16.45
566.542	16.3
566.966	16.17
567.39	16.01
567.814	15.84
568.238	15.69
568.662	15.55
569.086	15.39
569.509	15.24
569.933	15.09
570.357	14.93
570.78	14.79
571.204	14.64
571.627	14.48
572.05	14.35
572.474	14.22
572.897	14.08
573.32	13.94
573.743	13.82
574.166	13.7
574.589	13.59
575.012	13.5
575.435	13.36
575.858	13.26
576.281	13.16
576.704	13.06
577.126	12.96
577.549	12.88
577.972	12.77
578.394	12.68
578.817	12.6
579.239	12.51
579.661	12.42
580.084	12.35
580.506	12.27
580.928	12.19
581.35	12.12
581.772	12.06
582.194	12
582.616	11.94
583.038	11.87
583.46	11.79
583.882	11.74
584.303	11.68
584.725	11.62
585.147	11.56
585.568	11.5
585.99	11.46
586.411	11.4
586.833	11.35
587.254	11.31
587.675	11.27
588.096	11.23
588.518	11.19
588.939	11.17
589.36	11.13
589.781	11.08
590.202	11.03
590.623	10.98
591.043	10.94
591.464	10.9
591.885	10.87
592.305	10.84
592.726	10.81
593.147	10.78
593.567	10.73
593.987	10.71
594.408	10.68
594.828	10.67
595.248	10.66
595.669	10.64
596.089	10.61
596.509	10.57
596.929	10.54
597.349	10.49
597.769	10.45
598.189	10.43
598.608	10.4
599.028	10.36
599.448	10.33
599.867	10.29
600.287	10.23
600.706	10.2
601.126	10.18
601.545	10.13
601.965	10.1
602.384	10.06
602.803	10
603.222	9.95
603.641	9.9
604.061	9.84
604.48	9.79
604.898	9.73
605.317	9.67
605.736	9.61
606.155	9.56
606.574	9.49
606.992	9.42
607.411	9.36
607.829	9.25
608.248	9.18
608.666	9.13
609.085	9.08
609.503	9.02
609.921	8.97
610.339	8.9
610.758	8.84
611.176	8.79
611.594	8.73
612.012	8.67
612.43	8.66
612.847	8.62
613.265	8.56
613.683	8.49
614.101	8.43
614.518	8.36
614.936	8.31
615.353	8.25
615.771	8.18
616.188	8.12
616.606	8.08
617.023	8.03
617.44	7.97
617.857	7.93
618.274	7.89
618.691	7.87
619.108	7.85
619.525	7.81
619.942	7.79
620.359	7.78
620.776	7.76
621.192	7.74
621.609	7.72
622.026	7.7
622.442	7.69
622.859	7.67
623.275	7.65
623.691	7.64
624.108	7.63
624.524	7.61
624.94	7.6
625.356	7.59
625.772	7.58
626.188	7.59
626.604	7.57
627.02	7.56
627.436	7.57
627.852	7.55
628.268	7.54
628.683	7.53
629.099	7.55
629.514	7.54
629.93	7.53
630.345	7.52
630.761	7.5
631.176	7.5
631.591	7.49
632.007	7.45
632.422	7.45
632.837	7.43
633.252	7.41
633.667	7.36
634.082	7.34
634.497	7.29
634.911	7.26
635.326	7.23
635.741	7.19
636.155	7.15
636.57	7.11
636.984	7.05
637.399	7
637.813	6.94
638.228	6.89
638.642	6.84
639.056	6.8
639.47	6.72
639.884	6.66
640.298	6.6
640.712	6.54
641.126	6.48
641.54	6.42
641.954	6.38
642.368	6.33
642.781	6.28
643.195	6.23
643.609	6.17
644.022	6.13
644.436	6.08
644.849	6.03
645.262	6
645.676	5.94
646.089	5.9
646.502	5.85
646.915	5.8
647.328	5.77
647.741	5.72
648.154	5.69
648.567	5.67
648.98	5.63
649.393	5.6
649.805	5.56
650.218	5.55
650.631	5.53
651.043	5.51
651.456	5.5
651.868	5.48
652.28	5.47
652.693	5.45
653.105	5.41
653.517	5.38
653.929	5.36
654.341	5.34
654.753	5.32
655.165	5.3
655.577	5.26
655.989	5.21
656.401	5.16
656.813	5.12
657.224	5.08
657.636	5.05
658.047	5.02
658.459	4.97
658.87	4.93
659.282	4.91
659.693	4.86
660.104	4.84
660.515	4.8
660.926	4.8
661.338	4.78
661.749	4.75
662.159	4.74
662.57	4.73
662.981	4.73
663.392	4.7
663.803	4.69
664.213	4.67
664.624	4.67
665.035	4.67
665.445	4.64
665.855	4.63
666.266	4.63
666.676	4.61
667.086	4.6
667.497	4.58
667.907	4.58
668.317	4.56
668.727	4.57
669.137	4.55
669.547	4.55
669.956	4.56
670.366	4.57
670.776	4.57
671.186	4.59
671.595	4.62
672.005	4.63
672.414	4.65
672.824	4.68
673.233	4.69
673.642	4.71
674.052	4.73
674.461	4.75
674.87	4.77
675.279	4.79
675.688	4.8
676.097	4.82
676.506	4.84
676.915	4.87
677.323	4.89
677.732	4.93
678.141	4.96
678.549	5
678.958	5.03
679.366	5.06
679.775	5.1
680.183	5.15
680.592	5.2
681	5.24
681.408	5.27
681.816	5.31
682.224	5.35
682.632	5.41
683.04	5.44
683.448	5.51
683.856	5.57
684.264	5.64
684.671	5.71
685.079	5.79
685.487	5.91
685.894	6.02
686.302	6.13
686.709	6.26
687.116	6.39
687.524	6.57
687.931	6.73
688.338	6.94
688.745	7.14
689.152	7.37
689.559	7.61
689.966	7.86
690.373	8.16
690.78	8.45
691.187	8.8
691.593	9.14
692	9.51
692.407	9.89
692.813	10.3
693.22	10.72
693.626	11.16
694.032	11.61
694.439	12.1
694.845	12.58
695.251	13.08
695.657	13.58
696.063	14.1
696.469	14.62
696.875	15.13
697.281	15.64
697.687	16.18
698.093	16.74
698.498	17.3
698.904	17.85
699.31	18.38
699.715	18.93
700.12	19.48
700.526	20.06
700.931	20.61
701.337	21.19
701.742	21.75
702.147	22.29
702.552	22.83
702.957	23.37
703.362	23.91
703.767	24.45
704.172	25
704.577	25.53
704.981	26.06
705.386	26.6
705.791	27.13
706.195	27.66
706.6	28.17
707.004	28.68
707.408	29.18
707.813	29.69
708.217	30.19
708.621	30.66
709.025	31.14
709.43	31.6
709.834	32.07
710.237	32.53
710.641	32.99
711.045	33.44
711.449	33.89
711.853	34.33
712.256	34.78
712.66	35.22
713.064	35.67
713.467	36.12
713.87	36.55
714.274	36.98
714.677	37.38
715.08	37.81
715.484	38.26
715.887	38.67
716.29	39.08
716.693	39.47
717.096	39.87
717.499	40.25
717.901	40.61
718.304	40.98
718.707	41.35
719.109	41.72
719.512	42.08
719.915	42.41
720.317	42.75
720.719	43.08
721.122	43.42
721.524	43.72
721.926	44.06
722.328	44.39
722.731	44.7
723.133	44.99
723.535	45.26
723.937	45.55
724.338	45.8
724.74	46.07
725.142	46.34
725.544	46.57
725.945	46.83
726.347	47.04
726.748	47.22
727.15	47.42
727.551	47.63
727.952	47.82
728.354	48.06
728.755	48.25
729.156	48.42
729.557	48.59
729.958	48.79
730.359	48.99
730.76	49.14
731.161	49.34
731.562	49.52
731.962	49.67
732.363	49.84
732.763	49.98
733.164	50.13
733.564	50.28
733.965	50.38
734.365	50.46
734.766	50.57
735.166	50.67
735.566	50.74
735.966	50.82
736.366	50.89
736.766	50.98
737.166	51.02
737.566	51.11
737.966	51.18
738.365	51.29
738.765	51.41
739.165	51.44
739.564	51.55
739.964	51.63
740.363	51.69
740.763	51.76
741.162	51.84
741.561	51.94
741.96	52.02
742.36	52.07
742.759	52.13
743.158	52.14
743.557	52.2
743.955	52.25
744.354	52.32
744.753	52.41
745.152	52.49
745.55	52.53
745.949	52.54
746.348	52.59
746.746	52.63
747.144	52.7
747.543	52.76
747.941	52.83
748.339	52.87
748.737	52.91
749.136	52.91
749.534	52.93
749.932	52.94
750.33	52.96
750.727	52.94
751.125	52.97
751.523	52.95
751.921	52.99
752.318	52.96
752.716	52.96
753.113	52.98
753.511	53
753.908	53
754.305	53
754.703	53.01
755.1	53.05
755.497	53.04
755.894	53.07
756.291	53.04
756.688	53.08
757.085	53.1
757.482	53.09
757.878	53.13
758.275	53.13
758.672	53.17
759.068	53.2
759.465	53.22
759.861	53.25
760.258	53.25
760.654	53.28
761.05	53.27
761.447	53.26
761.843	53.25
762.239	53.23
762.635	53.22
763.031	53.22
763.427	53.21
763.822	53.15
764.218	53.14
764.614	53.1
765.01	53.07
765.405	53.07
765.801	53.08
766.196	53.09
766.592	53.07
766.987	53.11
767.382	53.11
767.778	53.1
768.173	53.15
768.568	53.15
768.963	53.17
769.358	53.18
769.753	53.21
770.148	53.22
770.542	53.22
770.937	53.24
771.332	53.2
771.726	53.18
772.121	53.18
772.515	53.17
772.91	53.17
773.304	53.13
773.699	53.14
774.093	53.09
774.487	53.1
774.881	53.13
775.275	53.13
775.669	53.16
776.063	53.16
776.457	53.16
776.851	53.14
777.245	53.16
777.638	53.21
778.032	53.22
778.425	53.27
778.819	53.28
779.212	53.24
779.606	53.22
779.999	53.2
780.392	53.25
780.786	53.29
781.179	53.3
781.572	53.32
781.965	53.32
782.358	53.29
782.751	53.27
783.143	53.24
783.536	53.31
783.929	53.34
784.322	53.35
784.714	53.34
785.107	53.36
785.499	53.36
785.891	53.37
786.284	53.37
786.676	53.39
787.068	53.39
787.46	53.43
787.852	53.39
788.245	53.37
788.636	53.36
789.028	53.32
789.42	53.26
789.812	53.24
790.204	53.18
790.595	53.19
790.987	53.21
791.378	53.27
791.77	53.29
792.161	53.27
792.553	53.26
792.944	53.27
793.335	53.28
793.726	53.28
794.117	53.28
794.508	53.27
794.899	53.24
795.29	53.23
795.681	53.17
796.072	53.17
796.463	53.18
796.853	53.22
797.244	53.2
797.634	53.22
798.025	53.24
798.415	53.26
798.806	53.29
799.196	53.33
799.586	53.34
799.976	53.34
800.366	53.27
800.756	53.26
801.146	53.24
801.536	53.24
801.926	53.19
802.316	53.17
802.706	53.18
803.095	53.19
803.485	53.19
803.874	53.17
804.264	53.18
804.653	53.19
805.043	53.18
805.432	53.16
805.821	53.14
806.21	53.18
806.599	53.23
806.988	53.24
807.377	53.22
807.766	53.2
808.155	53.18
808.544	53.15
808.933	53.17
809.321	53.17
809.71	53.2
810.098	53.2
810.487	53.2
810.875	53.17
811.264	53.14
811.652	53.16
812.04	53.12
812.428	53.15
812.816	53.17
813.204	53.12
813.592	53.12
813.98	53.07
814.368	53.08
814.756	53.05
815.144	53.05
815.531	53.05
815.919	53
816.306	53.01
816.694	52.98
817.081	52.93
817.469	52.93
817.856	52.97
818.243	53
818.63	53
819.017	53.04
819.404	53
819.791	53.02
820.178	53.03
820.565	53.06
820.952	53.1
821.339	53.14
821.725	53.16
822.112	53.14
822.498	53.16
822.885	53.16
823.271	53.14
823.657	53.15
824.044	53.12
824.43	53.11
824.816	53.1
825.202	53.08
825.588	53.07
825.974	53.06
826.36	53.04
826.746	53.06
827.132	53.04
827.517	53.05
827.903	53.09
828.289	53.11
828.674	53.11
829.06	53.14
829.445	53.16
829.83	53.15
830.216	53.18
830.601	53.19
830.986	53.19
831.371	53.21
831.756	53.17
832.141	53.17
832.526	53.17
832.911	53.18
833.295	53.19
833.68	53.16
834.065	53.18
834.449	53.14
834.834	53.13
835.218	53.12
835.603	53.12
835.987	53.11
836.371	53.12
836.755	53.1
837.139	53.1
837.524	53.08
837.908	53.08
838.291	53.08
838.675	53.11
839.059	53.11
839.443	53.11
839.827	53.09
840.21	53.12
840.594	53.1
840.977	53.08
841.361	53.06
841.744	53.07
842.127	53.07
842.511	53.05
842.894	53
843.277	52.98
843.66	52.97
844.043	52.95
844.426	52.95
844.809	52.95
845.191	52.96
845.574	52.96
845.957	52.93
846.339	52.9
846.722	52.92
847.104	52.94
847.487	52.95
847.869	52.93
848.252	52.95
848.634	52.97
849.016	52.97
849.398	52.96
849.78	52.96
850.162	52.96
850.544	52.99
850.926	52.96
851.307	52.97
851.689	52.96
852.071	52.94
852.452	52.91
852.834	52.89
853.215	52.87
853.597	52.91
853.978	52.9
854.359	52.9
854.741	52.91
855.122	52.95
855.503	52.95
855.884	52.98
856.265	53
856.646	53
857.026	52.98
857.407	52.95
857.788	52.95
858.169	52.94
858.549	52.98
858.93	52.95
859.31	52.95
859.69	52.94
860.071	52.92
860.451	52.93
860.831	52.95
861.211	52.95
861.591	52.97
861.971	52.93
862.351	52.94
862.731	52.92
863.111	52.95
863.491	52.94
863.87	52.93
864.25	52.96
864.629	52.93
865.009	52.92
865.388	52.92
865.768	52.93
866.147	52.93
866.526	52.94
866.905	52.93
867.284	52.91
867.663	52.91
868.042	52.9
868.421	52.89
868.8	52.91
869.179	52.93
869.558	52.92
869.936	52.93
870.315	52.94
870.693	52.94
871.072	52.94
871.45	52.92
871.828	52.93
872.207	52.98
872.585	52.96
872.963	52.94
873.341	52.95
873.719	52.96
874.097	52.94
874.475	52.96
874.853	52.92
875.23	52.94
875.608	52.94
875.986	52.9
876.363	52.88
876.741	52.89
877.118	52.9
877.495	52.89
877.873	52.86
878.25	52.84
878.627	52.83
879.004	52.87
879.381	52.86
879.758	52.85
880.135	52.86
880.512	52.87
880.889	52.88
881.265	52.9
881.642	52.89
882.019	52.89
882.395	52.9
882.772	52.9
883.148	52.89
883.524	52.89
883.901	52.86
884.277	52.85
884.653	52.85
885.029	52.84
885.405	52.78
885.781	52.76
886.157	52.76
886.532	52.75
886.908	52.74
887.284	52.72
887.659	52.71
888.035	52.73
888.411	52.7
888.786	52.66
889.161	52.67
889.537	52.69
889.912	52.67
890.287	52.67
890.662	52.64
891.037	52.61
891.412	52.58
891.787	52.58
892.162	52.57
892.536	52.59
892.911	52.59
893.286	52.53
893.66	52.55
894.035	52.55
894.409	52.56
894.784	52.58
895.158	52.6
895.532	52.62
895.906	52.62
896.281	52.61
896.655	52.61
897.029	52.6
897.402	52.63
897.776	52.61
898.15	52.63
898.524	52.61
898.898	52.62
899.271	52.61
899.645	52.62
900.018	52.59
900.392	52.61
900.765	52.62
901.138	52.63
901.511	52.64
901.884	52.64
902.258	52.63
902.631	52.64
903.003	52.65
903.376	52.62
903.749	52.63
904.122	52.65
904.495	52.62
904.867	52.61
905.24	52.62
905.612	52.62
905.985	52.63
906.357	52.6
906.729	52.59
907.102	52.57
907.474	52.59
907.846	52.53
908.218	52.56
908.59	52.58
908.962	52.58
909.334	52.57
909.705	52.58
910.077	52.56
910.449	52.61
910.82	52.64
911.192	52.67
911.563	52.66
911.935	52.67
912.306	52.63
912.677	52.64
913.048	52.61
913.419	52.6
913.79	52.57
914.161	52.6
914.532	52.56
914.903	52.56
915.274	52.54
915.645	52.57
916.015	52.6
916.386	52.61
916.756	52.56
917.127	52.58
917.497	52.61
917.868	52.63
918.238	52.6
918.608	52.59
918.978	52.57
919.348	52.54
919.718	52.53
920.088	52.53
920.458	52.57
920.828	52.63
921.198	52.64
921.567	52.65
921.937	52.66
922.306	52.67
922.676	52.7
923.045	52.71
923.415	52.7
923.784	52.68
924.153	52.68
924.522	52.71
924.891	52.68
925.26	52.68
925.629	52.66
925.998	52.65
926.367	52.66
926.736	52.67
927.104	52.67
927.473	52.71
927.842	52.74
928.21	52.76
928.578	52.69
928.947	52.73
929.315	52.71
929.683	52.74
930.051	52.71
930.42	52.72
930.788	52.75
931.156	52.75
931.523	52.78
931.891	52.75
932.259	52.74
932.627	52.73
932.994	52.76
933.362	52.77
933.729	52.73
934.097	52.78
934.464	52.79
934.831	52.77
935.199	52.81
935.566	52.82
935.933	52.89
936.3	52.92
936.667	53.02
937.034	52.98
937.401	53.03
937.767	53.14
938.134	53.2
938.501	53.27
938.867	53.42
939.234	53.49
939.6	53.44
939.967	53.5
940.333	53.62
940.699	53.75
941.065	53.88
941.431	53.97
941.798	54.07
942.163	54.12
942.529	54.18
942.895	54.19
943.261	54.23
943.627	54.37
943.992	54.4
944.358	54.32
944.723	54.21
945.089	54.18
945.454	54.22
945.82	54.09
946.185	54.09
946.55	54.14
946.915	54.08
947.28	54.06
947.645	54
948.01	53.96
948.375	53.98
948.74	53.96
949.104	53.91
949.469	53.75
949.834	53.7
950.198	53.62
950.562	53.49
950.927	53.45
951.291	53.34
951.655	53.27
952.02	53.16
952.384	53.17
952.748	53.19
953.112	53.14
953.476	53.11
953.839	53.11
954.203	53.02
954.567	52.96
954.931	52.91
955.294	52.84
955.658	52.84
956.021	52.85
956.385	52.73
956.748	52.66
957.111	52.64
957.474	52.69
957.837	52.67
958.2	52.61
958.563	52.6
958.926	52.55
959.289	52.59
959.652	52.54
960.015	52.48
960.377	52.51
960.74	52.44
961.102	52.36
961.465	52.35
961.827	52.32
962.189	52.37
962.552	52.37
962.914	52.34
963.276	52.31
963.638	52.26
964	52.26
964.362	52.24
964.724	52.27
965.085	52.34
965.447	52.2
965.809	52.16
966.17	52.17
966.532	52.18
966.893	52.23
967.255	52.22
967.616	52.28
967.977	52.3
968.338	52.25
968.699	52.21
969.061	52.19
969.421	52.31
969.782	52.35
970.143	52.31
970.504	52.26
970.865	52.23
971.225	52.23
971.586	52.23
971.946	52.28
972.307	52.32
972.667	52.34
973.027	52.37
973.388	52.32
973.748	52.31
974.108	52.3
974.468	52.32
974.828	52.39
975.188	52.41
975.548	52.38
975.907	52.38
976.267	52.38
976.627	52.37
976.986	52.32
977.346	52.3
977.705	52.31
978.064	52.32
978.424	52.32
978.783	52.3
979.142	52.32
979.501	52.34
979.86	52.39
980.219	52.42
980.578	52.45
980.937	52.48
981.296	52.55
981.654	52.66
982.013	52.71
982.371	52.73
982.73	52.66
983.088	52.66
983.447	52.77
983.805	52.67
984.163	52.73
984.521	52.69
984.879	52.81
985.237	52.82
985.595	52.85
985.953	52.96
986.311	53.04
986.669	53.11
987.026	53.09
987.384	53.1
987.741	53.14
988.099	53.1
988.456	53.2
988.814	53.12
989.171	53.14
989.528	53
989.885	52.91
990.242	52.95
990.599	53.01
990.956	53.13
991.313	53.12
991.67	53.28
992.027	53.38
992.383	53.46
992.74	53.54
993.096	53.59
993.453	53.81
993.809	53.95
994.165	54.05
994.522	54.06
994.878	54.11
995.234	54.08
995.59	54.03
995.946	54.15
996.302	54.2
996.658	54.2
997.013	54.27
997.369	54.35
997.725	54.52
998.08	54.6
998.436	54.78
998.791	54.81
999.147	55.04
999.502	55.11
999.857	55.03
1000.212	55.09
1000.567	55.12
1000.922	55.19
1001.277	55.05
1001.632	55
1001.987	54.97
1002.342	55.01
1002.696	55.08
1003.051	54.94
1003.406	55
1003.76	55.11
1004.114	55.25
1004.469	55.43
1004.823	55.49
1005.177	55.78
1005.531	55.74
1005.885	55.89
1006.239	55.92
1006.593	55.98
1006.947	56.11
1007.301	56.16
1007.655	56.3
1008.008	56.34
1008.362	56.41
1008.715	56.62
1009.069	56.44
1009.422	56.59
1009.776	56.37
1010.129	56.33
1010.482	56.46
1010.835	56.8
1011.188	57.06
1011.541	56.96
1011.894	57.01
1012.247	56.99
1012.6	57
1012.952	57.26
1013.305	57.33
1013.657	57.66
1014.01	58.02
1014.362	58.1
1014.715	57.97
1015.067	58.11
1015.419	58.38
1015.771	58.66
1016.123	58.82
1016.475	59.11
1016.827	59.25
1017.179	59.58
1017.531	59.76
1017.883	59.92
1018.234	60.16
1018.586	60.26
1018.938	60.18
1019.289	60.26
1019.64	60.6
1019.992	60.81
1020.343	60.68
1020.694	60.82
1021.045	60.74
1021.396	60.89
1021.747	61.2
1022.098	61.48
1022.449	61.76
1022.8	62.09
1023.151	62.4
1023.501	62.39
1023.852	62.73
1024.202	63.07
1024.553	63.21
1024.903	63.52
1025.253	63.71
1025.604	63.39
1025.954	63.22
1026.304	63.96
1026.654	64.25
1027.004	64.26
1027.354	64.39
1027.703	64.48
1028.053	64.54
1028.403	64.75
1028.753	65.17
1029.102	65.12
1029.452	65.31
1029.801	65.43
1030.15	64.86
1030.499	64.75
897.758	613.93
901.051	625.43
904.343	624.37
907.636	618.41
910.928	607.68
914.22	619.14
917.511	611.03
920.803	584.64
924.094	560.11
927.384	564.55
930.675	546.13
933.965	537.15
937.255	533.07
940.544	514.26
943.834	486.77
947.123	478.49
950.411	456.48
953.7	446.39
956.988	431.77
960.276	412.18
963.563	407.32
966.851	387.28
970.138	378.68
973.424	353.31
976.711	347.04
979.997	339.09
983.283	332.94
986.568	319.48
989.853	309.68
993.138	301.18
996.423	296.84
999.708	287.2
1002.992	286.64
1006.275	278.15
1009.559	277.09
1012.842	269.74
1016.125	258.25
1019.408	254.08
1022.69	251.78
1025.972	250.88
1029.254	243.39
1032.536	239.62
1035.817	231.92
1039.098	228.88
1042.379	225.13
1045.659	221.86
1048.939	219.11
1052.219	217.37
1055.498	212.23
1058.778	208.86
1062.057	204.78
1065.335	204.26
1068.614	199.5
1071.892	197.36
1075.17	192.52
1078.447	190.56
1081.724	188.12
1085.001	185.31
1088.278	183.82
1091.554	183.5
1094.83	182.02
1098.106	178.93
1101.382	178.01
1104.657	177.02
1107.932	175.99
1111.206	175.13
1114.481	173.99
1117.755	172.9
1121.029	172.58
1124.302	170.03
1127.575	167.36
1130.848	166.89
1134.121	164.26
1137.393	163.19
1140.665	162.18
1143.937	160.82
1147.208	157.79
1150.48	155.61
1153.75	154.38
1157.021	152.83
1160.291	152.74
1163.561	151.93
1166.831	150.36
1170.101	150.35
1173.37	149.95
1176.639	148.99
1179.907	148.53
1183.176	149.04
1186.444	149.31
1189.711	148.86
1192.979	149.29
1196.246	149
1199.513	148.17
1202.78	148.92
1206.046	149.45
1209.312	149.62
1212.578	150.36
1215.843	152.56
1219.108	153.78
1222.373	155.85
1225.638	157.99
1228.902	161.69
1232.166	166.94
1235.43	170.01
1238.693	173.94
1241.956	177.06
1245.219	181.84
1248.482	183.56
1251.744	182.8
1255.006	184.22
1258.268	179.63
1261.529	178.46
1264.79	173.53
1268.051	169.36
1271.312	167.65
1274.572	164.89
1277.832	160.41
1281.092	159.05
1284.351	155.72
1287.61	156
1290.869	154.4
1294.128	153.97
1297.386	152.47
1300.644	152.4
1303.902	152.69
1307.159	151.07
1310.416	151.55
1313.673	154.76
1316.93	155.11
1320.186	157.89
1323.442	159.91
1326.697	163
1329.953	164.47
1333.208	170.73
1336.463	177.14
1339.717	179.95
1342.972	189.7
1346.226	195.24
1349.479	196.23
1352.733	204.29
1355.986	208.36
1359.238	212.26
1362.491	213.92
1365.743	221.16
1368.995	222.97
1372.247	222.44
1375.498	221.04
1378.749	228.59
1382	226.87
1385.251	226.23
1388.501	225.63
1391.751	228.72
1395	227.3
1398.25	229.6
1401.499	228.16
1404.748	227.53
1407.996	222.5
1411.244	223.74
1414.492	219
1417.74	211.81
1420.987	208.38
1424.234	203.86
1427.481	196.57
1430.728	191.6
1433.974	185.42
1437.22	179.01
1440.465	172.87
1443.711	168.18
1446.956	162.88
1450.201	156.89
1453.445	150.69
1456.689	146.38
1459.933	141.93
1463.177	135.46
1466.42	132.6
1469.663	128.14
1472.906	125.47
1476.148	121.52
1479.391	118.99
1482.633	116.9
1485.874	114.9
1489.115	113.88
1492.356	111.98
1495.597	110.61
1498.838	109.63
1502.078	108.47
1505.318	108.42
1508.557	107.27
1511.797	106.36
1515.036	106.02
1518.274	105.29
1521.513	104.17
1524.751	103.68
1527.989	103.89
1531.227	103.38
1534.464	103.94
1537.701	103.32
1540.938	102.78
1544.174	102.45
1547.41	102.81
1550.646	102.09
1553.882	102.77
1557.117	101.41
1560.352	101.8
1563.587	100.7
1566.821	100.47
1570.055	99.85
1573.289	99.48
1576.523	99.97
1579.756	99.14
1582.989	99.25
1586.222	99.21
1589.454	98.65
1592.686	98.8
1595.918	98.55
1599.15	98.67
1602.381	98.81
1605.612	98.83
1608.843	98.78
1612.073	98.91
1615.303	99.82
1618.533	99.01
1621.762	99.74
1624.992	99.5
1628.221	99.83
1631.449	100.15
1634.678	100.28
1637.906	100.35
1641.134	100.29
1644.361	100.42
1647.588	99.55
1650.815	99.7
1654.042	100.73
1657.269	99.7
1660.495	100.55
1663.72	100.48
1666.946	100.37
1670.171	100.59
1673.396	100.69
1676.621	101.47
1679.845	101.81
1683.069	102.1
1686.293	101.96
1689.517	101.92
1692.74	102.3
1695.963	102.42
1699.185	103.07
1702.408	103.29
1705.63	103.24
1708.852	104.29
1712.073	102.99
1715.294	103.07
1718.515	103.86
1721.736	104.06
1724.956	103.75
1728.176	103.99
1731.396	104.4
1734.616	103.98
1737.835	103.88
1741.054	103.46
1744.272	103.3
1747.491	104.13
1750.709	104.26
1753.927	104.08
1757.144	103.81
1760.361	103.89
1763.578	104.8
1766.795	104.78
1770.011	106.14
1773.227	106.65
1776.443	107.69
1779.658	107.96
1782.874	108.16
1786.089	108.58
1789.303	108.8
1792.518	110.85
1795.732	111.43
1798.945	112.04
1802.159	112.56
1805.372	113.21
1808.585	114.02
1811.797	114.72
1815.01	115.63
1818.222	116.73
1821.434	118.13
1824.645	119.31
1827.856	119.9
1831.067	120.76
1834.278	121.96
1837.488	121.83
1840.698	123.21
1843.908	123.41
1847.117	124.8
1850.326	125.16
1853.535	125.51
1856.744	126.36
1859.952	127.21
1863.16	127.98
1866.368	127.87
1869.575	128.8
1872.782	129.65
1875.989	127.13
1879.196	127.66
1882.402	126.22
1885.608	127.05
1888.814	127.39
1892.019	127.08
1895.224	125.47
1898.429	126.06
1901.634	127.46
1904.838	126.57
1908.042	126.76
1911.246	128.67
1914.449	128.71
1917.652	128.78
1920.855	129.33
1924.058	128.88
1927.26	129.13
1930.462	130.39
1933.664	129.69
1936.865	128.47
1940.066	128.75
1943.267	127.76
1946.467	128.16
1949.668	127.72
1952.868	129.97
1956.067	129.02
1959.267	130.19
1962.466	131.04
1965.665	131.46
1968.863	132.86
1972.061	133.82
1975.259	135.92
1978.457	135.86
1981.654	137.8
1984.852	139.57
1988.048	140.02
1991.245	142.64
1994.441	144.51
1997.637	148.11
2000.833	150.75
2004.028	151.26
2007.223	157.22
2010.418	160.52
2013.613	170.28
2016.807	173.41
2020.001	176.37
2023.194	181.95
2026.388	187.34
2029.581	197.84
2032.774	202.89
2035.966	209.22
2039.158	216.69
2042.35	219.7
2045.542	223.62
2048.733	230.4
2051.924	232.52
2055.115	237.21
2058.306	238.81
2061.496	244.84
2064.686	242.48
2067.875	240.75
2071.065	244.74
2074.254	245.13
2077.442	252.22
2080.631	253.86
2083.819	254.87
2087.007	261.36
2090.195	265.44
2093.382	264.87
2096.569	263.57
2099.756	269.38
2102.942	276.27
2106.128	280.54
2109.314	282.61
2112.5	280.93
2115.685	282.14
2118.87	281.92
2122.055	282.1
2125.239	287.52
2128.424	296.55
2131.608	292.37
2134.791	292.17
2137.974	293.64
2141.157	296.84
2144.34	300.21
2147.523	301.73
2150.705	307.09
2153.887	305.72
2157.068	309.91
2160.25	313.43
2163.431	310.66
2166.611	318.19
2169.792	325.71
2172.972	329.88
2176.152	328.74
2179.331	336.1
2182.511	339.13
2185.69	341.13
2188.868	355.01
2192.047	363.04
2195.225	365.79
2198.403	373.18
2201.58	370.03
2204.758	381.6
2207.935	381.96
2211.111	392.26
2214.288	392.38
2217.464	398.25
2220.64	402.8
2223.815	403.31
2226.991	400.49
2230.166	404.15
2233.34	414.59
2236.515	429.58
2239.689	418.75
2242.863	428.76
2246.036	421.91
2249.209	436.32
2252.382	436.48
2255.555	447.87
2258.727	450.66
2261.9	460.69
2265.071	467.47
2268.243	465.39
2271.414	474.84
2274.585	488.32
2277.756	488.3
2280.926	504.42
2284.096	500.51
2287.266	502.81
2290.436	496.36
2293.605	508.24
2296.774	525.04
2299.942	528.72
2303.111	543.7
2306.279	552.88
2309.447	556.25
2312.614	556.46
2315.781	572.93
2318.948	580.86
2322.115	592.52
2325.281	620.85
2328.447	618.24
2331.613	619.09
2334.779	626.19
2337.944	632.32
2341.109	645.35
2344.274	652.44
2347.438	674.96
2350.602	682.72
2353.766	727.08
2356.929	729.25
2360.092	743.26
2363.255	741.54
2366.418	754.52
2369.58	766.95
2372.742	769.69
2375.904	766.39
2379.066	786.75
2382.227	832.82
2385.388	839.1
2388.548	792.26
2391.709	784.45
2394.869	807.05
2398.029	816.58
2401.188	815.93
2404.347	840.66
2407.506	871.23
2410.665	842.67
2413.823	839.57
2416.981	838.66
2420.139	789.05
2423.296	850.93
2426.453	912.68
2429.61	867.89
2432.767	924.24
2435.923	958.31
2439.079	917.58
2442.235	936.48
2445.391	958.12
2448.546	959.9
2451.701	1003.28
2454.855	1076.55
2458.009	956.89
2461.163	964.32
2464.317	978.29
2467.471	953.82
2470.624	990.1
2473.777	981.35
2476.929	951.47
2480.082	1015.55
2483.234	1060.5
2486.385	1081.59
2489.537	1105.51
2492.688	1226.28
2495.839	1206.72
2498.989	1239.6
2502.14	1248.31
2505.29	1181.72
2508.439	1316.25
2511.589	1351.23
2514.738	1314.09
2517.887	1297.98
2521.035	1220.34
2524.183	1201.18
2527.331	1184.94
2530.479	1157.41
2533.627	1189.64
