Data from c_1_dec_ct_2n_035_Splice17_13.txt Node
Date: Sat Feb 29 13:25:34 EST 2020
User: sa697716
Spectrometer: FLMS03696
Trigger mode: 0
Integration Time (sec): 3.180400E-1
Scans to average: 20
Electric dark correction enabled: true
Nonlinearity correction enabled: true
Boxcar width: 5
XAxis mode: Wavelengths
Number of Pixels in Spectrum: 2048
>>>>>Begin Spectral Data<<<<<
187.83	133.9
188.298	135.9
188.766	109.66
189.233	95.4
189.701	109.29
190.169	115.62
190.636	101.54
191.104	112.59
191.571	205.62
192.039	139.96
192.506	73.19
192.974	6141.99
193.441	-235.47
193.908	42.12
194.375	-59.56
194.842	65.2
195.31	68.65
195.777	58
196.244	71.12
196.711	73.83
197.177	73.64
197.644	74.14
198.111	74.34
198.578	75.18
199.045	75.6
199.511	76.16
199.978	76.3
200.445	76.11
200.911	75.68
201.378	75.61
201.844	76.29
202.31	76.41
202.777	76.2
203.243	76.58
203.709	76.34
204.176	75.92
204.642	74.91
205.108	74.39
205.574	74.16
206.04	73.32
206.506	72.91
206.972	71.97
207.438	70.98
207.903	70.24
208.369	68.31
208.835	67.58
209.301	66.36
209.766	65.25
210.232	64.25
210.697	63.09
211.163	61.95
211.628	60.6
212.094	59.37
212.559	58.59
213.024	57.19
213.49	56.23
213.955	54.84
214.42	53.5
214.885	51.72
215.35	49.44
215.815	46.81
216.28	44.16
216.745	40.96
217.21	37.55
217.675	34.26
218.14	31.42
218.604	28.83
219.069	26.6
219.534	24.76
219.998	23.27
220.463	22.01
220.927	20.93
221.392	19.96
221.856	19.18
222.32	18.5
222.785	17.9
223.249	17.36
223.713	16.9
224.177	16.44
224.642	16.05
225.106	15.66
225.57	15.29
226.034	14.95
226.497	14.61
226.961	14.28
227.425	13.96
227.889	13.68
228.353	13.39
228.816	13.17
229.28	12.91
229.744	12.67
230.207	12.45
230.671	12.24
231.134	12.04
231.597	11.84
232.061	11.67
232.524	11.51
232.987	11.35
233.45	11.2
233.914	11.04
234.377	10.91
234.84	10.76
235.303	10.63
235.766	10.5
236.229	10.38
236.691	10.28
237.154	10.16
237.617	10.05
238.08	9.94
238.542	9.84
239.005	9.73
239.468	9.62
239.93	9.54
240.393	9.44
240.855	9.34
241.317	9.25
241.78	9.15
242.242	9.06
242.704	8.97
243.166	8.87
243.629	8.79
244.091	8.7
244.553	8.62
245.015	8.54
245.477	8.45
245.939	8.37
246.4	8.28
246.862	8.21
247.324	8.14
247.786	8.06
248.247	7.99
248.709	7.91
249.17	7.84
249.632	7.76
250.093	7.68
250.555	7.61
251.016	7.56
251.477	7.5
251.939	7.42
252.4	7.36
252.861	7.3
253.322	7.26
253.783	7.23
254.244	7.18
254.705	7.14
255.166	7.09
255.627	7.04
256.088	6.98
256.549	6.93
257.009	6.89
257.47	6.84
257.931	6.79
258.391	6.72
258.852	6.66
259.312	6.61
259.773	6.55
260.233	6.5
260.694	6.46
261.154	6.41
261.614	6.36
262.074	6.31
262.534	6.25
262.994	6.21
263.455	6.17
263.915	6.12
264.374	6.08
264.834	6.05
265.294	6.01
265.754	5.96
266.214	5.92
266.673	5.9
267.133	5.86
267.593	5.84
268.052	5.81
268.512	5.78
268.971	5.75
269.431	5.73
269.89	5.71
270.349	5.68
270.809	5.67
271.268	5.65
271.727	5.63
272.186	5.61
272.645	5.58
273.104	5.56
273.563	5.55
274.022	5.53
274.481	5.51
274.94	5.48
275.399	5.46
275.857	5.45
276.316	5.42
276.775	5.4
277.233	5.39
277.692	5.37
278.15	5.35
278.609	5.33
279.067	5.31
279.525	5.28
279.984	5.27
280.442	5.26
280.9	5.24
281.358	5.23
281.816	5.22
282.274	5.2
282.732	5.19
283.19	5.19
283.648	5.18
284.106	5.17
284.564	5.17
285.021	5.16
285.479	5.15
285.937	5.14
286.394	5.12
286.852	5.11
287.309	5.1
287.767	5.08
288.224	5.06
288.682	5.03
289.139	5.01
289.596	4.98
290.053	4.96
290.511	4.92
290.968	4.9
291.425	4.88
291.882	4.85
292.339	4.83
292.796	4.8
293.252	4.78
293.709	4.75
294.166	4.73
294.623	4.71
295.079	4.7
295.536	4.69
295.992	4.66
296.449	4.64
296.905	4.63
297.362	4.61
297.818	4.59
298.274	4.57
298.731	4.55
299.187	4.55
299.643	4.54
300.099	4.52
300.555	4.5
301.011	4.49
301.467	4.48
301.923	4.47
302.379	4.47
302.835	4.46
303.291	4.46
303.746	4.46
304.202	4.44
304.658	4.43
305.113	4.42
305.569	4.41
306.024	4.4
306.479	4.4
306.935	4.4
307.39	4.39
307.845	4.38
308.301	4.38
308.756	4.38
309.211	4.39
309.666	4.38
310.121	4.39
310.576	4.38
311.031	4.39
311.486	4.39
311.94	4.38
312.395	4.37
312.85	4.38
313.305	4.37
313.759	4.37
314.214	4.36
314.668	4.37
315.123	4.36
315.577	4.36
316.032	4.34
316.486	4.33
316.94	4.32
317.394	4.31
317.849	4.3
318.303	4.28
318.757	4.27
319.211	4.24
319.665	4.22
320.119	4.2
320.572	4.19
321.026	4.17
321.48	4.16
321.934	4.15
322.387	4.14
322.841	4.13
323.295	4.12
323.748	4.11
324.202	4.11
324.655	4.11
325.108	4.1
325.562	4.09
326.015	4.09
326.468	4.07
326.921	4.06
327.374	4.04
327.827	4.04
328.28	4.04
328.733	4.03
329.186	4.03
329.639	4.02
330.092	4.02
330.545	4.02
330.997	4.03
331.45	4.04
331.903	4.04
332.355	4.04
332.808	4.05
333.26	4.05
333.713	4.05
334.165	4.04
334.617	4.04
335.069	4.05
335.522	4.05
335.974	4.05
336.426	4.05
336.878	4.05
337.33	4.05
337.782	4.04
338.234	4.04
338.686	4.03
339.137	4.03
339.589	4.03
340.041	4.01
340.493	4
340.944	3.99
341.396	3.98
341.847	3.96
342.299	3.94
342.75	3.92
343.201	3.9
343.653	3.89
344.104	3.88
344.555	3.87
345.006	3.85
345.457	3.84
345.908	3.83
346.359	3.82
346.81	3.82
347.261	3.81
347.712	3.81
348.163	3.82
348.613	3.81
349.064	3.8
349.515	3.79
349.965	3.79
350.416	3.78
350.866	3.78
351.317	3.77
351.767	3.76
352.217	3.76
352.668	3.76
353.118	3.75
353.568	3.75
354.018	3.77
354.468	3.76
354.918	3.77
355.368	3.77
355.818	3.77
356.268	3.77
356.718	3.76
357.168	3.76
357.617	3.76
358.067	3.76
358.517	3.76
358.966	3.76
359.416	3.77
359.865	3.76
360.315	3.76
360.764	3.76
361.213	3.75
361.663	3.75
362.112	3.75
362.561	3.75
363.01	3.75
363.459	3.75
363.908	3.74
364.357	3.73
364.806	3.73
365.255	3.74
365.703	3.73
366.152	3.74
366.601	3.74
367.05	3.75
367.498	3.75
367.947	3.74
368.395	3.74
368.844	3.74
369.292	3.75
369.74	3.74
370.189	3.72
370.637	3.72
371.085	3.72
371.533	3.72
371.981	3.71
372.429	3.69
372.877	3.69
373.325	3.67
373.773	3.66
374.221	3.65
374.669	3.64
375.116	3.64
375.564	3.62
376.012	3.62
376.459	3.62
376.907	3.61
377.354	3.61
377.801	3.62
378.249	3.62
378.696	3.62
379.143	3.62
379.591	3.62
380.038	3.63
380.485	3.63
380.932	3.62
381.379	3.61
381.826	3.61
382.273	3.6
382.72	3.59
383.166	3.59
383.613	3.58
384.06	3.57
384.506	3.56
384.953	3.55
385.4	3.56
385.846	3.56
386.292	3.57
386.739	3.57
387.185	3.57
387.631	3.57
388.078	3.58
388.524	3.57
388.97	3.57
389.416	3.56
389.862	3.55
390.308	3.55
390.754	3.55
391.2	3.55
391.645	3.56
392.091	3.55
392.537	3.56
392.983	3.57
393.428	3.58
393.874	3.59
394.319	3.6
394.765	3.61
395.21	3.61
395.655	3.61
396.101	3.62
396.546	3.63
396.991	3.64
397.436	3.64
397.881	3.65
398.326	3.67
398.771	3.69
399.216	3.7
399.661	3.72
400.106	3.73
400.551	3.74
400.995	3.75
401.44	3.74
401.885	3.75
402.329	3.76
402.774	3.76
403.218	3.76
403.663	3.77
404.107	3.79
404.551	3.8
404.995	3.81
405.44	3.82
405.884	3.83
406.328	3.87
406.772	3.89
407.216	3.9
407.66	3.92
408.104	3.94
408.547	3.95
408.991	3.95
409.435	3.97
409.879	3.97
410.322	4
410.766	4.02
411.209	4.03
411.653	4.02
412.096	4.03
412.54	4.04
412.983	4.07
413.426	4.1
413.869	4.12
414.312	4.14
414.756	4.18
415.199	4.19
415.642	4.22
416.085	4.24
416.527	4.27
416.97	4.29
417.413	4.29
417.856	4.29
418.298	4.28
418.741	4.28
419.184	4.29
419.626	4.28
420.069	4.28
420.511	4.28
420.953	4.29
421.396	4.3
421.838	4.33
422.28	4.36
422.722	4.38
423.164	4.4
423.606	4.42
424.048	4.41
424.49	4.43
424.932	4.43
425.374	4.43
425.816	4.41
426.258	4.4
426.699	4.36
427.141	4.35
427.582	4.35
428.024	4.35
428.465	4.36
428.907	4.38
429.348	4.38
429.789	4.4
430.231	4.4
430.672	4.43
431.113	4.45
431.554	4.5
431.995	4.51
432.436	4.51
432.877	4.52
433.318	4.52
433.759	4.53
434.2	4.55
434.64	4.56
435.081	4.58
435.522	4.61
435.962	4.62
436.403	4.63
436.843	4.64
437.284	4.67
437.724	4.7
438.164	4.73
438.604	4.76
439.045	4.78
439.485	4.79
439.925	4.81
440.365	4.79
440.805	4.79
441.245	4.78
441.685	4.81
442.125	4.84
442.564	4.83
443.004	4.83
443.444	4.84
443.883	4.85
444.323	4.84
444.762	4.87
445.202	4.91
445.641	4.94
446.081	4.99
446.52	4.97
446.959	4.97
447.398	5.01
447.837	5.03
448.276	5.03
448.716	5.04
449.154	5.07
449.593	5.06
450.032	5.06
450.471	5.04
450.91	5.03
451.349	5.03
451.787	5.01
452.226	4.98
452.664	4.93
453.103	4.92
453.541	4.92
453.98	4.9
454.418	4.85
454.856	4.82
455.295	4.8
455.733	4.78
456.171	4.75
456.609	4.75
457.047	4.73
457.485	4.75
457.923	4.74
458.361	4.72
458.798	4.74
459.236	4.75
459.674	4.76
460.111	4.77
460.549	4.77
460.987	4.78
461.424	4.78
461.862	4.79
462.299	4.79
462.736	4.79
463.173	4.79
463.611	4.79
464.048	4.8
464.485	4.8
464.922	4.8
465.359	4.82
465.796	4.84
466.233	4.86
466.67	4.86
467.106	4.86
467.543	4.86
467.98	4.87
468.416	4.86
468.853	4.85
469.29	4.86
469.726	4.87
470.162	4.86
470.599	4.82
471.035	4.81
471.471	4.8
471.907	4.78
472.344	4.78
472.78	4.76
473.216	4.75
473.652	4.75
474.088	4.74
474.523	4.72
474.959	4.7
475.395	4.7
475.831	4.69
476.266	4.67
476.702	4.67
477.138	4.63
477.573	4.61
478.008	4.59
478.444	4.57
478.879	4.56
479.314	4.54
479.75	4.53
480.185	4.52
480.62	4.5
481.055	4.49
481.49	4.46
481.925	4.46
482.36	4.44
482.795	4.43
483.229	4.41
483.664	4.39
484.099	4.38
484.534	4.36
484.968	4.34
485.403	4.33
485.837	4.32
486.271	4.32
486.706	4.31
487.14	4.3
487.574	4.29
488.009	4.3
488.443	4.3
488.877	4.3
489.311	4.31
489.745	4.33
490.179	4.34
490.613	4.35
491.046	4.37
491.48	4.39
491.914	4.41
492.348	4.43
492.781	4.45
493.215	4.46
493.648	4.49
494.082	4.51
494.515	4.54
494.948	4.57
495.382	4.6
495.815	4.63
496.248	4.66
496.681	4.69
497.114	4.73
497.547	4.76
497.98	4.81
498.413	4.85
498.846	4.9
499.279	4.95
499.711	5
500.144	5.06
500.577	5.11
501.009	5.18
501.442	5.25
501.874	5.32
502.306	5.39
502.739	5.47
503.171	5.56
503.603	5.65
504.036	5.74
504.468	5.84
504.9	5.94
505.332	6.05
505.764	6.16
506.196	6.28
506.627	6.41
507.059	6.54
507.491	6.68
507.923	6.82
508.354	6.98
508.786	7.14
509.217	7.29
509.649	7.47
510.08	7.65
510.512	7.83
510.943	8.03
511.374	8.23
511.805	8.45
512.237	8.67
512.668	8.89
513.099	9.13
513.53	9.38
513.961	9.63
514.391	9.87
514.822	10.12
515.253	10.37
515.684	10.64
516.114	10.91
516.545	11.19
516.975	11.47
517.406	11.76
517.836	12.03
518.267	12.33
518.697	12.65
519.127	12.95
519.558	13.26
519.988	13.59
520.418	13.89
520.848	14.21
521.278	14.52
521.708	14.87
522.138	15.16
522.567	15.45
522.997	15.74
523.427	16.02
523.857	16.3
524.286	16.57
524.716	16.82
525.145	17.1
525.575	17.35
526.004	17.59
526.433	17.78
526.863	18.03
527.292	18.27
527.721	18.49
528.15	18.7
528.579	18.91
529.008	19.11
529.437	19.3
529.866	19.47
530.295	19.64
530.724	19.8
531.152	19.97
531.581	20.13
532.01	20.26
532.438	20.41
532.867	20.55
533.295	20.67
533.723	20.8
534.152	20.92
534.58	21.03
535.008	21.13
535.436	21.23
535.865	21.31
536.293	21.39
536.721	21.49
537.149	21.56
537.576	21.65
538.004	21.73
538.432	21.79
538.86	21.84
539.287	21.92
539.715	21.98
540.143	22.03
540.57	22.07
540.998	22.14
541.425	22.2
541.852	22.24
542.28	22.27
542.707	22.32
543.134	22.37
543.561	22.42
543.988	22.44
544.415	22.5
544.842	22.55
545.269	22.6
545.696	22.62
546.123	22.66
546.549	22.7
546.976	22.75
547.403	22.77
547.829	22.8
548.256	22.82
548.682	22.84
549.108	22.87
549.535	22.87
549.961	22.87
550.387	22.87
550.813	22.87
551.24	22.88
551.666	22.87
552.092	22.85
552.518	22.84
552.943	22.82
553.369	22.8
553.795	22.75
554.221	22.72
554.646	22.68
555.072	22.64
555.498	22.56
555.923	22.49
556.349	22.41
556.774	22.33
557.199	22.27
557.625	22.19
558.05	22.1
558.475	22
558.9	21.9
559.325	21.79
559.75	21.67
560.175	21.56
560.6	21.45
561.025	21.31
561.449	21.18
561.874	21.03
562.299	20.9
562.723	20.76
563.148	20.62
563.572	20.47
563.997	20.33
564.421	20.16
564.846	19.99
565.27	19.82
565.694	19.66
566.118	19.47
566.542	19.29
566.966	19.11
567.39	18.93
567.814	18.74
568.238	18.54
568.662	18.36
569.086	18.19
569.509	18.02
569.933	17.84
570.357	17.65
570.78	17.47
571.204	17.29
571.627	17.13
572.05	16.97
572.474	16.81
572.897	16.66
573.32	16.5
573.743	16.34
574.166	16.18
574.589	16.05
575.012	15.91
575.435	15.79
575.858	15.67
576.281	15.54
576.704	15.42
577.126	15.29
577.549	15.19
577.972	15.08
578.394	14.96
578.817	14.86
579.239	14.74
579.661	14.65
580.084	14.55
580.506	14.46
580.928	14.35
581.35	14.25
581.772	14.17
582.194	14.07
582.616	13.97
583.038	13.9
583.46	13.81
583.882	13.74
584.303	13.67
584.725	13.61
585.147	13.51
585.568	13.43
585.99	13.37
586.411	13.31
586.833	13.25
587.254	13.2
587.675	13.14
588.096	13.08
588.518	13.01
588.939	12.95
589.36	12.89
589.781	12.84
590.202	12.81
590.623	12.74
591.043	12.7
591.464	12.66
591.885	12.61
592.305	12.57
592.726	12.53
593.147	12.51
593.567	12.47
593.987	12.44
594.408	12.41
594.828	12.37
595.248	12.34
595.669	12.31
596.089	12.27
596.509	12.23
596.929	12.19
597.349	12.15
597.769	12.11
598.189	12.08
598.608	12.04
599.028	12
599.448	11.96
599.867	11.92
600.287	11.85
600.706	11.8
601.126	11.75
601.545	11.7
601.965	11.65
602.384	11.61
602.803	11.54
603.222	11.48
603.641	11.4
604.061	11.34
604.48	11.28
604.898	11.22
605.317	11.18
605.736	11.1
606.155	11.03
606.574	10.96
606.992	10.87
607.411	10.79
607.829	10.68
608.248	10.61
608.666	10.53
609.085	10.47
609.503	10.39
609.921	10.3
610.339	10.24
610.758	10.17
611.176	10.07
611.594	10.01
612.012	9.93
612.43	9.92
612.847	9.85
613.265	9.78
613.683	9.7
614.101	9.64
614.518	9.56
614.936	9.49
615.353	9.43
615.771	9.38
616.188	9.33
616.606	9.28
617.023	9.21
617.44	9.16
617.857	9.1
618.274	9.05
618.691	9.01
619.108	8.98
619.525	8.93
619.942	8.89
620.359	8.86
620.776	8.81
621.192	8.77
621.609	8.73
622.026	8.72
622.442	8.7
622.859	8.67
623.275	8.66
623.691	8.63
624.108	8.62
624.524	8.61
624.94	8.59
625.356	8.59
625.772	8.59
626.188	8.6
626.604	8.58
627.02	8.58
627.436	8.56
627.852	8.54
628.268	8.53
628.683	8.52
629.099	8.52
629.514	8.5
629.93	8.48
630.345	8.45
630.761	8.41
631.176	8.38
631.591	8.35
632.007	8.32
632.422	8.3
632.837	8.26
633.252	8.22
633.667	8.18
634.082	8.13
634.497	8.06
634.911	8.01
635.326	7.95
635.741	7.88
636.155	7.81
636.57	7.74
636.984	7.65
637.399	7.57
637.813	7.48
638.228	7.38
638.642	7.3
639.056	7.22
639.47	7.13
639.884	7.04
640.298	6.96
640.712	6.86
641.126	6.77
641.54	6.68
641.954	6.61
642.368	6.52
642.781	6.45
643.195	6.35
643.609	6.27
644.022	6.2
644.436	6.12
644.849	6.05
645.262	6.01
645.676	5.93
646.089	5.86
646.502	5.8
646.915	5.76
647.328	5.69
647.741	5.64
648.154	5.61
648.567	5.58
648.98	5.55
649.393	5.51
649.805	5.47
650.218	5.44
650.631	5.42
651.043	5.4
651.456	5.38
651.868	5.36
652.28	5.34
652.693	5.3
653.105	5.27
653.517	5.24
653.929	5.22
654.341	5.19
654.753	5.18
655.165	5.13
655.577	5.08
655.989	5.03
656.401	4.98
656.813	4.94
657.224	4.9
657.636	4.86
658.047	4.81
658.459	4.75
658.87	4.7
659.282	4.66
659.693	4.62
660.104	4.58
660.515	4.55
660.926	4.53
661.338	4.49
661.749	4.46
662.159	4.43
662.57	4.4
662.981	4.38
663.392	4.34
663.803	4.31
664.213	4.3
664.624	4.28
665.035	4.26
665.445	4.24
665.855	4.23
666.266	4.21
666.676	4.2
667.086	4.19
667.497	4.17
667.907	4.17
668.317	4.17
668.727	4.16
669.137	4.16
669.547	4.18
669.956	4.18
670.366	4.19
670.776	4.19
671.186	4.21
671.595	4.23
672.005	4.26
672.414	4.27
672.824	4.29
673.233	4.32
673.642	4.33
674.052	4.33
674.461	4.34
674.87	4.35
675.279	4.38
675.688	4.4
676.097	4.43
676.506	4.44
676.915	4.47
677.323	4.49
677.732	4.52
678.141	4.54
678.549	4.59
678.958	4.63
679.366	4.66
679.775	4.71
680.183	4.76
680.592	4.78
681	4.82
681.408	4.88
681.816	4.93
682.224	4.99
682.632	5.08
683.04	5.14
683.448	5.22
683.856	5.31
684.264	5.4
684.671	5.49
685.079	5.62
685.487	5.75
685.894	5.88
686.302	6.03
686.709	6.2
687.116	6.38
687.524	6.59
687.931	6.82
688.338	7.08
688.745	7.36
689.152	7.66
689.559	7.99
689.966	8.35
690.373	8.75
690.78	9.17
691.187	9.63
691.593	10.09
692	10.58
692.407	11.09
692.813	11.63
693.22	12.18
693.626	12.75
694.032	13.34
694.439	13.95
694.845	14.55
695.251	15.17
695.657	15.8
696.063	16.45
696.469	17.12
696.875	17.76
697.281	18.41
697.687	19.1
698.093	19.79
698.498	20.46
698.904	21.14
699.31	21.81
699.715	22.52
700.12	23.19
700.526	23.86
700.931	24.52
701.337	25.2
701.742	25.84
702.147	26.48
702.552	27.11
702.957	27.75
703.362	28.37
703.767	28.99
704.172	29.59
704.577	30.2
704.981	30.81
705.386	31.4
705.791	31.99
706.195	32.59
706.6	33.18
707.004	33.74
707.408	34.33
707.813	34.89
708.217	35.45
708.621	35.99
709.025	36.53
709.43	37.03
709.834	37.57
710.237	38.08
710.641	38.62
711.045	39.11
711.449	39.62
711.853	40.1
712.256	40.6
712.66	41.07
713.064	41.54
713.467	42.01
713.87	42.49
714.274	42.95
714.677	43.41
715.08	43.82
715.484	44.28
715.887	44.73
716.29	45.15
716.693	45.55
717.096	46
717.499	46.43
717.901	46.81
718.304	47.21
718.707	47.59
719.109	48
719.512	48.43
719.915	48.77
720.317	49.14
720.719	49.47
721.122	49.83
721.524	50.17
721.926	50.53
722.328	50.89
722.731	51.19
723.133	51.5
723.535	51.79
723.937	52.08
724.338	52.37
724.74	52.61
725.142	52.88
725.544	53.12
725.945	53.4
726.347	53.64
726.748	53.85
727.15	54.1
727.551	54.36
727.952	54.57
728.354	54.77
728.755	55
729.156	55.21
729.557	55.41
729.958	55.61
730.359	55.75
730.76	55.89
731.161	56.07
731.562	56.24
731.962	56.39
732.363	56.52
732.763	56.67
733.164	56.8
733.564	56.92
733.965	57.06
734.365	57.18
734.766	57.32
735.166	57.4
735.566	57.48
735.966	57.55
736.366	57.62
736.766	57.73
737.166	57.83
737.566	57.89
737.966	58.02
738.365	58.1
738.765	58.19
739.165	58.22
739.564	58.33
739.964	58.42
740.363	58.52
740.763	58.57
741.162	58.62
741.561	58.69
741.96	58.77
742.36	58.83
742.759	58.9
743.158	58.92
743.557	59.02
743.955	59.11
744.354	59.19
744.753	59.27
745.152	59.32
745.55	59.37
745.949	59.43
746.348	59.46
746.746	59.48
747.144	59.53
747.543	59.58
747.941	59.62
748.339	59.66
748.737	59.68
749.136	59.7
749.534	59.75
749.932	59.77
750.33	59.8
750.727	59.8
751.125	59.87
751.523	59.88
751.921	59.89
752.318	59.9
752.716	59.89
753.113	59.88
753.511	59.86
753.908	59.86
754.305	59.87
754.703	59.85
755.1	59.87
755.497	59.88
755.894	59.9
756.291	59.91
756.688	59.92
757.085	59.89
757.482	59.91
757.878	59.95
758.275	59.95
758.672	59.98
759.068	60.02
759.465	60.03
759.861	60.02
760.258	59.95
760.654	59.98
761.05	59.98
761.447	60.01
761.843	59.99
762.239	59.97
762.635	59.98
763.031	59.97
763.427	59.94
763.822	59.9
764.218	59.89
764.614	59.93
765.01	59.93
765.405	59.91
765.801	59.9
766.196	59.92
766.592	59.96
766.987	59.95
767.382	59.96
767.778	59.95
768.173	59.97
768.568	59.93
768.963	59.91
769.358	59.89
769.753	59.93
770.148	59.95
770.542	59.93
770.937	59.87
771.332	59.88
771.726	59.83
772.121	59.81
772.515	59.82
772.91	59.86
773.304	59.86
773.699	59.88
774.093	59.85
774.487	59.86
774.881	59.88
775.275	59.88
775.669	59.88
776.063	59.86
776.457	59.86
776.851	59.8
777.245	59.81
777.638	59.81
778.032	59.78
778.425	59.8
778.819	59.78
779.212	59.75
779.606	59.74
779.999	59.72
780.392	59.75
780.786	59.79
781.179	59.84
781.572	59.81
781.965	59.81
782.358	59.76
782.751	59.74
783.143	59.72
783.536	59.77
783.929	59.82
784.322	59.85
784.714	59.84
785.107	59.84
785.499	59.84
785.891	59.88
786.284	59.85
786.676	59.92
787.068	59.91
787.46	59.9
787.852	59.88
788.245	59.86
788.636	59.83
789.028	59.83
789.42	59.81
789.812	59.82
790.204	59.75
790.595	59.76
790.987	59.74
791.378	59.8
791.77	59.85
792.161	59.82
792.553	59.8
792.944	59.83
793.335	59.84
793.726	59.79
794.117	59.77
794.508	59.82
794.899	59.87
795.29	59.88
795.681	59.86
796.072	59.85
796.463	59.85
796.853	59.83
797.244	59.83
797.634	59.83
798.025	59.88
798.415	59.9
798.806	59.94
799.196	59.93
799.586	59.93
799.976	59.9
800.366	59.89
800.756	59.91
801.146	59.94
801.536	59.92
801.926	59.92
802.316	59.93
802.706	59.95
803.095	59.95
803.485	59.94
803.874	59.95
804.264	59.96
804.653	59.97
805.043	59.97
805.432	59.94
805.821	59.95
806.21	59.96
806.599	60
806.988	59.96
807.377	59.94
807.766	59.95
808.155	59.96
808.544	59.94
808.933	59.94
809.321	59.96
809.71	60.03
810.098	60.01
810.487	60
810.875	59.95
811.264	59.96
811.652	60.01
812.04	60.04
812.428	60.07
812.816	60.1
813.204	60.09
813.592	60.08
813.98	60.06
814.368	60.08
814.756	60.1
815.144	60.12
815.531	60.13
815.919	60.08
816.306	60.04
816.694	60.03
817.081	60.01
817.469	60.02
817.856	60.07
818.243	60.08
818.63	60.11
819.017	60.1
819.404	60.09
819.791	60.08
820.178	60.1
820.565	60.14
820.952	60.14
821.339	60.19
821.725	60.21
822.112	60.19
822.498	60.2
822.885	60.21
823.271	60.22
823.657	60.23
824.044	60.26
824.43	60.23
824.816	60.21
825.202	60.18
825.588	60.19
825.974	60.17
826.36	60.19
826.746	60.21
827.132	60.18
827.517	60.2
827.903	60.21
828.289	60.2
828.674	60.22
829.06	60.28
829.445	60.34
829.83	60.31
830.216	60.31
830.601	60.31
830.986	60.26
831.371	60.31
831.756	60.27
832.141	60.28
832.526	60.3
832.911	60.31
833.295	60.29
833.68	60.26
834.065	60.28
834.449	60.28
834.834	60.24
835.218	60.23
835.603	60.21
835.987	60.22
836.371	60.19
836.755	60.16
837.139	60.15
837.524	60.13
837.908	60.13
838.291	60.08
838.675	60.09
839.059	60.12
839.443	60.16
839.827	60.15
840.21	60.19
840.594	60.2
840.977	60.21
841.361	60.21
841.744	60.22
842.127	60.21
842.511	60.24
842.894	60.2
843.277	60.2
843.66	60.18
844.043	60.21
844.426	60.18
844.809	60.19
845.191	60.19
845.574	60.19
845.957	60.18
846.339	60.18
846.722	60.17
847.104	60.2
847.487	60.25
847.869	60.24
848.252	60.21
848.634	60.25
849.016	60.24
849.398	60.21
849.78	60.22
850.162	60.23
850.544	60.26
850.926	60.26
851.307	60.28
851.689	60.2
852.071	60.19
852.452	60.22
852.834	60.19
853.215	60.19
853.597	60.22
853.978	60.17
854.359	60.15
854.741	60.1
855.122	60.11
855.503	60.11
855.884	60.14
856.265	60.13
856.646	60.14
857.026	60.13
857.407	60.09
857.788	60.07
858.169	60.08
858.549	60.1
858.93	60.15
859.31	60.12
859.69	60.08
860.071	60.05
860.451	60.07
860.831	60.05
861.211	60.06
861.591	60.08
861.971	60.07
862.351	60.07
862.731	60.04
863.111	60.01
863.491	60.02
863.87	60.01
864.25	60.02
864.629	60
865.009	60
865.388	59.96
865.768	59.98
866.147	60.01
866.526	60.02
866.905	60.03
867.284	60.05
867.663	60.06
868.042	60.09
868.421	60.1
868.8	60.08
869.179	60.07
869.558	60.1
869.936	60.1
870.315	60.08
870.693	60.09
871.072	60.06
871.45	60.01
871.828	60.03
872.207	60.04
872.585	60.06
872.963	60.06
873.341	60.07
873.719	60.03
874.097	60.03
874.475	60.03
874.853	60.04
875.23	60.05
875.608	60.07
875.986	60.04
876.363	59.98
876.741	59.96
877.118	59.95
877.495	59.91
877.873	59.96
878.25	59.96
878.627	59.94
879.004	59.92
879.381	59.92
879.758	59.92
880.135	59.9
880.512	59.93
880.889	59.93
881.265	59.94
881.642	59.95
882.019	59.92
882.395	59.93
882.772	59.93
883.148	59.92
883.524	59.93
883.901	59.92
884.277	59.94
884.653	59.91
885.029	59.91
885.405	59.92
885.781	59.91
886.157	59.89
886.532	59.87
886.908	59.87
887.284	59.88
887.659	59.85
888.035	59.85
888.411	59.86
888.786	59.87
889.161	59.86
889.537	59.89
889.912	59.85
890.287	59.86
890.662	59.85
891.037	59.83
891.412	59.8
891.787	59.78
892.162	59.76
892.536	59.74
892.911	59.73
893.286	59.69
893.66	59.64
894.035	59.68
894.409	59.67
894.784	59.68
895.158	59.68
895.532	59.69
895.906	59.72
896.281	59.72
896.655	59.72
897.029	59.68
897.402	59.73
897.776	59.75
898.15	59.74
898.524	59.73
898.898	59.68
899.271	59.67
899.645	59.66
900.018	59.67
900.392	59.69
900.765	59.7
901.138	59.75
901.511	59.73
901.884	59.74
902.258	59.77
902.631	59.78
903.003	59.83
903.376	59.83
903.749	59.85
904.122	59.85
904.495	59.85
904.867	59.84
905.24	59.83
905.612	59.79
905.985	59.75
906.357	59.68
906.729	59.65
907.102	59.63
907.474	59.64
907.846	59.61
908.218	59.6
908.59	59.57
908.962	59.56
909.334	59.55
909.705	59.55
910.077	59.52
910.449	59.54
910.82	59.56
911.192	59.57
911.563	59.57
911.935	59.55
912.306	59.53
912.677	59.48
913.048	59.46
913.419	59.43
913.79	59.43
914.161	59.42
914.532	59.43
914.903	59.41
915.274	59.35
915.645	59.35
916.015	59.34
916.386	59.32
916.756	59.36
917.127	59.36
917.497	59.38
917.868	59.39
918.238	59.41
918.608	59.39
918.978	59.39
919.348	59.39
919.718	59.34
920.088	59.36
920.458	59.39
920.828	59.39
921.198	59.42
921.567	59.4
921.937	59.41
922.306	59.39
922.676	59.4
923.045	59.38
923.415	59.39
923.784	59.4
924.153	59.39
924.522	59.38
924.891	59.33
925.26	59.3
925.629	59.3
925.998	59.27
926.367	59.23
926.736	59.2
927.104	59.21
927.473	59.22
927.842	59.21
928.21	59.23
928.578	59.17
928.947	59.21
929.315	59.18
929.683	59.2
930.051	59.19
930.42	59.2
930.788	59.22
931.156	59.19
931.523	59.2
931.891	59.2
932.259	59.13
932.627	59.13
932.994	59.07
933.362	59.08
933.729	59
934.097	58.99
934.464	59
934.831	58.97
935.199	58.93
935.566	58.87
935.933	58.91
936.3	58.91
936.667	58.95
937.034	58.96
937.401	58.92
937.767	58.97
938.134	58.98
938.501	58.97
938.867	59
939.234	59.06
939.6	59.13
939.967	59.11
940.333	59.16
940.699	59.22
941.065	59.33
941.431	59.43
941.798	59.48
942.163	59.59
942.529	59.63
942.895	59.7
943.261	59.74
943.627	59.72
943.992	59.73
944.358	59.75
944.723	59.75
945.089	59.74
945.454	59.77
945.82	59.77
946.185	59.77
946.55	59.87
946.915	59.81
947.28	59.8
947.645	59.78
948.01	59.72
948.375	59.76
948.74	59.69
949.104	59.63
949.469	59.48
949.834	59.38
950.198	59.31
950.562	59.21
950.927	59.17
951.291	59.15
951.655	59.12
952.02	59.05
952.384	59.03
952.748	59
953.112	59.04
953.476	59.09
953.839	59.17
954.203	59.09
954.567	59.09
954.931	59.1
955.294	59.09
955.658	59.09
956.021	59.16
956.385	59.09
956.748	59.16
957.111	59.06
957.474	59.08
957.837	59.03
958.2	59
958.563	58.93
958.926	58.86
959.289	58.83
959.652	58.85
960.015	58.76
960.377	58.71
960.74	58.62
961.102	58.66
961.465	58.64
961.827	58.59
962.189	58.6
962.552	58.55
962.914	58.53
963.276	58.53
963.638	58.48
964	58.44
964.362	58.48
964.724	58.51
965.085	58.53
965.447	58.45
965.809	58.45
966.17	58.48
966.532	58.51
966.893	58.53
967.255	58.44
967.616	58.48
967.977	58.56
968.338	58.53
968.699	58.5
969.061	58.35
969.421	58.32
969.782	58.26
970.143	58.23
970.504	58.21
970.865	58.13
971.225	58.17
971.586	58.14
971.946	58.17
972.307	58.19
972.667	58.16
973.027	58.27
973.388	58.29
973.748	58.4
974.108	58.4
974.468	58.39
974.828	58.49
975.188	58.48
975.548	58.5
975.907	58.4
976.267	58.36
976.627	58.39
976.986	58.39
977.346	58.4
977.705	58.37
978.064	58.4
978.424	58.42
978.783	58.43
979.142	58.38
979.501	58.35
979.86	58.46
980.219	58.42
980.578	58.38
980.937	58.34
981.296	58.4
981.654	58.47
982.013	58.55
982.371	58.57
982.73	58.57
983.088	58.52
983.447	58.54
983.805	58.52
984.163	58.56
984.521	58.5
984.879	58.53
985.237	58.46
985.595	58.46
985.953	58.3
986.311	58.46
986.669	58.48
987.026	58.67
987.384	58.64
987.741	58.72
988.099	58.73
988.456	58.74
988.814	58.76
989.171	58.74
989.528	58.71
989.885	58.73
990.242	58.64
990.599	58.71
990.956	58.67
991.313	58.81
991.67	58.74
992.027	58.74
992.383	58.87
992.74	58.86
993.096	59.04
993.453	59.07
993.809	59.12
994.165	59.11
994.522	59.07
994.878	59.13
995.234	59.04
995.59	59.02
995.946	59.1
996.302	59.04
996.658	59.07
997.013	58.98
997.369	59.01
997.725	59.13
998.08	59.15
998.436	59.29
998.791	59.28
999.147	59.34
999.502	59.35
999.857	59.4
1000.212	59.43
1000.567	59.48
1000.922	59.56
1001.277	59.62
1001.632	59.67
1001.987	59.66
1002.342	59.5
1002.696	59.46
1003.051	59.31
1003.406	59.39
1003.76	59.4
1004.114	59.6
1004.469	59.61
1004.823	59.64
1005.177	59.69
1005.531	59.57
1005.885	59.81
1006.239	59.95
1006.593	59.89
1006.947	60.11
1007.301	60.1
1007.655	60.22
1008.008	60.13
1008.362	60.12
1008.715	60.07
1009.069	59.94
1009.422	59.99
1009.776	59.81
1010.129	59.93
1010.482	60.3
1010.835	60.58
1011.188	60.48
1011.541	60.27
1011.894	60.36
1012.247	60.49
1012.6	60.78
1012.952	60.98
1013.305	61.02
1013.657	61.11
1014.01	61.02
1014.362	60.92
1014.715	60.68
1015.067	60.98
1015.419	61.22
1015.771	61.32
1016.123	61.37
1016.475	61.42
1016.827	61.85
1017.179	62.17
1017.531	62.25
1017.883	62.58
1018.234	62.69
1018.586	63.1
1018.938	63
1019.289	63.14
1019.64	63.28
1019.992	63.5
1020.343	63.33
1020.694	62.95
1021.045	62.88
1021.396	62.9
1021.747	62.74
1022.098	63.03
1022.449	62.95
1022.8	63.24
1023.151	63.4
1023.501	63.57
1023.852	63.85
1024.202	64.05
1024.553	63.98
1024.903	63.84
1025.253	64.16
1025.604	64.29
1025.954	64.16
1026.304	64.48
1026.654	64.58
1027.004	64.9
1027.354	64.76
1027.703	64.51
1028.053	64.55
1028.403	64.8
1028.753	65.35
1029.102	65.44
1029.452	65.69
1029.801	65.91
1030.15	65.67
1030.499	65.79
897.758	407.35
901.051	413.42
904.343	418.16
907.636	412.68
910.928	403.94
914.22	413.14
917.511	406.38
920.803	390.46
924.094	374.74
927.384	376.34
930.675	366.02
933.965	361.56
937.255	359.93
940.544	343.15
943.834	330.37
947.123	326.9
950.411	310.53
953.7	303.79
956.988	296
960.276	283.56
963.563	280.27
966.851	268.54
970.138	263.91
973.424	247.86
976.711	245.02
979.997	238.17
983.283	234.08
986.568	225.49
989.853	220.57
993.138	213.75
996.423	212.61
999.708	206.36
1002.992	206.2
1006.275	201.92
1009.559	200.22
1012.842	194.49
1016.125	188.21
1019.408	184.29
1022.69	184.47
1025.972	183.05
1029.254	178.6
1032.536	175.54
1035.817	170.96
1039.098	168.47
1042.379	165.42
1045.659	164.77
1048.939	163.13
1052.219	161.48
1055.498	159.8
1058.778	156.42
1062.057	154.19
1065.335	153.91
1068.614	151.17
1071.892	150.17
1075.17	147.39
1078.447	145.94
1081.724	143.94
1085.001	142.79
1088.278	141.48
1091.554	140.36
1094.83	140.58
1098.106	138.92
1101.382	137.93
1104.657	137.17
1107.932	136.14
1111.206	136.75
1114.481	135.99
1117.755	134.52
1121.029	133.91
1124.302	132.62
1127.575	131.15
1130.848	130.17
1134.121	127.71
1137.393	127.53
1140.665	127.39
1143.937	126.73
1147.208	123.74
1150.48	121.83
1153.75	121.98
1157.021	121.48
1160.291	121.39
1163.561	120.79
1166.831	120.08
1170.101	121.05
1173.37	120.14
1176.639	118.73
1179.907	118.81
1183.176	119.37
1186.444	119.41
1189.711	118.75
1192.979	119.09
1196.246	119.44
1199.513	119.11
1202.78	119.32
1206.046	119.44
1209.312	119.54
1212.578	120.72
1215.843	121.85
1219.108	122.13
1222.373	124.33
1225.638	125.93
1228.902	128.03
1232.166	130.43
1235.43	132
1238.693	135.02
1241.956	136.77
1245.219	139.75
1248.482	141.3
1251.744	140.22
1255.006	141.47
1258.268	137.99
1261.529	137.22
1264.79	134.33
1268.051	131.81
1271.312	131.32
1274.572	128.12
1277.832	126.72
1281.092	125.7
1284.351	122.93
1287.61	123.45
1290.869	122.2
1294.128	122.16
1297.386	121.45
1300.644	122.01
1303.902	121.21
1307.159	119.03
1310.416	120.54
1313.673	121.34
1316.93	122.17
1320.186	123.48
1323.442	123.88
1326.697	126.26
1329.953	127.2
1333.208	130.35
1336.463	132.68
1339.717	135.95
1342.972	143.16
1346.226	146.51
1349.479	146.94
1352.733	151.89
1355.986	154.29
1359.238	157.66
1362.491	158.37
1365.743	162.82
1368.995	164.44
1372.247	166.16
1375.498	164.53
1378.749	169.58
1382	166.83
1385.251	167.06
1388.501	165.38
1391.751	167.57
1395	167.12
1398.25	167.54
1401.499	165.06
1404.748	164.35
1407.996	159.29
1411.244	160.19
1414.492	155.45
1417.74	152.08
1420.987	148.54
1424.234	145.54
1427.481	140.68
1430.728	136.58
1433.974	132.92
1437.22	130.16
1440.465	125.6
1443.711	122.23
1446.956	117.99
1450.201	115.02
1453.445	110.4
1456.689	107.71
1459.933	104.83
1463.177	100.92
1466.42	98.88
1469.663	96.37
1472.906	93.74
1476.148	91.89
1479.391	90.37
1482.633	89.45
1485.874	88.52
1489.115	88.16
1492.356	86.51
1495.597	85.83
1498.838	85.88
1502.078	85.46
1505.318	85.2
1508.557	84.97
1511.797	84.36
1515.036	85.31
1518.274	84
1521.513	83.63
1524.751	83.45
1527.989	84.75
1531.227	84.43
1534.464	84.27
1537.701	83.64
1540.938	83.49
1544.174	83.42
1547.41	83.81
1550.646	82.8
1553.882	84.13
1557.117	83.12
1560.352	83.82
1563.587	82.67
1566.821	82.66
1570.055	82.08
1573.289	82.2
1576.523	82.8
1579.756	82.14
1582.989	82.58
1586.222	82.6
1589.454	81.49
1592.686	82.08
1595.918	80.99
1599.15	81.27
1602.381	81.55
1605.612	82.12
1608.843	82.04
1612.073	81.97
1615.303	82.71
1618.533	81.96
1621.762	82.5
1624.992	83.32
1628.221	82.88
1631.449	83.71
1634.678	83.67
1637.906	84.16
1641.134	83.92
1644.361	84.24
1647.588	83.95
1650.815	84
1654.042	84.65
1657.269	84.41
1660.495	84.87
1663.72	84.4
1666.946	84.5
1670.171	84.8
1673.396	84.85
1676.621	85.08
1679.845	85.29
1683.069	85.27
1686.293	84.75
1689.517	84.77
1692.74	84.67
1695.963	84.78
1699.185	85.44
1702.408	85.12
1705.63	85.24
1708.852	85.26
1712.073	84.82
1715.294	84.53
1718.515	84.97
1721.736	85.54
1724.956	84.79
1728.176	84.9
1731.396	85.31
1734.616	85.39
1737.835	85.63
1741.054	84.87
1744.272	85.15
1747.491	85.85
1750.709	85.71
1753.927	85.6
1757.144	85.65
1760.361	85.97
1763.578	86.11
1766.795	85.99
1770.011	86.4
1773.227	86.86
1776.443	87.51
1779.658	87.06
1782.874	86.85
1786.089	87.39
1789.303	87.4
1792.518	88.01
1795.732	88.77
1798.945	89.6
1802.159	89.63
1805.372	90.31
1808.585	90.25
1811.797	91.08
1815.01	91.41
1818.222	92.43
1821.434	93.19
1824.645	93.58
1827.856	94.6
1831.067	94.81
1834.278	95.38
1837.488	95.7
1840.698	95.84
1843.908	95.81
1847.117	96.01
1850.326	97.13
1853.535	96.78
1856.744	96.8
1859.952	96.8
1863.16	96.78
1866.368	96.17
1869.575	95.56
1872.782	94.88
1875.989	94.05
1879.196	94.43
1882.402	93.02
1885.608	92.71
1888.814	91.98
1892.019	91.31
1895.224	90.03
1898.429	88.67
1901.634	88.52
1904.838	88.43
1908.042	87.87
1911.246	88.09
1914.449	87.05
1917.652	88.14
1920.855	87.6
1924.058	87.49
1927.26	86.91
1930.462	88.19
1933.664	89.02
1936.865	88.85
1940.066	87.52
1943.267	87.12
1946.467	86.85
1949.668	86.85
1952.868	86.25
1956.067	86.46
1959.267	87.29
1962.466	87.98
1965.665	88.11
1968.863	88.32
1972.061	88.11
1975.259	90.47
1978.457	91.55
1981.654	94.44
1984.852	95.2
1988.048	96.37
1991.245	98.33
1994.441	99.77
1997.637	102.19
2000.833	104.93
2004.028	105.57
2007.223	110.31
2010.418	112.8
2013.613	117.43
2016.807	119.14
2020.001	120.03
2023.194	124.23
2026.388	128.49
2029.581	134.57
2032.774	137.78
2035.966	140.89
2039.158	147.09
2042.35	147.96
2045.542	149.87
2048.733	156.51
2051.924	157.55
2055.115	162.48
2058.306	163.72
2061.496	164.56
2064.686	165.18
2067.875	163.14
2071.065	166.14
2074.254	165.03
2077.442	171.95
2080.631	173.77
2083.819	173.03
2087.007	174.27
2090.195	178.02
2093.382	177.2
2096.569	178.17
2099.756	180.17
2102.942	185.55
2106.128	188.39
2109.314	189.88
2112.5	188.76
2115.685	187.59
2118.87	188.02
2122.055	191.96
2125.239	192.93
2128.424	198.43
2131.608	196.6
2134.791	198.66
2137.974	197.91
2141.157	200.21
2144.34	203.03
2147.523	205.76
2150.705	211.05
2153.887	209.51
2157.068	210.9
2160.25	213.86
2163.431	211.46
2166.611	216.27
2169.792	218.52
2172.972	225.28
2176.152	223.28
2179.331	226.61
2182.511	226.23
2185.69	228.63
2188.868	234.28
2192.047	241.75
2195.225	243.76
2198.403	252.16
2201.58	251.2
2204.758	259.57
2207.935	257.7
2211.111	263.13
2214.288	265.53
2217.464	266.94
2220.64	271.78
2223.815	274.53
2226.991	270.83
2230.166	273.67
2233.34	279.76
2236.515	283.39
2239.689	277.94
2242.863	286.04
2246.036	283.61
2249.209	290.45
2252.382	291.42
2255.555	300.23
2258.727	303.42
2261.9	304.7
2265.071	309.23
2268.243	306.99
2271.414	315.91
2274.585	323.94
2277.756	318.84
2280.926	329.8
2284.096	330.71
2287.266	333.46
2290.436	325.25
2293.605	332.06
2296.774	349.26
2299.942	350.17
2303.111	357.03
2306.279	365.06
2309.447	367.22
2312.614	369.68
2315.781	381.65
2318.948	387.93
2322.115	394.77
2325.281	412.6
2328.447	411.65
2331.613	410.6
2334.779	415.12
2337.944	423.26
2341.109	429.09
2344.274	430.35
2347.438	446.85
2350.602	449.92
2353.766	470.24
2356.929	471.59
2360.092	479.35
2363.255	476.87
2366.418	487.48
2369.58	495.3
2372.742	501.48
2375.904	499.2
2379.066	515.01
2382.227	540.5
2385.388	537.42
2388.548	514.94
2391.709	514.59
2394.869	531.37
2398.029	532.76
2401.188	531.71
2404.347	549.56
2407.506	558.07
2410.665	534.59
2413.823	538.01
2416.981	535.62
2420.139	516.38
2423.296	554.31
2426.453	592.33
2429.61	567.54
2432.767	607.87
2435.923	627.79
2439.079	602.05
2442.235	616.3
2445.391	641.98
2448.546	633.74
2451.701	664.77
2454.855	704.21
2458.009	624.15
2461.163	626.25
2464.317	624.44
2467.471	614.58
2470.624	633.65
2473.777	630.52
2476.929	611.29
2480.082	650.34
2483.234	683.39
2486.385	690.31
2489.537	705.48
2492.688	777.5
2495.839	766.15
2498.989	791.82
2502.14	797.31
2505.29	756.68
2508.439	830.73
2511.589	851.08
2514.738	822.86
2517.887	817.66
2521.035	765.31
2524.183	755.11
2527.331	748.51
2530.479	726.53
2533.627	744.81
