Data from c_1_dec_nc_4n_039_Splice17_19.txt Node
Date: Sat Feb 29 13:27:46 EST 2020
User: sa697716
Spectrometer: FLMS03696
Trigger mode: 0
Integration Time (sec): 3.180400E-1
Scans to average: 20
Electric dark correction enabled: true
Nonlinearity correction enabled: true
Boxcar width: 5
XAxis mode: Wavelengths
Number of Pixels in Spectrum: 2048
>>>>>Begin Spectral Data<<<<<
187.83	98.21
188.298	101.82
188.766	104.37
189.233	109.18
189.701	111.48
190.169	106
190.636	115.93
191.104	124.61
191.571	332.33
192.039	275.73
192.506	-138.9
192.974	3077.49
193.441	29.32
193.908	122.86
194.375	243.61
194.842	213.05
195.31	82.23
195.777	38.18
196.244	91.53
196.711	102.61
197.177	105.13
197.644	104.84
198.111	104.36
198.578	105.54
199.045	106.05
199.511	106.61
199.978	107.22
200.445	107.36
200.911	107.82
201.378	107.74
201.844	108.41
202.31	108.4
202.777	108.17
203.243	108.61
203.709	108.26
204.176	107.81
204.642	106.68
205.108	105.94
205.574	105.9
206.04	105.36
206.506	104.25
206.972	102.93
207.438	101.83
207.903	100.87
208.369	98.55
208.835	97.47
209.301	95.88
209.766	93.99
210.232	92.12
210.697	89.91
211.163	87.79
211.628	86.26
212.094	84.79
212.559	83.28
213.024	81.42
213.49	79.43
213.955	77.22
214.42	74.77
214.885	72.43
215.35	69.48
215.815	65.69
216.28	61.66
216.745	56.72
217.21	51.71
217.675	47.27
218.14	43.19
218.604	39.76
219.069	36.75
219.534	34.15
219.998	32.02
220.463	30.23
220.927	28.78
221.392	27.45
221.856	26.39
222.32	25.46
222.785	24.57
223.249	23.83
223.713	23.25
224.177	22.62
224.642	22.09
225.106	21.56
225.57	21.08
226.034	20.61
226.497	20.18
226.961	19.75
227.425	19.33
227.889	18.98
228.353	18.62
228.816	18.23
229.28	17.86
229.744	17.58
230.207	17.29
230.671	16.99
231.134	16.72
231.597	16.47
232.061	16.26
232.524	16.05
232.987	15.84
233.45	15.63
233.914	15.44
234.377	15.27
234.84	15.08
235.303	14.91
235.766	14.74
236.229	14.57
236.691	14.42
237.154	14.26
237.617	14.12
238.08	13.96
238.542	13.83
239.005	13.69
239.468	13.55
239.93	13.41
240.393	13.29
240.855	13.15
241.317	13.04
241.78	12.92
242.242	12.8
242.704	12.68
243.166	12.57
243.629	12.45
244.091	12.34
244.553	12.25
245.015	12.15
245.477	12.04
245.939	11.95
246.4	11.84
246.862	11.74
247.324	11.66
247.786	11.57
248.247	11.48
248.709	11.38
249.17	11.31
249.632	11.22
250.093	11.13
250.555	11.06
251.016	10.98
251.477	10.9
251.939	10.83
252.4	10.74
252.861	10.67
253.322	10.61
253.783	10.55
254.244	10.48
254.705	10.41
255.166	10.35
255.627	10.28
256.088	10.2
256.549	10.15
257.009	10.08
257.47	10.02
257.931	9.95
258.391	9.86
258.852	9.79
259.312	9.72
259.773	9.65
260.233	9.58
260.694	9.52
261.154	9.45
261.614	9.39
262.074	9.33
262.534	9.26
262.994	9.2
263.455	9.16
263.915	9.1
264.374	9.06
264.834	9.02
265.294	8.96
265.754	8.91
266.214	8.87
266.673	8.84
267.133	8.8
267.593	8.77
268.052	8.73
268.512	8.69
268.971	8.66
269.431	8.63
269.89	8.59
270.349	8.57
270.809	8.54
271.268	8.52
271.727	8.49
272.186	8.46
272.645	8.44
273.104	8.42
273.563	8.4
274.022	8.37
274.481	8.35
274.94	8.32
275.399	8.29
275.857	8.28
276.316	8.25
276.775	8.21
277.233	8.19
277.692	8.16
278.15	8.13
278.609	8.1
279.067	8.07
279.525	8.05
279.984	8.04
280.442	8.03
280.9	8.01
281.358	8
281.816	7.99
282.274	7.97
282.732	7.96
283.19	7.95
283.648	7.94
284.106	7.93
284.564	7.92
285.021	7.9
285.479	7.87
285.937	7.84
286.394	7.82
286.852	7.8
287.309	7.78
287.767	7.75
288.224	7.72
288.682	7.7
289.139	7.67
289.596	7.63
290.053	7.61
290.511	7.57
290.968	7.54
291.425	7.51
291.882	7.47
292.339	7.44
292.796	7.41
293.252	7.38
293.709	7.34
294.166	7.32
294.623	7.29
295.079	7.26
295.536	7.25
295.992	7.22
296.449	7.2
296.905	7.18
297.362	7.16
297.818	7.14
298.274	7.12
298.731	7.1
299.187	7.09
299.643	7.07
300.099	7.06
300.555	7.03
301.011	7.01
301.467	7
301.923	6.99
302.379	6.97
302.835	6.96
303.291	6.95
303.746	6.94
304.202	6.92
304.658	6.91
305.113	6.89
305.569	6.89
306.024	6.88
306.479	6.88
306.935	6.87
307.39	6.88
307.845	6.87
308.301	6.87
308.756	6.87
309.211	6.87
309.666	6.87
310.121	6.87
310.576	6.87
311.031	6.86
311.486	6.85
311.94	6.84
312.395	6.84
312.85	6.83
313.305	6.83
313.759	6.83
314.214	6.82
314.668	6.82
315.123	6.81
315.577	6.81
316.032	6.81
316.486	6.79
316.94	6.78
317.394	6.76
317.849	6.74
318.303	6.72
318.757	6.71
319.211	6.68
319.665	6.66
320.119	6.63
320.572	6.62
321.026	6.6
321.48	6.59
321.934	6.58
322.387	6.57
322.841	6.55
323.295	6.54
323.748	6.52
324.202	6.51
324.655	6.5
325.108	6.49
325.562	6.48
326.015	6.47
326.468	6.45
326.921	6.43
327.374	6.42
327.827	6.42
328.28	6.41
328.733	6.4
329.186	6.4
329.639	6.38
330.092	6.38
330.545	6.37
330.997	6.38
331.45	6.39
331.903	6.39
332.355	6.39
332.808	6.4
333.26	6.41
333.713	6.42
334.165	6.43
334.617	6.43
335.069	6.43
335.522	6.43
335.974	6.43
336.426	6.43
336.878	6.43
337.33	6.43
337.782	6.43
338.234	6.44
338.686	6.42
339.137	6.42
339.589	6.4
340.041	6.39
340.493	6.37
340.944	6.36
341.396	6.34
341.847	6.31
342.299	6.27
342.75	6.25
343.201	6.22
343.653	6.19
344.104	6.17
344.555	6.15
345.006	6.14
345.457	6.12
345.908	6.11
346.359	6.1
346.81	6.1
347.261	6.09
347.712	6.09
348.163	6.07
348.613	6.08
349.064	6.06
349.515	6.05
349.965	6.05
350.416	6.05
350.866	6.05
351.317	6.04
351.767	6.03
352.217	6.02
352.668	6.02
353.118	6.02
353.568	6.02
354.018	6.03
354.468	6.02
354.918	6.03
355.368	6.03
355.818	6.02
356.268	6.03
356.718	6.03
357.168	6.01
357.617	6
358.067	6
358.517	5.99
358.966	6.01
359.416	6.01
359.865	6.01
360.315	6.01
360.764	6.01
361.213	6
361.663	6
362.112	6.01
362.561	6.01
363.01	6.02
363.459	6.01
363.908	6.01
364.357	6
364.806	5.99
365.255	5.98
365.703	5.98
366.152	5.97
366.601	5.98
367.05	5.99
367.498	5.98
367.947	5.97
368.395	5.98
368.844	5.98
369.292	5.98
369.74	5.98
370.189	5.98
370.637	5.98
371.085	5.99
371.533	5.98
371.981	5.98
372.429	5.97
372.877	5.96
373.325	5.95
373.773	5.94
374.221	5.93
374.669	5.93
375.116	5.92
375.564	5.92
376.012	5.92
376.459	5.92
376.907	5.94
377.354	5.94
377.801	5.96
378.249	5.97
378.696	5.99
379.143	6.01
379.591	6.01
380.038	6.02
380.485	6.04
380.932	6.04
381.379	6.05
381.826	6.05
382.273	6.05
382.72	6.06
383.166	6.06
383.613	6.05
384.06	6.05
384.506	6.07
384.953	6.08
385.4	6.08
385.846	6.1
386.292	6.11
386.739	6.13
387.185	6.15
387.631	6.17
388.078	6.19
388.524	6.2
388.97	6.21
389.416	6.22
389.862	6.25
390.308	6.27
390.754	6.29
391.2	6.32
391.645	6.34
392.091	6.36
392.537	6.39
392.983	6.43
393.428	6.46
393.874	6.5
394.319	6.53
394.765	6.54
395.21	6.57
395.655	6.6
396.101	6.63
396.546	6.67
396.991	6.7
397.436	6.71
397.881	6.75
398.326	6.8
398.771	6.84
399.216	6.88
399.661	6.92
400.106	6.95
400.551	6.97
400.995	6.97
401.44	6.98
401.885	7.01
402.329	7.04
402.774	7.04
403.218	7.05
403.663	7.07
404.107	7.09
404.551	7.11
404.995	7.12
405.44	7.14
405.884	7.17
406.328	7.2
406.772	7.21
407.216	7.22
407.66	7.25
408.104	7.25
408.547	7.27
408.991	7.26
409.435	7.28
409.879	7.3
410.322	7.33
410.766	7.35
411.209	7.36
411.653	7.38
412.096	7.4
412.54	7.41
412.983	7.45
413.426	7.48
413.869	7.5
414.312	7.55
414.756	7.58
415.199	7.58
415.642	7.62
416.085	7.64
416.527	7.66
416.97	7.67
417.413	7.66
417.856	7.65
418.298	7.64
418.741	7.65
419.184	7.64
419.626	7.63
420.069	7.63
420.511	7.61
420.953	7.61
421.396	7.62
421.838	7.63
422.28	7.67
422.722	7.68
423.164	7.69
423.606	7.71
424.048	7.71
424.49	7.71
424.932	7.72
425.374	7.72
425.816	7.71
426.258	7.68
426.699	7.65
427.141	7.63
427.582	7.62
428.024	7.62
428.465	7.6
428.907	7.61
429.348	7.6
429.789	7.61
430.231	7.6
430.672	7.62
431.113	7.66
431.554	7.69
431.995	7.71
432.436	7.73
432.877	7.72
433.318	7.74
433.759	7.77
434.2	7.79
434.64	7.79
435.081	7.81
435.522	7.83
435.962	7.88
436.403	7.88
436.843	7.9
437.284	7.9
437.724	7.95
438.164	7.96
438.604	7.98
439.045	8
439.485	8.05
439.925	8.06
440.365	8.08
440.805	8.08
441.245	8.09
441.685	8.11
442.125	8.14
442.564	8.18
443.004	8.22
443.444	8.23
443.883	8.26
444.323	8.29
444.762	8.35
445.202	8.4
445.641	8.44
446.081	8.51
446.52	8.52
446.959	8.56
447.398	8.59
447.837	8.66
448.276	8.68
448.716	8.72
449.154	8.75
449.593	8.76
450.032	8.78
450.471	8.78
450.91	8.77
451.349	8.81
451.787	8.83
452.226	8.81
452.664	8.79
453.103	8.8
453.541	8.79
453.98	8.79
454.418	8.78
454.856	8.75
455.295	8.73
455.733	8.72
456.171	8.7
456.609	8.69
457.047	8.68
457.485	8.67
457.923	8.65
458.361	8.64
458.798	8.63
459.236	8.62
459.674	8.63
460.111	8.64
460.549	8.63
460.987	8.64
461.424	8.62
461.862	8.62
462.299	8.63
462.736	8.64
463.173	8.62
463.611	8.63
464.048	8.65
464.485	8.64
464.922	8.65
465.359	8.67
465.796	8.68
466.233	8.72
466.67	8.74
467.106	8.74
467.543	8.75
467.98	8.78
468.416	8.77
468.853	8.76
469.29	8.77
469.726	8.77
470.162	8.76
470.599	8.75
471.035	8.75
471.471	8.74
471.907	8.75
472.344	8.76
472.78	8.76
473.216	8.74
473.652	8.75
474.088	8.76
474.523	8.77
474.959	8.77
475.395	8.77
475.831	8.76
476.266	8.75
476.702	8.74
477.138	8.7
477.573	8.68
478.008	8.69
478.444	8.69
478.879	8.67
479.314	8.65
479.75	8.65
480.185	8.63
480.62	8.62
481.055	8.61
481.49	8.6
481.925	8.6
482.36	8.6
482.795	8.59
483.229	8.58
483.664	8.59
484.099	8.58
484.534	8.58
484.968	8.59
485.403	8.6
485.837	8.61
486.271	8.62
486.706	8.63
487.14	8.67
487.574	8.69
488.009	8.73
488.443	8.75
488.877	8.79
489.311	8.84
489.745	8.88
490.179	8.93
490.613	8.98
491.046	9.05
491.48	9.12
491.914	9.17
492.348	9.25
492.781	9.31
493.215	9.38
493.648	9.46
494.082	9.55
494.515	9.64
494.948	9.73
495.382	9.83
495.815	9.92
496.248	10.02
496.681	10.13
497.114	10.24
497.547	10.37
497.98	10.5
498.413	10.62
498.846	10.75
499.279	10.89
499.711	11.02
500.144	11.17
500.577	11.34
501.009	11.51
501.442	11.69
501.874	11.87
502.306	12.06
502.739	12.26
503.171	12.48
503.603	12.7
504.036	12.93
504.468	13.17
504.9	13.43
505.332	13.68
505.764	13.95
506.196	14.23
506.627	14.51
507.059	14.79
507.491	15.08
507.923	15.38
508.354	15.69
508.786	16
509.217	16.31
509.649	16.64
510.08	16.98
510.512	17.31
510.943	17.65
511.374	17.99
511.805	18.36
512.237	18.71
512.668	19.08
513.099	19.46
513.53	19.85
513.961	20.25
514.391	20.62
514.822	20.99
515.253	21.38
515.684	21.76
516.114	22.17
516.545	22.57
516.975	22.96
517.406	23.36
517.836	23.73
518.267	24.11
518.697	24.52
519.127	24.9
519.558	25.29
519.988	25.66
520.418	26.01
520.848	26.35
521.278	26.71
521.708	27.14
522.138	27.48
522.567	27.81
522.997	28.11
523.427	28.42
523.857	28.72
524.286	29.02
524.716	29.33
525.145	29.64
525.575	29.93
526.004	30.18
526.433	30.36
526.863	30.61
527.292	30.85
527.721	31.09
528.15	31.29
528.579	31.51
529.008	31.72
529.437	31.89
529.866	32.05
530.295	32.22
530.724	32.41
531.152	32.6
531.581	32.74
532.01	32.91
532.438	33.07
532.867	33.22
533.295	33.35
533.723	33.51
534.152	33.62
534.58	33.75
535.008	33.85
535.436	33.93
535.865	33.99
536.293	34.1
536.721	34.19
537.149	34.25
537.576	34.34
538.004	34.42
538.432	34.45
538.86	34.51
539.287	34.58
539.715	34.63
540.143	34.68
540.57	34.75
540.998	34.81
541.425	34.84
541.852	34.9
542.28	34.93
542.707	34.97
543.134	35.01
543.561	35.03
543.988	35.09
544.415	35.14
544.842	35.2
545.269	35.21
545.696	35.24
546.123	35.27
546.549	35.3
546.976	35.34
547.403	35.35
547.829	35.38
548.256	35.42
548.682	35.43
549.108	35.45
549.535	35.45
549.961	35.45
550.387	35.45
550.813	35.43
551.24	35.44
551.666	35.44
552.092	35.43
552.518	35.42
552.943	35.41
553.369	35.41
553.795	35.39
554.221	35.39
554.646	35.37
555.072	35.34
555.498	35.32
555.923	35.27
556.349	35.19
556.774	35.15
557.199	35.1
557.625	35.02
558.05	34.91
558.475	34.83
558.9	34.74
559.325	34.65
559.75	34.53
560.175	34.44
560.6	34.35
561.025	34.27
561.449	34.15
561.874	34.02
562.299	33.91
562.723	33.8
563.148	33.69
563.572	33.55
563.997	33.44
564.421	33.31
564.846	33.17
565.27	33.01
565.694	32.84
566.118	32.69
566.542	32.53
566.966	32.37
567.39	32.22
567.814	32.06
568.238	31.87
568.662	31.7
569.086	31.53
569.509	31.36
569.933	31.2
570.357	31.02
570.78	30.86
571.204	30.69
571.627	30.52
572.05	30.37
572.474	30.2
572.897	30.06
573.32	29.91
573.743	29.75
574.166	29.6
574.589	29.44
575.012	29.3
575.435	29.16
575.858	29.02
576.281	28.88
576.704	28.74
577.126	28.6
577.549	28.48
577.972	28.35
578.394	28.23
578.817	28.11
579.239	28.02
579.661	27.92
580.084	27.81
580.506	27.71
580.928	27.59
581.35	27.51
581.772	27.43
582.194	27.33
582.616	27.26
583.038	27.17
583.46	27.09
583.882	26.98
584.303	26.89
584.725	26.83
585.147	26.75
585.568	26.66
585.99	26.57
586.411	26.49
586.833	26.42
587.254	26.34
587.675	26.27
588.096	26.19
588.518	26.12
588.939	26.05
589.36	25.97
589.781	25.9
590.202	25.86
590.623	25.8
591.043	25.74
591.464	25.68
591.885	25.61
592.305	25.59
592.726	25.54
593.147	25.52
593.567	25.47
593.987	25.42
594.408	25.39
594.828	25.34
595.248	25.3
595.669	25.24
596.089	25.2
596.509	25.14
596.929	25.08
597.349	25.02
597.769	24.95
598.189	24.91
598.608	24.86
599.028	24.79
599.448	24.73
599.867	24.67
600.287	24.61
600.706	24.55
601.126	24.5
601.545	24.43
601.965	24.38
602.384	24.33
602.803	24.26
603.222	24.19
603.641	24.12
604.061	24.05
604.48	23.97
604.898	23.89
605.317	23.8
605.736	23.73
606.155	23.63
606.574	23.53
606.992	23.42
607.411	23.32
607.829	23.16
608.248	23.06
608.666	22.97
609.085	22.88
609.503	22.77
609.921	22.67
610.339	22.57
610.758	22.48
611.176	22.39
611.594	22.28
612.012	22.19
612.43	22.15
612.847	22.05
613.265	21.95
613.683	21.85
614.101	21.75
614.518	21.65
614.936	21.54
615.353	21.44
615.771	21.33
616.188	21.27
616.606	21.18
617.023	21.08
617.44	21
617.857	20.93
618.274	20.85
618.691	20.8
619.108	20.75
619.525	20.7
619.942	20.66
620.359	20.62
620.776	20.56
621.192	20.51
621.609	20.47
622.026	20.44
622.442	20.4
622.859	20.36
623.275	20.34
623.691	20.33
624.108	20.31
624.524	20.27
624.94	20.26
625.356	20.24
625.772	20.23
626.188	20.25
626.604	20.22
627.02	20.21
627.436	20.2
627.852	20.16
628.268	20.14
628.683	20.11
629.099	20.11
629.514	20.08
629.93	20.04
630.345	20.01
630.761	19.96
631.176	19.93
631.591	19.89
632.007	19.85
632.422	19.81
632.837	19.75
633.252	19.67
633.667	19.58
634.082	19.5
634.497	19.4
634.911	19.27
635.326	19.15
635.741	19.02
636.155	18.88
636.57	18.73
636.984	18.56
637.399	18.39
637.813	18.23
638.228	18.07
638.642	17.91
639.056	17.74
639.47	17.57
639.884	17.39
640.298	17.19
640.712	17.01
641.126	16.83
641.54	16.65
641.954	16.46
642.368	16.28
642.781	16.08
643.195	15.88
643.609	15.7
644.022	15.52
644.436	15.35
644.849	15.19
645.262	15.04
645.676	14.87
646.089	14.72
646.502	14.59
646.915	14.46
647.328	14.35
647.741	14.24
648.154	14.15
648.567	14.05
648.98	13.98
649.393	13.89
649.805	13.8
650.218	13.73
650.631	13.67
651.043	13.59
651.456	13.54
651.868	13.47
652.28	13.4
652.693	13.31
653.105	13.24
653.517	13.16
653.929	13.09
654.341	13.02
654.753	12.93
655.165	12.85
655.577	12.75
655.989	12.64
656.401	12.52
656.813	12.41
657.224	12.29
657.636	12.17
658.047	12.02
658.459	11.87
658.87	11.72
659.282	11.59
659.693	11.45
660.104	11.31
660.515	11.16
660.926	11.03
661.338	10.88
661.749	10.74
662.159	10.59
662.57	10.45
662.981	10.33
663.392	10.2
663.803	10.05
664.213	9.93
664.624	9.81
665.035	9.7
665.445	9.6
665.855	9.5
666.266	9.41
666.676	9.33
667.086	9.26
667.497	9.2
667.907	9.13
668.317	9.08
668.727	9.03
669.137	8.98
669.547	8.94
669.956	8.9
670.366	8.88
670.776	8.85
671.186	8.83
671.595	8.82
672.005	8.8
672.414	8.8
672.824	8.81
673.233	8.81
673.642	8.82
674.052	8.83
674.461	8.86
674.87	8.87
675.279	8.89
675.688	8.92
676.097	8.95
676.506	8.99
676.915	9.02
677.323	9.08
677.732	9.14
678.141	9.22
678.549	9.32
678.958	9.41
679.366	9.48
679.775	9.59
680.183	9.73
680.592	9.86
681	10
681.408	10.17
681.816	10.35
682.224	10.55
682.632	10.77
683.04	10.99
683.448	11.26
683.856	11.58
684.264	11.93
684.671	12.29
685.079	12.68
685.487	13.11
685.894	13.57
686.302	14.04
686.709	14.56
687.116	15.1
687.524	15.69
687.931	16.3
688.338	16.92
688.745	17.55
689.152	18.24
689.559	18.95
689.966	19.67
690.373	20.41
690.78	21.18
691.187	21.95
691.593	22.71
692	23.48
692.407	24.24
692.813	25.02
693.22	25.8
693.626	26.56
694.032	27.31
694.439	28.09
694.845	28.83
695.251	29.55
695.657	30.27
696.063	31
696.469	31.67
696.875	32.34
697.281	33.02
697.687	33.7
698.093	34.35
698.498	34.98
698.904	35.59
699.31	36.19
699.715	36.78
700.12	37.34
700.526	37.89
700.931	38.43
701.337	38.99
701.742	39.46
702.147	39.95
702.552	40.44
702.957	40.91
703.362	41.36
703.767	41.79
704.172	42.22
704.577	42.65
704.981	43.08
705.386	43.52
705.791	43.9
706.195	44.29
706.6	44.66
707.004	45
707.408	45.36
707.813	45.72
708.217	46.04
708.621	46.39
709.025	46.74
709.43	47.02
709.834	47.32
710.237	47.59
710.641	47.88
711.045	48.13
711.449	48.4
711.853	48.68
712.256	48.93
712.66	49.18
713.064	49.42
713.467	49.63
713.87	49.89
714.274	50.13
714.677	50.38
715.08	50.61
715.484	50.85
715.887	51.08
716.29	51.3
716.693	51.48
717.096	51.73
717.499	51.97
717.901	52.15
718.304	52.34
718.707	52.49
719.109	52.69
719.512	52.89
719.915	53.06
720.317	53.24
720.719	53.39
721.122	53.55
721.524	53.71
721.926	53.84
722.328	54
722.731	54.13
723.133	54.27
723.535	54.41
723.937	54.52
724.338	54.62
724.74	54.74
725.142	54.84
725.544	54.96
725.945	55.05
726.347	55.14
726.748	55.17
727.15	55.27
727.551	55.38
727.952	55.43
728.354	55.53
728.755	55.65
729.156	55.72
729.557	55.79
729.958	55.87
730.359	55.92
730.76	55.97
731.161	56.09
731.562	56.15
731.962	56.19
732.363	56.23
732.763	56.3
733.164	56.32
733.564	56.39
733.965	56.43
734.365	56.47
734.766	56.54
735.166	56.56
735.566	56.57
735.966	56.58
736.366	56.58
736.766	56.61
737.166	56.63
737.566	56.67
737.966	56.67
738.365	56.7
738.765	56.72
739.165	56.7
739.564	56.76
739.964	56.78
740.363	56.82
740.763	56.85
741.162	56.89
741.561	56.93
741.96	56.98
742.36	57.01
742.759	57.01
743.158	57.02
743.557	57.05
743.955	57.07
744.354	57.11
744.753	57.14
745.152	57.16
745.55	57.16
745.949	57.13
746.348	57.11
746.746	57.12
747.144	57.17
747.543	57.21
747.941	57.25
748.339	57.28
748.737	57.32
749.136	57.3
749.534	57.33
749.932	57.35
750.33	57.37
750.727	57.38
751.125	57.39
751.523	57.37
751.921	57.37
752.318	57.38
752.716	57.34
753.113	57.31
753.511	57.3
753.908	57.29
754.305	57.28
754.703	57.26
755.1	57.23
755.497	57.21
755.894	57.21
756.291	57.21
756.688	57.21
757.085	57.22
757.482	57.25
757.878	57.29
758.275	57.3
758.672	57.31
759.068	57.34
759.465	57.37
759.861	57.39
760.258	57.39
760.654	57.37
761.05	57.35
761.447	57.34
761.843	57.27
762.239	57.26
762.635	57.24
763.031	57.22
763.427	57.18
763.822	57.17
764.218	57.16
764.614	57.15
765.01	57.15
765.405	57.15
765.801	57.12
766.196	57.13
766.592	57.13
766.987	57.14
767.382	57.13
767.778	57.17
768.173	57.16
768.568	57.12
768.963	57.1
769.358	57.08
769.753	57.11
770.148	57.11
770.542	57.1
770.937	57.08
771.332	57.08
771.726	57.07
772.121	57.06
772.515	57.07
772.91	57.11
773.304	57.12
773.699	57.11
774.093	57.06
774.487	57.07
774.881	57.1
775.275	57.12
775.669	57.11
776.063	57.08
776.457	57.04
776.851	57.02
777.245	57.02
777.638	57.02
778.032	57.03
778.425	57.07
778.819	57.07
779.212	57.06
779.606	57.06
779.999	57.1
780.392	57.15
780.786	57.2
781.179	57.23
781.572	57.2
781.965	57.2
782.358	57.17
782.751	57.17
783.143	57.2
783.536	57.23
783.929	57.24
784.322	57.25
784.714	57.25
785.107	57.23
785.499	57.21
785.891	57.24
786.284	57.22
786.676	57.31
787.068	57.31
787.46	57.29
787.852	57.28
788.245	57.25
788.636	57.25
789.028	57.23
789.42	57.21
789.812	57.2
790.204	57.18
790.595	57.17
790.987	57.12
791.378	57.12
791.77	57.15
792.161	57.16
792.553	57.22
792.944	57.2
793.335	57.22
793.726	57.22
794.117	57.21
794.508	57.19
794.899	57.2
795.29	57.2
795.681	57.19
796.072	57.17
796.463	57.17
796.853	57.13
797.244	57.13
797.634	57.14
798.025	57.17
798.415	57.2
798.806	57.23
799.196	57.28
799.586	57.28
799.976	57.24
800.366	57.24
800.756	57.19
801.146	57.17
801.536	57.13
801.926	57.11
802.316	57.12
802.706	57.13
803.095	57.15
803.485	57.12
803.874	57.11
804.264	57.16
804.653	57.14
805.043	57.15
805.432	57.16
805.821	57.17
806.21	57.23
806.599	57.2
806.988	57.15
807.377	57.13
807.766	57.11
808.155	57.12
808.544	57.07
808.933	57.1
809.321	57.15
809.71	57.18
810.098	57.17
810.487	57.1
810.875	57.09
811.264	57.11
811.652	57.14
812.04	57.14
812.428	57.15
812.816	57.17
813.204	57.15
813.592	57.1
813.98	57.06
814.368	57.04
814.756	57.09
815.144	57.11
815.531	57.13
815.919	57.11
816.306	57.1
816.694	57.14
817.081	57.11
817.469	57.12
817.856	57.15
818.243	57.18
818.63	57.22
819.017	57.18
819.404	57.18
819.791	57.16
820.178	57.15
820.565	57.18
820.952	57.14
821.339	57.18
821.725	57.18
822.112	57.15
822.498	57.12
822.885	57.11
823.271	57.14
823.657	57.16
824.044	57.16
824.43	57.2
824.816	57.15
825.202	57.14
825.588	57.13
825.974	57.11
826.36	57.12
826.746	57.16
827.132	57.12
827.517	57.12
827.903	57.11
828.289	57.11
828.674	57.04
829.06	57.08
829.445	57.09
829.83	57.08
830.216	57.09
830.601	57.11
830.986	57.11
831.371	57.15
831.756	57.12
832.141	57.13
832.526	57.1
832.911	57.15
833.295	57.16
833.68	57.18
834.065	57.18
834.449	57.16
834.834	57.16
835.218	57.13
835.603	57.14
835.987	57.13
836.371	57.13
836.755	57.12
837.139	57.12
837.524	57.09
837.908	57.08
838.291	57.07
838.675	57.06
839.059	57.05
839.443	57.06
839.827	57.03
840.21	57.05
840.594	57.03
840.977	57.04
841.361	57.04
841.744	57.06
842.127	57.06
842.511	57.06
842.894	57.04
843.277	57.03
843.66	57.03
844.043	57.06
844.426	57.04
844.809	57.02
845.191	57.03
845.574	57.03
845.957	56.99
846.339	57
846.722	57.01
847.104	57.04
847.487	57.06
847.869	57.04
848.252	57.03
848.634	57.05
849.016	57.05
849.398	57.02
849.78	57.02
850.162	57.02
850.544	57.03
850.926	57.01
851.307	57.01
851.689	56.99
852.071	56.98
852.452	56.96
852.834	56.95
853.215	56.95
853.597	56.96
853.978	56.95
854.359	56.96
854.741	56.94
855.122	56.94
855.503	56.94
855.884	56.92
856.265	56.93
856.646	56.94
857.026	56.94
857.407	56.93
857.788	56.93
858.169	56.92
858.549	56.95
858.93	56.93
859.31	56.94
859.69	56.9
860.071	56.92
860.451	56.89
860.831	56.87
861.211	56.86
861.591	56.87
861.971	56.86
862.351	56.86
862.731	56.85
863.111	56.85
863.491	56.88
863.87	56.91
864.25	56.91
864.629	56.91
865.009	56.93
865.388	56.93
865.768	56.95
866.147	56.97
866.526	56.96
866.905	56.93
867.284	56.94
867.663	56.91
868.042	56.9
868.421	56.9
868.8	56.92
869.179	56.95
869.558	56.95
869.936	56.94
870.315	56.95
870.693	56.96
871.072	56.96
871.45	56.94
871.828	56.93
872.207	56.93
872.585	56.94
872.963	56.89
873.341	56.88
873.719	56.89
874.097	56.85
874.475	56.84
874.853	56.82
875.23	56.85
875.608	56.86
875.986	56.88
876.363	56.88
876.741	56.9
877.118	56.91
877.495	56.9
877.873	56.87
878.25	56.88
878.627	56.86
879.004	56.86
879.381	56.83
879.758	56.8
880.135	56.78
880.512	56.77
880.889	56.75
881.265	56.77
881.642	56.75
882.019	56.77
882.395	56.79
882.772	56.79
883.148	56.78
883.524	56.81
883.901	56.82
884.277	56.79
884.653	56.79
885.029	56.78
885.405	56.77
885.781	56.74
886.157	56.71
886.532	56.69
886.908	56.66
887.284	56.65
887.659	56.62
888.035	56.61
888.411	56.6
888.786	56.57
889.161	56.59
889.537	56.54
889.912	56.55
890.287	56.52
890.662	56.52
891.037	56.51
891.412	56.5
891.787	56.5
892.162	56.48
892.536	56.5
892.911	56.48
893.286	56.45
893.66	56.46
894.035	56.45
894.409	56.48
894.784	56.49
895.158	56.52
895.532	56.52
895.906	56.5
896.281	56.52
896.655	56.5
897.029	56.49
897.402	56.5
897.776	56.49
898.15	56.5
898.524	56.51
898.898	56.48
899.271	56.46
899.645	56.47
900.018	56.48
900.392	56.49
900.765	56.51
901.138	56.57
901.511	56.57
901.884	56.61
902.258	56.61
902.631	56.62
903.003	56.63
903.376	56.62
903.749	56.61
904.122	56.62
904.495	56.61
904.867	56.6
905.24	56.56
905.612	56.54
905.985	56.49
906.357	56.49
906.729	56.47
907.102	56.47
907.474	56.51
907.846	56.49
908.218	56.44
908.59	56.41
908.962	56.43
909.334	56.46
909.705	56.5
910.077	56.51
910.449	56.52
910.82	56.51
911.192	56.52
911.563	56.51
911.935	56.51
912.306	56.56
912.677	56.58
913.048	56.55
913.419	56.48
913.79	56.43
914.161	56.42
914.532	56.4
914.903	56.4
915.274	56.38
915.645	56.38
916.015	56.36
916.386	56.34
916.756	56.29
917.127	56.29
917.497	56.35
917.868	56.34
918.238	56.38
918.608	56.38
918.978	56.38
919.348	56.35
919.718	56.37
920.088	56.43
920.458	56.49
920.828	56.53
921.198	56.53
921.567	56.48
921.937	56.54
922.306	56.48
922.676	56.45
923.045	56.45
923.415	56.49
923.784	56.46
924.153	56.4
924.522	56.38
924.891	56.36
925.26	56.37
925.629	56.37
925.998	56.34
926.367	56.36
926.736	56.39
927.104	56.4
927.473	56.39
927.842	56.33
928.21	56.41
928.578	56.39
928.947	56.43
929.315	56.47
929.683	56.49
930.051	56.48
930.42	56.51
930.788	56.53
931.156	56.47
931.523	56.47
931.891	56.55
932.259	56.49
932.627	56.51
932.994	56.53
933.362	56.49
933.729	56.48
934.097	56.48
934.464	56.48
934.831	56.45
935.199	56.53
935.566	56.59
935.933	56.62
936.3	56.61
936.667	56.65
937.034	56.65
937.401	56.67
937.767	56.77
938.134	56.81
938.501	56.82
938.867	56.9
939.234	57.01
939.6	57.03
939.967	57.05
940.333	57.21
940.699	57.28
941.065	57.4
941.431	57.55
941.798	57.65
942.163	57.8
942.529	57.88
942.895	57.95
943.261	57.93
943.627	58.02
943.992	58.12
944.358	58.09
944.723	58.08
945.089	58
945.454	58.03
945.82	57.89
946.185	57.93
946.55	57.98
946.915	57.93
947.28	57.91
947.645	57.8
948.01	57.69
948.375	57.74
948.74	57.64
949.104	57.66
949.469	57.48
949.834	57.49
950.198	57.31
950.562	57.2
950.927	57.15
951.291	57.06
951.655	56.97
952.02	56.92
952.384	56.86
952.748	56.89
953.112	56.81
953.476	56.81
953.839	56.76
954.203	56.77
954.567	56.7
954.931	56.68
955.294	56.63
955.658	56.63
956.021	56.65
956.385	56.61
956.748	56.52
957.111	56.42
957.474	56.43
957.837	56.44
958.2	56.35
958.563	56.35
958.926	56.28
959.289	56.35
959.652	56.28
960.015	56.2
960.377	56.12
960.74	56.12
961.102	56.15
961.465	56.13
961.827	56.07
962.189	56.11
962.552	56.04
962.914	56.03
963.276	55.95
963.638	55.98
964	56.07
964.362	56.13
964.724	56.18
965.085	56.23
965.447	56.17
965.809	56.13
966.17	56.07
966.532	56.11
966.893	56.12
967.255	56.11
967.616	56.11
967.977	56.05
968.338	56.01
968.699	55.91
969.061	55.84
969.421	55.85
969.782	55.94
970.143	55.99
970.504	56.01
970.865	55.97
971.225	56
971.586	56.1
971.946	56.12
972.307	56.1
972.667	56.16
973.027	56.17
973.388	56.17
973.748	56.21
974.108	56.17
974.468	56.23
974.828	56.34
975.188	56.33
975.548	56.13
975.907	56.07
976.267	56.12
976.627	56.05
976.986	56.08
977.346	56.06
977.705	56
978.064	56.05
978.424	56.02
978.783	56
979.142	56.05
979.501	56.14
979.86	56.15
980.219	56.03
980.578	56.12
980.937	56.12
981.296	56.21
981.654	56.33
982.013	56.33
982.371	56.31
982.73	56.4
983.088	56.42
983.447	56.49
983.805	56.52
984.163	56.75
984.521	56.67
984.879	56.71
985.237	56.74
985.595	56.72
985.953	56.76
986.311	56.84
986.669	56.72
987.026	56.75
987.384	56.81
987.741	56.91
988.099	56.86
988.456	57
988.814	57.06
989.171	57.07
989.528	57.08
989.885	57.06
990.242	57.24
990.599	57.39
990.956	57.36
991.313	57.32
991.67	57.38
992.027	57.44
992.383	57.48
992.74	57.52
993.096	57.66
993.453	57.67
993.809	57.87
994.165	57.72
994.522	57.74
994.878	57.87
995.234	57.99
995.59	58.08
995.946	58.1
996.302	58.11
996.658	58.15
997.013	58
997.369	58.24
997.725	58.27
998.08	58.37
998.436	58.45
998.791	58.45
999.147	58.43
999.502	58.36
999.857	58.45
1000.212	58.53
1000.567	58.65
1000.922	58.87
1001.277	58.79
1001.632	58.82
1001.987	58.92
1002.342	58.94
1002.696	59.04
1003.051	59.06
1003.406	59.23
1003.76	59.39
1004.114	59.56
1004.469	59.41
1004.823	59.4
1005.177	59.53
1005.531	59.64
1005.885	59.72
1006.239	59.79
1006.593	59.79
1006.947	59.9
1007.301	60.11
1007.655	60.19
1008.008	60.19
1008.362	60.38
1008.715	60.36
1009.069	60.4
1009.422	60.5
1009.776	60.63
1010.129	60.71
1010.482	60.96
1010.835	61.35
1011.188	61.28
1011.541	61.09
1011.894	61.22
1012.247	61.3
1012.6	61.54
1012.952	61.58
1013.305	61.56
1013.657	61.62
1014.01	61.86
1014.362	61.94
1014.715	61.73
1015.067	61.9
1015.419	62.49
1015.771	62.94
1016.123	63.28
1016.475	63.49
1016.827	63.96
1017.179	64.08
1017.531	64.24
1017.883	64.48
1018.234	64.72
1018.586	65.1
1018.938	65.27
1019.289	65.28
1019.64	65.32
1019.992	65.4
1020.343	65.74
1020.694	65.43
1021.045	65.71
1021.396	65.91
1021.747	65.98
1022.098	66.22
1022.449	66.3
1022.8	66.65
1023.151	66.82
1023.501	66.93
1023.852	67.32
1024.202	67.23
1024.553	67.47
1024.903	67.97
1025.253	68.03
1025.604	68.61
1025.954	68.51
1026.304	69.11
1026.654	69.24
1027.004	69.77
1027.354	69.96
1027.703	70.2
1028.053	70.39
1028.403	71.51
1028.753	71.8
1029.102	71.92
1029.452	71.46
1029.801	71.59
1030.15	71.33
1030.499	71.42
897.758	518.06
901.051	531.04
904.343	536
907.636	528.23
910.928	515.8
914.22	528.79
917.511	519.52
920.803	495.82
924.094	476.28
927.384	478.17
930.675	462.47
933.965	456.08
937.255	451.73
940.544	432.05
943.834	412.66
947.123	408.57
950.411	383.1
953.7	375.06
956.988	369.53
960.276	351.18
963.563	345.45
966.851	329.75
970.138	323.77
973.424	302.72
976.711	295.81
979.997	287.53
983.283	282.18
986.568	273.45
989.853	265.91
993.138	255.42
996.423	252.36
999.708	245.89
1002.992	246.14
1006.275	239.5
1009.559	238.88
1012.842	232.9
1016.125	223.7
1019.408	218.61
1022.69	217.06
1025.972	216.03
1029.254	210.38
1032.536	207.27
1035.817	200.49
1039.098	197.45
1042.379	194.26
1045.659	190.29
1048.939	189.1
1052.219	187
1055.498	184.57
1058.778	181.02
1062.057	177.9
1065.335	176.82
1068.614	173.1
1071.892	171.39
1075.17	168.39
1078.447	165.55
1081.724	164.48
1085.001	161.86
1088.278	159.64
1091.554	158.13
1094.83	158.12
1098.106	155.01
1101.382	154.7
1104.657	154.18
1107.932	152.65
1111.206	151.7
1114.481	150.79
1117.755	149
1121.029	147.85
1124.302	147.26
1127.575	145.3
1130.848	144.49
1134.121	141.75
1137.393	140.84
1140.665	140.41
1143.937	139.37
1147.208	137.01
1150.48	135.3
1153.75	134.46
1157.021	134.15
1160.291	133.43
1163.561	132.78
1166.831	131.18
1170.101	131.85
1173.37	131.47
1176.639	129.77
1179.907	129.82
1183.176	129.87
1186.444	130.37
1189.711	129.59
1192.979	130.22
1196.246	130.69
1199.513	129.82
1202.78	130.91
1206.046	130.76
1209.312	131.21
1212.578	131.75
1215.843	133.29
1219.108	133.75
1222.373	135.61
1225.638	138.16
1228.902	140.02
1232.166	144.13
1235.43	146.42
1238.693	149.52
1241.956	152.24
1245.219	155.87
1248.482	157.81
1251.744	156.94
1255.006	159.1
1258.268	154.61
1261.529	153.54
1264.79	150.71
1268.051	147.24
1271.312	145.75
1274.572	143.42
1277.832	139.67
1281.092	138.17
1284.351	135.44
1287.61	135.37
1290.869	133.95
1294.128	134.01
1297.386	133.56
1300.644	133.37
1303.902	132.65
1307.159	131.85
1310.416	131.7
1313.673	134.5
1316.93	134.89
1320.186	136.9
1323.442	138.06
1326.697	141.49
1329.953	142.73
1333.208	146.31
1336.463	151.1
1339.717	154.57
1342.972	163.17
1346.226	168.23
1349.479	169.11
1352.733	175.75
1355.986	179.74
1359.238	184.46
1362.491	183.46
1365.743	190.6
1368.995	193.2
1372.247	194.32
1375.498	191.79
1378.749	198.13
1382	196.45
1385.251	195.8
1388.501	195.87
1391.751	198.32
1395	196.47
1398.25	198
1401.499	196.58
1404.748	195.35
1407.996	190.34
1411.244	192.4
1414.492	187.88
1417.74	182.63
1420.987	180.79
1424.234	176.23
1427.481	169.6
1430.728	165.17
1433.974	161.86
1437.22	155.51
1440.465	150.9
1443.711	146.28
1446.956	141.43
1450.201	136.8
1453.445	131.45
1456.689	127.02
1459.933	123.28
1463.177	118
1466.42	115.53
1469.663	110.9
1472.906	108.21
1476.148	105.06
1479.391	103.48
1482.633	101.83
1485.874	99.98
1489.115	99.28
1492.356	97.31
1495.597	96.6
1498.838	95.91
1502.078	95.36
1505.318	95.55
1508.557	94.72
1511.797	93.99
1515.036	93.72
1518.274	93.39
1521.513	92.73
1524.751	91.89
1527.989	92.94
1531.227	92.2
1534.464	92.34
1537.701	91.15
1540.938	90.83
1544.174	90.78
1547.41	90.75
1550.646	90.4
1553.882	90.37
1557.117	88.99
1560.352	89.64
1563.587	88.37
1566.821	88.26
1570.055	88.1
1573.289	88.39
1576.523	88.37
1579.756	88.03
1582.989	88.39
1586.222	87.81
1589.454	87.39
1592.686	87.92
1595.918	87.49
1599.15	87.69
1602.381	87.39
1605.612	87.35
1608.843	87.56
1612.073	87.84
1615.303	88.12
1618.533	87.48
1621.762	88.11
1624.992	88.15
1628.221	87.81
1631.449	88.11
1634.678	88.27
1637.906	88.73
1641.134	88.61
1644.361	88.36
1647.588	87.65
1650.815	87.79
1654.042	88.47
1657.269	87.82
1660.495	88.48
1663.72	88.83
1666.946	88.52
1670.171	88.78
1673.396	88.36
1676.621	89.5
1679.845	90.09
1683.069	90.2
1686.293	89.99
1689.517	89.84
1692.74	90.12
1695.963	90.15
1699.185	90.24
1702.408	90.79
1705.63	90.56
1708.852	91.73
1712.073	90.46
1715.294	90.1
1718.515	91
1721.736	91.12
1724.956	90.93
1728.176	90.97
1731.396	91.66
1734.616	91.26
1737.835	90.99
1741.054	91.48
1744.272	91.24
1747.491	91.99
1750.709	92.35
1753.927	92.32
1757.144	92.15
1760.361	92.39
1763.578	93.54
1766.795	93.34
1770.011	94.34
1773.227	94.87
1776.443	94.93
1779.658	95.18
1782.874	95.75
1786.089	95.45
1789.303	95.69
1792.518	97.59
1795.732	98.04
1798.945	98.41
1802.159	98.66
1805.372	99.67
1808.585	99.82
1811.797	100.58
1815.01	101.36
1818.222	101.74
1821.434	103.18
1824.645	103.95
1827.856	104.67
1831.067	105.26
1834.278	106.03
1837.488	106.8
1840.698	107.26
1843.908	107.6
1847.117	109.03
1850.326	109.62
1853.535	110.48
1856.744	110.94
1859.952	112.26
1863.16	111.77
1866.368	112.19
1869.575	112.69
1872.782	112.04
1875.989	111.05
1879.196	111.41
1882.402	109.47
1885.608	109.88
1888.814	108.84
1892.019	108.67
1895.224	106.78
1898.429	107.6
1901.634	107.89
1904.838	107.79
1908.042	108.75
1911.246	109.15
1914.449	109.36
1917.652	109.89
1920.855	110.84
1924.058	109.84
1927.26	110.2
1930.462	111.06
1933.664	111.17
1936.865	110.45
1940.066	109.67
1943.267	108.77
1946.467	110.09
1949.668	108.73
1952.868	108.78
1956.067	107.96
1959.267	110.45
1962.466	111.37
1965.665	110.98
1968.863	111.53
1972.061	112.56
1975.259	116.1
1978.457	115.94
1981.654	116.86
1984.852	119.44
1988.048	121.98
1991.245	124.31
1994.441	125.89
1997.637	128.09
2000.833	131.81
2004.028	132.79
2007.223	137.53
2010.418	139.32
2013.613	146.07
2016.807	149.61
2020.001	150.63
2023.194	155.18
2026.388	159.02
2029.581	167.05
2032.774	172.67
2035.966	176.07
2039.158	181.71
2042.35	183.72
2045.542	185.62
2048.733	193.54
2051.924	195.88
2055.115	201.83
2058.306	202.76
2061.496	205.68
2064.686	204.08
2067.875	203.1
2071.065	207.28
2074.254	208.31
2077.442	214.54
2080.631	217.19
2083.819	217.28
2087.007	220.3
2090.195	223.03
2093.382	223.71
2096.569	224.43
2099.756	230.01
2102.942	234.4
2106.128	239.04
2109.314	240.21
2112.5	239.54
2115.685	239.09
2118.87	238.72
2122.055	240.7
2125.239	244.92
2128.424	250.8
2131.608	248.94
2134.791	246.72
2137.974	248.78
2141.157	251.29
2144.34	253.8
2147.523	257.33
2150.705	263.06
2153.887	262.43
2157.068	265.39
2160.25	266.62
2163.431	264.68
2166.611	270.09
2169.792	277.95
2172.972	279.58
2176.152	278.57
2179.331	283.22
2182.511	282.81
2185.69	284.97
2188.868	294.74
2192.047	302.51
2195.225	306.91
2198.403	313.3
2201.58	310.99
2204.758	318.38
2207.935	322.17
2211.111	329.05
2214.288	331.52
2217.464	336.65
2220.64	341.73
2223.815	341.2
2226.991	339.2
2230.166	340.97
2233.34	350.81
2236.515	362.63
2239.689	352.97
2242.863	360.5
2246.036	356.9
2249.209	367.77
2252.382	367.26
2255.555	379.03
2258.727	382.47
2261.9	388.58
2265.071	395.58
2268.243	392.42
2271.414	401.1
2274.585	414.27
2277.756	413.5
2280.926	427.86
2284.096	423.83
2287.266	426.97
2290.436	418.98
2293.605	427
2296.774	447.34
2299.942	448.17
2303.111	460.74
2306.279	469.7
2309.447	470.51
2312.614	474.26
2315.781	486.35
2318.948	495.82
2322.115	504.95
2325.281	533.54
2328.447	531.99
2331.613	531.01
2334.779	539.67
2337.944	550.03
2341.109	556.64
2344.274	564.54
2347.438	576.09
2350.602	585.7
2353.766	620
2356.929	622.83
2360.092	622.81
2363.255	625.4
2366.418	634.41
2369.58	642.36
2372.742	644.18
2375.904	644.13
2379.066	662.87
2382.227	705.53
2385.388	702.94
2388.548	667.2
2391.709	659.98
2394.869	684.94
2398.029	689.6
2401.188	687.52
2404.347	711.49
2407.506	726.04
2410.665	705.83
2413.823	703.56
2416.981	699.54
2420.139	663.77
2423.296	716.77
2426.453	768.61
2429.61	734.93
2432.767	781.41
2435.923	809.27
2439.079	779.24
2442.235	800.44
2445.391	811.84
2448.546	808.24
2451.701	852.85
2454.855	913.29
2458.009	807.57
2461.163	813.75
2464.317	822.59
2467.471	804.6
2470.624	831.89
2473.777	830.91
2476.929	800.12
2480.082	859.48
2483.234	904.83
2486.385	904.88
2489.537	925.07
2492.688	1026.01
2495.839	1014.84
2498.989	1032.85
2502.14	1041.85
2505.29	989.06
2508.439	1090.93
2511.589	1123.46
2514.738	1088.96
2517.887	1076.41
2521.035	1023.75
2524.183	1006.9
2527.331	993.07
2530.479	964.46
2533.627	996.06
