Data from c_1_div_oh_2n_027_Splice17_17.txt Node
Date: Sat Feb 29 13:21:49 EST 2020
User: sa697716
Spectrometer: FLMS03696
Trigger mode: 0
Integration Time (sec): 3.180400E-1
Scans to average: 20
Electric dark correction enabled: true
Nonlinearity correction enabled: true
Boxcar width: 5
XAxis mode: Wavelengths
Number of Pixels in Spectrum: 2048
>>>>>Begin Spectral Data<<<<<
187.83	64.18
188.298	68.68
188.766	73.96
189.233	65.96
189.701	76.88
190.169	80.22
190.636	65.53
191.104	47.2
191.571	64.92
192.039	183.52
192.506	92.13
192.974	3335.45
193.441	-454.58
193.908	143.48
194.375	204.07
194.842	243.16
195.31	166.06
195.777	66.82
196.244	52.15
196.711	60.61
197.177	58.45
197.644	59.52
198.111	59.92
198.578	60.59
199.045	61.06
199.511	61.21
199.978	61.88
200.445	61.46
200.911	61.92
201.378	61.53
201.844	61.95
202.31	62.42
202.777	62.57
203.243	63.1
203.709	62.74
204.176	62.43
204.642	62.24
205.108	61.52
205.574	61.83
206.04	61.51
206.506	61.54
206.972	60.54
207.438	59.93
207.903	58.99
208.369	57.73
208.835	57.1
209.301	56.16
209.766	54.98
210.232	54.39
210.697	53.26
211.163	51.94
211.628	50.74
212.094	49.95
212.559	48.74
213.024	47.87
213.49	47.13
213.955	46.24
214.42	45.09
214.885	43.54
215.35	41.77
215.815	39.49
216.28	37.45
216.745	35.14
217.21	32.55
217.675	30.22
218.14	27.85
218.604	25.82
219.069	24.07
219.534	22.59
219.998	21.38
220.463	20.34
220.927	19.5
221.392	18.75
221.856	18.07
222.32	17.53
222.785	17.02
223.249	16.64
223.713	16.26
224.177	15.89
224.642	15.6
225.106	15.3
225.57	15.02
226.034	14.74
226.497	14.46
226.961	14.17
227.425	13.89
227.889	13.66
228.353	13.39
228.816	13.16
229.28	12.92
229.744	12.7
230.207	12.5
230.671	12.3
231.134	12.11
231.597	11.91
232.061	11.76
232.524	11.62
232.987	11.47
233.45	11.31
233.914	11.16
234.377	11.04
234.84	10.91
235.303	10.79
235.766	10.66
236.229	10.55
236.691	10.46
237.154	10.37
237.617	10.26
238.08	10.15
238.542	10.06
239.005	9.95
239.468	9.85
239.93	9.74
240.393	9.66
240.855	9.58
241.317	9.49
241.78	9.4
242.242	9.31
242.704	9.23
243.166	9.13
243.629	9.05
244.091	8.99
244.553	8.91
245.015	8.84
245.477	8.75
245.939	8.67
246.4	8.59
246.862	8.51
247.324	8.46
247.786	8.38
248.247	8.33
248.709	8.25
249.17	8.18
249.632	8.1
250.093	8.02
250.555	7.96
251.016	7.92
251.477	7.85
251.939	7.79
252.4	7.71
252.861	7.67
253.322	7.63
253.783	7.59
254.244	7.55
254.705	7.5
255.166	7.47
255.627	7.44
256.088	7.38
256.549	7.33
257.009	7.28
257.47	7.24
257.931	7.17
258.391	7.11
258.852	7.06
259.312	7.01
259.773	6.97
260.233	6.9
260.694	6.84
261.154	6.8
261.614	6.76
262.074	6.72
262.534	6.66
262.994	6.62
263.455	6.58
263.915	6.54
264.374	6.49
264.834	6.45
265.294	6.42
265.754	6.38
266.214	6.35
266.673	6.32
267.133	6.29
267.593	6.27
268.052	6.23
268.512	6.2
268.971	6.18
269.431	6.16
269.89	6.13
270.349	6.1
270.809	6.09
271.268	6.07
271.727	6.04
272.186	6.02
272.645	6
273.104	5.98
273.563	5.97
274.022	5.95
274.481	5.93
274.94	5.91
275.399	5.89
275.857	5.87
276.316	5.85
276.775	5.82
277.233	5.8
277.692	5.78
278.15	5.76
278.609	5.74
279.067	5.71
279.525	5.69
279.984	5.67
280.442	5.66
280.9	5.66
281.358	5.63
281.816	5.62
282.274	5.6
282.732	5.59
283.19	5.58
283.648	5.57
284.106	5.56
284.564	5.55
285.021	5.55
285.479	5.54
285.937	5.51
286.394	5.51
286.852	5.49
287.309	5.48
287.767	5.46
288.224	5.44
288.682	5.41
289.139	5.39
289.596	5.37
290.053	5.33
290.511	5.3
290.968	5.28
291.425	5.24
291.882	5.22
292.339	5.19
292.796	5.16
293.252	5.13
293.709	5.11
294.166	5.09
294.623	5.08
295.079	5.07
295.536	5.05
295.992	5.03
296.449	5.02
296.905	5.01
297.362	4.99
297.818	4.99
298.274	4.97
298.731	4.96
299.187	4.95
299.643	4.93
300.099	4.92
300.555	4.91
301.011	4.9
301.467	4.89
301.923	4.88
302.379	4.87
302.835	4.87
303.291	4.85
303.746	4.84
304.202	4.83
304.658	4.82
305.113	4.81
305.569	4.81
306.024	4.8
306.479	4.79
306.935	4.78
307.39	4.77
307.845	4.76
308.301	4.77
308.756	4.77
309.211	4.77
309.666	4.76
310.121	4.76
310.576	4.74
311.031	4.74
311.486	4.74
311.94	4.74
312.395	4.74
312.85	4.73
313.305	4.72
313.759	4.72
314.214	4.72
314.668	4.72
315.123	4.72
315.577	4.72
316.032	4.72
316.486	4.71
316.94	4.7
317.394	4.68
317.849	4.68
318.303	4.67
318.757	4.65
319.211	4.62
319.665	4.6
320.119	4.57
320.572	4.56
321.026	4.54
321.48	4.53
321.934	4.52
322.387	4.51
322.841	4.5
323.295	4.49
323.748	4.49
324.202	4.49
324.655	4.48
325.108	4.47
325.562	4.46
326.015	4.45
326.468	4.44
326.921	4.43
327.374	4.42
327.827	4.42
328.28	4.4
328.733	4.39
329.186	4.39
329.639	4.38
330.092	4.37
330.545	4.37
330.997	4.37
331.45	4.37
331.903	4.36
332.355	4.35
332.808	4.35
333.26	4.36
333.713	4.36
334.165	4.36
334.617	4.37
335.069	4.38
335.522	4.38
335.974	4.38
336.426	4.38
336.878	4.39
337.33	4.39
337.782	4.39
338.234	4.38
338.686	4.38
339.137	4.38
339.589	4.36
340.041	4.36
340.493	4.34
340.944	4.34
341.396	4.32
341.847	4.3
342.299	4.29
342.75	4.27
343.201	4.25
343.653	4.23
344.104	4.21
344.555	4.2
345.006	4.18
345.457	4.16
345.908	4.15
346.359	4.14
346.81	4.14
347.261	4.13
347.712	4.13
348.163	4.13
348.613	4.12
349.064	4.1
349.515	4.09
349.965	4.07
350.416	4.06
350.866	4.06
351.317	4.05
351.767	4.04
352.217	4.03
352.668	4.02
353.118	4.03
353.568	4.02
354.018	4.04
354.468	4.05
354.918	4.06
355.368	4.07
355.818	4.05
356.268	4.05
356.718	4.05
357.168	4.05
357.617	4.05
358.067	4.04
358.517	4.05
358.966	4.04
359.416	4.05
359.865	4.04
360.315	4.04
360.764	4.05
361.213	4.05
361.663	4.05
362.112	4.05
362.561	4.06
363.01	4.06
363.459	4.05
363.908	4.05
364.357	4.05
364.806	4.05
365.255	4.05
365.703	4.06
366.152	4.06
366.601	4.06
367.05	4.06
367.498	4.06
367.947	4.07
368.395	4.09
368.844	4.1
369.292	4.1
369.74	4.11
370.189	4.1
370.637	4.1
371.085	4.12
371.533	4.12
371.981	4.13
372.429	4.12
372.877	4.13
373.325	4.12
373.773	4.12
374.221	4.13
374.669	4.14
375.116	4.15
375.564	4.16
376.012	4.16
376.459	4.17
376.907	4.19
377.354	4.21
377.801	4.22
378.249	4.25
378.696	4.27
379.143	4.29
379.591	4.31
380.038	4.33
380.485	4.36
380.932	4.37
381.379	4.38
381.826	4.4
382.273	4.42
382.72	4.43
383.166	4.45
383.613	4.45
384.06	4.46
384.506	4.48
384.953	4.49
385.4	4.51
385.846	4.52
386.292	4.55
386.739	4.57
387.185	4.6
387.631	4.62
388.078	4.64
388.524	4.65
388.97	4.67
389.416	4.69
389.862	4.7
390.308	4.72
390.754	4.75
391.2	4.77
391.645	4.8
392.091	4.81
392.537	4.83
392.983	4.86
393.428	4.89
393.874	4.93
394.319	4.96
394.765	4.99
395.21	5
395.655	5.02
396.101	5.03
396.546	5.06
396.991	5.07
397.436	5.08
397.881	5.09
398.326	5.12
398.771	5.14
399.216	5.18
399.661	5.21
400.106	5.24
400.551	5.24
400.995	5.25
401.44	5.24
401.885	5.26
402.329	5.27
402.774	5.27
403.218	5.26
403.663	5.25
404.107	5.25
404.551	5.23
404.995	5.23
405.44	5.23
405.884	5.24
406.328	5.24
406.772	5.26
407.216	5.27
407.66	5.28
408.104	5.28
408.547	5.29
408.991	5.28
409.435	5.29
409.879	5.28
410.322	5.29
410.766	5.29
411.209	5.3
411.653	5.29
412.096	5.29
412.54	5.3
412.983	5.31
413.426	5.33
413.869	5.35
414.312	5.38
414.756	5.41
415.199	5.42
415.642	5.45
416.085	5.46
416.527	5.49
416.97	5.5
417.413	5.49
417.856	5.48
418.298	5.48
418.741	5.47
419.184	5.46
419.626	5.46
420.069	5.44
420.511	5.44
420.953	5.43
421.396	5.44
421.838	5.46
422.28	5.48
422.722	5.5
423.164	5.5
423.606	5.51
424.048	5.5
424.49	5.51
424.932	5.52
425.374	5.51
425.816	5.51
426.258	5.5
426.699	5.47
427.141	5.46
427.582	5.44
428.024	5.45
428.465	5.45
428.907	5.47
429.348	5.47
429.789	5.47
430.231	5.47
430.672	5.49
431.113	5.5
431.554	5.5
431.995	5.52
432.436	5.53
432.877	5.53
433.318	5.52
433.759	5.52
434.2	5.53
434.64	5.55
435.081	5.56
435.522	5.58
435.962	5.6
436.403	5.64
436.843	5.65
437.284	5.69
437.724	5.73
438.164	5.76
438.604	5.8
439.045	5.82
439.485	5.83
439.925	5.85
440.365	5.85
440.805	5.86
441.245	5.86
441.685	5.89
442.125	5.91
442.564	5.93
443.004	5.96
443.444	5.96
443.883	6
444.323	6.03
444.762	6.08
445.202	6.13
445.641	6.17
446.081	6.22
446.52	6.23
446.959	6.28
447.398	6.31
447.837	6.37
448.276	6.41
448.716	6.44
449.154	6.47
449.593	6.49
450.032	6.5
450.471	6.52
450.91	6.52
451.349	6.55
451.787	6.57
452.226	6.57
452.664	6.54
453.103	6.53
453.541	6.55
453.98	6.54
454.418	6.52
454.856	6.52
455.295	6.51
455.733	6.51
456.171	6.51
456.609	6.51
457.047	6.5
457.485	6.51
457.923	6.5
458.361	6.47
458.798	6.48
459.236	6.48
459.674	6.49
460.111	6.51
460.549	6.5
460.987	6.52
461.424	6.5
461.862	6.51
462.299	6.5
462.736	6.5
463.173	6.52
463.611	6.51
464.048	6.52
464.485	6.52
464.922	6.51
465.359	6.52
465.796	6.5
466.233	6.53
466.67	6.54
467.106	6.55
467.543	6.58
467.98	6.59
468.416	6.6
468.853	6.61
469.29	6.6
469.726	6.63
470.162	6.63
470.599	6.65
471.035	6.64
471.471	6.64
471.907	6.65
472.344	6.63
472.78	6.62
473.216	6.63
473.652	6.63
474.088	6.65
474.523	6.62
474.959	6.61
475.395	6.59
475.831	6.58
476.266	6.58
476.702	6.57
477.138	6.57
477.573	6.56
478.008	6.54
478.444	6.52
478.879	6.5
479.314	6.51
479.75	6.52
480.185	6.53
480.62	6.53
481.055	6.53
481.49	6.51
481.925	6.51
482.36	6.49
482.795	6.48
483.229	6.51
483.664	6.51
484.099	6.51
484.534	6.49
484.968	6.49
485.403	6.48
485.837	6.5
486.271	6.51
486.706	6.53
487.14	6.57
487.574	6.61
488.009	6.63
488.443	6.66
488.877	6.7
489.311	6.76
489.745	6.81
490.179	6.87
490.613	6.9
491.046	6.97
491.48	7.02
491.914	7.07
492.348	7.13
492.781	7.2
493.215	7.26
493.648	7.34
494.082	7.41
494.515	7.49
494.948	7.58
495.382	7.67
495.815	7.76
496.248	7.88
496.681	7.99
497.114	8.1
497.547	8.23
497.98	8.36
498.413	8.51
498.846	8.65
499.279	8.79
499.711	8.95
500.144	9.12
500.577	9.28
501.009	9.45
501.442	9.63
501.874	9.82
502.306	10.02
502.739	10.23
503.171	10.44
503.603	10.66
504.036	10.89
504.468	11.13
504.9	11.39
505.332	11.67
505.764	11.94
506.196	12.24
506.627	12.53
507.059	12.83
507.491	13.13
507.923	13.44
508.354	13.77
508.786	14.11
509.217	14.44
509.649	14.77
510.08	15.12
510.512	15.47
510.943	15.83
511.374	16.2
511.805	16.58
512.237	16.96
512.668	17.36
513.099	17.75
513.53	18.16
513.961	18.57
514.391	18.98
514.822	19.41
515.253	19.83
515.684	20.25
516.114	20.66
516.545	21.07
516.975	21.5
517.406	21.92
517.836	22.34
518.267	22.75
518.697	23.17
519.127	23.59
519.558	24
519.988	24.41
520.418	24.8
520.848	25.21
521.278	25.6
521.708	25.99
522.138	26.35
522.567	26.71
522.997	27.08
523.427	27.43
523.857	27.76
524.286	28.07
524.716	28.37
525.145	28.69
525.575	28.98
526.004	29.26
526.433	29.52
526.863	29.8
527.292	30.07
527.721	30.32
528.15	30.53
528.579	30.77
529.008	31
529.437	31.21
529.866	31.4
530.295	31.6
530.724	31.81
531.152	32
531.581	32.15
532.01	32.31
532.438	32.46
532.867	32.6
533.295	32.75
533.723	32.86
534.152	33
534.58	33.09
535.008	33.18
535.436	33.27
535.865	33.34
536.293	33.43
536.721	33.53
537.149	33.58
537.576	33.65
538.004	33.71
538.432	33.79
538.86	33.85
539.287	33.93
539.715	33.98
540.143	34.01
540.57	34.07
540.998	34.14
541.425	34.17
541.852	34.21
542.28	34.26
542.707	34.31
543.134	34.33
543.561	34.35
543.988	34.38
544.415	34.44
544.842	34.49
545.269	34.52
545.696	34.54
546.123	34.6
546.549	34.64
546.976	34.7
547.403	34.71
547.829	34.77
548.256	34.8
548.682	34.81
549.108	34.82
549.535	34.83
549.961	34.84
550.387	34.83
550.813	34.81
551.24	34.81
551.666	34.79
552.092	34.79
552.518	34.75
552.943	34.72
553.369	34.69
553.795	34.66
554.221	34.63
554.646	34.57
555.072	34.52
555.498	34.46
555.923	34.41
556.349	34.33
556.774	34.24
557.199	34.17
557.625	34.09
558.05	33.99
558.475	33.86
558.9	33.77
559.325	33.67
559.75	33.54
560.175	33.42
560.6	33.27
561.025	33.13
561.449	32.99
561.874	32.85
562.299	32.71
562.723	32.57
563.148	32.42
563.572	32.24
563.997	32.07
564.421	31.9
564.846	31.73
565.27	31.55
565.694	31.36
566.118	31.18
566.542	30.97
566.966	30.75
567.39	30.54
567.814	30.35
568.238	30.13
568.662	29.93
569.086	29.72
569.509	29.53
569.933	29.31
570.357	29.1
570.78	28.9
571.204	28.69
571.627	28.49
572.05	28.3
572.474	28.1
572.897	27.91
573.32	27.7
573.743	27.52
574.166	27.3
574.589	27.12
575.012	26.95
575.435	26.75
575.858	26.59
576.281	26.43
576.704	26.26
577.126	26.11
577.549	25.99
577.972	25.86
578.394	25.7
578.817	25.57
579.239	25.44
579.661	25.31
580.084	25.19
580.506	25.08
580.928	24.97
581.35	24.87
581.772	24.76
582.194	24.63
582.616	24.53
583.038	24.43
583.46	24.34
583.882	24.26
584.303	24.17
584.725	24.09
585.147	23.97
585.568	23.86
585.99	23.76
586.411	23.67
586.833	23.61
587.254	23.52
587.675	23.46
588.096	23.38
588.518	23.3
588.939	23.24
589.36	23.17
589.781	23.12
590.202	23.05
590.623	22.98
591.043	22.92
591.464	22.85
591.885	22.79
592.305	22.74
592.726	22.7
593.147	22.66
593.567	22.59
593.987	22.55
594.408	22.51
594.828	22.48
595.248	22.46
595.669	22.41
596.089	22.37
596.509	22.33
596.929	22.27
597.349	22.2
597.769	22.16
598.189	22.13
598.608	22.07
599.028	22.01
599.448	21.96
599.867	21.9
600.287	21.84
600.706	21.76
601.126	21.7
601.545	21.63
601.965	21.57
602.384	21.49
602.803	21.4
603.222	21.31
603.641	21.22
604.061	21.12
604.48	21.02
604.898	20.92
605.317	20.82
605.736	20.72
606.155	20.62
606.574	20.49
606.992	20.38
607.411	20.25
607.829	20.11
608.248	19.99
608.666	19.87
609.085	19.75
609.503	19.63
609.921	19.5
610.339	19.37
610.758	19.26
611.176	19.13
611.594	19
612.012	18.89
612.43	18.81
612.847	18.72
613.265	18.61
613.683	18.51
614.101	18.4
614.518	18.29
614.936	18.18
615.353	18.07
615.771	17.98
616.188	17.9
616.606	17.79
617.023	17.69
617.44	17.6
617.857	17.5
618.274	17.4
618.691	17.33
619.108	17.28
619.525	17.21
619.942	17.16
620.359	17.11
620.776	17.06
621.192	17.01
621.609	16.96
622.026	16.92
622.442	16.89
622.859	16.85
623.275	16.83
623.691	16.8
624.108	16.77
624.524	16.74
624.94	16.7
625.356	16.67
625.772	16.68
626.188	16.67
626.604	16.65
627.02	16.64
627.436	16.64
627.852	16.61
628.268	16.58
628.683	16.56
629.099	16.55
629.514	16.52
629.93	16.5
630.345	16.47
630.761	16.42
631.176	16.38
631.591	16.33
632.007	16.27
632.422	16.22
632.837	16.17
633.252	16.1
633.667	16
634.082	15.9
634.497	15.81
634.911	15.69
635.326	15.59
635.741	15.47
636.155	15.34
636.57	15.2
636.984	15.05
637.399	14.89
637.813	14.74
638.228	14.6
638.642	14.46
639.056	14.3
639.47	14.13
639.884	13.98
640.298	13.83
640.712	13.66
641.126	13.48
641.54	13.32
641.954	13.18
642.368	13.03
642.781	12.86
643.195	12.69
643.609	12.54
644.022	12.38
644.436	12.21
644.849	12.06
645.262	11.93
645.676	11.79
646.089	11.66
646.502	11.51
646.915	11.39
647.328	11.29
647.741	11.19
648.154	11.09
648.567	11.01
648.98	10.93
649.393	10.85
649.805	10.75
650.218	10.69
650.631	10.62
651.043	10.57
651.456	10.49
651.868	10.4
652.28	10.33
652.693	10.25
653.105	10.16
653.517	10.07
653.929	9.99
654.341	9.92
654.753	9.83
655.165	9.72
655.577	9.61
655.989	9.49
656.401	9.36
656.813	9.24
657.224	9.11
657.636	8.99
658.047	8.85
658.459	8.71
658.87	8.57
659.282	8.44
659.693	8.31
660.104	8.18
660.515	8.06
660.926	7.96
661.338	7.84
661.749	7.72
662.159	7.6
662.57	7.49
662.981	7.39
663.392	7.28
663.803	7.17
664.213	7.08
664.624	6.99
665.035	6.9
665.445	6.82
665.855	6.74
666.266	6.67
666.676	6.6
667.086	6.54
667.497	6.49
667.907	6.44
668.317	6.39
668.727	6.36
669.137	6.32
669.547	6.3
669.956	6.27
670.366	6.26
670.776	6.26
671.186	6.26
671.595	6.26
672.005	6.27
672.414	6.27
672.824	6.29
673.233	6.3
673.642	6.31
674.052	6.33
674.461	6.35
674.87	6.39
675.279	6.4
675.688	6.42
676.097	6.45
676.506	6.49
676.915	6.53
677.323	6.57
677.732	6.62
678.141	6.69
678.549	6.75
678.958	6.83
679.366	6.88
679.775	6.97
680.183	7.07
680.592	7.18
681	7.29
681.408	7.42
681.816	7.57
682.224	7.73
682.632	7.9
683.04	8.07
683.448	8.28
683.856	8.52
684.264	8.77
684.671	9.07
685.079	9.39
685.487	9.75
685.894	10.15
686.302	10.55
686.709	10.98
687.116	11.46
687.524	11.99
687.931	12.52
688.338	13.09
688.745	13.7
689.152	14.33
689.559	14.98
689.966	15.66
690.373	16.38
690.78	17.12
691.187	17.87
691.593	18.63
692	19.42
692.407	20.24
692.813	21.05
693.22	21.84
693.626	22.66
694.032	23.47
694.439	24.31
694.845	25.11
695.251	25.91
695.657	26.72
696.063	27.53
696.469	28.33
696.875	29.09
697.281	29.85
697.687	30.63
698.093	31.39
698.498	32.13
698.904	32.82
699.31	33.49
699.715	34.2
700.12	34.87
700.526	35.53
700.931	36.17
701.337	36.83
701.742	37.46
702.147	38.07
702.552	38.68
702.957	39.26
703.362	39.88
703.767	40.5
704.172	41.07
704.577	41.64
704.981	42.18
705.386	42.73
705.791	43.25
706.195	43.76
706.6	44.24
707.004	44.72
707.408	45.2
707.813	45.67
708.217	46.11
708.621	46.54
709.025	46.99
709.43	47.44
709.834	47.86
710.237	48.24
710.641	48.66
711.045	49.08
711.449	49.47
711.853	49.87
712.256	50.24
712.66	50.61
713.064	50.94
713.467	51.26
713.87	51.58
714.274	51.93
714.677	52.26
715.08	52.59
715.484	52.92
715.887	53.23
716.29	53.55
716.693	53.84
717.096	54.15
717.499	54.47
717.901	54.77
718.304	55.05
718.707	55.3
719.109	55.59
719.512	55.86
719.915	56.09
720.317	56.33
720.719	56.52
721.122	56.75
721.524	56.98
721.926	57.21
722.328	57.44
722.731	57.65
723.133	57.81
723.535	58.03
723.937	58.22
724.338	58.39
724.74	58.6
725.142	58.69
725.544	58.87
725.945	59.02
726.347	59.17
726.748	59.3
727.15	59.43
727.551	59.62
727.952	59.71
728.354	59.85
728.755	59.98
729.156	60.09
729.557	60.31
729.958	60.42
730.359	60.55
730.76	60.63
731.161	60.74
731.562	60.87
731.962	60.95
732.363	61.05
732.763	61.16
733.164	61.26
733.564	61.31
733.965	61.36
734.365	61.4
734.766	61.46
735.166	61.5
735.566	61.54
735.966	61.58
736.366	61.63
736.766	61.67
737.166	61.73
737.566	61.79
737.966	61.85
738.365	61.97
738.765	62.04
739.165	62.07
739.564	62.14
739.964	62.16
740.363	62.19
740.763	62.22
741.162	62.24
741.561	62.24
741.96	62.26
742.36	62.31
742.759	62.29
743.158	62.3
743.557	62.29
743.955	62.34
744.354	62.41
744.753	62.44
745.152	62.46
745.55	62.51
745.949	62.55
746.348	62.58
746.746	62.59
747.144	62.63
747.543	62.67
747.941	62.76
748.339	62.78
748.737	62.8
749.136	62.84
749.534	62.89
749.932	62.91
750.33	62.89
750.727	62.91
751.125	62.95
751.523	62.93
751.921	62.94
752.318	62.93
752.716	62.91
753.113	62.92
753.511	62.89
753.908	62.87
754.305	62.81
754.703	62.84
755.1	62.79
755.497	62.77
755.894	62.77
756.291	62.74
756.688	62.73
757.085	62.72
757.482	62.71
757.878	62.7
758.275	62.71
758.672	62.74
759.068	62.74
759.465	62.77
759.861	62.72
760.258	62.7
760.654	62.68
761.05	62.67
761.447	62.69
761.843	62.67
762.239	62.67
762.635	62.63
763.031	62.61
763.427	62.59
763.822	62.55
764.218	62.55
764.614	62.57
765.01	62.59
765.405	62.56
765.801	62.53
766.196	62.56
766.592	62.55
766.987	62.6
767.382	62.65
767.778	62.67
768.173	62.7
768.568	62.72
768.963	62.68
769.358	62.7
769.753	62.75
770.148	62.75
770.542	62.71
770.937	62.72
771.332	62.71
771.726	62.67
772.121	62.59
772.515	62.58
772.91	62.55
773.304	62.55
773.699	62.52
774.093	62.44
774.487	62.45
774.881	62.47
775.275	62.45
775.669	62.42
776.063	62.39
776.457	62.4
776.851	62.35
777.245	62.36
777.638	62.4
778.032	62.43
778.425	62.48
778.819	62.49
779.212	62.46
779.606	62.47
779.999	62.48
780.392	62.51
780.786	62.54
781.179	62.57
781.572	62.58
781.965	62.55
782.358	62.49
782.751	62.46
783.143	62.45
783.536	62.49
783.929	62.47
784.322	62.48
784.714	62.47
785.107	62.52
785.499	62.55
785.891	62.54
786.284	62.53
786.676	62.57
787.068	62.58
787.46	62.53
787.852	62.51
788.245	62.48
788.636	62.48
789.028	62.49
789.42	62.43
789.812	62.43
790.204	62.43
790.595	62.46
790.987	62.43
791.378	62.44
791.77	62.48
792.161	62.51
792.553	62.55
792.944	62.56
793.335	62.55
793.726	62.52
794.117	62.47
794.508	62.49
794.899	62.47
795.29	62.47
795.681	62.47
796.072	62.47
796.463	62.45
796.853	62.45
797.244	62.43
797.634	62.39
798.025	62.4
798.415	62.46
798.806	62.45
799.196	62.47
799.586	62.5
799.976	62.5
800.366	62.5
800.756	62.48
801.146	62.46
801.536	62.4
801.926	62.43
802.316	62.44
802.706	62.45
803.095	62.44
803.485	62.41
803.874	62.37
804.264	62.43
804.653	62.4
805.043	62.41
805.432	62.41
805.821	62.43
806.21	62.45
806.599	62.51
806.988	62.49
807.377	62.53
807.766	62.53
808.155	62.57
808.544	62.51
808.933	62.57
809.321	62.58
809.71	62.63
810.098	62.66
810.487	62.65
810.875	62.59
811.264	62.56
811.652	62.54
812.04	62.54
812.428	62.53
812.816	62.56
813.204	62.52
813.592	62.49
813.98	62.47
814.368	62.43
814.756	62.46
815.144	62.49
815.531	62.49
815.919	62.46
816.306	62.46
816.694	62.46
817.081	62.42
817.469	62.44
817.856	62.48
818.243	62.49
818.63	62.55
819.017	62.53
819.404	62.52
819.791	62.55
820.178	62.57
820.565	62.55
820.952	62.56
821.339	62.61
821.725	62.65
822.112	62.64
822.498	62.67
822.885	62.67
823.271	62.68
823.657	62.7
824.044	62.65
824.43	62.68
824.816	62.71
825.202	62.69
825.588	62.67
825.974	62.63
826.36	62.62
826.746	62.61
827.132	62.56
827.517	62.53
827.903	62.54
828.289	62.56
828.674	62.54
829.06	62.56
829.445	62.57
829.83	62.56
830.216	62.56
830.601	62.56
830.986	62.56
831.371	62.64
831.756	62.61
832.141	62.61
832.526	62.64
832.911	62.65
833.295	62.65
833.68	62.65
834.065	62.67
834.449	62.65
834.834	62.61
835.218	62.6
835.603	62.58
835.987	62.6
836.371	62.6
836.755	62.55
837.139	62.55
837.524	62.55
837.908	62.52
838.291	62.53
838.675	62.55
839.059	62.58
839.443	62.59
839.827	62.57
840.21	62.6
840.594	62.6
840.977	62.6
841.361	62.61
841.744	62.63
842.127	62.63
842.511	62.6
842.894	62.58
843.277	62.59
843.66	62.57
844.043	62.54
844.426	62.52
844.809	62.47
845.191	62.45
845.574	62.41
845.957	62.38
846.339	62.36
846.722	62.38
847.104	62.38
847.487	62.39
847.869	62.37
848.252	62.37
848.634	62.39
849.016	62.42
849.398	62.44
849.78	62.47
850.162	62.46
850.544	62.48
850.926	62.43
851.307	62.42
851.689	62.37
852.071	62.38
852.452	62.37
852.834	62.34
853.215	62.33
853.597	62.34
853.978	62.29
854.359	62.3
854.741	62.32
855.122	62.37
855.503	62.37
855.884	62.35
856.265	62.35
856.646	62.38
857.026	62.39
857.407	62.38
857.788	62.39
858.169	62.42
858.549	62.42
858.93	62.39
859.31	62.34
859.69	62.35
860.071	62.37
860.451	62.36
860.831	62.33
861.211	62.33
861.591	62.36
861.971	62.33
862.351	62.31
862.731	62.28
863.111	62.3
863.491	62.35
863.87	62.33
864.25	62.34
864.629	62.35
865.009	62.35
865.388	62.33
865.768	62.35
866.147	62.36
866.526	62.36
866.905	62.37
867.284	62.39
867.663	62.35
868.042	62.35
868.421	62.32
868.8	62.31
869.179	62.33
869.558	62.34
869.936	62.33
870.315	62.31
870.693	62.33
871.072	62.34
871.45	62.31
871.828	62.31
872.207	62.34
872.585	62.36
872.963	62.35
873.341	62.35
873.719	62.32
874.097	62.3
874.475	62.32
874.853	62.31
875.23	62.28
875.608	62.32
875.986	62.31
876.363	62.3
876.741	62.28
877.118	62.31
877.495	62.31
877.873	62.31
878.25	62.31
878.627	62.29
879.004	62.28
879.381	62.29
879.758	62.26
880.135	62.25
880.512	62.26
880.889	62.27
881.265	62.28
881.642	62.26
882.019	62.29
882.395	62.3
882.772	62.32
883.148	62.32
883.524	62.36
883.901	62.36
884.277	62.38
884.653	62.38
885.029	62.4
885.405	62.37
885.781	62.35
886.157	62.33
886.532	62.32
886.908	62.33
887.284	62.34
887.659	62.33
888.035	62.34
888.411	62.32
888.786	62.3
889.161	62.27
889.537	62.29
889.912	62.28
890.287	62.27
890.662	62.27
891.037	62.23
891.412	62.17
891.787	62.14
892.162	62.1
892.536	62.12
892.911	62.1
893.286	62.09
893.66	62.05
894.035	62.05
894.409	62.04
894.784	62.01
895.158	62.01
895.532	62.03
895.906	62.04
896.281	62.04
896.655	62.05
897.029	62.07
897.402	62.08
897.776	62.08
898.15	62.09
898.524	62.07
898.898	62.05
899.271	62.07
899.645	62.04
900.018	62.04
900.392	62.08
900.765	62.02
901.138	62
901.511	61.97
901.884	62.01
902.258	61.99
902.631	62.02
903.003	62.03
903.376	62.03
903.749	62.06
904.122	62.06
904.495	62.02
904.867	62.05
905.24	62.05
905.612	62.04
905.985	61.97
906.357	61.96
906.729	61.96
907.102	61.94
907.474	61.93
907.846	61.89
908.218	61.85
908.59	61.84
908.962	61.8
909.334	61.76
909.705	61.77
910.077	61.76
910.449	61.75
910.82	61.69
911.192	61.7
911.563	61.67
911.935	61.68
912.306	61.69
912.677	61.67
913.048	61.68
913.419	61.7
913.79	61.65
914.161	61.65
914.532	61.64
914.903	61.63
915.274	61.61
915.645	61.62
916.015	61.58
916.386	61.56
916.756	61.55
917.127	61.56
917.497	61.5
917.868	61.53
918.238	61.59
918.608	61.61
918.978	61.64
919.348	61.63
919.718	61.58
920.088	61.61
920.458	61.64
920.828	61.66
921.198	61.66
921.567	61.69
921.937	61.67
922.306	61.62
922.676	61.61
923.045	61.59
923.415	61.6
923.784	61.64
924.153	61.64
924.522	61.63
924.891	61.62
925.26	61.59
925.629	61.55
925.998	61.58
926.367	61.6
926.736	61.58
927.104	61.57
927.473	61.57
927.842	61.52
928.21	61.53
928.578	61.47
928.947	61.44
929.315	61.42
929.683	61.45
930.051	61.41
930.42	61.39
930.788	61.36
931.156	61.33
931.523	61.33
931.891	61.32
932.259	61.26
932.627	61.2
932.994	61.21
933.362	61.18
933.729	61.13
934.097	61.14
934.464	61.1
934.831	61.09
935.199	61.13
935.566	61.08
935.933	61.19
936.3	61.14
936.667	61.18
937.034	61.11
937.401	61.09
937.767	61.03
938.134	60.97
938.501	60.93
938.867	60.96
939.234	60.96
939.6	61
939.967	60.81
940.333	60.93
940.699	60.99
941.065	61.17
941.431	61.29
941.798	61.47
942.163	61.6
942.529	61.72
942.895	61.81
943.261	61.84
943.627	61.92
943.992	62.03
944.358	62.07
944.723	62.09
945.089	62.06
945.454	62.02
945.82	62
946.185	62.04
946.55	62.14
946.915	62.08
947.28	62.03
947.645	62.03
948.01	62.02
948.375	61.97
948.74	61.97
949.104	61.94
949.469	61.93
949.834	61.97
950.198	61.85
950.562	61.73
950.927	61.64
951.291	61.66
951.655	61.58
952.02	61.55
952.384	61.52
952.748	61.47
953.112	61.4
953.476	61.34
953.839	61.19
954.203	61.15
954.567	61.12
954.931	61.14
955.294	61.06
955.658	61.01
956.021	60.95
956.385	60.89
956.748	60.89
957.111	60.83
957.474	60.86
957.837	60.92
958.2	60.85
958.563	60.86
958.926	60.88
959.289	60.98
959.652	61
960.015	61.02
960.377	61.06
960.74	60.94
961.102	61.04
961.465	61.04
961.827	60.9
962.189	60.91
962.552	60.79
962.914	60.71
963.276	60.62
963.638	60.55
964	60.49
964.362	60.46
964.724	60.5
965.085	60.45
965.447	60.33
965.809	60.33
966.17	60.36
966.532	60.47
966.893	60.5
967.255	60.45
967.616	60.5
967.977	60.53
968.338	60.53
968.699	60.5
969.061	60.44
969.421	60.45
969.782	60.44
970.143	60.44
970.504	60.31
970.865	60.23
971.225	60.23
971.586	60.23
971.946	60.23
972.307	60.13
972.667	60.17
973.027	60.23
973.388	60.21
973.748	60.25
974.108	60.22
974.468	60.31
974.828	60.37
975.188	60.43
975.548	60.44
975.907	60.44
976.267	60.53
976.627	60.58
976.986	60.59
977.346	60.56
977.705	60.56
978.064	60.61
978.424	60.58
978.783	60.65
979.142	60.6
979.501	60.51
979.86	60.5
980.219	60.45
980.578	60.4
980.937	60.41
981.296	60.53
981.654	60.69
982.013	60.75
982.371	60.75
982.73	60.73
983.088	60.72
983.447	60.78
983.805	60.73
984.163	60.77
984.521	60.65
984.879	60.61
985.237	60.58
985.595	60.48
985.953	60.35
986.311	60.46
986.669	60.38
987.026	60.36
987.384	60.38
987.741	60.52
988.099	60.6
988.456	60.78
988.814	60.83
989.171	60.88
989.528	60.88
989.885	60.93
990.242	60.9
990.599	61.03
990.956	61.12
991.313	61.13
991.67	61.12
992.027	60.94
992.383	60.91
992.74	60.79
993.096	60.76
993.453	60.79
993.809	60.83
994.165	60.86
994.522	60.82
994.878	60.71
995.234	60.62
995.59	60.48
995.946	60.65
996.302	60.53
996.658	60.77
997.013	60.84
997.369	60.88
997.725	60.94
998.08	60.75
998.436	60.84
998.791	60.95
999.147	61.03
999.502	61.16
999.857	61.19
1000.212	61.37
1000.567	61.38
1000.922	61.29
1001.277	61.22
1001.632	61.32
1001.987	61.3
1002.342	61.24
1002.696	61.26
1003.051	61.16
1003.406	61.09
1003.76	61.11
1004.114	61.16
1004.469	61.05
1004.823	61.27
1005.177	61.36
1005.531	61.16
1005.885	61.33
1006.239	61.36
1006.593	61.43
1006.947	61.61
1007.301	61.74
1007.655	61.77
1008.008	61.67
1008.362	61.78
1008.715	61.53
1009.069	61.46
1009.422	61.38
1009.776	61.48
1010.129	61.44
1010.482	61.44
1010.835	61.61
1011.188	61.59
1011.541	61.36
1011.894	61.54
1012.247	61.47
1012.6	61.6
1012.952	61.67
1013.305	61.85
1013.657	61.84
1014.01	62.09
1014.362	62.07
1014.715	62
1015.067	62.07
1015.419	62.51
1015.771	62.72
1016.123	62.88
1016.475	62.83
1016.827	63.03
1017.179	63.02
1017.531	62.97
1017.883	62.83
1018.234	62.94
1018.586	62.81
1018.938	62.76
1019.289	62.39
1019.64	62.17
1019.992	62.12
1020.343	62.07
1020.694	61.93
1021.045	62.09
1021.396	62.31
1021.747	62.27
1022.098	62.14
1022.449	62.07
1022.8	61.96
1023.151	62
1023.501	61.66
1023.852	61.68
1024.202	61.73
1024.553	61.61
1024.903	61.54
1025.253	61.54
1025.604	61.69
1025.954	61.51
1026.304	61.95
1026.654	62.36
1027.004	62.79
1027.354	62.97
1027.703	62.96
1028.053	63.05
1028.403	63.07
1028.753	63.14
1029.102	63.1
1029.452	63.21
1029.801	63.64
1030.15	63.54
1030.499	63.27
897.758	189.74
901.051	204.15
904.343	205.06
907.636	203.98
910.928	201.48
914.22	205.45
917.511	198.22
920.803	193.45
924.094	190.22
927.384	194.55
930.675	191.33
933.965	190.6
937.255	184.32
940.544	177.91
943.834	170.11
947.123	169.85
950.411	161.26
953.7	163.01
956.988	156.9
960.276	152.69
963.563	151.4
966.851	144.06
970.138	143.11
973.424	136.73
976.711	136.51
979.997	133.17
983.283	128.64
986.568	126.21
989.853	124.5
993.138	123.09
996.423	118.76
999.708	115.83
1002.992	116.74
1006.275	116.98
1009.559	117.71
1012.842	114.52
1016.125	112.19
1019.408	111.61
1022.69	112.41
1025.972	112.1
1029.254	110.08
1032.536	109.5
1035.817	108.73
1039.098	106.94
1042.379	105.49
1045.659	103.92
1048.939	103.67
1052.219	104.02
1055.498	102.6
1058.778	100.84
1062.057	99.81
1065.335	100.33
1068.614	97.83
1071.892	96.93
1075.17	96.67
1078.447	94.96
1081.724	94.76
1085.001	93.54
1088.278	92.69
1091.554	92.46
1094.83	93.09
1098.106	91.32
1101.382	91.69
1104.657	92.25
1107.932	91.04
1111.206	91.6
1114.481	91.32
1117.755	90.35
1121.029	90.11
1124.302	88.92
1127.575	89.17
1130.848	87.91
1134.121	87.45
1137.393	86.07
1140.665	85.94
1143.937	85.68
1147.208	84.19
1150.48	83.71
1153.75	83.03
1157.021	84.07
1160.291	84.58
1163.561	83.21
1166.831	83.21
1170.101	83.19
1173.37	83.53
1176.639	83.1
1179.907	83.05
1183.176	83.06
1186.444	82.61
1189.711	82.59
1192.979	82.05
1196.246	82.46
1199.513	81.99
1202.78	82.29
1206.046	82.32
1209.312	82.32
1212.578	82.29
1215.843	84.02
1219.108	83.15
1222.373	84.05
1225.638	85.17
1228.902	85.59
1232.166	86.06
1235.43	86.4
1238.693	87.64
1241.956	88.21
1245.219	88.91
1248.482	90.52
1251.744	89.08
1255.006	91.21
1258.268	89.12
1261.529	88.6
1264.79	88.46
1268.051	87.63
1271.312	88.63
1274.572	87.31
1277.832	86.69
1281.092	86.22
1284.351	85.1
1287.61	84.95
1290.869	84.18
1294.128	84.57
1297.386	84.94
1300.644	84.41
1303.902	83.64
1307.159	83.13
1310.416	82.89
1313.673	83.43
1316.93	83.21
1320.186	83.33
1323.442	83.63
1326.697	83.66
1329.953	83.97
1333.208	83.36
1336.463	84.18
1339.717	85.46
1342.972	88.01
1346.226	90
1349.479	89.93
1352.733	92.03
1355.986	93.38
1359.238	93.84
1362.491	94.28
1365.743	95.57
1368.995	98.22
1372.247	95.33
1375.498	93.88
1378.749	93.46
1382	92.64
1385.251	90.74
1388.501	89.8
1391.751	89.45
1395	89.26
1398.25	88.57
1401.499	87.05
1404.748	83.66
1407.996	84.24
1411.244	85.56
1414.492	83.89
1417.74	79.02
1420.987	77.65
1424.234	76.62
1427.481	72.47
1430.728	70.82
1433.974	68.53
1437.22	67.37
1440.465	66.22
1443.711	64.14
1446.956	61.7
1450.201	60.24
1453.445	59.05
1456.689	58.91
1459.933	56.71
1463.177	55.52
1466.42	54.57
1469.663	53.87
1472.906	52.29
1476.148	51.91
1479.391	51.73
1482.633	51.18
1485.874	51.44
1489.115	51.58
1492.356	49.97
1495.597	50.58
1498.838	51.42
1502.078	51.41
1505.318	51.65
1508.557	51.74
1511.797	51.56
1515.036	52.46
1518.274	53.29
1521.513	53.21
1524.751	53.03
1527.989	54.97
1531.227	54.57
1534.464	54.94
1537.701	54.91
1540.938	54.96
1544.174	55.12
1547.41	55.39
1550.646	55.37
1553.882	55.27
1557.117	55.73
1560.352	56.38
1563.587	55.9
1566.821	56.24
1570.055	56.41
1573.289	56.65
1576.523	57.37
1579.756	57.69
1582.989	58.14
1586.222	58.08
1589.454	58.58
1592.686	58.06
1595.918	58
1599.15	58.27
1602.381	58.61
1605.612	59.06
1608.843	58.86
1612.073	58.63
1615.303	59.22
1618.533	59
1621.762	58.9
1624.992	58.96
1628.221	59.17
1631.449	59.49
1634.678	60.05
1637.906	60
1641.134	59.63
1644.361	60.2
1647.588	60.03
1650.815	60
1654.042	60.46
1657.269	60.77
1660.495	60.95
1663.72	61.07
1666.946	60.73
1670.171	60.69
1673.396	60.69
1676.621	61.26
1679.845	61.84
1683.069	61.69
1686.293	61.14
1689.517	61.32
1692.74	61.12
1695.963	61
1699.185	60.99
1702.408	61.02
1705.63	60.91
1708.852	61.05
1712.073	60.27
1715.294	59.43
1718.515	60.28
1721.736	60.38
1724.956	59.65
1728.176	59.61
1731.396	59.49
1734.616	59.84
1737.835	59.62
1741.054	59.09
1744.272	59.06
1747.491	59.3
1750.709	59.38
1753.927	58.53
1757.144	58.97
1760.361	58.84
1763.578	58.46
1766.795	58.7
1770.011	58.83
1773.227	59.02
1776.443	59.09
1779.658	58.67
1782.874	58.49
1786.089	58.04
1789.303	58.09
1792.518	58.97
1795.732	59.3
1798.945	60.24
1802.159	59.61
1805.372	59.31
1808.585	59.52
1811.797	60.05
1815.01	60.14
1818.222	60.63
1821.434	61.31
1824.645	61.13
1827.856	60.46
1831.067	59.93
1834.278	60.43
1837.488	60.97
1840.698	60.5
1843.908	60.32
1847.117	60.19
1850.326	59.79
1853.535	60.16
1856.744	59.48
1859.952	59.87
1863.16	58.9
1866.368	58.14
1869.575	56.45
1872.782	55.29
1875.989	53.33
1879.196	53.59
1882.402	50.87
1885.608	50.71
1888.814	48.22
1892.019	45.83
1895.224	44.22
1898.429	43.94
1901.634	43.23
1904.838	43.17
1908.042	41.9
1911.246	42.2
1914.449	40.38
1917.652	41.84
1920.855	41.91
1924.058	41.24
1927.26	41.81
1930.462	41.47
1933.664	41.68
1936.865	41.51
1940.066	40.28
1943.267	39.8
1946.467	40.79
1949.668	40.45
1952.868	40.21
1956.067	39.64
1959.267	42.42
1962.466	42.35
1965.665	42.85
1968.863	42.46
1972.061	42.96
1975.259	44.19
1978.457	45.24
1981.654	45.13
1984.852	45.89
1988.048	46.56
1991.245	48.03
1994.441	46.95
1997.637	48.83
2000.833	50.5
2004.028	51.05
2007.223	52.68
2010.418	54.66
2013.613	58.64
2016.807	60.49
2020.001	60.64
2023.194	63.46
2026.388	64.41
2029.581	68.4
2032.774	68.8
2035.966	70.94
2039.158	74.34
2042.35	74.95
2045.542	76.16
2048.733	76.33
2051.924	77.18
2055.115	79.26
2058.306	78.08
2061.496	78.56
2064.686	79.41
2067.875	81.42
2071.065	83.17
2074.254	81.31
2077.442	85.29
2080.631	85.72
2083.819	86.97
2087.007	87.31
2090.195	90.03
2093.382	89.19
2096.569	90.92
2099.756	91.88
2102.942	92.9
2106.128	91.86
2109.314	95.85
2112.5	94.55
2115.685	92.73
2118.87	92.48
2122.055	95.57
2125.239	94.99
2128.424	101.07
2131.608	100.5
2134.791	99.59
2137.974	100.54
2141.157	102.88
2144.34	102.53
2147.523	104.93
2150.705	107.85
2153.887	109.29
2157.068	110.73
2160.25	110
2163.431	108.05
2166.611	108.95
2169.792	112.39
2172.972	113
2176.152	114.5
2179.331	114.93
2182.511	113.67
2185.69	114.97
2188.868	113.04
2192.047	115.96
2195.225	120.31
2198.403	121.38
2201.58	120.03
2204.758	122.83
2207.935	122.43
2211.111	119.93
2214.288	123
2217.464	125.58
2220.64	126.36
2223.815	127.46
2226.991	128.59
2230.166	128.45
2233.34	130.85
2236.515	134.25
2239.689	130.69
2242.863	135.96
2246.036	136.25
2249.209	135.05
2252.382	138.31
2255.555	142.41
2258.727	145.48
2261.9	144.47
2265.071	147.17
2268.243	147.18
2271.414	149.48
2274.585	151.96
2277.756	149.96
2280.926	149.21
2284.096	157.52
2287.266	153.67
2290.436	152.48
2293.605	155.86
2296.774	164.86
2299.942	160.32
2303.111	166.74
2306.279	173.58
2309.447	173.58
2312.614	172.19
2315.781	179.53
2318.948	180.18
2322.115	183.06
2325.281	188.44
2328.447	189.07
2331.613	182.83
2334.779	190.93
2337.944	188.6
2341.109	188.71
2344.274	194.26
2347.438	201.14
2350.602	208.23
2353.766	209.47
2356.929	211.58
2360.092	217.13
2363.255	213.74
2366.418	220.2
2369.58	217.6
2372.742	230.92
2375.904	230.14
2379.066	233.43
2382.227	247.22
2385.388	241.15
2388.548	243.78
2391.709	238.39
2394.869	239.38
2398.029	245.26
2401.188	247.2
2404.347	260.8
2407.506	254.49
2410.665	248.38
2413.823	249.36
2416.981	250.17
2420.139	242.56
2423.296	253.45
2426.453	270.33
2429.61	268.21
2432.767	281.51
2435.923	291.41
2439.079	278.06
2442.235	286.95
2445.391	291.57
2448.546	289.86
2451.701	295.77
2454.855	315.38
2458.009	285.21
2461.163	286.16
2464.317	287.9
2467.471	283.6
2470.624	288.66
2473.777	289.62
2476.929	283.74
2480.082	294.67
2483.234	308.74
2486.385	316.53
2489.537	324.12
2492.688	350.29
2495.839	347.37
2498.989	352.82
2502.14	354.37
2505.29	340.83
2508.439	375.67
2511.589	382.08
2514.738	373.5
2517.887	369.16
2521.035	343.99
2524.183	343.84
2527.331	340.23
2530.479	333.36
2533.627	340.44
