Data from c_1_dec_on_6n_019_Splice17_26.txt Node
Date: Sat Feb 29 13:17:48 EST 2020
User: sa697716
Spectrometer: FLMS03696
Trigger mode: 0
Integration Time (sec): 3.180400E-1
Scans to average: 20
Electric dark correction enabled: true
Nonlinearity correction enabled: true
Boxcar width: 5
XAxis mode: Wavelengths
Number of Pixels in Spectrum: 2048
>>>>>Begin Spectral Data<<<<<
187.83	64.4
188.298	56.55
188.766	60.19
189.233	66.57
189.701	74.11
190.169	83.71
190.636	93.74
191.104	94.67
191.571	275.65
192.039	308.35
192.506	86.14
192.974	7988.1
193.441	-872.5
193.908	154.41
194.375	248.35
194.842	211.18
195.31	121.97
195.777	120.11
196.244	38.19
196.711	36.03
197.177	34.6
197.644	33.36
198.111	31.81
198.578	31.88
199.045	32.2
199.511	32.99
199.978	34.14
200.445	33.84
200.911	33.64
201.378	33.84
201.844	33.65
202.31	34.31
202.777	34.18
203.243	34.73
203.709	34.38
204.176	34.35
204.642	34.43
205.108	34.04
205.574	34.83
206.04	34.67
206.506	34.41
206.972	34.26
207.438	33.58
207.903	34.05
208.369	33.82
208.835	33.82
209.301	33.92
209.766	33.71
210.232	33.65
210.697	33.3
211.163	33.6
211.628	33.22
212.094	33.12
212.559	32.81
213.024	32.4
213.49	32.16
213.955	32.04
214.42	31.6
214.885	30.92
215.35	30.21
215.815	29.48
216.28	28.92
216.745	28.68
217.21	28.07
217.675	27.68
218.14	27.07
218.604	26.41
219.069	25.97
219.534	25.47
219.998	25.11
220.463	24.87
220.927	24.56
221.392	24.2
221.856	23.84
222.32	23.54
222.785	23.21
223.249	22.93
223.713	22.69
224.177	22.36
224.642	22.16
225.106	21.89
225.57	21.63
226.034	21.37
226.497	21.08
226.961	20.82
227.425	20.52
227.889	20.25
228.353	19.98
228.816	19.75
229.28	19.52
229.744	19.27
230.207	19.03
230.671	18.78
231.134	18.57
231.597	18.38
232.061	18.15
232.524	17.98
232.987	17.76
233.45	17.54
233.914	17.33
234.377	17.15
234.84	16.98
235.303	16.79
235.766	16.61
236.229	16.43
236.691	16.25
237.154	16.1
237.617	15.92
238.08	15.8
238.542	15.65
239.005	15.5
239.468	15.32
239.93	15.16
240.393	15.03
240.855	14.88
241.317	14.76
241.78	14.64
242.242	14.51
242.704	14.39
243.166	14.24
243.629	14.14
244.091	14.02
244.553	13.92
245.015	13.83
245.477	13.72
245.939	13.62
246.4	13.5
246.862	13.4
247.324	13.3
247.786	13.22
248.247	13.13
248.709	13.04
249.17	12.96
249.632	12.86
250.093	12.75
250.555	12.66
251.016	12.6
251.477	12.51
251.939	12.43
252.4	12.35
252.861	12.28
253.322	12.21
253.783	12.14
254.244	12.07
254.705	12
255.166	11.95
255.627	11.89
256.088	11.81
256.549	11.76
257.009	11.71
257.47	11.65
257.931	11.58
258.391	11.51
258.852	11.44
259.312	11.38
259.773	11.33
260.233	11.26
260.694	11.2
261.154	11.14
261.614	11.08
262.074	11.03
262.534	10.97
262.994	10.92
263.455	10.87
263.915	10.83
264.374	10.78
264.834	10.74
265.294	10.69
265.754	10.64
266.214	10.6
266.673	10.55
267.133	10.5
267.593	10.46
268.052	10.41
268.512	10.38
268.971	10.34
269.431	10.29
269.89	10.25
270.349	10.23
270.809	10.2
271.268	10.17
271.727	10.13
272.186	10.1
272.645	10.06
273.104	10.03
273.563	9.99
274.022	9.96
274.481	9.93
274.94	9.89
275.399	9.84
275.857	9.8
276.316	9.75
276.775	9.71
277.233	9.67
277.692	9.63
278.15	9.59
278.609	9.54
279.067	9.5
279.525	9.45
279.984	9.41
280.442	9.38
280.9	9.34
281.358	9.31
281.816	9.28
282.274	9.24
282.732	9.21
283.19	9.19
283.648	9.16
284.106	9.13
284.564	9.11
285.021	9.07
285.479	9.05
285.937	9.02
286.394	8.98
286.852	8.95
287.309	8.93
287.767	8.91
288.224	8.87
288.682	8.85
289.139	8.84
289.596	8.8
290.053	8.78
290.511	8.74
290.968	8.73
291.425	8.71
291.882	8.69
292.339	8.65
292.796	8.62
293.252	8.59
293.709	8.56
294.166	8.54
294.623	8.52
295.079	8.49
295.536	8.47
295.992	8.44
296.449	8.42
296.905	8.39
297.362	8.37
297.818	8.36
298.274	8.33
298.731	8.32
299.187	8.31
299.643	8.29
300.099	8.28
300.555	8.26
301.011	8.25
301.467	8.23
301.923	8.22
302.379	8.2
302.835	8.19
303.291	8.17
303.746	8.15
304.202	8.12
304.658	8.1
305.113	8.08
305.569	8.07
306.024	8.05
306.479	8.04
306.935	8.03
307.39	8.01
307.845	8
308.301	7.99
308.756	7.99
309.211	7.99
309.666	7.99
310.121	7.97
310.576	7.97
311.031	7.97
311.486	7.96
311.94	7.95
312.395	7.95
312.85	7.94
313.305	7.93
313.759	7.92
314.214	7.9
314.668	7.9
315.123	7.9
315.577	7.88
316.032	7.87
316.486	7.86
316.94	7.84
317.394	7.83
317.849	7.82
318.303	7.82
318.757	7.81
319.211	7.8
319.665	7.78
320.119	7.78
320.572	7.78
321.026	7.77
321.48	7.76
321.934	7.76
322.387	7.74
322.841	7.73
323.295	7.7
323.748	7.69
324.202	7.67
324.655	7.66
325.108	7.63
325.562	7.6
326.015	7.59
326.468	7.57
326.921	7.54
327.374	7.53
327.827	7.52
328.28	7.5
328.733	7.49
329.186	7.48
329.639	7.47
330.092	7.46
330.545	7.45
330.997	7.43
331.45	7.42
331.903	7.41
332.355	7.42
332.808	7.41
333.26	7.42
333.713	7.41
334.165	7.41
334.617	7.41
335.069	7.4
335.522	7.4
335.974	7.41
336.426	7.4
336.878	7.4
337.33	7.38
337.782	7.36
338.234	7.36
338.686	7.35
339.137	7.35
339.589	7.34
340.041	7.33
340.493	7.31
340.944	7.3
341.396	7.3
341.847	7.29
342.299	7.28
342.75	7.26
343.201	7.25
343.653	7.22
344.104	7.2
344.555	7.18
345.006	7.17
345.457	7.15
345.908	7.13
346.359	7.11
346.81	7.1
347.261	7.09
347.712	7.08
348.163	7.07
348.613	7.06
349.064	7.03
349.515	7.02
349.965	7.01
350.416	7.01
350.866	7.01
351.317	6.99
351.767	6.98
352.217	6.97
352.668	6.97
353.118	6.96
353.568	6.96
354.018	6.97
354.468	6.97
354.918	6.97
355.368	6.95
355.818	6.93
356.268	6.92
356.718	6.92
357.168	6.9
357.617	6.89
358.067	6.89
358.517	6.88
358.966	6.88
359.416	6.88
359.865	6.86
360.315	6.87
360.764	6.87
361.213	6.87
361.663	6.87
362.112	6.88
362.561	6.88
363.01	6.88
363.459	6.87
363.908	6.87
364.357	6.86
364.806	6.85
365.255	6.84
365.703	6.83
366.152	6.83
366.601	6.84
367.05	6.83
367.498	6.83
367.947	6.83
368.395	6.83
368.844	6.82
369.292	6.83
369.74	6.84
370.189	6.83
370.637	6.83
371.085	6.84
371.533	6.83
371.981	6.83
372.429	6.82
372.877	6.81
373.325	6.8
373.773	6.8
374.221	6.8
374.669	6.8
375.116	6.8
375.564	6.81
376.012	6.8
376.459	6.81
376.907	6.82
377.354	6.82
377.801	6.83
378.249	6.83
378.696	6.84
379.143	6.84
379.591	6.85
380.038	6.85
380.485	6.86
380.932	6.87
381.379	6.87
381.826	6.87
382.273	6.89
382.72	6.89
383.166	6.91
383.613	6.93
384.06	6.94
384.506	6.95
384.953	6.96
385.4	6.96
385.846	6.96
386.292	6.98
386.739	6.98
387.185	6.99
387.631	7
388.078	7.01
388.524	7.01
388.97	7.02
389.416	7.02
389.862	7.03
390.308	7.04
390.754	7.06
391.2	7.07
391.645	7.08
392.091	7.09
392.537	7.09
392.983	7.1
393.428	7.12
393.874	7.15
394.319	7.16
394.765	7.16
395.21	7.17
395.655	7.18
396.101	7.18
396.546	7.19
396.991	7.19
397.436	7.18
397.881	7.2
398.326	7.23
398.771	7.24
399.216	7.26
399.661	7.28
400.106	7.32
400.551	7.33
400.995	7.34
401.44	7.35
401.885	7.36
402.329	7.37
402.774	7.35
403.218	7.34
403.663	7.35
404.107	7.36
404.551	7.36
404.995	7.36
405.44	7.36
405.884	7.38
406.328	7.38
406.772	7.39
407.216	7.4
407.66	7.43
408.104	7.44
408.547	7.43
408.991	7.42
409.435	7.42
409.879	7.42
410.322	7.42
410.766	7.41
411.209	7.43
411.653	7.42
412.096	7.4
412.54	7.39
412.983	7.38
413.426	7.39
413.869	7.4
414.312	7.41
414.756	7.41
415.199	7.42
415.642	7.45
416.085	7.46
416.527	7.48
416.97	7.52
417.413	7.52
417.856	7.51
418.298	7.51
418.741	7.51
419.184	7.52
419.626	7.5
420.069	7.51
420.511	7.49
420.953	7.49
421.396	7.48
421.838	7.48
422.28	7.5
422.722	7.52
423.164	7.53
423.606	7.52
424.048	7.51
424.49	7.53
424.932	7.52
425.374	7.53
425.816	7.51
426.258	7.49
426.699	7.46
427.141	7.44
427.582	7.43
428.024	7.43
428.465	7.45
428.907	7.47
429.348	7.46
429.789	7.47
430.231	7.44
430.672	7.46
431.113	7.46
431.554	7.49
431.995	7.49
432.436	7.49
432.877	7.46
433.318	7.45
433.759	7.45
434.2	7.45
434.64	7.45
435.081	7.45
435.522	7.45
435.962	7.47
436.403	7.49
436.843	7.49
437.284	7.52
437.724	7.56
438.164	7.56
438.604	7.58
439.045	7.59
439.485	7.59
439.925	7.59
440.365	7.6
440.805	7.59
441.245	7.55
441.685	7.57
442.125	7.57
442.564	7.58
443.004	7.57
443.444	7.56
443.883	7.56
444.323	7.55
444.762	7.57
445.202	7.59
445.641	7.6
446.081	7.65
446.52	7.66
446.959	7.65
447.398	7.65
447.837	7.68
448.276	7.67
448.716	7.69
449.154	7.74
449.593	7.76
450.032	7.79
450.471	7.8
450.91	7.79
451.349	7.79
451.787	7.82
452.226	7.81
452.664	7.8
453.103	7.82
453.541	7.83
453.98	7.81
454.418	7.79
454.856	7.76
455.295	7.75
455.733	7.76
456.171	7.75
456.609	7.73
457.047	7.74
457.485	7.73
457.923	7.72
458.361	7.7
458.798	7.71
459.236	7.71
459.674	7.7
460.111	7.69
460.549	7.68
460.987	7.69
461.424	7.69
461.862	7.67
462.299	7.67
462.736	7.67
463.173	7.67
463.611	7.65
464.048	7.66
464.485	7.66
464.922	7.66
465.359	7.67
465.796	7.64
466.233	7.65
466.67	7.66
467.106	7.64
467.543	7.65
467.98	7.65
468.416	7.68
468.853	7.67
469.29	7.69
469.726	7.68
470.162	7.69
470.599	7.7
471.035	7.7
471.471	7.69
471.907	7.71
472.344	7.72
472.78	7.74
473.216	7.71
473.652	7.72
474.088	7.72
474.523	7.71
474.959	7.7
475.395	7.71
475.831	7.71
476.266	7.72
476.702	7.71
477.138	7.69
477.573	7.66
478.008	7.65
478.444	7.64
478.879	7.62
479.314	7.63
479.75	7.62
480.185	7.61
480.62	7.6
481.055	7.59
481.49	7.58
481.925	7.57
482.36	7.56
482.795	7.56
483.229	7.56
483.664	7.56
484.099	7.55
484.534	7.55
484.968	7.55
485.403	7.56
485.837	7.56
486.271	7.56
486.706	7.57
487.14	7.58
487.574	7.58
488.009	7.61
488.443	7.62
488.877	7.63
489.311	7.65
489.745	7.66
490.179	7.68
490.613	7.7
491.046	7.73
491.48	7.76
491.914	7.79
492.348	7.82
492.781	7.84
493.215	7.87
493.648	7.91
494.082	7.95
494.515	7.98
494.948	8.01
495.382	8.06
495.815	8.12
496.248	8.15
496.681	8.2
497.114	8.25
497.547	8.31
497.98	8.38
498.413	8.44
498.846	8.5
499.279	8.56
499.711	8.64
500.144	8.72
500.577	8.78
501.009	8.86
501.442	8.95
501.874	9.04
502.306	9.14
502.739	9.22
503.171	9.33
503.603	9.46
504.036	9.58
504.468	9.71
504.9	9.84
505.332	9.99
505.764	10.15
506.196	10.32
506.627	10.48
507.059	10.64
507.491	10.84
507.923	11.02
508.354	11.2
508.786	11.4
509.217	11.6
509.649	11.8
510.08	12.01
510.512	12.22
510.943	12.44
511.374	12.66
511.805	12.89
512.237	13.12
512.668	13.36
513.099	13.6
513.53	13.85
513.961	14.11
514.391	14.35
514.822	14.61
515.253	14.88
515.684	15.14
516.114	15.42
516.545	15.7
516.975	15.99
517.406	16.29
517.836	16.57
518.267	16.87
518.697	17.17
519.127	17.49
519.558	17.78
519.988	18.09
520.418	18.38
520.848	18.68
521.278	18.96
521.708	19.2
522.138	19.46
522.567	19.72
522.997	19.96
523.427	20.19
523.857	20.43
524.286	20.68
524.716	20.91
525.145	21.14
525.575	21.33
526.004	21.53
526.433	21.77
526.863	21.98
527.292	22.17
527.721	22.36
528.15	22.53
528.579	22.7
529.008	22.85
529.437	23
529.866	23.15
530.295	23.31
530.724	23.46
531.152	23.6
531.581	23.69
532.01	23.81
532.438	23.93
532.867	24.05
533.295	24.15
533.723	24.25
534.152	24.33
534.58	24.4
535.008	24.45
535.436	24.52
535.865	24.57
536.293	24.65
536.721	24.71
537.149	24.76
537.576	24.8
538.004	24.84
538.432	24.86
538.86	24.89
539.287	24.94
539.715	24.97
540.143	25
540.57	25.03
540.998	25.06
541.425	25.09
541.852	25.1
542.28	25.13
542.707	25.17
543.134	25.2
543.561	25.21
543.988	25.22
544.415	25.25
544.842	25.27
545.269	25.33
545.696	25.33
546.123	25.34
546.549	25.37
546.976	25.38
547.403	25.37
547.829	25.4
548.256	25.44
548.682	25.45
549.108	25.47
549.535	25.48
549.961	25.47
550.387	25.48
550.813	25.48
551.24	25.49
551.666	25.48
552.092	25.49
552.518	25.47
552.943	25.44
553.369	25.43
553.795	25.39
554.221	25.36
554.646	25.32
555.072	25.28
555.498	25.23
555.923	25.17
556.349	25.1
556.774	25.02
557.199	24.95
557.625	24.86
558.05	24.78
558.475	24.71
558.9	24.61
559.325	24.51
559.75	24.4
560.175	24.29
560.6	24.18
561.025	24.06
561.449	23.94
561.874	23.82
562.299	23.71
562.723	23.58
563.148	23.47
563.572	23.34
563.997	23.21
564.421	23.07
564.846	22.93
565.27	22.79
565.694	22.66
566.118	22.51
566.542	22.35
566.966	22.19
567.39	22.01
567.814	21.83
568.238	21.65
568.662	21.5
569.086	21.34
569.509	21.18
569.933	21.03
570.357	20.85
570.78	20.68
571.204	20.51
571.627	20.36
572.05	20.22
572.474	20.07
572.897	19.92
573.32	19.76
573.743	19.61
574.166	19.45
574.589	19.32
575.012	19.2
575.435	19.09
575.858	18.97
576.281	18.86
576.704	18.76
577.126	18.65
577.549	18.56
577.972	18.46
578.394	18.36
578.817	18.25
579.239	18.16
579.661	18.07
580.084	17.95
580.506	17.86
580.928	17.77
581.35	17.66
581.772	17.58
582.194	17.47
582.616	17.39
583.038	17.32
583.46	17.26
583.882	17.18
584.303	17.09
584.725	17.04
585.147	16.95
585.568	16.87
585.99	16.81
586.411	16.74
586.833	16.67
587.254	16.6
587.675	16.54
588.096	16.48
588.518	16.42
588.939	16.36
589.36	16.32
589.781	16.28
590.202	16.24
590.623	16.19
591.043	16.15
591.464	16.11
591.885	16.09
592.305	16.06
592.726	16.02
593.147	15.99
593.567	15.96
593.987	15.92
594.408	15.89
594.828	15.86
595.248	15.84
595.669	15.81
596.089	15.78
596.509	15.72
596.929	15.68
597.349	15.63
597.769	15.59
598.189	15.55
598.608	15.51
599.028	15.48
599.448	15.44
599.867	15.4
600.287	15.36
600.706	15.31
601.126	15.26
601.545	15.21
601.965	15.18
602.384	15.13
602.803	15.08
603.222	15.02
603.641	14.96
604.061	14.89
604.48	14.83
604.898	14.77
605.317	14.71
605.736	14.66
606.155	14.58
606.574	14.52
606.992	14.45
607.411	14.38
607.829	14.28
608.248	14.21
608.666	14.14
609.085	14.05
609.503	13.97
609.921	13.89
610.339	13.82
610.758	13.74
611.176	13.66
611.594	13.59
612.012	13.51
612.43	13.48
612.847	13.4
613.265	13.34
613.683	13.27
614.101	13.21
614.518	13.14
614.936	13.05
615.353	12.99
615.771	12.93
616.188	12.89
616.606	12.83
617.023	12.77
617.44	12.71
617.857	12.66
618.274	12.62
618.691	12.55
619.108	12.52
619.525	12.5
619.942	12.47
620.359	12.42
620.776	12.38
621.192	12.34
621.609	12.32
622.026	12.3
622.442	12.27
622.859	12.25
623.275	12.25
623.691	12.23
624.108	12.22
624.524	12.21
624.94	12.2
625.356	12.2
625.772	12.19
626.188	12.19
626.604	12.16
627.02	12.15
627.436	12.14
627.852	12.12
628.268	12.11
628.683	12.07
629.099	12.05
629.514	12.03
629.93	11.99
630.345	11.97
630.761	11.93
631.176	11.89
631.591	11.85
632.007	11.81
632.422	11.76
632.837	11.72
633.252	11.68
633.667	11.61
634.082	11.56
634.497	11.49
634.911	11.41
635.326	11.34
635.741	11.27
636.155	11.18
636.57	11.1
636.984	11.02
637.399	10.91
637.813	10.81
638.228	10.72
638.642	10.62
639.056	10.52
639.47	10.42
639.884	10.33
640.298	10.25
640.712	10.15
641.126	10.05
641.54	9.96
641.954	9.89
642.368	9.8
642.781	9.7
643.195	9.61
643.609	9.53
644.022	9.45
644.436	9.37
644.849	9.3
645.262	9.24
645.676	9.17
646.089	9.09
646.502	9.01
646.915	8.95
647.328	8.9
647.741	8.85
648.154	8.81
648.567	8.77
648.98	8.74
649.393	8.71
649.805	8.65
650.218	8.62
650.631	8.6
651.043	8.58
651.456	8.55
651.868	8.53
652.28	8.51
652.693	8.46
653.105	8.42
653.517	8.38
653.929	8.35
654.341	8.33
654.753	8.29
655.165	8.26
655.577	8.2
655.989	8.14
656.401	8.09
656.813	8.03
657.224	8
657.636	7.98
658.047	7.94
658.459	7.88
658.87	7.82
659.282	7.79
659.693	7.74
660.104	7.7
660.515	7.66
660.926	7.61
661.338	7.58
661.749	7.51
662.159	7.45
662.57	7.42
662.981	7.38
663.392	7.35
663.803	7.31
664.213	7.28
664.624	7.27
665.035	7.24
665.445	7.22
665.855	7.21
666.266	7.21
666.676	7.2
667.086	7.18
667.497	7.16
667.907	7.16
668.317	7.15
668.727	7.14
669.137	7.13
669.547	7.14
669.956	7.15
670.366	7.16
670.776	7.15
671.186	7.15
671.595	7.17
672.005	7.19
672.414	7.22
672.824	7.24
673.233	7.27
673.642	7.29
674.052	7.32
674.461	7.35
674.87	7.36
675.279	7.39
675.688	7.42
676.097	7.45
676.506	7.47
676.915	7.49
677.323	7.51
677.732	7.55
678.141	7.58
678.549	7.63
678.958	7.67
679.366	7.71
679.775	7.78
680.183	7.84
680.592	7.89
681	7.94
681.408	8
681.816	8.07
682.224	8.13
682.632	8.22
683.04	8.29
683.448	8.38
683.856	8.48
684.264	8.58
684.671	8.69
685.079	8.83
685.487	9
685.894	9.17
686.302	9.37
686.709	9.58
687.116	9.8
687.524	10.05
687.931	10.32
688.338	10.62
688.745	10.94
689.152	11.28
689.559	11.64
689.966	12.01
690.373	12.42
690.78	12.85
691.187	13.31
691.593	13.79
692	14.28
692.407	14.8
692.813	15.33
693.22	15.88
693.626	16.44
694.032	17.02
694.439	17.61
694.845	18.21
695.251	18.81
695.657	19.39
696.063	19.99
696.469	20.6
696.875	21.18
697.281	21.77
697.687	22.36
698.093	22.95
698.498	23.52
698.904	24.1
699.31	24.67
699.715	25.23
700.12	25.8
700.526	26.37
700.931	26.95
701.337	27.53
701.742	28.09
702.147	28.62
702.552	29.18
702.957	29.73
703.362	30.26
703.767	30.77
704.172	31.31
704.577	31.82
704.981	32.33
705.386	32.79
705.791	33.24
706.195	33.72
706.6	34.18
707.004	34.63
707.408	35.07
707.813	35.51
708.217	35.96
708.621	36.4
709.025	36.84
709.43	37.23
709.834	37.71
710.237	38.12
710.641	38.53
711.045	38.94
711.449	39.32
711.853	39.7
712.256	40.09
712.66	40.47
713.064	40.82
713.467	41.17
713.87	41.56
714.274	41.88
714.677	42.25
715.08	42.59
715.484	42.93
715.887	43.27
716.29	43.59
716.693	43.89
717.096	44.21
717.499	44.52
717.901	44.8
718.304	45.09
718.707	45.37
719.109	45.68
719.512	45.96
719.915	46.25
720.317	46.54
720.719	46.82
721.122	47.08
721.524	47.33
721.926	47.59
722.328	47.84
722.731	48.08
723.133	48.32
723.535	48.53
723.937	48.75
724.338	48.95
724.74	49.15
725.142	49.23
725.544	49.45
725.945	49.64
726.347	49.83
726.748	49.98
727.15	50.15
727.551	50.32
727.952	50.48
728.354	50.66
728.755	50.82
729.156	50.98
729.557	51.23
729.958	51.37
730.359	51.5
730.76	51.64
731.161	51.82
731.562	51.94
731.962	52.03
732.363	52.14
732.763	52.22
733.164	52.3
733.564	52.42
733.965	52.5
734.365	52.6
734.766	52.68
735.166	52.72
735.566	52.77
735.966	52.81
736.366	52.89
736.766	52.96
737.166	53.03
737.566	53.13
737.966	53.2
738.365	53.27
738.765	53.32
739.165	53.37
739.564	53.46
739.964	53.5
740.363	53.57
740.763	53.58
741.162	53.58
741.561	53.64
741.96	53.66
742.36	53.68
742.759	53.71
743.158	53.71
743.557	53.74
743.955	53.76
744.354	53.83
744.753	53.9
745.152	53.92
745.55	53.99
745.949	54.04
746.348	54.11
746.746	54.14
747.144	54.16
747.543	54.25
747.941	54.32
748.339	54.39
748.737	54.39
749.136	54.4
749.534	54.48
749.932	54.52
750.33	54.51
750.727	54.51
751.125	54.56
751.523	54.56
751.921	54.59
752.318	54.6
752.716	54.57
753.113	54.58
753.511	54.57
753.908	54.57
754.305	54.54
754.703	54.52
755.1	54.49
755.497	54.46
755.894	54.47
756.291	54.42
756.688	54.38
757.085	54.37
757.482	54.35
757.878	54.39
758.275	54.36
758.672	54.39
759.068	54.4
759.465	54.42
759.861	54.41
760.258	54.38
760.654	54.37
761.05	54.36
761.447	54.35
761.843	54.35
762.239	54.3
762.635	54.3
763.031	54.29
763.427	54.27
763.822	54.25
764.218	54.25
764.614	54.23
765.01	54.22
765.405	54.24
765.801	54.21
766.196	54.18
766.592	54.16
766.987	54.15
767.382	54.11
767.778	54.12
768.173	54.1
768.568	54.05
768.963	54.05
769.358	54.04
769.753	54.04
770.148	54.04
770.542	54.05
770.937	54.05
771.332	54.07
771.726	54.05
772.121	53.99
772.515	54
772.91	54.04
773.304	54.02
773.699	54.03
774.093	53.98
774.487	53.98
774.881	53.98
775.275	53.96
775.669	53.94
776.063	53.94
776.457	53.94
776.851	53.91
777.245	53.93
777.638	53.96
778.032	53.97
778.425	54
778.819	54.02
779.212	53.99
779.606	53.99
779.999	54.02
780.392	54.04
780.786	54.07
781.179	54.1
781.572	54.07
781.965	54.07
782.358	54.04
782.751	54.05
783.143	54.06
783.536	54.1
783.929	54.12
784.322	54.08
784.714	54.09
785.107	54.11
785.499	54.11
785.891	54.12
786.284	54.09
786.676	54.11
787.068	54.09
787.46	54.08
787.852	54.11
788.245	54.09
788.636	54.12
789.028	54.1
789.42	54.05
789.812	54.06
790.204	54.03
790.595	54.05
790.987	54.06
791.378	54.08
791.77	54.08
792.161	54.07
792.553	54.09
792.944	54.11
793.335	54.16
793.726	54.17
794.117	54.15
794.508	54.19
794.899	54.21
795.29	54.18
795.681	54.19
796.072	54.18
796.463	54.11
796.853	54.09
797.244	54.04
797.634	53.98
798.025	54.02
798.415	54.06
798.806	54.05
799.196	54.06
799.586	54.09
799.976	54.11
800.366	54.12
800.756	54.2
801.146	54.21
801.536	54.22
801.926	54.23
802.316	54.21
802.706	54.2
803.095	54.22
803.485	54.24
803.874	54.22
804.264	54.22
804.653	54.21
805.043	54.17
805.432	54.15
805.821	54.16
806.21	54.18
806.599	54.22
806.988	54.2
807.377	54.18
807.766	54.18
808.155	54.19
808.544	54.15
808.933	54.16
809.321	54.19
809.71	54.23
810.098	54.22
810.487	54.23
810.875	54.2
811.264	54.21
811.652	54.21
812.04	54.19
812.428	54.19
812.816	54.22
813.204	54.2
813.592	54.19
813.98	54.19
814.368	54.2
814.756	54.21
815.144	54.25
815.531	54.28
815.919	54.28
816.306	54.29
816.694	54.3
817.081	54.31
817.469	54.34
817.856	54.41
818.243	54.42
818.63	54.45
819.017	54.47
819.404	54.45
819.791	54.46
820.178	54.48
820.565	54.51
820.952	54.5
821.339	54.54
821.725	54.59
822.112	54.58
822.498	54.59
822.885	54.62
823.271	54.66
823.657	54.68
824.044	54.68
824.43	54.73
824.816	54.74
825.202	54.77
825.588	54.77
825.974	54.74
826.36	54.74
826.746	54.76
827.132	54.7
827.517	54.68
827.903	54.68
828.289	54.7
828.674	54.69
829.06	54.73
829.445	54.74
829.83	54.71
830.216	54.72
830.601	54.74
830.986	54.76
831.371	54.81
831.756	54.81
832.141	54.83
832.526	54.82
832.911	54.84
833.295	54.81
833.68	54.84
834.065	54.85
834.449	54.84
834.834	54.82
835.218	54.79
835.603	54.78
835.987	54.78
836.371	54.79
836.755	54.78
837.139	54.75
837.524	54.73
837.908	54.69
838.291	54.66
838.675	54.68
839.059	54.67
839.443	54.66
839.827	54.67
840.21	54.69
840.594	54.64
840.977	54.63
841.361	54.62
841.744	54.63
842.127	54.65
842.511	54.65
842.894	54.62
843.277	54.64
843.66	54.65
844.043	54.65
844.426	54.64
844.809	54.65
845.191	54.67
845.574	54.67
845.957	54.64
846.339	54.62
846.722	54.65
847.104	54.67
847.487	54.65
847.869	54.64
848.252	54.64
848.634	54.63
849.016	54.64
849.398	54.65
849.78	54.64
850.162	54.66
850.544	54.66
850.926	54.64
851.307	54.65
851.689	54.61
852.071	54.62
852.452	54.6
852.834	54.59
853.215	54.57
853.597	54.58
853.978	54.58
854.359	54.58
854.741	54.59
855.122	54.58
855.503	54.58
855.884	54.59
856.265	54.62
856.646	54.61
857.026	54.63
857.407	54.63
857.788	54.61
858.169	54.63
858.549	54.62
858.93	54.6
859.31	54.6
859.69	54.6
860.071	54.6
860.451	54.57
860.831	54.61
861.211	54.6
861.591	54.61
861.971	54.61
862.351	54.62
862.731	54.64
863.111	54.67
863.491	54.66
863.87	54.64
864.25	54.68
864.629	54.65
865.009	54.62
865.388	54.61
865.768	54.59
866.147	54.6
866.526	54.6
866.905	54.6
867.284	54.59
867.663	54.61
868.042	54.62
868.421	54.65
868.8	54.7
869.179	54.7
869.558	54.72
869.936	54.73
870.315	54.73
870.693	54.74
871.072	54.71
871.45	54.7
871.828	54.7
872.207	54.68
872.585	54.64
872.963	54.6
873.341	54.59
873.719	54.57
874.097	54.58
874.475	54.56
874.853	54.52
875.23	54.5
875.608	54.53
875.986	54.5
876.363	54.51
876.741	54.49
877.118	54.5
877.495	54.51
877.873	54.52
878.25	54.52
878.627	54.51
879.004	54.51
879.381	54.51
879.758	54.47
880.135	54.47
880.512	54.44
880.889	54.48
881.265	54.46
881.642	54.45
882.019	54.45
882.395	54.44
882.772	54.42
883.148	54.45
883.524	54.47
883.901	54.48
884.277	54.51
884.653	54.52
885.029	54.48
885.405	54.47
885.781	54.46
886.157	54.49
886.532	54.48
886.908	54.5
887.284	54.47
887.659	54.46
888.035	54.45
888.411	54.44
888.786	54.46
889.161	54.47
889.537	54.51
889.912	54.52
890.287	54.5
890.662	54.48
891.037	54.47
891.412	54.47
891.787	54.45
892.162	54.46
892.536	54.45
892.911	54.42
893.286	54.39
893.66	54.36
894.035	54.35
894.409	54.34
894.784	54.35
895.158	54.36
895.532	54.35
895.906	54.35
896.281	54.33
896.655	54.29
897.029	54.29
897.402	54.29
897.776	54.31
898.15	54.28
898.524	54.27
898.898	54.25
899.271	54.22
899.645	54.19
900.018	54.19
900.392	54.18
900.765	54.2
901.138	54.2
901.511	54.2
901.884	54.16
902.258	54.15
902.631	54.13
903.003	54.13
903.376	54.12
903.749	54.13
904.122	54.14
904.495	54.11
904.867	54.08
905.24	54.08
905.612	54.06
905.985	54.04
906.357	54
906.729	53.97
907.102	53.9
907.474	53.9
907.846	53.86
908.218	53.82
908.59	53.78
908.962	53.77
909.334	53.77
909.705	53.73
910.077	53.73
910.449	53.75
910.82	53.74
911.192	53.76
911.563	53.75
911.935	53.74
912.306	53.75
912.677	53.78
913.048	53.76
913.419	53.71
913.79	53.67
914.161	53.62
914.532	53.61
914.903	53.61
915.274	53.58
915.645	53.59
916.015	53.6
916.386	53.53
916.756	53.49
917.127	53.45
917.497	53.46
917.868	53.48
918.238	53.51
918.608	53.49
918.978	53.48
919.348	53.46
919.718	53.42
920.088	53.39
920.458	53.44
920.828	53.43
921.198	53.44
921.567	53.42
921.937	53.42
922.306	53.42
922.676	53.44
923.045	53.42
923.415	53.41
923.784	53.43
924.153	53.41
924.522	53.33
924.891	53.31
925.26	53.28
925.629	53.25
925.998	53.25
926.367	53.22
926.736	53.13
927.104	53.11
927.473	53.08
927.842	53
928.21	52.97
928.578	52.98
928.947	52.97
929.315	52.99
929.683	53.02
930.051	52.98
930.42	52.94
930.788	52.94
931.156	52.88
931.523	52.86
931.891	52.83
932.259	52.75
932.627	52.7
932.994	52.67
933.362	52.58
933.729	52.43
934.097	52.3
934.464	52.23
934.831	52.16
935.199	52.11
935.566	52.04
935.933	51.97
936.3	51.89
936.667	51.8
937.034	51.62
937.401	51.51
937.767	51.5
938.134	51.46
938.501	51.39
938.867	51.34
939.234	51.35
939.6	51.31
939.967	51.32
940.333	51.45
940.699	51.51
941.065	51.69
941.431	51.76
941.798	51.9
942.163	51.96
942.529	51.98
942.895	52.07
943.261	52.08
943.627	52.22
943.992	52.27
944.358	52.25
944.723	52.28
945.089	52.4
945.454	52.54
945.82	52.49
946.185	52.57
946.55	52.69
946.915	52.73
947.28	52.74
947.645	52.71
948.01	52.68
948.375	52.73
948.74	52.73
949.104	52.63
949.469	52.43
949.834	52.4
950.198	52.31
950.562	52.29
950.927	52.24
951.291	52.2
951.655	52.15
952.02	52.16
952.384	52.13
952.748	52.05
953.112	51.99
953.476	52.11
953.839	52.08
954.203	52.09
954.567	52.05
954.931	52.04
955.294	52.01
955.658	51.99
956.021	51.91
956.385	51.91
956.748	51.92
957.111	51.91
957.474	51.87
957.837	51.82
958.2	51.78
958.563	51.71
958.926	51.57
959.289	51.58
959.652	51.56
960.015	51.54
960.377	51.48
960.74	51.44
961.102	51.42
961.465	51.37
961.827	51.23
962.189	51.24
962.552	51.18
962.914	51.2
963.276	51.16
963.638	51.09
964	51.1
964.362	51.09
964.724	51.12
965.085	51.09
965.447	51.05
965.809	51.07
966.17	51.01
966.532	50.99
966.893	50.99
967.255	50.95
967.616	50.97
967.977	50.96
968.338	50.86
968.699	50.78
969.061	50.72
969.421	50.69
969.782	50.77
970.143	50.78
970.504	50.76
970.865	50.74
971.225	50.72
971.586	50.71
971.946	50.74
972.307	50.74
972.667	50.78
973.027	50.8
973.388	50.85
973.748	50.82
974.108	50.74
974.468	50.75
974.828	50.75
975.188	50.74
975.548	50.64
975.907	50.58
976.267	50.61
976.627	50.52
976.986	50.56
977.346	50.48
977.705	50.44
978.064	50.46
978.424	50.47
978.783	50.43
979.142	50.43
979.501	50.44
979.86	50.42
980.219	50.37
980.578	50.37
980.937	50.31
981.296	50.34
981.654	50.38
982.013	50.37
982.371	50.31
982.73	50.28
983.088	50.25
983.447	50.28
983.805	50.22
984.163	50.23
984.521	50.19
984.879	50.23
985.237	50.25
985.595	50.21
985.953	50.24
986.311	50.32
986.669	50.32
987.026	50.35
987.384	50.34
987.741	50.48
988.099	50.41
988.456	50.36
988.814	50.31
989.171	50.16
989.528	50.09
989.885	50.06
990.242	50.02
990.599	49.97
990.956	49.93
991.313	49.98
991.67	49.82
992.027	49.83
992.383	49.8
992.74	49.71
993.096	49.61
993.453	49.54
993.809	49.51
994.165	49.52
994.522	49.5
994.878	49.42
995.234	49.25
995.59	49.14
995.946	49.16
996.302	49.19
996.658	49.35
997.013	49.48
997.369	49.52
997.725	49.54
998.08	49.42
998.436	49.53
998.791	49.44
999.147	49.51
999.502	49.61
999.857	49.53
1000.212	49.41
1000.567	49.25
1000.922	49.16
1001.277	48.99
1001.632	49.05
1001.987	49.01
1002.342	48.88
1002.696	49.06
1003.051	48.92
1003.406	48.85
1003.76	48.88
1004.114	49.03
1004.469	48.92
1004.823	49.1
1005.177	49.24
1005.531	49
1005.885	48.99
1006.239	49.04
1006.593	48.78
1006.947	48.7
1007.301	48.66
1007.655	48.68
1008.008	48.37
1008.362	48.26
1008.715	48.05
1009.069	48.03
1009.422	48.07
1009.776	48.01
1010.129	47.92
1010.482	48.12
1010.835	48.34
1011.188	48.41
1011.541	48.06
1011.894	48.36
1012.247	48.41
1012.6	48.37
1012.952	48.27
1013.305	48.34
1013.657	48.46
1014.01	48.69
1014.362	48.61
1014.715	48.33
1015.067	48.19
1015.419	48.53
1015.771	48.45
1016.123	48.55
1016.475	48.71
1016.827	48.88
1017.179	48.54
1017.531	48.63
1017.883	48.58
1018.234	48.44
1018.586	48.46
1018.938	48.39
1019.289	48.11
1019.64	48.26
1019.992	48.25
1020.343	48.02
1020.694	47.82
1021.045	47.88
1021.396	47.72
1021.747	47.45
1022.098	47.75
1022.449	47.74
1022.8	47.76
1023.151	47.77
1023.501	47.41
1023.852	47.6
1024.202	47.58
1024.553	47.83
1024.903	47.94
1025.253	47.67
1025.604	47.84
1025.954	47.4
1026.304	48.31
1026.654	48.62
1027.004	48.87
1027.354	49.17
1027.703	48.98
1028.053	49
1028.403	48.88
1028.753	49.27
1029.102	49.42
1029.452	49.09
1029.801	49.27
1030.15	48.58
1030.499	48.44
897.758	1.16
901.051	8.54
904.343	8.23
907.636	8.06
910.928	13.22
914.22	6.53
917.511	5.3
920.803	8.05
924.094	9.06
927.384	8.95
930.675	10.27
933.965	11.46
937.255	9.06
940.544	8.78
943.834	8.99
947.123	7.81
950.411	12.89
953.7	13.09
956.988	13.07
960.276	18.76
963.563	18.43
966.851	19.58
970.138	21.35
973.424	22.21
976.711	23.93
979.997	25.03
983.283	21.33
986.568	21.39
989.853	24.48
993.138	24.41
996.423	22.64
999.708	23.94
1002.992	23.18
1006.275	23.41
1009.559	24.81
1012.842	24.36
1016.125	24.79
1019.408	25.68
1022.69	26.91
1025.972	25.92
1029.254	25.12
1032.536	24.89
1035.817	25.07
1039.098	27.24
1042.379	27.38
1045.659	26.96
1048.939	26.39
1052.219	26.51
1055.498	28.38
1058.778	28.12
1062.057	28.33
1065.335	30.44
1068.614	28.7
1071.892	29.28
1075.17	28.73
1078.447	29.46
1081.724	28.87
1085.001	29.22
1088.278	29.58
1091.554	28.52
1094.83	29.45
1098.106	28.67
1101.382	28.1
1104.657	29.61
1107.932	28.72
1111.206	28.75
1114.481	28.58
1117.755	28.26
1121.029	28.73
1124.302	28.33
1127.575	29.03
1130.848	28.2
1134.121	27.9
1137.393	28.56
1140.665	27.9
1143.937	27.95
1147.208	27.34
1150.48	27.4
1153.75	27.29
1157.021	27.85
1160.291	28.48
1163.561	26.86
1166.831	28.38
1170.101	28.84
1173.37	28.3
1176.639	28.42
1179.907	28.43
1183.176	28.78
1186.444	28.28
1189.711	28.39
1192.979	27.26
1196.246	27.79
1199.513	28.85
1202.78	27.1
1206.046	27.06
1209.312	27.7
1212.578	27.46
1215.843	28.18
1219.108	27.31
1222.373	27.27
1225.638	27.68
1228.902	27.65
1232.166	26.7
1235.43	26.12
1238.693	26.9
1241.956	25.86
1245.219	25
1248.482	26.26
1251.744	24.86
1255.006	26.73
1258.268	26.39
1261.529	26.02
1264.79	27.7
1268.051	26.54
1271.312	28.17
1274.572	28.24
1277.832	29.7
1281.092	30.01
1284.351	29.82
1287.61	30.02
1290.869	29.45
1294.128	29.85
1297.386	30.41
1300.644	29.75
1303.902	28.8
1307.159	28.51
1310.416	27.77
1313.673	27.32
1316.93	26.95
1320.186	26.95
1323.442	26.6
1326.697	25.75
1329.953	25.14
1333.208	23.67
1336.463	22.57
1339.717	24.21
1342.972	22.59
1346.226	21.87
1349.479	22.01
1352.733	21.29
1355.986	18.28
1359.238	17.8
1362.491	17.71
1365.743	16.74
1368.995	19.09
1372.247	16.18
1375.498	15.3
1378.749	12.66
1382	14.14
1385.251	10.2
1388.501	11.91
1391.751	12.3
1395	12.04
1398.25	11.64
1401.499	11.71
1404.748	7.69
1407.996	10.49
1411.244	10.93
1414.492	10.87
1417.74	8.39
1420.987	10.6
1424.234	8.43
1427.481	8.1
1430.728	7.92
1433.974	8.64
1437.22	7.92
1440.465	7.99
1443.711	7.44
1446.956	7.52
1450.201	9.86
1453.445	9.21
1456.689	10.04
1459.933	9.62
1463.177	9.68
1466.42	9.89
1469.663	8.37
1472.906	8.61
1476.148	9.16
1479.391	9.44
1482.633	9.49
1485.874	9.05
1489.115	10.26
1492.356	10.05
1495.597	10.49
1498.838	10.93
1502.078	11.21
1505.318	11.88
1508.557	11.93
1511.797	12.27
1515.036	13.52
1518.274	13.65
1521.513	14.09
1524.751	13.89
1527.989	14.64
1531.227	14.8
1534.464	15.22
1537.701	15.02
1540.938	15.34
1544.174	15.71
1547.41	16.13
1550.646	16.08
1553.882	16.44
1557.117	16.78
1560.352	17.16
1563.587	17.19
1566.821	17.32
1570.055	18.08
1573.289	19
1576.523	18.89
1579.756	19.2
1582.989	19.25
1586.222	18.87
1589.454	19.26
1592.686	19.62
1595.918	19.73
1599.15	19.99
1602.381	20.08
1605.612	20.35
1608.843	19.95
1612.073	20.27
1615.303	21
1618.533	21.11
1621.762	21.38
1624.992	20.98
1628.221	20.49
1631.449	21.21
1634.678	21.13
1637.906	21.79
1641.134	21.21
1644.361	21.34
1647.588	21.64
1650.815	21.22
1654.042	21.57
1657.269	21.29
1660.495	21.85
1663.72	22.19
1666.946	21.55
1670.171	21.58
1673.396	21.08
1676.621	21.21
1679.845	22.06
1683.069	21.51
1686.293	21.13
1689.517	21.09
1692.74	21.17
1695.963	21.01
1699.185	20.33
1702.408	20.58
1705.63	20.76
1708.852	20.71
1712.073	19.98
1715.294	19.14
1718.515	19.74
1721.736	20.06
1724.956	19.49
1728.176	19.62
1731.396	19.17
1734.616	19.88
1737.835	19.46
1741.054	19.1
1744.272	19.52
1747.491	19.85
1750.709	19.73
1753.927	19.37
1757.144	19.23
1760.361	19.35
1763.578	18.82
1766.795	19
1770.011	18.63
1773.227	18.35
1776.443	18.09
1779.658	17.21
1782.874	17.41
1786.089	16.83
1789.303	16.86
1792.518	16.64
1795.732	16.66
1798.945	17.41
1802.159	17.33
1805.372	16.88
1808.585	16.99
1811.797	16.99
1815.01	17.53
1818.222	17.75
1821.434	17.35
1824.645	16.64
1827.856	16.22
1831.067	15.71
1834.278	15.7
1837.488	15.81
1840.698	15.31
1843.908	15.06
1847.117	15.58
1850.326	14.2
1853.535	13.99
1856.744	14.85
1859.952	14.55
1863.16	14.25
1866.368	14.52
1869.575	13.73
1872.782	12.49
1875.989	11.05
1879.196	11.08
1882.402	8.42
1885.608	9.43
1888.814	7.91
1892.019	6.15
1895.224	5.29
1898.429	5.18
1901.634	4.02
1904.838	2.32
1908.042	2.14
1911.246	2.8
1914.449	2.07
1917.652	2.23
1920.855	1.09
1924.058	0.44
1927.26	-0.32
1930.462	0.08
1933.664	0.68
1936.865	0.6
1940.066	0.09
1943.267	0.29
1946.467	0.85
1949.668	0.24
1952.868	0.89
1956.067	-0.07
1959.267	2.95
1962.466	2.52
1965.665	2.84
1968.863	2.34
1972.061	1.95
1975.259	3.44
1978.457	2.58
1981.654	2.23
1984.852	2.91
1988.048	2.89
1991.245	3.46
1994.441	1.19
1997.637	2.97
2000.833	3.87
2004.028	2.67
2007.223	2.8
2010.418	3.45
2013.613	4.27
2016.807	4.16
2020.001	2.85
2023.194	5.23
2026.388	5.39
2029.581	5.2
2032.774	3.76
2035.966	3.72
2039.158	5.52
2042.35	4.83
2045.542	4.92
2048.733	4.38
2051.924	3.74
2055.115	4.92
2058.306	3.08
2061.496	1.91
2064.686	2.39
2067.875	2.78
2071.065	4.01
2074.254	3
2077.442	3.03
2080.631	1.09
2083.819	2.13
2087.007	3.29
2090.195	2
2093.382	-0.11
2096.569	0.36
2099.756	3.3
2102.942	3.06
2106.128	0.01
2109.314	1.71
2112.5	2.36
2115.685	1.88
2118.87	1.36
2122.055	0.19
2125.239	0.15
2128.424	2
2131.608	2.04
2134.791	-1.45
2137.974	0.34
2141.157	1.48
2144.34	0.26
2147.523	2.63
2150.705	3.64
2153.887	3.25
2157.068	4.52
2160.25	3.76
2163.431	7.12
2166.611	5.49
2169.792	6.01
2172.972	5.59
2176.152	5.01
2179.331	3.23
2182.511	0.39
2185.69	0.45
2188.868	-2.85
2192.047	-2.32
2195.225	0.1
2198.403	-8.11
2201.58	-4.23
2204.758	-4.07
2207.935	-5.75
2211.111	-7.63
2214.288	-5.42
2217.464	-4.99
2220.64	-5.18
2223.815	-3.34
2226.991	-3.7
2230.166	-3.72
2233.34	-1.1
2236.515	-3.93
2239.689	-4.8
2242.863	-3.12
2246.036	-2.69
2249.209	-5.23
2252.382	-3.7
2255.555	-3.31
2258.727	-2.38
2261.9	-8.11
2265.071	-7.41
2268.243	-2.68
2271.414	-6.78
2274.585	-6.42
2277.756	-7.22
2280.926	-8.74
2284.096	-7.6
2287.266	-8.7
2290.436	-7.28
2293.605	-6.22
2296.774	0.22
2299.942	-3.95
2303.111	-6.42
2306.279	-0.91
2309.447	-0.76
2312.614	-2.54
2315.781	-5.28
2318.948	-1.88
2322.115	-1.58
2325.281	-9.07
2328.447	-8.04
2331.613	-11.31
2334.779	-11.57
2337.944	-13.27
2341.109	-16.79
2344.274	-13.19
2347.438	-18.34
2350.602	-12.88
2353.766	-18.8
2356.929	-20.28
2360.092	-14.28
2363.255	-15.65
2366.418	-14.8
2369.58	-16.95
2372.742	-7.85
2375.904	-6
2379.066	-10.36
2382.227	-1.76
2385.388	-7.21
2388.548	-5.46
2391.709	-0.89
2394.869	-5.43
2398.029	-2.38
2401.188	-3.64
2404.347	-1.16
2407.506	-13.91
2410.665	-13.35
2413.823	-13.29
2416.981	-13.48
2420.139	-9.58
2423.296	-10.7
2426.453	-23.02
2429.61	-12.32
2432.767	-21.89
2435.923	-19.13
2439.079	-14.09
2442.235	-17.22
2445.391	-13.14
2448.546	-8.95
2451.701	-21.55
2454.855	-22.35
2458.009	-15.38
2461.163	-10.58
2464.317	-16.98
2467.471	-15.48
2470.624	-20.36
2473.777	-23.05
2476.929	-12.55
2480.082	-26.4
2483.234	-34.9
2486.385	-26.72
2489.537	-26.9
2492.688	-37.27
2495.839	-32.28
2498.989	-37.54
2502.14	-35.51
2505.29	-29.85
2508.439	-42.09
2511.589	-46.57
2514.738	-34.77
2517.887	-36.02
2521.035	-36.03
2524.183	-38.9
2527.331	-31.71
2530.479	-34.36
2533.627	-33.89
