Data from c_1_dec_oh_4n_015_Splice17_17.txt Node
Date: Sat Feb 29 13:14:53 EST 2020
User: sa697716
Spectrometer: FLMS03696
Trigger mode: 0
Integration Time (sec): 3.180400E-1
Scans to average: 20
Electric dark correction enabled: true
Nonlinearity correction enabled: true
Boxcar width: 5
XAxis mode: Wavelengths
Number of Pixels in Spectrum: 2048
>>>>>Begin Spectral Data<<<<<
187.83	107.8
188.298	110.46
188.766	99.82
189.233	91.02
189.701	92.61
190.169	89.36
190.636	98.73
191.104	61.48
191.571	145.07
192.039	213.36
192.506	6.07
192.974	2936.06
193.441	-126.24
193.908	67.48
194.375	-12.03
194.842	63.94
195.31	-4.19
195.777	-50.48
196.244	-22.85
196.711	7.7
197.177	8.35
197.644	9.76
198.111	10.36
198.578	10.37
199.045	11.12
199.511	11.84
199.978	12.37
200.445	12.97
200.911	13.61
201.378	13.5
201.844	13.74
202.31	14.03
202.777	14.43
203.243	14.9
203.709	15.64
204.176	15.6
204.642	15.87
205.108	15.62
205.574	15.99
206.04	16.14
206.506	16.19
206.972	16.1
207.438	16.06
207.903	16.28
208.369	15.99
208.835	15.7
209.301	15.42
209.766	15.07
210.232	14.87
210.697	14.77
211.163	15.01
211.628	14.91
212.094	14.65
212.559	14.32
213.024	13.95
213.49	13.67
213.955	13.54
214.42	13.23
214.885	12.97
215.35	12.8
215.815	12.27
216.28	11.53
216.745	11.3
217.21	10.97
217.675	10.73
218.14	10.21
218.604	9.77
219.069	9.47
219.534	9.19
219.998	8.93
220.463	8.68
220.927	8.49
221.392	8.38
221.856	8.17
222.32	8.08
222.785	7.9
223.249	7.78
223.713	7.72
224.177	7.54
224.642	7.48
225.106	7.39
225.57	7.3
226.034	7.19
226.497	7.05
226.961	6.96
227.425	6.82
227.889	6.71
228.353	6.62
228.816	6.55
229.28	6.45
229.744	6.36
230.207	6.27
230.671	6.19
231.134	6.12
231.597	6.04
232.061	5.97
232.524	5.92
232.987	5.87
233.45	5.8
233.914	5.72
234.377	5.69
234.84	5.63
235.303	5.58
235.766	5.51
236.229	5.44
236.691	5.41
237.154	5.36
237.617	5.31
238.08	5.25
238.542	5.21
239.005	5.16
239.468	5.1
239.93	5.06
240.393	5.02
240.855	4.98
241.317	4.95
241.78	4.89
242.242	4.83
242.704	4.78
243.166	4.75
243.629	4.7
244.091	4.67
244.553	4.63
245.015	4.59
245.477	4.54
245.939	4.5
246.4	4.45
246.862	4.42
247.324	4.4
247.786	4.36
248.247	4.32
248.709	4.29
249.17	4.25
249.632	4.21
250.093	4.16
250.555	4.13
251.016	4.1
251.477	4.08
251.939	4.05
252.4	4.02
252.861	4
253.322	3.97
253.783	3.95
254.244	3.93
254.705	3.91
255.166	3.9
255.627	3.88
256.088	3.85
256.549	3.83
257.009	3.83
257.47	3.81
257.931	3.79
258.391	3.76
258.852	3.73
259.312	3.71
259.773	3.7
260.233	3.67
260.694	3.66
261.154	3.65
261.614	3.63
262.074	3.6
262.534	3.57
262.994	3.56
263.455	3.55
263.915	3.52
264.374	3.51
264.834	3.48
265.294	3.47
265.754	3.44
266.214	3.43
266.673	3.42
267.133	3.41
267.593	3.4
268.052	3.38
268.512	3.37
268.971	3.37
269.431	3.35
269.89	3.34
270.349	3.33
270.809	3.33
271.268	3.32
271.727	3.31
272.186	3.29
272.645	3.28
273.104	3.27
273.563	3.27
274.022	3.25
274.481	3.24
274.94	3.23
275.399	3.22
275.857	3.21
276.316	3.19
276.775	3.18
277.233	3.16
277.692	3.15
278.15	3.14
278.609	3.12
279.067	3.1
279.525	3.09
279.984	3.08
280.442	3.07
280.9	3.06
281.358	3.05
281.816	3.04
282.274	3.03
282.732	3.02
283.19	3.01
283.648	3.01
284.106	2.99
284.564	2.99
285.021	2.98
285.479	2.98
285.937	2.96
286.394	2.96
286.852	2.95
287.309	2.94
287.767	2.93
288.224	2.92
288.682	2.92
289.139	2.92
289.596	2.9
290.053	2.89
290.511	2.87
290.968	2.87
291.425	2.86
291.882	2.85
292.339	2.83
292.796	2.83
293.252	2.82
293.709	2.8
294.166	2.79
294.623	2.79
295.079	2.78
295.536	2.77
295.992	2.76
296.449	2.76
296.905	2.74
297.362	2.73
297.818	2.73
298.274	2.72
298.731	2.71
299.187	2.7
299.643	2.69
300.099	2.69
300.555	2.68
301.011	2.67
301.467	2.66
301.923	2.66
302.379	2.65
302.835	2.64
303.291	2.64
303.746	2.63
304.202	2.62
304.658	2.61
305.113	2.61
305.569	2.61
306.024	2.6
306.479	2.6
306.935	2.59
307.39	2.59
307.845	2.58
308.301	2.58
308.756	2.58
309.211	2.58
309.666	2.58
310.121	2.58
310.576	2.57
311.031	2.57
311.486	2.57
311.94	2.57
312.395	2.57
312.85	2.57
313.305	2.57
313.759	2.56
314.214	2.55
314.668	2.55
315.123	2.54
315.577	2.54
316.032	2.54
316.486	2.52
316.94	2.52
317.394	2.51
317.849	2.51
318.303	2.49
318.757	2.48
319.211	2.48
319.665	2.47
320.119	2.47
320.572	2.47
321.026	2.46
321.48	2.46
321.934	2.47
322.387	2.46
322.841	2.46
323.295	2.45
323.748	2.45
324.202	2.45
324.655	2.44
325.108	2.42
325.562	2.41
326.015	2.4
326.468	2.39
326.921	2.37
327.374	2.37
327.827	2.36
328.28	2.35
328.733	2.34
329.186	2.34
329.639	2.33
330.092	2.33
330.545	2.33
330.997	2.34
331.45	2.33
331.903	2.33
332.355	2.33
332.808	2.33
333.26	2.33
333.713	2.34
334.165	2.33
334.617	2.34
335.069	2.34
335.522	2.34
335.974	2.34
336.426	2.34
336.878	2.35
337.33	2.34
337.782	2.33
338.234	2.33
338.686	2.33
339.137	2.32
339.589	2.32
340.041	2.31
340.493	2.29
340.944	2.29
341.396	2.28
341.847	2.27
342.299	2.26
342.75	2.24
343.201	2.24
343.653	2.23
344.104	2.23
344.555	2.22
345.006	2.21
345.457	2.2
345.908	2.2
346.359	2.2
346.81	2.21
347.261	2.21
347.712	2.22
348.163	2.21
348.613	2.21
349.064	2.21
349.515	2.21
349.965	2.2
350.416	2.2
350.866	2.2
351.317	2.19
351.767	2.17
352.217	2.17
352.668	2.16
353.118	2.16
353.568	2.16
354.018	2.16
354.468	2.15
354.918	2.16
355.368	2.17
355.818	2.16
356.268	2.17
356.718	2.16
357.168	2.16
357.617	2.16
358.067	2.16
358.517	2.15
358.966	2.15
359.416	2.15
359.865	2.14
360.315	2.14
360.764	2.14
361.213	2.13
361.663	2.13
362.112	2.14
362.561	2.13
363.01	2.13
363.459	2.13
363.908	2.12
364.357	2.12
364.806	2.11
365.255	2.11
365.703	2.11
366.152	2.11
366.601	2.11
367.05	2.11
367.498	2.11
367.947	2.11
368.395	2.11
368.844	2.11
369.292	2.11
369.74	2.11
370.189	2.11
370.637	2.11
371.085	2.11
371.533	2.11
371.981	2.11
372.429	2.09
372.877	2.09
373.325	2.08
373.773	2.08
374.221	2.08
374.669	2.08
375.116	2.07
375.564	2.06
376.012	2.07
376.459	2.07
376.907	2.07
377.354	2.07
377.801	2.07
378.249	2.08
378.696	2.08
379.143	2.08
379.591	2.08
380.038	2.08
380.485	2.08
380.932	2.07
381.379	2.06
381.826	2.06
382.273	2.06
382.72	2.07
383.166	2.06
383.613	2.06
384.06	2.06
384.506	2.06
384.953	2.06
385.4	2.07
385.846	2.07
386.292	2.09
386.739	2.08
387.185	2.09
387.631	2.1
388.078	2.1
388.524	2.1
388.97	2.11
389.416	2.11
389.862	2.11
390.308	2.12
390.754	2.13
391.2	2.13
391.645	2.15
392.091	2.14
392.537	2.15
392.983	2.16
393.428	2.17
393.874	2.18
394.319	2.18
394.765	2.18
395.21	2.19
395.655	2.19
396.101	2.2
396.546	2.2
396.991	2.21
397.436	2.2
397.881	2.22
398.326	2.24
398.771	2.25
399.216	2.28
399.661	2.3
400.106	2.32
400.551	2.33
400.995	2.34
401.44	2.34
401.885	2.36
402.329	2.38
402.774	2.38
403.218	2.38
403.663	2.39
404.107	2.39
404.551	2.41
404.995	2.4
405.44	2.41
405.884	2.42
406.328	2.44
406.772	2.45
407.216	2.45
407.66	2.47
408.104	2.48
408.547	2.49
408.991	2.49
409.435	2.5
409.879	2.52
410.322	2.55
410.766	2.57
411.209	2.58
411.653	2.59
412.096	2.6
412.54	2.6
412.983	2.61
413.426	2.62
413.869	2.63
414.312	2.65
414.756	2.67
415.199	2.67
415.642	2.69
416.085	2.7
416.527	2.72
416.97	2.75
417.413	2.75
417.856	2.76
418.298	2.77
418.741	2.79
419.184	2.78
419.626	2.77
420.069	2.78
420.511	2.78
420.953	2.78
421.396	2.77
421.838	2.78
422.28	2.82
422.722	2.83
423.164	2.84
423.606	2.85
424.048	2.84
424.49	2.86
424.932	2.87
425.374	2.88
425.816	2.88
426.258	2.89
426.699	2.88
427.141	2.84
427.582	2.84
428.024	2.85
428.465	2.85
428.907	2.88
429.348	2.87
429.789	2.88
430.231	2.88
430.672	2.87
431.113	2.87
431.554	2.88
431.995	2.9
432.436	2.89
432.877	2.86
433.318	2.86
433.759	2.87
434.2	2.87
434.64	2.86
435.081	2.85
435.522	2.88
435.962	2.89
436.403	2.9
436.843	2.91
437.284	2.93
437.724	2.98
438.164	2.98
438.604	2.97
439.045	2.98
439.485	2.99
439.925	2.99
440.365	2.97
440.805	2.96
441.245	2.95
441.685	2.96
442.125	2.94
442.564	2.93
443.004	2.94
443.444	2.95
443.883	2.95
444.323	2.94
444.762	2.95
445.202	2.98
445.641	2.97
446.081	2.99
446.52	2.98
446.959	2.99
447.398	3.01
447.837	3.03
448.276	3.03
448.716	3.04
449.154	3.06
449.593	3.08
450.032	3.07
450.471	3.09
450.91	3.07
451.349	3.08
451.787	3.07
452.226	3.05
452.664	3.01
453.103	3.01
453.541	3.01
453.98	3
454.418	2.98
454.856	2.96
455.295	2.96
455.733	2.96
456.171	2.96
456.609	2.96
457.047	2.97
457.485	2.97
457.923	2.98
458.361	2.97
458.798	2.97
459.236	2.98
459.674	2.99
460.111	2.98
460.549	2.98
460.987	2.97
461.424	2.96
461.862	2.96
462.299	2.97
462.736	2.96
463.173	2.97
463.611	2.96
464.048	2.97
464.485	2.97
464.922	2.96
465.359	2.97
465.796	2.95
466.233	2.96
466.67	2.94
467.106	2.93
467.543	2.95
467.98	2.95
468.416	2.97
468.853	2.96
469.29	2.96
469.726	2.97
470.162	2.97
470.599	2.97
471.035	2.99
471.471	3
471.907	3.01
472.344	3
472.78	3
473.216	2.98
473.652	2.97
474.088	2.98
474.523	3
474.959	2.99
475.395	3
475.831	3
476.266	2.99
476.702	2.98
477.138	2.97
477.573	2.97
478.008	2.96
478.444	2.96
478.879	2.96
479.314	2.93
479.75	2.94
480.185	2.94
480.62	2.94
481.055	2.95
481.49	2.94
481.925	2.94
482.36	2.93
482.795	2.92
483.229	2.93
483.664	2.92
484.099	2.92
484.534	2.92
484.968	2.91
485.403	2.9
485.837	2.89
486.271	2.89
486.706	2.91
487.14	2.92
487.574	2.93
488.009	2.93
488.443	2.94
488.877	2.96
489.311	2.96
489.745	2.98
490.179	2.99
490.613	3
491.046	3.02
491.48	3.03
491.914	3.05
492.348	3.07
492.781	3.09
493.215	3.1
493.648	3.12
494.082	3.15
494.515	3.16
494.948	3.18
495.382	3.2
495.815	3.23
496.248	3.26
496.681	3.29
497.114	3.31
497.547	3.35
497.98	3.4
498.413	3.43
498.846	3.47
499.279	3.53
499.711	3.58
500.144	3.64
500.577	3.69
501.009	3.75
501.442	3.83
501.874	3.89
502.306	3.96
502.739	4.02
503.171	4.11
503.603	4.2
504.036	4.3
504.468	4.4
504.9	4.51
505.332	4.62
505.764	4.73
506.196	4.86
506.627	4.99
507.059	5.11
507.491	5.26
507.923	5.4
508.354	5.55
508.786	5.71
509.217	5.86
509.649	6.02
510.08	6.21
510.512	6.37
510.943	6.55
511.374	6.75
511.805	6.95
512.237	7.16
512.668	7.36
513.099	7.57
513.53	7.79
513.961	8.03
514.391	8.26
514.822	8.48
515.253	8.73
515.684	8.96
516.114	9.21
516.545	9.47
516.975	9.71
517.406	9.97
517.836	10.23
518.267	10.51
518.697	10.78
519.127	11.05
519.558	11.32
519.988	11.58
520.418	11.86
520.848	12.13
521.278	12.39
521.708	12.61
522.138	12.86
522.567	13.12
522.997	13.37
523.427	13.61
523.857	13.84
524.286	14.07
524.716	14.3
525.145	14.52
525.575	14.72
526.004	14.93
526.433	15.17
526.863	15.39
527.292	15.59
527.721	15.76
528.15	15.92
528.579	16.1
529.008	16.26
529.437	16.41
529.866	16.57
530.295	16.73
530.724	16.86
531.152	17
531.581	17.11
532.01	17.2
532.438	17.32
532.867	17.42
533.295	17.52
533.723	17.61
534.152	17.7
534.58	17.77
535.008	17.82
535.436	17.91
535.865	17.97
536.293	18.03
536.721	18.12
537.149	18.18
537.576	18.25
538.004	18.31
538.432	18.35
538.86	18.41
539.287	18.45
539.715	18.5
540.143	18.53
540.57	18.57
540.998	18.61
541.425	18.63
541.852	18.66
542.28	18.68
542.707	18.72
543.134	18.76
543.561	18.78
543.988	18.81
544.415	18.85
544.842	18.88
545.269	18.91
545.696	18.94
546.123	18.98
546.549	19.01
546.976	19.03
547.403	19.04
547.829	19.05
548.256	19.08
548.682	19.1
549.108	19.1
549.535	19.12
549.961	19.13
550.387	19.13
550.813	19.12
551.24	19.12
551.666	19.13
552.092	19.12
552.518	19.11
552.943	19.09
553.369	19.06
553.795	19.03
554.221	18.98
554.646	18.96
555.072	18.92
555.498	18.88
555.923	18.84
556.349	18.76
556.774	18.69
557.199	18.63
557.625	18.56
558.05	18.5
558.475	18.42
558.9	18.34
559.325	18.24
559.75	18.13
560.175	18.03
560.6	17.93
561.025	17.83
561.449	17.73
561.874	17.61
562.299	17.49
562.723	17.36
563.148	17.23
563.572	17.11
563.997	16.98
564.421	16.86
564.846	16.72
565.27	16.57
565.694	16.42
566.118	16.26
566.542	16.12
566.966	15.97
567.39	15.8
567.814	15.67
568.238	15.5
568.662	15.34
569.086	15.18
569.509	15.02
569.933	14.85
570.357	14.69
570.78	14.54
571.204	14.38
571.627	14.23
572.05	14.09
572.474	13.96
572.897	13.82
573.32	13.67
573.743	13.53
574.166	13.4
574.589	13.27
575.012	13.15
575.435	13.02
575.858	12.92
576.281	12.8
576.704	12.71
577.126	12.56
577.549	12.49
577.972	12.4
578.394	12.28
578.817	12.19
579.239	12.11
579.661	12.02
580.084	11.94
580.506	11.85
580.928	11.77
581.35	11.66
581.772	11.61
582.194	11.52
582.616	11.45
583.038	11.39
583.46	11.33
583.882	11.27
584.303	11.2
584.725	11.14
585.147	11.05
585.568	10.99
585.99	10.94
586.411	10.89
586.833	10.84
587.254	10.78
587.675	10.72
588.096	10.67
588.518	10.61
588.939	10.57
589.36	10.52
589.781	10.51
590.202	10.46
590.623	10.42
591.043	10.37
591.464	10.33
591.885	10.29
592.305	10.28
592.726	10.24
593.147	10.24
593.567	10.21
593.987	10.19
594.408	10.15
594.828	10.15
595.248	10.13
595.669	10.12
596.089	10.09
596.509	10.07
596.929	10.03
597.349	9.98
597.769	9.93
598.189	9.89
598.608	9.85
599.028	9.82
599.448	9.79
599.867	9.75
600.287	9.7
600.706	9.66
601.126	9.61
601.545	9.58
601.965	9.54
602.384	9.5
602.803	9.46
603.222	9.41
603.641	9.35
604.061	9.28
604.48	9.23
604.898	9.17
605.317	9.11
605.736	9.05
606.155	8.98
606.574	8.91
606.992	8.82
607.411	8.76
607.829	8.65
608.248	8.58
608.666	8.51
609.085	8.42
609.503	8.36
609.921	8.28
610.339	8.2
610.758	8.15
611.176	8.08
611.594	8.03
612.012	7.96
612.43	7.94
612.847	7.88
613.265	7.83
613.683	7.77
614.101	7.71
614.518	7.65
614.936	7.6
615.353	7.54
615.771	7.47
616.188	7.42
616.606	7.37
617.023	7.31
617.44	7.26
617.857	7.2
618.274	7.16
618.691	7.12
619.108	7.09
619.525	7.05
619.942	7.01
620.359	7
620.776	6.96
621.192	6.95
621.609	6.93
622.026	6.9
622.442	6.89
622.859	6.87
623.275	6.86
623.691	6.84
624.108	6.84
624.524	6.83
624.94	6.8
625.356	6.81
625.772	6.8
626.188	6.8
626.604	6.78
627.02	6.75
627.436	6.75
627.852	6.73
628.268	6.72
628.683	6.69
629.099	6.7
629.514	6.68
629.93	6.65
630.345	6.63
630.761	6.6
631.176	6.59
631.591	6.57
632.007	6.53
632.422	6.5
632.837	6.45
633.252	6.42
633.667	6.36
634.082	6.32
634.497	6.26
634.911	6.2
635.326	6.14
635.741	6.08
636.155	6.02
636.57	5.96
636.984	5.88
637.399	5.8
637.813	5.72
638.228	5.65
638.642	5.58
639.056	5.51
639.47	5.43
639.884	5.35
640.298	5.26
640.712	5.17
641.126	5.09
641.54	5.01
641.954	4.96
642.368	4.88
642.781	4.81
643.195	4.72
643.609	4.65
644.022	4.6
644.436	4.54
644.849	4.48
645.262	4.44
645.676	4.38
646.089	4.32
646.502	4.26
646.915	4.22
647.328	4.18
647.741	4.14
648.154	4.11
648.567	4.06
648.98	4.03
649.393	4
649.805	3.96
650.218	3.94
650.631	3.92
651.043	3.9
651.456	3.87
651.868	3.83
652.28	3.81
652.693	3.78
653.105	3.76
653.517	3.73
653.929	3.71
654.341	3.69
654.753	3.65
655.165	3.61
655.577	3.57
655.989	3.53
656.401	3.49
656.813	3.43
657.224	3.4
657.636	3.36
658.047	3.32
658.459	3.27
658.87	3.22
659.282	3.19
659.693	3.15
660.104	3.11
660.515	3.07
660.926	3.06
661.338	3.03
661.749	2.99
662.159	2.95
662.57	2.92
662.981	2.9
663.392	2.87
663.803	2.84
664.213	2.83
664.624	2.82
665.035	2.8
665.445	2.78
665.855	2.77
666.266	2.77
666.676	2.76
667.086	2.75
667.497	2.74
667.907	2.73
668.317	2.72
668.727	2.71
669.137	2.71
669.547	2.73
669.956	2.73
670.366	2.73
670.776	2.72
671.186	2.73
671.595	2.76
672.005	2.78
672.414	2.8
672.824	2.83
673.233	2.86
673.642	2.87
674.052	2.88
674.461	2.9
674.87	2.93
675.279	2.95
675.688	2.96
676.097	2.98
676.506	3
676.915	3.03
677.323	3.05
677.732	3.06
678.141	3.09
678.549	3.13
678.958	3.16
679.366	3.18
679.775	3.23
680.183	3.26
680.592	3.31
681	3.35
681.408	3.39
681.816	3.43
682.224	3.48
682.632	3.54
683.04	3.58
683.448	3.64
683.856	3.72
684.264	3.81
684.671	3.9
685.079	4
685.487	4.12
685.894	4.25
686.302	4.4
686.709	4.57
687.116	4.75
687.524	4.98
687.931	5.21
688.338	5.47
688.745	5.75
689.152	6.05
689.559	6.37
689.966	6.7
690.373	7.09
690.78	7.47
691.187	7.89
691.593	8.33
692	8.78
692.407	9.26
692.813	9.73
693.22	10.23
693.626	10.75
694.032	11.3
694.439	11.85
694.845	12.39
695.251	12.96
695.657	13.53
696.063	14.11
696.469	14.68
696.875	15.25
697.281	15.82
697.687	16.43
698.093	16.99
698.498	17.57
698.904	18.14
699.31	18.72
699.715	19.28
700.12	19.83
700.526	20.39
700.931	20.95
701.337	21.51
701.742	22.06
702.147	22.57
702.552	23.12
702.957	23.63
703.362	24.14
703.767	24.65
704.172	25.14
704.577	25.65
704.981	26.12
705.386	26.61
705.791	27.09
706.195	27.55
706.6	28.02
707.004	28.46
707.408	28.91
707.813	29.34
708.217	29.78
708.621	30.24
709.025	30.66
709.43	31.07
709.834	31.48
710.237	31.86
710.641	32.28
711.045	32.65
711.449	33.02
711.853	33.41
712.256	33.82
712.66	34.2
713.064	34.56
713.467	34.93
713.87	35.29
714.274	35.65
714.677	36
715.08	36.32
715.484	36.68
715.887	37.01
716.29	37.33
716.693	37.63
717.096	37.95
717.499	38.26
717.901	38.54
718.304	38.81
718.707	39.08
719.109	39.4
719.512	39.7
719.915	39.96
720.317	40.27
720.719	40.54
721.122	40.81
721.524	41.07
721.926	41.32
722.328	41.58
722.731	41.84
723.133	42.05
723.535	42.28
723.937	42.51
724.338	42.71
724.74	42.9
725.142	42.99
725.544	43.15
725.945	43.29
726.347	43.45
726.748	43.63
727.15	43.79
727.551	43.97
727.952	44.11
728.354	44.25
728.755	44.4
729.156	44.54
729.557	44.8
729.958	44.98
730.359	45.14
730.76	45.27
731.161	45.37
731.562	45.5
731.962	45.64
732.363	45.75
732.763	45.87
733.164	45.99
733.564	46.08
733.965	46.16
734.365	46.23
734.766	46.3
735.166	46.36
735.566	46.42
735.966	46.45
736.366	46.5
736.766	46.55
737.166	46.57
737.566	46.62
737.966	46.7
738.365	46.75
738.765	46.79
739.165	46.83
739.564	46.91
739.964	46.96
740.363	47.07
740.763	47.09
741.162	47.13
741.561	47.22
741.96	47.28
742.36	47.3
742.759	47.32
743.158	47.34
743.557	47.37
743.955	47.44
744.354	47.49
744.753	47.49
745.152	47.53
745.55	47.57
745.949	47.6
746.348	47.61
746.746	47.63
747.144	47.69
747.543	47.74
747.941	47.8
748.339	47.83
748.737	47.89
749.136	47.92
749.534	47.99
749.932	47.99
750.33	47.99
750.727	48.02
751.125	48.04
751.523	48.03
751.921	48.04
752.318	48.03
752.716	48.01
753.113	48
753.511	47.98
753.908	47.97
754.305	47.97
754.703	47.97
755.1	48
755.497	47.99
755.894	48
756.291	48.03
756.688	48.04
757.085	48.03
757.482	48.02
757.878	48.05
758.275	48.02
758.672	48.05
759.068	48.06
759.465	48.07
759.861	48.1
760.258	48.11
760.654	48.08
761.05	48.05
761.447	48.08
761.843	48.07
762.239	48.06
762.635	48.06
763.031	48.07
763.427	48.05
763.822	48
764.218	47.98
764.614	47.95
765.01	47.94
765.405	47.94
765.801	47.9
766.196	47.88
766.592	47.88
766.987	47.88
767.382	47.87
767.778	47.87
768.173	47.86
768.568	47.83
768.963	47.85
769.358	47.84
769.753	47.88
770.148	47.87
770.542	47.89
770.937	47.86
771.332	47.84
771.726	47.8
772.121	47.76
772.515	47.74
772.91	47.77
773.304	47.75
773.699	47.74
774.093	47.71
774.487	47.71
774.881	47.72
775.275	47.71
775.669	47.72
776.063	47.72
776.457	47.71
776.851	47.7
777.245	47.68
777.638	47.67
778.032	47.67
778.425	47.69
778.819	47.71
779.212	47.7
779.606	47.69
779.999	47.68
780.392	47.7
780.786	47.74
781.179	47.76
781.572	47.75
781.965	47.76
782.358	47.74
782.751	47.73
783.143	47.69
783.536	47.71
783.929	47.74
784.322	47.76
784.714	47.79
785.107	47.81
785.499	47.8
785.891	47.81
786.284	47.8
786.676	47.83
787.068	47.81
787.46	47.83
787.852	47.85
788.245	47.85
788.636	47.87
789.028	47.82
789.42	47.76
789.812	47.76
790.204	47.72
790.595	47.73
790.987	47.73
791.378	47.74
791.77	47.75
792.161	47.7
792.553	47.71
792.944	47.72
793.335	47.74
793.726	47.73
794.117	47.73
794.508	47.74
794.899	47.76
795.29	47.75
795.681	47.75
796.072	47.74
796.463	47.72
796.853	47.7
797.244	47.68
797.634	47.68
798.025	47.72
798.415	47.72
798.806	47.74
799.196	47.73
799.586	47.71
799.976	47.68
800.366	47.68
800.756	47.72
801.146	47.71
801.536	47.67
801.926	47.67
802.316	47.68
802.706	47.68
803.095	47.7
803.485	47.71
803.874	47.71
804.264	47.75
804.653	47.73
805.043	47.72
805.432	47.7
805.821	47.73
806.21	47.74
806.599	47.75
806.988	47.74
807.377	47.73
807.766	47.75
808.155	47.77
808.544	47.72
808.933	47.75
809.321	47.78
809.71	47.79
810.098	47.8
810.487	47.78
810.875	47.77
811.264	47.8
811.652	47.78
812.04	47.76
812.428	47.75
812.816	47.79
813.204	47.78
813.592	47.73
813.98	47.71
814.368	47.69
814.756	47.71
815.144	47.75
815.531	47.73
815.919	47.76
816.306	47.76
816.694	47.77
817.081	47.76
817.469	47.78
817.856	47.85
818.243	47.86
818.63	47.9
819.017	47.88
819.404	47.82
819.791	47.83
820.178	47.79
820.565	47.79
820.952	47.76
821.339	47.8
821.725	47.82
822.112	47.8
822.498	47.82
822.885	47.84
823.271	47.87
823.657	47.89
824.044	47.92
824.43	47.99
824.816	48
825.202	48.03
825.588	48.03
825.974	48.02
826.36	48.01
826.746	48.02
827.132	47.98
827.517	47.96
827.903	47.98
828.289	47.95
828.674	47.94
829.06	47.96
829.445	47.96
829.83	47.97
830.216	48
830.601	48
830.986	48.02
831.371	48.1
831.756	48.11
832.141	48.13
832.526	48.15
832.911	48.18
833.295	48.21
833.68	48.21
834.065	48.23
834.449	48.21
834.834	48.23
835.218	48.21
835.603	48.18
835.987	48.17
836.371	48.18
836.755	48.18
837.139	48.16
837.524	48.13
837.908	48.1
838.291	48.07
838.675	48.07
839.059	48.05
839.443	48.06
839.827	48.06
840.21	48.08
840.594	48.05
840.977	48.06
841.361	48.06
841.744	48.1
842.127	48.12
842.511	48.12
842.894	48.13
843.277	48.12
843.66	48.12
844.043	48.1
844.426	48.09
844.809	48.08
845.191	48.07
845.574	48.06
845.957	47.99
846.339	47.97
846.722	47.98
847.104	47.98
847.487	48.03
847.869	48.02
848.252	48.02
848.634	48.04
849.016	48.05
849.398	48.07
849.78	48.07
850.162	48.09
850.544	48.12
850.926	48.13
851.307	48.12
851.689	48.09
852.071	48.09
852.452	48.08
852.834	48.08
853.215	48.07
853.597	48.05
853.978	48.05
854.359	48.04
854.741	48.06
855.122	48.05
855.503	48.06
855.884	48.05
856.265	48.01
856.646	48.01
857.026	48.01
857.407	47.98
857.788	47.97
858.169	47.99
858.549	48
858.93	47.99
859.31	47.98
859.69	47.96
860.071	47.96
860.451	48
860.831	48.01
861.211	47.99
861.591	48.03
861.971	48.02
862.351	48.03
862.731	48.02
863.111	48.02
863.491	48.02
863.87	48.02
864.25	48.02
864.629	48
865.009	47.99
865.388	48.01
865.768	48.01
866.147	48.04
866.526	48
866.905	48.01
867.284	48.02
867.663	48.02
868.042	48.03
868.421	48.03
868.8	48.05
869.179	48.05
869.558	48.04
869.936	48.03
870.315	48
870.693	48.03
871.072	48.01
871.45	48
871.828	47.98
872.207	48
872.585	48.01
872.963	47.96
873.341	47.99
873.719	47.99
874.097	47.99
874.475	47.98
874.853	47.97
875.23	47.96
875.608	47.93
875.986	47.94
876.363	47.91
876.741	47.93
877.118	47.94
877.495	47.91
877.873	47.87
878.25	47.85
878.627	47.86
879.004	47.86
879.381	47.85
879.758	47.83
880.135	47.85
880.512	47.89
880.889	47.87
881.265	47.88
881.642	47.89
882.019	47.92
882.395	47.93
882.772	47.94
883.148	47.92
883.524	47.94
883.901	47.97
884.277	47.98
884.653	47.95
885.029	47.95
885.405	47.95
885.781	47.94
886.157	47.91
886.532	47.91
886.908	47.94
887.284	47.98
887.659	47.99
888.035	47.97
888.411	47.94
888.786	47.96
889.161	47.97
889.537	47.98
889.912	47.97
890.287	47.99
890.662	47.99
891.037	47.93
891.412	47.89
891.787	47.88
892.162	47.88
892.536	47.89
892.911	47.87
893.286	47.85
893.66	47.83
894.035	47.81
894.409	47.81
894.784	47.82
895.158	47.85
895.532	47.85
895.906	47.86
896.281	47.85
896.655	47.84
897.029	47.81
897.402	47.8
897.776	47.8
898.15	47.82
898.524	47.79
898.898	47.78
899.271	47.74
899.645	47.71
900.018	47.67
900.392	47.67
900.765	47.63
901.138	47.62
901.511	47.61
901.884	47.59
902.258	47.56
902.631	47.54
903.003	47.52
903.376	47.53
903.749	47.55
904.122	47.51
904.495	47.51
904.867	47.51
905.24	47.51
905.612	47.5
905.985	47.47
906.357	47.46
906.729	47.44
907.102	47.43
907.474	47.42
907.846	47.38
908.218	47.4
908.59	47.36
908.962	47.35
909.334	47.34
909.705	47.36
910.077	47.36
910.449	47.39
910.82	47.37
911.192	47.35
911.563	47.35
911.935	47.33
912.306	47.33
912.677	47.36
913.048	47.36
913.419	47.33
913.79	47.29
914.161	47.28
914.532	47.25
914.903	47.27
915.274	47.26
915.645	47.26
916.015	47.31
916.386	47.29
916.756	47.23
917.127	47.23
917.497	47.26
917.868	47.26
918.238	47.25
918.608	47.26
918.978	47.24
919.348	47.2
919.718	47.16
920.088	47.12
920.458	47.15
920.828	47.19
921.198	47.18
921.567	47.16
921.937	47.17
922.306	47.17
922.676	47.2
923.045	47.15
923.415	47.14
923.784	47.17
924.153	47.16
924.522	47.12
924.891	47.05
925.26	47.02
925.629	47
925.998	46.98
926.367	46.97
926.736	46.9
927.104	46.93
927.473	46.93
927.842	46.86
928.21	46.82
928.578	46.77
928.947	46.75
929.315	46.73
929.683	46.68
930.051	46.65
930.42	46.59
930.788	46.55
931.156	46.54
931.523	46.51
931.891	46.46
932.259	46.41
932.627	46.39
932.994	46.34
933.362	46.27
933.729	46.23
934.097	46.17
934.464	46.12
934.831	46.07
935.199	45.94
935.566	45.85
935.933	45.83
936.3	45.74
936.667	45.67
937.034	45.59
937.401	45.54
937.767	45.46
938.134	45.4
938.501	45.31
938.867	45.27
939.234	45.29
939.6	45.35
939.967	45.34
940.333	45.41
940.699	45.46
941.065	45.52
941.431	45.56
941.798	45.65
942.163	45.69
942.529	45.74
942.895	45.78
943.261	45.78
943.627	45.81
943.992	45.9
944.358	45.89
944.723	45.89
945.089	46.05
945.454	46.04
945.82	46.06
946.185	46.14
946.55	46.26
946.915	46.31
947.28	46.33
947.645	46.32
948.01	46.31
948.375	46.42
948.74	46.41
949.104	46.37
949.469	46.41
949.834	46.4
950.198	46.29
950.562	46.27
950.927	46.25
951.291	46.24
951.655	46.23
952.02	46.19
952.384	46.2
952.748	46.18
953.112	46.09
953.476	46.04
953.839	45.97
954.203	45.95
954.567	45.84
954.931	45.84
955.294	45.8
955.658	45.72
956.021	45.72
956.385	45.68
956.748	45.69
957.111	45.78
957.474	45.78
957.837	45.83
958.2	45.86
958.563	45.88
958.926	45.83
959.289	45.86
959.652	45.91
960.015	45.84
960.377	45.75
960.74	45.71
961.102	45.6
961.465	45.58
961.827	45.46
962.189	45.43
962.552	45.41
962.914	45.38
963.276	45.36
963.638	45.3
964	45.3
964.362	45.36
964.724	45.36
965.085	45.38
965.447	45.4
965.809	45.41
966.17	45.38
966.532	45.43
966.893	45.38
967.255	45.29
967.616	45.28
967.977	45.25
968.338	45.15
968.699	45.1
969.061	45.04
969.421	45.01
969.782	44.99
970.143	44.96
970.504	44.84
970.865	44.75
971.225	44.77
971.586	44.82
971.946	44.81
972.307	44.83
972.667	44.88
973.027	44.95
973.388	44.88
973.748	44.92
974.108	44.9
974.468	44.95
974.828	44.97
975.188	45.03
975.548	45.03
975.907	45.03
976.267	45.06
976.627	45.02
976.986	44.99
977.346	45.05
977.705	45.04
978.064	45.07
978.424	45.08
978.783	45.24
979.142	45.13
979.501	45.06
979.86	45.09
980.219	44.98
980.578	45.01
980.937	44.93
981.296	44.91
981.654	44.88
982.013	44.8
982.371	44.67
982.73	44.59
983.088	44.57
983.447	44.57
983.805	44.5
984.163	44.52
984.521	44.4
984.879	44.38
985.237	44.31
985.595	44.32
985.953	44.24
986.311	44.36
986.669	44.4
987.026	44.43
987.384	44.41
987.741	44.39
988.099	44.33
988.456	44.31
988.814	44.4
989.171	44.39
989.528	44.27
989.885	44.32
990.242	44.22
990.599	44.13
990.956	44.09
991.313	44.04
991.67	44.05
992.027	44.03
992.383	44
992.74	43.81
993.096	43.74
993.453	43.83
993.809	43.82
994.165	43.81
994.522	43.64
994.878	43.63
995.234	43.58
995.59	43.42
995.946	43.48
996.302	43.53
996.658	43.58
997.013	43.68
997.369	43.65
997.725	43.62
998.08	43.59
998.436	43.74
998.791	43.58
999.147	43.58
999.502	43.63
999.857	43.67
1000.212	43.63
1000.567	43.63
1000.922	43.57
1001.277	43.48
1001.632	43.56
1001.987	43.47
1002.342	43.41
1002.696	43.53
1003.051	43.3
1003.406	43.17
1003.76	43.07
1004.114	43.08
1004.469	42.98
1004.823	42.98
1005.177	43.04
1005.531	42.85
1005.885	42.95
1006.239	42.88
1006.593	42.7
1006.947	42.79
1007.301	42.89
1007.655	42.8
1008.008	42.55
1008.362	42.43
1008.715	42.24
1009.069	42.16
1009.422	42.18
1009.776	42.18
1010.129	42.01
1010.482	42.1
1010.835	42.3
1011.188	42.14
1011.541	42.02
1011.894	42.25
1012.247	42.24
1012.6	42.23
1012.952	42.29
1013.305	42.09
1013.657	41.93
1014.01	42.01
1014.362	42.03
1014.715	41.63
1015.067	41.61
1015.419	41.75
1015.771	41.63
1016.123	41.78
1016.475	41.8
1016.827	41.82
1017.179	42.06
1017.531	41.95
1017.883	42.02
1018.234	41.84
1018.586	41.9
1018.938	41.77
1019.289	41.45
1019.64	41.46
1019.992	41.35
1020.343	41
1020.694	40.68
1021.045	40.43
1021.396	40.47
1021.747	40.51
1022.098	40.58
1022.449	40.61
1022.8	40.66
1023.151	40.96
1023.501	40.96
1023.852	40.85
1024.202	41.15
1024.553	41.13
1024.903	41.14
1025.253	40.87
1025.604	40.62
1025.954	40.47
1026.304	40.55
1026.654	40.46
1027.004	40.54
1027.354	40.26
1027.703	40.28
1028.053	39.98
1028.403	39.7
1028.753	39.97
1029.102	39.97
1029.452	39.82
1029.801	39.7
1030.15	39.68
1030.499	39.78
897.758	-93.64
901.051	-82.54
904.343	-84.95
907.636	-83.13
910.928	-75.34
914.22	-76.85
917.511	-77.2
920.803	-69.2
924.094	-63.48
927.384	-62.27
930.675	-56.51
933.965	-55.66
937.255	-57.4
940.544	-52.02
943.834	-49.77
947.123	-52.21
950.411	-45.48
953.7	-42.53
956.988	-42.55
960.276	-34.7
963.563	-32.84
966.851	-28.91
970.138	-25.84
973.424	-22.59
976.711	-20.36
979.997	-15
983.283	-14.26
986.568	-14.03
989.853	-9.3
993.138	-5.55
996.423	-7.63
999.708	-4.41
1002.992	-4.89
1006.275	-2.81
1009.559	-2.43
1012.842	-1.76
1016.125	-1.38
1019.408	0.81
1022.69	2.96
1025.972	2.67
1029.254	2.93
1032.536	4.46
1035.817	5.35
1039.098	6.73
1042.379	8.4
1045.659	9.55
1048.939	10.89
1052.219	11.02
1055.498	11.96
1058.778	11.96
1062.057	12.32
1065.335	14.01
1068.614	14.04
1071.892	14.22
1075.17	14.54
1078.447	15.21
1081.724	15.95
1085.001	14.82
1088.278	15.87
1091.554	15.81
1094.83	16.61
1098.106	16.96
1101.382	17.15
1104.657	18.09
1107.932	17.45
1111.206	19.15
1114.481	18.31
1117.755	18.07
1121.029	18.87
1124.302	19.46
1127.575	20.62
1130.848	20.04
1134.121	20.19
1137.393	19.78
1140.665	18.57
1143.937	19.51
1147.208	19.74
1150.48	20.22
1153.75	19.34
1157.021	20.73
1160.291	21.1
1163.561	19.77
1166.831	20.23
1170.101	20.08
1173.37	20.58
1176.639	21.05
1179.907	20.62
1183.176	19.38
1186.444	19.11
1189.711	19.79
1192.979	18.39
1196.246	18.16
1199.513	18.47
1202.78	18.35
1206.046	19.03
1209.312	18.74
1212.578	18.85
1215.843	19.12
1219.108	18.21
1222.373	18.49
1225.638	18.06
1228.902	18.2
1232.166	16.55
1235.43	15.01
1238.693	14.68
1241.956	12.78
1245.219	11.73
1248.482	12.44
1251.744	11.78
1255.006	13.75
1258.268	12.92
1261.529	13.2
1264.79	14.44
1268.051	15.49
1271.312	17.39
1274.572	17.06
1277.832	19.52
1281.092	19.9
1284.351	20.11
1287.61	20.07
1290.869	19.83
1294.128	20.39
1297.386	21.22
1300.644	19.99
1303.902	19.23
1307.159	19.02
1310.416	19.2
1313.673	18.23
1316.93	17.33
1320.186	16.58
1323.442	15.86
1326.697	15.02
1329.953	13.78
1333.208	10.83
1336.463	8.83
1339.717	9.35
1342.972	6.97
1346.226	4.87
1349.479	3.23
1352.733	1.78
1355.986	-0.31
1359.238	-1.13
1362.491	-3.43
1365.743	-4.2
1368.995	-2.87
1372.247	-3.04
1375.498	-4.21
1378.749	-7.99
1382	-8.1
1385.251	-9.49
1388.501	-10.46
1391.751	-11
1395	-11.72
1398.25	-12.01
1401.499	-14.31
1404.748	-16.8
1407.996	-15.24
1411.244	-16.09
1414.492	-15.1
1417.74	-15.04
1420.987	-13.7
1424.234	-13.84
1427.481	-14.31
1430.728	-13.22
1433.974	-12.64
1437.22	-11.84
1440.465	-11.02
1443.711	-11.37
1446.956	-10.14
1450.201	-8.33
1453.445	-7.82
1456.689	-6.99
1459.933	-5.78
1463.177	-4.57
1466.42	-4.4
1469.663	-4.01
1472.906	-2.62
1476.148	-2.23
1479.391	-1.21
1482.633	-0.91
1485.874	0.12
1489.115	1.22
1492.356	1.69
1495.597	2.17
1498.838	3.06
1502.078	3.87
1505.318	4.49
1508.557	4.55
1511.797	6.24
1515.036	7.33
1518.274	7.69
1521.513	7.83
1524.751	8.25
1527.989	9.11
1531.227	9.18
1534.464	10.01
1537.701	10.82
1540.938	11.07
1544.174	11.1
1547.41	11.53
1550.646	11.95
1553.882	12.66
1557.117	12.94
1560.352	13.4
1563.587	13.29
1566.821	13.63
1570.055	14.33
1573.289	14.62
1576.523	14.93
1579.756	16
1582.989	16.24
1586.222	15.94
1589.454	16.78
1592.686	17.03
1595.918	16.81
1599.15	17.43
1602.381	17.39
1605.612	17.68
1608.843	17.33
1612.073	17.18
1615.303	17.72
1618.533	17.08
1621.762	17.57
1624.992	16.68
1628.221	16.77
1631.449	17.19
1634.678	17.64
1637.906	18
1641.134	17.71
1644.361	17.9
1647.588	18.56
1650.815	18.17
1654.042	19.14
1657.269	18.91
1660.495	19.39
1663.72	19.69
1666.946	19.57
1670.171	19.35
1673.396	19.11
1676.621	19.27
1679.845	19.97
1683.069	18.62
1686.293	18.55
1689.517	18.3
1692.74	18.25
1695.963	18.14
1699.185	17.66
1702.408	17.64
1705.63	17.41
1708.852	17.47
1712.073	16.98
1715.294	15.89
1718.515	17.7
1721.736	17.26
1724.956	16.7
1728.176	16.72
1731.396	16.07
1734.616	16.66
1737.835	16.18
1741.054	15.74
1744.272	16.17
1747.491	16.24
1750.709	16.05
1753.927	15.02
1757.144	15.46
1760.361	15.12
1763.578	14.66
1766.795	15.06
1770.011	14.21
1773.227	14.22
1776.443	13.96
1779.658	12.82
1782.874	12.56
1786.089	12.12
1789.303	12.24
1792.518	11.49
1795.732	11.53
1798.945	11.85
1802.159	11.68
1805.372	11.48
1808.585	10.91
1811.797	11.37
1815.01	11.4
1818.222	11.46
1821.434	11.07
1824.645	10.26
1827.856	9.79
1831.067	9.16
1834.278	9.08
1837.488	8.2
1840.698	7.36
1843.908	6.99
1847.117	6.25
1850.326	5.31
1853.535	4.77
1856.744	4.07
1859.952	3.7
1863.16	2.58
1866.368	2.19
1869.575	0.14
1872.782	-0.72
1875.989	-3.39
1879.196	-3.34
1882.402	-5.78
1885.608	-5.99
1888.814	-8.11
1892.019	-10.57
1895.224	-12.14
1898.429	-12.94
1901.634	-14.42
1904.838	-16.85
1908.042	-17.87
1911.246	-16.42
1914.449	-17.53
1917.652	-18.65
1920.855	-19.61
1924.058	-19.71
1927.26	-20.26
1930.462	-20.42
1933.664	-19.15
1936.865	-19.61
1940.066	-18.59
1943.267	-18.96
1946.467	-20.08
1949.668	-20.64
1952.868	-19.45
1956.067	-19.63
1959.267	-18.8
1962.466	-18.63
1965.665	-17.88
1968.863	-18.72
1972.061	-17.81
1975.259	-18.15
1978.457	-18.68
1981.654	-17.05
1984.852	-16.96
1988.048	-16.78
1991.245	-16.61
1994.441	-17.3
1997.637	-17.88
2000.833	-17.23
2004.028	-17.88
2007.223	-19.54
2010.418	-18.35
2013.613	-17.51
2016.807	-18.83
2020.001	-19.01
2023.194	-18.08
2026.388	-19.83
2029.581	-21.27
2032.774	-21.47
2035.966	-23.22
2039.158	-22.84
2042.35	-23.44
2045.542	-25.37
2048.733	-26.59
2051.924	-29.72
2055.115	-30.63
2058.306	-32.22
2061.496	-34.34
2064.686	-33.22
2067.875	-32.29
2071.065	-31.86
2074.254	-31.7
2077.442	-34.57
2080.631	-34.26
2083.819	-34.84
2087.007	-33.35
2090.195	-34.66
2093.382	-35.04
2096.569	-34.07
2099.756	-31.19
2102.942	-32.52
2106.128	-35.39
2109.314	-35.48
2112.5	-32.98
2115.685	-34.18
2118.87	-34.51
2122.055	-32.73
2125.239	-35.03
2128.424	-33.11
2131.608	-34.38
2134.791	-38.5
2137.974	-38.68
2141.157	-36.36
2144.34	-38.36
2147.523	-36.37
2150.705	-36.01
2153.887	-35.84
2157.068	-36.91
2160.25	-37
2163.431	-35.95
2166.611	-34.36
2169.792	-35.72
2172.972	-33.68
2176.152	-33.93
2179.331	-36.44
2182.511	-39.67
2185.69	-38.93
2188.868	-42.83
2192.047	-45.76
2195.225	-43.45
2198.403	-52.63
2201.58	-50.04
2204.758	-51.06
2207.935	-54.45
2211.111	-60.05
2214.288	-56.95
2217.464	-55.98
2220.64	-55.25
2223.815	-55.87
2226.991	-52.48
2230.166	-53.31
2233.34	-53.69
2236.515	-58.89
2239.689	-59.76
2242.863	-60.2
2246.036	-55.85
2249.209	-63.91
2252.382	-63.46
2255.555	-70.68
2258.727	-69.42
2261.9	-78.51
2265.071	-80.46
2268.243	-73.63
2271.414	-77.3
2274.585	-78.16
2277.756	-80.79
2280.926	-84.74
2284.096	-80.28
2287.266	-81.48
2290.436	-77.85
2293.605	-80.51
2296.774	-76.32
2299.942	-81.26
2303.111	-82.66
2306.279	-84.5
2309.447	-85.62
2312.614	-82.39
2315.781	-90.67
2318.948	-89.96
2322.115	-92.62
2325.281	-103.7
2328.447	-101.21
2331.613	-106.09
2334.779	-102.49
2337.944	-113.78
2341.109	-115.64
2344.274	-112.08
2347.438	-120.94
2350.602	-120.45
2353.766	-132.02
2356.929	-135.35
2360.092	-124.51
2363.255	-126.97
2366.418	-125.97
2369.58	-130.34
2372.742	-119
2375.904	-118.52
2379.066	-125.04
2382.227	-128.57
2385.388	-135.78
2388.548	-125.05
2391.709	-115.78
2394.869	-136.6
2398.029	-129.36
2401.188	-132.4
2404.347	-140.78
2407.506	-153.84
2410.665	-142.37
2413.823	-150.45
2416.981	-150.4
2420.139	-135.8
2423.296	-149.1
2426.453	-166.15
2429.61	-147.86
2432.767	-171.37
2435.923	-171.92
2439.079	-153.93
2442.235	-162.57
2445.391	-167.91
2448.546	-153.93
2451.701	-175.65
2454.855	-191.56
2458.009	-158.4
2461.163	-162.35
2464.317	-164.71
2467.471	-155.24
2470.624	-160.45
2473.777	-163.48
2476.929	-148.49
2480.082	-165.05
2483.234	-180.33
2486.385	-172.24
2489.537	-171.02
2492.688	-194.7
2495.839	-197.52
2498.989	-205.4
2502.14	-203.7
2505.29	-190.74
2508.439	-225.88
2511.589	-238.08
2514.738	-225.45
2517.887	-224.82
2521.035	-214.75
2524.183	-215.42
2527.331	-214.78
2530.479	-201.97
2533.627	-208.66
