Data from C_1_DIV_IL_4n_007_Splice17_01.txt Node
Date: Sat Feb 29 13:09:12 EST 2020
User: sa697716
Spectrometer: FLMS03696
Trigger mode: 0
Integration Time (sec): 3.180400E-1
Scans to average: 20
Electric dark correction enabled: true
Nonlinearity correction enabled: true
Boxcar width: 5
XAxis mode: Wavelengths
Number of Pixels in Spectrum: 2048
>>>>>Begin Spectral Data<<<<<
187.83	60.11
188.298	54.15
188.766	45.64
189.233	30.13
189.701	37.9
190.169	48.44
190.636	48.23
191.104	9.87
191.571	-4.35
192.039	131.07
192.506	251.3
192.974	6103.4
193.441	-295.42
193.908	39.24
194.375	-63.64
194.842	-36.57
195.31	2.17
195.777	-32.64
196.244	-17.79
196.711	9.88
197.177	10.7
197.644	11.1
198.111	10.2
198.578	10.25
199.045	11.38
199.511	11.3
199.978	11.62
200.445	11.65
200.911	12.12
201.378	12.23
201.844	12.2
202.31	11.97
202.777	12.03
203.243	12.52
203.709	12.91
204.176	12.07
204.642	12.48
205.108	12.22
205.574	12.6
206.04	12.46
206.506	12.48
206.972	12.33
207.438	11.93
207.903	11.96
208.369	11.55
208.835	11.43
209.301	11.41
209.766	11.08
210.232	11.05
210.697	10.77
211.163	10.5
211.628	9.85
212.094	9.36
212.559	9.16
213.024	8.71
213.49	8.3
213.955	7.88
214.42	7.64
214.885	7.03
215.35	6.53
215.815	5.95
216.28	5.37
216.745	5.02
217.21	4.62
217.675	4.14
218.14	3.63
218.604	3.16
219.069	2.81
219.534	2.46
219.998	2.18
220.463	1.97
220.927	1.81
221.392	1.71
221.856	1.53
222.32	1.39
222.785	1.3
223.249	1.23
223.713	1.18
224.177	1.1
224.642	1.08
225.106	1.06
225.57	1.01
226.034	0.95
226.497	0.86
226.961	0.83
227.425	0.78
227.889	0.75
228.353	0.69
228.816	0.7
229.28	0.66
229.744	0.63
230.207	0.6
230.671	0.58
231.134	0.56
231.597	0.54
232.061	0.53
232.524	0.52
232.987	0.51
233.45	0.51
233.914	0.5
234.377	0.51
234.84	0.5
235.303	0.5
235.766	0.49
236.229	0.49
236.691	0.5
237.154	0.5
237.617	0.49
238.08	0.48
238.542	0.47
239.005	0.46
239.468	0.44
239.93	0.43
240.393	0.43
240.855	0.41
241.317	0.41
241.78	0.41
242.242	0.4
242.704	0.39
243.166	0.4
243.629	0.39
244.091	0.37
244.553	0.37
245.015	0.37
245.477	0.36
245.939	0.36
246.4	0.35
246.862	0.35
247.324	0.36
247.786	0.36
248.247	0.34
248.709	0.35
249.17	0.35
249.632	0.34
250.093	0.32
250.555	0.33
251.016	0.33
251.477	0.32
251.939	0.3
252.4	0.29
252.861	0.29
253.322	0.29
253.783	0.29
254.244	0.29
254.705	0.29
255.166	0.3
255.627	0.29
256.088	0.28
256.549	0.28
257.009	0.29
257.47	0.29
257.931	0.28
258.391	0.27
258.852	0.25
259.312	0.25
259.773	0.24
260.233	0.24
260.694	0.23
261.154	0.23
261.614	0.22
262.074	0.22
262.534	0.21
262.994	0.21
263.455	0.22
263.915	0.22
264.374	0.21
264.834	0.21
265.294	0.2
265.754	0.2
266.214	0.2
266.673	0.19
267.133	0.18
267.593	0.19
268.052	0.17
268.512	0.17
268.971	0.17
269.431	0.17
269.89	0.17
270.349	0.17
270.809	0.17
271.268	0.17
271.727	0.18
272.186	0.18
272.645	0.18
273.104	0.18
273.563	0.18
274.022	0.19
274.481	0.19
274.94	0.19
275.399	0.19
275.857	0.19
276.316	0.19
276.775	0.19
277.233	0.19
277.692	0.19
278.15	0.19
278.609	0.18
279.067	0.18
279.525	0.18
279.984	0.18
280.442	0.18
280.9	0.19
281.358	0.19
281.816	0.19
282.274	0.19
282.732	0.2
283.19	0.2
283.648	0.21
284.106	0.21
284.564	0.22
285.021	0.23
285.479	0.22
285.937	0.22
286.394	0.21
286.852	0.22
287.309	0.23
287.767	0.22
288.224	0.23
288.682	0.22
289.139	0.23
289.596	0.21
290.053	0.21
290.511	0.21
290.968	0.21
291.425	0.21
291.882	0.2
292.339	0.2
292.796	0.2
293.252	0.2
293.709	0.2
294.166	0.2
294.623	0.2
295.079	0.2
295.536	0.2
295.992	0.2
296.449	0.2
296.905	0.2
297.362	0.2
297.818	0.2
298.274	0.2
298.731	0.2
299.187	0.2
299.643	0.2
300.099	0.2
300.555	0.2
301.011	0.2
301.467	0.2
301.923	0.2
302.379	0.2
302.835	0.21
303.291	0.2
303.746	0.21
304.202	0.2
304.658	0.2
305.113	0.2
305.569	0.2
306.024	0.2
306.479	0.2
306.935	0.21
307.39	0.21
307.845	0.22
308.301	0.22
308.756	0.23
309.211	0.24
309.666	0.24
310.121	0.24
310.576	0.24
311.031	0.24
311.486	0.25
311.94	0.24
312.395	0.25
312.85	0.25
313.305	0.24
313.759	0.24
314.214	0.24
314.668	0.25
315.123	0.26
315.577	0.26
316.032	0.27
316.486	0.27
316.94	0.28
317.394	0.28
317.849	0.27
318.303	0.28
318.757	0.27
319.211	0.26
319.665	0.26
320.119	0.25
320.572	0.25
321.026	0.25
321.48	0.25
321.934	0.25
322.387	0.25
322.841	0.24
323.295	0.24
323.748	0.24
324.202	0.25
324.655	0.24
325.108	0.24
325.562	0.24
326.015	0.23
326.468	0.24
326.921	0.23
327.374	0.24
327.827	0.24
328.28	0.24
328.733	0.24
329.186	0.25
329.639	0.25
330.092	0.26
330.545	0.26
330.997	0.27
331.45	0.27
331.903	0.27
332.355	0.27
332.808	0.28
333.26	0.28
333.713	0.29
334.165	0.29
334.617	0.28
335.069	0.29
335.522	0.3
335.974	0.3
336.426	0.31
336.878	0.31
337.33	0.3
337.782	0.29
338.234	0.29
338.686	0.29
339.137	0.3
339.589	0.3
340.041	0.3
340.493	0.28
340.944	0.29
341.396	0.29
341.847	0.29
342.299	0.29
342.75	0.29
343.201	0.29
343.653	0.29
344.104	0.29
344.555	0.29
345.006	0.29
345.457	0.29
345.908	0.29
346.359	0.29
346.81	0.29
347.261	0.29
347.712	0.29
348.163	0.29
348.613	0.29
349.064	0.28
349.515	0.28
349.965	0.28
350.416	0.28
350.866	0.28
351.317	0.28
351.767	0.28
352.217	0.28
352.668	0.29
353.118	0.29
353.568	0.29
354.018	0.31
354.468	0.3
354.918	0.31
355.368	0.31
355.818	0.31
356.268	0.32
356.718	0.32
357.168	0.32
357.617	0.31
358.067	0.31
358.517	0.3
358.966	0.31
359.416	0.3
359.865	0.31
360.315	0.31
360.764	0.32
361.213	0.3
361.663	0.31
362.112	0.32
362.561	0.32
363.01	0.34
363.459	0.34
363.908	0.34
364.357	0.35
364.806	0.34
365.255	0.35
365.703	0.35
366.152	0.35
366.601	0.36
367.05	0.36
367.498	0.36
367.947	0.36
368.395	0.37
368.844	0.37
369.292	0.38
369.74	0.39
370.189	0.38
370.637	0.38
371.085	0.39
371.533	0.39
371.981	0.4
372.429	0.39
372.877	0.39
373.325	0.37
373.773	0.38
374.221	0.38
374.669	0.38
375.116	0.38
375.564	0.39
376.012	0.4
376.459	0.4
376.907	0.41
377.354	0.42
377.801	0.43
378.249	0.45
378.696	0.47
379.143	0.48
379.591	0.5
380.038	0.53
380.485	0.55
380.932	0.58
381.379	0.61
381.826	0.65
382.273	0.7
382.72	0.76
383.166	0.83
383.613	0.91
384.06	1
384.506	1.11
384.953	1.25
385.4	1.4
385.846	1.58
386.292	1.8
386.739	2.03
387.185	2.3
387.631	2.54
388.078	2.76
388.524	2.91
388.97	3.06
389.416	3.25
389.862	3.53
390.308	3.89
390.754	4.32
391.2	4.73
391.645	5.07
392.091	5.33
392.537	5.63
392.983	6.12
393.428	6.86
393.874	7.79
394.319	8.82
394.765	9.86
395.21	10.9
395.655	11.97
396.101	13.14
396.546	14.5
396.991	16.02
397.436	17.66
397.881	19.29
398.326	20.86
398.771	22.32
399.216	23.74
399.661	25.04
400.106	26.25
400.551	27.35
400.995	28.32
401.44	29.19
401.885	30.03
402.329	30.88
402.774	31.79
403.218	32.81
403.663	33.93
404.107	35.17
404.551	36.46
404.995	37.65
405.44	38.77
405.884	39.98
406.328	41.39
406.772	43
407.216	44.7
407.66	46.3
408.104	47.75
408.547	48.99
408.991	50.07
409.435	51.26
409.879	52.67
410.322	54.28
410.766	55.91
411.209	57.45
411.653	58.87
412.096	60.14
412.54	61.29
412.983	62.48
413.426	63.8
413.869	65.21
414.312	66.56
414.756	67.8
415.199	68.9
415.642	69.93
416.085	70.84
416.527	71.53
416.97	72.01
417.413	72.28
417.856	72.34
418.298	72.35
418.741	72.42
419.184	72.66
419.626	73.01
420.069	73.47
420.511	73.97
420.953	74.47
421.396	75.08
421.838	76
422.28	77.21
422.722	78.48
423.164	79.7
423.606	80.82
424.048	81.65
424.49	82.07
424.932	81.78
425.374	80.7
425.816	78.99
426.258	77.18
426.699	75.86
427.141	75.56
427.582	76.3
428.024	77.62
428.465	79.06
428.907	80.45
429.348	81.71
429.789	83.37
430.231	86.07
430.672	89.99
431.113	94.47
431.554	98.89
431.995	102.3
432.436	104.7
432.877	106.52
433.318	107.93
433.759	109.42
434.2	111.36
434.64	113.85
435.081	116.3
435.522	118.35
435.962	120.03
436.403	121.35
436.843	122.59
437.284	123.89
437.724	125.23
438.164	127.01
438.604	129.08
439.045	131.28
439.485	133.25
439.925	134.9
440.365	136.23
440.805	137.21
441.245	137.97
441.685	138.68
442.125	139.6
442.564	140.77
443.004	142.06
443.444	143.45
443.883	144.94
444.323	146.49
444.762	148
445.202	149.72
445.641	151.84
446.081	154.47
446.52	157.2
446.959	159.76
447.398	161.67
447.837	162.98
448.276	163.46
448.716	163.73
449.154	164
449.593	164.27
450.032	164.45
450.471	164.13
450.91	163.46
451.349	162.75
451.787	162.18
452.226	161.86
452.664	161.77
453.103	161.85
453.541	161.91
453.98	161.56
454.418	161.13
454.856	160.42
455.295	159.83
455.733	159.27
456.171	158.76
456.609	158.35
457.047	157.98
457.485	157.81
457.923	157.93
458.361	158.28
458.798	158.86
459.236	159.41
459.674	159.93
460.111	160.52
460.549	161.09
460.987	161.76
461.424	162.37
461.862	163.02
462.299	163.48
462.736	164.09
463.173	164.82
463.611	165.84
464.048	167.18
464.485	168.84
464.922	170.69
465.359	172.45
465.796	173.98
466.233	175.47
466.67	177.26
467.106	179.58
467.543	182.09
467.98	184.53
468.416	186.69
468.853	188.48
469.29	190.26
469.726	191.99
470.162	193.99
470.599	196.17
471.035	198.09
471.471	199.49
471.907	200.23
472.344	200.66
472.78	201.09
473.216	201.74
473.652	202.4
474.088	202.87
474.523	203.12
474.959	203.11
475.395	203.06
475.831	202.98
476.266	203.03
476.702	203.11
477.138	203.02
477.573	202.74
478.008	202.03
478.444	201.16
478.879	200.01
479.314	198.69
479.75	197.25
480.185	195.47
480.62	193.37
481.055	190.38
481.49	186.41
481.925	182.03
482.36	177.92
482.795	174.38
483.229	171.63
483.664	169.51
484.099	167.61
484.534	165.96
484.968	164.65
485.403	163.93
485.837	164.12
486.271	165.14
486.706	166.39
487.14	167.19
487.574	167.49
488.009	167.36
488.443	167.05
488.877	166.79
489.311	166.54
489.745	166.37
490.179	166.26
490.613	166.09
491.046	165.96
491.48	165.98
491.914	166.38
492.348	167.06
492.781	167.66
493.215	168.16
493.648	168.43
494.082	168.53
494.515	168.55
494.948	168.5
495.382	168.4
495.815	168.18
496.248	167.89
496.681	167.4
497.114	166.81
497.547	166.34
497.98	166.07
498.413	166.21
498.846	166.5
499.279	166.77
499.711	166.85
500.144	167.08
500.577	167.66
501.009	168.69
501.442	170.05
501.874	171.5
502.306	172.88
502.739	173.92
503.171	174.76
503.603	175.5
504.036	176.28
504.468	177.4
504.9	178.54
505.332	179.42
505.764	180.1
506.196	180.62
506.627	181.23
507.059	182.01
507.491	182.94
507.923	183.85
508.354	184.72
508.786	185.5
509.217	185.88
509.649	186.22
510.08	186.56
510.512	186.96
510.943	187.5
511.374	187.84
511.805	187.69
512.237	186.95
512.668	185.89
513.099	185.02
513.53	184.3
513.961	183.81
514.391	183.51
514.822	183.63
515.253	183.99
515.684	184.38
516.114	184.99
516.545	185.99
516.975	187.91
517.406	190.2
517.836	192.31
518.267	194.18
518.697	195.94
519.127	197.66
519.558	199.18
519.988	200.48
520.418	201.68
520.848	202.68
521.278	203.49
521.708	203.64
522.138	203.26
522.567	202.87
522.997	202.67
523.427	202.76
523.857	202.92
524.286	203.26
524.716	203.64
525.145	203.88
525.575	204.1
526.004	204.61
526.433	205.63
526.863	207.19
527.292	208.74
527.721	209.9
528.15	210.46
528.579	210.61
529.008	210.38
529.437	210.05
529.866	209.73
530.295	209.6
530.724	209.54
531.152	209.41
531.581	209.26
532.01	209
532.438	208.79
532.867	208.9
533.295	209.13
533.723	209.4
534.152	209.56
534.58	209.59
535.008	209.27
535.436	208.62
535.865	207.74
536.293	206.78
536.721	206.14
537.149	205.85
537.576	205.76
538.004	205.68
538.432	205.59
538.86	205.51
539.287	205.77
539.715	206.3
540.143	207
540.57	207.87
540.998	208.98
541.425	209.97
541.852	210.92
542.28	211.69
542.707	212.43
543.134	213.03
543.561	213.55
543.988	214.04
544.415	214.59
544.842	215.15
545.269	215.81
545.696	216.27
546.123	216.81
546.549	217.28
546.976	217.76
547.403	218.3
547.829	218.96
548.256	219.59
548.682	219.97
549.108	220.38
549.535	220.78
549.961	221.1
550.387	221.5
550.813	221.94
551.24	222.29
551.666	222.52
552.092	222.49
552.518	222.31
552.943	222.21
553.369	222.13
553.795	221.78
554.221	221.22
554.646	220.39
555.072	219.39
555.498	218.35
555.923	217.48
556.349	216.8
556.774	216.34
557.199	215.93
557.625	215.38
558.05	214.84
558.475	214.45
558.9	214.15
559.325	213.93
559.75	213.7
560.175	213.38
560.6	212.8
561.025	211.91
561.449	210.83
561.874	209.71
562.299	208.87
562.723	208.03
563.148	207.11
563.572	206.2
563.997	205.12
564.421	203.97
564.846	202.87
565.27	201.89
565.694	200.88
566.118	199.81
566.542	198.74
566.966	197.52
567.39	196.34
567.814	195.35
568.238	194.52
568.662	194.05
569.086	193.65
569.509	193.38
569.933	193.02
570.357	192.75
570.78	192.55
571.204	192.38
571.627	192.35
572.05	192.38
572.474	192.25
572.897	192.06
573.32	191.71
573.743	191.3
574.166	190.76
574.589	190.33
575.012	190.15
575.435	190.17
575.858	190.33
576.281	190.46
576.704	190.53
577.126	190.64
577.549	190.87
577.972	191.29
578.394	191.77
578.817	192.32
579.239	192.96
579.661	193.4
580.084	193.75
580.506	193.95
580.928	193.95
581.35	193.86
581.772	193.67
582.194	193.35
582.616	193.02
583.038	192.72
583.46	192.39
583.882	191.65
584.303	190.57
584.725	189.05
585.147	187.39
585.568	185.99
585.99	184.96
586.411	184.21
586.833	183.48
587.254	182.73
587.675	182.07
588.096	181.48
588.518	181.13
588.939	181.13
589.36	181.51
589.781	182.15
590.202	182.57
590.623	182.64
591.043	182.43
591.464	182.15
591.885	181.83
592.305	181.41
592.726	180.92
593.147	180.44
593.567	179.77
593.987	179.16
594.408	178.45
594.828	177.76
595.248	177.15
595.669	176.44
596.089	175.66
596.509	174.77
596.929	173.76
597.349	172.64
597.769	171.56
598.189	170.68
598.608	169.82
599.028	169.11
599.448	168.52
599.867	167.93
600.287	167.42
600.706	166.86
601.126	166.35
601.545	165.9
601.965	165.57
602.384	165.22
602.803	164.84
603.222	164.39
603.641	163.8
604.061	163.09
604.48	162.25
604.898	161.49
605.317	160.74
605.736	159.89
606.155	159.08
606.574	158.32
606.992	157.61
607.411	156.87
607.829	156.1
608.248	155.4
608.666	154.74
609.085	154.03
609.503	153.21
609.921	152.52
610.339	151.94
610.758	151.4
611.176	150.71
611.594	149.88
612.012	149.02
612.43	148.14
612.847	147.38
613.265	146.72
613.683	146.29
614.101	145.88
614.518	145.49
614.936	145.11
615.353	144.73
615.771	144.52
616.188	144.45
616.606	144.43
617.023	144.45
617.44	144.29
617.857	144
618.274	143.6
618.691	143.17
619.108	142.64
619.525	142.1
619.942	141.45
620.359	140.64
620.776	139.75
621.192	138.85
621.609	138.04
622.026	137.33
622.442	136.77
622.859	136.13
623.275	135.52
623.691	134.87
624.108	134.2
624.524	133.62
624.94	133.18
625.356	132.67
625.772	132.25
626.188	131.83
626.604	131.4
627.02	130.86
627.436	130.36
627.852	129.93
628.268	129.72
628.683	129.57
629.099	129.44
629.514	129.16
629.93	129.06
630.345	129
630.761	128.94
631.176	128.89
631.591	128.83
632.007	128.77
632.422	128.79
632.837	128.71
633.252	128.61
633.667	128.56
634.082	128.67
634.497	128.67
634.911	128.52
635.326	128.28
635.741	128
636.155	127.71
636.57	127.42
636.984	127.01
637.399	126.58
637.813	126.19
638.228	125.74
638.642	125.27
639.056	124.8
639.47	124.43
639.884	124.16
640.298	123.85
640.712	123.58
641.126	123.34
641.54	123.08
641.954	122.75
642.368	122.34
642.781	121.91
643.195	121.4
643.609	120.97
644.022	120.54
644.436	119.99
644.849	119.38
645.262	118.7
645.676	118.03
646.089	117.55
646.502	117.16
646.915	116.88
647.328	116.55
647.741	116.29
648.154	116.02
648.567	115.76
648.98	115.6
649.393	115.5
649.805	115.46
650.218	115.37
650.631	115.02
651.043	114.4
651.456	113.22
651.868	111.63
652.28	109.92
652.693	108.35
653.105	107.1
653.517	106.13
653.929	105.41
654.341	104.87
654.753	104.48
655.165	104.2
655.577	104.19
655.989	104.72
656.401	105.59
656.813	106.72
657.224	107.69
657.636	108.33
658.047	108.73
658.459	108.83
658.87	108.75
659.282	108.56
659.693	108.31
660.104	108.05
660.515	107.74
660.926	107.55
661.338	107.19
661.749	106.82
662.159	106.4
662.57	105.89
662.981	105.48
663.392	105.05
663.803	104.62
664.213	104.26
664.624	103.91
665.035	103.49
665.445	103.01
665.855	102.51
666.266	102.02
666.676	101.49
667.086	101.03
667.497	100.5
667.907	99.98
668.317	99.51
668.727	99
669.137	98.5
669.547	98.04
669.956	97.63
670.366	97.25
670.776	96.79
671.186	96.41
671.595	96.03
672.005	95.71
672.414	95.41
672.824	95.08
673.233	94.86
673.642	94.54
674.052	94.24
674.461	93.94
674.87	93.66
675.279	93.49
675.688	93.31
676.097	93.11
676.506	92.92
676.915	92.73
677.323	92.61
677.732	92.43
678.141	92.3
678.549	92.18
678.958	92.07
679.366	91.93
679.775	91.75
680.183	91.53
680.592	91.35
681	91.21
681.408	91.05
681.816	90.69
682.224	89.9
682.632	88.66
683.04	86.97
683.448	85.34
683.856	83.85
684.264	82.54
684.671	81.33
685.079	80.14
685.487	79.04
685.894	78.1
686.302	77.42
686.709	77.31
687.116	77.81
687.524	78.86
687.931	79.96
688.338	81.02
688.745	82.07
689.152	83.07
689.559	84.03
689.966	84.9
690.373	85.69
690.78	86.39
691.187	87
691.593	87.48
692	87.98
692.407	88.45
692.813	88.93
693.22	89.26
693.626	89.61
694.032	89.9
694.439	90.2
694.845	90.41
695.251	90.59
695.657	90.75
696.063	90.88
696.469	90.84
696.875	90.74
697.281	90.54
697.687	90.38
698.093	90.19
698.498	90.07
698.904	89.93
699.31	89.92
699.715	89.98
700.12	90.05
700.526	90.2
700.931	90.4
701.337	90.61
701.742	90.82
702.147	91.02
702.552	91.23
702.957	91.45
703.362	91.68
703.767	91.82
704.172	91.91
704.577	91.96
704.981	91.97
705.386	91.95
705.791	91.94
706.195	91.97
706.6	91.98
707.004	92
707.408	91.92
707.813	91.83
708.217	91.73
708.621	91.59
709.025	91.5
709.43	91.43
709.834	91.39
710.237	91.25
710.641	91.11
711.045	90.89
711.449	90.69
711.853	90.46
712.256	90.15
712.66	89.62
713.064	88.95
713.467	88.09
713.87	87.04
714.274	85.88
714.677	84.67
715.08	83.39
715.484	82.22
715.887	80.99
716.29	79.98
716.693	79.18
717.096	78.85
717.499	78.91
717.901	79.21
718.304	79.69
718.707	80.23
719.109	80.79
719.512	81.3
719.915	81.7
720.317	82.12
720.719	82.35
721.122	82.45
721.524	82.33
721.926	82.06
722.328	81.68
722.731	81.3
723.133	80.94
723.535	80.68
723.937	80.49
724.338	80.31
724.74	80.18
725.142	79.97
725.544	79.87
725.945	79.79
726.347	79.69
726.748	79.58
727.15	79.48
727.551	79.51
727.952	79.59
728.354	79.75
728.755	80.02
729.156	80.36
729.557	80.89
729.958	81.3
730.359	81.62
730.76	81.9
731.161	82.2
731.562	82.43
731.962	82.56
732.363	82.63
732.763	82.66
733.164	82.63
733.564	82.51
733.965	82.28
734.365	82
734.766	81.71
735.166	81.36
735.566	81.1
735.966	80.83
736.366	80.61
736.766	80.38
737.166	80.09
737.566	79.79
737.966	79.53
738.365	79.33
738.765	79.23
739.165	79.18
739.564	79.2
739.964	79.1
740.363	79.02
740.763	78.92
741.162	78.85
741.561	78.85
741.96	78.89
742.36	78.88
742.759	78.81
743.158	78.68
743.557	78.57
743.955	78.46
744.354	78.39
744.753	78.31
745.152	78.17
745.55	78
745.949	77.8
746.348	77.58
746.746	77.3
747.144	77.1
747.543	76.88
747.941	76.67
748.339	76.43
748.737	76.2
749.136	75.98
749.534	75.84
749.932	75.75
750.33	75.61
750.727	75.49
751.125	75.38
751.523	75.24
751.921	75.08
752.318	74.88
752.716	74.7
753.113	74.5
753.511	74.28
753.908	74.02
754.305	73.61
754.703	72.93
755.1	71.52
755.497	69.15
755.894	65.7
756.291	61.51
756.688	57.04
757.085	52.74
757.482	48.82
757.878	45.19
758.275	41.6
758.672	38.03
759.068	34.75
759.465	32.22
759.861	30.93
760.258	30.97
760.654	32.06
761.05	33.72
761.447	35.48
761.843	37.11
762.239	38.75
762.635	40.7
763.031	43
763.427	45.54
763.822	48.2
764.218	50.82
764.614	53.28
765.01	55.57
765.405	57.65
765.801	59.52
766.196	61.2
766.592	62.58
766.987	63.63
767.382	64.42
767.778	65.04
768.173	65.49
768.568	65.82
768.963	66.05
769.358	66.21
769.753	66.34
770.148	66.3
770.542	66.21
770.937	66.07
771.332	65.99
771.726	65.88
772.121	65.74
772.515	65.64
772.91	65.51
773.304	65.32
773.699	65.1
774.093	64.88
774.487	64.77
774.881	64.68
775.275	64.59
775.669	64.42
776.063	64.21
776.457	63.99
776.851	63.71
777.245	63.51
777.638	63.33
778.032	63.17
778.425	63.01
778.819	62.79
779.212	62.49
779.606	62.23
779.999	62
780.392	61.8
780.786	61.6
781.179	61.41
781.572	61.16
781.965	60.92
782.358	60.61
782.751	60.34
783.143	60.08
783.536	59.89
783.929	59.65
784.322	59.4
784.714	59.12
785.107	58.83
785.499	58.52
785.891	58.21
786.284	57.87
786.676	57.61
787.068	57.26
787.46	56.89
787.852	56.56
788.245	56.18
788.636	55.8
789.028	55.38
789.42	54.95
789.812	54.59
790.204	54.2
790.595	53.85
790.987	53.5
791.378	53.2
791.77	52.94
792.161	52.62
792.553	52.35
792.944	52.13
793.335	51.98
793.726	51.81
794.117	51.62
794.508	51.45
794.899	51.24
795.29	50.99
795.681	50.73
796.072	50.44
796.463	50.13
796.853	49.85
797.244	49.52
797.634	49.14
798.025	48.83
798.415	48.47
798.806	48.12
799.196	47.78
799.586	47.48
799.976	47.1
800.366	46.78
800.756	46.44
801.146	46.11
801.536	45.78
801.926	45.48
802.316	45.21
802.706	44.94
803.095	44.62
803.485	44.35
803.874	44.01
804.264	43.75
804.653	43.4
805.043	43.09
805.432	42.69
805.821	42.3
806.21	41.95
806.599	41.55
806.988	41.13
807.377	40.75
807.766	40.31
808.155	39.93
808.544	39.46
808.933	39
809.321	38.51
809.71	38.05
810.098	37.52
810.487	36.9
810.875	36.26
811.264	35.61
811.652	34.94
812.04	34.23
812.428	33.48
812.816	32.8
813.204	32.17
813.592	31.58
813.98	30.98
814.368	30.47
814.756	30.01
815.144	29.6
815.531	29.24
815.919	28.94
816.306	28.73
816.694	28.65
817.081	28.52
817.469	28.38
817.856	28.23
818.243	28
818.63	27.71
819.017	27.36
819.404	27.03
819.791	26.79
820.178	26.55
820.565	26.32
820.952	26.02
821.339	25.77
821.725	25.55
822.112	25.36
822.498	25.27
822.885	25.22
823.271	25.2
823.657	25.1
824.044	24.91
824.43	24.68
824.816	24.41
825.202	24.15
825.588	23.87
825.974	23.61
826.36	23.33
826.746	23.07
827.132	22.79
827.517	22.55
827.903	22.37
828.289	22.17
828.674	21.98
829.06	21.82
829.445	21.64
829.83	21.47
830.216	21.3
830.601	21.14
830.986	21
831.371	20.91
831.756	20.78
832.141	20.65
832.526	20.53
832.911	20.47
833.295	20.39
833.68	20.31
834.065	20.24
834.449	20.14
834.834	20.03
835.218	19.91
835.603	19.77
835.987	19.66
836.371	19.55
836.755	19.45
837.139	19.3
837.524	19.16
837.908	19.02
838.291	18.87
838.675	18.74
839.059	18.62
839.443	18.48
839.827	18.36
840.21	18.23
840.594	18.09
840.977	17.96
841.361	17.84
841.744	17.72
842.127	17.61
842.511	17.51
842.894	17.39
843.277	17.29
843.66	17.19
844.043	17.1
844.426	17
844.809	16.88
845.191	16.74
845.574	16.58
845.957	16.39
846.339	16.22
846.722	16.06
847.104	15.92
847.487	15.79
847.869	15.64
848.252	15.5
848.634	15.37
849.016	15.22
849.398	15.06
849.78	14.88
850.162	14.69
850.544	14.49
850.926	14.32
851.307	14.18
851.689	14.02
852.071	13.91
852.452	13.78
852.834	13.68
853.215	13.63
853.597	13.59
853.978	13.6
854.359	13.67
854.741	13.73
855.122	13.77
855.503	13.75
855.884	13.71
856.265	13.68
856.646	13.64
857.026	13.6
857.407	13.51
857.788	13.45
858.169	13.4
858.549	13.33
858.93	13.23
859.31	13.16
859.69	13.08
860.071	13.01
860.451	12.91
860.831	12.82
861.211	12.69
861.591	12.56
861.971	12.38
862.351	12.21
862.731	12.04
863.111	11.89
863.491	11.73
863.87	11.61
864.25	11.49
864.629	11.38
865.009	11.27
865.388	11.21
865.768	11.18
866.147	11.18
866.526	11.19
866.905	11.19
867.284	11.2
867.663	11.2
868.042	11.18
868.421	11.15
868.8	11.15
869.179	11.13
869.558	11.1
869.936	11.04
870.315	11
870.693	10.97
871.072	10.93
871.45	10.89
871.828	10.84
872.207	10.79
872.585	10.75
872.963	10.69
873.341	10.66
873.719	10.63
874.097	10.61
874.475	10.58
874.853	10.52
875.23	10.49
875.608	10.43
875.986	10.37
876.363	10.33
876.741	10.3
877.118	10.23
877.495	10.17
877.873	10.11
878.25	10.04
878.627	9.98
879.004	9.92
879.381	9.86
879.758	9.81
880.135	9.76
880.512	9.72
880.889	9.67
881.265	9.65
881.642	9.61
882.019	9.56
882.395	9.51
882.772	9.46
883.148	9.42
883.524	9.38
883.901	9.35
884.277	9.32
884.653	9.28
885.029	9.23
885.405	9.18
885.781	9.13
886.157	9.11
886.532	9.09
886.908	9.07
887.284	9.04
887.659	9.01
888.035	8.98
888.411	8.93
888.786	8.89
889.161	8.86
889.537	8.83
889.912	8.79
890.287	8.72
890.662	8.64
891.037	8.56
891.412	8.48
891.787	8.39
892.162	8.29
892.536	8.2
892.911	8.1
893.286	7.98
893.66	7.88
894.035	7.76
894.409	7.64
894.784	7.52
895.158	7.4
895.532	7.27
895.906	7.16
896.281	7.04
896.655	6.94
897.029	6.84
897.402	6.76
897.776	6.67
898.15	6.6
898.524	6.55
898.898	6.53
899.271	6.52
899.645	6.55
900.018	6.56
900.392	6.61
900.765	6.64
901.138	6.68
901.511	6.73
901.884	6.77
902.258	6.82
902.631	6.84
903.003	6.84
903.376	6.85
903.749	6.81
904.122	6.77
904.495	6.71
904.867	6.65
905.24	6.59
905.612	6.52
905.985	6.48
906.357	6.4
906.729	6.34
907.102	6.31
907.474	6.24
907.846	6.2
908.218	6.18
908.59	6.17
908.962	6.15
909.334	6.12
909.705	6.09
910.077	6.03
910.449	6.03
910.82	6
911.192	5.98
911.563	5.94
911.935	5.9
912.306	5.85
912.677	5.82
913.048	5.8
913.419	5.77
913.79	5.75
914.161	5.74
914.532	5.73
914.903	5.72
915.274	5.72
915.645	5.74
916.015	5.77
916.386	5.79
916.756	5.79
917.127	5.83
917.497	5.88
917.868	5.91
918.238	5.94
918.608	5.95
918.978	5.98
919.348	5.98
919.718	5.96
920.088	5.93
920.458	5.92
920.828	5.9
921.198	5.84
921.567	5.8
921.937	5.77
922.306	5.75
922.676	5.73
923.045	5.69
923.415	5.65
923.784	5.65
924.153	5.64
924.522	5.62
924.891	5.58
925.26	5.54
925.629	5.48
925.998	5.44
926.367	5.36
926.736	5.27
927.104	5.17
927.473	5.08
927.842	4.95
928.21	4.83
928.578	4.68
928.947	4.55
929.315	4.41
929.683	4.27
930.051	4.1
930.42	3.93
930.788	3.76
931.156	3.65
931.523	3.49
931.891	3.38
932.259	3.28
932.627	3.18
932.994	3.12
933.362	3.03
933.729	2.97
934.097	2.96
934.464	3
934.831	3.04
935.199	3.05
935.566	3.15
935.933	3.31
936.3	3.42
936.667	3.56
937.034	3.64
937.401	3.81
937.767	3.98
938.134	4.08
938.501	4.26
938.867	4.41
939.234	4.58
939.6	4.66
939.967	4.62
940.333	4.67
940.699	4.73
941.065	4.76
941.431	4.73
941.798	4.69
942.163	4.7
942.529	4.64
942.895	4.61
943.261	4.57
943.627	4.56
943.992	4.49
944.358	4.41
944.723	4.35
945.089	4.33
945.454	4.36
945.82	4.38
946.185	4.35
946.55	4.27
946.915	4.33
947.28	4.24
947.645	4.2
948.01	4.22
948.375	4.25
948.74	4.26
949.104	4.24
949.469	4.25
949.834	4.23
950.198	4.25
950.562	4.26
950.927	4.19
951.291	4.25
951.655	4.22
952.02	4.18
952.384	4.18
952.748	4.08
953.112	4.04
953.476	3.99
953.839	3.96
954.203	3.91
954.567	3.9
954.931	3.89
955.294	3.86
955.658	3.86
956.021	3.89
956.385	3.86
956.748	3.89
957.111	3.9
957.474	3.9
957.837	3.87
958.2	3.87
958.563	3.94
958.926	3.96
959.289	3.94
959.652	3.92
960.015	3.92
960.377	3.94
960.74	3.96
961.102	3.98
961.465	3.95
961.827	3.89
962.189	3.88
962.552	3.83
962.914	3.81
963.276	3.81
963.638	3.82
964	3.85
964.362	3.82
964.724	3.84
965.085	3.87
965.447	3.99
965.809	4.04
966.17	4.13
966.532	4.13
966.893	4.18
967.255	4.25
967.616	4.29
967.977	4.32
968.338	4.35
968.699	4.37
969.061	4.37
969.421	4.39
969.782	4.43
970.143	4.45
970.504	4.47
970.865	4.41
971.225	4.37
971.586	4.43
971.946	4.42
972.307	4.44
972.667	4.41
973.027	4.45
973.388	4.39
973.748	4.38
974.108	4.33
974.468	4.31
974.828	4.38
975.188	4.41
975.548	4.36
975.907	4.38
976.267	4.42
976.627	4.39
976.986	4.37
977.346	4.42
977.705	4.42
978.064	4.46
978.424	4.56
978.783	4.56
979.142	4.58
979.501	4.57
979.86	4.55
980.219	4.48
980.578	4.63
980.937	4.71
981.296	4.66
981.654	4.68
982.013	4.73
982.371	4.69
982.73	4.69
983.088	4.68
983.447	4.73
983.805	4.76
984.163	4.83
984.521	4.82
984.879	4.83
985.237	4.91
985.595	4.99
985.953	5
986.311	5.03
986.669	5.02
987.026	5.01
987.384	5.03
987.741	5.12
988.099	5.08
988.456	5.15
988.814	5.17
989.171	5.16
989.528	5.14
989.885	5.14
990.242	5.04
990.599	5.08
990.956	5.17
991.313	5.05
991.67	5.05
992.027	5.12
992.383	5
992.74	4.94
993.096	4.97
993.453	5.05
993.809	5.04
994.165	5.16
994.522	5.12
994.878	5.05
995.234	5.13
995.59	4.98
995.946	4.92
996.302	4.94
996.658	5.02
997.013	4.99
997.369	4.88
997.725	4.84
998.08	4.76
998.436	4.89
998.791	4.85
999.147	4.98
999.502	5.09
999.857	5.22
1000.212	5.16
1000.567	5
1000.922	5.03
1001.277	5.08
1001.632	5.23
1001.987	5.34
1002.342	5.19
1002.696	5.2
1003.051	5.02
1003.406	4.9
1003.76	4.89
1004.114	5
1004.469	5.08
1004.823	5.09
1005.177	5.14
1005.531	5.04
1005.885	4.91
1006.239	4.95
1006.593	5.12
1006.947	5.31
1007.301	5.43
1007.655	5.52
1008.008	5.41
1008.362	5.51
1008.715	5.48
1009.069	5.45
1009.422	5.38
1009.776	5.53
1010.129	5.51
1010.482	5.61
1010.835	5.53
1011.188	5.28
1011.541	5.03
1011.894	5.05
1012.247	4.95
1012.6	5
1012.952	4.98
1013.305	4.86
1013.657	4.82
1014.01	4.96
1014.362	4.81
1014.715	4.66
1015.067	5.13
1015.419	5.46
1015.771	5.63
1016.123	5.55
1016.475	5.57
1016.827	5.72
1017.179	5.74
1017.531	5.83
1017.883	5.71
1018.234	5.77
1018.586	5.62
1018.938	5.11
1019.289	4.79
1019.64	4.79
1019.992	4.92
1020.343	5.1
1020.694	4.93
1021.045	5.06
1021.396	5.1
1021.747	5.56
1022.098	5.79
1022.449	6
1022.8	6.29
1023.151	6.5
1023.501	6.5
1023.852	6.49
1024.202	6.69
1024.553	6.81
1024.903	6.91
1025.253	7.08
1025.604	7.21
1025.954	6.9
1026.304	7.73
1026.654	7.84
1027.004	7.85
1027.354	7.88
1027.703	7.97
1028.053	7.45
1028.403	7.12
1028.753	7.28
1029.102	7.12
1029.452	6.68
1029.801	6.79
1030.15	6.23
1030.499	6.23
897.758	-60.45
901.051	-60.87
904.343	-64.01
907.636	-62.33
910.928	-56.83
914.22	-61.54
917.511	-61.13
920.803	-59.1
924.094	-52.07
927.384	-51.92
930.675	-47.8
933.965	-48.17
937.255	-42.76
940.544	-38.82
943.834	-33.47
947.123	-33.33
950.411	-24.74
953.7	-21.87
956.988	-18.42
960.276	-16.48
963.563	-10.13
966.851	-5.68
970.138	-2.48
973.424	-0.41
976.711	1.57
979.997	4.29
983.283	3.27
986.568	5.13
989.853	7.03
993.138	11.24
996.423	12.67
999.708	11.93
1002.992	12.11
1006.275	12.15
1009.559	13.3
1012.842	15.97
1016.125	16.52
1019.408	19.39
1022.69	19.62
1025.972	21.64
1029.254	20.75
1032.536	22.21
1035.817	22.31
1039.098	24.25
1042.379	26.91
1045.659	27.1
1048.939	26.27
1052.219	26.77
1055.498	28.27
1058.778	29.5
1062.057	28.51
1065.335	29.5
1068.614	29.76
1071.892	31.57
1075.17	29.9
1078.447	30.81
1081.724	31.05
1085.001	30.67
1088.278	31.93
1091.554	30.9
1094.83	31.79
1098.106	32.04
1101.382	32.51
1104.657	32.49
1107.932	32.2
1111.206	34.69
1114.481	34.27
1117.755	33.88
1121.029	35
1124.302	34.92
1127.575	36.82
1130.848	35.94
1134.121	36
1137.393	36.28
1140.665	36.6
1143.937	36.67
1147.208	36.39
1150.48	36.57
1153.75	36.72
1157.021	37.8
1160.291	37.44
1163.561	36.36
1166.831	37.48
1170.101	38.36
1173.37	37.85
1176.639	37.99
1179.907	38.06
1183.176	38.04
1186.444	37.36
1189.711	37.85
1192.979	36.17
1196.246	37.46
1199.513	37.63
1202.78	36.6
1206.046	35.99
1209.312	36.93
1212.578	36.93
1215.843	37.04
1219.108	36.28
1222.373	36.19
1225.638	35.83
1228.902	36.37
1232.166	34.08
1235.43	32.08
1238.693	31.55
1241.956	31.36
1245.219	29.21
1248.482	29.42
1251.744	28.64
1255.006	30.75
1258.268	29.18
1261.529	29.16
1264.79	29.6
1268.051	30.92
1271.312	32.91
1274.572	33.27
1277.832	34.94
1281.092	35.46
1284.351	35.81
1287.61	36.03
1290.869	35.03
1294.128	36.88
1297.386	37.26
1300.644	37.6
1303.902	36.09
1307.159	36.25
1310.416	35.69
1313.673	34.61
1316.93	33.6
1320.186	33.84
1323.442	32.64
1326.697	31.12
1329.953	29.59
1333.208	27.52
1336.463	25.3
1339.717	26.25
1342.972	22.87
1346.226	21.67
1349.479	20.95
1352.733	19.99
1355.986	16.62
1359.238	16.35
1362.491	15.19
1365.743	14.43
1368.995	14.08
1372.247	11.98
1375.498	10.97
1378.749	8.33
1382	7.7
1385.251	5.7
1388.501	4.65
1391.751	3.21
1395	2.13
1398.25	1.41
1401.499	-0.69
1404.748	-1.96
1407.996	-0.61
1411.244	-1.37
1414.492	-0.58
1417.74	-2.3
1420.987	-1.9
1424.234	-3.31
1427.481	-2.3
1430.728	-2.16
1433.974	-0.93
1437.22	-0.19
1440.465	-0.43
1443.711	-0.58
1446.956	-0.27
1450.201	0.89
1453.445	2.18
1456.689	3.87
1459.933	5.38
1463.177	6.67
1466.42	7.43
1469.663	7.2
1472.906	8.05
1476.148	9.59
1479.391	10.25
1482.633	11.17
1485.874	12.12
1489.115	13.35
1492.356	13.57
1495.597	13.86
1498.838	14.36
1502.078	15.21
1505.318	16.08
1508.557	16.15
1511.797	17.71
1515.036	18.9
1518.274	19.18
1521.513	19.57
1524.751	19.57
1527.989	20.6
1531.227	21.22
1534.464	22.38
1537.701	22.47
1540.938	22.63
1544.174	23.71
1547.41	23.53
1550.646	24.44
1553.882	25.27
1557.117	26.32
1560.352	27.01
1563.587	27.05
1566.821	27.25
1570.055	27.7
1573.289	28.56
1576.523	28.83
1579.756	29.36
1582.989	30.01
1586.222	29.62
1589.454	30.13
1592.686	30.16
1595.918	30.28
1599.15	30.66
1602.381	31.23
1605.612	31.46
1608.843	31.13
1612.073	31.44
1615.303	31.79
1618.533	31.49
1621.762	32.05
1624.992	31.16
1628.221	31.28
1631.449	32.11
1634.678	31.99
1637.906	31.96
1641.134	31.83
1644.361	32.11
1647.588	32.18
1650.815	32.04
1654.042	33.02
1657.269	32.25
1660.495	33.21
1663.72	33.73
1666.946	32.99
1670.171	33.31
1673.396	33.18
1676.621	33.52
1679.845	33.92
1683.069	33.51
1686.293	32.98
1689.517	32.58
1692.74	33.11
1695.963	32.88
1699.185	32.22
1702.408	32.63
1705.63	32.53
1708.852	32.61
1712.073	31.7
1715.294	31.27
1718.515	31.66
1721.736	31.93
1724.956	31.52
1728.176	31.53
1731.396	31.14
1734.616	30.89
1737.835	30.3
1741.054	30.25
1744.272	29.55
1747.491	29.98
1750.709	30.02
1753.927	29.64
1757.144	29.51
1760.361	28.76
1763.578	28.05
1766.795	27.99
1770.011	28.62
1773.227	27.97
1776.443	27.44
1779.658	27.24
1782.874	26.72
1786.089	25.7
1789.303	25.46
1792.518	24.74
1795.732	25.39
1798.945	25.61
1802.159	25.41
1805.372	23.97
1808.585	24.23
1811.797	24.28
1815.01	24.31
1818.222	23.98
1821.434	24.01
1824.645	23.59
1827.856	23.25
1831.067	22.06
1834.278	22.24
1837.488	21.43
1840.698	20.7
1843.908	20.48
1847.117	19.42
1850.326	18.56
1853.535	18.6
1856.744	16.78
1859.952	15.77
1863.16	14.18
1866.368	13.52
1869.575	11.17
1872.782	9.8
1875.989	7.19
1879.196	5.99
1882.402	2.63
1885.608	2.34
1888.814	-1.16
1892.019	-3.4
1895.224	-4.85
1898.429	-5.9
1901.634	-8.62
1904.838	-10.66
1908.042	-12.39
1911.246	-12.01
1914.449	-13.4
1917.652	-12.68
1920.855	-14.98
1924.058	-14.92
1927.26	-16
1930.462	-16.66
1933.664	-15.04
1936.865	-15.27
1940.066	-15.54
1943.267	-15.77
1946.467	-16.3
1949.668	-16.53
1952.868	-15.96
1956.067	-15.83
1959.267	-14.7
1962.466	-14.45
1965.665	-13.28
1968.863	-15.24
1972.061	-14.47
1975.259	-13.92
1978.457	-13.98
1981.654	-13.17
1984.852	-13.18
1988.048	-13.45
1991.245	-12.38
1994.441	-13.54
1997.637	-12.71
2000.833	-12.75
2004.028	-12.84
2007.223	-13.24
2010.418	-12.18
2013.613	-12.48
2016.807	-13.18
2020.001	-13.18
2023.194	-12.71
2026.388	-13.29
2029.581	-14.92
2032.774	-16.61
2035.966	-17.91
2039.158	-16.73
2042.35	-18.08
2045.542	-19.75
2048.733	-19.61
2051.924	-21.95
2055.115	-24.28
2058.306	-25.74
2061.496	-28.53
2064.686	-24.75
2067.875	-22.57
2071.065	-22.44
2074.254	-23.6
2077.442	-24.24
2080.631	-24.41
2083.819	-24.84
2087.007	-23.65
2090.195	-22.59
2093.382	-22.14
2096.569	-21.57
2099.756	-21.23
2102.942	-24.15
2106.128	-25.77
2109.314	-23.42
2112.5	-22.94
2115.685	-23.32
2118.87	-23.2
2122.055	-23.16
2125.239	-24.78
2128.424	-23.81
2131.608	-25.53
2134.791	-28.42
2137.974	-28.61
2141.157	-25.84
2144.34	-28.66
2147.523	-29.95
2150.705	-31.25
2153.887	-29.93
2157.068	-29.33
2160.25	-28.56
2163.431	-30.72
2166.611	-27.46
2169.792	-32.03
2172.972	-29.06
2176.152	-29.73
2179.331	-31.78
2182.511	-30.72
2185.69	-30.2
2188.868	-35.04
2192.047	-36.08
2195.225	-37.27
2198.403	-42.22
2201.58	-44.14
2204.758	-40.33
2207.935	-45.9
2211.111	-52.56
2214.288	-51.1
2217.464	-50.22
2220.64	-52.15
2223.815	-52.22
2226.991	-53.52
2230.166	-52.51
2233.34	-53.03
2236.515	-57.31
2239.689	-59.1
2242.863	-58.16
2246.036	-53.83
2249.209	-57.77
2252.382	-60.33
2255.555	-60.56
2258.727	-60.24
2261.9	-65.37
2265.071	-66.05
2268.243	-62.87
2271.414	-66.94
2274.585	-68.91
2277.756	-68.76
2280.926	-75.57
2284.096	-73.73
2287.266	-72.41
2290.436	-69.52
2293.605	-71.17
2296.774	-70.79
2299.942	-74.73
2303.111	-76.49
2306.279	-73.56
2309.447	-72.16
2312.614	-72.27
2315.781	-77.77
2318.948	-77.55
2322.115	-79.06
2325.281	-95.91
2328.447	-97.02
2331.613	-93.37
2334.779	-93.61
2337.944	-99.93
2341.109	-105.07
2344.274	-105.11
2347.438	-112.18
2350.602	-108.16
2353.766	-120.4
2356.929	-122.6
2360.092	-115.52
2363.255	-113.8
2366.418	-120.37
2369.58	-121.19
2372.742	-115.11
2375.904	-111.86
2379.066	-118.06
2382.227	-129.3
2385.388	-133.1
2388.548	-122.33
2391.709	-116.31
2394.869	-127.78
2398.029	-118.63
2401.188	-124.34
2404.347	-131.47
2407.506	-141.91
2410.665	-131.65
2413.823	-133.19
2416.981	-128.83
2420.139	-119.07
2423.296	-135.22
2426.453	-151.03
2429.61	-134.37
2432.767	-157.04
2435.923	-152.76
2439.079	-141.95
2442.235	-156.35
2445.391	-159.72
2448.546	-159.2
2451.701	-176.55
2454.855	-191.17
2458.009	-147.5
2461.163	-158.78
2464.317	-160.37
2467.471	-153.98
2470.624	-164.16
2473.777	-168.33
2476.929	-141.79
2480.082	-167.49
2483.234	-179.17
2486.385	-176.01
2489.537	-177.75
2492.688	-212.69
2495.839	-203.49
2498.989	-214.93
2502.14	-215.25
2505.29	-194.78
2508.439	-227.42
2511.589	-244.34
2514.738	-225.96
2517.887	-222.44
2521.035	-204.08
2524.183	-206.18
2527.331	-198.2
2530.479	-185.58
2533.627	-193.61
