Data from c_1_div_oh_2n_027_Splice17_07.txt Node
Date: Sat Feb 29 13:21:28 EST 2020
User: sa697716
Spectrometer: FLMS03696
Trigger mode: 0
Integration Time (sec): 3.180400E-1
Scans to average: 20
Electric dark correction enabled: true
Nonlinearity correction enabled: true
Boxcar width: 5
XAxis mode: Wavelengths
Number of Pixels in Spectrum: 2048
>>>>>Begin Spectral Data<<<<<
187.83	26.46
188.298	20.58
188.766	23.84
189.233	22.92
189.701	41.89
190.169	45.96
190.636	54.39
191.104	34.31
191.571	218.87
192.039	255.47
192.506	-386.81
192.974	-1201.33
193.441	247.85
193.908	13.57
194.375	5.07
194.842	164.32
195.31	101.42
195.777	149.79
196.244	64.86
196.711	64.2
197.177	61.55
197.644	60.6
198.111	59.48
198.578	59.4
199.045	59.99
199.511	60.24
199.978	59.94
200.445	59.58
200.911	59.37
201.378	60.04
201.844	60.73
202.31	61.15
202.777	61.25
203.243	61.8
203.709	61.95
204.176	61
204.642	60.73
205.108	60.65
205.574	60.76
206.04	60.74
206.506	59.78
206.972	58.58
207.438	57.61
207.903	57.09
208.369	55.8
208.835	54.89
209.301	54.61
209.766	53.35
210.232	52.13
210.697	51.24
211.163	50
211.628	49.17
212.094	48.31
212.559	47.31
213.024	46.05
213.49	45.07
213.955	44.12
214.42	42.71
214.885	41.29
215.35	39.95
215.815	37.78
216.28	35.73
216.745	33.27
217.21	30.82
217.675	28.51
218.14	26.25
218.604	24.29
219.069	22.6
219.534	21.05
219.998	19.92
220.463	18.92
220.927	18.07
221.392	17.3
221.856	16.64
222.32	16.07
222.785	15.56
223.249	15.16
223.713	14.78
224.177	14.39
224.642	14.14
225.106	13.83
225.57	13.49
226.034	13.22
226.497	12.95
226.961	12.69
227.425	12.44
227.889	12.22
228.353	11.99
228.816	11.79
229.28	11.55
229.744	11.37
230.207	11.17
230.671	11.01
231.134	10.82
231.597	10.67
232.061	10.51
232.524	10.38
232.987	10.23
233.45	10.1
233.914	9.96
234.377	9.86
234.84	9.74
235.303	9.64
235.766	9.53
236.229	9.44
236.691	9.35
237.154	9.27
237.617	9.16
238.08	9.07
238.542	8.99
239.005	8.9
239.468	8.8
239.93	8.71
240.393	8.62
240.855	8.53
241.317	8.43
241.78	8.35
242.242	8.25
242.704	8.16
243.166	8.09
243.629	8
244.091	7.92
244.553	7.86
245.015	7.78
245.477	7.7
245.939	7.65
246.4	7.57
246.862	7.5
247.324	7.45
247.786	7.4
248.247	7.34
248.709	7.29
249.17	7.23
249.632	7.17
250.093	7.11
250.555	7.06
251.016	7
251.477	6.95
251.939	6.9
252.4	6.85
252.861	6.8
253.322	6.75
253.783	6.71
254.244	6.67
254.705	6.63
255.166	6.6
255.627	6.56
256.088	6.51
256.549	6.49
257.009	6.45
257.47	6.41
257.931	6.35
258.391	6.3
258.852	6.25
259.312	6.21
259.773	6.17
260.233	6.12
260.694	6.08
261.154	6.03
261.614	5.99
262.074	5.94
262.534	5.89
262.994	5.86
263.455	5.84
263.915	5.8
264.374	5.77
264.834	5.74
265.294	5.7
265.754	5.66
266.214	5.64
266.673	5.61
267.133	5.59
267.593	5.57
268.052	5.54
268.512	5.51
268.971	5.49
269.431	5.47
269.89	5.45
270.349	5.43
270.809	5.41
271.268	5.38
271.727	5.36
272.186	5.34
272.645	5.32
273.104	5.3
273.563	5.29
274.022	5.27
274.481	5.24
274.94	5.22
275.399	5.2
275.857	5.18
276.316	5.15
276.775	5.13
277.233	5.11
277.692	5.08
278.15	5.07
278.609	5.04
279.067	5.02
279.525	5
279.984	4.99
280.442	4.98
280.9	4.96
281.358	4.97
281.816	4.95
282.274	4.94
282.732	4.93
283.19	4.92
283.648	4.92
284.106	4.9
284.564	4.9
285.021	4.89
285.479	4.88
285.937	4.87
286.394	4.86
286.852	4.85
287.309	4.85
287.767	4.83
288.224	4.82
288.682	4.79
289.139	4.78
289.596	4.75
290.053	4.73
290.511	4.7
290.968	4.69
291.425	4.66
291.882	4.63
292.339	4.61
292.796	4.58
293.252	4.56
293.709	4.54
294.166	4.52
294.623	4.51
295.079	4.49
295.536	4.48
295.992	4.46
296.449	4.44
296.905	4.43
297.362	4.4
297.818	4.4
298.274	4.38
298.731	4.37
299.187	4.36
299.643	4.35
300.099	4.34
300.555	4.32
301.011	4.31
301.467	4.29
301.923	4.29
302.379	4.29
302.835	4.28
303.291	4.27
303.746	4.27
304.202	4.25
304.658	4.24
305.113	4.23
305.569	4.24
306.024	4.22
306.479	4.22
306.935	4.22
307.39	4.22
307.845	4.22
308.301	4.22
308.756	4.22
309.211	4.22
309.666	4.22
310.121	4.22
310.576	4.22
311.031	4.23
311.486	4.23
311.94	4.22
312.395	4.22
312.85	4.22
313.305	4.21
313.759	4.2
314.214	4.2
314.668	4.2
315.123	4.2
315.577	4.19
316.032	4.18
316.486	4.17
316.94	4.17
317.394	4.17
317.849	4.15
318.303	4.15
318.757	4.14
319.211	4.12
319.665	4.11
320.119	4.1
320.572	4.1
321.026	4.09
321.48	4.08
321.934	4.08
322.387	4.07
322.841	4.06
323.295	4.05
323.748	4.04
324.202	4.03
324.655	4.02
325.108	4
325.562	3.98
326.015	3.97
326.468	3.95
326.921	3.94
327.374	3.94
327.827	3.94
328.28	3.94
328.733	3.94
329.186	3.93
329.639	3.93
330.092	3.93
330.545	3.94
330.997	3.93
331.45	3.94
331.903	3.93
332.355	3.94
332.808	3.94
333.26	3.94
333.713	3.95
334.165	3.96
334.617	3.96
335.069	3.96
335.522	3.97
335.974	3.97
336.426	3.97
336.878	3.98
337.33	3.98
337.782	3.97
338.234	3.97
338.686	3.95
339.137	3.96
339.589	3.95
340.041	3.95
340.493	3.93
340.944	3.92
341.396	3.9
341.847	3.89
342.299	3.86
342.75	3.84
343.201	3.83
343.653	3.82
344.104	3.8
344.555	3.79
345.006	3.77
345.457	3.76
345.908	3.76
346.359	3.76
346.81	3.75
347.261	3.74
347.712	3.73
348.163	3.73
348.613	3.73
349.064	3.71
349.515	3.71
349.965	3.71
350.416	3.7
350.866	3.69
351.317	3.67
351.767	3.67
352.217	3.66
352.668	3.67
353.118	3.67
353.568	3.67
354.018	3.67
354.468	3.67
354.918	3.67
355.368	3.68
355.818	3.68
356.268	3.69
356.718	3.69
357.168	3.69
357.617	3.68
358.067	3.68
358.517	3.68
358.966	3.69
359.416	3.7
359.865	3.7
360.315	3.7
360.764	3.7
361.213	3.69
361.663	3.7
362.112	3.7
362.561	3.71
363.01	3.71
363.459	3.71
363.908	3.71
364.357	3.7
364.806	3.69
365.255	3.7
365.703	3.7
366.152	3.7
366.601	3.71
367.05	3.71
367.498	3.72
367.947	3.73
368.395	3.74
368.844	3.74
369.292	3.75
369.74	3.77
370.189	3.77
370.637	3.78
371.085	3.8
371.533	3.81
371.981	3.82
372.429	3.82
372.877	3.83
373.325	3.84
373.773	3.85
374.221	3.86
374.669	3.86
375.116	3.88
375.564	3.89
376.012	3.91
376.459	3.93
376.907	3.94
377.354	3.95
377.801	3.97
378.249	4
378.696	4.03
379.143	4.05
379.591	4.08
380.038	4.1
380.485	4.13
380.932	4.15
381.379	4.16
381.826	4.19
382.273	4.2
382.72	4.22
383.166	4.24
383.613	4.25
384.06	4.26
384.506	4.28
384.953	4.29
385.4	4.31
385.846	4.32
386.292	4.33
386.739	4.35
387.185	4.39
387.631	4.41
388.078	4.44
388.524	4.45
388.97	4.47
389.416	4.49
389.862	4.51
390.308	4.53
390.754	4.55
391.2	4.59
391.645	4.62
392.091	4.64
392.537	4.67
392.983	4.7
393.428	4.74
393.874	4.78
394.319	4.81
394.765	4.84
395.21	4.86
395.655	4.88
396.101	4.9
396.546	4.93
396.991	4.95
397.436	4.95
397.881	4.97
398.326	5
398.771	5
399.216	5.02
399.661	5.05
400.106	5.07
400.551	5.07
400.995	5.05
401.44	5.04
401.885	5.04
402.329	5.05
402.774	5.03
403.218	5.02
403.663	5.02
404.107	5.02
404.551	5.02
404.995	5.01
405.44	5.02
405.884	5.02
406.328	5.03
406.772	5.04
407.216	5.04
407.66	5.05
408.104	5.04
408.547	5.03
408.991	5.02
409.435	5.01
409.879	5.01
410.322	5.02
410.766	5.03
411.209	5.04
411.653	5.03
412.096	5.03
412.54	5.03
412.983	5.04
413.426	5.06
413.869	5.07
414.312	5.09
414.756	5.13
415.199	5.15
415.642	5.17
416.085	5.17
416.527	5.19
416.97	5.21
417.413	5.23
417.856	5.22
418.298	5.22
418.741	5.22
419.184	5.22
419.626	5.19
420.069	5.19
420.511	5.19
420.953	5.18
421.396	5.19
421.838	5.19
422.28	5.19
422.722	5.22
423.164	5.23
423.606	5.24
424.048	5.24
424.49	5.26
424.932	5.24
425.374	5.24
425.816	5.23
426.258	5.21
426.699	5.18
427.141	5.16
427.582	5.14
428.024	5.14
428.465	5.13
428.907	5.12
429.348	5.12
429.789	5.13
430.231	5.12
430.672	5.14
431.113	5.16
431.554	5.18
431.995	5.22
432.436	5.23
432.877	5.23
433.318	5.25
433.759	5.26
434.2	5.26
434.64	5.28
435.081	5.29
435.522	5.3
435.962	5.32
436.403	5.36
436.843	5.37
437.284	5.41
437.724	5.46
438.164	5.48
438.604	5.51
439.045	5.53
439.485	5.55
439.925	5.57
440.365	5.58
440.805	5.6
441.245	5.6
441.685	5.63
442.125	5.63
442.564	5.64
443.004	5.67
443.444	5.69
443.883	5.72
444.323	5.74
444.762	5.79
445.202	5.85
445.641	5.9
446.081	5.96
446.52	5.96
446.959	6
447.398	6.04
447.837	6.09
448.276	6.12
448.716	6.15
449.154	6.22
449.593	6.27
450.032	6.29
450.471	6.31
450.91	6.31
451.349	6.35
451.787	6.36
452.226	6.34
452.664	6.33
453.103	6.34
453.541	6.36
453.98	6.34
454.418	6.33
454.856	6.31
455.295	6.3
455.733	6.3
456.171	6.29
456.609	6.28
457.047	6.28
457.485	6.27
457.923	6.27
458.361	6.26
458.798	6.26
459.236	6.26
459.674	6.27
460.111	6.28
460.549	6.26
460.987	6.28
461.424	6.29
461.862	6.3
462.299	6.31
462.736	6.32
463.173	6.32
463.611	6.32
464.048	6.32
464.485	6.31
464.922	6.31
465.359	6.32
465.796	6.31
466.233	6.32
466.67	6.32
467.106	6.32
467.543	6.32
467.98	6.33
468.416	6.36
468.853	6.36
469.29	6.38
469.726	6.39
470.162	6.4
470.599	6.42
471.035	6.42
471.471	6.42
471.907	6.43
472.344	6.42
472.78	6.43
473.216	6.43
473.652	6.4
474.088	6.42
474.523	6.4
474.959	6.39
475.395	6.39
475.831	6.4
476.266	6.4
476.702	6.4
477.138	6.4
477.573	6.38
478.008	6.38
478.444	6.38
478.879	6.36
479.314	6.37
479.75	6.37
480.185	6.37
480.62	6.36
481.055	6.35
481.49	6.33
481.925	6.32
482.36	6.31
482.795	6.3
483.229	6.31
483.664	6.32
484.099	6.32
484.534	6.33
484.968	6.34
485.403	6.35
485.837	6.36
486.271	6.39
486.706	6.4
487.14	6.44
487.574	6.47
488.009	6.5
488.443	6.53
488.877	6.57
489.311	6.6
489.745	6.63
490.179	6.67
490.613	6.72
491.046	6.77
491.48	6.84
491.914	6.89
492.348	6.96
492.781	7.03
493.215	7.09
493.648	7.18
494.082	7.26
494.515	7.35
494.948	7.44
495.382	7.54
495.815	7.65
496.248	7.76
496.681	7.87
497.114	7.98
497.547	8.1
497.98	8.23
498.413	8.36
498.846	8.5
499.279	8.64
499.711	8.8
500.144	8.96
500.577	9.12
501.009	9.28
501.442	9.45
501.874	9.63
502.306	9.83
502.739	10.02
503.171	10.25
503.603	10.48
504.036	10.71
504.468	10.96
504.9	11.22
505.332	11.48
505.764	11.75
506.196	12.04
506.627	12.34
507.059	12.64
507.491	12.96
507.923	13.27
508.354	13.58
508.786	13.91
509.217	14.25
509.649	14.59
510.08	14.93
510.512	15.29
510.943	15.67
511.374	16.03
511.805	16.39
512.237	16.78
512.668	17.17
513.099	17.57
513.53	17.97
513.961	18.37
514.391	18.75
514.822	19.17
515.253	19.58
515.684	19.96
516.114	20.38
516.545	20.81
516.975	21.23
517.406	21.64
517.836	22.03
518.267	22.45
518.697	22.86
519.127	23.28
519.558	23.67
519.988	24.07
520.418	24.48
520.848	24.84
521.278	25.23
521.708	25.6
522.138	25.96
522.567	26.33
522.997	26.67
523.427	27.02
523.857	27.33
524.286	27.67
524.716	27.98
525.145	28.29
525.575	28.59
526.004	28.87
526.433	29.14
526.863	29.41
527.292	29.67
527.721	29.9
528.15	30.11
528.579	30.37
529.008	30.58
529.437	30.8
529.866	30.97
530.295	31.17
530.724	31.36
531.152	31.54
531.581	31.69
532.01	31.83
532.438	31.99
532.867	32.13
533.295	32.25
533.723	32.38
534.152	32.48
534.58	32.6
535.008	32.67
535.436	32.74
535.865	32.82
536.293	32.92
536.721	33
537.149	33.07
537.576	33.14
538.004	33.21
538.432	33.28
538.86	33.33
539.287	33.39
539.715	33.45
540.143	33.51
540.57	33.57
540.998	33.63
541.425	33.69
541.852	33.72
542.28	33.77
542.707	33.82
543.134	33.84
543.561	33.88
543.988	33.93
544.415	33.98
544.842	34
545.269	34.03
545.696	34.05
546.123	34.11
546.549	34.15
546.976	34.18
547.403	34.19
547.829	34.23
548.256	34.26
548.682	34.26
549.108	34.28
549.535	34.33
549.961	34.33
550.387	34.31
550.813	34.28
551.24	34.27
551.666	34.27
552.092	34.27
552.518	34.24
552.943	34.24
553.369	34.21
553.795	34.16
554.221	34.12
554.646	34.08
555.072	34.04
555.498	33.99
555.923	33.94
556.349	33.88
556.774	33.8
557.199	33.74
557.625	33.63
558.05	33.53
558.475	33.42
558.9	33.32
559.325	33.21
559.75	33.09
560.175	32.97
560.6	32.84
561.025	32.71
561.449	32.57
561.874	32.43
562.299	32.3
562.723	32.16
563.148	32.01
563.572	31.86
563.997	31.68
564.421	31.51
564.846	31.33
565.27	31.15
565.694	30.96
566.118	30.76
566.542	30.58
566.966	30.39
567.39	30.18
567.814	29.98
568.238	29.77
568.662	29.59
569.086	29.38
569.509	29.19
569.933	28.96
570.357	28.74
570.78	28.53
571.204	28.31
571.627	28.1
572.05	27.93
572.474	27.73
572.897	27.53
573.32	27.34
573.743	27.15
574.166	26.97
574.589	26.79
575.012	26.63
575.435	26.45
575.858	26.31
576.281	26.16
576.704	26
577.126	25.84
577.549	25.72
577.972	25.58
578.394	25.42
578.817	25.28
579.239	25.17
579.661	25.05
580.084	24.93
580.506	24.8
580.928	24.66
581.35	24.55
581.772	24.44
582.194	24.33
582.616	24.23
583.038	24.17
583.46	24.08
583.882	24
584.303	23.9
584.725	23.82
585.147	23.71
585.568	23.64
585.99	23.55
586.411	23.46
586.833	23.38
587.254	23.3
587.675	23.21
588.096	23.13
588.518	23.04
588.939	22.97
589.36	22.88
589.781	22.84
590.202	22.78
590.623	22.72
591.043	22.66
591.464	22.59
591.885	22.53
592.305	22.49
592.726	22.46
593.147	22.43
593.567	22.39
593.987	22.37
594.408	22.31
594.828	22.28
595.248	22.25
595.669	22.21
596.089	22.16
596.509	22.11
596.929	22.05
597.349	21.99
597.769	21.92
598.189	21.88
598.608	21.83
599.028	21.77
599.448	21.72
599.867	21.65
600.287	21.59
600.706	21.53
601.126	21.46
601.545	21.38
601.965	21.3
602.384	21.24
602.803	21.14
603.222	21.05
603.641	20.98
604.061	20.87
604.48	20.77
604.898	20.68
605.317	20.59
605.736	20.49
606.155	20.37
606.574	20.27
606.992	20.14
607.411	20.04
607.829	19.88
608.248	19.75
608.666	19.64
609.085	19.51
609.503	19.39
609.921	19.26
610.339	19.13
610.758	19.02
611.176	18.89
611.594	18.77
612.012	18.63
612.43	18.56
612.847	18.45
613.265	18.33
613.683	18.23
614.101	18.11
614.518	18.01
614.936	17.89
615.353	17.79
615.771	17.69
616.188	17.61
616.606	17.52
617.023	17.43
617.44	17.33
617.857	17.24
618.274	17.15
618.691	17.09
619.108	17.02
619.525	16.97
619.942	16.92
620.359	16.86
620.776	16.8
621.192	16.76
621.609	16.71
622.026	16.68
622.442	16.65
622.859	16.61
623.275	16.57
623.691	16.54
624.108	16.52
624.524	16.49
624.94	16.47
625.356	16.44
625.772	16.42
626.188	16.42
626.604	16.39
627.02	16.37
627.436	16.35
627.852	16.33
628.268	16.31
628.683	16.28
629.099	16.27
629.514	16.26
629.93	16.25
630.345	16.21
630.761	16.17
631.176	16.14
631.591	16.1
632.007	16.04
632.422	15.98
632.837	15.93
633.252	15.87
633.667	15.78
634.082	15.69
634.497	15.59
634.911	15.5
635.326	15.39
635.741	15.26
636.155	15.14
636.57	15.02
636.984	14.89
637.399	14.73
637.813	14.57
638.228	14.43
638.642	14.27
639.056	14.11
639.47	13.96
639.884	13.8
640.298	13.65
640.712	13.49
641.126	13.32
641.54	13.17
641.954	13.03
642.368	12.87
642.781	12.7
643.195	12.53
643.609	12.38
644.022	12.23
644.436	12.08
644.849	11.93
645.262	11.79
645.676	11.65
646.089	11.52
646.502	11.39
646.915	11.28
647.328	11.17
647.741	11.06
648.154	10.96
648.567	10.86
648.98	10.77
649.393	10.68
649.805	10.59
650.218	10.51
650.631	10.43
651.043	10.37
651.456	10.29
651.868	10.21
652.28	10.15
652.693	10.05
653.105	9.98
653.517	9.89
653.929	9.8
654.341	9.73
654.753	9.63
655.165	9.52
655.577	9.39
655.989	9.29
656.401	9.17
656.813	9.05
657.224	8.93
657.636	8.8
658.047	8.67
658.459	8.53
658.87	8.39
659.282	8.27
659.693	8.12
660.104	8
660.515	7.86
660.926	7.74
661.338	7.6
661.749	7.47
662.159	7.33
662.57	7.23
662.981	7.11
663.392	6.99
663.803	6.88
664.213	6.79
664.624	6.7
665.035	6.62
665.445	6.54
665.855	6.47
666.266	6.41
666.676	6.35
667.086	6.29
667.497	6.24
667.907	6.18
668.317	6.13
668.727	6.09
669.137	6.05
669.547	6.03
669.956	6
670.366	5.99
670.776	5.97
671.186	5.97
671.595	5.96
672.005	5.97
672.414	5.98
672.824	6.01
673.233	6.03
673.642	6.04
674.052	6.04
674.461	6.07
674.87	6.09
675.279	6.12
675.688	6.13
676.097	6.16
676.506	6.19
676.915	6.22
677.323	6.26
677.732	6.3
678.141	6.37
678.549	6.44
678.958	6.51
679.366	6.57
679.775	6.66
680.183	6.76
680.592	6.86
681	6.97
681.408	7.09
681.816	7.21
682.224	7.36
682.632	7.53
683.04	7.72
683.448	7.92
683.856	8.16
684.264	8.42
684.671	8.71
685.079	9.03
685.487	9.39
685.894	9.79
686.302	10.21
686.709	10.66
687.116	11.14
687.524	11.64
687.931	12.18
688.338	12.76
688.745	13.37
689.152	14.02
689.559	14.67
689.966	15.34
690.373	16.05
690.78	16.78
691.187	17.53
691.593	18.27
692	19.05
692.407	19.84
692.813	20.65
693.22	21.43
693.626	22.21
694.032	23.03
694.439	23.88
694.845	24.69
695.251	25.48
695.657	26.26
696.063	27.07
696.469	27.87
696.875	28.64
697.281	29.37
697.687	30.13
698.093	30.88
698.498	31.61
698.904	32.29
699.31	32.97
699.715	33.67
700.12	34.34
700.526	35.01
700.931	35.65
701.337	36.29
701.742	36.89
702.147	37.5
702.552	38.1
702.957	38.67
703.362	39.26
703.767	39.84
704.172	40.4
704.577	40.96
704.981	41.47
705.386	41.98
705.791	42.49
706.195	43.01
706.6	43.49
707.004	43.96
707.408	44.45
707.813	44.89
708.217	45.31
708.621	45.74
709.025	46.16
709.43	46.57
709.834	47
710.237	47.39
710.641	47.82
711.045	48.2
711.449	48.58
711.853	48.95
712.256	49.33
712.66	49.7
713.064	50.03
713.467	50.38
713.87	50.69
714.274	51.04
714.677	51.38
715.08	51.68
715.484	52
715.887	52.3
716.29	52.6
716.693	52.88
717.096	53.19
717.499	53.49
717.901	53.74
718.304	54.05
718.707	54.29
719.109	54.55
719.512	54.79
719.915	55.02
720.317	55.27
720.719	55.46
721.122	55.69
721.524	55.91
721.926	56.11
722.328	56.34
722.731	56.53
723.133	56.73
723.535	56.91
723.937	57.1
724.338	57.29
724.74	57.44
725.142	57.54
725.544	57.73
725.945	57.87
726.347	58.06
726.748	58.19
727.15	58.34
727.551	58.49
727.952	58.64
728.354	58.81
728.755	58.94
729.156	59.08
729.557	59.3
729.958	59.41
730.359	59.54
730.76	59.61
731.161	59.72
731.562	59.83
731.962	59.93
732.363	59.99
732.763	60.05
733.164	60.12
733.564	60.2
733.965	60.28
734.365	60.3
734.766	60.33
735.166	60.36
735.566	60.41
735.966	60.42
736.366	60.41
736.766	60.47
737.166	60.52
737.566	60.57
737.966	60.64
738.365	60.63
738.765	60.7
739.165	60.72
739.564	60.79
739.964	60.84
740.363	60.89
740.763	60.95
741.162	60.97
741.561	61.01
741.96	61.03
742.36	61.03
742.759	61.08
743.158	61.1
743.557	61.14
743.955	61.19
744.354	61.23
744.753	61.28
745.152	61.28
745.55	61.37
745.949	61.37
746.348	61.43
746.746	61.48
747.144	61.49
747.543	61.55
747.941	61.61
748.339	61.65
748.737	61.69
749.136	61.71
749.534	61.78
749.932	61.79
750.33	61.82
750.727	61.82
751.125	61.82
751.523	61.83
751.921	61.87
752.318	61.89
752.716	61.86
753.113	61.84
753.511	61.82
753.908	61.78
754.305	61.71
754.703	61.67
755.1	61.65
755.497	61.64
755.894	61.65
756.291	61.57
756.688	61.55
757.085	61.54
757.482	61.55
757.878	61.54
758.275	61.54
758.672	61.6
759.068	61.65
759.465	61.64
759.861	61.64
760.258	61.63
760.654	61.64
761.05	61.62
761.447	61.59
761.843	61.55
762.239	61.56
762.635	61.56
763.031	61.54
763.427	61.48
763.822	61.47
764.218	61.45
764.614	61.45
765.01	61.44
765.405	61.42
765.801	61.42
766.196	61.45
766.592	61.42
766.987	61.41
767.382	61.42
767.778	61.44
768.173	61.45
768.568	61.42
768.963	61.43
769.358	61.43
769.753	61.46
770.148	61.44
770.542	61.41
770.937	61.42
771.332	61.43
771.726	61.4
772.121	61.37
772.515	61.36
772.91	61.38
773.304	61.37
773.699	61.37
774.093	61.35
774.487	61.36
774.881	61.37
775.275	61.36
775.669	61.33
776.063	61.28
776.457	61.29
776.851	61.27
777.245	61.29
777.638	61.28
778.032	61.3
778.425	61.3
778.819	61.31
779.212	61.27
779.606	61.28
779.999	61.32
780.392	61.36
780.786	61.36
781.179	61.37
781.572	61.32
781.965	61.32
782.358	61.27
782.751	61.28
783.143	61.31
783.536	61.37
783.929	61.37
784.322	61.34
784.714	61.34
785.107	61.37
785.499	61.37
785.891	61.4
786.284	61.37
786.676	61.42
787.068	61.4
787.46	61.38
787.852	61.36
788.245	61.38
788.636	61.37
789.028	61.36
789.42	61.36
789.812	61.33
790.204	61.28
790.595	61.3
790.987	61.28
791.378	61.29
791.77	61.32
792.161	61.34
792.553	61.29
792.944	61.31
793.335	61.32
793.726	61.24
794.117	61.23
794.508	61.27
794.899	61.28
795.29	61.24
795.681	61.24
796.072	61.24
796.463	61.19
796.853	61.2
797.244	61.19
797.634	61.14
798.025	61.18
798.415	61.21
798.806	61.23
799.196	61.26
799.586	61.3
799.976	61.28
800.366	61.24
800.756	61.22
801.146	61.2
801.536	61.21
801.926	61.23
802.316	61.24
802.706	61.25
803.095	61.27
803.485	61.25
803.874	61.24
804.264	61.26
804.653	61.25
805.043	61.28
805.432	61.25
805.821	61.28
806.21	61.31
806.599	61.38
806.988	61.35
807.377	61.32
807.766	61.31
808.155	61.3
808.544	61.3
808.933	61.32
809.321	61.35
809.71	61.44
810.098	61.45
810.487	61.43
810.875	61.34
811.264	61.34
811.652	61.37
812.04	61.39
812.428	61.43
812.816	61.44
813.204	61.44
813.592	61.42
813.98	61.37
814.368	61.31
814.756	61.32
815.144	61.36
815.531	61.36
815.919	61.32
816.306	61.33
816.694	61.3
817.081	61.27
817.469	61.28
817.856	61.31
818.243	61.34
818.63	61.43
819.017	61.44
819.404	61.42
819.791	61.41
820.178	61.46
820.565	61.44
820.952	61.43
821.339	61.46
821.725	61.47
822.112	61.45
822.498	61.47
822.885	61.43
823.271	61.45
823.657	61.46
824.044	61.5
824.43	61.5
824.816	61.51
825.202	61.53
825.588	61.53
825.974	61.53
826.36	61.53
826.746	61.54
827.132	61.51
827.517	61.52
827.903	61.53
828.289	61.52
828.674	61.54
829.06	61.54
829.445	61.56
829.83	61.56
830.216	61.58
830.601	61.6
830.986	61.61
831.371	61.66
831.756	61.62
832.141	61.64
832.526	61.65
832.911	61.63
833.295	61.66
833.68	61.62
834.065	61.63
834.449	61.59
834.834	61.58
835.218	61.56
835.603	61.54
835.987	61.57
836.371	61.57
836.755	61.56
837.139	61.54
837.524	61.56
837.908	61.6
838.291	61.6
838.675	61.61
839.059	61.59
839.443	61.58
839.827	61.59
840.21	61.6
840.594	61.57
840.977	61.55
841.361	61.57
841.744	61.54
842.127	61.55
842.511	61.52
842.894	61.52
843.277	61.55
843.66	61.55
844.043	61.55
844.426	61.54
844.809	61.53
845.191	61.54
845.574	61.53
845.957	61.51
846.339	61.48
846.722	61.48
847.104	61.49
847.487	61.48
847.869	61.47
848.252	61.44
848.634	61.42
849.016	61.42
849.398	61.4
849.78	61.39
850.162	61.38
850.544	61.4
850.926	61.42
851.307	61.39
851.689	61.36
852.071	61.35
852.452	61.34
852.834	61.33
853.215	61.35
853.597	61.33
853.978	61.31
854.359	61.3
854.741	61.3
855.122	61.28
855.503	61.29
855.884	61.29
856.265	61.29
856.646	61.27
857.026	61.26
857.407	61.21
857.788	61.24
858.169	61.25
858.549	61.26
858.93	61.23
859.31	61.21
859.69	61.21
860.071	61.23
860.451	61.24
860.831	61.26
861.211	61.26
861.591	61.3
861.971	61.29
862.351	61.3
862.731	61.29
863.111	61.31
863.491	61.35
863.87	61.36
864.25	61.34
864.629	61.3
865.009	61.32
865.388	61.3
865.768	61.28
866.147	61.29
866.526	61.27
866.905	61.26
867.284	61.27
867.663	61.26
868.042	61.24
868.421	61.25
868.8	61.27
869.179	61.24
869.558	61.26
869.936	61.29
870.315	61.28
870.693	61.3
871.072	61.29
871.45	61.29
871.828	61.28
872.207	61.31
872.585	61.29
872.963	61.26
873.341	61.29
873.719	61.26
874.097	61.25
874.475	61.27
874.853	61.26
875.23	61.26
875.608	61.25
875.986	61.22
876.363	61.22
876.741	61.27
877.118	61.28
877.495	61.27
877.873	61.25
878.25	61.22
878.627	61.22
879.004	61.21
879.381	61.25
879.758	61.24
880.135	61.29
880.512	61.27
880.889	61.26
881.265	61.28
881.642	61.26
882.019	61.3
882.395	61.3
882.772	61.28
883.148	61.26
883.524	61.24
883.901	61.23
884.277	61.19
884.653	61.2
885.029	61.19
885.405	61.18
885.781	61.17
886.157	61.17
886.532	61.18
886.908	61.22
887.284	61.25
887.659	61.25
888.035	61.27
888.411	61.26
888.786	61.24
889.161	61.22
889.537	61.23
889.912	61.24
890.287	61.24
890.662	61.24
891.037	61.16
891.412	61.11
891.787	61.09
892.162	61.1
892.536	61.09
892.911	61.09
893.286	61.06
893.66	61.03
894.035	61.02
894.409	61
894.784	61
895.158	61.01
895.532	61.01
895.906	61
896.281	60.96
896.655	60.95
897.029	60.93
897.402	60.95
897.776	60.99
898.15	61.02
898.524	61.02
898.898	60.99
899.271	60.97
899.645	60.97
900.018	60.96
900.392	60.98
900.765	60.99
901.138	61.02
901.511	61
901.884	60.95
902.258	60.89
902.631	60.88
903.003	60.9
903.376	60.92
903.749	60.98
904.122	61.04
904.495	61.05
904.867	61.04
905.24	61.02
905.612	61.01
905.985	61.03
906.357	61.03
906.729	61.03
907.102	61.01
907.474	61
907.846	60.93
908.218	60.87
908.59	60.77
908.962	60.73
909.334	60.73
909.705	60.7
910.077	60.67
910.449	60.64
910.82	60.63
911.192	60.64
911.563	60.62
911.935	60.61
912.306	60.62
912.677	60.69
913.048	60.69
913.419	60.66
913.79	60.67
914.161	60.67
914.532	60.68
914.903	60.66
915.274	60.61
915.645	60.64
916.015	60.64
916.386	60.61
916.756	60.54
917.127	60.58
917.497	60.58
917.868	60.56
918.238	60.58
918.608	60.58
918.978	60.57
919.348	60.52
919.718	60.49
920.088	60.51
920.458	60.57
920.828	60.61
921.198	60.6
921.567	60.59
921.937	60.58
922.306	60.58
922.676	60.61
923.045	60.6
923.415	60.62
923.784	60.63
924.153	60.59
924.522	60.53
924.891	60.53
925.26	60.52
925.629	60.52
925.998	60.51
926.367	60.49
926.736	60.45
927.104	60.47
927.473	60.53
927.842	60.52
928.21	60.56
928.578	60.58
928.947	60.57
929.315	60.57
929.683	60.57
930.051	60.56
930.42	60.52
930.788	60.5
931.156	60.47
931.523	60.43
931.891	60.37
932.259	60.32
932.627	60.24
932.994	60.2
933.362	60.15
933.729	60.11
934.097	60.06
934.464	60.09
934.831	60.06
935.199	59.99
935.566	59.95
935.933	60.03
936.3	60
936.667	59.97
937.034	59.91
937.401	59.92
937.767	59.89
938.134	59.88
938.501	59.79
938.867	59.88
939.234	59.94
939.6	59.94
939.967	59.84
940.333	60
940.699	60.16
941.065	60.29
941.431	60.33
941.798	60.43
942.163	60.59
942.529	60.7
942.895	60.76
943.261	60.82
943.627	60.9
943.992	60.97
944.358	60.83
944.723	60.76
945.089	60.74
945.454	60.81
945.82	60.78
946.185	60.82
946.55	60.96
946.915	60.91
947.28	60.88
947.645	60.93
948.01	60.88
948.375	60.96
948.74	60.85
949.104	60.92
949.469	60.79
949.834	60.77
950.198	60.64
950.562	60.54
950.927	60.46
951.291	60.38
951.655	60.31
952.02	60.33
952.384	60.34
952.748	60.38
953.112	60.28
953.476	60.25
953.839	60.21
954.203	60.14
954.567	60.09
954.931	60.07
955.294	60.11
955.658	60.05
956.021	60.04
956.385	59.97
956.748	59.94
957.111	59.91
957.474	59.94
957.837	59.91
958.2	59.89
958.563	59.88
958.926	59.88
959.289	59.88
959.652	59.85
960.015	59.76
960.377	59.68
960.74	59.63
961.102	59.58
961.465	59.57
961.827	59.54
962.189	59.59
962.552	59.54
962.914	59.47
963.276	59.47
963.638	59.45
964	59.46
964.362	59.54
964.724	59.6
965.085	59.58
965.447	59.46
965.809	59.4
966.17	59.36
966.532	59.31
966.893	59.36
967.255	59.29
967.616	59.28
967.977	59.36
968.338	59.31
968.699	59.25
969.061	59.27
969.421	59.37
969.782	59.49
970.143	59.42
970.504	59.46
970.865	59.39
971.225	59.39
971.586	59.46
971.946	59.51
972.307	59.55
972.667	59.57
973.027	59.61
973.388	59.57
973.748	59.59
974.108	59.67
974.468	59.64
974.828	59.68
975.188	59.7
975.548	59.68
975.907	59.61
976.267	59.59
976.627	59.61
976.986	59.62
977.346	59.68
977.705	59.6
978.064	59.63
978.424	59.77
978.783	59.81
979.142	59.76
979.501	59.65
979.86	59.59
980.219	59.54
980.578	59.48
980.937	59.42
981.296	59.47
981.654	59.5
982.013	59.49
982.371	59.39
982.73	59.39
983.088	59.43
983.447	59.56
983.805	59.55
984.163	59.62
984.521	59.6
984.879	59.72
985.237	59.67
985.595	59.68
985.953	59.67
986.311	59.67
986.669	59.67
987.026	59.79
987.384	59.77
987.741	59.88
988.099	59.84
988.456	59.92
988.814	59.87
989.171	59.87
989.528	59.79
989.885	59.78
990.242	59.82
990.599	59.81
990.956	59.71
991.313	59.72
991.67	59.68
992.027	59.72
992.383	59.78
992.74	59.77
993.096	59.72
993.453	59.94
993.809	59.98
994.165	60.06
994.522	60.13
994.878	60.17
995.234	60.14
995.59	60.11
995.946	60.17
996.302	60.06
996.658	60.16
997.013	60.16
997.369	60.07
997.725	60.27
998.08	60.31
998.436	60.33
998.791	60.24
999.147	60.35
999.502	60.37
999.857	60.4
1000.212	60.47
1000.567	60.41
1000.922	60.52
1001.277	60.51
1001.632	60.42
1001.987	60.32
1002.342	60.22
1002.696	60.3
1003.051	60.3
1003.406	60.46
1003.76	60.31
1004.114	60.45
1004.469	60.48
1004.823	60.51
1005.177	60.59
1005.531	60.34
1005.885	60.42
1006.239	60.39
1006.593	60.38
1006.947	60.29
1007.301	60.21
1007.655	60.35
1008.008	60.05
1008.362	60
1008.715	59.98
1009.069	59.94
1009.422	60.05
1009.776	60.02
1010.129	60.09
1010.482	60.32
1010.835	60.5
1011.188	60.51
1011.541	60.4
1011.894	60.67
1012.247	60.74
1012.6	60.64
1012.952	60.61
1013.305	60.62
1013.657	60.7
1014.01	61.04
1014.362	60.99
1014.715	60.79
1015.067	60.86
1015.419	61.09
1015.771	61.32
1016.123	61.27
1016.475	61.52
1016.827	61.74
1017.179	61.88
1017.531	61.75
1017.883	61.88
1018.234	61.82
1018.586	61.98
1018.938	61.73
1019.289	61.48
1019.64	61.51
1019.992	61.66
1020.343	61.41
1020.694	61.39
1021.045	61.3
1021.396	61.55
1021.747	61.33
1022.098	61.93
1022.449	61.93
1022.8	62.18
1023.151	62.34
1023.501	62.51
1023.852	62.75
1024.202	63.04
1024.553	62.77
1024.903	63.07
1025.253	63.09
1025.604	63.32
1025.954	62.79
1026.304	63.24
1026.654	63.64
1027.004	63.91
1027.354	63.62
1027.703	63.38
1028.053	63.34
1028.403	63.87
1028.753	63.85
1029.102	63.71
1029.452	63.35
1029.801	63.24
1030.15	63
1030.499	62.67
897.758	165.96
901.051	177
904.343	180.48
907.636	178.99
910.928	177.01
914.22	179.82
917.511	173.92
920.803	170.48
924.094	168.89
927.384	173.16
930.675	172.44
933.965	171.2
937.255	164.88
940.544	157.28
943.834	149.28
947.123	148.14
950.411	142.26
953.7	142.47
956.988	140.48
960.276	133.2
963.563	133.14
966.851	125.43
970.138	124.93
973.424	121.18
976.711	122.52
979.997	120.69
983.283	118.89
986.568	116.14
989.853	114.9
993.138	112.96
996.423	109.85
999.708	107.82
1002.992	109.14
1006.275	106.82
1009.559	108.8
1012.842	104.55
1016.125	103.02
1019.408	101.65
1022.69	102.95
1025.972	102.25
1029.254	100.06
1032.536	100.32
1035.817	98.38
1039.098	97.22
1042.379	97.22
1045.659	94.69
1048.939	94.47
1052.219	94.15
1055.498	93.73
1058.778	91.97
1062.057	90.96
1065.335	91.68
1068.614	90.06
1071.892	90.1
1075.17	89.06
1078.447	88.3
1081.724	88.47
1085.001	87.69
1088.278	87.05
1091.554	86.47
1094.83	87.33
1098.106	87.03
1101.382	86.28
1104.657	86.49
1107.932	85.34
1111.206	85.98
1114.481	86.67
1117.755	85.28
1121.029	85.21
1124.302	84.17
1127.575	84.31
1130.848	82.89
1134.121	81.74
1137.393	81.13
1140.665	81.37
1143.937	80.72
1147.208	78.76
1150.48	77.85
1153.75	77.31
1157.021	78.02
1160.291	78.39
1163.561	77.73
1166.831	77.38
1170.101	77.66
1173.37	78.01
1176.639	77.19
1179.907	77.44
1183.176	78.43
1186.444	77.72
1189.711	77.96
1192.979	77.33
1196.246	78.2
1199.513	77.4
1202.78	77.91
1206.046	77.82
1209.312	78.06
1212.578	78.06
1215.843	79.16
1219.108	78.87
1222.373	79.09
1225.638	79.94
1228.902	81.15
1232.166	81.09
1235.43	80.73
1238.693	81.68
1241.956	82.51
1245.219	83.26
1248.482	84.65
1251.744	83.89
1255.006	84.02
1258.268	83.42
1261.529	82.94
1264.79	82.28
1268.051	81.78
1271.312	82.73
1274.572	81.47
1277.832	80.75
1281.092	80.25
1284.351	78.89
1287.61	78.58
1290.869	79.13
1294.128	78.92
1297.386	78.92
1300.644	78.56
1303.902	78.21
1307.159	77.02
1310.416	77.14
1313.673	77.62
1316.93	77.75
1320.186	77.86
1323.442	78.18
1326.697	77.14
1329.953	77.29
1333.208	77.13
1336.463	78.61
1339.717	79.21
1342.972	82.04
1346.226	83.95
1349.479	83.85
1352.733	85.04
1355.986	85.04
1359.238	86.02
1362.491	86.7
1365.743	87.41
1368.995	88.91
1372.247	84.27
1375.498	82.69
1378.749	82.31
1382	81.23
1385.251	78.98
1388.501	78.94
1391.751	79.85
1395	78.61
1398.25	77.83
1401.499	75.88
1404.748	73.9
1407.996	76.2
1411.244	77.32
1414.492	75.44
1417.74	70.56
1420.987	69.05
1424.234	67.02
1427.481	63.78
1430.728	62.79
1433.974	60.3
1437.22	59.7
1440.465	57.44
1443.711	54.75
1446.956	53.38
1450.201	53.04
1453.445	52.18
1456.689	52.24
1459.933	50.52
1463.177	49.59
1466.42	48.39
1469.663	48.52
1472.906	47.52
1476.148	47.46
1479.391	47.34
1482.633	47
1485.874	47.11
1489.115	47.12
1492.356	45.89
1495.597	46.88
1498.838	47.74
1502.078	48.15
1505.318	48.33
1508.557	48.14
1511.797	48.66
1515.036	49.62
1518.274	49.56
1521.513	49.32
1524.751	49.65
1527.989	51.53
1531.227	50.95
1534.464	51.49
1537.701	51.55
1540.938	51.39
1544.174	51.85
1547.41	51.82
1550.646	52.02
1553.882	52.51
1557.117	53.05
1560.352	53.44
1563.587	53.1
1566.821	53.26
1570.055	53.02
1573.289	53.27
1576.523	54.04
1579.756	54.38
1582.989	54.6
1586.222	54.84
1589.454	55.07
1592.686	55.46
1595.918	55.38
1599.15	55.56
1602.381	55.84
1605.612	56.46
1608.843	56.34
1612.073	56.2
1615.303	56.6
1618.533	56.73
1621.762	56.38
1624.992	56.41
1628.221	55.93
1631.449	56.53
1634.678	56.78
1637.906	56.96
1641.134	57.04
1644.361	57.27
1647.588	57.4
1650.815	57.49
1654.042	57.9
1657.269	57.97
1660.495	58.3
1663.72	58.53
1666.946	57.98
1670.171	58.2
1673.396	57.83
1676.621	58
1679.845	58.7
1683.069	57.64
1686.293	57.11
1689.517	57.56
1692.74	57.34
1695.963	57.4
1699.185	57.24
1702.408	57.19
1705.63	57.21
1708.852	57.7
1712.073	56.62
1715.294	55.94
1718.515	57.31
1721.736	57.43
1724.956	56.28
1728.176	56.29
1731.396	56.07
1734.616	56.15
1737.835	56.11
1741.054	55.78
1744.272	55.66
1747.491	56.16
1750.709	55.99
1753.927	55.24
1757.144	55.43
1760.361	55.49
1763.578	55.39
1766.795	55.61
1770.011	55.48
1773.227	55.4
1776.443	55.21
1779.658	54.84
1782.874	54.82
1786.089	54.4
1789.303	54.71
1792.518	54.65
1795.732	55.11
1798.945	55.45
1802.159	55.21
1805.372	55.44
1808.585	55.38
1811.797	55.98
1815.01	56.01
1818.222	56.29
1821.434	56.22
1824.645	56.27
1827.856	56.51
1831.067	55.77
1834.278	56.57
1837.488	56.56
1840.698	56.35
1843.908	56.48
1847.117	56.06
1850.326	56.04
1853.535	55.92
1856.744	56.35
1859.952	55.83
1863.16	54.94
1866.368	54.49
1869.575	52.53
1872.782	51.3
1875.989	49.12
1879.196	48.65
1882.402	46.03
1885.608	45.78
1888.814	43.86
1892.019	40.91
1895.224	39.16
1898.429	38.62
1901.634	37.43
1904.838	36.66
1908.042	36.31
1911.246	36.3
1914.449	35.2
1917.652	36.15
1920.855	35.48
1924.058	34.9
1927.26	35.74
1930.462	36.11
1933.664	36.74
1936.865	36.01
1940.066	35.33
1943.267	35.45
1946.467	35.93
1949.668	35.53
1952.868	35.93
1956.067	35.56
1959.267	37.84
1962.466	37.78
1965.665	37.87
1968.863	38.1
1972.061	38.73
1975.259	39.84
1978.457	39.69
1981.654	39.8
1984.852	40.68
1988.048	41.05
1991.245	42.8
1994.441	42.15
1997.637	43.4
2000.833	45.17
2004.028	44.87
2007.223	45.96
2010.418	48.32
2013.613	51.13
2016.807	52.97
2020.001	52.75
2023.194	55.35
2026.388	55.57
2029.581	59.01
2032.774	59.59
2035.966	60.94
2039.158	63.95
2042.35	65.06
2045.542	65.32
2048.733	65.62
2051.924	66.15
2055.115	68.37
2058.306	67.98
2061.496	69.17
2064.686	67.69
2067.875	70.85
2071.065	70.87
2074.254	69.29
2077.442	72.88
2080.631	74.05
2083.819	74.88
2087.007	75.99
2090.195	78.89
2093.382	77
2096.569	77.45
2099.756	80.43
2102.942	80.16
2106.128	81.52
2109.314	84.33
2112.5	83.41
2115.685	81.5
2118.87	82.09
2122.055	83.44
2125.239	82.72
2128.424	87.29
2131.608	86.9
2134.791	85.75
2137.974	86.87
2141.157	89.03
2144.34	89.27
2147.523	90.56
2150.705	93.06
2153.887	94.1
2157.068	96.87
2160.25	95.35
2163.431	95.89
2166.611	98.8
2169.792	101.37
2172.972	102.08
2176.152	101.97
2179.331	102.98
2182.511	103.32
2185.69	104.75
2188.868	102.6
2192.047	103.06
2195.225	107.91
2198.403	105.87
2201.58	104.67
2204.758	107.12
2207.935	105.47
2211.111	106.31
2214.288	107.73
2217.464	109.84
2220.64	112.76
2223.815	114.18
2226.991	114.29
2230.166	113.66
2233.34	117.61
2236.515	120.04
2239.689	115.17
2242.863	120.04
2246.036	119.35
2249.209	118.81
2252.382	119.63
2255.555	121.03
2258.727	123.97
2261.9	125.77
2265.071	127.15
2268.243	127.56
2271.414	127.06
2274.585	131.56
2277.756	130.05
2280.926	128.59
2284.096	133.93
2287.266	134.23
2290.436	132.73
2293.605	137.74
2296.774	143.4
2299.942	142.31
2303.111	146.51
2306.279	150.62
2309.447	153.26
2312.614	153.82
2315.781	156.79
2318.948	159.29
2322.115	161.48
2325.281	162.86
2328.447	161.13
2331.613	159.85
2334.779	165.15
2337.944	162.93
2341.109	166.22
2344.274	168.39
2347.438	170.47
2350.602	178.97
2353.766	179.87
2356.929	178.84
2360.092	187.4
2363.255	185.44
2366.418	186.71
2369.58	188.6
2372.742	194.42
2375.904	195.15
2379.066	197.25
2382.227	213.91
2385.388	205.42
2388.548	206.34
2391.709	203.81
2394.869	203.03
2398.029	209.77
2401.188	208.37
2404.347	214.4
2407.506	214.6
2410.665	209.53
2413.823	211.54
2416.981	209.12
2420.139	206.29
2423.296	218.87
2426.453	233.58
2429.61	230
2432.767	240.61
2435.923	254.31
2439.079	244.63
2442.235	250.84
2445.391	255.74
2448.546	253.95
2451.701	260.44
2454.855	278.92
2458.009	253.52
2461.163	252.79
2464.317	248.54
2467.471	244.51
2470.624	244
2473.777	247.1
2476.929	247.1
2480.082	254.43
2483.234	266.61
2486.385	270.89
2489.537	276.55
2492.688	297.5
2495.839	293.79
2498.989	308.4
2502.14	306.83
2505.29	301.88
2508.439	322.44
2511.589	324.39
2514.738	317.78
2517.887	313.5
2521.035	297.21
2524.183	296.84
2527.331	293.38
2530.479	290.78
2533.627	295.38
