Data from c_1_div_wi_4n_031_Splice17_02.txt Node
Date: Sat Feb 29 13:23:18 EST 2020
User: sa697716
Spectrometer: FLMS03696
Trigger mode: 0
Integration Time (sec): 3.180400E-1
Scans to average: 20
Electric dark correction enabled: true
Nonlinearity correction enabled: true
Boxcar width: 5
XAxis mode: Wavelengths
Number of Pixels in Spectrum: 2048
>>>>>Begin Spectral Data<<<<<
187.83	92.41
188.298	95.75
188.766	88.87
189.233	82.48
189.701	86.44
190.169	86.9
190.636	81.67
191.104	73.89
191.571	170.93
192.039	231.97
192.506	99.37
192.974	5551.29
193.441	-253.36
193.908	89.11
194.375	59.23
194.842	116.02
195.31	118.5
195.777	72.5
196.244	83.33
196.711	85.94
197.177	85.03
197.644	82.62
198.111	83.39
198.578	84.4
199.045	83.74
199.511	83.9
199.978	83.89
200.445	82.96
200.911	83.04
201.378	82.92
201.844	82.82
202.31	82.68
202.777	82.62
203.243	81.78
203.709	80.95
204.176	80.6
204.642	79.79
205.108	78.73
205.574	78.44
206.04	77.85
206.506	76.77
206.972	75.55
207.438	74.69
207.903	73.74
208.369	72.46
208.835	71.31
209.301	70.2
209.766	68.2
210.232	66.99
210.697	65.8
211.163	64.19
211.628	62.67
212.094	61.09
212.559	59.45
213.024	58.33
213.49	56.71
213.955	55.12
214.42	53.25
214.885	51.78
215.35	49.45
215.815	46.15
216.28	42.68
216.745	39.25
217.21	35.82
217.675	32.39
218.14	29.05
218.604	26.24
219.069	23.88
219.534	21.82
219.998	20.13
220.463	18.74
220.927	17.62
221.392	16.64
221.856	15.73
222.32	14.95
222.785	14.29
223.249	13.78
223.713	13.32
224.177	12.84
224.642	12.47
225.106	12.1
225.57	11.72
226.034	11.38
226.497	11.08
226.961	10.78
227.425	10.5
227.889	10.24
228.353	9.96
228.816	9.75
229.28	9.53
229.744	9.34
230.207	9.14
230.671	8.97
231.134	8.81
231.597	8.66
232.061	8.51
232.524	8.41
232.987	8.29
233.45	8.16
233.914	8.05
234.377	7.94
234.84	7.84
235.303	7.74
235.766	7.65
236.229	7.56
236.691	7.48
237.154	7.39
237.617	7.3
238.08	7.22
238.542	7.15
239.005	7.09
239.468	7.02
239.93	6.95
240.393	6.88
240.855	6.81
241.317	6.74
241.78	6.68
242.242	6.6
242.704	6.55
243.166	6.49
243.629	6.43
244.091	6.37
244.553	6.31
245.015	6.25
245.477	6.19
245.939	6.11
246.4	6.05
246.862	5.99
247.324	5.96
247.786	5.89
248.247	5.83
248.709	5.78
249.17	5.73
249.632	5.67
250.093	5.61
250.555	5.57
251.016	5.53
251.477	5.49
251.939	5.44
252.4	5.4
252.861	5.36
253.322	5.32
253.783	5.29
254.244	5.24
254.705	5.2
255.166	5.18
255.627	5.14
256.088	5.09
256.549	5.06
257.009	5.03
257.47	4.99
257.931	4.94
258.391	4.89
258.852	4.84
259.312	4.81
259.773	4.77
260.233	4.71
260.694	4.67
261.154	4.63
261.614	4.58
262.074	4.54
262.534	4.49
262.994	4.45
263.455	4.42
263.915	4.38
264.374	4.35
264.834	4.32
265.294	4.29
265.754	4.26
266.214	4.23
266.673	4.22
267.133	4.19
267.593	4.17
268.052	4.15
268.512	4.13
268.971	4.11
269.431	4.09
269.89	4.07
270.349	4.05
270.809	4.04
271.268	4.03
271.727	4.01
272.186	3.99
272.645	3.98
273.104	3.98
273.563	3.96
274.022	3.96
274.481	3.95
274.94	3.93
275.399	3.93
275.857	3.92
276.316	3.9
276.775	3.89
277.233	3.88
277.692	3.87
278.15	3.86
278.609	3.85
279.067	3.84
279.525	3.83
279.984	3.82
280.442	3.81
280.9	3.81
281.358	3.81
281.816	3.8
282.274	3.8
282.732	3.8
283.19	3.8
283.648	3.8
284.106	3.78
284.564	3.79
285.021	3.79
285.479	3.79
285.937	3.78
286.394	3.77
286.852	3.77
287.309	3.76
287.767	3.74
288.224	3.73
288.682	3.72
289.139	3.71
289.596	3.69
290.053	3.66
290.511	3.63
290.968	3.61
291.425	3.59
291.882	3.57
292.339	3.54
292.796	3.52
293.252	3.51
293.709	3.49
294.166	3.47
294.623	3.46
295.079	3.45
295.536	3.44
295.992	3.43
296.449	3.42
296.905	3.41
297.362	3.4
297.818	3.39
298.274	3.37
298.731	3.37
299.187	3.37
299.643	3.36
300.099	3.35
300.555	3.34
301.011	3.34
301.467	3.33
301.923	3.33
302.379	3.33
302.835	3.33
303.291	3.33
303.746	3.33
304.202	3.32
304.658	3.32
305.113	3.32
305.569	3.31
306.024	3.32
306.479	3.32
306.935	3.32
307.39	3.32
307.845	3.32
308.301	3.33
308.756	3.34
309.211	3.34
309.666	3.34
310.121	3.34
310.576	3.34
311.031	3.34
311.486	3.34
311.94	3.35
312.395	3.36
312.85	3.36
313.305	3.36
313.759	3.36
314.214	3.37
314.668	3.37
315.123	3.38
315.577	3.38
316.032	3.38
316.486	3.37
316.94	3.36
317.394	3.35
317.849	3.34
318.303	3.34
318.757	3.32
319.211	3.3
319.665	3.29
320.119	3.28
320.572	3.27
321.026	3.26
321.48	3.24
321.934	3.24
322.387	3.23
322.841	3.23
323.295	3.21
323.748	3.21
324.202	3.2
324.655	3.2
325.108	3.19
325.562	3.18
326.015	3.18
326.468	3.17
326.921	3.16
327.374	3.16
327.827	3.16
328.28	3.16
328.733	3.17
329.186	3.18
329.639	3.17
330.092	3.17
330.545	3.18
330.997	3.19
331.45	3.19
331.903	3.19
332.355	3.19
332.808	3.2
333.26	3.2
333.713	3.22
334.165	3.22
334.617	3.23
335.069	3.24
335.522	3.25
335.974	3.26
336.426	3.27
336.878	3.27
337.33	3.27
337.782	3.27
338.234	3.27
338.686	3.25
339.137	3.26
339.589	3.25
340.041	3.24
340.493	3.22
340.944	3.2
341.396	3.19
341.847	3.18
342.299	3.16
342.75	3.14
343.201	3.13
343.653	3.12
344.104	3.1
344.555	3.09
345.006	3.08
345.457	3.07
345.908	3.07
346.359	3.07
346.81	3.07
347.261	3.06
347.712	3.07
348.163	3.06
348.613	3.06
349.064	3.05
349.515	3.04
349.965	3.04
350.416	3.04
350.866	3.04
351.317	3.02
351.767	3.01
352.217	3.02
352.668	3.02
353.118	3.02
353.568	3.03
354.018	3.04
354.468	3.03
354.918	3.04
355.368	3.04
355.818	3.04
356.268	3.04
356.718	3.04
357.168	3.03
357.617	3.04
358.067	3.04
358.517	3.03
358.966	3.04
359.416	3.05
359.865	3.06
360.315	3.06
360.764	3.06
361.213	3.06
361.663	3.07
362.112	3.08
362.561	3.07
363.01	3.07
363.459	3.08
363.908	3.07
364.357	3.06
364.806	3.07
365.255	3.08
365.703	3.1
366.152	3.11
366.601	3.12
367.05	3.12
367.498	3.13
367.947	3.14
368.395	3.15
368.844	3.15
369.292	3.15
369.74	3.16
370.189	3.15
370.637	3.14
371.085	3.14
371.533	3.14
371.981	3.15
372.429	3.13
372.877	3.13
373.325	3.12
373.773	3.12
374.221	3.13
374.669	3.13
375.116	3.12
375.564	3.12
376.012	3.12
376.459	3.14
376.907	3.15
377.354	3.16
377.801	3.17
378.249	3.19
378.696	3.21
379.143	3.23
379.591	3.24
380.038	3.27
380.485	3.3
380.932	3.32
381.379	3.35
381.826	3.38
382.273	3.41
382.72	3.47
383.166	3.52
383.613	3.58
384.06	3.65
384.506	3.73
384.953	3.84
385.4	3.95
385.846	4.09
386.292	4.26
386.739	4.44
387.185	4.67
387.631	4.86
388.078	5.04
388.524	5.16
388.97	5.29
389.416	5.44
389.862	5.64
390.308	5.92
390.754	6.25
391.2	6.59
391.645	6.87
392.091	7.08
392.537	7.31
392.983	7.66
393.428	8.19
393.874	8.86
394.319	9.62
394.765	10.4
395.21	11.16
395.655	11.94
396.101	12.75
396.546	13.68
396.991	14.74
397.436	15.88
397.881	17.04
398.326	18.15
398.771	19.14
399.216	20.07
399.661	20.93
400.106	21.7
400.551	22.36
400.995	22.94
401.44	23.45
401.885	23.93
402.329	24.44
402.774	24.95
403.218	25.53
403.663	26.18
404.107	26.91
404.551	27.67
404.995	28.42
405.44	29.1
405.884	29.81
406.328	30.64
406.772	31.64
407.216	32.68
407.66	33.67
408.104	34.55
408.547	35.32
408.991	36.01
409.435	36.74
409.879	37.59
410.322	38.61
410.766	39.67
411.209	40.7
411.653	41.59
412.096	42.39
412.54	43.14
412.983	43.92
413.426	44.79
413.869	45.7
414.312	46.6
414.756	47.43
415.199	48.16
415.642	48.81
416.085	49.41
416.527	49.89
416.97	50.23
417.413	50.43
417.856	50.5
418.298	50.52
418.741	50.55
419.184	50.69
419.626	50.92
420.069	51.27
420.511	51.63
420.953	51.97
421.396	52.41
421.838	53.04
422.28	53.86
422.722	54.72
423.164	55.52
423.606	56.3
424.048	56.88
424.49	57.17
424.932	57
425.374	56.34
425.816	55.31
426.258	54.13
426.699	53.21
427.141	52.91
427.582	53.3
428.024	54.15
428.465	55.08
428.907	56
429.348	56.82
429.789	57.87
430.231	59.58
430.672	62.04
431.113	64.93
431.554	67.79
431.995	70.08
432.436	71.71
432.877	72.94
433.318	73.92
433.759	74.93
434.2	76.21
434.64	77.83
435.081	79.43
435.522	80.86
435.962	81.98
436.403	82.95
436.843	83.8
437.284	84.64
437.724	85.55
438.164	86.66
438.604	87.98
439.045	89.39
439.485	90.69
439.925	91.76
440.365	92.66
440.805	93.39
441.245	93.98
441.685	94.57
442.125	95.29
442.564	96.11
443.004	96.95
443.444	97.94
443.883	98.98
444.323	100.05
444.762	101.13
445.202	102.28
445.641	103.63
446.081	105.31
446.52	106.99
446.959	108.62
447.398	109.95
447.837	110.93
448.276	111.35
448.716	111.64
449.154	111.89
449.593	112.16
450.032	112.29
450.471	112.18
450.91	111.75
451.349	111.28
451.787	110.88
452.226	110.56
452.664	110.35
453.103	110.28
453.541	110.11
453.98	109.74
454.418	109.21
454.856	108.56
455.295	108.07
455.733	107.52
456.171	107.07
456.609	106.69
457.047	106.13
457.485	105.88
457.923	105.81
458.361	105.85
458.798	106.09
459.236	106.4
459.674	106.8
460.111	107.06
460.549	107.53
460.987	107.97
461.424	108.3
461.862	108.91
462.299	109.27
462.736	109.62
463.173	110.21
463.611	110.86
464.048	111.69
464.485	112.59
464.922	113.64
465.359	114.59
465.796	115.43
466.233	116.44
466.67	117.39
467.106	118.5
467.543	119.72
467.98	120.73
468.416	121.72
468.853	122.45
469.29	123.14
469.726	123.81
470.162	124.51
470.599	125.13
471.035	125.64
471.471	125.92
471.907	125.99
472.344	125.91
472.78	125.71
473.216	125.41
473.652	125.15
474.088	124.78
474.523	124.16
474.959	123.47
475.395	122.79
475.831	122.03
476.266	121.34
476.702	120.63
477.138	119.73
477.573	118.8
478.008	117.73
478.444	116.5
478.879	115.3
479.314	114.11
479.75	112.84
480.185	111.47
480.62	109.99
481.055	108.36
481.49	106.36
481.925	104.27
482.36	102.3
482.795	100.53
483.229	99.14
483.664	97.83
484.099	96.6
484.534	95.45
484.968	94.5
485.403	93.66
485.837	93.09
486.271	92.85
486.706	92.69
487.14	92.59
487.574	92.29
488.009	91.86
488.443	91.43
488.877	91.04
489.311	90.72
489.745	90.41
490.179	90.25
490.613	90.02
491.046	89.88
491.48	89.83
491.914	89.77
492.348	89.88
492.781	89.98
493.215	90.13
493.648	90.25
494.082	90.34
494.515	90.46
494.948	90.51
495.382	90.61
495.815	90.63
496.248	90.66
496.681	90.68
497.114	90.7
497.547	90.7
497.98	90.74
498.413	90.86
498.846	91.05
499.279	91.21
499.711	91.34
500.144	91.52
500.577	91.84
501.009	92.25
501.442	92.77
501.874	93.24
502.306	93.84
502.739	94.31
503.171	94.86
503.603	95.3
504.036	95.71
504.468	96.28
504.9	96.85
505.332	97.33
505.764	97.83
506.196	98.24
506.627	98.76
507.059	99.26
507.491	99.8
507.923	100.23
508.354	100.79
508.786	101.38
509.217	101.81
509.649	102.32
510.08	102.8
510.512	103.3
510.943	103.91
511.374	104.48
511.805	104.9
512.237	105.28
512.668	105.58
513.099	105.97
513.53	106.32
513.961	106.76
514.391	107.15
514.822	107.66
515.253	108.21
515.684	108.67
516.114	109.22
516.545	109.76
516.975	110.45
517.406	111.21
517.836	111.87
518.267	112.5
518.697	113.02
519.127	113.55
519.558	113.95
519.988	114.32
520.418	114.69
520.848	114.92
521.278	115.22
521.708	115.28
522.138	115.43
522.567	115.58
522.997	115.74
523.427	116.01
523.857	116.21
524.286	116.53
524.716	116.83
525.145	117.06
525.575	117.38
526.004	117.72
526.433	118.24
526.863	118.73
527.292	119.21
527.721	119.63
528.15	119.92
528.579	120.17
529.008	120.4
529.437	120.56
529.866	120.76
530.295	120.93
530.724	121.14
531.152	121.28
531.581	121.4
532.01	121.47
532.438	121.54
532.867	121.73
533.295	121.93
533.723	122.12
534.152	122.27
534.58	122.39
535.008	122.45
535.436	122.47
535.865	122.48
536.293	122.48
536.721	122.56
537.149	122.69
537.576	122.9
538.004	123.13
538.432	123.3
538.86	123.52
539.287	123.77
539.715	124.08
540.143	124.42
540.57	124.86
540.998	125.37
541.425	125.75
541.852	126.25
542.28	126.62
542.707	127.08
543.134	127.49
543.561	127.81
543.988	128.19
544.415	128.63
544.842	129.04
545.269	129.42
545.696	129.75
546.123	130.26
546.549	130.64
546.976	130.97
547.403	131.22
547.829	131.62
548.256	132
548.682	132.26
549.108	132.59
549.535	132.91
549.961	133.13
550.387	133.35
550.813	133.53
551.24	133.73
551.666	133.93
552.092	134.08
552.518	134.18
552.943	134.28
553.369	134.46
553.795	134.52
554.221	134.47
554.646	134.42
555.072	134.25
555.498	134.02
555.923	133.83
556.349	133.62
556.774	133.46
557.199	133.25
557.625	133.06
558.05	132.71
558.475	132.34
558.9	132.04
559.325	131.69
559.75	131.37
560.175	131
560.6	130.57
561.025	130.02
561.449	129.43
561.874	128.76
562.299	128.09
562.723	127.47
563.148	126.75
563.572	126.01
563.997	125.24
564.421	124.34
564.846	123.48
565.27	122.62
565.694	121.79
566.118	120.8
566.542	119.92
566.966	119.02
567.39	118.07
567.814	117.25
568.238	116.52
568.662	115.86
569.086	115.31
569.509	114.89
569.933	114.48
570.357	114.15
570.78	113.94
571.204	113.75
571.627	113.66
572.05	113.73
572.474	113.76
572.897	113.87
573.32	113.97
573.743	114.14
574.166	114.19
574.589	114.31
575.012	114.54
575.435	114.83
575.858	115.14
576.281	115.45
576.704	115.71
577.126	115.97
577.549	116.2
577.972	116.57
578.394	116.88
578.817	117.22
579.239	117.63
579.661	117.93
580.084	118.19
580.506	118.46
580.928	118.66
581.35	118.94
581.772	119.12
582.194	119.28
582.616	119.37
583.038	119.56
583.46	119.69
583.882	119.66
584.303	119.6
584.725	119.49
585.147	119.2
585.568	119
585.99	118.76
586.411	118.71
586.833	118.6
587.254	118.45
587.675	118.29
588.096	118.21
588.518	118.14
588.939	118.12
589.36	118.15
589.781	118.24
590.202	118.22
590.623	118.17
591.043	117.89
591.464	117.65
591.885	117.43
592.305	117.13
592.726	116.73
593.147	116.3
593.567	115.82
593.987	115.26
594.408	114.72
594.828	114.14
595.248	113.52
595.669	112.86
596.089	112.13
596.509	111.38
596.929	110.56
597.349	109.73
597.769	108.93
598.189	108.12
598.608	107.42
599.028	106.71
599.448	106.09
599.867	105.48
600.287	105
600.706	104.43
601.126	103.89
601.545	103.43
601.965	103.06
602.384	102.72
602.803	102.41
603.222	102.06
603.641	101.78
604.061	101.47
604.48	101.16
604.898	100.88
605.317	100.7
605.736	100.48
606.155	100.28
606.574	100.05
606.992	99.86
607.411	99.69
607.829	99.54
608.248	99.44
608.666	99.3
609.085	99.16
609.503	98.95
609.921	98.83
610.339	98.73
610.758	98.62
611.176	98.51
611.594	98.37
612.012	98.21
612.43	98.01
612.847	97.81
613.265	97.65
613.683	97.56
614.101	97.48
614.518	97.42
614.936	97.33
615.353	97.25
615.771	97.18
616.188	97.17
616.606	97.14
617.023	97.18
617.44	97.15
617.857	97.08
618.274	97
618.691	96.95
619.108	96.82
619.525	96.71
619.942	96.54
620.359	96.38
620.776	96.15
621.192	95.93
621.609	95.71
622.026	95.51
622.442	95.44
622.859	95.28
623.275	95.15
623.691	94.98
624.108	94.87
624.524	94.79
624.94	94.72
625.356	94.64
625.772	94.61
626.188	94.59
626.604	94.57
627.02	94.48
627.436	94.42
627.852	94.35
628.268	94.31
628.683	94.33
629.099	94.38
629.514	94.39
629.93	94.44
630.345	94.52
630.761	94.56
631.176	94.62
631.591	94.66
632.007	94.73
632.422	94.84
632.837	94.93
633.252	94.95
633.667	94.98
634.082	95.02
634.497	95.1
634.911	95.08
635.326	95.02
635.741	94.97
636.155	94.91
636.57	94.84
636.984	94.73
637.399	94.61
637.813	94.5
638.228	94.34
638.642	94.25
639.056	94.07
639.47	93.95
639.884	93.9
640.298	93.8
640.712	93.7
641.126	93.58
641.54	93.51
641.954	93.4
642.368	93.24
642.781	93.12
643.195	92.93
643.609	92.81
644.022	92.68
644.436	92.47
644.849	92.29
645.262	92.02
645.676	91.78
646.089	91.6
646.502	91.45
646.915	91.34
647.328	91.22
647.741	91.08
648.154	91
648.567	90.85
648.98	90.77
649.393	90.72
649.805	90.74
650.218	90.75
650.631	90.57
651.043	90.36
651.456	89.91
651.868	89.28
652.28	88.58
652.693	87.88
653.105	87.35
653.517	86.94
653.929	86.57
654.341	86.29
654.753	86.03
655.165	85.87
655.577	85.78
655.989	85.97
656.401	86.21
656.813	86.61
657.224	86.96
657.636	87.18
658.047	87.3
658.459	87.28
658.87	87.15
659.282	87.04
659.693	86.86
660.104	86.65
660.515	86.35
660.926	86.22
661.338	85.95
661.749	85.65
662.159	85.36
662.57	84.99
662.981	84.68
663.392	84.38
663.803	84.02
664.213	83.71
664.624	83.46
665.035	83.15
665.445	82.83
665.855	82.47
666.266	82.14
666.676	81.77
667.086	81.45
667.497	81.09
667.907	80.74
668.317	80.43
668.727	80.1
669.137	79.73
669.547	79.42
669.956	79.08
670.366	78.84
670.776	78.55
671.186	78.29
671.595	78.03
672.005	77.85
672.414	77.64
672.824	77.45
673.233	77.27
673.642	77.11
674.052	77
674.461	76.88
674.87	76.75
675.279	76.7
675.688	76.64
676.097	76.59
676.506	76.54
676.915	76.56
677.323	76.6
677.732	76.65
678.141	76.71
678.549	76.78
678.958	76.9
679.366	77.02
679.775	77.13
680.183	77.21
680.592	77.36
681	77.52
681.408	77.65
681.816	77.74
682.224	77.63
682.632	77.24
683.04	76.49
683.448	75.74
683.856	75.11
684.264	74.66
684.671	74.31
685.079	74
685.487	73.75
685.894	73.68
686.302	73.72
686.709	74.12
687.116	74.94
687.524	76.24
687.931	77.65
688.338	79.07
688.745	80.47
689.152	81.86
689.559	83.25
689.966	84.59
690.373	85.91
690.78	87.21
691.187	88.47
691.593	89.67
692	90.85
692.407	92.01
692.813	93.15
693.22	94.21
693.626	95.31
694.032	96.38
694.439	97.47
694.845	98.55
695.251	99.6
695.657	100.61
696.063	101.62
696.469	102.55
696.875	103.4
697.281	104.26
697.687	105.13
698.093	105.94
698.498	106.79
698.904	107.66
699.31	108.5
699.715	109.39
700.12	110.23
700.526	111.13
700.931	112.03
701.337	112.96
701.742	113.85
702.147	114.74
702.552	115.66
702.957	116.53
703.362	117.42
703.767	118.24
704.172	119.03
704.577	119.84
704.981	120.6
705.386	121.33
705.791	122.1
706.195	122.77
706.6	123.48
707.004	124.19
707.408	124.85
707.813	125.53
708.217	126.1
708.621	126.71
709.025	127.33
709.43	127.93
709.834	128.57
710.237	129.17
710.641	129.83
711.045	130.38
711.449	130.96
711.853	131.55
712.256	132.05
712.66	132.54
713.064	132.9
713.467	133.12
713.87	133.28
714.274	133.47
714.677	133.45
715.08	133.45
715.484	133.51
715.887	133.51
716.29	133.67
716.693	133.88
717.096	134.36
717.499	135.04
717.901	135.84
718.304	136.75
718.707	137.64
719.109	138.64
719.512	139.59
719.915	140.39
720.317	141.26
720.719	141.92
721.122	142.51
721.524	143
721.926	143.36
722.328	143.66
722.731	143.92
723.133	144.17
723.535	144.42
723.937	144.7
724.338	144.99
724.74	145.16
725.142	145.28
725.544	145.61
725.945	145.84
726.347	146.16
726.748	146.35
727.15	146.57
727.551	146.8
727.952	147.05
728.354	147.41
728.755	147.88
729.156	148.42
729.557	149.02
729.958	149.46
730.359	149.93
730.76	150.21
731.161	150.6
731.562	150.94
731.962	151.27
732.363	151.58
732.763	151.8
733.164	151.93
733.564	152.04
733.965	152.14
734.365	152.15
734.766	152.15
735.166	152.11
735.566	152.09
735.966	152.15
736.366	152.09
736.766	152.09
737.166	152.12
737.566	152.08
737.966	152.03
738.365	152.06
738.765	152.15
739.165	152.22
739.564	152.42
739.964	152.52
740.363	152.63
740.763	152.82
741.162	152.92
741.561	153.1
741.96	153.41
742.36	153.64
742.759	153.8
743.158	153.94
743.557	154.17
743.955	154.3
744.354	154.47
744.753	154.6
745.152	154.66
745.55	154.72
745.949	154.64
746.348	154.48
746.746	154.35
747.144	154.14
747.543	153.94
747.941	153.66
748.339	153.42
748.737	153.2
749.136	152.78
749.534	152.42
749.932	152.08
750.33	151.69
750.727	151.3
751.125	150.89
751.523	150.45
751.921	150.02
752.318	149.6
752.716	149.12
753.113	148.68
753.511	148.3
753.908	147.93
754.305	147.49
754.703	146.96
755.1	145.8
755.497	143.49
755.894	139.46
756.291	133.82
756.688	127.49
757.085	121.43
757.482	116.01
757.878	111.21
758.275	106.53
758.672	101.69
759.068	96.85
759.465	92.71
759.861	90.19
760.258	89.91
760.654	91.73
761.05	94.78
761.447	98.09
761.843	101.14
762.239	104.02
762.635	107.26
763.031	111.08
763.427	115.36
763.822	119.81
764.218	124.1
764.614	128.12
765.01	131.76
765.405	134.94
765.801	137.82
766.196	140.28
766.592	142.36
766.987	143.98
767.382	145.31
767.778	146.34
768.173	147.17
768.568	147.76
768.963	148.21
769.358	148.6
769.753	149
770.148	149.22
770.542	149.37
770.937	149.42
771.332	149.52
771.726	149.53
772.121	149.56
772.515	149.63
772.91	149.68
773.304	149.63
773.699	149.55
774.093	149.39
774.487	149.32
774.881	149.3
775.275	149.31
775.669	149.21
776.063	149.04
776.457	148.8
776.851	148.52
777.245	148.32
777.638	148.2
778.032	148.08
778.425	148.01
778.819	147.78
779.212	147.43
779.606	147.16
779.999	146.87
780.392	146.65
780.786	146.46
781.179	146.32
781.572	146.1
781.965	145.82
782.358	145.47
782.751	145.14
783.143	144.89
783.536	144.75
783.929	144.41
784.322	144.06
784.714	143.71
785.107	143.34
785.499	142.89
785.891	142.42
786.284	141.88
786.676	141.49
787.068	140.92
787.46	140.33
787.852	139.71
788.245	139.21
788.636	138.65
789.028	138
789.42	137.37
789.812	136.72
790.204	136.03
790.595	135.51
790.987	134.97
791.378	134.5
791.77	134.11
792.161	133.68
792.553	133.19
792.944	132.87
793.335	132.58
793.726	132.28
794.117	132.01
794.508	131.79
794.899	131.42
795.29	130.97
795.681	130.51
796.072	129.95
796.463	129.45
796.853	128.95
797.244	128.4
797.634	127.83
798.025	127.28
798.415	126.64
798.806	126.03
799.196	125.45
799.586	124.86
799.976	124.27
800.366	123.72
800.756	123.07
801.146	122.4
801.536	121.76
801.926	121.13
802.316	120.54
802.706	120
803.095	119.39
803.485	118.79
803.874	118.15
804.264	117.6
804.653	116.9
805.043	116.22
805.432	115.5
805.821	114.74
806.21	114.04
806.599	113.33
806.988	112.54
807.377	111.75
807.766	110.9
808.155	110.14
808.544	109.18
808.933	108.28
809.321	107.4
809.71	106.46
810.098	105.45
810.487	104.29
810.875	103
811.264	101.73
811.652	100.39
812.04	99.03
812.428	97.58
812.816	96.29
813.204	95.02
813.592	93.83
813.98	92.66
814.368	91.55
814.756	90.56
815.144	89.69
815.531	88.84
815.919	88.17
816.306	87.71
816.694	87.4
817.081	87.07
817.469	86.81
817.856	86.47
818.243	85.96
818.63	85.32
819.017	84.62
819.404	83.93
819.791	83.44
820.178	83.02
820.565	82.52
820.952	81.97
821.339	81.48
821.725	80.92
822.112	80.48
822.498	80.28
822.885	80.17
823.271	80.07
823.657	79.86
824.044	79.5
824.43	79.08
824.816	78.54
825.202	77.98
825.588	77.42
825.974	76.89
826.36	76.34
826.746	75.8
827.132	75.27
827.517	74.78
827.903	74.34
828.289	73.92
828.674	73.46
829.06	73.07
829.445	72.68
829.83	72.3
830.216	71.93
830.601	71.62
830.986	71.27
831.371	70.99
831.756	70.7
832.141	70.5
832.526	70.26
832.911	70.12
833.295	69.96
833.68	69.79
834.065	69.58
834.449	69.37
834.834	69.12
835.218	68.88
835.603	68.67
835.987	68.46
836.371	68.22
836.755	67.99
837.139	67.73
837.524	67.49
837.908	67.19
838.291	66.95
838.675	66.74
839.059	66.47
839.443	66.22
839.827	65.9
840.21	65.63
840.594	65.36
840.977	65.11
841.361	64.85
841.744	64.61
842.127	64.4
842.511	64.15
842.894	63.89
843.277	63.67
843.66	63.47
844.043	63.31
844.426	63.1
844.809	62.84
845.191	62.55
845.574	62.18
845.957	61.77
846.339	61.41
846.722	61.1
847.104	60.81
847.487	60.56
847.869	60.26
848.252	59.97
848.634	59.71
849.016	59.48
849.398	59.16
849.78	58.82
850.162	58.46
850.544	58.08
850.926	57.7
851.307	57.39
851.689	57.09
852.071	56.83
852.452	56.61
852.834	56.41
853.215	56.24
853.597	56.18
853.978	56.21
854.359	56.32
854.741	56.44
855.122	56.55
855.503	56.55
855.884	56.54
856.265	56.47
856.646	56.34
857.026	56.21
857.407	56.04
857.788	55.92
858.169	55.77
858.549	55.62
858.93	55.46
859.31	55.26
859.69	55.08
860.071	54.91
860.451	54.77
860.831	54.63
861.211	54.41
861.591	54.19
861.971	53.83
862.351	53.5
862.731	53.15
863.111	52.84
863.491	52.6
863.87	52.34
864.25	52.09
864.629	51.84
865.009	51.6
865.388	51.43
865.768	51.34
866.147	51.39
866.526	51.39
866.905	51.44
867.284	51.43
867.663	51.4
868.042	51.39
868.421	51.34
868.8	51.29
869.179	51.24
869.558	51.19
869.936	51.11
870.315	50.96
870.693	50.88
871.072	50.76
871.45	50.64
871.828	50.54
872.207	50.42
872.585	50.33
872.963	50.22
873.341	50.14
873.719	50.07
874.097	49.98
874.475	49.94
874.853	49.86
875.23	49.76
875.608	49.7
875.986	49.59
876.363	49.48
876.741	49.36
877.118	49.25
877.495	49.14
877.873	49
878.25	48.87
878.627	48.76
879.004	48.64
879.381	48.55
879.758	48.44
880.135	48.33
880.512	48.28
880.889	48.22
881.265	48.17
881.642	48.09
882.019	48.01
882.395	47.92
882.772	47.82
883.148	47.74
883.524	47.61
883.901	47.52
884.277	47.43
884.653	47.33
885.029	47.22
885.405	47.1
885.781	47
886.157	46.93
886.532	46.88
886.908	46.82
887.284	46.73
887.659	46.68
888.035	46.6
888.411	46.51
888.786	46.4
889.161	46.31
889.537	46.22
889.912	46.1
890.287	45.97
890.662	45.84
891.037	45.69
891.412	45.52
891.787	45.33
892.162	45.15
892.536	44.97
892.911	44.77
893.286	44.55
893.66	44.32
894.035	44.12
894.409	43.91
894.784	43.67
895.158	43.41
895.532	43.18
895.906	42.98
896.281	42.74
896.655	42.56
897.029	42.37
897.402	42.21
897.776	42.09
898.15	41.94
898.524	41.8
898.898	41.71
899.271	41.68
899.645	41.69
900.018	41.69
900.392	41.77
900.765	41.86
901.138	41.95
901.511	42.05
901.884	42.14
902.258	42.21
902.631	42.34
903.003	42.38
903.376	42.41
903.749	42.38
904.122	42.35
904.495	42.24
904.867	42.08
905.24	41.93
905.612	41.77
905.985	41.59
906.357	41.43
906.729	41.25
907.102	41.14
907.474	41.03
907.846	40.93
908.218	40.86
908.59	40.77
908.962	40.74
909.334	40.71
909.705	40.64
910.077	40.61
910.449	40.6
910.82	40.59
911.192	40.56
911.563	40.5
911.935	40.45
912.306	40.38
912.677	40.37
913.048	40.29
913.419	40.24
913.79	40.22
914.161	40.18
914.532	40.15
914.903	40.13
915.274	40.08
915.645	40.1
916.015	40.13
916.386	40.13
916.756	40.15
917.127	40.22
917.497	40.26
917.868	40.29
918.238	40.32
918.608	40.34
918.978	40.34
919.348	40.35
919.718	40.32
920.088	40.31
920.458	40.33
920.828	40.34
921.198	40.27
921.567	40.22
921.937	40.22
922.306	40.17
922.676	40.11
923.045	40.09
923.415	40.07
923.784	40.05
924.153	40
924.522	39.95
924.891	39.85
925.26	39.79
925.629	39.72
925.998	39.58
926.367	39.47
926.736	39.34
927.104	39.17
927.473	38.98
927.842	38.73
928.21	38.49
928.578	38.17
928.947	37.84
929.315	37.52
929.683	37.21
930.051	36.91
930.42	36.6
930.788	36.25
931.156	35.92
931.523	35.6
931.891	35.35
932.259	35.13
932.627	34.92
932.994	34.81
933.362	34.68
933.729	34.57
934.097	34.52
934.464	34.49
934.831	34.53
935.199	34.62
935.566	34.76
935.933	34.99
936.3	35.2
936.667	35.49
937.034	35.74
937.401	35.99
937.767	36.32
938.134	36.58
938.501	36.89
938.867	37.26
939.234	37.54
939.6	37.81
939.967	37.93
940.333	38.1
940.699	38.27
941.065	38.37
941.431	38.47
941.798	38.54
942.163	38.56
942.529	38.5
942.895	38.41
943.261	38.4
943.627	38.37
943.992	38.34
944.358	38.22
944.723	38.1
945.089	38.07
945.454	38.1
945.82	38.02
946.185	38.07
946.55	38.14
946.915	38.1
947.28	37.98
947.645	37.97
948.01	37.94
948.375	37.98
948.74	37.89
949.104	37.79
949.469	37.66
949.834	37.57
950.198	37.39
950.562	37.29
950.927	37.24
951.291	37.15
951.655	37.06
952.02	36.94
952.384	36.86
952.748	36.8
953.112	36.72
953.476	36.67
953.839	36.63
954.203	36.61
954.567	36.59
954.931	36.54
955.294	36.56
955.658	36.5
956.021	36.49
956.385	36.46
956.748	36.41
957.111	36.43
957.474	36.44
957.837	36.38
958.2	36.35
958.563	36.25
958.926	36.24
959.289	36.23
959.652	36.29
960.015	36.27
960.377	36.29
960.74	36.31
961.102	36.32
961.465	36.32
961.827	36.29
962.189	36.29
962.552	36.33
962.914	36.33
963.276	36.37
963.638	36.31
964	36.31
964.362	36.27
964.724	36.37
965.085	36.37
965.447	36.39
965.809	36.45
966.17	36.51
966.532	36.63
966.893	36.72
967.255	36.75
967.616	36.82
967.977	36.93
968.338	37.01
968.699	37.02
969.061	37.08
969.421	37.14
969.782	37.29
970.143	37.32
970.504	37.24
970.865	37.23
971.225	37.25
971.586	37.31
971.946	37.31
972.307	37.31
972.667	37.34
973.027	37.37
973.388	37.33
973.748	37.25
974.108	37.26
974.468	37.34
974.828	37.35
975.188	37.34
975.548	37.28
975.907	37.27
976.267	37.26
976.627	37.27
976.986	37.25
977.346	37.32
977.705	37.36
978.064	37.39
978.424	37.39
978.783	37.46
979.142	37.48
979.501	37.53
979.86	37.51
980.219	37.54
980.578	37.6
980.937	37.64
981.296	37.69
981.654	37.82
982.013	37.88
982.371	37.95
982.73	37.96
983.088	38.05
983.447	38.13
983.805	38.2
984.163	38.29
984.521	38.28
984.879	38.43
985.237	38.42
985.595	38.49
985.953	38.52
986.311	38.61
986.669	38.68
987.026	38.73
987.384	38.77
987.741	38.95
988.099	39.02
988.456	39.08
988.814	39.03
989.171	39.19
989.528	39.13
989.885	39.14
990.242	39.17
990.599	39.19
990.956	39.24
991.313	39.29
991.67	39.27
992.027	39.19
992.383	39.32
992.74	39.4
993.096	39.26
993.453	39.24
993.809	39.33
994.165	39.32
994.522	39.32
994.878	39.43
995.234	39.54
995.59	39.49
995.946	39.68
996.302	39.54
996.658	39.68
997.013	39.78
997.369	39.95
997.725	40.05
998.08	40.07
998.436	40.35
998.791	40.4
999.147	40.45
999.502	40.59
999.857	40.67
1000.212	40.79
1000.567	40.76
1000.922	40.95
1001.277	40.95
1001.632	41.05
1001.987	41.11
1002.342	41.08
1002.696	41.09
1003.051	41.01
1003.406	41.14
1003.76	41.11
1004.114	41.2
1004.469	41.23
1004.823	41.16
1005.177	41.36
1005.531	41.31
1005.885	41.53
1006.239	41.53
1006.593	41.5
1006.947	41.69
1007.301	41.73
1007.655	41.91
1008.008	41.9
1008.362	42
1008.715	42.07
1009.069	42.05
1009.422	42.16
1009.776	42.21
1010.129	42.26
1010.482	42.52
1010.835	42.68
1011.188	42.72
1011.541	42.66
1011.894	42.93
1012.247	42.94
1012.6	43.2
1012.952	43.33
1013.305	43.39
1013.657	43.49
1014.01	43.77
1014.362	43.82
1014.715	43.71
1015.067	44.04
1015.419	44.27
1015.771	44.69
1016.123	44.85
1016.475	45.11
1016.827	45.5
1017.179	45.79
1017.531	45.92
1017.883	46.4
1018.234	46.67
1018.586	47
1018.938	46.9
1019.289	47.11
1019.64	47.35
1019.992	47.42
1020.343	47.22
1020.694	47.17
1021.045	47.2
1021.396	47.48
1021.747	47.4
1022.098	47.62
1022.449	48.01
1022.8	48.38
1023.151	48.6
1023.501	48.4
1023.852	49.05
1024.202	49.72
1024.553	49.91
1024.903	50.1
1025.253	50.15
1025.604	50.28
1025.954	50.16
1026.304	50.8
1026.654	50.81
1027.004	51.11
1027.354	51.22
1027.703	51.17
1028.053	51.18
1028.403	51.78
1028.753	52.85
1029.102	53.08
1029.452	53.05
1029.801	53.26
1030.15	52.88
1030.499	53.25
897.758	281.56
901.051	287.58
904.343	290.71
907.636	288.87
910.928	282.29
914.22	289.67
917.511	278.61
920.803	271.75
924.094	265.19
927.384	265.62
930.675	257.16
933.965	255.77
937.255	255.46
940.544	244.59
943.834	231.94
947.123	230.54
950.411	219.9
953.7	218.59
956.988	211.24
960.276	200.6
963.563	201.74
966.851	193.88
970.138	190.96
973.424	179.63
976.711	178.09
979.997	174.64
983.283	170.76
986.568	164.99
989.853	162.1
993.138	159.7
996.423	156.63
999.708	152.61
1002.992	152.3
1006.275	150.25
1009.559	151.64
1012.842	147.28
1016.125	142.6
1019.408	140.44
1022.69	140.43
1025.972	140.03
1029.254	136.23
1032.536	135.19
1035.817	131.78
1039.098	130.86
1042.379	129.13
1045.659	126.42
1048.939	125.76
1052.219	125.69
1055.498	124.95
1058.778	123.03
1062.057	120.69
1065.335	120.84
1068.614	118.65
1071.892	117.56
1075.17	115.32
1078.447	113.49
1081.724	112.74
1085.001	111.56
1088.278	111.63
1091.554	109.74
1094.83	109.92
1098.106	108.87
1101.382	109.19
1104.657	108.46
1107.932	106.87
1111.206	107.49
1114.481	107.82
1117.755	106.6
1121.029	105.93
1124.302	102.95
1127.575	104.77
1130.848	103.46
1134.121	101.77
1137.393	100.45
1140.665	100.72
1143.937	99.89
1147.208	98.56
1150.48	97
1153.75	96.05
1157.021	97.05
1160.291	97.92
1163.561	95.5
1166.831	95.38
1170.101	95.9
1173.37	95.82
1176.639	94.94
1179.907	95.4
1183.176	95.63
1186.444	95.39
1189.711	95.48
1192.979	94.75
1196.246	95.34
1199.513	94.69
1202.78	94.71
1206.046	95.19
1209.312	94.91
1212.578	95.94
1215.843	96.58
1219.108	96.32
1222.373	97.24
1225.638	98.48
1228.902	100.35
1232.166	101.67
1235.43	102.75
1238.693	104.69
1241.956	105.49
1245.219	106.81
1248.482	107.76
1251.744	107.42
1255.006	108.87
1258.268	107
1261.529	106.55
1264.79	104.3
1268.051	102.4
1271.312	103.01
1274.572	101.8
1277.832	100.68
1281.092	100.31
1284.351	98.48
1287.61	98.83
1290.869	97.15
1294.128	97.12
1297.386	96.82
1300.644	97.01
1303.902	96.83
1307.159	95.36
1310.416	95.43
1313.673	95.93
1316.93	96.36
1320.186	96.81
1323.442	97.04
1326.697	99.02
1329.953	99.39
1333.208	100.74
1336.463	102.21
1339.717	103.93
1342.972	107.67
1346.226	110.6
1349.479	110.97
1352.733	113.9
1355.986	116.51
1359.238	117.92
1362.491	118.11
1365.743	121.35
1368.995	122.91
1372.247	122.6
1375.498	120.88
1378.749	123.46
1382	121.45
1385.251	120.27
1388.501	119.34
1391.751	119.84
1395	118.8
1398.25	118.75
1401.499	116.97
1404.748	115.05
1407.996	112.66
1411.244	113.49
1414.492	110.82
1417.74	106.68
1420.987	104.33
1424.234	101.82
1427.481	98.48
1430.728	95.99
1433.974	92.8
1437.22	90.18
1440.465	87.82
1443.711	85
1446.956	82.18
1450.201	80.07
1453.445	77.66
1456.689	76.27
1459.933	74.15
1463.177	71.52
1466.42	69.8
1469.663	68.17
1472.906	66.48
1476.148	64.71
1479.391	65.24
1482.633	64.34
1485.874	63.7
1489.115	63.28
1492.356	62.38
1495.597	62.25
1498.838	62.49
1502.078	63
1505.318	63.03
1508.557	62.78
1511.797	63.09
1515.036	62.77
1518.274	62.73
1521.513	62.84
1524.751	62.72
1527.989	63.74
1531.227	63.69
1534.464	63.57
1537.701	62.97
1540.938	63.19
1544.174	63.47
1547.41	63.75
1550.646	64.04
1553.882	64.69
1557.117	65
1560.352	65.14
1563.587	64.55
1566.821	64.64
1570.055	64.84
1573.289	65.34
1576.523	65.66
1579.756	65.38
1582.989	65.88
1586.222	65.32
1589.454	65.22
1592.686	64.68
1595.918	64.95
1599.15	65.25
1602.381	65.62
1605.612	65.85
1608.843	65.69
1612.073	66.02
1615.303	66.6
1618.533	66.3
1621.762	66.59
1624.992	66.63
1628.221	66.94
1631.449	66.98
1634.678	67.33
1637.906	67.24
1641.134	67.43
1644.361	67.77
1647.588	67.34
1650.815	67.31
1654.042	67.97
1657.269	67.74
1660.495	68.32
1663.72	68.37
1666.946	67.95
1670.171	68.13
1673.396	68.01
1676.621	68.38
1679.845	68.73
1683.069	68.05
1686.293	67.96
1689.517	67.85
1692.74	67.91
1695.963	67.83
1699.185	67.9
1702.408	68.13
1705.63	67.78
1708.852	68.67
1712.073	67.41
1715.294	66.93
1718.515	68.44
1721.736	68.6
1724.956	67.81
1728.176	67.93
1731.396	67.88
1734.616	67.6
1737.835	67.62
1741.054	67.48
1744.272	66.8
1747.491	67.24
1750.709	67.27
1753.927	66.51
1757.144	66.81
1760.361	66.9
1763.578	66.78
1766.795	67.04
1770.011	67.62
1773.227	68.09
1776.443	68.14
1779.658	67.94
1782.874	68.74
1786.089	69
1789.303	68.74
1792.518	69.29
1795.732	69.48
1798.945	70.81
1802.159	70.25
1805.372	70.46
1808.585	70.31
1811.797	71
1815.01	71.14
1818.222	70.99
1821.434	71.42
1824.645	71.57
1827.856	71.72
1831.067	71.76
1834.278	71.57
1837.488	71.89
1840.698	71.76
1843.908	71.77
1847.117	72.11
1850.326	72.34
1853.535	72.17
1856.744	72.24
1859.952	73
1863.16	72.2
1866.368	71.49
1869.575	70.66
1872.782	70.32
1875.989	68.65
1879.196	68.44
1882.402	65.94
1885.608	66.23
1888.814	64.52
1892.019	63.96
1895.224	61.86
1898.429	61.21
1901.634	61.04
1904.838	60.61
1908.042	59.94
1911.246	60.54
1914.449	59.73
1917.652	60.44
1920.855	60.43
1924.058	59.1
1927.26	57.79
1930.462	58.63
1933.664	59
1936.865	58.72
1940.066	57.81
1943.267	57.17
1946.467	57.12
1949.668	56.86
1952.868	56.62
1956.067	55.63
1959.267	58.66
1962.466	58.74
1965.665	58.81
1968.863	59.8
1972.061	60.25
1975.259	61.86
1978.457	62.53
1981.654	63.83
1984.852	64.69
1988.048	66.42
1991.245	67.15
1994.441	68.48
1997.637	69.49
2000.833	71.77
2004.028	71.11
2007.223	73.99
2010.418	76.22
2013.613	79.7
2016.807	81.35
2020.001	82.25
2023.194	85.74
2026.388	88.96
2029.581	92.63
2032.774	95.88
2035.966	97.69
2039.158	102.27
2042.35	103.49
2045.542	104.45
2048.733	107.44
2051.924	108.76
2055.115	112.05
2058.306	111.46
2061.496	113.19
2064.686	112.16
2067.875	111.96
2071.065	114.5
2074.254	113.07
2077.442	117.02
2080.631	117.39
2083.819	119.01
2087.007	121.35
2090.195	123.45
2093.382	122.51
2096.569	122.33
2099.756	127.1
2102.942	129.44
2106.128	129.87
2109.314	133.74
2112.5	132.43
2115.685	132.57
2118.87	132.61
2122.055	131.69
2125.239	132.53
2128.424	137.28
2131.608	137.25
2134.791	134.5
2137.974	136.02
2141.157	138.29
2144.34	138.14
2147.523	141.95
2150.705	145.39
2153.887	145.64
2157.068	148.92
2160.25	149.66
2163.431	149.14
2166.611	153.01
2169.792	155.98
2172.972	158.41
2176.152	159
2179.331	161.65
2182.511	160.44
2185.69	161.2
2188.868	163.39
2192.047	166.34
2195.225	169.43
2198.403	170.92
2201.58	168.04
2204.758	175.45
2207.935	174.83
2211.111	177.16
2214.288	179.06
2217.464	180.69
2220.64	183.53
2223.815	185.44
2226.991	183.7
2230.166	185.47
2233.34	190.93
2236.515	196.45
2239.689	189.27
2242.863	192.56
2246.036	189.43
2249.209	194.15
2252.382	196.61
2255.555	201.62
2258.727	204.34
2261.9	205.98
2265.071	207.57
2268.243	210.34
2271.414	213.74
2274.585	218.64
2277.756	221.93
2280.926	229.51
2284.096	228.67
2287.266	226
2290.436	223.52
2293.605	225.46
2296.774	242.1
2299.942	237.85
2303.111	242.88
2306.279	246.31
2309.447	247.3
2312.614	247.66
2315.781	251.56
2318.948	258.75
2322.115	263.64
2325.281	272.61
2328.447	276.4
2331.613	271.06
2334.779	280.35
2337.944	277.69
2341.109	282.24
2344.274	290.07
2347.438	295.69
2350.602	304.3
2353.766	313.19
2356.929	314.39
2360.092	323.57
2363.255	317.42
2366.418	323.31
2369.58	327.87
2372.742	346.07
2375.904	344.28
2379.066	348.03
2382.227	372.43
2385.388	365.32
2388.548	357.64
2391.709	353.72
2394.869	366.3
2398.029	368.72
2401.188	375.3
2404.347	386.24
2407.506	383.13
2410.665	372.45
2413.823	376.6
2416.981	372.14
2420.139	362.17
2423.296	378.15
2426.453	407.53
2429.61	386.18
2432.767	413.35
2435.923	420.61
2439.079	411.06
2442.235	416.91
2445.391	430.33
2448.546	426.16
2451.701	441.27
2454.855	468.03
2458.009	426.33
2461.163	429.56
2464.317	433.75
2467.471	424.5
2470.624	435.07
2473.777	429.39
2476.929	424.32
2480.082	443.23
2483.234	460.71
2486.385	471.93
2489.537	481.66
2492.688	528.38
2495.839	522.24
2498.989	533.13
2502.14	540.54
2505.29	514.96
2508.439	561.15
2511.589	572.37
2514.738	559.63
2517.887	557.01
2521.035	527.13
2524.183	523.13
2527.331	511.3
2530.479	494.84
2533.627	509.32
