Data from C_1_DIV_PA_2n_Splice17_13.txt Node
Date: Sat Feb 29 13:06:38 EST 2020
User: sa697716
Spectrometer: FLMS03696
Trigger mode: 0
Integration Time (sec): 3.180400E-1
Scans to average: 20
Electric dark correction enabled: true
Nonlinearity correction enabled: true
Boxcar width: 5
XAxis mode: Wavelengths
Number of Pixels in Spectrum: 2048
>>>>>Begin Spectral Data<<<<<
187.83	35.06
188.298	24.61
188.766	34.33
189.233	25.91
189.701	28.19
190.169	38.96
190.636	34.66
191.104	44.7
191.571	202.25
192.039	249.8
192.506	-348.36
192.974	-150.7
193.441	156.81
193.908	68.22
194.375	43.02
194.842	56.94
195.31	124.11
195.777	100.36
196.244	29.1
196.711	7.2
197.177	4.66
197.644	2.88
198.111	1.78
198.578	1.32
199.045	1.29
199.511	1.77
199.978	2.41
200.445	1.95
200.911	2.09
201.378	2.32
201.844	3.05
202.31	3.43
202.777	4.04
203.243	4.69
203.709	5.17
204.176	4.84
204.642	4.86
205.108	4.51
205.574	4.98
206.04	5.28
206.506	5.54
206.972	5.54
207.438	5.11
207.903	5.5
208.369	5.51
208.835	5.42
209.301	5.84
209.766	6.04
210.232	6.43
210.697	6.54
211.163	6.69
211.628	6.38
212.094	6.47
212.559	6.49
213.024	6.25
213.49	6.27
213.955	6.5
214.42	6.63
214.885	6.56
215.35	6.67
215.815	6.57
216.28	6.75
216.745	7.38
217.21	7.66
217.675	8.29
218.14	8.55
218.604	8.62
219.069	8.85
219.534	8.88
219.998	8.91
220.463	8.96
220.927	9.03
221.392	9.06
221.856	9.02
222.32	8.97
222.785	8.85
223.249	8.8
223.713	8.8
224.177	8.7
224.642	8.7
225.106	8.67
225.57	8.6
226.034	8.55
226.497	8.46
226.961	8.35
227.425	8.25
227.889	8.21
228.353	8.13
228.816	8.1
229.28	8.02
229.744	7.96
230.207	7.92
230.671	7.87
231.134	7.83
231.597	7.77
232.061	7.73
232.524	7.71
232.987	7.68
233.45	7.65
233.914	7.59
234.377	7.57
234.84	7.52
235.303	7.46
235.766	7.4
236.229	7.34
236.691	7.31
237.154	7.29
237.617	7.23
238.08	7.16
238.542	7.09
239.005	7.04
239.468	6.97
239.93	6.93
240.393	6.89
240.855	6.85
241.317	6.8
241.78	6.76
242.242	6.71
242.704	6.67
243.166	6.64
243.629	6.61
244.091	6.57
244.553	6.56
245.015	6.52
245.477	6.5
245.939	6.46
246.4	6.43
246.862	6.39
247.324	6.37
247.786	6.35
248.247	6.33
248.709	6.29
249.17	6.27
249.632	6.22
250.093	6.18
250.555	6.16
251.016	6.15
251.477	6.13
251.939	6.12
252.4	6.1
252.861	6.08
253.322	6.06
253.783	6.06
254.244	6.04
254.705	6.03
255.166	6.04
255.627	6.02
256.088	5.99
256.549	5.98
257.009	5.98
257.47	5.97
257.931	5.96
258.391	5.94
258.852	5.91
259.312	5.9
259.773	5.88
260.233	5.86
260.694	5.84
261.154	5.84
261.614	5.82
262.074	5.8
262.534	5.78
262.994	5.77
263.455	5.75
263.915	5.75
264.374	5.73
264.834	5.72
265.294	5.72
265.754	5.7
266.214	5.69
266.673	5.68
267.133	5.67
267.593	5.66
268.052	5.64
268.512	5.63
268.971	5.62
269.431	5.62
269.89	5.61
270.349	5.6
270.809	5.59
271.268	5.58
271.727	5.56
272.186	5.55
272.645	5.54
273.104	5.53
273.563	5.52
274.022	5.51
274.481	5.49
274.94	5.48
275.399	5.47
275.857	5.46
276.316	5.45
276.775	5.44
277.233	5.43
277.692	5.42
278.15	5.41
278.609	5.39
279.067	5.37
279.525	5.36
279.984	5.34
280.442	5.34
280.9	5.32
281.358	5.31
281.816	5.3
282.274	5.28
282.732	5.27
283.19	5.26
283.648	5.25
284.106	5.24
284.564	5.24
285.021	5.22
285.479	5.2
285.937	5.18
286.394	5.17
286.852	5.16
287.309	5.14
287.767	5.14
288.224	5.13
288.682	5.12
289.139	5.12
289.596	5.1
290.053	5.09
290.511	5.09
290.968	5.1
291.425	5.1
291.882	5.09
292.339	5.09
292.796	5.08
293.252	5.07
293.709	5.06
294.166	5.05
294.623	5.04
295.079	5.03
295.536	5.03
295.992	5.01
296.449	4.99
296.905	4.99
297.362	4.97
297.818	4.96
298.274	4.95
298.731	4.94
299.187	4.93
299.643	4.92
300.099	4.92
300.555	4.9
301.011	4.89
301.467	4.88
301.923	4.88
302.379	4.87
302.835	4.88
303.291	4.87
303.746	4.86
304.202	4.85
304.658	4.84
305.113	4.84
305.569	4.85
306.024	4.84
306.479	4.83
306.935	4.82
307.39	4.81
307.845	4.79
308.301	4.79
308.756	4.79
309.211	4.78
309.666	4.78
310.121	4.76
310.576	4.75
311.031	4.75
311.486	4.74
311.94	4.74
312.395	4.73
312.85	4.73
313.305	4.73
313.759	4.72
314.214	4.71
314.668	4.7
315.123	4.7
315.577	4.69
316.032	4.69
316.486	4.68
316.94	4.67
317.394	4.66
317.849	4.65
318.303	4.64
318.757	4.64
319.211	4.63
319.665	4.62
320.119	4.62
320.572	4.63
321.026	4.62
321.48	4.62
321.934	4.62
322.387	4.62
322.841	4.62
323.295	4.61
323.748	4.6
324.202	4.6
324.655	4.6
325.108	4.58
325.562	4.57
326.015	4.56
326.468	4.55
326.921	4.54
327.374	4.52
327.827	4.51
328.28	4.5
328.733	4.49
329.186	4.49
329.639	4.48
330.092	4.47
330.545	4.47
330.997	4.47
331.45	4.46
331.903	4.46
332.355	4.46
332.808	4.45
333.26	4.45
333.713	4.45
334.165	4.44
334.617	4.45
335.069	4.45
335.522	4.44
335.974	4.43
336.426	4.44
336.878	4.44
337.33	4.43
337.782	4.43
338.234	4.43
338.686	4.43
339.137	4.43
339.589	4.42
340.041	4.41
340.493	4.39
340.944	4.39
341.396	4.39
341.847	4.39
342.299	4.38
342.75	4.36
343.201	4.37
343.653	4.37
344.104	4.36
344.555	4.36
345.006	4.35
345.457	4.35
345.908	4.35
346.359	4.35
346.81	4.35
347.261	4.35
347.712	4.35
348.163	4.35
348.613	4.34
349.064	4.32
349.515	4.32
349.965	4.32
350.416	4.32
350.866	4.32
351.317	4.32
351.767	4.31
352.217	4.3
352.668	4.3
353.118	4.3
353.568	4.3
354.018	4.31
354.468	4.3
354.918	4.31
355.368	4.32
355.818	4.31
356.268	4.32
356.718	4.32
357.168	4.32
357.617	4.32
358.067	4.32
358.517	4.32
358.966	4.33
359.416	4.34
359.865	4.34
360.315	4.34
360.764	4.35
361.213	4.34
361.663	4.36
362.112	4.37
362.561	4.38
363.01	4.41
363.459	4.42
363.908	4.43
364.357	4.45
364.806	4.45
365.255	4.48
365.703	4.49
366.152	4.51
366.601	4.53
367.05	4.54
367.498	4.55
367.947	4.55
368.395	4.57
368.844	4.58
369.292	4.6
369.74	4.63
370.189	4.64
370.637	4.67
371.085	4.7
371.533	4.73
371.981	4.75
372.429	4.78
372.877	4.81
373.325	4.83
373.773	4.85
374.221	4.87
374.669	4.89
375.116	4.9
375.564	4.92
376.012	4.93
376.459	4.95
376.907	4.97
377.354	4.99
377.801	5.02
378.249	5.05
378.696	5.08
379.143	5.11
379.591	5.14
380.038	5.18
380.485	5.22
380.932	5.25
381.379	5.27
381.826	5.31
382.273	5.33
382.72	5.37
383.166	5.41
383.613	5.44
384.06	5.47
384.506	5.51
384.953	5.53
385.4	5.56
385.846	5.57
386.292	5.61
386.739	5.63
387.185	5.68
387.631	5.7
388.078	5.74
388.524	5.76
388.97	5.78
389.416	5.8
389.862	5.83
390.308	5.85
390.754	5.88
391.2	5.9
391.645	5.92
392.091	5.93
392.537	5.95
392.983	5.97
393.428	6
393.874	6.04
394.319	6.07
394.765	6.1
395.21	6.11
395.655	6.15
396.101	6.16
396.546	6.18
396.991	6.2
397.436	6.2
397.881	6.21
398.326	6.24
398.771	6.26
399.216	6.28
399.661	6.31
400.106	6.34
400.551	6.35
400.995	6.37
401.44	6.39
401.885	6.39
402.329	6.42
402.774	6.43
403.218	6.43
403.663	6.43
404.107	6.44
404.551	6.44
404.995	6.45
405.44	6.46
405.884	6.47
406.328	6.48
406.772	6.5
407.216	6.53
407.66	6.54
408.104	6.56
408.547	6.58
408.991	6.59
409.435	6.6
409.879	6.61
410.322	6.63
410.766	6.64
411.209	6.64
411.653	6.64
412.096	6.63
412.54	6.62
412.983	6.62
413.426	6.62
413.869	6.61
414.312	6.61
414.756	6.62
415.199	6.61
415.642	6.62
416.085	6.65
416.527	6.65
416.97	6.67
417.413	6.7
417.856	6.7
418.298	6.7
418.741	6.71
419.184	6.73
419.626	6.72
420.069	6.71
420.511	6.7
420.953	6.69
421.396	6.72
421.838	6.71
422.28	6.71
422.722	6.71
423.164	6.7
423.606	6.7
424.048	6.68
424.49	6.7
424.932	6.7
425.374	6.71
425.816	6.69
426.258	6.66
426.699	6.65
427.141	6.64
427.582	6.62
428.024	6.61
428.465	6.61
428.907	6.61
429.348	6.59
429.789	6.59
430.231	6.57
430.672	6.56
431.113	6.56
431.554	6.56
431.995	6.57
432.436	6.56
432.877	6.54
433.318	6.52
433.759	6.51
434.2	6.51
434.64	6.5
435.081	6.49
435.522	6.5
435.962	6.5
436.403	6.49
436.843	6.5
437.284	6.52
437.724	6.55
438.164	6.55
438.604	6.55
439.045	6.53
439.485	6.53
439.925	6.54
440.365	6.53
440.805	6.52
441.245	6.5
441.685	6.47
442.125	6.46
442.564	6.45
443.004	6.46
443.444	6.46
443.883	6.46
444.323	6.44
444.762	6.45
445.202	6.46
445.641	6.45
446.081	6.46
446.52	6.45
446.959	6.43
447.398	6.46
447.837	6.46
448.276	6.45
448.716	6.46
449.154	6.47
449.593	6.45
450.032	6.44
450.471	6.44
450.91	6.43
451.349	6.43
451.787	6.45
452.226	6.42
452.664	6.38
453.103	6.35
453.541	6.35
453.98	6.32
454.418	6.31
454.856	6.3
455.295	6.28
455.733	6.28
456.171	6.28
456.609	6.27
457.047	6.28
457.485	6.28
457.923	6.27
458.361	6.25
458.798	6.27
459.236	6.25
459.674	6.25
460.111	6.25
460.549	6.24
460.987	6.23
461.424	6.22
461.862	6.21
462.299	6.21
462.736	6.21
463.173	6.22
463.611	6.21
464.048	6.21
464.485	6.19
464.922	6.2
465.359	6.2
465.796	6.18
466.233	6.19
466.67	6.18
467.106	6.18
467.543	6.19
467.98	6.19
468.416	6.2
468.853	6.22
469.29	6.24
469.726	6.24
470.162	6.25
470.599	6.27
471.035	6.28
471.471	6.28
471.907	6.28
472.344	6.26
472.78	6.27
473.216	6.27
473.652	6.26
474.088	6.28
474.523	6.27
474.959	6.27
475.395	6.25
475.831	6.26
476.266	6.26
476.702	6.26
477.138	6.26
477.573	6.24
478.008	6.24
478.444	6.22
478.879	6.19
479.314	6.18
479.75	6.17
480.185	6.15
480.62	6.14
481.055	6.14
481.49	6.12
481.925	6.11
482.36	6.1
482.795	6.07
483.229	6.07
483.664	6.07
484.099	6.08
484.534	6.06
484.968	6.07
485.403	6.06
485.837	6.06
486.271	6.07
486.706	6.06
487.14	6.06
487.574	6.07
488.009	6.07
488.443	6.06
488.877	6.05
489.311	6.05
489.745	6.04
490.179	6.04
490.613	6.03
491.046	6.02
491.48	6.04
491.914	6.04
492.348	6.04
492.781	6.04
493.215	6.05
493.648	6.06
494.082	6.08
494.515	6.08
494.948	6.09
495.382	6.09
495.815	6.09
496.248	6.09
496.681	6.09
497.114	6.09
497.547	6.09
497.98	6.08
498.413	6.08
498.846	6.08
499.279	6.09
499.711	6.09
500.144	6.1
500.577	6.11
501.009	6.11
501.442	6.12
501.874	6.13
502.306	6.15
502.739	6.15
503.171	6.16
503.603	6.19
504.036	6.2
504.468	6.21
504.9	6.23
505.332	6.25
505.764	6.27
506.196	6.3
506.627	6.32
507.059	6.33
507.491	6.36
507.923	6.39
508.354	6.4
508.786	6.41
509.217	6.43
509.649	6.45
510.08	6.49
510.512	6.49
510.943	6.51
511.374	6.54
511.805	6.55
512.237	6.57
512.668	6.59
513.099	6.62
513.53	6.66
513.961	6.71
514.391	6.72
514.822	6.74
515.253	6.78
515.684	6.81
516.114	6.86
516.545	6.91
516.975	6.96
517.406	7
517.836	7.05
518.267	7.1
518.697	7.14
519.127	7.19
519.558	7.25
519.988	7.31
520.418	7.37
520.848	7.42
521.278	7.47
521.708	7.35
522.138	7.4
522.567	7.44
522.997	7.49
523.427	7.54
523.857	7.59
524.286	7.63
524.716	7.68
525.145	7.74
525.575	7.78
526.004	7.83
526.433	8.06
526.863	8.11
527.292	8.17
527.721	8.21
528.15	8.25
528.579	8.29
529.008	8.34
529.437	8.37
529.866	8.38
530.295	8.42
530.724	8.45
531.152	8.48
531.581	8.52
532.01	8.56
532.438	8.6
532.867	8.64
533.295	8.65
533.723	8.69
534.152	8.72
534.58	8.75
535.008	8.77
535.436	8.77
535.865	8.77
536.293	8.79
536.721	8.79
537.149	8.78
537.576	8.8
538.004	8.82
538.432	8.81
538.86	8.81
539.287	8.83
539.715	8.84
540.143	8.85
540.57	8.86
540.998	8.89
541.425	8.9
541.852	8.9
542.28	8.89
542.707	8.89
543.134	8.9
543.561	8.9
543.988	8.9
544.415	8.9
544.842	8.92
545.269	8.93
545.696	8.93
546.123	8.93
546.549	8.93
546.976	8.95
547.403	8.96
547.829	8.95
548.256	8.96
548.682	8.95
549.108	8.96
549.535	8.94
549.961	8.93
550.387	8.91
550.813	8.91
551.24	8.9
551.666	8.89
552.092	8.89
552.518	8.89
552.943	8.89
553.369	8.88
553.795	8.87
554.221	8.86
554.646	8.86
555.072	8.85
555.498	8.84
555.923	8.83
556.349	8.81
556.774	8.78
557.199	8.76
557.625	8.74
558.05	8.72
558.475	8.68
558.9	8.65
559.325	8.63
559.75	8.59
560.175	8.56
560.6	8.54
561.025	8.51
561.449	8.46
561.874	8.42
562.299	8.37
562.723	8.32
563.148	8.29
563.572	8.26
563.997	8.21
564.421	8.17
564.846	8.12
565.27	8.06
565.694	8
566.118	7.97
566.542	7.94
566.966	7.9
567.39	7.85
567.814	7.8
568.238	7.75
568.662	7.71
569.086	7.68
569.509	7.65
569.933	7.6
570.357	7.56
570.78	7.53
571.204	7.49
571.627	7.45
572.05	7.42
572.474	7.4
572.897	7.36
573.32	7.32
573.743	7.27
574.166	7.23
574.589	7.22
575.012	7.2
575.435	7.16
575.858	7.13
576.281	7.11
576.704	7.08
577.126	7.06
577.549	7.05
577.972	7.03
578.394	7.02
578.817	7
579.239	6.97
579.661	6.95
580.084	6.93
580.506	6.9
580.928	6.89
581.35	6.86
581.772	6.83
582.194	6.81
582.616	6.79
583.038	6.77
583.46	6.76
583.882	6.75
584.303	6.74
584.725	6.73
585.147	6.71
585.568	6.68
585.99	6.67
586.411	6.66
586.833	6.65
587.254	6.65
587.675	6.64
588.096	6.62
588.518	6.6
588.939	6.6
589.36	6.57
589.781	6.58
590.202	6.58
590.623	6.56
591.043	6.55
591.464	6.55
591.885	6.53
592.305	6.53
592.726	6.52
593.147	6.52
593.567	6.51
593.987	6.51
594.408	6.5
594.828	6.49
595.248	6.49
595.669	6.49
596.089	6.48
596.509	6.47
596.929	6.44
597.349	6.43
597.769	6.42
598.189	6.41
598.608	6.4
599.028	6.39
599.448	6.4
599.867	6.38
600.287	6.37
600.706	6.36
601.126	6.36
601.545	6.36
601.965	6.36
602.384	6.35
602.803	6.33
603.222	6.32
603.641	6.3
604.061	6.28
604.48	6.28
604.898	6.27
605.317	6.25
605.736	6.24
606.155	6.23
606.574	6.21
606.992	6.19
607.411	6.19
607.829	6.14
608.248	6.14
608.666	6.12
609.085	6.11
609.503	6.09
609.921	6.08
610.339	6.07
610.758	6.06
611.176	6.04
611.594	6.03
612.012	6.01
612.43	6.05
612.847	6.04
613.265	6.04
613.683	6.03
614.101	6.02
614.518	6.01
614.936	6
615.353	5.98
615.771	5.97
616.188	5.96
616.606	5.96
617.023	5.95
617.44	5.93
617.857	5.93
618.274	5.91
618.691	5.91
619.108	5.91
619.525	5.9
619.942	5.9
620.359	5.91
620.776	5.9
621.192	5.89
621.609	5.89
622.026	5.88
622.442	5.88
622.859	5.88
623.275	5.88
623.691	5.87
624.108	5.87
624.524	5.87
624.94	5.86
625.356	5.85
625.772	5.87
626.188	5.87
626.604	5.86
627.02	5.85
627.436	5.85
627.852	5.84
628.268	5.84
628.683	5.83
629.099	5.82
629.514	5.82
629.93	5.82
630.345	5.8
630.761	5.79
631.176	5.79
631.591	5.79
632.007	5.77
632.422	5.77
632.837	5.77
633.252	5.78
633.667	5.76
634.082	5.76
634.497	5.74
634.911	5.73
635.326	5.73
635.741	5.71
636.155	5.7
636.57	5.7
636.984	5.68
637.399	5.66
637.813	5.64
638.228	5.63
638.642	5.62
639.056	5.61
639.47	5.61
639.884	5.59
640.298	5.57
640.712	5.57
641.126	5.55
641.54	5.54
641.954	5.54
642.368	5.53
642.781	5.53
643.195	5.52
643.609	5.5
644.022	5.5
644.436	5.49
644.849	5.49
645.262	5.49
645.676	5.47
646.089	5.46
646.502	5.45
646.915	5.44
647.328	5.43
647.741	5.42
648.154	5.42
648.567	5.42
648.98	5.42
649.393	5.42
649.805	5.39
650.218	5.4
650.631	5.4
651.043	5.4
651.456	5.41
651.868	5.4
652.28	5.41
652.693	5.38
653.105	5.38
653.517	5.37
653.929	5.37
654.341	5.38
654.753	5.37
655.165	5.38
655.577	5.36
655.989	5.35
656.401	5.36
656.813	5.34
657.224	5.35
657.636	5.35
658.047	5.35
658.459	5.33
658.87	5.33
659.282	5.34
659.693	5.32
660.104	5.33
660.515	5.33
660.926	5.32
661.338	5.33
661.749	5.31
662.159	5.31
662.57	5.32
662.981	5.32
663.392	5.3
663.803	5.29
664.213	5.3
664.624	5.3
665.035	5.3
665.445	5.29
665.855	5.29
666.266	5.3
666.676	5.3
667.086	5.29
667.497	5.29
667.907	5.29
668.317	5.29
668.727	5.29
669.137	5.29
669.547	5.3
669.956	5.31
670.366	5.31
670.776	5.31
671.186	5.32
671.595	5.33
672.005	5.35
672.414	5.36
672.824	5.38
673.233	5.4
673.642	5.42
674.052	5.43
674.461	5.44
674.87	5.45
675.279	5.48
675.688	5.49
676.097	5.5
676.506	5.49
676.915	5.52
677.323	5.53
677.732	5.53
678.141	5.54
678.549	5.56
678.958	5.57
679.366	5.58
679.775	5.59
680.183	5.6
680.592	5.63
681	5.66
681.408	5.66
681.816	5.67
682.224	5.69
682.632	5.7
683.04	5.72
683.448	5.71
683.856	5.72
684.264	5.72
684.671	5.73
685.079	5.73
685.487	5.75
685.894	5.77
686.302	5.78
686.709	5.79
687.116	5.8
687.524	5.8
687.931	5.83
688.338	5.86
688.745	5.88
689.152	5.91
689.559	5.93
689.966	5.96
690.373	5.99
690.78	6.03
691.187	6.07
691.593	6.11
692	6.18
692.407	6.25
692.813	6.33
693.22	6.41
693.626	6.49
694.032	6.58
694.439	6.69
694.845	6.8
695.251	6.91
695.657	7.05
696.063	7.18
696.469	7.32
696.875	7.46
697.281	7.59
697.687	7.76
698.093	7.94
698.498	8.13
698.904	8.31
699.31	8.49
699.715	8.69
700.12	8.86
700.526	9.1
700.931	9.3
701.337	9.54
701.742	9.77
702.147	9.99
702.552	10.22
702.957	10.47
703.362	10.73
703.767	10.98
704.172	11.24
704.577	11.53
704.981	11.79
705.386	12.06
705.791	12.34
706.195	12.63
706.6	12.93
707.004	13.22
707.408	13.52
707.813	13.79
708.217	14.1
708.621	14.41
709.025	14.72
709.43	15.04
709.834	15.38
710.237	15.69
710.641	16.03
711.045	16.35
711.449	16.67
711.853	17.02
712.256	17.38
712.66	17.71
713.064	18.04
713.467	18.38
713.87	18.73
714.274	19.06
714.677	19.4
715.08	19.75
715.484	20.12
715.887	20.47
716.29	20.8
716.693	21.15
717.096	21.52
717.499	21.91
717.901	22.27
718.304	22.63
718.707	22.98
719.109	23.35
719.512	23.72
719.915	24.07
720.317	24.46
720.719	24.82
721.122	25.17
721.524	25.53
721.926	25.86
722.328	26.2
722.731	26.54
723.133	26.89
723.535	27.26
723.937	27.57
724.338	27.87
724.74	28.17
725.142	28.4
725.544	28.69
725.945	28.97
726.347	29.26
726.748	29.55
727.15	29.86
727.551	30.14
727.952	30.38
728.354	30.67
728.755	30.95
729.156	31.22
729.557	31.59
729.958	31.87
730.359	32.15
730.76	32.39
731.161	32.62
731.562	32.86
731.962	33.06
732.363	33.29
732.763	33.51
733.164	33.72
733.564	33.94
733.965	34.09
734.365	34.28
734.766	34.45
735.166	34.62
735.566	34.82
735.966	34.93
736.366	35.1
736.766	35.27
737.166	35.41
737.566	35.55
737.966	35.69
738.365	35.85
738.765	35.98
739.165	36.11
739.564	36.23
739.964	36.34
740.363	36.52
740.763	36.63
741.162	36.74
741.561	36.83
741.96	36.97
742.36	37.06
742.759	37.13
743.158	37.22
743.557	37.31
743.955	37.43
744.354	37.53
744.753	37.57
745.152	37.64
745.55	37.73
745.949	37.8
746.348	37.87
746.746	37.93
747.144	38.04
747.543	38.12
747.941	38.21
748.339	38.3
748.737	38.38
749.136	38.46
749.534	38.54
749.932	38.61
750.33	38.66
750.727	38.72
751.125	38.79
751.523	38.82
751.921	38.86
752.318	38.86
752.716	38.86
753.113	38.88
753.511	38.88
753.908	38.89
754.305	38.89
754.703	38.89
755.1	38.87
755.497	38.86
755.894	38.83
756.291	38.8
756.688	38.77
757.085	38.75
757.482	38.74
757.878	38.71
758.275	38.67
758.672	38.67
759.068	38.67
759.465	38.68
759.861	38.68
760.258	38.67
760.654	38.68
761.05	38.73
761.447	38.73
761.843	38.71
762.239	38.76
762.635	38.79
763.031	38.81
763.427	38.83
763.822	38.84
764.218	38.88
764.614	38.92
765.01	38.94
765.405	38.94
765.801	38.97
766.196	39
766.592	39.02
766.987	39.04
767.382	39.04
767.778	39.07
768.173	39.09
768.568	39.04
768.963	39.04
769.358	39.05
769.753	39.06
770.148	39.1
770.542	39.09
770.937	39.08
771.332	39.05
771.726	39.05
772.121	39.01
772.515	39.01
772.91	39.05
773.304	39.07
773.699	39.07
774.093	39.04
774.487	39.05
774.881	39.08
775.275	39.06
775.669	39.07
776.063	39.05
776.457	39.07
776.851	39.04
777.245	39.06
777.638	39.06
778.032	39.08
778.425	39.09
778.819	39.05
779.212	39
779.606	39.01
779.999	38.99
780.392	39.01
780.786	39.01
781.179	39
781.572	38.99
781.965	38.97
782.358	38.95
782.751	38.93
783.143	38.99
783.536	39.03
783.929	39.06
784.322	39.1
784.714	39.09
785.107	39.06
785.499	39.09
785.891	39.08
786.284	39.08
786.676	39.1
787.068	39.09
787.46	39.04
787.852	39.01
788.245	38.99
788.636	38.96
789.028	38.97
789.42	38.98
789.812	38.97
790.204	38.92
790.595	38.91
790.987	38.92
791.378	38.92
791.77	38.93
792.161	38.96
792.553	38.94
792.944	38.95
793.335	38.94
793.726	38.89
794.117	38.9
794.508	38.94
794.899	38.93
795.29	38.92
795.681	38.92
796.072	38.9
796.463	38.87
796.853	38.86
797.244	38.86
797.634	38.83
798.025	38.88
798.415	38.86
798.806	38.87
799.196	38.91
799.586	38.89
799.976	38.87
800.366	38.86
800.756	38.88
801.146	38.88
801.536	38.85
801.926	38.9
802.316	38.9
802.706	38.9
803.095	38.88
803.485	38.87
803.874	38.85
804.264	38.89
804.653	38.88
805.043	38.86
805.432	38.82
805.821	38.84
806.21	38.82
806.599	38.82
806.988	38.81
807.377	38.82
807.766	38.78
808.155	38.78
808.544	38.74
808.933	38.75
809.321	38.76
809.71	38.8
810.098	38.78
810.487	38.74
810.875	38.73
811.264	38.71
811.652	38.72
812.04	38.73
812.428	38.75
812.816	38.75
813.204	38.77
813.592	38.75
813.98	38.74
814.368	38.73
814.756	38.75
815.144	38.77
815.531	38.75
815.919	38.74
816.306	38.71
816.694	38.71
817.081	38.7
817.469	38.67
817.856	38.7
818.243	38.69
818.63	38.71
819.017	38.72
819.404	38.68
819.791	38.69
820.178	38.67
820.565	38.7
820.952	38.67
821.339	38.67
821.725	38.68
822.112	38.66
822.498	38.67
822.885	38.67
823.271	38.69
823.657	38.7
824.044	38.69
824.43	38.72
824.816	38.69
825.202	38.7
825.588	38.7
825.974	38.69
826.36	38.67
826.746	38.66
827.132	38.63
827.517	38.6
827.903	38.61
828.289	38.6
828.674	38.6
829.06	38.61
829.445	38.63
829.83	38.64
830.216	38.65
830.601	38.68
830.986	38.68
831.371	38.71
831.756	38.73
832.141	38.72
832.526	38.73
832.911	38.74
833.295	38.76
833.68	38.74
834.065	38.75
834.449	38.73
834.834	38.7
835.218	38.68
835.603	38.69
835.987	38.67
836.371	38.69
836.755	38.7
837.139	38.67
837.524	38.66
837.908	38.65
838.291	38.63
838.675	38.64
839.059	38.66
839.443	38.68
839.827	38.68
840.21	38.7
840.594	38.69
840.977	38.67
841.361	38.7
841.744	38.71
842.127	38.71
842.511	38.7
842.894	38.68
843.277	38.67
843.66	38.68
844.043	38.66
844.426	38.64
844.809	38.63
845.191	38.64
845.574	38.61
845.957	38.59
846.339	38.59
846.722	38.61
847.104	38.62
847.487	38.64
847.869	38.58
848.252	38.57
848.634	38.58
849.016	38.6
849.398	38.6
849.78	38.58
850.162	38.6
850.544	38.62
850.926	38.6
851.307	38.62
851.689	38.59
852.071	38.62
852.452	38.62
852.834	38.61
853.215	38.57
853.597	38.57
853.978	38.56
854.359	38.57
854.741	38.55
855.122	38.57
855.503	38.55
855.884	38.56
856.265	38.55
856.646	38.55
857.026	38.55
857.407	38.54
857.788	38.54
858.169	38.56
858.549	38.55
858.93	38.54
859.31	38.51
859.69	38.52
860.071	38.53
860.451	38.54
860.831	38.54
861.211	38.53
861.591	38.57
861.971	38.53
862.351	38.52
862.731	38.53
863.111	38.52
863.491	38.54
863.87	38.54
864.25	38.56
864.629	38.55
865.009	38.54
865.388	38.54
865.768	38.52
866.147	38.56
866.526	38.55
866.905	38.54
867.284	38.55
867.663	38.56
868.042	38.56
868.421	38.52
868.8	38.52
869.179	38.5
869.558	38.51
869.936	38.52
870.315	38.52
870.693	38.52
871.072	38.52
871.45	38.5
871.828	38.5
872.207	38.51
872.585	38.51
872.963	38.51
873.341	38.52
873.719	38.51
874.097	38.53
874.475	38.52
874.853	38.54
875.23	38.54
875.608	38.55
875.986	38.52
876.363	38.52
876.741	38.51
877.118	38.52
877.495	38.53
877.873	38.52
878.25	38.5
878.627	38.49
879.004	38.49
879.381	38.48
879.758	38.45
880.135	38.47
880.512	38.48
880.889	38.5
881.265	38.52
881.642	38.53
882.019	38.55
882.395	38.55
882.772	38.57
883.148	38.57
883.524	38.6
883.901	38.61
884.277	38.62
884.653	38.64
885.029	38.64
885.405	38.63
885.781	38.6
886.157	38.61
886.532	38.6
886.908	38.6
887.284	38.61
887.659	38.6
888.035	38.62
888.411	38.63
888.786	38.63
889.161	38.62
889.537	38.63
889.912	38.65
890.287	38.67
890.662	38.68
891.037	38.64
891.412	38.62
891.787	38.62
892.162	38.61
892.536	38.58
892.911	38.55
893.286	38.54
893.66	38.51
894.035	38.49
894.409	38.47
894.784	38.43
895.158	38.46
895.532	38.43
895.906	38.41
896.281	38.39
896.655	38.39
897.029	38.37
897.402	38.37
897.776	38.36
898.15	38.36
898.524	38.33
898.898	38.35
899.271	38.33
899.645	38.34
900.018	38.34
900.392	38.36
900.765	38.38
901.138	38.4
901.511	38.38
901.884	38.39
902.258	38.36
902.631	38.35
903.003	38.37
903.376	38.37
903.749	38.35
904.122	38.36
904.495	38.33
904.867	38.31
905.24	38.31
905.612	38.31
905.985	38.28
906.357	38.28
906.729	38.28
907.102	38.27
907.474	38.24
907.846	38.25
908.218	38.23
908.59	38.23
908.962	38.25
909.334	38.23
909.705	38.24
910.077	38.22
910.449	38.27
910.82	38.26
911.192	38.26
911.563	38.25
911.935	38.22
912.306	38.22
912.677	38.25
913.048	38.22
913.419	38.22
913.79	38.21
914.161	38.21
914.532	38.17
914.903	38.16
915.274	38.13
915.645	38.16
916.015	38.18
916.386	38.16
916.756	38.11
917.127	38.11
917.497	38.11
917.868	38.11
918.238	38.16
918.608	38.17
918.978	38.15
919.348	38.15
919.718	38.12
920.088	38.11
920.458	38.16
920.828	38.17
921.198	38.18
921.567	38.14
921.937	38.13
922.306	38.07
922.676	38.06
923.045	38.07
923.415	38.08
923.784	38.07
924.153	38.05
924.522	37.99
924.891	37.99
925.26	37.96
925.629	37.99
925.998	37.97
926.367	38
926.736	37.98
927.104	37.99
927.473	37.98
927.842	37.95
928.21	37.98
928.578	37.95
928.947	37.94
929.315	37.91
929.683	37.83
930.051	37.81
930.42	37.73
930.788	37.7
931.156	37.64
931.523	37.61
931.891	37.59
932.259	37.52
932.627	37.51
932.994	37.48
933.362	37.47
933.729	37.46
934.097	37.45
934.464	37.45
934.831	37.41
935.199	37.39
935.566	37.33
935.933	37.4
936.3	37.33
936.667	37.27
937.034	37.22
937.401	37.16
937.767	37.2
938.134	37.11
938.501	37.07
938.867	37.12
939.234	37.16
939.6	37.12
939.967	36.98
940.333	37.05
940.699	37.12
941.065	37.13
941.431	37.16
941.798	37.14
942.163	37.17
942.529	37.24
942.895	37.22
943.261	37.2
943.627	37.26
943.992	37.29
944.358	37.26
944.723	37.2
945.089	37.25
945.454	37.31
945.82	37.31
946.185	37.39
946.55	37.4
946.915	37.38
947.28	37.32
947.645	37.33
948.01	37.36
948.375	37.39
948.74	37.41
949.104	37.39
949.469	37.3
949.834	37.3
950.198	37.27
950.562	37.25
950.927	37.22
951.291	37.21
951.655	37.17
952.02	37.12
952.384	37.19
952.748	37.13
953.112	37.16
953.476	37.16
953.839	37.13
954.203	37.12
954.567	37.1
954.931	37.14
955.294	37.13
955.658	37.13
956.021	37.12
956.385	37.03
956.748	37.1
957.111	37.04
957.474	37.07
957.837	37.07
958.2	37.04
958.563	37.05
958.926	37.03
959.289	37.09
959.652	37.12
960.015	37.1
960.377	37.09
960.74	37.03
961.102	37.03
961.465	37.03
961.827	36.89
962.189	36.84
962.552	36.78
962.914	36.7
963.276	36.65
963.638	36.62
964	36.6
964.362	36.56
964.724	36.61
965.085	36.57
965.447	36.53
965.809	36.61
966.17	36.64
966.532	36.72
966.893	36.78
967.255	36.74
967.616	36.72
967.977	36.77
968.338	36.74
968.699	36.66
969.061	36.7
969.421	36.65
969.782	36.62
970.143	36.58
970.504	36.46
970.865	36.34
971.225	36.34
971.586	36.38
971.946	36.39
972.307	36.4
972.667	36.45
973.027	36.43
973.388	36.43
973.748	36.49
974.108	36.5
974.468	36.52
974.828	36.58
975.188	36.61
975.548	36.56
975.907	36.53
976.267	36.61
976.627	36.58
976.986	36.51
977.346	36.58
977.705	36.52
978.064	36.58
978.424	36.57
978.783	36.6
979.142	36.61
979.501	36.6
979.86	36.54
980.219	36.41
980.578	36.43
980.937	36.54
981.296	36.5
981.654	36.48
982.013	36.43
982.371	36.4
982.73	36.38
983.088	36.26
983.447	36.2
983.805	36.13
984.163	36.1
984.521	36
984.879	35.94
985.237	35.92
985.595	35.99
985.953	35.9
986.311	35.91
986.669	35.86
987.026	35.95
987.384	36
987.741	36.05
988.099	36.08
988.456	36.12
988.814	36.13
989.171	36.05
989.528	35.96
989.885	35.96
990.242	35.9
990.599	35.98
990.956	35.99
991.313	35.93
991.67	35.94
992.027	35.91
992.383	35.82
992.74	35.61
993.096	35.59
993.453	35.65
993.809	35.62
994.165	35.62
994.522	35.46
994.878	35.36
995.234	35.47
995.59	35.35
995.946	35.41
996.302	35.55
996.658	35.75
997.013	35.79
997.369	35.65
997.725	35.59
998.08	35.5
998.436	35.6
998.791	35.54
999.147	35.39
999.502	35.4
999.857	35.38
1000.212	35.16
1000.567	35.01
1000.922	35
1001.277	34.96
1001.632	35.23
1001.987	35.28
1002.342	35.23
1002.696	35.16
1003.051	34.99
1003.406	34.95
1003.76	34.92
1004.114	35.01
1004.469	34.98
1004.823	34.94
1005.177	35.03
1005.531	34.7
1005.885	34.78
1006.239	34.73
1006.593	34.67
1006.947	34.72
1007.301	34.85
1007.655	34.72
1008.008	34.61
1008.362	34.57
1008.715	34.45
1009.069	34.25
1009.422	34.29
1009.776	34.18
1010.129	34.06
1010.482	34.11
1010.835	34.25
1011.188	34.01
1011.541	33.96
1011.894	34.08
1012.247	33.99
1012.6	34.07
1012.952	34.19
1013.305	34.11
1013.657	34.14
1014.01	34.16
1014.362	34.16
1014.715	33.75
1015.067	33.82
1015.419	33.87
1015.771	33.89
1016.123	33.82
1016.475	33.69
1016.827	33.6
1017.179	33.81
1017.531	33.53
1017.883	33.47
1018.234	33.26
1018.586	33.38
1018.938	33.03
1019.289	32.6
1019.64	32.45
1019.992	32.4
1020.343	32.31
1020.694	32.23
1021.045	32.03
1021.396	31.92
1021.747	32.12
1022.098	32.47
1022.449	32.63
1022.8	32.97
1023.151	32.9
1023.501	32.84
1023.852	33.18
1024.202	33.47
1024.553	33.22
1024.903	33.12
1025.253	33.07
1025.604	32.97
1025.954	32.33
1026.304	32.5
1026.654	32.22
1027.004	32.38
1027.354	32.55
1027.703	32.23
1028.053	31.88
1028.403	31.4
1028.753	31.28
1029.102	31.49
1029.452	31.3
1029.801	31.71
1030.15	31.3
1030.499	31.48
897.758	-55.92
901.051	-52.54
904.343	-56.45
907.636	-56.57
910.928	-50.73
914.22	-55.9
917.511	-54.01
920.803	-54.32
924.094	-46.57
927.384	-46.81
930.675	-45.29
933.965	-43.04
937.255	-44.52
940.544	-40.87
943.834	-35.64
947.123	-36.51
950.411	-27.55
953.7	-25.98
956.988	-24.48
960.276	-21.14
963.563	-16.21
966.851	-10.3
970.138	-10.4
973.424	-6.62
976.711	-4.68
979.997	-3.48
983.283	-3.06
986.568	-2.09
989.853	0.15
993.138	3.16
996.423	3.74
999.708	3.8
1002.992	3.24
1006.275	4.62
1009.559	7.32
1012.842	7.82
1016.125	10.23
1019.408	11.65
1022.69	13.56
1025.972	14
1029.254	14.08
1032.536	15.05
1035.817	14.95
1039.098	16.91
1042.379	20.15
1045.659	19.55
1048.939	19.45
1052.219	20.02
1055.498	21.69
1058.778	21.01
1062.057	20.57
1065.335	22.46
1068.614	22.14
1071.892	23.48
1075.17	22.52
1078.447	22.46
1081.724	23.07
1085.001	23.71
1088.278	24.46
1091.554	22.62
1094.83	24.21
1098.106	24.95
1101.382	24.28
1104.657	25.16
1107.932	25.31
1111.206	26.45
1114.481	26.21
1117.755	25.76
1121.029	26.4
1124.302	26.99
1127.575	28.37
1130.848	27.36
1134.121	27.34
1137.393	27.85
1140.665	27.3
1143.937	27.14
1147.208	26.64
1150.48	27.08
1153.75	27.02
1157.021	27.78
1160.291	27.11
1163.561	26.78
1166.831	27.1
1170.101	27.59
1173.37	27.91
1176.639	28.01
1179.907	28.26
1183.176	28.88
1186.444	27.8
1189.711	27.85
1192.979	27.37
1196.246	27.22
1199.513	27.89
1202.78	27.62
1206.046	26.96
1209.312	27.63
1212.578	27.52
1215.843	27.37
1219.108	26.13
1222.373	26.83
1225.638	26.96
1228.902	26.25
1232.166	25.53
1235.43	23.6
1238.693	24.05
1241.956	22.83
1245.219	21.2
1248.482	22.09
1251.744	21.04
1255.006	23.01
1258.268	21.71
1261.529	21.59
1264.79	23.3
1268.051	23.76
1271.312	24.92
1274.572	24.46
1277.832	27.45
1281.092	26.82
1284.351	27.2
1287.61	27.81
1290.869	27.29
1294.128	28.96
1297.386	28.93
1300.644	27.76
1303.902	27.44
1307.159	28.04
1310.416	27.39
1313.673	26.29
1316.93	26.13
1320.186	25.33
1323.442	23.96
1326.697	22.62
1329.953	22.43
1333.208	20.29
1336.463	18.72
1339.717	18.76
1342.972	15.9
1346.226	14.06
1349.479	12.45
1352.733	11.63
1355.986	9.91
1359.238	10.23
1362.491	8.61
1365.743	4.85
1368.995	7.01
1372.247	7.53
1375.498	6.3
1378.749	3.78
1382	3.14
1385.251	1.7
1388.501	1.09
1391.751	-0.97
1395	-1.94
1398.25	-2.29
1401.499	-4.91
1404.748	-8.04
1407.996	-9.74
1411.244	-9.91
1414.492	-9.97
1417.74	-9.16
1420.987	-8.32
1424.234	-9.11
1427.481	-9.91
1430.728	-9.58
1433.974	-9.49
1437.22	-7.9
1440.465	-7.05
1443.711	-6.82
1446.956	-6.86
1450.201	-4.91
1453.445	-5.11
1456.689	-4.07
1459.933	-2.94
1463.177	-1.19
1466.42	-1.12
1469.663	-0.19
1472.906	0.69
1476.148	1.42
1479.391	2.25
1482.633	3.09
1485.874	3.12
1489.115	4.4
1492.356	4.9
1495.597	4.85
1498.838	5.49
1502.078	6.42
1505.318	6.58
1508.557	7.01
1511.797	7.72
1515.036	9.41
1518.274	9.66
1521.513	10.55
1524.751	10.58
1527.989	11.68
1531.227	12.2
1534.464	13.26
1537.701	13.51
1540.938	13.99
1544.174	14.29
1547.41	14.63
1550.646	14.63
1553.882	15.37
1557.117	16.05
1560.352	16.71
1563.587	16.72
1566.821	16.97
1570.055	17.51
1573.289	18.2
1576.523	18.43
1579.756	19.03
1582.989	19.71
1586.222	19.38
1589.454	19.79
1592.686	19.88
1595.918	20.1
1599.15	20.44
1602.381	20.58
1605.612	21.13
1608.843	21.02
1612.073	20.9
1615.303	21.76
1618.533	21.49
1621.762	21.87
1624.992	22.22
1628.221	22.25
1631.449	22.61
1634.678	22.67
1637.906	22.71
1641.134	22.34
1644.361	22.49
1647.588	23.26
1650.815	22.8
1654.042	23.39
1657.269	23.33
1660.495	23.11
1663.72	23.48
1666.946	23.15
1670.171	23.05
1673.396	23.83
1676.621	23.71
1679.845	23.94
1683.069	23.16
1686.293	22.89
1689.517	22.81
1692.74	23.02
1695.963	22.81
1699.185	22.28
1702.408	22.35
1705.63	21.99
1708.852	21.61
1712.073	21.67
1715.294	21.19
1718.515	21.82
1721.736	21.87
1724.956	21.25
1728.176	21.13
1731.396	20.63
1734.616	21.25
1737.835	20.88
1741.054	20.98
1744.272	20.57
1747.491	20.29
1750.709	20.38
1753.927	19.81
1757.144	19.57
1760.361	19.34
1763.578	18.41
1766.795	18.76
1770.011	18.61
1773.227	17.95
1776.443	17.64
1779.658	16.99
1782.874	17.06
1786.089	15.47
1789.303	15.6
1792.518	15.11
1795.732	15.35
1798.945	16.04
1802.159	15.36
1805.372	14.36
1808.585	15.25
1811.797	14.85
1815.01	15.39
1818.222	14.87
1821.434	15.65
1824.645	14.53
1827.856	14.22
1831.067	13.2
1834.278	13.63
1837.488	13.32
1840.698	12.84
1843.908	12.08
1847.117	11.61
1850.326	10.27
1853.535	9.71
1856.744	8.59
1859.952	7.83
1863.16	6.59
1866.368	6.32
1869.575	4.09
1872.782	2.45
1875.989	0.62
1879.196	-0.08
1882.402	-2.22
1885.608	-2.48
1888.814	-4.54
1892.019	-7.19
1895.224	-7.72
1898.429	-8.74
1901.634	-10.26
1904.838	-11.98
1908.042	-12.35
1911.246	-12.69
1914.449	-13.52
1917.652	-14.4
1920.855	-15.54
1924.058	-14.45
1927.26	-14.85
1930.462	-15.12
1933.664	-13.95
1936.865	-14.05
1940.066	-14.13
1943.267	-14.28
1946.467	-15.54
1949.668	-15
1952.868	-13.55
1956.067	-13.78
1959.267	-13.88
1962.466	-13.7
1965.665	-13.41
1968.863	-13.57
1972.061	-12.51
1975.259	-13.08
1978.457	-12.84
1981.654	-10.93
1984.852	-11.94
1988.048	-12.18
1991.245	-11.51
1994.441	-12.65
1997.637	-11.77
2000.833	-11.63
2004.028	-12.09
2007.223	-14.88
2010.418	-13.18
2013.613	-14.28
2016.807	-15.69
2020.001	-16.4
2023.194	-15.41
2026.388	-16.2
2029.581	-17.1
2032.774	-18.29
2035.966	-20.37
2039.158	-20.44
2042.35	-20.18
2045.542	-20.69
2048.733	-20.95
2051.924	-23.04
2055.115	-23.12
2058.306	-25.2
2061.496	-28.38
2064.686	-25.57
2067.875	-25.15
2071.065	-24.14
2074.254	-24.97
2077.442	-25.57
2080.631	-27.4
2083.819	-27.45
2087.007	-25.15
2090.195	-24.78
2093.382	-23.7
2096.569	-22.69
2099.756	-22.33
2102.942	-23.69
2106.128	-24.29
2109.314	-23.34
2112.5	-21.37
2115.685	-22.15
2118.87	-21.12
2122.055	-23.67
2125.239	-25.79
2128.424	-26.56
2131.608	-26.75
2134.791	-29.02
2137.974	-28.27
2141.157	-26.36
2144.34	-27.92
2147.523	-28.89
2150.705	-27.84
2153.887	-29.66
2157.068	-27.34
2160.25	-28.35
2163.431	-26.9
2166.611	-27.26
2169.792	-28.19
2172.972	-26.42
2176.152	-27.75
2179.331	-30.32
2182.511	-30.65
2185.69	-30.74
2188.868	-35.88
2192.047	-35.26
2195.225	-33.46
2198.403	-38.25
2201.58	-36.56
2204.758	-38.81
2207.935	-45.2
2211.111	-49.41
2214.288	-46.63
2217.464	-47.88
2220.64	-47.5
2223.815	-44.3
2226.991	-45.56
2230.166	-45.84
2233.34	-47.26
2236.515	-53.66
2239.689	-50.15
2242.863	-48.81
2246.036	-45.1
2249.209	-49.08
2252.382	-49.3
2255.555	-52.91
2258.727	-51.95
2261.9	-57.24
2265.071	-57.35
2268.243	-55.02
2271.414	-57.13
2274.585	-63.35
2277.756	-60.67
2280.926	-69.03
2284.096	-65.82
2287.266	-64.93
2290.436	-61.36
2293.605	-62.59
2296.774	-62.95
2299.942	-64.02
2303.111	-68.05
2306.279	-66.33
2309.447	-61.77
2312.614	-63.11
2315.781	-65.33
2318.948	-66.65
2322.115	-69.05
2325.281	-83.07
2328.447	-86.25
2331.613	-84.22
2334.779	-86.27
2337.944	-91.3
2341.109	-94.38
2344.274	-98.45
2347.438	-103.03
2350.602	-104.16
2353.766	-112
2356.929	-114.06
2360.092	-106.67
2363.255	-103.24
2366.418	-107.11
2369.58	-108.73
2372.742	-105.21
2375.904	-100.3
2379.066	-102.83
2382.227	-117.29
2385.388	-115.23
2388.548	-112.77
2391.709	-108.11
2394.869	-111.78
2398.029	-108.05
2401.188	-107.75
2404.347	-118.95
2407.506	-122.93
2410.665	-118.01
2413.823	-121.38
2416.981	-115.19
2420.139	-105.93
2423.296	-110.94
2426.453	-120.36
2429.61	-117.69
2432.767	-131.92
2435.923	-134.85
2439.079	-121.61
2442.235	-131.53
2445.391	-132.59
2448.546	-128.29
2451.701	-142.17
2454.855	-156
2458.009	-123.6
2461.163	-131.04
2464.317	-131.39
2467.471	-129.58
2470.624	-136.02
2473.777	-140.39
2476.929	-122.55
2480.082	-139.42
2483.234	-149.47
2486.385	-154.95
2489.537	-152.88
2492.688	-185.55
2495.839	-182.41
2498.989	-185.48
2502.14	-187.76
2505.29	-174.79
2508.439	-203.28
2511.589	-215.82
2514.738	-211.31
2517.887	-209.97
2521.035	-187.21
2524.183	-184.97
2527.331	-179.37
2530.479	-170.48
2533.627	-178.86
