Data from c_1_div_wi_4n_031_Splice17_20.txt Node
Date: Sat Feb 29 13:23:54 EST 2020
User: sa697716
Spectrometer: FLMS03696
Trigger mode: 0
Integration Time (sec): 3.180400E-1
Scans to average: 20
Electric dark correction enabled: true
Nonlinearity correction enabled: true
Boxcar width: 5
XAxis mode: Wavelengths
Number of Pixels in Spectrum: 2048
>>>>>Begin Spectral Data<<<<<
187.83	115.97
188.298	118.75
188.766	108.9
189.233	106.09
189.701	104.83
190.169	106.19
190.636	103.25
191.104	81.14
191.571	51.56
192.039	-0.68
192.506	395.8
192.974	8430.28
193.441	-596.37
193.908	123.67
194.375	133.1
194.842	51.13
195.31	79
195.777	48.84
196.244	58.85
196.711	60.7
197.177	59.3
197.644	59.49
198.111	59.41
198.578	59.68
199.045	60.34
199.511	60.75
199.978	61.52
200.445	60.97
200.911	61.34
201.378	61.27
201.844	61.74
202.31	61.83
202.777	61.94
203.243	62.05
203.709	62.2
204.176	62.03
204.642	62.03
205.108	61.27
205.574	61.34
206.04	61.12
206.506	60.54
206.972	59.63
207.438	59.42
207.903	59.05
208.369	57.57
208.835	57.11
209.301	56.47
209.766	55.19
210.232	54.65
210.697	53.66
211.163	52.47
211.628	51.3
212.094	50.61
212.559	49.32
213.024	48.12
213.49	47.38
213.955	46.02
214.42	44.48
214.885	43.06
215.35	41.36
215.815	39.3
216.28	37.02
216.745	34.74
217.21	32.29
217.675	30
218.14	27.8
218.604	25.78
219.069	24.05
219.534	22.73
219.998	21.52
220.463	20.46
220.927	19.6
221.392	18.87
221.856	18.19
222.32	17.61
222.785	17.11
223.249	16.67
223.713	16.29
224.177	15.89
224.642	15.51
225.106	15.22
225.57	14.94
226.034	14.68
226.497	14.35
226.961	14.07
227.425	13.79
227.889	13.57
228.353	13.34
228.816	13.14
229.28	12.92
229.744	12.72
230.207	12.54
230.671	12.32
231.134	12.13
231.597	11.97
232.061	11.81
232.524	11.68
232.987	11.5
233.45	11.35
233.914	11.2
234.377	11.08
234.84	10.95
235.303	10.81
235.766	10.69
236.229	10.56
236.691	10.46
237.154	10.38
237.617	10.26
238.08	10.16
238.542	10.06
239.005	9.98
239.468	9.87
239.93	9.78
240.393	9.71
240.855	9.63
241.317	9.56
241.78	9.48
242.242	9.35
242.704	9.27
243.166	9.18
243.629	9.09
244.091	9.01
244.553	8.94
245.015	8.87
245.477	8.77
245.939	8.68
246.4	8.58
246.862	8.51
247.324	8.45
247.786	8.38
248.247	8.31
248.709	8.23
249.17	8.15
249.632	8.07
250.093	7.98
250.555	7.91
251.016	7.86
251.477	7.8
251.939	7.73
252.4	7.66
252.861	7.6
253.322	7.53
253.783	7.49
254.244	7.43
254.705	7.38
255.166	7.35
255.627	7.3
256.088	7.23
256.549	7.19
257.009	7.12
257.47	7.08
257.931	7.02
258.391	6.96
258.852	6.9
259.312	6.85
259.773	6.79
260.233	6.72
260.694	6.67
261.154	6.61
261.614	6.55
262.074	6.51
262.534	6.45
262.994	6.42
263.455	6.38
263.915	6.34
264.374	6.3
264.834	6.26
265.294	6.22
265.754	6.18
266.214	6.16
266.673	6.13
267.133	6.1
267.593	6.06
268.052	6.03
268.512	5.99
268.971	5.96
269.431	5.93
269.89	5.91
270.349	5.88
270.809	5.87
271.268	5.83
271.727	5.81
272.186	5.79
272.645	5.76
273.104	5.74
273.563	5.72
274.022	5.7
274.481	5.68
274.94	5.66
275.399	5.64
275.857	5.62
276.316	5.6
276.775	5.57
277.233	5.55
277.692	5.53
278.15	5.51
278.609	5.48
279.067	5.46
279.525	5.43
279.984	5.41
280.442	5.39
280.9	5.38
281.358	5.37
281.816	5.35
282.274	5.33
282.732	5.33
283.19	5.32
283.648	5.31
284.106	5.29
284.564	5.29
285.021	5.28
285.479	5.26
285.937	5.24
286.394	5.23
286.852	5.21
287.309	5.2
287.767	5.18
288.224	5.16
288.682	5.13
289.139	5.11
289.596	5.07
290.053	5.04
290.511	5.02
290.968	5.01
291.425	4.98
291.882	4.96
292.339	4.92
292.796	4.9
293.252	4.86
293.709	4.85
294.166	4.84
294.623	4.83
295.079	4.81
295.536	4.79
295.992	4.77
296.449	4.75
296.905	4.73
297.362	4.72
297.818	4.71
298.274	4.71
298.731	4.69
299.187	4.67
299.643	4.66
300.099	4.65
300.555	4.63
301.011	4.62
301.467	4.62
301.923	4.61
302.379	4.6
302.835	4.59
303.291	4.58
303.746	4.57
304.202	4.56
304.658	4.54
305.113	4.53
305.569	4.53
306.024	4.52
306.479	4.5
306.935	4.5
307.39	4.5
307.845	4.5
308.301	4.5
308.756	4.5
309.211	4.5
309.666	4.5
310.121	4.5
310.576	4.5
311.031	4.5
311.486	4.51
311.94	4.5
312.395	4.5
312.85	4.48
313.305	4.48
313.759	4.47
314.214	4.47
314.668	4.46
315.123	4.45
315.577	4.44
316.032	4.43
316.486	4.41
316.94	4.4
317.394	4.39
317.849	4.37
318.303	4.36
318.757	4.34
319.211	4.32
319.665	4.31
320.119	4.3
320.572	4.29
321.026	4.28
321.48	4.27
321.934	4.26
322.387	4.25
322.841	4.24
323.295	4.24
323.748	4.23
324.202	4.22
324.655	4.22
325.108	4.2
325.562	4.18
326.015	4.17
326.468	4.16
326.921	4.15
327.374	4.14
327.827	4.13
328.28	4.12
328.733	4.11
329.186	4.11
329.639	4.1
330.092	4.1
330.545	4.1
330.997	4.1
331.45	4.09
331.903	4.09
332.355	4.09
332.808	4.09
333.26	4.1
333.713	4.11
334.165	4.11
334.617	4.13
335.069	4.12
335.522	4.13
335.974	4.12
336.426	4.14
336.878	4.14
337.33	4.12
337.782	4.12
338.234	4.12
338.686	4.1
339.137	4.1
339.589	4.08
340.041	4.08
340.493	4.06
340.944	4.06
341.396	4.04
341.847	4.03
342.299	4.02
342.75	4
343.201	3.99
343.653	3.97
344.104	3.95
344.555	3.94
345.006	3.92
345.457	3.91
345.908	3.9
346.359	3.89
346.81	3.88
347.261	3.88
347.712	3.87
348.163	3.86
348.613	3.86
349.064	3.84
349.515	3.84
349.965	3.84
350.416	3.83
350.866	3.82
351.317	3.81
351.767	3.8
352.217	3.79
352.668	3.79
353.118	3.79
353.568	3.8
354.018	3.81
354.468	3.81
354.918	3.81
355.368	3.81
355.818	3.81
356.268	3.82
356.718	3.82
357.168	3.82
357.617	3.82
358.067	3.81
358.517	3.8
358.966	3.8
359.416	3.81
359.865	3.81
360.315	3.81
360.764	3.81
361.213	3.81
361.663	3.81
362.112	3.82
362.561	3.82
363.01	3.84
363.459	3.84
363.908	3.83
364.357	3.82
364.806	3.82
365.255	3.83
365.703	3.83
366.152	3.83
366.601	3.83
367.05	3.83
367.498	3.83
367.947	3.83
368.395	3.85
368.844	3.86
369.292	3.87
369.74	3.88
370.189	3.87
370.637	3.88
371.085	3.9
371.533	3.9
371.981	3.91
372.429	3.9
372.877	3.9
373.325	3.89
373.773	3.89
374.221	3.89
374.669	3.9
375.116	3.91
375.564	3.9
376.012	3.91
376.459	3.92
376.907	3.94
377.354	3.94
377.801	3.95
378.249	3.97
378.696	3.98
379.143	4
379.591	4.01
380.038	4.03
380.485	4.05
380.932	4.06
381.379	4.07
381.826	4.08
382.273	4.09
382.72	4.1
383.166	4.11
383.613	4.12
384.06	4.13
384.506	4.15
384.953	4.16
385.4	4.17
385.846	4.17
386.292	4.19
386.739	4.2
387.185	4.23
387.631	4.24
388.078	4.27
388.524	4.28
388.97	4.29
389.416	4.31
389.862	4.33
390.308	4.35
390.754	4.38
391.2	4.41
391.645	4.45
392.091	4.47
392.537	4.5
392.983	4.52
393.428	4.57
393.874	4.6
394.319	4.64
394.765	4.66
395.21	4.68
395.655	4.71
396.101	4.73
396.546	4.76
396.991	4.78
397.436	4.8
397.881	4.85
398.326	4.9
398.771	4.94
399.216	4.98
399.661	5.01
400.106	5.06
400.551	5.09
400.995	5.11
401.44	5.12
401.885	5.16
402.329	5.18
402.774	5.18
403.218	5.2
403.663	5.22
404.107	5.25
404.551	5.28
404.995	5.3
405.44	5.32
405.884	5.36
406.328	5.39
406.772	5.41
407.216	5.44
407.66	5.48
408.104	5.5
408.547	5.52
408.991	5.53
409.435	5.54
409.879	5.57
410.322	5.61
410.766	5.64
411.209	5.68
411.653	5.71
412.096	5.73
412.54	5.75
412.983	5.79
413.426	5.81
413.869	5.85
414.312	5.9
414.756	5.94
415.199	5.97
415.642	6
416.085	6.03
416.527	6.05
416.97	6.08
417.413	6.09
417.856	6.08
418.298	6.09
418.741	6.1
419.184	6.1
419.626	6.1
420.069	6.11
420.511	6.12
420.953	6.11
421.396	6.12
421.838	6.16
422.28	6.2
422.722	6.25
423.164	6.26
423.606	6.29
424.048	6.29
424.49	6.31
424.932	6.31
425.374	6.32
425.816	6.32
426.258	6.31
426.699	6.29
427.141	6.26
427.582	6.26
428.024	6.27
428.465	6.27
428.907	6.29
429.348	6.29
429.789	6.3
430.231	6.3
430.672	6.32
431.113	6.34
431.554	6.36
431.995	6.39
432.436	6.42
432.877	6.41
433.318	6.42
433.759	6.44
434.2	6.45
434.64	6.47
435.081	6.48
435.522	6.52
435.962	6.54
436.403	6.57
436.843	6.57
437.284	6.57
437.724	6.62
438.164	6.66
438.604	6.68
439.045	6.69
439.485	6.71
439.925	6.73
440.365	6.72
440.805	6.73
441.245	6.71
441.685	6.73
442.125	6.74
442.564	6.74
443.004	6.75
443.444	6.74
443.883	6.75
444.323	6.76
444.762	6.8
445.202	6.83
445.641	6.85
446.081	6.89
446.52	6.9
446.959	6.91
447.398	6.94
447.837	6.97
448.276	6.99
448.716	7.03
449.154	7.05
449.593	7.04
450.032	7.04
450.471	7.04
450.91	7.04
451.349	7.04
451.787	7.05
452.226	7.02
452.664	7.01
453.103	7.01
453.541	6.99
453.98	6.97
454.418	6.96
454.856	6.93
455.295	6.91
455.733	6.9
456.171	6.9
456.609	6.9
457.047	6.89
457.485	6.88
457.923	6.87
458.361	6.87
458.798	6.86
459.236	6.86
459.674	6.87
460.111	6.9
460.549	6.89
460.987	6.9
461.424	6.89
461.862	6.89
462.299	6.89
462.736	6.9
463.173	6.9
463.611	6.9
464.048	6.92
464.485	6.93
464.922	6.91
465.359	6.91
465.796	6.9
466.233	6.92
466.67	6.95
467.106	6.96
467.543	6.94
467.98	6.95
468.416	6.96
468.853	6.95
469.29	6.96
469.726	6.97
470.162	6.97
470.599	6.97
471.035	6.97
471.471	6.92
471.907	6.9
472.344	6.91
472.78	6.9
473.216	6.9
473.652	6.88
474.088	6.88
474.523	6.86
474.959	6.84
475.395	6.84
475.831	6.82
476.266	6.83
476.702	6.83
477.138	6.8
477.573	6.77
478.008	6.75
478.444	6.73
478.879	6.7
479.314	6.69
479.75	6.69
480.185	6.67
480.62	6.65
481.055	6.65
481.49	6.63
481.925	6.61
482.36	6.6
482.795	6.59
483.229	6.6
483.664	6.59
484.099	6.57
484.534	6.56
484.968	6.56
485.403	6.55
485.837	6.53
486.271	6.54
486.706	6.53
487.14	6.55
487.574	6.54
488.009	6.54
488.443	6.56
488.877	6.56
489.311	6.57
489.745	6.58
490.179	6.6
490.613	6.62
491.046	6.64
491.48	6.67
491.914	6.69
492.348	6.71
492.781	6.72
493.215	6.73
493.648	6.77
494.082	6.8
494.515	6.83
494.948	6.86
495.382	6.89
495.815	6.93
496.248	6.96
496.681	6.98
497.114	7.02
497.547	7.07
497.98	7.11
498.413	7.15
498.846	7.21
499.279	7.26
499.711	7.3
500.144	7.36
500.577	7.42
501.009	7.49
501.442	7.56
501.874	7.63
502.306	7.71
502.739	7.79
503.171	7.87
503.603	7.96
504.036	8.06
504.468	8.17
504.9	8.28
505.332	8.39
505.764	8.51
506.196	8.62
506.627	8.76
507.059	8.89
507.491	9.03
507.923	9.16
508.354	9.33
508.786	9.46
509.217	9.6
509.649	9.76
510.08	9.94
510.512	10.09
510.943	10.3
511.374	10.47
511.805	10.67
512.237	10.86
512.668	11.05
513.099	11.25
513.53	11.47
513.961	11.68
514.391	11.88
514.822	12.09
515.253	12.33
515.684	12.53
516.114	12.77
516.545	13
516.975	13.24
517.406	13.5
517.836	13.73
518.267	13.99
518.697	14.25
519.127	14.5
519.558	14.75
519.988	15.01
520.418	15.26
520.848	15.52
521.278	15.77
521.708	16.04
522.138	16.28
522.567	16.53
522.997	16.76
523.427	16.99
523.857	17.22
524.286	17.44
524.716	17.65
525.145	17.88
525.575	18.1
526.004	18.3
526.433	18.48
526.863	18.66
527.292	18.85
527.721	19.03
528.15	19.2
528.579	19.37
529.008	19.54
529.437	19.69
529.866	19.83
530.295	19.96
530.724	20.1
531.152	20.22
531.581	20.35
532.01	20.47
532.438	20.58
532.867	20.69
533.295	20.79
533.723	20.88
534.152	20.98
534.58	21.05
535.008	21.13
535.436	21.2
535.865	21.27
536.293	21.35
536.721	21.41
537.149	21.47
537.576	21.52
538.004	21.55
538.432	21.6
538.86	21.65
539.287	21.71
539.715	21.76
540.143	21.78
540.57	21.81
540.998	21.85
541.425	21.88
541.852	21.91
542.28	21.94
542.707	21.98
543.134	22
543.561	22.01
543.988	22.02
544.415	22.06
544.842	22.09
545.269	22.12
545.696	22.13
546.123	22.15
546.549	22.16
546.976	22.2
547.403	22.22
547.829	22.24
548.256	22.26
548.682	22.27
549.108	22.29
549.535	22.29
549.961	22.29
550.387	22.29
550.813	22.28
551.24	22.27
551.666	22.27
552.092	22.25
552.518	22.22
552.943	22.21
553.369	22.18
553.795	22.15
554.221	22.11
554.646	22.09
555.072	22.05
555.498	22
555.923	21.97
556.349	21.9
556.774	21.85
557.199	21.78
557.625	21.7
558.05	21.6
558.475	21.51
558.9	21.42
559.325	21.33
559.75	21.23
560.175	21.13
560.6	21.01
561.025	20.9
561.449	20.77
561.874	20.66
562.299	20.54
562.723	20.42
563.148	20.29
563.572	20.15
563.997	20.01
564.421	19.87
564.846	19.74
565.27	19.6
565.694	19.44
566.118	19.3
566.542	19.15
566.966	19.01
567.39	18.86
567.814	18.71
568.238	18.55
568.662	18.39
569.086	18.25
569.509	18.1
569.933	17.95
570.357	17.8
570.78	17.66
571.204	17.51
571.627	17.36
572.05	17.23
572.474	17.09
572.897	16.97
573.32	16.83
573.743	16.69
574.166	16.55
574.589	16.44
575.012	16.33
575.435	16.21
575.858	16.09
576.281	15.99
576.704	15.88
577.126	15.77
577.549	15.68
577.972	15.58
578.394	15.47
578.817	15.38
579.239	15.28
579.661	15.19
580.084	15.09
580.506	15.02
580.928	14.93
581.35	14.85
581.772	14.79
582.194	14.71
582.616	14.66
583.038	14.61
583.46	14.54
583.882	14.49
584.303	14.42
584.725	14.37
585.147	14.29
585.568	14.22
585.99	14.17
586.411	14.1
586.833	14.05
587.254	13.98
587.675	13.92
588.096	13.88
588.518	13.81
588.939	13.77
589.36	13.72
589.781	13.7
590.202	13.66
590.623	13.61
591.043	13.55
591.464	13.5
591.885	13.47
592.305	13.46
592.726	13.42
593.147	13.41
593.567	13.37
593.987	13.36
594.408	13.32
594.828	13.29
595.248	13.25
595.669	13.24
596.089	13.22
596.509	13.16
596.929	13.11
597.349	13.08
597.769	13.03
598.189	13
598.608	12.95
599.028	12.92
599.448	12.9
599.867	12.87
600.287	12.82
600.706	12.79
601.126	12.76
601.545	12.72
601.965	12.67
602.384	12.63
602.803	12.58
603.222	12.53
603.641	12.48
604.061	12.42
604.48	12.36
604.898	12.31
605.317	12.25
605.736	12.19
606.155	12.14
606.574	12.08
606.992	12.01
607.411	11.95
607.829	11.85
608.248	11.78
608.666	11.71
609.085	11.64
609.503	11.57
609.921	11.5
610.339	11.45
610.758	11.38
611.176	11.31
611.594	11.24
612.012	11.17
612.43	11.16
612.847	11.11
613.265	11.06
613.683	11
614.101	10.95
614.518	10.89
614.936	10.82
615.353	10.76
615.771	10.71
616.188	10.67
616.606	10.63
617.023	10.57
617.44	10.52
617.857	10.47
618.274	10.44
618.691	10.42
619.108	10.39
619.525	10.35
619.942	10.32
620.359	10.31
620.776	10.28
621.192	10.26
621.609	10.23
622.026	10.2
622.442	10.19
622.859	10.16
623.275	10.13
623.691	10.11
624.108	10.11
624.524	10.1
624.94	10.08
625.356	10.06
625.772	10.05
626.188	10.06
626.604	10.05
627.02	10.03
627.436	10.02
627.852	10.01
628.268	10.01
628.683	9.98
629.099	9.97
629.514	9.95
629.93	9.96
630.345	9.92
630.761	9.88
631.176	9.86
631.591	9.84
632.007	9.82
632.422	9.78
632.837	9.74
633.252	9.71
633.667	9.66
634.082	9.62
634.497	9.56
634.911	9.52
635.326	9.46
635.741	9.4
636.155	9.34
636.57	9.26
636.984	9.18
637.399	9.09
637.813	9.02
638.228	8.95
638.642	8.87
639.056	8.79
639.47	8.72
639.884	8.64
640.298	8.57
640.712	8.49
641.126	8.42
641.54	8.35
641.954	8.31
642.368	8.24
642.781	8.17
643.195	8.09
643.609	8.03
644.022	7.95
644.436	7.89
644.849	7.84
645.262	7.79
645.676	7.73
646.089	7.66
646.502	7.59
646.915	7.54
647.328	7.51
647.741	7.47
648.154	7.44
648.567	7.42
648.98	7.4
649.393	7.36
649.805	7.32
650.218	7.3
650.631	7.3
651.043	7.28
651.456	7.27
651.868	7.24
652.28	7.22
652.693	7.18
653.105	7.14
653.517	7.11
653.929	7.09
654.341	7.07
654.753	7.04
655.165	7
655.577	6.97
655.989	6.92
656.401	6.87
656.813	6.84
657.224	6.8
657.636	6.77
658.047	6.73
658.459	6.69
658.87	6.64
659.282	6.61
659.693	6.57
660.104	6.53
660.515	6.5
660.926	6.49
661.338	6.45
661.749	6.41
662.159	6.38
662.57	6.35
662.981	6.31
663.392	6.29
663.803	6.26
664.213	6.23
664.624	6.22
665.035	6.19
665.445	6.16
665.855	6.14
666.266	6.14
666.676	6.12
667.086	6.11
667.497	6.09
667.907	6.08
668.317	6.06
668.727	6.07
669.137	6.06
669.547	6.06
669.956	6.07
670.366	6.08
670.776	6.08
671.186	6.09
671.595	6.12
672.005	6.15
672.414	6.16
672.824	6.19
673.233	6.22
673.642	6.24
674.052	6.25
674.461	6.26
674.87	6.29
675.279	6.32
675.688	6.35
676.097	6.37
676.506	6.39
676.915	6.43
677.323	6.47
677.732	6.51
678.141	6.55
678.549	6.59
678.958	6.65
679.366	6.68
679.775	6.72
680.183	6.76
680.592	6.82
681	6.86
681.408	6.92
681.816	6.97
682.224	7.02
682.632	7.09
683.04	7.18
683.448	7.25
683.856	7.35
684.264	7.44
684.671	7.56
685.079	7.67
685.487	7.82
685.894	7.96
686.302	8.11
686.709	8.26
687.116	8.45
687.524	8.64
687.931	8.86
688.338	9.09
688.745	9.34
689.152	9.59
689.559	9.88
689.966	10.16
690.373	10.51
690.78	10.86
691.187	11.24
691.593	11.61
692	12.01
692.407	12.44
692.813	12.9
693.22	13.38
693.626	13.86
694.032	14.35
694.439	14.89
694.845	15.39
695.251	15.92
695.657	16.46
696.063	17.03
696.469	17.59
696.875	18.13
697.281	18.66
697.687	19.24
698.093	19.8
698.498	20.39
698.904	20.96
699.31	21.54
699.715	22.13
700.12	22.69
700.526	23.27
700.931	23.83
701.337	24.43
701.742	25.01
702.147	25.55
702.552	26.13
702.957	26.69
703.362	27.23
703.767	27.78
704.172	28.32
704.577	28.89
704.981	29.44
705.386	29.98
705.791	30.53
706.195	31.07
706.6	31.59
707.004	32.11
707.408	32.61
707.813	33.12
708.217	33.62
708.621	34.11
709.025	34.6
709.43	35.08
709.834	35.59
710.237	36.04
710.641	36.54
711.045	37.01
711.449	37.45
711.853	37.93
712.256	38.39
712.66	38.86
713.064	39.31
713.467	39.75
713.87	40.19
714.274	40.63
714.677	41.07
715.08	41.47
715.484	41.92
715.887	42.37
716.29	42.78
716.693	43.18
717.096	43.61
717.499	44.02
717.901	44.4
718.304	44.77
718.707	45.15
719.109	45.54
719.512	45.92
719.915	46.28
720.317	46.62
720.719	46.97
721.122	47.29
721.524	47.6
721.926	47.94
722.328	48.27
722.731	48.6
723.133	48.87
723.535	49.13
723.937	49.42
724.338	49.68
724.74	49.95
725.142	50.16
725.544	50.44
725.945	50.69
726.347	50.94
726.748	51.15
727.15	51.36
727.551	51.61
727.952	51.84
728.354	52.07
728.755	52.3
729.156	52.53
729.557	52.77
729.958	52.94
730.359	53.12
730.76	53.25
731.161	53.44
731.562	53.63
731.962	53.82
732.363	53.97
732.763	54.1
733.164	54.23
733.564	54.33
733.965	54.47
734.365	54.59
734.766	54.72
735.166	54.84
735.566	54.92
735.966	55
736.366	55.07
736.766	55.18
737.166	55.29
737.566	55.35
737.966	55.48
738.365	55.53
738.765	55.64
739.165	55.69
739.564	55.78
739.964	55.87
740.363	55.95
740.763	56
741.162	56.05
741.561	56.12
741.96	56.21
742.36	56.27
742.759	56.33
743.158	56.38
743.557	56.47
743.955	56.56
744.354	56.63
744.753	56.7
745.152	56.75
745.55	56.78
745.949	56.81
746.348	56.86
746.746	56.87
747.144	56.96
747.543	57.02
747.941	57.03
748.339	57.08
748.737	57.12
749.136	57.17
749.534	57.21
749.932	57.22
750.33	57.25
750.727	57.27
751.125	57.32
751.523	57.3
751.921	57.32
752.318	57.35
752.716	57.33
753.113	57.32
753.511	57.29
753.908	57.29
754.305	57.32
754.703	57.32
755.1	57.3
755.497	57.3
755.894	57.31
756.291	57.29
756.688	57.29
757.085	57.27
757.482	57.27
757.878	57.32
758.275	57.31
758.672	57.35
759.068	57.37
759.465	57.4
759.861	57.38
760.258	57.37
760.654	57.38
761.05	57.36
761.447	57.39
761.843	57.38
762.239	57.35
762.635	57.38
763.031	57.37
763.427	57.34
763.822	57.3
764.218	57.3
764.614	57.28
765.01	57.25
765.405	57.23
765.801	57.19
766.196	57.17
766.592	57.16
766.987	57.16
767.382	57.16
767.778	57.19
768.173	57.22
768.568	57.18
768.963	57.21
769.358	57.21
769.753	57.27
770.148	57.29
770.542	57.28
770.937	57.28
771.332	57.23
771.726	57.19
772.121	57.17
772.515	57.16
772.91	57.21
773.304	57.18
773.699	57.19
774.093	57.16
774.487	57.16
774.881	57.19
775.275	57.2
775.669	57.26
776.063	57.25
776.457	57.23
776.851	57.21
777.245	57.18
777.638	57.2
778.032	57.17
778.425	57.2
778.819	57.2
779.212	57.16
779.606	57.14
779.999	57.11
780.392	57.14
780.786	57.16
781.179	57.18
781.572	57.16
781.965	57.14
782.358	57.13
782.751	57.14
783.143	57.13
783.536	57.18
783.929	57.2
784.322	57.22
784.714	57.24
785.107	57.24
785.499	57.26
785.891	57.31
786.284	57.32
786.676	57.34
787.068	57.3
787.46	57.31
787.852	57.29
788.245	57.29
788.636	57.29
789.028	57.26
789.42	57.23
789.812	57.19
790.204	57.14
790.595	57.14
790.987	57.15
791.378	57.17
791.77	57.19
792.161	57.22
792.553	57.19
792.944	57.18
793.335	57.19
793.726	57.21
794.117	57.22
794.508	57.24
794.899	57.25
795.29	57.26
795.681	57.29
796.072	57.27
796.463	57.24
796.853	57.27
797.244	57.29
797.634	57.3
798.025	57.3
798.415	57.34
798.806	57.38
799.196	57.41
799.586	57.38
799.976	57.4
800.366	57.39
800.756	57.4
801.146	57.4
801.536	57.37
801.926	57.36
802.316	57.37
802.706	57.37
803.095	57.35
803.485	57.35
803.874	57.36
804.264	57.36
804.653	57.37
805.043	57.36
805.432	57.32
805.821	57.28
806.21	57.29
806.599	57.34
806.988	57.34
807.377	57.33
807.766	57.29
808.155	57.3
808.544	57.23
808.933	57.23
809.321	57.27
809.71	57.33
810.098	57.33
810.487	57.31
810.875	57.25
811.264	57.23
811.652	57.23
812.04	57.25
812.428	57.26
812.816	57.3
813.204	57.29
813.592	57.27
813.98	57.25
814.368	57.26
814.756	57.3
815.144	57.31
815.531	57.32
815.919	57.31
816.306	57.31
816.694	57.31
817.081	57.3
817.469	57.33
817.856	57.38
818.243	57.41
818.63	57.48
819.017	57.47
819.404	57.49
819.791	57.5
820.178	57.49
820.565	57.5
820.952	57.51
821.339	57.54
821.725	57.54
822.112	57.52
822.498	57.52
822.885	57.52
823.271	57.55
823.657	57.54
824.044	57.53
824.43	57.58
824.816	57.59
825.202	57.56
825.588	57.57
825.974	57.6
826.36	57.59
826.746	57.6
827.132	57.57
827.517	57.55
827.903	57.55
828.289	57.55
828.674	57.54
829.06	57.57
829.445	57.6
829.83	57.58
830.216	57.55
830.601	57.56
830.986	57.53
831.371	57.56
831.756	57.54
832.141	57.56
832.526	57.58
832.911	57.59
833.295	57.57
833.68	57.55
834.065	57.57
834.449	57.56
834.834	57.53
835.218	57.55
835.603	57.55
835.987	57.54
836.371	57.55
836.755	57.54
837.139	57.55
837.524	57.59
837.908	57.57
838.291	57.57
838.675	57.57
839.059	57.57
839.443	57.58
839.827	57.56
840.21	57.61
840.594	57.6
840.977	57.58
841.361	57.57
841.744	57.58
842.127	57.59
842.511	57.57
842.894	57.61
843.277	57.61
843.66	57.63
844.043	57.64
844.426	57.62
844.809	57.63
845.191	57.64
845.574	57.61
845.957	57.55
846.339	57.56
846.722	57.57
847.104	57.56
847.487	57.61
847.869	57.56
848.252	57.57
848.634	57.58
849.016	57.59
849.398	57.59
849.78	57.59
850.162	57.63
850.544	57.64
850.926	57.65
851.307	57.63
851.689	57.56
852.071	57.55
852.452	57.57
852.834	57.53
853.215	57.55
853.597	57.57
853.978	57.58
854.359	57.52
854.741	57.5
855.122	57.49
855.503	57.49
855.884	57.53
856.265	57.53
856.646	57.49
857.026	57.49
857.407	57.42
857.788	57.42
858.169	57.41
858.549	57.45
858.93	57.45
859.31	57.44
859.69	57.4
860.071	57.39
860.451	57.41
860.831	57.42
861.211	57.43
861.591	57.48
861.971	57.46
862.351	57.48
862.731	57.45
863.111	57.46
863.491	57.5
863.87	57.53
864.25	57.56
864.629	57.55
865.009	57.52
865.388	57.51
865.768	57.51
866.147	57.52
866.526	57.51
866.905	57.52
867.284	57.52
867.663	57.51
868.042	57.52
868.421	57.48
868.8	57.49
869.179	57.53
869.558	57.54
869.936	57.53
870.315	57.53
870.693	57.53
871.072	57.52
871.45	57.51
871.828	57.49
872.207	57.51
872.585	57.53
872.963	57.48
873.341	57.47
873.719	57.43
874.097	57.44
874.475	57.43
874.853	57.44
875.23	57.45
875.608	57.48
875.986	57.47
876.363	57.46
876.741	57.46
877.118	57.49
877.495	57.49
877.873	57.5
878.25	57.5
878.627	57.48
879.004	57.5
879.381	57.49
879.758	57.41
880.135	57.4
880.512	57.4
880.889	57.42
881.265	57.41
881.642	57.4
882.019	57.43
882.395	57.42
882.772	57.42
883.148	57.39
883.524	57.41
883.901	57.43
884.277	57.45
884.653	57.47
885.029	57.47
885.405	57.49
885.781	57.47
886.157	57.44
886.532	57.45
886.908	57.48
887.284	57.49
887.659	57.49
888.035	57.5
888.411	57.48
888.786	57.43
889.161	57.42
889.537	57.42
889.912	57.42
890.287	57.41
890.662	57.4
891.037	57.38
891.412	57.36
891.787	57.34
892.162	57.34
892.536	57.35
892.911	57.34
893.286	57.31
893.66	57.29
894.035	57.31
894.409	57.31
894.784	57.28
895.158	57.26
895.532	57.24
895.906	57.25
896.281	57.23
896.655	57.21
897.029	57.22
897.402	57.26
897.776	57.25
898.15	57.23
898.524	57.24
898.898	57.22
899.271	57.25
899.645	57.27
900.018	57.25
900.392	57.29
900.765	57.31
901.138	57.31
901.511	57.29
901.884	57.29
902.258	57.29
902.631	57.3
903.003	57.33
903.376	57.3
903.749	57.3
904.122	57.31
904.495	57.3
904.867	57.28
905.24	57.25
905.612	57.23
905.985	57.19
906.357	57.16
906.729	57.11
907.102	57.08
907.474	57.08
907.846	57.02
908.218	56.99
908.59	56.96
908.962	56.93
909.334	56.95
909.705	56.93
910.077	56.93
910.449	56.93
910.82	56.92
911.192	56.94
911.563	56.92
911.935	56.92
912.306	56.95
912.677	56.92
913.048	56.9
913.419	56.87
913.79	56.87
914.161	56.86
914.532	56.88
914.903	56.87
915.274	56.84
915.645	56.87
916.015	56.9
916.386	56.87
916.756	56.85
917.127	56.9
917.497	56.9
917.868	56.89
918.238	56.93
918.608	56.89
918.978	56.88
919.348	56.87
919.718	56.82
920.088	56.82
920.458	56.85
920.828	56.85
921.198	56.82
921.567	56.81
921.937	56.84
922.306	56.81
922.676	56.83
923.045	56.83
923.415	56.84
923.784	56.84
924.153	56.83
924.522	56.81
924.891	56.8
925.26	56.78
925.629	56.78
925.998	56.78
926.367	56.74
926.736	56.71
927.104	56.76
927.473	56.81
927.842	56.79
928.21	56.79
928.578	56.77
928.947	56.8
929.315	56.84
929.683	56.86
930.051	56.83
930.42	56.83
930.788	56.86
931.156	56.81
931.523	56.75
931.891	56.72
932.259	56.67
932.627	56.66
932.994	56.63
933.362	56.53
933.729	56.46
934.097	56.44
934.464	56.46
934.831	56.44
935.199	56.37
935.566	56.34
935.933	56.35
936.3	56.29
936.667	56.18
937.034	56.11
937.401	56.16
937.767	56.2
938.134	56.14
938.501	56
938.867	55.99
939.234	56.04
939.6	56.07
939.967	56.07
940.333	56.2
940.699	56.39
941.065	56.53
941.431	56.5
941.798	56.54
942.163	56.69
942.529	56.77
942.895	56.78
943.261	56.78
943.627	56.82
943.992	56.92
944.358	56.94
944.723	56.85
945.089	56.82
945.454	56.88
945.82	56.89
946.185	56.95
946.55	57.03
946.915	57.09
947.28	57.11
947.645	57.11
948.01	57.11
948.375	57.07
948.74	57.04
949.104	57.11
949.469	57.05
949.834	56.92
950.198	56.8
950.562	56.67
950.927	56.59
951.291	56.54
951.655	56.5
952.02	56.38
952.384	56.37
952.748	56.38
953.112	56.28
953.476	56.24
953.839	56.29
954.203	56.25
954.567	56.31
954.931	56.33
955.294	56.34
955.658	56.26
956.021	56.29
956.385	56.25
956.748	56.2
957.111	56.16
957.474	56.16
957.837	56.13
958.2	56.06
958.563	56.04
958.926	55.96
959.289	55.9
959.652	55.95
960.015	55.86
960.377	55.84
960.74	55.81
961.102	55.75
961.465	55.74
961.827	55.59
962.189	55.61
962.552	55.54
962.914	55.5
963.276	55.46
963.638	55.37
964	55.43
964.362	55.42
964.724	55.49
965.085	55.54
965.447	55.49
965.809	55.6
966.17	55.65
966.532	55.7
966.893	55.72
967.255	55.7
967.616	55.81
967.977	55.83
968.338	55.79
968.699	55.76
969.061	55.68
969.421	55.69
969.782	55.66
970.143	55.64
970.504	55.62
970.865	55.59
971.225	55.6
971.586	55.55
971.946	55.46
972.307	55.45
972.667	55.49
973.027	55.56
973.388	55.49
973.748	55.56
974.108	55.51
974.468	55.46
974.828	55.51
975.188	55.6
975.548	55.65
975.907	55.71
976.267	55.78
976.627	55.72
976.986	55.72
977.346	55.76
977.705	55.75
978.064	55.77
978.424	55.8
978.783	55.84
979.142	55.76
979.501	55.68
979.86	55.67
980.219	55.59
980.578	55.55
980.937	55.57
981.296	55.65
981.654	55.71
982.013	55.75
982.371	55.78
982.73	55.68
983.088	55.64
983.447	55.63
983.805	55.54
984.163	55.6
984.521	55.48
984.879	55.54
985.237	55.55
985.595	55.52
985.953	55.51
986.311	55.55
986.669	55.57
987.026	55.72
987.384	55.71
987.741	55.86
988.099	55.92
988.456	56.06
988.814	55.96
989.171	55.93
989.528	55.92
989.885	55.89
990.242	55.97
990.599	56.07
990.956	55.95
991.313	55.98
991.67	56
992.027	55.96
992.383	56.06
992.74	56.08
993.096	56.11
993.453	56.05
993.809	56.19
994.165	56.08
994.522	55.96
994.878	56.04
995.234	56.08
995.59	56
995.946	55.99
996.302	55.93
996.658	55.97
997.013	56.06
997.369	55.99
997.725	55.96
998.08	56.05
998.436	56.2
998.791	56.03
999.147	56
999.502	55.96
999.857	55.98
1000.212	55.95
1000.567	55.87
1000.922	55.79
1001.277	55.86
1001.632	55.84
1001.987	55.73
1002.342	55.79
1002.696	55.95
1003.051	55.91
1003.406	56.03
1003.76	56
1004.114	56.17
1004.469	56.09
1004.823	56.04
1005.177	56.07
1005.531	56.03
1005.885	56.16
1006.239	56.01
1006.593	55.94
1006.947	56.01
1007.301	55.99
1007.655	56.18
1008.008	56.08
1008.362	56.29
1008.715	56.4
1009.069	56.47
1009.422	56.46
1009.776	56.42
1010.129	56.4
1010.482	56.77
1010.835	56.95
1011.188	57.01
1011.541	56.78
1011.894	56.8
1012.247	56.71
1012.6	56.71
1012.952	56.75
1013.305	56.85
1013.657	56.96
1014.01	57.05
1014.362	56.76
1014.715	56.85
1015.067	56.98
1015.419	57.33
1015.771	57.63
1016.123	57.71
1016.475	58.13
1016.827	58.27
1017.179	58.4
1017.531	58.22
1017.883	58.38
1018.234	58.4
1018.586	58.17
1018.938	57.98
1019.289	57.76
1019.64	57.9
1019.992	58.08
1020.343	57.76
1020.694	57.59
1021.045	57.66
1021.396	57.61
1021.747	57.45
1022.098	57.73
1022.449	57.95
1022.8	58.05
1023.151	58.24
1023.501	57.95
1023.852	57.98
1024.202	57.77
1024.553	57.84
1024.903	57.67
1025.253	58.2
1025.604	58.45
1025.954	58.55
1026.304	59.17
1026.654	59.63
1027.004	59.92
1027.354	60.18
1027.703	60.09
1028.053	60.42
1028.403	60.76
1028.753	61.26
1029.102	61.05
1029.452	61.2
1029.801	61.05
1030.15	60.65
1030.499	60.42
897.758	299.7
901.051	314.32
904.343	319.73
907.636	316.58
910.928	309.52
914.22	312.04
917.511	302.78
920.803	295.8
924.094	285.27
927.384	288.55
930.675	279.68
933.965	277.61
937.255	275.2
940.544	262.04
943.834	250.83
947.123	248.88
950.411	239.87
953.7	237.73
956.988	229.24
960.276	219.84
963.563	218.41
966.851	210.03
970.138	206.71
973.424	193.42
976.711	191.02
979.997	187.62
983.283	182.65
986.568	176.75
989.853	172.61
993.138	169.11
996.423	165.25
999.708	160.83
1002.992	160.54
1006.275	156.96
1009.559	156.69
1012.842	152.68
1016.125	145.65
1019.408	144.14
1022.69	143.85
1025.972	144.09
1029.254	140.52
1032.536	140.03
1035.817	136.86
1039.098	135.11
1042.379	134.17
1045.659	132.2
1048.939	130.49
1052.219	129.97
1055.498	129.64
1058.778	127.45
1062.057	125.61
1065.335	124.98
1068.614	122.73
1071.892	121.23
1075.17	119.01
1078.447	117.75
1081.724	116.77
1085.001	116.41
1088.278	115.38
1091.554	113.58
1094.83	114.38
1098.106	111.79
1101.382	112.37
1104.657	111.61
1107.932	110.7
1111.206	110.7
1114.481	109.72
1117.755	109.19
1121.029	108.18
1124.302	107.08
1127.575	106.87
1130.848	105.54
1134.121	104.35
1137.393	102.72
1140.665	102.3
1143.937	101.63
1147.208	100.41
1150.48	99.55
1153.75	97.69
1157.021	98.04
1160.291	98.54
1163.561	97.15
1166.831	97.02
1170.101	97.32
1173.37	96.85
1176.639	96.48
1179.907	96.63
1183.176	96.94
1186.444	96.71
1189.711	96.69
1192.979	96.95
1196.246	97.56
1199.513	97.13
1202.78	97.27
1206.046	97.51
1209.312	98.63
1212.578	98.92
1215.843	100.63
1219.108	100.31
1222.373	101.75
1225.638	103.58
1228.902	105.04
1232.166	106.75
1235.43	107.01
1238.693	109.6
1241.956	110.45
1245.219	111.47
1248.482	113.68
1251.744	112.12
1255.006	113.91
1258.268	110.44
1261.529	110.21
1264.79	107.98
1268.051	105.37
1271.312	106.35
1274.572	103.73
1277.832	102.95
1281.092	102.31
1284.351	100
1287.61	100.13
1290.869	99.14
1294.128	99.73
1297.386	99.23
1300.644	99.24
1303.902	99.35
1307.159	98.48
1310.416	98.93
1313.673	99.82
1316.93	100.73
1320.186	101.46
1323.442	101.26
1326.697	102.64
1329.953	102.72
1333.208	104.88
1336.463	106.59
1339.717	108.36
1342.972	112.41
1346.226	114.77
1349.479	114.51
1352.733	117.44
1355.986	120.21
1359.238	122.76
1362.491	123.11
1365.743	126.25
1368.995	127.29
1372.247	128.63
1375.498	127.62
1378.749	130.24
1382	129.08
1385.251	129.1
1388.501	126.69
1391.751	126.54
1395	126.12
1398.25	126.45
1401.499	125.58
1404.748	124.23
1407.996	120.65
1411.244	120.76
1414.492	118.36
1417.74	114.83
1420.987	111.35
1424.234	110.12
1427.481	106.44
1430.728	103.39
1433.974	99.89
1437.22	96.97
1440.465	93.95
1443.711	90.7
1446.956	88.35
1450.201	85.63
1453.445	82.61
1456.689	81.51
1459.933	79.2
1463.177	75.51
1466.42	74.1
1469.663	72.55
1472.906	70.71
1476.148	69.05
1479.391	68.53
1482.633	67.23
1485.874	66.87
1489.115	66.48
1492.356	64.82
1495.597	64.4
1498.838	65.45
1502.078	65.65
1505.318	65.44
1508.557	65.45
1511.797	65.47
1515.036	65.94
1518.274	65.81
1521.513	64.55
1524.751	64.86
1527.989	66
1531.227	66.02
1534.464	65.68
1537.701	65.23
1540.938	65.17
1544.174	64.89
1547.41	65.38
1550.646	65.24
1553.882	65.69
1557.117	66.64
1560.352	66.12
1563.587	65.72
1566.821	65.65
1570.055	65.9
1573.289	66.18
1576.523	66.69
1579.756	67
1582.989	67.02
1586.222	66.51
1589.454	66.38
1592.686	65.85
1595.918	66.26
1599.15	66.5
1602.381	66.72
1605.612	66.91
1608.843	66.74
1612.073	66.84
1615.303	67.27
1618.533	67.08
1621.762	67.29
1624.992	67.15
1628.221	67.5
1631.449	67.71
1634.678	68.04
1637.906	68.25
1641.134	68.05
1644.361	68.11
1647.588	68.04
1650.815	67.9
1654.042	68.43
1657.269	68.51
1660.495	69.13
1663.72	68.95
1666.946	68.86
1670.171	68.93
1673.396	68.8
1676.621	69.17
1679.845	69.73
1683.069	69.23
1686.293	68.67
1689.517	68.85
1692.74	68.98
1695.963	69.03
1699.185	69.32
1702.408	69.44
1705.63	68.98
1708.852	70.13
1712.073	69.03
1715.294	68.86
1718.515	69.19
1721.736	69.76
1724.956	69.36
1728.176	69.24
1731.396	69.24
1734.616	69.18
1737.835	69.2
1741.054	68.64
1744.272	67.73
1747.491	68.66
1750.709	68.83
1753.927	68.84
1757.144	68.99
1760.361	68.52
1763.578	68.81
1766.795	69.08
1770.011	68.9
1773.227	69.18
1776.443	69.98
1779.658	69.87
1782.874	69.54
1786.089	69.2
1789.303	69.52
1792.518	70.26
1795.732	70.8
1798.945	71.83
1802.159	71.15
1805.372	72.01
1808.585	71.91
1811.797	72.34
1815.01	72.71
1818.222	73.35
1821.434	73.89
1824.645	74.01
1827.856	74.17
1831.067	74.07
1834.278	74.1
1837.488	74.9
1840.698	74.91
1843.908	75.08
1847.117	75.11
1850.326	75.17
1853.535	75.51
1856.744	75.61
1859.952	75.74
1863.16	75.01
1866.368	74.99
1869.575	73.93
1872.782	74.05
1875.989	72.36
1879.196	71.04
1882.402	69.89
1885.608	70.07
1888.814	68.8
1892.019	67.45
1895.224	66.08
1898.429	65.64
1901.634	64.91
1904.838	64.9
1908.042	63.83
1911.246	63.8
1914.449	64.16
1917.652	64.68
1920.855	64.04
1924.058	62.86
1927.26	63.01
1930.462	63.34
1933.664	63.88
1936.865	64.01
1940.066	63.16
1943.267	62.32
1946.467	63.45
1949.668	62.93
1952.868	63.2
1956.067	63.39
1959.267	65.54
1962.466	65.68
1965.665	66.12
1968.863	66.12
1972.061	66.44
1975.259	68.01
1978.457	69.36
1981.654	69.83
1984.852	71.09
1988.048	71.6
1991.245	72.39
1994.441	73.83
1997.637	75.49
2000.833	77.51
2004.028	78.03
2007.223	80.8
2010.418	83.04
2013.613	86.3
2016.807	88.86
2020.001	90.09
2023.194	93.49
2026.388	96.16
2029.581	100.11
2032.774	103.08
2035.966	105.11
2039.158	109.72
2042.35	111.05
2045.542	112.66
2048.733	118.3
2051.924	119.36
2055.115	120.2
2058.306	120.68
2061.496	123.53
2064.686	123.16
2067.875	121.64
2071.065	124.53
2074.254	123.79
2077.442	128.3
2080.631	129.42
2083.819	128.48
2087.007	128.66
2090.195	134.39
2093.382	134.18
2096.569	133.8
2099.756	137.77
2102.942	141.11
2106.128	142.79
2109.314	144.58
2112.5	143.85
2115.685	142.51
2118.87	142.77
2122.055	145.73
2125.239	145.8
2128.424	149.42
2131.608	148.84
2134.791	148.4
2137.974	148.88
2141.157	151.77
2144.34	152.31
2147.523	154.46
2150.705	158.14
2153.887	156.93
2157.068	159.65
2160.25	160.46
2163.431	160.97
2166.611	166.22
2169.792	168.43
2172.972	173.25
2176.152	170.95
2179.331	174.53
2182.511	173.05
2185.69	175.53
2188.868	179.29
2192.047	183.76
2195.225	188.73
2198.403	190.12
2201.58	185.92
2204.758	191.44
2207.935	190.42
2211.111	195.24
2214.288	197.49
2217.464	200.83
2220.64	201.97
2223.815	204.24
2226.991	201.86
2230.166	202.48
2233.34	208.7
2236.515	212.48
2239.689	207.13
2242.863	211.16
2246.036	209.18
2249.209	212.6
2252.382	216.23
2255.555	222.54
2258.727	225.54
2261.9	230.27
2265.071	233.59
2268.243	233.56
2271.414	238.82
2274.585	245.39
2277.756	247.55
2280.926	250.98
2284.096	253.6
2287.266	250.58
2290.436	248
2293.605	251.22
2296.774	260.24
2299.942	258.25
2303.111	264.19
2306.279	274.88
2309.447	274.61
2312.614	274.97
2315.781	286.01
2318.948	287.82
2322.115	292.68
2325.281	301.97
2328.447	304.95
2331.613	306.1
2334.779	313.57
2337.944	313.02
2341.109	314.56
2344.274	321.61
2347.438	329.41
2350.602	333.78
2353.766	350.25
2356.929	353.35
2360.092	366.2
2363.255	362.17
2366.418	367.55
2369.58	369.93
2372.742	381.15
2375.904	379.76
2379.066	387.29
2382.227	408.78
2385.388	402.82
2388.548	389.69
2391.709	386.71
2394.869	390.8
2398.029	400.6
2401.188	399.44
2404.347	411
2407.506	413.31
2410.665	406.87
2413.823	402.7
2416.981	400.21
2420.139	389.01
2423.296	409.33
2426.453	439.64
2429.61	423.13
2432.767	442
2435.923	455.21
2439.079	445.18
2442.235	453.2
2445.391	457.39
2448.546	463.24
2451.701	480.19
2454.855	508.24
2458.009	465.77
2461.163	469.21
2464.317	468.39
2467.471	459.16
2470.624	474.95
2473.777	469.66
2476.929	462.81
2480.082	486.23
2483.234	507.91
2486.385	521.69
2489.537	535.56
2492.688	586.67
2495.839	571.02
2498.989	593.98
2502.14	599.91
2505.29	571.11
2508.439	630.35
2511.589	643.04
2514.738	625.52
2517.887	620.37
2521.035	585.55
2524.183	574.05
2527.331	565.97
2530.479	555.75
2533.627	567.54
