Data from c_1_hir_il_4n_023_Splice17_18.txt Node
Date: Sat Feb 29 13:19:49 EST 2020
User: sa697716
Spectrometer: FLMS03696
Trigger mode: 0
Integration Time (sec): 3.180400E-1
Scans to average: 20
Electric dark correction enabled: true
Nonlinearity correction enabled: true
Boxcar width: 5
XAxis mode: Wavelengths
Number of Pixels in Spectrum: 2048
>>>>>Begin Spectral Data<<<<<
187.83	32.72
188.298	36.45
188.766	25.23
189.233	27.53
189.701	40.7
190.169	43.85
190.636	55.05
191.104	40.85
191.571	155.62
192.039	190.04
192.506	-284.16
192.974	3484.45
193.441	-403.39
193.908	59.65
194.375	49.45
194.842	173.22
195.31	82.7
195.777	107.58
196.244	47.19
196.711	42.23
197.177	34.91
197.644	34.67
198.111	33.85
198.578	34.49
199.045	35.12
199.511	35.55
199.978	35.6
200.445	36.09
200.911	36.54
201.378	36.47
201.844	36.55
202.31	37.58
202.777	38.22
203.243	38.54
203.709	38.66
204.176	38.28
204.642	37.86
205.108	37.61
205.574	37.33
206.04	36.89
206.506	36.4
206.972	36.52
207.438	35.65
207.903	35.39
208.369	34.89
208.835	34.17
209.301	33.66
209.766	33.26
210.232	32.67
210.697	32.14
211.163	31.65
211.628	31.27
212.094	30.76
212.559	30.57
213.024	29.59
213.49	28.97
213.955	28.48
214.42	27.83
214.885	27.14
215.35	26.52
215.815	25.44
216.28	24.44
216.745	23.28
217.21	21.79
217.675	20.56
218.14	19.49
218.604	18.52
219.069	17.67
219.534	16.91
219.998	16.28
220.463	15.82
220.927	15.42
221.392	14.97
221.856	14.57
222.32	14.26
222.785	13.96
223.249	13.69
223.713	13.5
224.177	13.24
224.642	13.05
225.106	12.84
225.57	12.59
226.034	12.36
226.497	12.16
226.961	11.96
227.425	11.74
227.889	11.56
228.353	11.4
228.816	11.22
229.28	11.08
229.744	10.93
230.207	10.78
230.671	10.65
231.134	10.5
231.597	10.36
232.061	10.24
232.524	10.15
232.987	10.04
233.45	9.9
233.914	9.78
234.377	9.67
234.84	9.57
235.303	9.48
235.766	9.39
236.229	9.31
236.691	9.25
237.154	9.17
237.617	9.08
238.08	8.99
238.542	8.91
239.005	8.83
239.468	8.75
239.93	8.66
240.393	8.6
240.855	8.49
241.317	8.42
241.78	8.34
242.242	8.26
242.704	8.19
243.166	8.14
243.629	8.07
244.091	8.02
244.553	7.95
245.015	7.9
245.477	7.83
245.939	7.78
246.4	7.71
246.862	7.65
247.324	7.61
247.786	7.55
248.247	7.48
248.709	7.44
249.17	7.39
249.632	7.33
250.093	7.26
250.555	7.21
251.016	7.16
251.477	7.1
251.939	7.06
252.4	7
252.861	6.95
253.322	6.89
253.783	6.84
254.244	6.79
254.705	6.75
255.166	6.73
255.627	6.69
256.088	6.64
256.549	6.61
257.009	6.57
257.47	6.53
257.931	6.49
258.391	6.45
258.852	6.41
259.312	6.37
259.773	6.33
260.233	6.28
260.694	6.24
261.154	6.2
261.614	6.16
262.074	6.13
262.534	6.08
262.994	6.05
263.455	6.02
263.915	5.99
264.374	5.96
264.834	5.93
265.294	5.89
265.754	5.85
266.214	5.82
266.673	5.79
267.133	5.77
267.593	5.75
268.052	5.71
268.512	5.68
268.971	5.66
269.431	5.64
269.89	5.61
270.349	5.6
270.809	5.59
271.268	5.58
271.727	5.56
272.186	5.54
272.645	5.52
273.104	5.52
273.563	5.5
274.022	5.48
274.481	5.46
274.94	5.44
275.399	5.42
275.857	5.4
276.316	5.37
276.775	5.35
277.233	5.33
277.692	5.31
278.15	5.28
278.609	5.25
279.067	5.22
279.525	5.2
279.984	5.19
280.442	5.17
280.9	5.16
281.358	5.15
281.816	5.13
282.274	5.11
282.732	5.09
283.19	5.08
283.648	5.07
284.106	5.06
284.564	5.06
285.021	5.04
285.479	5.02
285.937	5.01
286.394	4.99
286.852	4.97
287.309	4.97
287.767	4.95
288.224	4.94
288.682	4.92
289.139	4.91
289.596	4.88
290.053	4.86
290.511	4.84
290.968	4.82
291.425	4.79
291.882	4.77
292.339	4.75
292.796	4.73
293.252	4.71
293.709	4.69
294.166	4.67
294.623	4.65
295.079	4.64
295.536	4.63
295.992	4.61
296.449	4.6
296.905	4.59
297.362	4.57
297.818	4.56
298.274	4.55
298.731	4.54
299.187	4.54
299.643	4.52
300.099	4.51
300.555	4.49
301.011	4.48
301.467	4.47
301.923	4.46
302.379	4.44
302.835	4.44
303.291	4.42
303.746	4.41
304.202	4.39
304.658	4.38
305.113	4.38
305.569	4.37
306.024	4.36
306.479	4.36
306.935	4.34
307.39	4.34
307.845	4.33
308.301	4.33
308.756	4.33
309.211	4.33
309.666	4.32
310.121	4.31
310.576	4.3
311.031	4.29
311.486	4.29
311.94	4.29
312.395	4.29
312.85	4.29
313.305	4.28
313.759	4.28
314.214	4.28
314.668	4.28
315.123	4.28
315.577	4.27
316.032	4.27
316.486	4.26
316.94	4.25
317.394	4.24
317.849	4.23
318.303	4.22
318.757	4.2
319.211	4.18
319.665	4.17
320.119	4.15
320.572	4.14
321.026	4.13
321.48	4.12
321.934	4.12
322.387	4.11
322.841	4.11
323.295	4.09
323.748	4.09
324.202	4.09
324.655	4.08
325.108	4.06
325.562	4.05
326.015	4.04
326.468	4.03
326.921	4.02
327.374	4.01
327.827	4.01
328.28	4
328.733	3.99
329.186	3.99
329.639	3.98
330.092	3.98
330.545	3.98
330.997	3.98
331.45	3.97
331.903	3.96
332.355	3.96
332.808	3.95
333.26	3.95
333.713	3.95
334.165	3.95
334.617	3.95
335.069	3.96
335.522	3.96
335.974	3.96
336.426	3.96
336.878	3.96
337.33	3.95
337.782	3.95
338.234	3.95
338.686	3.94
339.137	3.95
339.589	3.94
340.041	3.93
340.493	3.9
340.944	3.89
341.396	3.88
341.847	3.87
342.299	3.85
342.75	3.84
343.201	3.83
343.653	3.82
344.104	3.81
344.555	3.8
345.006	3.78
345.457	3.79
345.908	3.78
346.359	3.78
346.81	3.78
347.261	3.78
347.712	3.77
348.163	3.77
348.613	3.75
349.064	3.74
349.515	3.72
349.965	3.71
350.416	3.71
350.866	3.7
351.317	3.69
351.767	3.68
352.217	3.67
352.668	3.66
353.118	3.66
353.568	3.66
354.018	3.67
354.468	3.67
354.918	3.68
355.368	3.68
355.818	3.68
356.268	3.69
356.718	3.69
357.168	3.69
357.617	3.69
358.067	3.68
358.517	3.69
358.966	3.68
359.416	3.68
359.865	3.67
360.315	3.66
360.764	3.66
361.213	3.64
361.663	3.64
362.112	3.64
362.561	3.65
363.01	3.65
363.459	3.65
363.908	3.64
364.357	3.64
364.806	3.65
365.255	3.66
365.703	3.65
366.152	3.66
366.601	3.65
367.05	3.65
367.498	3.64
367.947	3.63
368.395	3.64
368.844	3.65
369.292	3.64
369.74	3.65
370.189	3.64
370.637	3.65
371.085	3.66
371.533	3.67
371.981	3.69
372.429	3.69
372.877	3.7
373.325	3.69
373.773	3.69
374.221	3.7
374.669	3.7
375.116	3.71
375.564	3.72
376.012	3.72
376.459	3.72
376.907	3.72
377.354	3.73
377.801	3.74
378.249	3.77
378.696	3.79
379.143	3.8
379.591	3.81
380.038	3.82
380.485	3.84
380.932	3.86
381.379	3.86
381.826	3.89
382.273	3.9
382.72	3.93
383.166	3.94
383.613	3.95
384.06	3.98
384.506	4
384.953	4.01
385.4	4.04
385.846	4.03
386.292	4.05
386.739	4.06
387.185	4.08
387.631	4.09
388.078	4.1
388.524	4.09
388.97	4.1
389.416	4.11
389.862	4.12
390.308	4.13
390.754	4.15
391.2	4.18
391.645	4.2
392.091	4.2
392.537	4.22
392.983	4.24
393.428	4.26
393.874	4.29
394.319	4.3
394.765	4.32
395.21	4.32
395.655	4.34
396.101	4.33
396.546	4.34
396.991	4.35
397.436	4.34
397.881	4.35
398.326	4.37
398.771	4.38
399.216	4.39
399.661	4.4
400.106	4.42
400.551	4.43
400.995	4.43
401.44	4.42
401.885	4.44
402.329	4.46
402.774	4.44
403.218	4.45
403.663	4.45
404.107	4.45
404.551	4.45
404.995	4.45
405.44	4.44
405.884	4.45
406.328	4.46
406.772	4.47
407.216	4.48
407.66	4.5
408.104	4.49
408.547	4.49
408.991	4.49
409.435	4.51
409.879	4.51
410.322	4.52
410.766	4.53
411.209	4.53
411.653	4.51
412.096	4.5
412.54	4.5
412.983	4.5
413.426	4.51
413.869	4.51
414.312	4.51
414.756	4.53
415.199	4.53
415.642	4.55
416.085	4.56
416.527	4.57
416.97	4.6
417.413	4.6
417.856	4.6
418.298	4.58
418.741	4.58
419.184	4.56
419.626	4.54
420.069	4.55
420.511	4.53
420.953	4.52
421.396	4.53
421.838	4.53
422.28	4.55
422.722	4.55
423.164	4.55
423.606	4.56
424.048	4.57
424.49	4.58
424.932	4.58
425.374	4.58
425.816	4.56
426.258	4.55
426.699	4.52
427.141	4.49
427.582	4.5
428.024	4.51
428.465	4.51
428.907	4.51
429.348	4.5
429.789	4.49
430.231	4.5
430.672	4.51
431.113	4.53
431.554	4.54
431.995	4.54
432.436	4.53
432.877	4.52
433.318	4.52
433.759	4.53
434.2	4.55
434.64	4.57
435.081	4.54
435.522	4.55
435.962	4.56
436.403	4.58
436.843	4.59
437.284	4.62
437.724	4.65
438.164	4.67
438.604	4.68
439.045	4.66
439.485	4.65
439.925	4.67
440.365	4.66
440.805	4.65
441.245	4.63
441.685	4.65
442.125	4.63
442.564	4.62
443.004	4.62
443.444	4.63
443.883	4.65
444.323	4.65
444.762	4.67
445.202	4.71
445.641	4.73
446.081	4.76
446.52	4.75
446.959	4.78
447.398	4.79
447.837	4.82
448.276	4.82
448.716	4.84
449.154	4.87
449.593	4.87
450.032	4.86
450.471	4.87
450.91	4.87
451.349	4.89
451.787	4.87
452.226	4.84
452.664	4.81
453.103	4.81
453.541	4.82
453.98	4.82
454.418	4.8
454.856	4.78
455.295	4.76
455.733	4.75
456.171	4.73
456.609	4.73
457.047	4.73
457.485	4.73
457.923	4.72
458.361	4.7
458.798	4.7
459.236	4.7
459.674	4.72
460.111	4.73
460.549	4.72
460.987	4.73
461.424	4.71
461.862	4.72
462.299	4.72
462.736	4.72
463.173	4.71
463.611	4.71
464.048	4.72
464.485	4.71
464.922	4.7
465.359	4.72
465.796	4.7
466.233	4.71
466.67	4.72
467.106	4.71
467.543	4.72
467.98	4.74
468.416	4.75
468.853	4.73
469.29	4.75
469.726	4.76
470.162	4.73
470.599	4.74
471.035	4.75
471.471	4.74
471.907	4.74
472.344	4.74
472.78	4.73
473.216	4.72
473.652	4.71
474.088	4.7
474.523	4.69
474.959	4.67
475.395	4.67
475.831	4.66
476.266	4.65
476.702	4.62
477.138	4.61
477.573	4.6
478.008	4.6
478.444	4.58
478.879	4.56
479.314	4.54
479.75	4.55
480.185	4.53
480.62	4.53
481.055	4.52
481.49	4.52
481.925	4.51
482.36	4.49
482.795	4.49
483.229	4.49
483.664	4.51
484.099	4.51
484.534	4.51
484.968	4.5
485.403	4.49
485.837	4.49
486.271	4.49
486.706	4.48
487.14	4.49
487.574	4.5
488.009	4.5
488.443	4.5
488.877	4.51
489.311	4.51
489.745	4.53
490.179	4.54
490.613	4.56
491.046	4.58
491.48	4.62
491.914	4.64
492.348	4.65
492.781	4.69
493.215	4.71
493.648	4.74
494.082	4.79
494.515	4.82
494.948	4.85
495.382	4.89
495.815	4.92
496.248	4.95
496.681	4.99
497.114	5.04
497.547	5.07
497.98	5.13
498.413	5.17
498.846	5.22
499.279	5.27
499.711	5.33
500.144	5.39
500.577	5.47
501.009	5.52
501.442	5.61
501.874	5.67
502.306	5.76
502.739	5.84
503.171	5.93
503.603	6.03
504.036	6.14
504.468	6.25
504.9	6.38
505.332	6.49
505.764	6.63
506.196	6.77
506.627	6.92
507.059	7.05
507.491	7.22
507.923	7.39
508.354	7.54
508.786	7.72
509.217	7.88
509.649	8.07
510.08	8.26
510.512	8.45
510.943	8.64
511.374	8.85
511.805	9.07
512.237	9.28
512.668	9.49
513.099	9.73
513.53	9.97
513.961	10.23
514.391	10.46
514.822	10.7
515.253	10.94
515.684	11.2
516.114	11.47
516.545	11.74
516.975	12.02
517.406	12.3
517.836	12.57
518.267	12.86
518.697	13.12
519.127	13.42
519.558	13.71
519.988	14
520.418	14.28
520.848	14.57
521.278	14.85
521.708	15.09
522.138	15.37
522.567	15.63
522.997	15.87
523.427	16.13
523.857	16.37
524.286	16.64
524.716	16.87
525.145	17.12
525.575	17.34
526.004	17.54
526.433	17.79
526.863	17.98
527.292	18.18
527.721	18.38
528.15	18.55
528.579	18.73
529.008	18.88
529.437	19.05
529.866	19.19
530.295	19.34
530.724	19.5
531.152	19.62
531.581	19.74
532.01	19.85
532.438	19.99
532.867	20.1
533.295	20.2
533.723	20.3
534.152	20.38
534.58	20.47
535.008	20.54
535.436	20.61
535.865	20.69
536.293	20.78
536.721	20.85
537.149	20.89
537.576	20.93
538.004	20.98
538.432	21.02
538.86	21.07
539.287	21.11
539.715	21.14
540.143	21.17
540.57	21.21
540.998	21.24
541.425	21.27
541.852	21.3
542.28	21.34
542.707	21.37
543.134	21.4
543.561	21.41
543.988	21.44
544.415	21.46
544.842	21.49
545.269	21.5
545.696	21.52
546.123	21.53
546.549	21.55
546.976	21.58
547.403	21.6
547.829	21.61
548.256	21.63
548.682	21.65
549.108	21.68
549.535	21.69
549.961	21.69
550.387	21.67
550.813	21.66
551.24	21.65
551.666	21.65
552.092	21.63
552.518	21.61
552.943	21.58
553.369	21.55
553.795	21.5
554.221	21.46
554.646	21.43
555.072	21.4
555.498	21.37
555.923	21.32
556.349	21.24
556.774	21.18
557.199	21.1
557.625	21.03
558.05	20.95
558.475	20.85
558.9	20.74
559.325	20.63
559.75	20.53
560.175	20.4
560.6	20.28
561.025	20.13
561.449	19.99
561.874	19.87
562.299	19.72
562.723	19.58
563.148	19.45
563.572	19.31
563.997	19.17
564.421	19.01
564.846	18.85
565.27	18.68
565.694	18.54
566.118	18.4
566.542	18.23
566.966	18.08
567.39	17.91
567.814	17.74
568.238	17.55
568.662	17.37
569.086	17.2
569.509	17.05
569.933	16.89
570.357	16.7
570.78	16.53
571.204	16.37
571.627	16.2
572.05	16.04
572.474	15.89
572.897	15.75
573.32	15.61
573.743	15.46
574.166	15.3
574.589	15.15
575.012	15.03
575.435	14.9
575.858	14.76
576.281	14.65
576.704	14.54
577.126	14.41
577.549	14.3
577.972	14.18
578.394	14.08
578.817	13.99
579.239	13.9
579.661	13.82
580.084	13.72
580.506	13.64
580.928	13.54
581.35	13.45
581.772	13.38
582.194	13.3
582.616	13.24
583.038	13.17
583.46	13.11
583.882	13.04
584.303	12.95
584.725	12.87
585.147	12.78
585.568	12.71
585.99	12.64
586.411	12.58
586.833	12.52
587.254	12.45
587.675	12.39
588.096	12.32
588.518	12.26
588.939	12.22
589.36	12.2
589.781	12.18
590.202	12.14
590.623	12.1
591.043	12.04
591.464	11.99
591.885	11.95
592.305	11.91
592.726	11.89
593.147	11.86
593.567	11.82
593.987	11.78
594.408	11.74
594.828	11.71
595.248	11.68
595.669	11.68
596.089	11.65
596.509	11.61
596.929	11.57
597.349	11.53
597.769	11.5
598.189	11.46
598.608	11.43
599.028	11.38
599.448	11.35
599.867	11.32
600.287	11.26
600.706	11.21
601.126	11.18
601.545	11.14
601.965	11.09
602.384	11.04
602.803	10.98
603.222	10.92
603.641	10.87
604.061	10.79
604.48	10.74
604.898	10.68
605.317	10.63
605.736	10.57
606.155	10.51
606.574	10.44
606.992	10.38
607.411	10.32
607.829	10.21
608.248	10.15
608.666	10.08
609.085	10
609.503	9.92
609.921	9.84
610.339	9.77
610.758	9.71
611.176	9.64
611.594	9.56
612.012	9.48
612.43	9.45
612.847	9.38
613.265	9.3
613.683	9.24
614.101	9.16
614.518	9.11
614.936	9.05
615.353	8.98
615.771	8.92
616.188	8.87
616.606	8.81
617.023	8.75
617.44	8.7
617.857	8.67
618.274	8.62
618.691	8.59
619.108	8.55
619.525	8.5
619.942	8.46
620.359	8.43
620.776	8.4
621.192	8.37
621.609	8.35
622.026	8.32
622.442	8.3
622.859	8.29
623.275	8.28
623.691	8.27
624.108	8.26
624.524	8.25
624.94	8.23
625.356	8.21
625.772	8.22
626.188	8.22
626.604	8.21
627.02	8.19
627.436	8.18
627.852	8.16
628.268	8.14
628.683	8.13
629.099	8.12
629.514	8.11
629.93	8.09
630.345	8.07
630.761	8.03
631.176	8.02
631.591	7.98
632.007	7.95
632.422	7.92
632.837	7.87
633.252	7.82
633.667	7.75
634.082	7.7
634.497	7.65
634.911	7.59
635.326	7.54
635.741	7.47
636.155	7.42
636.57	7.35
636.984	7.27
637.399	7.19
637.813	7.12
638.228	7.05
638.642	6.97
639.056	6.89
639.47	6.81
639.884	6.73
640.298	6.66
640.712	6.56
641.126	6.49
641.54	6.4
641.954	6.36
642.368	6.29
642.781	6.22
643.195	6.14
643.609	6.06
644.022	6
644.436	5.93
644.849	5.87
645.262	5.83
645.676	5.76
646.089	5.71
646.502	5.65
646.915	5.59
647.328	5.56
647.741	5.52
648.154	5.49
648.567	5.46
648.98	5.43
649.393	5.41
649.805	5.36
650.218	5.33
650.631	5.31
651.043	5.28
651.456	5.26
651.868	5.22
652.28	5.19
652.693	5.15
653.105	5.11
653.517	5.08
653.929	5.05
654.341	5.03
654.753	5
655.165	4.97
655.577	4.93
655.989	4.89
656.401	4.86
656.813	4.82
657.224	4.79
657.636	4.77
658.047	4.73
658.459	4.67
658.87	4.63
659.282	4.6
659.693	4.55
660.104	4.51
660.515	4.48
660.926	4.43
661.338	4.41
661.749	4.36
662.159	4.33
662.57	4.3
662.981	4.28
663.392	4.24
663.803	4.21
664.213	4.19
664.624	4.18
665.035	4.15
665.445	4.15
665.855	4.14
666.266	4.14
666.676	4.14
667.086	4.14
667.497	4.13
667.907	4.11
668.317	4.11
668.727	4.12
669.137	4.13
669.547	4.14
669.956	4.14
670.366	4.15
670.776	4.15
671.186	4.14
671.595	4.15
672.005	4.16
672.414	4.18
672.824	4.2
673.233	4.22
673.642	4.23
674.052	4.24
674.461	4.24
674.87	4.25
675.279	4.27
675.688	4.29
676.097	4.31
676.506	4.33
676.915	4.35
677.323	4.37
677.732	4.41
678.141	4.43
678.549	4.48
678.958	4.53
679.366	4.56
679.775	4.6
680.183	4.64
680.592	4.69
681	4.72
681.408	4.77
681.816	4.81
682.224	4.86
682.632	4.92
683.04	4.98
683.448	5.04
683.856	5.12
684.264	5.2
684.671	5.3
685.079	5.4
685.487	5.53
685.894	5.66
686.302	5.81
686.709	5.96
687.116	6.13
687.524	6.31
687.931	6.51
688.338	6.75
688.745	7.01
689.152	7.28
689.559	7.6
689.966	7.92
690.373	8.28
690.78	8.65
691.187	9.04
691.593	9.46
692	9.93
692.407	10.39
692.813	10.88
693.22	11.39
693.626	11.9
694.032	12.43
694.439	12.97
694.845	13.52
695.251	14.09
695.657	14.68
696.063	15.25
696.469	15.84
696.875	16.45
697.281	17.04
697.687	17.65
698.093	18.27
698.498	18.89
698.904	19.51
699.31	20.12
699.715	20.75
700.12	21.38
700.526	22.01
700.931	22.62
701.337	23.24
701.742	23.85
702.147	24.49
702.552	25.1
702.957	25.69
703.362	26.29
703.767	26.89
704.172	27.49
704.577	28.05
704.981	28.63
705.386	29.21
705.791	29.77
706.195	30.34
706.6	30.87
707.004	31.4
707.408	31.95
707.813	32.46
708.217	32.97
708.621	33.49
709.025	34.03
709.43	34.54
709.834	35.07
710.237	35.6
710.641	36.11
711.045	36.61
711.449	37.1
711.853	37.58
712.256	38.08
712.66	38.58
713.064	39.05
713.467	39.51
713.87	39.97
714.274	40.4
714.677	40.82
715.08	41.23
715.484	41.67
715.887	42.12
716.29	42.55
716.693	42.96
717.096	43.37
717.499	43.79
717.901	44.16
718.304	44.55
718.707	44.95
719.109	45.35
719.512	45.75
719.915	46.12
720.317	46.46
720.719	46.81
721.122	47.17
721.524	47.51
721.926	47.84
722.328	48.19
722.731	48.51
723.133	48.8
723.535	49.13
723.937	49.44
724.338	49.73
724.74	50.01
725.142	50.2
725.544	50.43
725.945	50.68
726.347	50.93
726.748	51.12
727.15	51.33
727.551	51.55
727.952	51.74
728.354	51.94
728.755	52.15
729.156	52.38
729.557	52.66
729.958	52.88
730.359	53.08
730.76	53.24
731.161	53.46
731.562	53.62
731.962	53.8
732.363	53.97
732.763	54.12
733.164	54.24
733.564	54.35
733.965	54.46
734.365	54.59
734.766	54.73
735.166	54.85
735.566	54.92
735.966	55.03
736.366	55.12
736.766	55.17
737.166	55.27
737.566	55.37
737.966	55.47
738.365	55.56
738.765	55.64
739.165	55.68
739.564	55.77
739.964	55.88
740.363	55.96
740.763	56.04
741.162	56.1
741.561	56.17
741.96	56.26
742.36	56.3
742.759	56.34
743.158	56.39
743.557	56.45
743.955	56.51
744.354	56.58
744.753	56.65
745.152	56.68
745.55	56.77
745.949	56.8
746.348	56.83
746.746	56.9
747.144	56.98
747.543	57.04
747.941	57.13
748.339	57.17
748.737	57.18
749.136	57.26
749.534	57.32
749.932	57.33
750.33	57.37
750.727	57.4
751.125	57.41
751.523	57.4
751.921	57.4
752.318	57.4
752.716	57.4
753.113	57.41
753.511	57.36
753.908	57.36
754.305	57.34
754.703	57.32
755.1	57.32
755.497	57.34
755.894	57.35
756.291	57.32
756.688	57.3
757.085	57.29
757.482	57.31
757.878	57.31
758.275	57.3
758.672	57.34
759.068	57.37
759.465	57.37
759.861	57.34
760.258	57.33
760.654	57.37
761.05	57.37
761.447	57.37
761.843	57.31
762.239	57.27
762.635	57.27
763.031	57.28
763.427	57.22
763.822	57.2
764.218	57.18
764.614	57.18
765.01	57.15
765.405	57.12
765.801	57.11
766.196	57.13
766.592	57.15
766.987	57.15
767.382	57.11
767.778	57.16
768.173	57.17
768.568	57.16
768.963	57.13
769.358	57.16
769.753	57.19
770.148	57.19
770.542	57.19
770.937	57.19
771.332	57.18
771.726	57.2
772.121	57.14
772.515	57.14
772.91	57.14
773.304	57.14
773.699	57.1
774.093	57.06
774.487	57.06
774.881	57.05
775.275	57.04
775.669	57.05
776.063	57.02
776.457	57.05
776.851	57.04
777.245	57.04
777.638	57.06
778.032	57.06
778.425	57.1
778.819	57.08
779.212	57.08
779.606	57.07
779.999	57.05
780.392	57.09
780.786	57.08
781.179	57.09
781.572	57.07
781.965	57.06
782.358	57.06
782.751	57.05
783.143	57.08
783.536	57.09
783.929	57.13
784.322	57.17
784.714	57.14
785.107	57.17
785.499	57.15
785.891	57.16
786.284	57.13
786.676	57.13
787.068	57.11
787.46	57.09
787.852	57.07
788.245	57.07
788.636	57.03
789.028	57
789.42	56.94
789.812	56.94
790.204	56.91
790.595	56.91
790.987	56.9
791.378	56.88
791.77	56.92
792.161	56.94
792.553	56.94
792.944	56.96
793.335	56.99
793.726	57.01
794.117	57.02
794.508	57.06
794.899	57.09
795.29	57.1
795.681	57.1
796.072	57.08
796.463	57.07
796.853	57.04
797.244	57.01
797.634	57.02
798.025	57.04
798.415	57.03
798.806	57.05
799.196	57.07
799.586	57.09
799.976	57.14
800.366	57.13
800.756	57.14
801.146	57.16
801.536	57.2
801.926	57.2
802.316	57.21
802.706	57.24
803.095	57.24
803.485	57.22
803.874	57.23
804.264	57.25
804.653	57.23
805.043	57.21
805.432	57.18
805.821	57.13
806.21	57.13
806.599	57.17
806.988	57.14
807.377	57.16
807.766	57.19
808.155	57.17
808.544	57.14
808.933	57.19
809.321	57.21
809.71	57.29
810.098	57.34
810.487	57.35
810.875	57.32
811.264	57.36
811.652	57.36
812.04	57.36
812.428	57.35
812.816	57.36
813.204	57.33
813.592	57.35
813.98	57.33
814.368	57.32
814.756	57.34
815.144	57.38
815.531	57.37
815.919	57.35
816.306	57.34
816.694	57.37
817.081	57.33
817.469	57.33
817.856	57.4
818.243	57.41
818.63	57.45
819.017	57.45
819.404	57.42
819.791	57.42
820.178	57.45
820.565	57.43
820.952	57.41
821.339	57.47
821.725	57.49
822.112	57.45
822.498	57.44
822.885	57.41
823.271	57.38
823.657	57.4
824.044	57.41
824.43	57.41
824.816	57.42
825.202	57.42
825.588	57.42
825.974	57.43
826.36	57.4
826.746	57.43
827.132	57.43
827.517	57.44
827.903	57.43
828.289	57.44
828.674	57.44
829.06	57.47
829.445	57.5
829.83	57.5
830.216	57.49
830.601	57.52
830.986	57.51
831.371	57.55
831.756	57.53
832.141	57.56
832.526	57.55
832.911	57.59
833.295	57.6
833.68	57.65
834.065	57.67
834.449	57.69
834.834	57.67
835.218	57.71
835.603	57.69
835.987	57.71
836.371	57.74
836.755	57.72
837.139	57.67
837.524	57.68
837.908	57.64
838.291	57.6
838.675	57.6
839.059	57.62
839.443	57.61
839.827	57.62
840.21	57.65
840.594	57.62
840.977	57.63
841.361	57.67
841.744	57.68
842.127	57.66
842.511	57.68
842.894	57.67
843.277	57.66
843.66	57.65
844.043	57.65
844.426	57.65
844.809	57.62
845.191	57.62
845.574	57.6
845.957	57.55
846.339	57.54
846.722	57.55
847.104	57.56
847.487	57.58
847.869	57.57
848.252	57.56
848.634	57.57
849.016	57.61
849.398	57.61
849.78	57.62
850.162	57.64
850.544	57.69
850.926	57.67
851.307	57.66
851.689	57.62
852.071	57.61
852.452	57.61
852.834	57.57
853.215	57.57
853.597	57.57
853.978	57.54
854.359	57.51
854.741	57.5
855.122	57.51
855.503	57.52
855.884	57.52
856.265	57.5
856.646	57.45
857.026	57.46
857.407	57.4
857.788	57.43
858.169	57.44
858.549	57.46
858.93	57.4
859.31	57.39
859.69	57.36
860.071	57.35
860.451	57.37
860.831	57.4
861.211	57.39
861.591	57.44
861.971	57.4
862.351	57.42
862.731	57.42
863.111	57.43
863.491	57.4
863.87	57.41
864.25	57.45
864.629	57.42
865.009	57.43
865.388	57.4
865.768	57.39
866.147	57.4
866.526	57.35
866.905	57.34
867.284	57.35
867.663	57.4
868.042	57.41
868.421	57.36
868.8	57.36
869.179	57.38
869.558	57.38
869.936	57.36
870.315	57.34
870.693	57.35
871.072	57.37
871.45	57.35
871.828	57.34
872.207	57.34
872.585	57.35
872.963	57.34
873.341	57.31
873.719	57.35
874.097	57.35
874.475	57.37
874.853	57.37
875.23	57.35
875.608	57.39
875.986	57.37
876.363	57.37
876.741	57.38
877.118	57.41
877.495	57.42
877.873	57.41
878.25	57.41
878.627	57.44
879.004	57.45
879.381	57.47
879.758	57.42
880.135	57.44
880.512	57.46
880.889	57.48
881.265	57.49
881.642	57.48
882.019	57.5
882.395	57.5
882.772	57.5
883.148	57.5
883.524	57.51
883.901	57.52
884.277	57.5
884.653	57.51
885.029	57.51
885.405	57.53
885.781	57.5
886.157	57.48
886.532	57.51
886.908	57.52
887.284	57.54
887.659	57.53
888.035	57.56
888.411	57.55
888.786	57.54
889.161	57.51
889.537	57.51
889.912	57.51
890.287	57.5
890.662	57.49
891.037	57.44
891.412	57.39
891.787	57.38
892.162	57.35
892.536	57.36
892.911	57.35
893.286	57.31
893.66	57.3
894.035	57.31
894.409	57.3
894.784	57.3
895.158	57.29
895.532	57.3
895.906	57.28
896.281	57.27
896.655	57.24
897.029	57.23
897.402	57.23
897.776	57.22
898.15	57.22
898.524	57.21
898.898	57.13
899.271	57.13
899.645	57.12
900.018	57.11
900.392	57.1
900.765	57.12
901.138	57.09
901.511	57.09
901.884	57.08
902.258	57.07
902.631	57.05
903.003	57.07
903.376	57.05
903.749	57.06
904.122	57.05
904.495	57.04
904.867	57.04
905.24	57.03
905.612	56.99
905.985	56.95
906.357	56.92
906.729	56.88
907.102	56.86
907.474	56.83
907.846	56.79
908.218	56.76
908.59	56.75
908.962	56.74
909.334	56.71
909.705	56.71
910.077	56.68
910.449	56.71
910.82	56.71
911.192	56.69
911.563	56.68
911.935	56.65
912.306	56.65
912.677	56.66
913.048	56.63
913.419	56.64
913.79	56.61
914.161	56.61
914.532	56.57
914.903	56.58
915.274	56.6
915.645	56.64
916.015	56.65
916.386	56.63
916.756	56.58
917.127	56.56
917.497	56.55
917.868	56.54
918.238	56.58
918.608	56.58
918.978	56.55
919.348	56.55
919.718	56.51
920.088	56.52
920.458	56.57
920.828	56.6
921.198	56.59
921.567	56.59
921.937	56.61
922.306	56.6
922.676	56.62
923.045	56.61
923.415	56.59
923.784	56.58
924.153	56.55
924.522	56.52
924.891	56.54
925.26	56.55
925.629	56.57
925.998	56.56
926.367	56.53
926.736	56.48
927.104	56.5
927.473	56.52
927.842	56.51
928.21	56.54
928.578	56.49
928.947	56.44
929.315	56.44
929.683	56.43
930.051	56.43
930.42	56.44
930.788	56.42
931.156	56.39
931.523	56.39
931.891	56.35
932.259	56.29
932.627	56.27
932.994	56.25
933.362	56.15
933.729	56.06
934.097	56
934.464	55.97
934.831	55.99
935.199	55.94
935.566	55.85
935.933	55.82
936.3	55.71
936.667	55.65
937.034	55.56
937.401	55.54
937.767	55.54
938.134	55.51
938.501	55.41
938.867	55.35
939.234	55.32
939.6	55.32
939.967	55.29
940.333	55.4
940.699	55.48
941.065	55.59
941.431	55.71
941.798	55.77
942.163	55.84
942.529	55.9
942.895	55.91
943.261	55.93
943.627	55.99
943.992	56.03
944.358	56.05
944.723	56.07
945.089	56.09
945.454	56.07
945.82	56.03
946.185	56.05
946.55	56.18
946.915	56.21
947.28	56.22
947.645	56.22
948.01	56.28
948.375	56.28
948.74	56.18
949.104	56.08
949.469	56.02
949.834	56.04
950.198	56.01
950.562	55.9
950.927	55.9
951.291	55.92
951.655	55.92
952.02	55.89
952.384	55.91
952.748	55.93
953.112	55.97
953.476	55.93
953.839	55.9
954.203	55.83
954.567	55.77
954.931	55.73
955.294	55.66
955.658	55.62
956.021	55.57
956.385	55.55
956.748	55.63
957.111	55.61
957.474	55.7
957.837	55.68
958.2	55.64
958.563	55.64
958.926	55.61
959.289	55.61
959.652	55.6
960.015	55.64
960.377	55.63
960.74	55.52
961.102	55.49
961.465	55.41
961.827	55.29
962.189	55.33
962.552	55.26
962.914	55.22
963.276	55.25
963.638	55.16
964	55.03
964.362	55.02
964.724	55.02
965.085	55.02
965.447	54.97
965.809	55.01
966.17	54.98
966.532	55.04
966.893	55.09
967.255	55.04
967.616	55.1
967.977	55.13
968.338	55.09
968.699	55
969.061	54.94
969.421	54.94
969.782	54.9
970.143	54.87
970.504	54.79
970.865	54.7
971.225	54.66
971.586	54.66
971.946	54.78
972.307	54.7
972.667	54.81
973.027	54.83
973.388	54.85
973.748	54.86
974.108	54.89
974.468	54.94
974.828	54.98
975.188	55
975.548	54.96
975.907	54.87
976.267	54.94
976.627	54.86
976.986	54.91
977.346	54.91
977.705	54.96
978.064	54.93
978.424	54.99
978.783	55.02
979.142	54.92
979.501	54.89
979.86	54.91
980.219	54.82
980.578	54.88
980.937	54.88
981.296	54.82
981.654	54.88
982.013	54.89
982.371	54.78
982.73	54.69
983.088	54.76
983.447	54.83
983.805	54.73
984.163	54.78
984.521	54.68
984.879	54.69
985.237	54.77
985.595	54.67
985.953	54.62
986.311	54.67
986.669	54.75
987.026	54.7
987.384	54.65
987.741	54.83
988.099	54.82
988.456	54.83
988.814	54.77
989.171	54.71
989.528	54.65
989.885	54.64
990.242	54.62
990.599	54.64
990.956	54.69
991.313	54.7
991.67	54.63
992.027	54.61
992.383	54.7
992.74	54.67
993.096	54.59
993.453	54.59
993.809	54.65
994.165	54.65
994.522	54.46
994.878	54.46
995.234	54.39
995.59	54.32
995.946	54.43
996.302	54.37
996.658	54.4
997.013	54.6
997.369	54.63
997.725	54.62
998.08	54.56
998.436	54.74
998.791	54.69
999.147	54.78
999.502	54.67
999.857	54.56
1000.212	54.56
1000.567	54.65
1000.922	54.45
1001.277	54.32
1001.632	54.36
1001.987	54.3
1002.342	54.32
1002.696	54.33
1003.051	54.11
1003.406	54.13
1003.76	54.05
1004.114	54.01
1004.469	53.78
1004.823	53.94
1005.177	54.29
1005.531	54.08
1005.885	54.17
1006.239	53.99
1006.593	54.01
1006.947	54.14
1007.301	54.18
1007.655	54.25
1008.008	54.19
1008.362	54.1
1008.715	53.98
1009.069	53.67
1009.422	53.7
1009.776	53.7
1010.129	53.56
1010.482	53.65
1010.835	53.71
1011.188	53.67
1011.541	53.43
1011.894	53.38
1012.247	53.5
1012.6	53.36
1012.952	53.27
1013.305	53.45
1013.657	53.58
1014.01	53.93
1014.362	54.02
1014.715	53.7
1015.067	53.8
1015.419	54.06
1015.771	54.4
1016.123	54.26
1016.475	54.53
1016.827	54.75
1017.179	54.67
1017.531	54.51
1017.883	54.47
1018.234	54.14
1018.586	54.36
1018.938	53.94
1019.289	53.48
1019.64	53.37
1019.992	53.59
1020.343	53.43
1020.694	53.35
1021.045	53.4
1021.396	53.28
1021.747	53.06
1022.098	53.06
1022.449	52.94
1022.8	53.1
1023.151	53.32
1023.501	53.26
1023.852	53.32
1024.202	53.32
1024.553	53.28
1024.903	53.15
1025.253	53.08
1025.604	53.22
1025.954	53
1026.304	53.51
1026.654	53.76
1027.004	54.04
1027.354	53.88
1027.703	53.57
1028.053	53.51
1028.403	53.36
1028.753	53.61
1029.102	53.77
1029.452	53.83
1029.801	54.22
1030.15	53.8
1030.499	53.73
897.758	88.28
901.051	100.44
904.343	104.82
907.636	102.44
910.928	104.63
914.22	106.24
917.511	99.84
920.803	102.71
924.094	102.08
927.384	104.61
930.675	100.51
933.965	101.2
937.255	98.39
940.544	93.13
943.834	88.36
947.123	86.47
950.411	85.4
953.7	87.21
956.988	85.75
960.276	81.09
963.563	81.77
966.851	78.98
970.138	79.55
973.424	76.42
976.711	75.49
979.997	76.98
983.283	75.17
986.568	72.25
989.853	71.86
993.138	70.59
996.423	71.48
999.708	69.69
1002.992	69.9
1006.275	70.23
1009.559	71.09
1012.842	71.27
1016.125	69.81
1019.408	69.71
1022.69	71.35
1025.972	72.31
1029.254	71.54
1032.536	71.06
1035.817	69.88
1039.098	70.1
1042.379	69.94
1045.659	68.34
1048.939	67.88
1052.219	67.11
1055.498	67.52
1058.778	66.18
1062.057	65.61
1065.335	66.14
1068.614	64.2
1071.892	64.77
1075.17	63.26
1078.447	62.58
1081.724	63.75
1085.001	63.15
1088.278	63.16
1091.554	62.36
1094.83	62.75
1098.106	62.3
1101.382	62.44
1104.657	63.98
1107.932	62.96
1111.206	64.08
1114.481	64.73
1117.755	63.16
1121.029	63.08
1124.302	63.46
1127.575	63.44
1130.848	62.66
1134.121	61.9
1137.393	61.54
1140.665	60.44
1143.937	60.19
1147.208	59.46
1150.48	58.53
1153.75	58.38
1157.021	58.56
1160.291	58.34
1163.561	57.18
1166.831	58.16
1170.101	58.09
1173.37	58.04
1176.639	57.99
1179.907	58.16
1183.176	58.41
1186.444	58.25
1189.711	57.83
1192.979	57.88
1196.246	58.45
1199.513	58.2
1202.78	57.59
1206.046	57.76
1209.312	57.61
1212.578	58.09
1215.843	58.58
1219.108	57.69
1222.373	57.92
1225.638	58.7
1228.902	58.95
1232.166	58.74
1235.43	58.56
1238.693	59.68
1241.956	59.33
1245.219	60.31
1248.482	60.17
1251.744	59.81
1255.006	61.57
1258.268	60.4
1261.529	60.56
1264.79	60.87
1268.051	60.12
1271.312	61.66
1274.572	60.5
1277.832	60.94
1281.092	60.08
1284.351	60.43
1287.61	60.62
1290.869	58.74
1294.128	59.27
1297.386	59.14
1300.644	58.29
1303.902	58.26
1307.159	56.95
1310.416	57.1
1313.673	57.59
1316.93	57.81
1320.186	57.91
1323.442	56.95
1326.697	58.7
1329.953	57.49
1333.208	56.65
1336.463	57.2
1339.717	57.85
1342.972	58.22
1346.226	58.73
1349.479	57.93
1352.733	58.04
1355.986	56.98
1359.238	57.79
1362.491	56.96
1365.743	57.65
1368.995	59.5
1372.247	55.83
1375.498	54.13
1378.749	54.84
1382	53.6
1385.251	51.92
1388.501	50.43
1391.751	50.14
1395	49.68
1398.25	48.4
1401.499	47.36
1404.748	44.85
1407.996	48.13
1411.244	48.92
1414.492	48.05
1417.74	44.13
1420.987	44.04
1424.234	44.6
1427.481	41.67
1430.728	40.91
1433.974	40.38
1437.22	39.87
1440.465	38.75
1443.711	36.48
1446.956	35.59
1450.201	35.53
1453.445	35.65
1456.689	34.99
1459.933	34.13
1463.177	32.93
1466.42	32.5
1469.663	32.44
1472.906	32.16
1476.148	32.01
1479.391	32.23
1482.633	32.03
1485.874	32.02
1489.115	32.42
1492.356	32.11
1495.597	32.29
1498.838	34.02
1502.078	34.46
1505.318	34.27
1508.557	34.23
1511.797	34.88
1515.036	35.93
1518.274	35.79
1521.513	36.09
1524.751	36.32
1527.989	37.46
1531.227	37.44
1534.464	37.96
1537.701	37.61
1540.938	37.83
1544.174	38.14
1547.41	38.59
1550.646	38.83
1553.882	39.57
1557.117	39.93
1560.352	39.9
1563.587	40.11
1566.821	40.33
1570.055	40.53
1573.289	41.33
1576.523	41.51
1579.756	41.9
1582.989	41.93
1586.222	41.86
1589.454	41.95
1592.686	42.05
1595.918	42.24
1599.15	42.5
1602.381	42.53
1605.612	42.69
1608.843	42.6
1612.073	42.83
1615.303	43.21
1618.533	43.23
1621.762	43.29
1624.992	43.15
1628.221	43.3
1631.449	43.58
1634.678	43.51
1637.906	43.83
1641.134	43.78
1644.361	43.77
1647.588	44.33
1650.815	44.28
1654.042	44.84
1657.269	44.41
1660.495	45
1663.72	44.71
1666.946	44.75
1670.171	44.94
1673.396	44.82
1676.621	44.79
1679.845	45.47
1683.069	44.63
1686.293	44.03
1689.517	44.27
1692.74	44.33
1695.963	44.46
1699.185	44.45
1702.408	44.06
1705.63	44.06
1708.852	44.3
1712.073	44.09
1715.294	43.52
1718.515	43.99
1721.736	44.33
1724.956	43.39
1728.176	43.56
1731.396	43.15
1734.616	43.61
1737.835	43.53
1741.054	42.7
1744.272	43.11
1747.491	42.96
1750.709	42.69
1753.927	42.53
1757.144	42.38
1760.361	42.23
1763.578	42.02
1766.795	41.97
1770.011	41.65
1773.227	41.71
1776.443	42.24
1779.658	41.37
1782.874	40.91
1786.089	40.51
1789.303	40.53
1792.518	41.02
1795.732	41.01
1798.945	41.69
1802.159	41.7
1805.372	41.56
1808.585	41.52
1811.797	42.03
1815.01	41.87
1818.222	42.86
1821.434	42.6
1824.645	42.21
1827.856	41.48
1831.067	41.08
1834.278	41.51
1837.488	41.16
1840.698	40.63
1843.908	40.61
1847.117	40.13
1850.326	39.46
1853.535	39.6
1856.744	39.46
1859.952	38.79
1863.16	38.1
1866.368	38.33
1869.575	35.91
1872.782	34.7
1875.989	32.76
1879.196	32.58
1882.402	29.75
1885.608	30.02
1888.814	27.55
1892.019	25.78
1895.224	24.5
1898.429	23.77
1901.634	22.68
1904.838	21.51
1908.042	21.51
1911.246	21.56
1914.449	20.45
1917.652	20.99
1920.855	19.55
1924.058	19.23
1927.26	18.5
1930.462	18.63
1933.664	19.72
1936.865	19.29
1940.066	19.1
1943.267	17.77
1946.467	18.68
1949.668	17.76
1952.868	17.93
1956.067	18.12
1959.267	19.15
1962.466	19.41
1965.665	20.48
1968.863	20.62
1972.061	19.47
1975.259	20.94
1978.457	21.72
1981.654	21.19
1984.852	22.48
1988.048	23.08
1991.245	24.13
1994.441	24.2
1997.637	25.01
2000.833	25.81
2004.028	24.82
2007.223	27.34
2010.418	28.05
2013.613	29.96
2016.807	31.42
2020.001	30
2023.194	32.13
2026.388	32.36
2029.581	33.94
2032.774	34.87
2035.966	35.4
2039.158	37.64
2042.35	36.53
2045.542	36.2
2048.733	38.5
2051.924	35.44
2055.115	37.65
2058.306	37.24
2061.496	36.93
2064.686	36.34
2067.875	37.41
2071.065	38.54
2074.254	37.12
2077.442	38.97
2080.631	40
2083.819	38.24
2087.007	43.29
2090.195	44.79
2093.382	41.95
2096.569	43.1
2099.756	46.43
2102.942	47.31
2106.128	46.16
2109.314	49.58
2112.5	50.16
2115.685	47.69
2118.87	47.39
2122.055	48.1
2125.239	46.68
2128.424	50.16
2131.608	46.91
2134.791	45.28
2137.974	45.34
2141.157	47.02
2144.34	46
2147.523	46.27
2150.705	48.36
2153.887	50.13
2157.068	50.08
2160.25	50.11
2163.431	50.35
2166.611	53.2
2169.792	54.78
2172.972	56.42
2176.152	57.9
2179.331	56.91
2182.511	57.44
2185.69	58.97
2188.868	57.22
2192.047	56.84
2195.225	61.32
2198.403	57.61
2201.58	57.92
2204.758	58.89
2207.935	58.81
2211.111	54.83
2214.288	56.95
2217.464	57.21
2220.64	60.52
2223.815	60.57
2226.991	64.08
2230.166	62.97
2233.34	66
2236.515	67.07
2239.689	65.36
2242.863	65.82
2246.036	67.16
2249.209	66.37
2252.382	69.16
2255.555	66.17
2258.727	68.43
2261.9	65.58
2265.071	66.09
2268.243	67.99
2271.414	66.84
2274.585	66.38
2277.756	68.89
2280.926	67.28
2284.096	71.69
2287.266	68.21
2290.436	68.54
2293.605	70.02
2296.774	74.37
2299.942	73.18
2303.111	75.99
2306.279	79.93
2309.447	82.13
2312.614	76.92
2315.781	75.69
2318.948	78.89
2322.115	81.07
2325.281	79.36
2328.447	74.93
2331.613	76.49
2334.779	77.93
2337.944	74.54
2341.109	75.41
2344.274	76.75
2347.438	78.6
2350.602	88.24
2353.766	86.61
2356.929	87.04
2360.092	90.35
2363.255	97.14
2366.418	93.89
2369.58	88.7
2372.742	103.01
2375.904	100.57
2379.066	101.47
2382.227	110.38
2385.388	103.99
2388.548	102.62
2391.709	102.23
2394.869	107.5
2398.029	108.78
2401.188	114.98
2404.347	121.66
2407.506	111.5
2410.665	110.79
2413.823	111.65
2416.981	112.25
2420.139	110.36
2423.296	113.16
2426.453	123.08
2429.61	116.78
2432.767	118.86
2435.923	120.32
2439.079	117.72
2442.235	125.7
2445.391	128.18
2448.546	129.78
2451.701	130.83
2454.855	140.43
2458.009	133.58
2461.163	124.5
2464.317	129
2467.471	129.28
2470.624	128.82
2473.777	129.22
2476.929	128.08
2480.082	131.01
2483.234	131.95
2486.385	134
2489.537	138.16
2492.688	148.51
2495.839	151.02
2498.989	154.44
2502.14	152.94
2505.29	144.84
2508.439	157.48
2511.589	155.51
2514.738	150.9
2517.887	154.19
2521.035	143.74
2524.183	137.98
2527.331	131.39
2530.479	129.93
2533.627	130.8
