Data from C_1_DIV_PA_2n_Splice17_03.txt Node
Date: Sat Feb 29 13:06:17 EST 2020
User: sa697716
Spectrometer: FLMS03696
Trigger mode: 0
Integration Time (sec): 3.180400E-1
Scans to average: 20
Electric dark correction enabled: true
Nonlinearity correction enabled: true
Boxcar width: 5
XAxis mode: Wavelengths
Number of Pixels in Spectrum: 2048
>>>>>Begin Spectral Data<<<<<
187.83	26.38
188.298	17.05
188.766	23.48
189.233	18.12
189.701	20.35
190.169	26.69
190.636	28.94
191.104	2.84
191.571	-75.51
192.039	62.38
192.506	319.8
192.974	2727.1
193.441	-268.61
193.908	71.95
194.375	15.39
194.842	-8.69
195.31	10.44
195.777	-23.6
196.244	-14.51
196.711	-1.95
197.177	-4.81
197.644	-3.65
198.111	-2.75
198.578	-2.43
199.045	-1.64
199.511	-0.36
199.978	0.21
200.445	0.31
200.911	0.9
201.378	1.1
201.844	1.5
202.31	2.63
202.777	3.38
203.243	3.98
203.709	4.68
204.176	4.37
204.642	4.42
205.108	4.57
205.574	5.17
206.04	5.1
206.506	5.25
206.972	5.68
207.438	5.33
207.903	5.83
208.369	5.97
208.835	5.79
209.301	6.36
209.766	6.8
210.232	7.04
210.697	7.33
211.163	7.63
211.628	7.57
212.094	7.4
212.559	7.59
213.024	7.53
213.49	7.57
213.955	7.73
214.42	7.58
214.885	7.39
215.35	7.67
215.815	7.42
216.28	7.72
216.745	8.29
217.21	8.61
217.675	9.16
218.14	9.24
218.604	9.29
219.069	9.44
219.534	9.5
219.998	9.59
220.463	9.58
220.927	9.63
221.392	9.61
221.856	9.54
222.32	9.54
222.785	9.39
223.249	9.34
223.713	9.32
224.177	9.22
224.642	9.2
225.106	9.1
225.57	9.02
226.034	8.97
226.497	8.91
226.961	8.82
227.425	8.69
227.889	8.65
228.353	8.61
228.816	8.54
229.28	8.47
229.744	8.42
230.207	8.38
230.671	8.33
231.134	8.29
231.597	8.21
232.061	8.17
232.524	8.13
232.987	8.07
233.45	7.99
233.914	7.94
234.377	7.9
234.84	7.82
235.303	7.78
235.766	7.73
236.229	7.66
236.691	7.63
237.154	7.56
237.617	7.49
238.08	7.43
238.542	7.39
239.005	7.32
239.468	7.27
239.93	7.22
240.393	7.17
240.855	7.1
241.317	7.05
241.78	7.01
242.242	6.97
242.704	6.94
243.166	6.9
243.629	6.85
244.091	6.82
244.553	6.79
245.015	6.76
245.477	6.73
245.939	6.7
246.4	6.67
246.862	6.65
247.324	6.63
247.786	6.6
248.247	6.58
248.709	6.55
249.17	6.53
249.632	6.48
250.093	6.44
250.555	6.41
251.016	6.4
251.477	6.37
251.939	6.34
252.4	6.31
252.861	6.29
253.322	6.26
253.783	6.26
254.244	6.23
254.705	6.24
255.166	6.24
255.627	6.23
256.088	6.21
256.549	6.2
257.009	6.18
257.47	6.17
257.931	6.15
258.391	6.13
258.852	6.1
259.312	6.11
259.773	6.09
260.233	6.07
260.694	6.05
261.154	6.05
261.614	6.04
262.074	6.02
262.534	6
262.994	5.99
263.455	5.97
263.915	5.97
264.374	5.95
264.834	5.95
265.294	5.93
265.754	5.92
266.214	5.91
266.673	5.9
267.133	5.9
267.593	5.9
268.052	5.89
268.512	5.89
268.971	5.88
269.431	5.87
269.89	5.86
270.349	5.85
270.809	5.85
271.268	5.84
271.727	5.83
272.186	5.82
272.645	5.81
273.104	5.79
273.563	5.79
274.022	5.78
274.481	5.76
274.94	5.76
275.399	5.74
275.857	5.73
276.316	5.71
276.775	5.69
277.233	5.68
277.692	5.67
278.15	5.66
278.609	5.64
279.067	5.63
279.525	5.61
279.984	5.59
280.442	5.58
280.9	5.56
281.358	5.55
281.816	5.54
282.274	5.53
282.732	5.51
283.19	5.49
283.648	5.48
284.106	5.46
284.564	5.45
285.021	5.44
285.479	5.43
285.937	5.42
286.394	5.4
286.852	5.39
287.309	5.39
287.767	5.38
288.224	5.38
288.682	5.38
289.139	5.39
289.596	5.38
290.053	5.37
290.511	5.37
290.968	5.36
291.425	5.36
291.882	5.35
292.339	5.35
292.796	5.34
293.252	5.32
293.709	5.31
294.166	5.3
294.623	5.29
295.079	5.28
295.536	5.27
295.992	5.27
296.449	5.26
296.905	5.24
297.362	5.24
297.818	5.23
298.274	5.22
298.731	5.21
299.187	5.2
299.643	5.19
300.099	5.19
300.555	5.17
301.011	5.17
301.467	5.16
301.923	5.16
302.379	5.16
302.835	5.15
303.291	5.14
303.746	5.13
304.202	5.12
304.658	5.11
305.113	5.09
305.569	5.09
306.024	5.08
306.479	5.06
306.935	5.05
307.39	5.05
307.845	5.05
308.301	5.05
308.756	5.04
309.211	5.04
309.666	5.04
310.121	5.04
310.576	5.03
311.031	5.03
311.486	5.03
311.94	5.02
312.395	5.01
312.85	5
313.305	4.98
313.759	4.98
314.214	4.97
314.668	4.96
315.123	4.97
315.577	4.97
316.032	4.97
316.486	4.96
316.94	4.97
317.394	4.96
317.849	4.95
318.303	4.95
318.757	4.95
319.211	4.93
319.665	4.93
320.119	4.92
320.572	4.92
321.026	4.91
321.48	4.91
321.934	4.9
322.387	4.9
322.841	4.9
323.295	4.89
323.748	4.88
324.202	4.88
324.655	4.88
325.108	4.87
325.562	4.85
326.015	4.84
326.468	4.82
326.921	4.82
327.374	4.81
327.827	4.81
328.28	4.8
328.733	4.79
329.186	4.79
329.639	4.77
330.092	4.77
330.545	4.78
330.997	4.78
331.45	4.78
331.903	4.77
332.355	4.77
332.808	4.76
333.26	4.77
333.713	4.77
334.165	4.75
334.617	4.76
335.069	4.76
335.522	4.76
335.974	4.75
336.426	4.75
336.878	4.74
337.33	4.72
337.782	4.72
338.234	4.71
338.686	4.71
339.137	4.71
339.589	4.7
340.041	4.71
340.493	4.69
340.944	4.69
341.396	4.69
341.847	4.68
342.299	4.69
342.75	4.68
343.201	4.69
343.653	4.68
344.104	4.68
344.555	4.69
345.006	4.68
345.457	4.68
345.908	4.68
346.359	4.68
346.81	4.69
347.261	4.69
347.712	4.69
348.163	4.67
348.613	4.67
349.064	4.65
349.515	4.66
349.965	4.65
350.416	4.64
350.866	4.64
351.317	4.64
351.767	4.62
352.217	4.62
352.668	4.62
353.118	4.63
353.568	4.63
354.018	4.65
354.468	4.64
354.918	4.64
355.368	4.65
355.818	4.64
356.268	4.64
356.718	4.65
357.168	4.65
357.617	4.64
358.067	4.65
358.517	4.65
358.966	4.65
359.416	4.66
359.865	4.66
360.315	4.66
360.764	4.67
361.213	4.68
361.663	4.68
362.112	4.71
362.561	4.71
363.01	4.73
363.459	4.74
363.908	4.76
364.357	4.77
364.806	4.79
365.255	4.81
365.703	4.81
366.152	4.83
366.601	4.85
367.05	4.86
367.498	4.88
367.947	4.88
368.395	4.91
368.844	4.92
369.292	4.93
369.74	4.95
370.189	4.98
370.637	5.01
371.085	5.03
371.533	5.05
371.981	5.07
372.429	5.09
372.877	5.11
373.325	5.12
373.773	5.15
374.221	5.18
374.669	5.21
375.116	5.21
375.564	5.24
376.012	5.26
376.459	5.28
376.907	5.3
377.354	5.32
377.801	5.35
378.249	5.38
378.696	5.41
379.143	5.43
379.591	5.46
380.038	5.5
380.485	5.52
380.932	5.55
381.379	5.58
381.826	5.62
382.273	5.66
382.72	5.68
383.166	5.71
383.613	5.73
384.06	5.75
384.506	5.78
384.953	5.81
385.4	5.84
385.846	5.86
386.292	5.89
386.739	5.9
387.185	5.93
387.631	5.96
388.078	5.99
388.524	6
388.97	6.03
389.416	6.05
389.862	6.06
390.308	6.08
390.754	6.1
391.2	6.14
391.645	6.17
392.091	6.17
392.537	6.18
392.983	6.19
393.428	6.21
393.874	6.24
394.319	6.27
394.765	6.3
395.21	6.31
395.655	6.32
396.101	6.32
396.546	6.32
396.991	6.34
397.436	6.34
397.881	6.37
398.326	6.39
398.771	6.39
399.216	6.41
399.661	6.41
400.106	6.45
400.551	6.46
400.995	6.47
401.44	6.48
401.885	6.5
402.329	6.51
402.774	6.52
403.218	6.53
403.663	6.53
404.107	6.53
404.551	6.55
404.995	6.54
405.44	6.54
405.884	6.55
406.328	6.56
406.772	6.56
407.216	6.58
407.66	6.59
408.104	6.6
408.547	6.61
408.991	6.61
409.435	6.61
409.879	6.62
410.322	6.63
410.766	6.63
411.209	6.63
411.653	6.62
412.096	6.62
412.54	6.61
412.983	6.6
413.426	6.61
413.869	6.61
414.312	6.62
414.756	6.63
415.199	6.63
415.642	6.66
416.085	6.66
416.527	6.69
416.97	6.71
417.413	6.71
417.856	6.72
418.298	6.72
418.741	6.72
419.184	6.72
419.626	6.7
420.069	6.71
420.511	6.69
420.953	6.67
421.396	6.65
421.838	6.64
422.28	6.66
422.722	6.65
423.164	6.65
423.606	6.64
424.048	6.63
424.49	6.64
424.932	6.63
425.374	6.64
425.816	6.63
426.258	6.63
426.699	6.6
427.141	6.57
427.582	6.56
428.024	6.55
428.465	6.54
428.907	6.55
429.348	6.53
429.789	6.52
430.231	6.51
430.672	6.53
431.113	6.52
431.554	6.53
431.995	6.53
432.436	6.53
432.877	6.52
433.318	6.51
433.759	6.51
434.2	6.49
434.64	6.48
435.081	6.46
435.522	6.45
435.962	6.45
436.403	6.45
436.843	6.45
437.284	6.46
437.724	6.48
438.164	6.48
438.604	6.49
439.045	6.5
439.485	6.49
439.925	6.48
440.365	6.46
440.805	6.46
441.245	6.43
441.685	6.44
442.125	6.41
442.564	6.4
443.004	6.38
443.444	6.36
443.883	6.35
444.323	6.33
444.762	6.32
445.202	6.35
445.641	6.32
446.081	6.35
446.52	6.32
446.959	6.33
447.398	6.32
447.837	6.34
448.276	6.33
448.716	6.34
449.154	6.36
449.593	6.38
450.032	6.36
450.471	6.38
450.91	6.35
451.349	6.35
451.787	6.34
452.226	6.31
452.664	6.28
453.103	6.27
453.541	6.25
453.98	6.23
454.418	6.19
454.856	6.16
455.295	6.13
455.733	6.12
456.171	6.12
456.609	6.1
457.047	6.09
457.485	6.09
457.923	6.07
458.361	6.06
458.798	6.06
459.236	6.07
459.674	6.08
460.111	6.07
460.549	6.07
460.987	6.07
461.424	6.06
461.862	6.06
462.299	6.07
462.736	6.07
463.173	6.08
463.611	6.07
464.048	6.08
464.485	6.09
464.922	6.08
465.359	6.09
465.796	6.08
466.233	6.1
466.67	6.11
467.106	6.08
467.543	6.1
467.98	6.1
468.416	6.11
468.853	6.11
469.29	6.11
469.726	6.12
470.162	6.11
470.599	6.13
471.035	6.13
471.471	6.12
471.907	6.13
472.344	6.13
472.78	6.13
473.216	6.13
473.652	6.14
474.088	6.15
474.523	6.13
474.959	6.13
475.395	6.13
475.831	6.13
476.266	6.13
476.702	6.14
477.138	6.14
477.573	6.12
478.008	6.11
478.444	6.09
478.879	6.07
479.314	6.07
479.75	6.08
480.185	6.07
480.62	6.07
481.055	6.06
481.49	6.04
481.925	6
482.36	5.99
482.795	5.98
483.229	5.98
483.664	5.97
484.099	5.97
484.534	5.94
484.968	5.94
485.403	5.92
485.837	5.92
486.271	5.92
486.706	5.92
487.14	5.94
487.574	5.95
488.009	5.96
488.443	5.95
488.877	5.96
489.311	5.96
489.745	5.95
490.179	5.95
490.613	5.97
491.046	5.96
491.48	5.96
491.914	5.95
492.348	5.95
492.781	5.95
493.215	5.95
493.648	5.96
494.082	5.97
494.515	5.97
494.948	5.98
495.382	5.98
495.815	6
496.248	6.01
496.681	6
497.114	6
497.547	6.01
497.98	6.01
498.413	6
498.846	6
499.279	6.01
499.711	6
500.144	6
500.577	6.01
501.009	6.01
501.442	6.03
501.874	6.05
502.306	6.04
502.739	6.04
503.171	6.05
503.603	6.08
504.036	6.1
504.468	6.12
504.9	6.13
505.332	6.15
505.764	6.18
506.196	6.21
506.627	6.23
507.059	6.26
507.491	6.29
507.923	6.32
508.354	6.34
508.786	6.36
509.217	6.37
509.649	6.41
510.08	6.44
510.512	6.45
510.943	6.47
511.374	6.49
511.805	6.52
512.237	6.55
512.668	6.56
513.099	6.59
513.53	6.63
513.961	6.67
514.391	6.69
514.822	6.73
515.253	6.77
515.684	6.79
516.114	6.84
516.545	6.89
516.975	6.94
517.406	6.98
517.836	7.04
518.267	7.09
518.697	7.16
519.127	7.22
519.558	7.27
519.988	7.35
520.418	7.43
520.848	7.49
521.278	7.55
521.708	7.45
522.138	7.5
522.567	7.55
522.997	7.59
523.427	7.64
523.857	7.69
524.286	7.75
524.716	7.79
525.145	7.84
525.575	7.89
526.004	7.94
526.433	8.16
526.863	8.23
527.292	8.29
527.721	8.35
528.15	8.39
528.579	8.43
529.008	8.47
529.437	8.52
529.866	8.55
530.295	8.59
530.724	8.63
531.152	8.67
531.581	8.69
532.01	8.74
532.438	8.77
532.867	8.8
533.295	8.81
533.723	8.85
534.152	8.87
534.58	8.89
535.008	8.9
535.436	8.92
535.865	8.93
536.293	8.96
536.721	8.96
537.149	8.97
537.576	8.99
538.004	9.01
538.432	9.01
538.86	9.02
539.287	9.04
539.715	9.05
540.143	9.07
540.57	9.08
540.998	9.08
541.425	9.08
541.852	9.09
542.28	9.08
542.707	9.11
543.134	9.12
543.561	9.1
543.988	9.1
544.415	9.11
544.842	9.11
545.269	9.11
545.696	9.12
546.123	9.13
546.549	9.13
546.976	9.14
547.403	9.14
547.829	9.15
548.256	9.18
548.682	9.2
549.108	9.18
549.535	9.19
549.961	9.18
550.387	9.18
550.813	9.16
551.24	9.16
551.666	9.17
552.092	9.16
552.518	9.15
552.943	9.15
553.369	9.12
553.795	9.12
554.221	9.09
554.646	9.08
555.072	9.07
555.498	9.08
555.923	9.07
556.349	9.03
556.774	9
557.199	8.98
557.625	8.95
558.05	8.91
558.475	8.88
558.9	8.85
559.325	8.81
559.75	8.78
560.175	8.72
560.6	8.68
561.025	8.65
561.449	8.59
561.874	8.54
562.299	8.49
562.723	8.46
563.148	8.42
563.572	8.38
563.997	8.33
564.421	8.29
564.846	8.26
565.27	8.2
565.694	8.16
566.118	8.13
566.542	8.11
566.966	8.07
567.39	8.02
567.814	7.99
568.238	7.94
568.662	7.89
569.086	7.84
569.509	7.79
569.933	7.76
570.357	7.7
570.78	7.65
571.204	7.61
571.627	7.55
572.05	7.52
572.474	7.49
572.897	7.45
573.32	7.41
573.743	7.37
574.166	7.35
574.589	7.31
575.012	7.3
575.435	7.27
575.858	7.23
576.281	7.22
576.704	7.19
577.126	7.15
577.549	7.13
577.972	7.11
578.394	7.09
578.817	7.05
579.239	7.01
579.661	6.99
580.084	6.98
580.506	6.97
580.928	6.94
581.35	6.94
581.772	6.92
582.194	6.9
582.616	6.89
583.038	6.89
583.46	6.88
583.882	6.88
584.303	6.86
584.725	6.84
585.147	6.79
585.568	6.77
585.99	6.76
586.411	6.74
586.833	6.73
587.254	6.73
587.675	6.72
588.096	6.7
588.518	6.69
588.939	6.68
589.36	6.67
589.781	6.68
590.202	6.67
590.623	6.65
591.043	6.63
591.464	6.62
591.885	6.59
592.305	6.59
592.726	6.58
593.147	6.58
593.567	6.57
593.987	6.57
594.408	6.55
594.828	6.55
595.248	6.54
595.669	6.55
596.089	6.53
596.509	6.52
596.929	6.51
597.349	6.5
597.769	6.47
598.189	6.48
598.608	6.46
599.028	6.45
599.448	6.44
599.867	6.43
600.287	6.42
600.706	6.43
601.126	6.42
601.545	6.41
601.965	6.39
602.384	6.4
602.803	6.38
603.222	6.36
603.641	6.36
604.061	6.35
604.48	6.35
604.898	6.33
605.317	6.31
605.736	6.3
606.155	6.28
606.574	6.27
606.992	6.25
607.411	6.25
607.829	6.2
608.248	6.2
608.666	6.2
609.085	6.18
609.503	6.17
609.921	6.15
610.339	6.15
610.758	6.15
611.176	6.13
611.594	6.12
612.012	6.1
612.43	6.13
612.847	6.11
613.265	6.09
613.683	6.08
614.101	6.06
614.518	6.06
614.936	6.04
615.353	6.03
615.771	6.02
616.188	6.02
616.606	6.02
617.023	6
617.44	5.99
617.857	5.98
618.274	5.97
618.691	5.96
619.108	5.95
619.525	5.95
619.942	5.95
620.359	5.96
620.776	5.95
621.192	5.93
621.609	5.93
622.026	5.93
622.442	5.93
622.859	5.92
623.275	5.93
623.691	5.93
624.108	5.92
624.524	5.9
624.94	5.88
625.356	5.88
625.772	5.86
626.188	5.86
626.604	5.85
627.02	5.85
627.436	5.84
627.852	5.82
628.268	5.82
628.683	5.81
629.099	5.81
629.514	5.81
629.93	5.8
630.345	5.81
630.761	5.8
631.176	5.81
631.591	5.8
632.007	5.79
632.422	5.8
632.837	5.79
633.252	5.8
633.667	5.78
634.082	5.78
634.497	5.77
634.911	5.76
635.326	5.75
635.741	5.73
636.155	5.73
636.57	5.73
636.984	5.7
637.399	5.69
637.813	5.66
638.228	5.65
638.642	5.65
639.056	5.64
639.47	5.63
639.884	5.61
640.298	5.61
640.712	5.59
641.126	5.57
641.54	5.56
641.954	5.56
642.368	5.56
642.781	5.55
643.195	5.53
643.609	5.53
644.022	5.52
644.436	5.51
644.849	5.5
645.262	5.5
645.676	5.49
646.089	5.48
646.502	5.47
646.915	5.46
647.328	5.46
647.741	5.45
648.154	5.44
648.567	5.45
648.98	5.46
649.393	5.45
649.805	5.44
650.218	5.45
650.631	5.45
651.043	5.45
651.456	5.45
651.868	5.44
652.28	5.44
652.693	5.42
653.105	5.41
653.517	5.39
653.929	5.39
654.341	5.4
654.753	5.38
655.165	5.37
655.577	5.37
655.989	5.36
656.401	5.36
656.813	5.36
657.224	5.37
657.636	5.38
658.047	5.38
658.459	5.38
658.87	5.37
659.282	5.37
659.693	5.36
660.104	5.35
660.515	5.35
660.926	5.35
661.338	5.35
661.749	5.35
662.159	5.33
662.57	5.33
662.981	5.34
663.392	5.33
663.803	5.33
664.213	5.34
664.624	5.35
665.035	5.34
665.445	5.34
665.855	5.34
666.266	5.35
666.676	5.35
667.086	5.35
667.497	5.34
667.907	5.34
668.317	5.34
668.727	5.34
669.137	5.34
669.547	5.37
669.956	5.37
670.366	5.38
670.776	5.37
671.186	5.37
671.595	5.39
672.005	5.41
672.414	5.42
672.824	5.45
673.233	5.46
673.642	5.47
674.052	5.47
674.461	5.48
674.87	5.49
675.279	5.51
675.688	5.53
676.097	5.53
676.506	5.54
676.915	5.56
677.323	5.57
677.732	5.58
678.141	5.61
678.549	5.63
678.958	5.66
679.366	5.66
679.775	5.69
680.183	5.71
680.592	5.74
681	5.75
681.408	5.76
681.816	5.78
682.224	5.78
682.632	5.78
683.04	5.79
683.448	5.79
683.856	5.8
684.264	5.82
684.671	5.83
685.079	5.83
685.487	5.85
685.894	5.86
686.302	5.86
686.709	5.88
687.116	5.9
687.524	5.92
687.931	5.94
688.338	5.97
688.745	5.98
689.152	6
689.559	6.04
689.966	6.07
690.373	6.11
690.78	6.16
691.187	6.22
691.593	6.28
692	6.35
692.407	6.43
692.813	6.5
693.22	6.6
693.626	6.7
694.032	6.81
694.439	6.95
694.845	7.08
695.251	7.22
695.657	7.36
696.063	7.51
696.469	7.68
696.875	7.85
697.281	8.01
697.687	8.21
698.093	8.4
698.498	8.58
698.904	8.79
699.31	8.99
699.715	9.2
700.12	9.43
700.526	9.66
700.931	9.9
701.337	10.16
701.742	10.41
702.147	10.65
702.552	10.93
702.957	11.2
703.362	11.46
703.767	11.75
704.172	12.02
704.577	12.3
704.981	12.59
705.386	12.89
705.791	13.17
706.195	13.47
706.6	13.76
707.004	14.06
707.408	14.37
707.813	14.67
708.217	14.99
708.621	15.34
709.025	15.66
709.43	15.97
709.834	16.32
710.237	16.66
710.641	17.03
711.045	17.37
711.449	17.7
711.853	18.06
712.256	18.43
712.66	18.78
713.064	19.12
713.467	19.48
713.87	19.85
714.274	20.2
714.677	20.56
715.08	20.88
715.484	21.27
715.887	21.63
716.29	21.98
716.693	22.34
717.096	22.71
717.499	23.09
717.901	23.45
718.304	23.82
718.707	24.17
719.109	24.56
719.512	24.98
719.915	25.33
720.317	25.71
720.719	26.08
721.122	26.42
721.524	26.78
721.926	27.12
722.328	27.46
722.731	27.83
723.133	28.18
723.535	28.52
723.937	28.82
724.338	29.15
724.74	29.43
725.142	29.68
725.544	29.99
725.945	30.29
726.347	30.6
726.748	30.87
727.15	31.14
727.551	31.42
727.952	31.69
728.354	31.95
728.755	32.22
729.156	32.53
729.557	32.87
729.958	33.15
730.359	33.42
730.76	33.65
731.161	33.91
731.562	34.15
731.962	34.37
732.363	34.58
732.763	34.82
733.164	35
733.564	35.16
733.965	35.3
734.365	35.46
734.766	35.61
735.166	35.75
735.566	35.89
735.966	36.03
736.366	36.16
736.766	36.31
737.166	36.44
737.566	36.59
737.966	36.73
738.365	36.89
738.765	37.05
739.165	37.18
739.564	37.32
739.964	37.46
740.363	37.58
740.763	37.7
741.162	37.79
741.561	37.88
741.96	37.99
742.36	38.1
742.759	38.19
743.158	38.25
743.557	38.34
743.955	38.45
744.354	38.54
744.753	38.64
745.152	38.7
745.55	38.8
745.949	38.88
746.348	38.97
746.746	39.04
747.144	39.1
747.543	39.18
747.941	39.26
748.339	39.31
748.737	39.41
749.136	39.45
749.534	39.54
749.932	39.58
750.33	39.62
750.727	39.65
751.125	39.68
751.523	39.73
751.921	39.74
752.318	39.78
752.716	39.78
753.113	39.77
753.511	39.78
753.908	39.77
754.305	39.79
754.703	39.78
755.1	39.78
755.497	39.76
755.894	39.69
756.291	39.63
756.688	39.55
757.085	39.5
757.482	39.47
757.878	39.41
758.275	39.37
758.672	39.35
759.068	39.34
759.465	39.31
759.861	39.29
760.258	39.32
760.654	39.36
761.05	39.42
761.447	39.45
761.843	39.46
762.239	39.51
762.635	39.57
763.031	39.58
763.427	39.59
763.822	39.61
764.218	39.64
764.614	39.69
765.01	39.73
765.405	39.74
765.801	39.78
766.196	39.83
766.592	39.86
766.987	39.87
767.382	39.87
767.778	39.92
768.173	39.95
768.568	39.92
768.963	39.91
769.358	39.91
769.753	39.92
770.148	39.93
770.542	39.89
770.937	39.89
771.332	39.9
771.726	39.91
772.121	39.89
772.515	39.89
772.91	39.92
773.304	39.93
773.699	39.93
774.093	39.9
774.487	39.92
774.881	39.93
775.275	39.91
775.669	39.91
776.063	39.88
776.457	39.87
776.851	39.81
777.245	39.82
777.638	39.76
778.032	39.77
778.425	39.79
778.819	39.76
779.212	39.71
779.606	39.7
779.999	39.69
780.392	39.69
780.786	39.71
781.179	39.74
781.572	39.74
781.965	39.79
782.358	39.76
782.751	39.75
783.143	39.78
783.536	39.85
783.929	39.87
784.322	39.88
784.714	39.91
785.107	39.89
785.499	39.91
785.891	39.92
786.284	39.87
786.676	39.9
787.068	39.89
787.46	39.85
787.852	39.82
788.245	39.8
788.636	39.78
789.028	39.76
789.42	39.75
789.812	39.72
790.204	39.67
790.595	39.69
790.987	39.67
791.378	39.69
791.77	39.67
792.161	39.68
792.553	39.68
792.944	39.68
793.335	39.66
793.726	39.62
794.117	39.62
794.508	39.68
794.899	39.68
795.29	39.68
795.681	39.68
796.072	39.7
796.463	39.62
796.853	39.59
797.244	39.61
797.634	39.59
798.025	39.62
798.415	39.6
798.806	39.6
799.196	39.62
799.586	39.6
799.976	39.58
800.366	39.53
800.756	39.59
801.146	39.58
801.536	39.56
801.926	39.58
802.316	39.58
802.706	39.55
803.095	39.52
803.485	39.51
803.874	39.51
804.264	39.54
804.653	39.57
805.043	39.54
805.432	39.54
805.821	39.49
806.21	39.49
806.599	39.49
806.988	39.5
807.377	39.5
807.766	39.49
808.155	39.51
808.544	39.46
808.933	39.44
809.321	39.47
809.71	39.49
810.098	39.49
810.487	39.48
810.875	39.47
811.264	39.48
811.652	39.48
812.04	39.46
812.428	39.45
812.816	39.45
813.204	39.44
813.592	39.43
813.98	39.4
814.368	39.43
814.756	39.43
815.144	39.44
815.531	39.41
815.919	39.4
816.306	39.38
816.694	39.39
817.081	39.36
817.469	39.37
817.856	39.4
818.243	39.38
818.63	39.41
819.017	39.39
819.404	39.37
819.791	39.39
820.178	39.38
820.565	39.39
820.952	39.39
821.339	39.41
821.725	39.42
822.112	39.39
822.498	39.42
822.885	39.4
823.271	39.41
823.657	39.43
824.044	39.41
824.43	39.42
824.816	39.4
825.202	39.39
825.588	39.41
825.974	39.41
826.36	39.42
826.746	39.41
827.132	39.38
827.517	39.39
827.903	39.37
828.289	39.38
828.674	39.38
829.06	39.4
829.445	39.41
829.83	39.39
830.216	39.39
830.601	39.39
830.986	39.41
831.371	39.45
831.756	39.41
832.141	39.42
832.526	39.43
832.911	39.45
833.295	39.45
833.68	39.44
834.065	39.46
834.449	39.46
834.834	39.45
835.218	39.44
835.603	39.45
835.987	39.46
836.371	39.48
836.755	39.47
837.139	39.46
837.524	39.46
837.908	39.44
838.291	39.42
838.675	39.43
839.059	39.45
839.443	39.44
839.827	39.43
840.21	39.45
840.594	39.42
840.977	39.43
841.361	39.42
841.744	39.43
842.127	39.47
842.511	39.47
842.894	39.45
843.277	39.44
843.66	39.46
844.043	39.46
844.426	39.44
844.809	39.44
845.191	39.44
845.574	39.43
845.957	39.38
846.339	39.37
846.722	39.35
847.104	39.35
847.487	39.36
847.869	39.33
848.252	39.3
848.634	39.32
849.016	39.32
849.398	39.33
849.78	39.35
850.162	39.37
850.544	39.39
850.926	39.39
851.307	39.4
851.689	39.4
852.071	39.41
852.452	39.43
852.834	39.41
853.215	39.41
853.597	39.4
853.978	39.39
854.359	39.4
854.741	39.37
855.122	39.39
855.503	39.39
855.884	39.37
856.265	39.37
856.646	39.38
857.026	39.38
857.407	39.35
857.788	39.37
858.169	39.34
858.549	39.35
858.93	39.36
859.31	39.33
859.69	39.32
860.071	39.34
860.451	39.35
860.831	39.33
861.211	39.32
861.591	39.34
861.971	39.31
862.351	39.32
862.731	39.31
863.111	39.31
863.491	39.32
863.87	39.31
864.25	39.3
864.629	39.27
865.009	39.26
865.388	39.27
865.768	39.28
866.147	39.28
866.526	39.29
866.905	39.29
867.284	39.28
867.663	39.31
868.042	39.3
868.421	39.31
868.8	39.34
869.179	39.33
869.558	39.33
869.936	39.31
870.315	39.32
870.693	39.31
871.072	39.3
871.45	39.3
871.828	39.3
872.207	39.3
872.585	39.29
872.963	39.28
873.341	39.31
873.719	39.3
874.097	39.29
874.475	39.31
874.853	39.31
875.23	39.3
875.608	39.31
875.986	39.27
876.363	39.28
876.741	39.29
877.118	39.27
877.495	39.27
877.873	39.25
878.25	39.27
878.627	39.27
879.004	39.26
879.381	39.25
879.758	39.23
880.135	39.27
880.512	39.26
880.889	39.26
881.265	39.3
881.642	39.29
882.019	39.31
882.395	39.32
882.772	39.3
883.148	39.3
883.524	39.31
883.901	39.32
884.277	39.31
884.653	39.33
885.029	39.3
885.405	39.29
885.781	39.28
886.157	39.28
886.532	39.27
886.908	39.3
887.284	39.32
887.659	39.33
888.035	39.35
888.411	39.36
888.786	39.36
889.161	39.36
889.537	39.37
889.912	39.4
890.287	39.4
890.662	39.4
891.037	39.37
891.412	39.38
891.787	39.38
892.162	39.36
892.536	39.36
892.911	39.36
893.286	39.36
893.66	39.35
894.035	39.33
894.409	39.32
894.784	39.32
895.158	39.34
895.532	39.3
895.906	39.28
896.281	39.28
896.655	39.24
897.029	39.22
897.402	39.22
897.776	39.19
898.15	39.18
898.524	39.17
898.898	39.16
899.271	39.12
899.645	39.12
900.018	39.1
900.392	39.1
900.765	39.11
901.138	39.11
901.511	39.1
901.884	39.12
902.258	39.1
902.631	39.1
903.003	39.09
903.376	39.09
903.749	39.09
904.122	39.11
904.495	39.1
904.867	39.07
905.24	39.06
905.612	39.04
905.985	39.04
906.357	39.04
906.729	39.04
907.102	39.04
907.474	39.05
907.846	39.05
908.218	39.02
908.59	39
908.962	39.02
909.334	39
909.705	38.99
910.077	38.97
910.449	38.94
910.82	38.91
911.192	38.89
911.563	38.88
911.935	38.85
912.306	38.83
912.677	38.85
913.048	38.81
913.419	38.82
913.79	38.81
914.161	38.8
914.532	38.8
914.903	38.82
915.274	38.83
915.645	38.79
916.015	38.78
916.386	38.78
916.756	38.76
917.127	38.77
917.497	38.74
917.868	38.73
918.238	38.74
918.608	38.75
918.978	38.73
919.348	38.73
919.718	38.74
920.088	38.76
920.458	38.77
920.828	38.79
921.198	38.82
921.567	38.81
921.937	38.78
922.306	38.78
922.676	38.76
923.045	38.75
923.415	38.73
923.784	38.73
924.153	38.71
924.522	38.7
924.891	38.67
925.26	38.65
925.629	38.63
925.998	38.64
926.367	38.63
926.736	38.63
927.104	38.63
927.473	38.66
927.842	38.63
928.21	38.64
928.578	38.63
928.947	38.63
929.315	38.58
929.683	38.59
930.051	38.6
930.42	38.55
930.788	38.49
931.156	38.44
931.523	38.38
931.891	38.31
932.259	38.24
932.627	38.15
932.994	38.09
933.362	38.07
933.729	38
934.097	37.95
934.464	37.95
934.831	37.93
935.199	37.88
935.566	37.84
935.933	37.9
936.3	37.86
936.667	37.82
937.034	37.77
937.401	37.69
937.767	37.68
938.134	37.59
938.501	37.5
938.867	37.47
939.234	37.48
939.6	37.42
939.967	37.33
940.333	37.37
940.699	37.46
941.065	37.54
941.431	37.54
941.798	37.54
942.163	37.66
942.529	37.74
942.895	37.78
943.261	37.75
943.627	37.85
943.992	37.9
944.358	37.88
944.723	37.82
945.089	37.83
945.454	37.89
945.82	37.92
946.185	37.99
946.55	37.98
946.915	37.91
947.28	37.98
947.645	37.92
948.01	37.87
948.375	37.91
948.74	37.87
949.104	37.91
949.469	37.87
949.834	37.87
950.198	37.76
950.562	37.72
950.927	37.73
951.291	37.63
951.655	37.59
952.02	37.52
952.384	37.54
952.748	37.55
953.112	37.44
953.476	37.43
953.839	37.39
954.203	37.4
954.567	37.42
954.931	37.45
955.294	37.48
955.658	37.52
956.021	37.58
956.385	37.6
956.748	37.6
957.111	37.52
957.474	37.6
957.837	37.63
958.2	37.55
958.563	37.55
958.926	37.51
959.289	37.49
959.652	37.46
960.015	37.39
960.377	37.35
960.74	37.32
961.102	37.4
961.465	37.33
961.827	37.23
962.189	37.21
962.552	37.11
962.914	37.08
963.276	37.04
963.638	36.99
964	36.96
964.362	36.91
964.724	36.91
965.085	36.83
965.447	36.77
965.809	36.77
966.17	36.78
966.532	36.83
966.893	36.9
967.255	36.85
967.616	36.85
967.977	36.88
968.338	36.86
968.699	36.82
969.061	36.85
969.421	36.86
969.782	36.84
970.143	36.82
970.504	36.78
970.865	36.65
971.225	36.68
971.586	36.71
971.946	36.68
972.307	36.65
972.667	36.63
973.027	36.68
973.388	36.66
973.748	36.69
974.108	36.66
974.468	36.66
974.828	36.68
975.188	36.71
975.548	36.61
975.907	36.62
976.267	36.6
976.627	36.56
976.986	36.51
977.346	36.55
977.705	36.46
978.064	36.49
978.424	36.48
978.783	36.48
979.142	36.43
979.501	36.41
979.86	36.37
980.219	36.33
980.578	36.27
980.937	36.22
981.296	36.19
981.654	36.26
982.013	36.2
982.371	36.09
982.73	36.06
983.088	36.03
983.447	36.05
983.805	36.03
984.163	36.06
984.521	36.12
984.879	36.18
985.237	36.15
985.595	36.11
985.953	36.14
986.311	36.25
986.669	36.24
987.026	36.22
987.384	36.23
987.741	36.35
988.099	36.28
988.456	36.27
988.814	36.12
989.171	36.11
989.528	36.15
989.885	36.08
990.242	36.01
990.599	36.03
990.956	36.01
991.313	35.94
991.67	35.83
992.027	35.81
992.383	35.87
992.74	35.89
993.096	35.8
993.453	35.66
993.809	35.76
994.165	35.83
994.522	35.78
994.878	35.81
995.234	35.85
995.59	35.71
995.946	35.79
996.302	35.62
996.658	35.63
997.013	35.65
997.369	35.66
997.725	35.42
998.08	35.25
998.436	35.32
998.791	35.22
999.147	35.21
999.502	35.25
999.857	35.22
1000.212	35.19
1000.567	35.18
1000.922	35.12
1001.277	35.15
1001.632	35.37
1001.987	35.32
1002.342	35.19
1002.696	35.26
1003.051	34.98
1003.406	34.84
1003.76	34.72
1004.114	34.79
1004.469	34.67
1004.823	34.66
1005.177	34.71
1005.531	34.42
1005.885	34.44
1006.239	34.32
1006.593	34.2
1006.947	34.35
1007.301	34.35
1007.655	34.35
1008.008	34.24
1008.362	34.29
1008.715	34.29
1009.069	34.1
1009.422	34.05
1009.776	34.17
1010.129	34.08
1010.482	34.19
1010.835	34.16
1011.188	34.13
1011.541	33.96
1011.894	34.04
1012.247	33.94
1012.6	33.89
1012.952	33.83
1013.305	33.97
1013.657	33.76
1014.01	33.96
1014.362	33.72
1014.715	33.44
1015.067	33.44
1015.419	33.52
1015.771	33.44
1016.123	33.39
1016.475	33.44
1016.827	33.44
1017.179	33.3
1017.531	33.24
1017.883	33.17
1018.234	33.25
1018.586	33.25
1018.938	32.98
1019.289	32.92
1019.64	32.94
1019.992	32.68
1020.343	32.62
1020.694	32.39
1021.045	32.27
1021.396	32.19
1021.747	32.03
1022.098	32.03
1022.449	32.06
1022.8	31.94
1023.151	31.81
1023.501	31.68
1023.852	31.7
1024.202	31.31
1024.553	31.44
1024.903	31.53
1025.253	31.64
1025.604	31.75
1025.954	31.39
1026.304	31.85
1026.654	32.13
1027.004	32.3
1027.354	32.13
1027.703	32.01
1028.053	32.15
1028.403	31.78
1028.753	31.77
1029.102	31.81
1029.452	31.73
1029.801	32.04
1030.15	31.73
1030.499	31.79
897.758	-59.83
901.051	-65.38
904.343	-62.12
907.636	-63.95
910.928	-57.37
914.22	-61.93
917.511	-60.15
920.803	-60.58
924.094	-52.36
927.384	-50.54
930.675	-49.7
933.965	-48.88
937.255	-44.11
940.544	-44.24
943.834	-40.1
947.123	-40.05
950.411	-34.29
953.7	-32.79
956.988	-32.59
960.276	-30.39
963.563	-24.96
966.851	-19.57
970.138	-18.91
973.424	-15.8
976.711	-13.56
979.997	-11.2
983.283	-12.99
986.568	-9.6
989.853	-7.51
993.138	-4.27
996.423	-3.89
999.708	-3.66
1002.992	-5.04
1006.275	-2.74
1009.559	-1.83
1012.842	-1.47
1016.125	1.39
1019.408	2.37
1022.69	3.29
1025.972	3.54
1029.254	4.06
1032.536	5
1035.817	4.82
1039.098	6.35
1042.379	8.3
1045.659	8.4
1048.939	8.39
1052.219	8.38
1055.498	10.92
1058.778	10.07
1062.057	10.14
1065.335	10.95
1068.614	10.59
1071.892	11.78
1075.17	10.84
1078.447	11.11
1081.724	11.45
1085.001	10.76
1088.278	12.1
1091.554	10.76
1094.83	11.05
1098.106	11.79
1101.382	11.89
1104.657	13.29
1107.932	12.64
1111.206	14.57
1114.481	13
1117.755	12.87
1121.029	14.7
1124.302	14.23
1127.575	15.66
1130.848	15.75
1134.121	15.25
1137.393	15.72
1140.665	14.9
1143.937	14.88
1147.208	13.79
1150.48	15.48
1153.75	15.22
1157.021	15.07
1160.291	14.92
1163.561	14.23
1166.831	14.56
1170.101	14.96
1173.37	15.44
1176.639	15.41
1179.907	15.44
1183.176	16.35
1186.444	15.87
1189.711	16.2
1192.979	15.53
1196.246	15.68
1199.513	16.18
1202.78	15.65
1206.046	15.43
1209.312	15.91
1212.578	15.94
1215.843	16.02
1219.108	14.51
1222.373	14.44
1225.638	14.28
1228.902	14.66
1232.166	13.24
1235.43	11.59
1238.693	12.25
1241.956	10.94
1245.219	9.06
1248.482	9.55
1251.744	9.25
1255.006	11.12
1258.268	10.17
1261.529	10.14
1264.79	11.53
1268.051	11.53
1271.312	13.14
1274.572	13.25
1277.832	15.86
1281.092	15.64
1284.351	16.07
1287.61	16.36
1290.869	15.63
1294.128	16.88
1297.386	16.76
1300.644	15.64
1303.902	16.54
1307.159	15.49
1310.416	15.16
1313.673	14.01
1316.93	13.76
1320.186	13.53
1323.442	11.9
1326.697	11.57
1329.953	10.34
1333.208	8.82
1336.463	7.44
1339.717	6.34
1342.972	6.43
1346.226	3.66
1349.479	2.42
1352.733	1.95
1355.986	-0.41
1359.238	0.18
1362.491	-1.54
1365.743	-3.77
1368.995	-1.13
1372.247	0.05
1375.498	-0.78
1378.749	-5.82
1382	-5.67
1385.251	-6.58
1388.501	-6.63
1391.751	-8.56
1395	-8.65
1398.25	-9.13
1401.499	-9.89
1404.748	-13.36
1407.996	-14.5
1411.244	-14.54
1414.492	-12.98
1417.74	-11.67
1420.987	-11.47
1424.234	-13.35
1427.481	-12.75
1430.728	-12.14
1433.974	-11.97
1437.22	-10.42
1440.465	-9.85
1443.711	-9.63
1446.956	-9.62
1450.201	-8.64
1453.445	-8.32
1456.689	-7.26
1459.933	-5.83
1463.177	-5.15
1466.42	-5.22
1469.663	-4.59
1472.906	-4.02
1476.148	-2.99
1479.391	-2.81
1482.633	-2.15
1485.874	-1.29
1489.115	-0.17
1492.356	0.12
1495.597	-0.06
1498.838	1.03
1502.078	1.69
1505.318	1.99
1508.557	2.08
1511.797	2.55
1515.036	4.72
1518.274	5.33
1521.513	4.92
1524.751	4.35
1527.989	5.44
1531.227	5.9
1534.464	6.67
1537.701	6.7
1540.938	7
1544.174	7.77
1547.41	7.81
1550.646	7.27
1553.882	7.22
1557.117	8.55
1560.352	9.22
1563.587	9.24
1566.821	9.5
1570.055	9.56
1573.289	10.29
1576.523	10.62
1579.756	10.55
1582.989	11.19
1586.222	10.98
1589.454	11.69
1592.686	11.57
1595.918	11.59
1599.15	11.7
1602.381	11.79
1605.612	12.43
1608.843	12.03
1612.073	12.12
1615.303	13.06
1618.533	12.64
1621.762	13.37
1624.992	12.6
1628.221	12.96
1631.449	13.66
1634.678	13.91
1637.906	14.25
1641.134	13.76
1644.361	13.93
1647.588	14.21
1650.815	13.59
1654.042	14.15
1657.269	13.68
1660.495	14.4
1663.72	14.42
1666.946	14.16
1670.171	13.93
1673.396	13.54
1676.621	14.07
1679.845	14.72
1683.069	13.98
1686.293	13.8
1689.517	13.67
1692.74	13.85
1695.963	13.41
1699.185	12.9
1702.408	12.78
1705.63	12.71
1708.852	13.33
1712.073	12.48
1715.294	11.88
1718.515	12.57
1721.736	12.56
1724.956	11.92
1728.176	11.91
1731.396	11.93
1734.616	12.48
1737.835	12.23
1741.054	11.94
1744.272	11.48
1747.491	11.61
1750.709	11.88
1753.927	11.48
1757.144	11.44
1760.361	11.62
1763.578	10.51
1766.795	10.47
1770.011	10.71
1773.227	9.71
1776.443	9.69
1779.658	9.24
1782.874	9.55
1786.089	7.66
1789.303	7.8
1792.518	7.55
1795.732	7.86
1798.945	8.91
1802.159	8.53
1805.372	7.39
1808.585	8.63
1811.797	8.21
1815.01	8.33
1818.222	7.68
1821.434	8.68
1824.645	7.53
1827.856	7.16
1831.067	6.19
1834.278	6.46
1837.488	6.34
1840.698	5.42
1843.908	5.03
1847.117	4.71
1850.326	3.66
1853.535	3.45
1856.744	2.49
1859.952	2.6
1863.16	1.23
1866.368	1.13
1869.575	-0.29
1872.782	-2.46
1875.989	-3.5
1879.196	-3.63
1882.402	-5.36
1885.608	-5.08
1888.814	-6.76
1892.019	-7.89
1895.224	-8.88
1898.429	-9.48
1901.634	-10.27
1904.838	-12.19
1908.042	-11.24
1911.246	-11.12
1914.449	-11.94
1917.652	-12.66
1920.855	-14.06
1924.058	-13.35
1927.26	-14.54
1930.462	-14.66
1933.664	-13.31
1936.865	-13.76
1940.066	-13.49
1943.267	-14.07
1946.467	-15.17
1949.668	-15.23
1952.868	-13.71
1956.067	-13.98
1959.267	-13.62
1962.466	-13.44
1965.665	-12.55
1968.863	-13.21
1972.061	-13.36
1975.259	-13.52
1978.457	-13.78
1981.654	-12.32
1984.852	-12.79
1988.048	-13.45
1991.245	-12.86
1994.441	-14
1997.637	-13.68
2000.833	-13.79
2004.028	-14.74
2007.223	-15.38
2010.418	-14.64
2013.613	-14.41
2016.807	-15.34
2020.001	-16.16
2023.194	-14.72
2026.388	-15.87
2029.581	-17.25
2032.774	-17.44
2035.966	-19.89
2039.158	-18.84
2042.35	-19.31
2045.542	-20.11
2048.733	-20.19
2051.924	-23.84
2055.115	-23.96
2058.306	-26.29
2061.496	-27.74
2064.686	-28.04
2067.875	-24.87
2071.065	-24.56
2074.254	-25.29
2077.442	-26.55
2080.631	-28.06
2083.819	-28.86
2087.007	-24.96
2090.195	-24.74
2093.382	-25.02
2096.569	-24.31
2099.756	-20.63
2102.942	-24.64
2106.128	-26.84
2109.314	-26
2112.5	-24.62
2115.685	-25.29
2118.87	-24.58
2122.055	-26.37
2125.239	-28.37
2128.424	-27.5
2131.608	-29.71
2134.791	-30.99
2137.974	-32.75
2141.157	-28.2
2144.34	-29.45
2147.523	-30.65
2150.705	-28.81
2153.887	-29.76
2157.068	-29.13
2160.25	-29.84
2163.431	-27.58
2166.611	-26.99
2169.792	-28.9
2172.972	-24.86
2176.152	-27.74
2179.331	-29.34
2182.511	-29.5
2185.69	-29.91
2188.868	-35.06
2192.047	-34.63
2195.225	-32.97
2198.403	-38.82
2201.58	-36.43
2204.758	-38.76
2207.935	-43.24
2211.111	-46.19
2214.288	-44.17
2217.464	-43.42
2220.64	-44.82
2223.815	-43.67
2226.991	-43.75
2230.166	-42.66
2233.34	-44.91
2236.515	-48.67
2239.689	-47.91
2242.863	-47.63
2246.036	-43.88
2249.209	-49.31
2252.382	-49.41
2255.555	-53.05
2258.727	-51.13
2261.9	-56.3
2265.071	-56.87
2268.243	-54.95
2271.414	-57.45
2274.585	-62.34
2277.756	-61.1
2280.926	-67.35
2284.096	-63.86
2287.266	-66.58
2290.436	-61.27
2293.605	-61.9
2296.774	-61.63
2299.942	-65.36
2303.111	-68.47
2306.279	-66.34
2309.447	-61.74
2312.614	-63.89
2315.781	-67.22
2318.948	-70.7
2322.115	-69.59
2325.281	-83.65
2328.447	-87.92
2331.613	-87.07
2334.779	-88.77
2337.944	-88.63
2341.109	-93.62
2344.274	-99.15
2347.438	-98.06
2350.602	-99.38
2353.766	-104.23
2356.929	-104.13
2360.092	-101.36
2363.255	-95.76
2366.418	-99.81
2369.58	-100.25
2372.742	-104.39
2375.904	-100.92
2379.066	-98.05
2382.227	-114.84
2385.388	-113.34
2388.548	-105.23
2391.709	-103.4
2394.869	-106.17
2398.029	-106.7
2401.188	-105.76
2404.347	-116.08
2407.506	-115.45
2410.665	-111.45
2413.823	-115.56
2416.981	-112.33
2420.139	-102.68
2423.296	-112.25
2426.453	-122.52
2429.61	-117.81
2432.767	-126.06
2435.923	-132.62
2439.079	-116.72
2442.235	-133.39
2445.391	-131.3
2448.546	-125.89
2451.701	-139.02
2454.855	-153.42
2458.009	-127.98
2461.163	-132.71
2464.317	-126.01
2467.471	-129.43
2470.624	-133.37
2473.777	-136.31
2476.929	-115.09
2480.082	-136.81
2483.234	-147.49
2486.385	-142.85
2489.537	-142.94
2492.688	-171.8
2495.839	-163.72
2498.989	-171.58
2502.14	-167.7
2505.29	-151.63
2508.439	-187.55
2511.589	-198.39
2514.738	-191.14
2517.887	-191.24
2521.035	-180.18
2524.183	-180.82
2527.331	-167.84
2530.479	-167.52
2533.627	-175.02
