Data from c_1_hir_il_4n_023_Splice17_06.txt Node
Date: Sat Feb 29 13:19:23 EST 2020
User: sa697716
Spectrometer: FLMS03696
Trigger mode: 0
Integration Time (sec): 3.180400E-1
Scans to average: 20
Electric dark correction enabled: true
Nonlinearity correction enabled: true
Boxcar width: 5
XAxis mode: Wavelengths
Number of Pixels in Spectrum: 2048
>>>>>Begin Spectral Data<<<<<
187.83	53.79
188.298	40.58
188.766	38.37
189.233	28.14
189.701	42.18
190.169	47.68
190.636	40.36
191.104	46.3
191.571	314.13
192.039	372.65
192.506	-604.67
192.974	515.45
193.441	-21.95
193.908	55.78
194.375	-56.83
194.842	53.26
195.31	30.05
195.777	-55.88
196.244	3.74
196.711	31.44
197.177	32.44
197.644	34.68
198.111	32.9
198.578	32.08
199.045	32.46
199.511	33.78
199.978	33.99
200.445	34.17
200.911	34.77
201.378	35.04
201.844	35.39
202.31	35.71
202.777	35.42
203.243	36.02
203.709	36.44
204.176	36.12
204.642	35.61
205.108	35.4
205.574	35.73
206.04	35.75
206.506	35.47
206.972	34.87
207.438	34.04
207.903	34.13
208.369	33.33
208.835	32.71
209.301	32.15
209.766	31.91
210.232	31.55
210.697	30.83
211.163	30.17
211.628	29.56
212.094	29.12
212.559	28.89
213.024	28.16
213.49	27.73
213.955	27.47
214.42	26.96
214.885	26.09
215.35	25.23
215.815	24.26
216.28	23.03
216.745	22.06
217.21	20.93
217.675	19.61
218.14	18.33
218.604	17.19
219.069	16.34
219.534	15.62
219.998	15
220.463	14.44
220.927	13.97
221.392	13.64
221.856	13.23
222.32	12.88
222.785	12.61
223.249	12.39
223.713	12.19
224.177	11.94
224.642	11.71
225.106	11.51
225.57	11.31
226.034	11.11
226.497	10.86
226.961	10.66
227.425	10.46
227.889	10.29
228.353	10.11
228.816	9.97
229.28	9.78
229.744	9.65
230.207	9.52
230.671	9.38
231.134	9.25
231.597	9.13
232.061	9.03
232.524	8.92
232.987	8.81
233.45	8.71
233.914	8.59
234.377	8.51
234.84	8.4
235.303	8.29
235.766	8.2
236.229	8.11
236.691	8.04
237.154	7.95
237.617	7.88
238.08	7.8
238.542	7.71
239.005	7.63
239.468	7.54
239.93	7.48
240.393	7.41
240.855	7.33
241.317	7.27
241.78	7.21
242.242	7.13
242.704	7.06
243.166	7.01
243.629	6.95
244.091	6.89
244.553	6.85
245.015	6.78
245.477	6.72
245.939	6.67
246.4	6.6
246.862	6.55
247.324	6.5
247.786	6.45
248.247	6.39
248.709	6.34
249.17	6.3
249.632	6.24
250.093	6.18
250.555	6.13
251.016	6.08
251.477	6.02
251.939	5.97
252.4	5.93
252.861	5.89
253.322	5.85
253.783	5.82
254.244	5.79
254.705	5.76
255.166	5.75
255.627	5.71
256.088	5.67
256.549	5.65
257.009	5.62
257.47	5.6
257.931	5.56
258.391	5.53
258.852	5.48
259.312	5.44
259.773	5.41
260.233	5.36
260.694	5.33
261.154	5.3
261.614	5.26
262.074	5.23
262.534	5.18
262.994	5.15
263.455	5.12
263.915	5.09
264.374	5.06
264.834	5.03
265.294	5
265.754	4.97
266.214	4.95
266.673	4.94
267.133	4.91
267.593	4.89
268.052	4.87
268.512	4.85
268.971	4.83
269.431	4.82
269.89	4.79
270.349	4.78
270.809	4.77
271.268	4.75
271.727	4.73
272.186	4.71
272.645	4.7
273.104	4.68
273.563	4.67
274.022	4.66
274.481	4.64
274.94	4.63
275.399	4.62
275.857	4.6
276.316	4.59
276.775	4.57
277.233	4.55
277.692	4.52
278.15	4.51
278.609	4.49
279.067	4.47
279.525	4.45
279.984	4.43
280.442	4.41
280.9	4.4
281.358	4.37
281.816	4.36
282.274	4.35
282.732	4.34
283.19	4.33
283.648	4.31
284.106	4.31
284.564	4.3
285.021	4.29
285.479	4.28
285.937	4.27
286.394	4.26
286.852	4.25
287.309	4.24
287.767	4.22
288.224	4.2
288.682	4.2
289.139	4.19
289.596	4.17
290.053	4.14
290.511	4.12
290.968	4.11
291.425	4.09
291.882	4.07
292.339	4.06
292.796	4.03
293.252	4.02
293.709	3.99
294.166	3.97
294.623	3.96
295.079	3.94
295.536	3.93
295.992	3.91
296.449	3.89
296.905	3.88
297.362	3.85
297.818	3.85
298.274	3.83
298.731	3.83
299.187	3.82
299.643	3.8
300.099	3.8
300.555	3.78
301.011	3.78
301.467	3.76
301.923	3.76
302.379	3.76
302.835	3.75
303.291	3.74
303.746	3.73
304.202	3.71
304.658	3.71
305.113	3.7
305.569	3.7
306.024	3.69
306.479	3.69
306.935	3.69
307.39	3.68
307.845	3.67
308.301	3.67
308.756	3.67
309.211	3.67
309.666	3.67
310.121	3.66
310.576	3.65
311.031	3.64
311.486	3.63
311.94	3.63
312.395	3.63
312.85	3.62
313.305	3.61
313.759	3.61
314.214	3.6
314.668	3.59
315.123	3.58
315.577	3.58
316.032	3.57
316.486	3.57
316.94	3.56
317.394	3.56
317.849	3.55
318.303	3.54
318.757	3.53
319.211	3.52
319.665	3.51
320.119	3.5
320.572	3.49
321.026	3.48
321.48	3.47
321.934	3.46
322.387	3.46
322.841	3.44
323.295	3.44
323.748	3.44
324.202	3.43
324.655	3.43
325.108	3.42
325.562	3.41
326.015	3.41
326.468	3.39
326.921	3.38
327.374	3.38
327.827	3.37
328.28	3.36
328.733	3.35
329.186	3.35
329.639	3.33
330.092	3.34
330.545	3.33
330.997	3.33
331.45	3.33
331.903	3.32
332.355	3.32
332.808	3.31
333.26	3.31
333.713	3.31
334.165	3.31
334.617	3.31
335.069	3.32
335.522	3.32
335.974	3.32
336.426	3.32
336.878	3.31
337.33	3.31
337.782	3.31
338.234	3.31
338.686	3.3
339.137	3.31
339.589	3.3
340.041	3.29
340.493	3.28
340.944	3.27
341.396	3.27
341.847	3.27
342.299	3.25
342.75	3.22
343.201	3.21
343.653	3.2
344.104	3.18
344.555	3.17
345.006	3.16
345.457	3.15
345.908	3.14
346.359	3.13
346.81	3.13
347.261	3.13
347.712	3.13
348.163	3.13
348.613	3.12
349.064	3.12
349.515	3.1
349.965	3.09
350.416	3.08
350.866	3.08
351.317	3.07
351.767	3.06
352.217	3.05
352.668	3.04
353.118	3.04
353.568	3.05
354.018	3.06
354.468	3.05
354.918	3.06
355.368	3.06
355.818	3.05
356.268	3.05
356.718	3.05
357.168	3.04
357.617	3.03
358.067	3.03
358.517	3.02
358.966	3.01
359.416	3.03
359.865	3.02
360.315	3.03
360.764	3.02
361.213	3.02
361.663	3.01
362.112	3.03
362.561	3.03
363.01	3.03
363.459	3.03
363.908	3.04
364.357	3.03
364.806	3.03
365.255	3.03
365.703	3.03
366.152	3.03
366.601	3.04
367.05	3.04
367.498	3.05
367.947	3.05
368.395	3.07
368.844	3.06
369.292	3.06
369.74	3.07
370.189	3.06
370.637	3.06
371.085	3.07
371.533	3.07
371.981	3.07
372.429	3.06
372.877	3.06
373.325	3.05
373.773	3.06
374.221	3.07
374.669	3.07
375.116	3.08
375.564	3.1
376.012	3.1
376.459	3.12
376.907	3.12
377.354	3.12
377.801	3.14
378.249	3.16
378.696	3.18
379.143	3.19
379.591	3.21
380.038	3.22
380.485	3.24
380.932	3.26
381.379	3.26
381.826	3.29
382.273	3.31
382.72	3.33
383.166	3.34
383.613	3.36
384.06	3.36
384.506	3.38
384.953	3.4
385.4	3.41
385.846	3.42
386.292	3.43
386.739	3.45
387.185	3.47
387.631	3.48
388.078	3.49
388.524	3.49
388.97	3.51
389.416	3.52
389.862	3.53
390.308	3.54
390.754	3.57
391.2	3.59
391.645	3.6
392.091	3.61
392.537	3.63
392.983	3.67
393.428	3.69
393.874	3.71
394.319	3.72
394.765	3.74
395.21	3.73
395.655	3.75
396.101	3.77
396.546	3.79
396.991	3.79
397.436	3.78
397.881	3.78
398.326	3.8
398.771	3.81
399.216	3.84
399.661	3.86
400.106	3.88
400.551	3.88
400.995	3.87
401.44	3.87
401.885	3.88
402.329	3.91
402.774	3.91
403.218	3.9
403.663	3.89
404.107	3.89
404.551	3.9
404.995	3.9
405.44	3.91
405.884	3.92
406.328	3.92
406.772	3.93
407.216	3.92
407.66	3.92
408.104	3.93
408.547	3.94
408.991	3.94
409.435	3.92
409.879	3.91
410.322	3.91
410.766	3.92
411.209	3.91
411.653	3.9
412.096	3.89
412.54	3.89
412.983	3.9
413.426	3.9
413.869	3.92
414.312	3.95
414.756	3.97
415.199	3.97
415.642	3.99
416.085	4
416.527	4.02
416.97	4.05
417.413	4.04
417.856	4.03
418.298	4.03
418.741	4.03
419.184	4.02
419.626	4.01
420.069	4.02
420.511	4.02
420.953	4.01
421.396	4.02
421.838	4.03
422.28	4.05
422.722	4.07
423.164	4.07
423.606	4.08
424.048	4.06
424.49	4.06
424.932	4.03
425.374	4.02
425.816	4.02
426.258	4.01
426.699	3.98
427.141	3.96
427.582	3.97
428.024	3.97
428.465	3.97
428.907	3.99
429.348	3.98
429.789	4
430.231	4.01
430.672	4
431.113	4
431.554	4
431.995	4.02
432.436	4.01
432.877	3.99
433.318	3.98
433.759	3.99
434.2	3.99
434.64	4.01
435.081	4.01
435.522	4.04
435.962	4.06
436.403	4.09
436.843	4.08
437.284	4.1
437.724	4.13
438.164	4.15
438.604	4.16
439.045	4.15
439.485	4.14
439.925	4.13
440.365	4.11
440.805	4.11
441.245	4.09
441.685	4.1
442.125	4.11
442.564	4.11
443.004	4.1
443.444	4.11
443.883	4.14
444.323	4.14
444.762	4.17
445.202	4.23
445.641	4.23
446.081	4.25
446.52	4.25
446.959	4.25
447.398	4.27
447.837	4.3
448.276	4.3
448.716	4.31
449.154	4.35
449.593	4.36
450.032	4.33
450.471	4.34
450.91	4.34
451.349	4.34
451.787	4.35
452.226	4.32
452.664	4.28
453.103	4.29
453.541	4.27
453.98	4.24
454.418	4.22
454.856	4.21
455.295	4.2
455.733	4.2
456.171	4.19
456.609	4.18
457.047	4.18
457.485	4.19
457.923	4.18
458.361	4.17
458.798	4.18
459.236	4.17
459.674	4.18
460.111	4.18
460.549	4.16
460.987	4.16
461.424	4.16
461.862	4.16
462.299	4.16
462.736	4.18
463.173	4.18
463.611	4.17
464.048	4.18
464.485	4.19
464.922	4.19
465.359	4.2
465.796	4.16
466.233	4.17
466.67	4.16
467.106	4.16
467.543	4.16
467.98	4.17
468.416	4.17
468.853	4.16
469.29	4.17
469.726	4.17
470.162	4.17
470.599	4.19
471.035	4.2
471.471	4.18
471.907	4.17
472.344	4.17
472.78	4.16
473.216	4.16
473.652	4.16
474.088	4.17
474.523	4.16
474.959	4.15
475.395	4.14
475.831	4.15
476.266	4.15
476.702	4.15
477.138	4.13
477.573	4.12
478.008	4.11
478.444	4.09
478.879	4.06
479.314	4.06
479.75	4.07
480.185	4.07
480.62	4.06
481.055	4.04
481.49	4.03
481.925	4.02
482.36	4.01
482.795	4
483.229	3.99
483.664	4
484.099	3.99
484.534	3.98
484.968	3.98
485.403	3.97
485.837	3.97
486.271	3.97
486.706	3.97
487.14	3.99
487.574	3.99
488.009	3.99
488.443	4.01
488.877	4
489.311	4.02
489.745	4.02
490.179	4.03
490.613	4.05
491.046	4.07
491.48	4.09
491.914	4.11
492.348	4.13
492.781	4.15
493.215	4.17
493.648	4.21
494.082	4.24
494.515	4.27
494.948	4.3
495.382	4.33
495.815	4.37
496.248	4.41
496.681	4.45
497.114	4.49
497.547	4.54
497.98	4.59
498.413	4.64
498.846	4.7
499.279	4.76
499.711	4.81
500.144	4.87
500.577	4.94
501.009	5
501.442	5.07
501.874	5.15
502.306	5.23
502.739	5.31
503.171	5.41
503.603	5.5
504.036	5.59
504.468	5.7
504.9	5.82
505.332	5.93
505.764	6.06
506.196	6.2
506.627	6.33
507.059	6.48
507.491	6.65
507.923	6.8
508.354	6.96
508.786	7.13
509.217	7.29
509.649	7.47
510.08	7.66
510.512	7.85
510.943	8.06
511.374	8.25
511.805	8.45
512.237	8.64
512.668	8.86
513.099	9.09
513.53	9.32
513.961	9.57
514.391	9.8
514.822	10.04
515.253	10.28
515.684	10.51
516.114	10.79
516.545	11.06
516.975	11.32
517.406	11.58
517.836	11.85
518.267	12.13
518.697	12.42
519.127	12.7
519.558	12.98
519.988	13.25
520.418	13.53
520.848	13.8
521.278	14.08
521.708	14.32
522.138	14.58
522.567	14.83
522.997	15.08
523.427	15.32
523.857	15.56
524.286	15.81
524.716	16.03
525.145	16.27
525.575	16.49
526.004	16.7
526.433	16.93
526.863	17.15
527.292	17.34
527.721	17.52
528.15	17.69
528.579	17.87
529.008	18.05
529.437	18.22
529.866	18.34
530.295	18.49
530.724	18.64
531.152	18.77
531.581	18.87
532.01	19.01
532.438	19.13
532.867	19.24
533.295	19.34
533.723	19.42
534.152	19.5
534.58	19.59
535.008	19.66
535.436	19.73
535.865	19.79
536.293	19.87
536.721	19.91
537.149	19.95
537.576	20
538.004	20.04
538.432	20.09
538.86	20.14
539.287	20.18
539.715	20.22
540.143	20.22
540.57	20.24
540.998	20.28
541.425	20.33
541.852	20.37
542.28	20.38
542.707	20.44
543.134	20.47
543.561	20.48
543.988	20.5
544.415	20.54
544.842	20.59
545.269	20.64
545.696	20.66
546.123	20.68
546.549	20.71
546.976	20.76
547.403	20.75
547.829	20.75
548.256	20.77
548.682	20.76
549.108	20.76
549.535	20.76
549.961	20.76
550.387	20.75
550.813	20.74
551.24	20.73
551.666	20.73
552.092	20.72
552.518	20.7
552.943	20.68
553.369	20.68
553.795	20.66
554.221	20.63
554.646	20.6
555.072	20.57
555.498	20.52
555.923	20.46
556.349	20.37
556.774	20.29
557.199	20.23
557.625	20.16
558.05	20.05
558.475	19.95
558.9	19.86
559.325	19.76
559.75	19.64
560.175	19.53
560.6	19.43
561.025	19.34
561.449	19.22
561.874	19.1
562.299	18.96
562.723	18.85
563.148	18.7
563.572	18.56
563.997	18.42
564.421	18.28
564.846	18.12
565.27	17.95
565.694	17.79
566.118	17.64
566.542	17.48
566.966	17.33
567.39	17.16
567.814	17
568.238	16.8
568.662	16.63
569.086	16.47
569.509	16.31
569.933	16.16
570.357	15.98
570.78	15.81
571.204	15.65
571.627	15.5
572.05	15.34
572.474	15.2
572.897	15.08
573.32	14.93
573.743	14.79
574.166	14.64
574.589	14.52
575.012	14.39
575.435	14.26
575.858	14.13
576.281	14.01
576.704	13.89
577.126	13.77
577.549	13.67
577.972	13.57
578.394	13.45
578.817	13.35
579.239	13.24
579.661	13.14
580.084	13.05
580.506	12.97
580.928	12.88
581.35	12.8
581.772	12.71
582.194	12.63
582.616	12.56
583.038	12.49
583.46	12.43
583.882	12.36
584.303	12.3
584.725	12.24
585.147	12.14
585.568	12.06
585.99	11.99
586.411	11.93
586.833	11.88
587.254	11.82
587.675	11.76
588.096	11.71
588.518	11.65
588.939	11.59
589.36	11.54
589.781	11.53
590.202	11.47
590.623	11.44
591.043	11.39
591.464	11.34
591.885	11.29
592.305	11.25
592.726	11.2
593.147	11.18
593.567	11.15
593.987	11.13
594.408	11.11
594.828	11.09
595.248	11.05
595.669	11.03
596.089	11
596.509	10.97
596.929	10.93
597.349	10.9
597.769	10.85
598.189	10.84
598.608	10.79
599.028	10.75
599.448	10.72
599.867	10.68
600.287	10.65
600.706	10.62
601.126	10.58
601.545	10.55
601.965	10.51
602.384	10.45
602.803	10.39
603.222	10.34
603.641	10.28
604.061	10.21
604.48	10.17
604.898	10.1
605.317	10.03
605.736	9.97
606.155	9.89
606.574	9.84
606.992	9.77
607.411	9.72
607.829	9.61
608.248	9.54
608.666	9.47
609.085	9.39
609.503	9.32
609.921	9.25
610.339	9.19
610.758	9.12
611.176	9.05
611.594	8.98
612.012	8.9
612.43	8.87
612.847	8.81
613.265	8.75
613.683	8.68
614.101	8.61
614.518	8.54
614.936	8.46
615.353	8.4
615.771	8.34
616.188	8.29
616.606	8.22
617.023	8.17
617.44	8.12
617.857	8.07
618.274	8.03
618.691	7.99
619.108	7.97
619.525	7.94
619.942	7.91
620.359	7.89
620.776	7.87
621.192	7.85
621.609	7.83
622.026	7.8
622.442	7.78
622.859	7.77
623.275	7.76
623.691	7.74
624.108	7.72
624.524	7.71
624.94	7.69
625.356	7.68
625.772	7.66
626.188	7.67
626.604	7.65
627.02	7.64
627.436	7.63
627.852	7.61
628.268	7.61
628.683	7.59
629.099	7.57
629.514	7.56
629.93	7.54
630.345	7.52
630.761	7.48
631.176	7.48
631.591	7.45
632.007	7.41
632.422	7.39
632.837	7.34
633.252	7.31
633.667	7.26
634.082	7.22
634.497	7.15
634.911	7.09
635.326	7.02
635.741	6.95
636.155	6.89
636.57	6.83
636.984	6.74
637.399	6.65
637.813	6.57
638.228	6.5
638.642	6.43
639.056	6.36
639.47	6.28
639.884	6.21
640.298	6.14
640.712	6.05
641.126	5.97
641.54	5.92
641.954	5.86
642.368	5.8
642.781	5.72
643.195	5.64
643.609	5.57
644.022	5.51
644.436	5.44
644.849	5.39
645.262	5.33
645.676	5.26
646.089	5.2
646.502	5.13
646.915	5.09
647.328	5.05
647.741	5.01
648.154	4.97
648.567	4.92
648.98	4.89
649.393	4.85
649.805	4.82
650.218	4.82
650.631	4.79
651.043	4.79
651.456	4.75
651.868	4.73
652.28	4.71
652.693	4.68
653.105	4.67
653.517	4.64
653.929	4.62
654.341	4.6
654.753	4.55
655.165	4.52
655.577	4.47
655.989	4.43
656.401	4.39
656.813	4.35
657.224	4.31
657.636	4.25
658.047	4.22
658.459	4.16
658.87	4.11
659.282	4.09
659.693	4.05
660.104	4.02
660.515	4.01
660.926	3.98
661.338	3.95
661.749	3.91
662.159	3.89
662.57	3.86
662.981	3.84
663.392	3.8
663.803	3.78
664.213	3.75
664.624	3.73
665.035	3.7
665.445	3.69
665.855	3.68
666.266	3.68
666.676	3.67
667.086	3.65
667.497	3.64
667.907	3.64
668.317	3.63
668.727	3.63
669.137	3.62
669.547	3.63
669.956	3.63
670.366	3.64
670.776	3.63
671.186	3.63
671.595	3.65
672.005	3.67
672.414	3.68
672.824	3.72
673.233	3.74
673.642	3.76
674.052	3.77
674.461	3.79
674.87	3.81
675.279	3.84
675.688	3.86
676.097	3.9
676.506	3.92
676.915	3.95
677.323	3.96
677.732	4
678.141	4.04
678.549	4.08
678.958	4.1
679.366	4.13
679.775	4.17
680.183	4.22
680.592	4.24
681	4.28
681.408	4.33
681.816	4.37
682.224	4.41
682.632	4.47
683.04	4.53
683.448	4.59
683.856	4.67
684.264	4.75
684.671	4.84
685.079	4.95
685.487	5.07
685.894	5.2
686.302	5.33
686.709	5.47
687.116	5.64
687.524	5.84
687.931	6.05
688.338	6.29
688.745	6.54
689.152	6.83
689.559	7.13
689.966	7.46
690.373	7.82
690.78	8.19
691.187	8.59
691.593	9.01
692	9.44
692.407	9.91
692.813	10.38
693.22	10.85
693.626	11.34
694.032	11.86
694.439	12.39
694.845	12.92
695.251	13.48
695.657	14.06
696.063	14.63
696.469	15.21
696.875	15.78
697.281	16.37
697.687	16.98
698.093	17.59
698.498	18.18
698.904	18.8
699.31	19.39
699.715	19.99
700.12	20.58
700.526	21.19
700.931	21.77
701.337	22.38
701.742	22.96
702.147	23.54
702.552	24.13
702.957	24.68
703.362	25.24
703.767	25.81
704.172	26.39
704.577	26.93
704.981	27.48
705.386	28.03
705.791	28.59
706.195	29.13
706.6	29.66
707.004	30.21
707.408	30.74
707.813	31.26
708.217	31.77
708.621	32.28
709.025	32.81
709.43	33.29
709.834	33.81
710.237	34.29
710.641	34.8
711.045	35.29
711.449	35.74
711.853	36.23
712.256	36.72
712.66	37.19
713.064	37.66
713.467	38.12
713.87	38.61
714.274	39.04
714.677	39.47
715.08	39.86
715.484	40.3
715.887	40.7
716.29	41.1
716.693	41.5
717.096	41.91
717.499	42.31
717.901	42.68
718.304	43.04
718.707	43.37
719.109	43.75
719.512	44.15
719.915	44.48
720.317	44.89
720.719	45.22
721.122	45.56
721.524	45.89
721.926	46.2
722.328	46.51
722.731	46.84
723.133	47.18
723.535	47.47
723.937	47.75
724.338	48.03
724.74	48.29
725.142	48.45
725.544	48.69
725.945	48.91
726.347	49.17
726.748	49.39
727.15	49.58
727.551	49.81
727.952	50.01
728.354	50.22
728.755	50.43
729.156	50.66
729.557	50.99
729.958	51.23
730.359	51.43
730.76	51.54
731.161	51.73
731.562	51.91
731.962	52.08
732.363	52.24
732.763	52.4
733.164	52.54
733.564	52.65
733.965	52.73
734.365	52.8
734.766	52.93
735.166	53.02
735.566	53.11
735.966	53.21
736.366	53.29
736.766	53.39
737.166	53.49
737.566	53.6
737.966	53.67
738.365	53.75
738.765	53.87
739.165	53.9
739.564	54.02
739.964	54.12
740.363	54.21
740.763	54.29
741.162	54.33
741.561	54.37
741.96	54.43
742.36	54.51
742.759	54.56
743.158	54.57
743.557	54.65
743.955	54.74
744.354	54.81
744.753	54.87
745.152	54.9
745.55	54.98
745.949	55.02
746.348	55.07
746.746	55.11
747.144	55.18
747.543	55.24
747.941	55.3
748.339	55.33
748.737	55.36
749.136	55.38
749.534	55.44
749.932	55.45
750.33	55.48
750.727	55.51
751.125	55.53
751.523	55.55
751.921	55.57
752.318	55.58
752.716	55.59
753.113	55.6
753.511	55.59
753.908	55.57
754.305	55.55
754.703	55.53
755.1	55.5
755.497	55.49
755.894	55.48
756.291	55.45
756.688	55.43
757.085	55.41
757.482	55.41
757.878	55.42
758.275	55.42
758.672	55.47
759.068	55.51
759.465	55.54
759.861	55.55
760.258	55.53
760.654	55.54
761.05	55.54
761.447	55.53
761.843	55.49
762.239	55.48
762.635	55.49
763.031	55.46
763.427	55.42
763.822	55.37
764.218	55.34
764.614	55.37
765.01	55.37
765.405	55.36
765.801	55.34
766.196	55.37
766.592	55.38
766.987	55.34
767.382	55.32
767.778	55.32
768.173	55.34
768.568	55.35
768.963	55.35
769.358	55.35
769.753	55.38
770.148	55.4
770.542	55.38
770.937	55.37
771.332	55.4
771.726	55.4
772.121	55.38
772.515	55.39
772.91	55.4
773.304	55.38
773.699	55.37
774.093	55.33
774.487	55.32
774.881	55.31
775.275	55.3
775.669	55.27
776.063	55.27
776.457	55.27
776.851	55.23
777.245	55.25
777.638	55.26
778.032	55.29
778.425	55.29
778.819	55.3
779.212	55.27
779.606	55.29
779.999	55.31
780.392	55.31
780.786	55.34
781.179	55.35
781.572	55.32
781.965	55.3
782.358	55.25
782.751	55.28
783.143	55.31
783.536	55.34
783.929	55.34
784.322	55.31
784.714	55.31
785.107	55.32
785.499	55.32
785.891	55.3
786.284	55.29
786.676	55.29
787.068	55.27
787.46	55.23
787.852	55.24
788.245	55.22
788.636	55.22
789.028	55.21
789.42	55.19
789.812	55.16
790.204	55.15
790.595	55.13
790.987	55.14
791.378	55.14
791.77	55.2
792.161	55.17
792.553	55.17
792.944	55.16
793.335	55.17
793.726	55.17
794.117	55.16
794.508	55.22
794.899	55.24
795.29	55.26
795.681	55.26
796.072	55.24
796.463	55.23
796.853	55.23
797.244	55.24
797.634	55.24
798.025	55.25
798.415	55.28
798.806	55.26
799.196	55.3
799.586	55.27
799.976	55.28
800.366	55.26
800.756	55.25
801.146	55.26
801.536	55.28
801.926	55.28
802.316	55.33
802.706	55.34
803.095	55.35
803.485	55.36
803.874	55.38
804.264	55.4
804.653	55.4
805.043	55.44
805.432	55.42
805.821	55.44
806.21	55.46
806.599	55.45
806.988	55.44
807.377	55.45
807.766	55.42
808.155	55.43
808.544	55.39
808.933	55.42
809.321	55.42
809.71	55.45
810.098	55.44
810.487	55.45
810.875	55.4
811.264	55.41
811.652	55.41
812.04	55.43
812.428	55.41
812.816	55.43
813.204	55.42
813.592	55.42
813.98	55.41
814.368	55.39
814.756	55.37
815.144	55.4
815.531	55.35
815.919	55.35
816.306	55.34
816.694	55.36
817.081	55.34
817.469	55.34
817.856	55.37
818.243	55.37
818.63	55.41
819.017	55.45
819.404	55.44
819.791	55.47
820.178	55.45
820.565	55.46
820.952	55.46
821.339	55.49
821.725	55.52
822.112	55.53
822.498	55.53
822.885	55.52
823.271	55.52
823.657	55.52
824.044	55.52
824.43	55.54
824.816	55.54
825.202	55.55
825.588	55.57
825.974	55.54
826.36	55.53
826.746	55.56
827.132	55.53
827.517	55.52
827.903	55.52
828.289	55.55
828.674	55.56
829.06	55.55
829.445	55.57
829.83	55.56
830.216	55.63
830.601	55.63
830.986	55.62
831.371	55.68
831.756	55.64
832.141	55.68
832.526	55.7
832.911	55.72
833.295	55.73
833.68	55.73
834.065	55.73
834.449	55.69
834.834	55.65
835.218	55.65
835.603	55.64
835.987	55.69
836.371	55.7
836.755	55.67
837.139	55.66
837.524	55.66
837.908	55.65
838.291	55.67
838.675	55.67
839.059	55.72
839.443	55.7
839.827	55.7
840.21	55.71
840.594	55.7
840.977	55.69
841.361	55.71
841.744	55.73
842.127	55.73
842.511	55.71
842.894	55.7
843.277	55.68
843.66	55.7
844.043	55.73
844.426	55.7
844.809	55.69
845.191	55.67
845.574	55.68
845.957	55.68
846.339	55.66
846.722	55.66
847.104	55.66
847.487	55.66
847.869	55.66
848.252	55.62
848.634	55.63
849.016	55.66
849.398	55.67
849.78	55.64
850.162	55.62
850.544	55.64
850.926	55.63
851.307	55.65
851.689	55.65
852.071	55.63
852.452	55.62
852.834	55.62
853.215	55.59
853.597	55.61
853.978	55.59
854.359	55.57
854.741	55.56
855.122	55.56
855.503	55.56
855.884	55.55
856.265	55.55
856.646	55.55
857.026	55.56
857.407	55.51
857.788	55.54
858.169	55.53
858.549	55.56
858.93	55.56
859.31	55.55
859.69	55.52
860.071	55.53
860.451	55.53
860.831	55.54
861.211	55.5
861.591	55.55
861.971	55.49
862.351	55.53
862.731	55.52
863.111	55.53
863.491	55.54
863.87	55.56
864.25	55.56
864.629	55.55
865.009	55.54
865.388	55.52
865.768	55.51
866.147	55.53
866.526	55.51
866.905	55.52
867.284	55.53
867.663	55.53
868.042	55.52
868.421	55.5
868.8	55.52
869.179	55.53
869.558	55.54
869.936	55.54
870.315	55.56
870.693	55.56
871.072	55.53
871.45	55.48
871.828	55.46
872.207	55.46
872.585	55.47
872.963	55.46
873.341	55.42
873.719	55.4
874.097	55.39
874.475	55.4
874.853	55.41
875.23	55.4
875.608	55.44
875.986	55.46
876.363	55.45
876.741	55.46
877.118	55.44
877.495	55.48
877.873	55.47
878.25	55.48
878.627	55.46
879.004	55.47
879.381	55.47
879.758	55.45
880.135	55.45
880.512	55.49
880.889	55.49
881.265	55.5
881.642	55.49
882.019	55.54
882.395	55.52
882.772	55.53
883.148	55.54
883.524	55.55
883.901	55.58
884.277	55.58
884.653	55.58
885.029	55.6
885.405	55.59
885.781	55.58
886.157	55.57
886.532	55.58
886.908	55.58
887.284	55.58
887.659	55.59
888.035	55.59
888.411	55.59
888.786	55.58
889.161	55.6
889.537	55.6
889.912	55.62
890.287	55.63
890.662	55.65
891.037	55.6
891.412	55.57
891.787	55.55
892.162	55.52
892.536	55.51
892.911	55.47
893.286	55.4
893.66	55.39
894.035	55.35
894.409	55.31
894.784	55.27
895.158	55.29
895.532	55.28
895.906	55.25
896.281	55.24
896.655	55.2
897.029	55.18
897.402	55.18
897.776	55.16
898.15	55.16
898.524	55.15
898.898	55.11
899.271	55.08
899.645	55.06
900.018	55.07
900.392	55.07
900.765	55.07
901.138	55.1
901.511	55.07
901.884	55.08
902.258	55.07
902.631	55.09
903.003	55.13
903.376	55.13
903.749	55.12
904.122	55.1
904.495	55.09
904.867	55.08
905.24	55.08
905.612	55.06
905.985	55.05
906.357	55.01
906.729	54.96
907.102	54.94
907.474	54.92
907.846	54.93
908.218	54.92
908.59	54.89
908.962	54.9
909.334	54.86
909.705	54.9
910.077	54.88
910.449	54.92
910.82	54.93
911.192	54.89
911.563	54.9
911.935	54.89
912.306	54.89
912.677	54.91
913.048	54.87
913.419	54.84
913.79	54.79
914.161	54.78
914.532	54.73
914.903	54.71
915.274	54.71
915.645	54.72
916.015	54.69
916.386	54.67
916.756	54.65
917.127	54.66
917.497	54.7
917.868	54.68
918.238	54.71
918.608	54.72
918.978	54.74
919.348	54.7
919.718	54.67
920.088	54.68
920.458	54.71
920.828	54.73
921.198	54.74
921.567	54.75
921.937	54.8
922.306	54.74
922.676	54.75
923.045	54.72
923.415	54.77
923.784	54.79
924.153	54.79
924.522	54.77
924.891	54.74
925.26	54.72
925.629	54.69
925.998	54.69
926.367	54.75
926.736	54.72
927.104	54.74
927.473	54.71
927.842	54.66
928.21	54.67
928.578	54.66
928.947	54.64
929.315	54.61
929.683	54.61
930.051	54.55
930.42	54.49
930.788	54.49
931.156	54.46
931.523	54.46
931.891	54.41
932.259	54.34
932.627	54.25
932.994	54.28
933.362	54.24
933.729	54.16
934.097	54.12
934.464	54.09
934.831	54.06
935.199	54.01
935.566	53.88
935.933	53.9
936.3	53.82
936.667	53.84
937.034	53.73
937.401	53.67
937.767	53.61
938.134	53.6
938.501	53.56
938.867	53.56
939.234	53.62
939.6	53.64
939.967	53.61
940.333	53.77
940.699	53.84
941.065	53.98
941.431	54.04
941.798	54.18
942.163	54.3
942.529	54.31
942.895	54.33
943.261	54.3
943.627	54.46
943.992	54.52
944.358	54.49
944.723	54.4
945.089	54.35
945.454	54.33
945.82	54.27
946.185	54.24
946.55	54.28
946.915	54.27
947.28	54.23
947.645	54.28
948.01	54.32
948.375	54.31
948.74	54.31
949.104	54.32
949.469	54.33
949.834	54.36
950.198	54.31
950.562	54.29
950.927	54.28
951.291	54.22
951.655	54.08
952.02	54.03
952.384	54.07
952.748	54.06
953.112	54.01
953.476	53.98
953.839	53.86
954.203	53.78
954.567	53.75
954.931	53.75
955.294	53.83
955.658	53.84
956.021	53.78
956.385	53.72
956.748	53.73
957.111	53.74
957.474	53.79
957.837	53.9
958.2	53.9
958.563	53.86
958.926	53.82
959.289	53.75
959.652	53.71
960.015	53.71
960.377	53.65
960.74	53.57
961.102	53.53
961.465	53.51
961.827	53.37
962.189	53.4
962.552	53.41
962.914	53.39
963.276	53.43
963.638	53.39
964	53.34
964.362	53.34
964.724	53.4
965.085	53.45
965.447	53.39
965.809	53.42
966.17	53.36
966.532	53.4
966.893	53.46
967.255	53.37
967.616	53.44
967.977	53.5
968.338	53.56
968.699	53.49
969.061	53.38
969.421	53.39
969.782	53.43
970.143	53.46
970.504	53.34
970.865	53.19
971.225	53.23
971.586	53.24
971.946	53.19
972.307	53.14
972.667	53.13
973.027	53.21
973.388	53.16
973.748	53.1
974.108	53.08
974.468	53.13
974.828	53.23
975.188	53.26
975.548	53.24
975.907	53.36
976.267	53.31
976.627	53.31
976.986	53.26
977.346	53.25
977.705	53.33
978.064	53.32
978.424	53.37
978.783	53.31
979.142	53.21
979.501	53.14
979.86	53.03
980.219	53.01
980.578	53
980.937	53.11
981.296	53.14
981.654	53.12
982.013	53.13
982.371	53.1
982.73	53.01
983.088	52.99
983.447	53.07
983.805	53.06
984.163	53.17
984.521	53.14
984.879	53.06
985.237	53.11
985.595	53.07
985.953	53
986.311	53.03
986.669	53.18
987.026	53.28
987.384	53.25
987.741	53.34
988.099	53.21
988.456	53.3
988.814	53.25
989.171	53.25
989.528	53.23
989.885	53.29
990.242	53.28
990.599	53.24
990.956	53.24
991.313	53.27
991.67	53.21
992.027	53.25
992.383	53.15
992.74	53.04
993.096	52.87
993.453	52.91
993.809	53.04
994.165	53
994.522	52.95
994.878	52.78
995.234	52.68
995.59	52.53
995.946	52.52
996.302	52.54
996.658	52.69
997.013	52.79
997.369	52.79
997.725	52.69
998.08	52.72
998.436	52.88
998.791	52.99
999.147	53.07
999.502	53.05
999.857	53.13
1000.212	53.16
1000.567	53.17
1000.922	53.18
1001.277	53.14
1001.632	53.04
1001.987	52.91
1002.342	52.8
1002.696	52.78
1003.051	52.49
1003.406	52.56
1003.76	52.61
1004.114	52.65
1004.469	52.46
1004.823	52.53
1005.177	52.6
1005.531	52.58
1005.885	52.72
1006.239	52.71
1006.593	52.7
1006.947	52.81
1007.301	52.87
1007.655	52.66
1008.008	52.54
1008.362	52.61
1008.715	52.55
1009.069	52.52
1009.422	52.42
1009.776	52.18
1010.129	52.06
1010.482	52.23
1010.835	52.43
1011.188	52.45
1011.541	52.33
1011.894	52.31
1012.247	52.31
1012.6	52.3
1012.952	52.31
1013.305	52.27
1013.657	52.26
1014.01	52.38
1014.362	52.18
1014.715	51.98
1015.067	52.04
1015.419	52.34
1015.771	52.58
1016.123	52.43
1016.475	52.35
1016.827	52.47
1017.179	52.55
1017.531	52.68
1017.883	52.75
1018.234	52.54
1018.586	52.56
1018.938	52.08
1019.289	51.72
1019.64	51.53
1019.992	51.76
1020.343	51.6
1020.694	51.38
1021.045	51.44
1021.396	51.52
1021.747	51.45
1022.098	51.77
1022.449	51.56
1022.8	51.88
1023.151	51.97
1023.501	52.09
1023.852	52.06
1024.202	52.04
1024.553	51.94
1024.903	51.83
1025.253	51.99
1025.604	52.15
1025.954	51.79
1026.304	52.68
1026.654	52.86
1027.004	53.27
1027.354	53.11
1027.703	52.88
1028.053	52.78
1028.403	53.08
1028.753	53.46
1029.102	53.33
1029.452	53.17
1029.801	53.57
1030.15	53.07
1030.499	52.96
897.758	67.4
901.051	79.77
904.343	81.43
907.636	81.18
910.928	85.38
914.22	84.3
917.511	84.76
920.803	85.18
924.094	82.92
927.384	86.78
930.675	83.6
933.965	85.02
937.255	83.57
940.544	79.91
943.834	75.83
947.123	73.51
950.411	74.38
953.7	74.58
956.988	71.8
960.276	72.19
963.563	73.52
966.851	71.32
970.138	72.46
973.424	68.35
976.711	69.68
979.997	69.59
983.283	67.23
986.568	66.02
989.853	65.27
993.138	65.77
996.423	65.37
999.708	64.6
1002.992	65.06
1006.275	63.28
1009.559	64.93
1012.842	63.97
1016.125	63.46
1019.408	63.8
1022.69	64.8
1025.972	65.14
1029.254	64.92
1032.536	64.24
1035.817	64.09
1039.098	64.22
1042.379	65.5
1045.659	63.27
1048.939	63.65
1052.219	63.79
1055.498	63.73
1058.778	62.59
1062.057	63.27
1065.335	63.74
1068.614	62.06
1071.892	61.38
1075.17	60.6
1078.447	59.97
1081.724	61.81
1085.001	60.57
1088.278	59.87
1091.554	59.54
1094.83	60.68
1098.106	59.67
1101.382	59.68
1104.657	60.68
1107.932	59.95
1111.206	60.85
1114.481	60.35
1117.755	58.44
1121.029	58.41
1124.302	58.85
1127.575	59.79
1130.848	58.46
1134.121	57.8
1137.393	57.58
1140.665	57.25
1143.937	56.92
1147.208	55.23
1150.48	55.31
1153.75	56.1
1157.021	55.53
1160.291	55.78
1163.561	53.83
1166.831	55.09
1170.101	55.43
1173.37	55.17
1176.639	54.89
1179.907	54.67
1183.176	55.42
1186.444	55.2
1189.711	54.83
1192.979	55.71
1196.246	55.65
1199.513	55.4
1202.78	54.43
1206.046	54.38
1209.312	54.96
1212.578	54.53
1215.843	55.69
1219.108	55.62
1222.373	55.86
1225.638	55.87
1228.902	55.98
1232.166	56.29
1235.43	56.12
1238.693	56.46
1241.956	56.19
1245.219	56.13
1248.482	57.45
1251.744	56.73
1255.006	57.43
1258.268	56.56
1261.529	56.9
1264.79	57.48
1268.051	56.69
1271.312	58.26
1274.572	57.73
1277.832	58.3
1281.092	58.12
1284.351	57.99
1287.61	58.14
1290.869	56.28
1294.128	56.72
1297.386	57.58
1300.644	56.01
1303.902	56.17
1307.159	55.17
1310.416	55.48
1313.673	55.22
1316.93	55.42
1320.186	55.29
1323.442	54.45
1326.697	55.9
1329.953	55.21
1333.208	53
1336.463	53.97
1339.717	53.82
1342.972	55.46
1346.226	55.26
1349.479	55.07
1352.733	54.95
1355.986	53.46
1359.238	54.4
1362.491	53.12
1365.743	53.95
1368.995	55.36
1372.247	53.41
1375.498	52.74
1378.749	50.95
1382	50.55
1385.251	48.48
1388.501	48.08
1391.751	49.26
1395	47.44
1398.25	47.15
1401.499	44.49
1404.748	42.94
1407.996	44.34
1411.244	44.61
1414.492	43.52
1417.74	41.52
1420.987	40.69
1424.234	39.09
1427.481	36.53
1430.728	36.9
1433.974	36.6
1437.22	36.62
1440.465	35.3
1443.711	33.22
1446.956	32.55
1450.201	32.59
1453.445	31.31
1456.689	31.66
1459.933	31.04
1463.177	29.89
1466.42	29
1469.663	28.89
1472.906	28.5
1476.148	29.13
1479.391	29.28
1482.633	29.06
1485.874	29.67
1489.115	30.23
1492.356	29.76
1495.597	30.38
1498.838	31.82
1502.078	32.36
1505.318	32.36
1508.557	32.15
1511.797	32.45
1515.036	33.72
1518.274	33.6
1521.513	33.3
1524.751	33.76
1527.989	35.15
1531.227	34.9
1534.464	35.49
1537.701	35.37
1540.938	35.48
1544.174	36.32
1547.41	36.79
1550.646	36.89
1553.882	37.58
1557.117	38.33
1560.352	37.9
1563.587	38.12
1566.821	38.64
1570.055	38.67
1573.289	39.55
1576.523	39.89
1579.756	39.74
1582.989	40.23
1586.222	40.31
1589.454	40.4
1592.686	40.5
1595.918	41.07
1599.15	41.08
1602.381	41.05
1605.612	41.51
1608.843	41.1
1612.073	41.18
1615.303	42.1
1618.533	41.53
1621.762	41.85
1624.992	41.65
1628.221	41.58
1631.449	41.95
1634.678	41.99
1637.906	42.76
1641.134	42.6
1644.361	42.92
1647.588	43.25
1650.815	42.99
1654.042	43.51
1657.269	43.03
1660.495	43.73
1663.72	43.42
1666.946	43.26
1670.171	43.44
1673.396	42.56
1676.621	42.55
1679.845	43.23
1683.069	42.48
1686.293	41.88
1689.517	41.89
1692.74	41.88
1695.963	41.97
1699.185	42.2
1702.408	41.5
1705.63	41.43
1708.852	42
1712.073	41.43
1715.294	40.62
1718.515	41.52
1721.736	41.82
1724.956	41.59
1728.176	41.45
1731.396	41
1734.616	41.21
1737.835	41.51
1741.054	40.92
1744.272	40.77
1747.491	41.23
1750.709	41.01
1753.927	40.33
1757.144	40.38
1760.361	39.75
1763.578	40.17
1766.795	40.07
1770.011	39.45
1773.227	39.7
1776.443	39.92
1779.658	39.17
1782.874	39.56
1786.089	39.05
1789.303	39.21
1792.518	38.93
1795.732	39.37
1798.945	39.3
1802.159	39.63
1805.372	39.91
1808.585	39.47
1811.797	39.97
1815.01	40.03
1818.222	39.48
1821.434	39.4
1824.645	38.99
1827.856	39.14
1831.067	38.23
1834.278	38.17
1837.488	38.2
1840.698	37.81
1843.908	37.68
1847.117	37.68
1850.326	37.13
1853.535	37.29
1856.744	36.88
1859.952	36.18
1863.16	35.59
1866.368	35.54
1869.575	34.36
1872.782	32.57
1875.989	30.42
1879.196	30.23
1882.402	27.08
1885.608	27.3
1888.814	24.63
1892.019	23.4
1895.224	22.58
1898.429	20.98
1901.634	20.3
1904.838	18.55
1908.042	18
1911.246	18.68
1914.449	17.53
1917.652	17.99
1920.855	16.34
1924.058	16
1927.26	15.33
1930.462	14.74
1933.664	16.05
1936.865	15.19
1940.066	15.09
1943.267	14.18
1946.467	13.88
1949.668	12.94
1952.868	13.3
1956.067	13.39
1959.267	15.43
1962.466	15.55
1965.665	16.66
1968.863	16.08
1972.061	16.88
1975.259	18.12
1978.457	18.65
1981.654	18.22
1984.852	19.53
1988.048	19.65
1991.245	20.9
1994.441	19.54
1997.637	21.04
2000.833	21.84
2004.028	22.12
2007.223	21.91
2010.418	22.88
2013.613	25.22
2016.807	27.29
2020.001	26.36
2023.194	28.39
2026.388	28.09
2029.581	30.52
2032.774	30.64
2035.966	30.3
2039.158	31.67
2042.35	32.33
2045.542	33.35
2048.733	34.4
2051.924	31.46
2055.115	34.13
2058.306	34.04
2061.496	33
2064.686	32.02
2067.875	33.98
2071.065	36.69
2074.254	35.28
2077.442	36.65
2080.631	35.33
2083.819	34.28
2087.007	38.36
2090.195	40.35
2093.382	36.77
2096.569	39.03
2099.756	41.95
2102.942	40.44
2106.128	39.31
2109.314	41.31
2112.5	41.33
2115.685	40.52
2118.87	40.81
2122.055	40.75
2125.239	37.86
2128.424	41.05
2131.608	40.73
2134.791	39.31
2137.974	39.23
2141.157	39.88
2144.34	40.14
2147.523	41.51
2150.705	43.32
2153.887	42.16
2157.068	43.19
2160.25	44.6
2163.431	46.16
2166.611	47.21
2169.792	47.49
2172.972	49.84
2176.152	50.98
2179.331	51.05
2182.511	49.65
2185.69	50.32
2188.868	50.44
2192.047	50.26
2195.225	51.8
2198.403	47.3
2201.58	48.26
2204.758	49.7
2207.935	48.08
2211.111	46.36
2214.288	47.32
2217.464	47.73
2220.64	49.38
2223.815	50.01
2226.991	50.87
2230.166	49.9
2233.34	53.85
2236.515	50.34
2239.689	50.2
2242.863	53.21
2246.036	50.9
2249.209	49.37
2252.382	51.66
2255.555	49.13
2258.727	50.94
2261.9	51.4
2265.071	52.43
2268.243	53.08
2271.414	52.72
2274.585	52.75
2277.756	52.87
2280.926	52.58
2284.096	57.76
2287.266	55.13
2290.436	60.06
2293.605	61.55
2296.774	63.33
2299.942	63.51
2303.111	63.43
2306.279	68.31
2309.447	71.36
2312.614	68.87
2315.781	68.22
2318.948	64.88
2322.115	69.22
2325.281	64.54
2328.447	62.22
2331.613	63.54
2334.779	63.49
2337.944	60.69
2341.109	60.01
2344.274	59.48
2347.438	56.96
2350.602	66.72
2353.766	71.65
2356.929	68.13
2360.092	69.98
2363.255	71.76
2366.418	69.51
2369.58	70.18
2372.742	82.8
2375.904	83.89
2379.066	83.04
2382.227	91.94
2385.388	85.68
2388.548	80.65
2391.709	83.36
2394.869	87.18
2398.029	95.2
2401.188	95.51
2404.347	97.48
2407.506	89.96
2410.665	86.56
2413.823	86.68
2416.981	87.33
2420.139	88.86
2423.296	94.43
2426.453	96.28
2429.61	95.08
2432.767	90.37
2435.923	97.57
2439.079	90.52
2442.235	96.25
2445.391	101.55
2448.546	100.55
2451.701	100.98
2454.855	102.61
2458.009	95.46
2461.163	96.42
2464.317	95.18
2467.471	94.42
2470.624	91.75
2473.777	98.03
2476.929	100.49
2480.082	95.45
2483.234	101.68
2486.385	97.87
2489.537	101.97
2492.688	118.17
2495.839	121.42
2498.989	118.1
2502.14	121.49
2505.29	117.49
2508.439	123.16
2511.589	119.68
2514.738	118.39
2517.887	117.98
2521.035	122.73
2524.183	117.15
2527.331	109.19
2530.479	101.98
2533.627	109.33
