Data from c_1_div_oh_2n_027_Splice17_02.txt Node
Date: Sat Feb 29 13:21:18 EST 2020
User: sa697716
Spectrometer: FLMS03696
Trigger mode: 0
Integration Time (sec): 3.180400E-1
Scans to average: 20
Electric dark correction enabled: true
Nonlinearity correction enabled: true
Boxcar width: 5
XAxis mode: Wavelengths
Number of Pixels in Spectrum: 2048
>>>>>Begin Spectral Data<<<<<
187.83	3.73
188.298	-17.17
188.766	-2.6
189.233	-11.27
189.701	9.25
190.169	21.32
190.636	19.69
191.104	26.95
191.571	135.02
192.039	178.96
192.506	59.23
192.974	5092.89
193.441	-344.57
193.908	73.35
194.375	-10.82
194.842	72.6
195.31	59.29
195.777	64.61
196.244	57.15
196.711	58.83
197.177	58.19
197.644	57.62
198.111	56.9
198.578	56.35
199.045	57.78
199.511	58.38
199.978	58.31
200.445	58.2
200.911	58.37
201.378	58.33
201.844	58.68
202.31	58.56
202.777	58.87
203.243	59.01
203.709	59.14
204.176	58.18
204.642	57.99
205.108	57.83
205.574	58.04
206.04	57.6
206.506	57.29
206.972	56.98
207.438	56.3
207.903	55.48
208.369	54.52
208.835	53.7
209.301	53.14
209.766	51.73
210.232	50.98
210.697	49.93
211.163	48.89
211.628	47.9
212.094	46.53
212.559	45.45
213.024	44.35
213.49	43.4
213.955	42.4
214.42	41.55
214.885	40.49
215.35	38.82
215.815	36.55
216.28	34.51
216.745	32.37
217.21	30.05
217.675	27.85
218.14	25.7
218.604	23.8
219.069	22.25
219.534	20.77
219.998	19.55
220.463	18.55
220.927	17.76
221.392	17
221.856	16.3
222.32	15.75
222.785	15.22
223.249	14.8
223.713	14.44
224.177	14.05
224.642	13.72
225.106	13.42
225.57	13.11
226.034	12.83
226.497	12.58
226.961	12.32
227.425	12.07
227.889	11.87
228.353	11.64
228.816	11.45
229.28	11.23
229.744	11.07
230.207	10.9
230.671	10.74
231.134	10.57
231.597	10.41
232.061	10.27
232.524	10.14
232.987	10
233.45	9.88
233.914	9.75
234.377	9.65
234.84	9.53
235.303	9.43
235.766	9.34
236.229	9.24
236.691	9.15
237.154	9.05
237.617	8.97
238.08	8.89
238.542	8.8
239.005	8.7
239.468	8.6
239.93	8.51
240.393	8.42
240.855	8.32
241.317	8.25
241.78	8.19
242.242	8.1
242.704	8.02
243.166	7.93
243.629	7.86
244.091	7.79
244.553	7.73
245.015	7.65
245.477	7.58
245.939	7.52
246.4	7.43
246.862	7.37
247.324	7.31
247.786	7.25
248.247	7.19
248.709	7.12
249.17	7.05
249.632	6.99
250.093	6.92
250.555	6.86
251.016	6.8
251.477	6.74
251.939	6.67
252.4	6.62
252.861	6.57
253.322	6.51
253.783	6.47
254.244	6.42
254.705	6.37
255.166	6.33
255.627	6.29
256.088	6.22
256.549	6.18
257.009	6.14
257.47	6.09
257.931	6.03
258.391	5.98
258.852	5.93
259.312	5.88
259.773	5.82
260.233	5.77
260.694	5.73
261.154	5.69
261.614	5.64
262.074	5.6
262.534	5.54
262.994	5.5
263.455	5.46
263.915	5.42
264.374	5.38
264.834	5.34
265.294	5.31
265.754	5.26
266.214	5.23
266.673	5.2
267.133	5.16
267.593	5.14
268.052	5.11
268.512	5.08
268.971	5.05
269.431	5.03
269.89	5.01
270.349	4.98
270.809	4.97
271.268	4.95
271.727	4.93
272.186	4.91
272.645	4.88
273.104	4.86
273.563	4.84
274.022	4.82
274.481	4.8
274.94	4.77
275.399	4.76
275.857	4.74
276.316	4.71
276.775	4.69
277.233	4.67
277.692	4.66
278.15	4.64
278.609	4.61
279.067	4.59
279.525	4.57
279.984	4.56
280.442	4.55
280.9	4.53
281.358	4.52
281.816	4.51
282.274	4.49
282.732	4.48
283.19	4.47
283.648	4.47
284.106	4.46
284.564	4.46
285.021	4.45
285.479	4.44
285.937	4.44
286.394	4.43
286.852	4.43
287.309	4.42
287.767	4.41
288.224	4.41
288.682	4.39
289.139	4.38
289.596	4.36
290.053	4.34
290.511	4.3
290.968	4.28
291.425	4.26
291.882	4.23
292.339	4.21
292.796	4.18
293.252	4.15
293.709	4.14
294.166	4.12
294.623	4.11
295.079	4.09
295.536	4.08
295.992	4.07
296.449	4.05
296.905	4.04
297.362	4.03
297.818	4.02
298.274	4.01
298.731	4
299.187	3.98
299.643	3.97
300.099	3.96
300.555	3.95
301.011	3.93
301.467	3.93
301.923	3.92
302.379	3.92
302.835	3.91
303.291	3.9
303.746	3.88
304.202	3.88
304.658	3.87
305.113	3.86
305.569	3.86
306.024	3.86
306.479	3.85
306.935	3.84
307.39	3.84
307.845	3.84
308.301	3.84
308.756	3.85
309.211	3.85
309.666	3.85
310.121	3.86
310.576	3.85
311.031	3.85
311.486	3.86
311.94	3.86
312.395	3.86
312.85	3.87
313.305	3.87
313.759	3.86
314.214	3.87
314.668	3.86
315.123	3.86
315.577	3.86
316.032	3.86
316.486	3.85
316.94	3.84
317.394	3.83
317.849	3.82
318.303	3.81
318.757	3.8
319.211	3.78
319.665	3.77
320.119	3.76
320.572	3.75
321.026	3.73
321.48	3.72
321.934	3.72
322.387	3.71
322.841	3.7
323.295	3.7
323.748	3.7
324.202	3.7
324.655	3.69
325.108	3.67
325.562	3.66
326.015	3.66
326.468	3.65
326.921	3.65
327.374	3.65
327.827	3.64
328.28	3.62
328.733	3.61
329.186	3.61
329.639	3.61
330.092	3.61
330.545	3.62
330.997	3.62
331.45	3.63
331.903	3.63
332.355	3.63
332.808	3.63
333.26	3.64
333.713	3.65
334.165	3.65
334.617	3.66
335.069	3.67
335.522	3.68
335.974	3.68
336.426	3.68
336.878	3.67
337.33	3.67
337.782	3.67
338.234	3.68
338.686	3.67
339.137	3.67
339.589	3.66
340.041	3.65
340.493	3.62
340.944	3.62
341.396	3.61
341.847	3.59
342.299	3.58
342.75	3.55
343.201	3.53
343.653	3.51
344.104	3.5
344.555	3.5
345.006	3.47
345.457	3.47
345.908	3.46
346.359	3.45
346.81	3.45
347.261	3.44
347.712	3.44
348.163	3.44
348.613	3.44
349.064	3.42
349.515	3.41
349.965	3.4
350.416	3.4
350.866	3.39
351.317	3.39
351.767	3.38
352.217	3.38
352.668	3.37
353.118	3.37
353.568	3.38
354.018	3.39
354.468	3.38
354.918	3.39
355.368	3.39
355.818	3.38
356.268	3.39
356.718	3.39
357.168	3.38
357.617	3.38
358.067	3.37
358.517	3.36
358.966	3.38
359.416	3.39
359.865	3.38
360.315	3.38
360.764	3.38
361.213	3.38
361.663	3.37
362.112	3.39
362.561	3.39
363.01	3.4
363.459	3.4
363.908	3.39
364.357	3.39
364.806	3.39
365.255	3.4
365.703	3.4
366.152	3.41
366.601	3.41
367.05	3.42
367.498	3.43
367.947	3.43
368.395	3.45
368.844	3.47
369.292	3.46
369.74	3.48
370.189	3.47
370.637	3.48
371.085	3.49
371.533	3.5
371.981	3.5
372.429	3.51
372.877	3.52
373.325	3.51
373.773	3.51
374.221	3.53
374.669	3.54
375.116	3.55
375.564	3.56
376.012	3.57
376.459	3.59
376.907	3.61
377.354	3.63
377.801	3.64
378.249	3.67
378.696	3.7
379.143	3.72
379.591	3.74
380.038	3.76
380.485	3.79
380.932	3.8
381.379	3.8
381.826	3.82
382.273	3.84
382.72	3.86
383.166	3.88
383.613	3.9
384.06	3.91
384.506	3.94
384.953	3.95
385.4	3.98
385.846	4
386.292	4.04
386.739	4.06
387.185	4.09
387.631	4.11
388.078	4.14
388.524	4.14
388.97	4.17
389.416	4.19
389.862	4.21
390.308	4.24
390.754	4.27
391.2	4.3
391.645	4.32
392.091	4.35
392.537	4.38
392.983	4.41
393.428	4.43
393.874	4.46
394.319	4.48
394.765	4.5
395.21	4.51
395.655	4.54
396.101	4.56
396.546	4.59
396.991	4.6
397.436	4.6
397.881	4.62
398.326	4.66
398.771	4.68
399.216	4.71
399.661	4.73
400.106	4.75
400.551	4.74
400.995	4.73
401.44	4.72
401.885	4.72
402.329	4.72
402.774	4.72
403.218	4.72
403.663	4.71
404.107	4.7
404.551	4.69
404.995	4.68
405.44	4.68
405.884	4.68
406.328	4.69
406.772	4.69
407.216	4.69
407.66	4.68
408.104	4.67
408.547	4.67
408.991	4.67
409.435	4.66
409.879	4.66
410.322	4.66
410.766	4.67
411.209	4.67
411.653	4.65
412.096	4.65
412.54	4.67
412.983	4.68
413.426	4.7
413.869	4.72
414.312	4.74
414.756	4.77
415.199	4.79
415.642	4.81
416.085	4.83
416.527	4.86
416.97	4.87
417.413	4.87
417.856	4.86
418.298	4.84
418.741	4.84
419.184	4.84
419.626	4.82
420.069	4.81
420.511	4.81
420.953	4.8
421.396	4.79
421.838	4.81
422.28	4.82
422.722	4.83
423.164	4.85
423.606	4.85
424.048	4.85
424.49	4.86
424.932	4.85
425.374	4.85
425.816	4.83
426.258	4.83
426.699	4.79
427.141	4.77
427.582	4.76
428.024	4.76
428.465	4.75
428.907	4.76
429.348	4.75
429.789	4.77
430.231	4.77
430.672	4.77
431.113	4.79
431.554	4.82
431.995	4.85
432.436	4.85
432.877	4.84
433.318	4.86
433.759	4.87
434.2	4.89
434.64	4.88
435.081	4.9
435.522	4.94
435.962	4.97
436.403	5.01
436.843	5.03
437.284	5.06
437.724	5.1
438.164	5.13
438.604	5.17
439.045	5.19
439.485	5.2
439.925	5.2
440.365	5.2
440.805	5.19
441.245	5.17
441.685	5.18
442.125	5.19
442.564	5.21
443.004	5.23
443.444	5.25
443.883	5.26
444.323	5.27
444.762	5.35
445.202	5.42
445.641	5.48
446.081	5.54
446.52	5.57
446.959	5.63
447.398	5.68
447.837	5.72
448.276	5.75
448.716	5.8
449.154	5.87
449.593	5.9
450.032	5.92
450.471	5.93
450.91	5.94
451.349	5.97
451.787	5.96
452.226	5.94
452.664	5.94
453.103	5.96
453.541	5.96
453.98	5.95
454.418	5.93
454.856	5.91
455.295	5.9
455.733	5.89
456.171	5.9
456.609	5.88
457.047	5.9
457.485	5.9
457.923	5.89
458.361	5.88
458.798	5.89
459.236	5.9
459.674	5.9
460.111	5.92
460.549	5.92
460.987	5.92
461.424	5.92
461.862	5.93
462.299	5.92
462.736	5.92
463.173	5.92
463.611	5.91
464.048	5.93
464.485	5.93
464.922	5.92
465.359	5.93
465.796	5.92
466.233	5.94
466.67	5.95
467.106	5.95
467.543	5.96
467.98	5.98
468.416	6
468.853	6.01
469.29	6.02
469.726	6.04
470.162	6.05
470.599	6.07
471.035	6.07
471.471	6.06
471.907	6.08
472.344	6.07
472.78	6.07
473.216	6.07
473.652	6.05
474.088	6.06
474.523	6.04
474.959	6.03
475.395	6.02
475.831	6.03
476.266	6.02
476.702	6.01
477.138	6.02
477.573	6.01
478.008	6.01
478.444	6
478.879	5.99
479.314	5.99
479.75	5.99
480.185	5.98
480.62	5.98
481.055	5.99
481.49	5.97
481.925	5.97
482.36	5.96
482.795	5.95
483.229	5.96
483.664	5.96
484.099	5.98
484.534	5.98
484.968	5.99
485.403	6
485.837	6.01
486.271	6.02
486.706	6.03
487.14	6.06
487.574	6.09
488.009	6.12
488.443	6.15
488.877	6.17
489.311	6.21
489.745	6.26
490.179	6.3
490.613	6.35
491.046	6.41
491.48	6.47
491.914	6.53
492.348	6.59
492.781	6.66
493.215	6.72
493.648	6.8
494.082	6.88
494.515	6.95
494.948	7.03
495.382	7.13
495.815	7.22
496.248	7.34
496.681	7.44
497.114	7.55
497.547	7.67
497.98	7.8
498.413	7.92
498.846	8.06
499.279	8.23
499.711	8.38
500.144	8.53
500.577	8.7
501.009	8.87
501.442	9.04
501.874	9.22
502.306	9.42
502.739	9.61
503.171	9.83
503.603	10.06
504.036	10.28
504.468	10.51
504.9	10.76
505.332	11
505.764	11.26
506.196	11.54
506.627	11.81
507.059	12.1
507.491	12.41
507.923	12.71
508.354	13.02
508.786	13.34
509.217	13.67
509.649	14.02
510.08	14.38
510.512	14.73
510.943	15.09
511.374	15.48
511.805	15.84
512.237	16.2
512.668	16.59
513.099	16.99
513.53	17.39
513.961	17.79
514.391	18.17
514.822	18.55
515.253	18.96
515.684	19.38
516.114	19.78
516.545	20.19
516.975	20.62
517.406	21.04
517.836	21.43
518.267	21.85
518.697	22.28
519.127	22.7
519.558	23.11
519.988	23.52
520.418	23.9
520.848	24.29
521.278	24.69
521.708	25.05
522.138	25.42
522.567	25.78
522.997	26.13
523.427	26.47
523.857	26.79
524.286	27.12
524.716	27.43
525.145	27.74
525.575	28.03
526.004	28.32
526.433	28.6
526.863	28.88
527.292	29.12
527.721	29.36
528.15	29.58
528.579	29.83
529.008	30.05
529.437	30.26
529.866	30.45
530.295	30.65
530.724	30.87
531.152	31.03
531.581	31.19
532.01	31.33
532.438	31.48
532.867	31.62
533.295	31.74
533.723	31.88
534.152	32
534.58	32.1
535.008	32.17
535.436	32.23
535.865	32.33
536.293	32.44
536.721	32.54
537.149	32.62
537.576	32.69
538.004	32.75
538.432	32.8
538.86	32.87
539.287	32.94
539.715	33.03
540.143	33.08
540.57	33.13
540.998	33.17
541.425	33.2
541.852	33.24
542.28	33.29
542.707	33.38
543.134	33.42
543.561	33.43
543.988	33.46
544.415	33.5
544.842	33.53
545.269	33.57
545.696	33.6
546.123	33.65
546.549	33.7
546.976	33.73
547.403	33.73
547.829	33.73
548.256	33.76
548.682	33.79
549.108	33.8
549.535	33.82
549.961	33.82
550.387	33.82
550.813	33.82
551.24	33.8
551.666	33.8
552.092	33.78
552.518	33.79
552.943	33.77
553.369	33.77
553.795	33.75
554.221	33.71
554.646	33.68
555.072	33.62
555.498	33.55
555.923	33.49
556.349	33.39
556.774	33.32
557.199	33.25
557.625	33.18
558.05	33.06
558.475	32.95
558.9	32.87
559.325	32.74
559.75	32.64
560.175	32.54
560.6	32.4
561.025	32.29
561.449	32.15
561.874	32
562.299	31.86
562.723	31.73
563.148	31.57
563.572	31.39
563.997	31.24
564.421	31.06
564.846	30.88
565.27	30.7
565.694	30.51
566.118	30.31
566.542	30.12
566.966	29.92
567.39	29.68
567.814	29.47
568.238	29.27
568.662	29.06
569.086	28.85
569.509	28.65
569.933	28.43
570.357	28.22
570.78	28.02
571.204	27.8
571.627	27.58
572.05	27.41
572.474	27.22
572.897	27.03
573.32	26.83
573.743	26.65
574.166	26.48
574.589	26.32
575.012	26.15
575.435	25.97
575.858	25.82
576.281	25.67
576.704	25.5
577.126	25.34
577.549	25.2
577.972	25.09
578.394	24.94
578.817	24.77
579.239	24.65
579.661	24.52
580.084	24.4
580.506	24.28
580.928	24.17
581.35	24.08
581.772	23.99
582.194	23.87
582.616	23.75
583.038	23.66
583.46	23.56
583.882	23.46
584.303	23.38
584.725	23.29
585.147	23.19
585.568	23.09
585.99	22.98
586.411	22.89
586.833	22.84
587.254	22.77
587.675	22.69
588.096	22.61
588.518	22.54
588.939	22.47
589.36	22.4
589.781	22.33
590.202	22.28
590.623	22.21
591.043	22.15
591.464	22.07
591.885	22.02
592.305	21.97
592.726	21.93
593.147	21.9
593.567	21.83
593.987	21.82
594.408	21.77
594.828	21.73
595.248	21.7
595.669	21.65
596.089	21.6
596.509	21.54
596.929	21.48
597.349	21.43
597.769	21.35
598.189	21.29
598.608	21.23
599.028	21.18
599.448	21.14
599.867	21.08
600.287	21.02
600.706	20.96
601.126	20.89
601.545	20.83
601.965	20.76
602.384	20.7
602.803	20.62
603.222	20.52
603.641	20.45
604.061	20.35
604.48	20.26
604.898	20.16
605.317	20.07
605.736	19.97
606.155	19.88
606.574	19.78
606.992	19.65
607.411	19.56
607.829	19.41
608.248	19.28
608.666	19.16
609.085	19.04
609.503	18.92
609.921	18.79
610.339	18.68
610.758	18.55
611.176	18.42
611.594	18.3
612.012	18.17
612.43	18.08
612.847	17.98
613.265	17.88
613.683	17.76
614.101	17.64
614.518	17.54
614.936	17.42
615.353	17.32
615.771	17.22
616.188	17.13
616.606	17.04
617.023	16.96
617.44	16.87
617.857	16.77
618.274	16.7
618.691	16.63
619.108	16.56
619.525	16.49
619.942	16.43
620.359	16.38
620.776	16.33
621.192	16.28
621.609	16.23
622.026	16.19
622.442	16.14
622.859	16.1
623.275	16.08
623.691	16.05
624.108	16.04
624.524	16.02
624.94	15.99
625.356	15.98
625.772	15.97
626.188	15.96
626.604	15.94
627.02	15.94
627.436	15.93
627.852	15.9
628.268	15.88
628.683	15.87
629.099	15.85
629.514	15.83
629.93	15.8
630.345	15.75
630.761	15.71
631.176	15.67
631.591	15.6
632.007	15.54
632.422	15.5
632.837	15.43
633.252	15.36
633.667	15.26
634.082	15.17
634.497	15.07
634.911	14.98
635.326	14.87
635.741	14.77
636.155	14.66
636.57	14.54
636.984	14.39
637.399	14.23
637.813	14.08
638.228	13.93
638.642	13.79
639.056	13.64
639.47	13.47
639.884	13.32
640.298	13.16
640.712	13
641.126	12.82
641.54	12.67
641.954	12.53
642.368	12.38
642.781	12.23
643.195	12.06
643.609	11.91
644.022	11.76
644.436	11.61
644.849	11.44
645.262	11.32
645.676	11.17
646.089	11.04
646.502	10.91
646.915	10.8
647.328	10.69
647.741	10.58
648.154	10.48
648.567	10.4
648.98	10.31
649.393	10.23
649.805	10.15
650.218	10.09
650.631	10.03
651.043	9.94
651.456	9.88
651.868	9.8
652.28	9.73
652.693	9.64
653.105	9.57
653.517	9.49
653.929	9.42
654.341	9.34
654.753	9.24
655.165	9.13
655.577	9.03
655.989	8.9
656.401	8.78
656.813	8.66
657.224	8.54
657.636	8.41
658.047	8.27
658.459	8.12
658.87	7.98
659.282	7.87
659.693	7.74
660.104	7.62
660.515	7.51
660.926	7.41
661.338	7.28
661.749	7.16
662.159	7.04
662.57	6.94
662.981	6.82
663.392	6.71
663.803	6.61
664.213	6.51
664.624	6.44
665.035	6.35
665.445	6.28
665.855	6.2
666.266	6.15
666.676	6.09
667.086	6.04
667.497	5.99
667.907	5.95
668.317	5.91
668.727	5.87
669.137	5.83
669.547	5.8
669.956	5.77
670.366	5.76
670.776	5.75
671.186	5.74
671.595	5.74
672.005	5.75
672.414	5.75
672.824	5.75
673.233	5.77
673.642	5.77
674.052	5.79
674.461	5.8
674.87	5.82
675.279	5.83
675.688	5.85
676.097	5.88
676.506	5.9
676.915	5.94
677.323	5.98
677.732	6.03
678.141	6.1
678.549	6.16
678.958	6.24
679.366	6.31
679.775	6.41
680.183	6.5
680.592	6.61
681	6.71
681.408	6.84
681.816	6.96
682.224	7.11
682.632	7.29
683.04	7.47
683.448	7.67
683.856	7.9
684.264	8.14
684.671	8.43
685.079	8.74
685.487	9.1
685.894	9.48
686.302	9.9
686.709	10.34
687.116	10.81
687.524	11.32
687.931	11.85
688.338	12.44
688.745	13.04
689.152	13.67
689.559	14.33
689.966	15
690.373	15.71
690.78	16.43
691.187	17.16
691.593	17.91
692	18.68
692.407	19.47
692.813	20.26
693.22	21.04
693.626	21.84
694.032	22.64
694.439	23.45
694.845	24.25
695.251	25.04
695.657	25.84
696.063	26.63
696.469	27.42
696.875	28.19
697.281	28.94
697.687	29.74
698.093	30.47
698.498	31.2
698.904	31.92
699.31	32.61
699.715	33.32
700.12	33.97
700.526	34.63
700.931	35.28
701.337	35.92
701.742	36.55
702.147	37.13
702.552	37.73
702.957	38.3
703.362	38.88
703.767	39.46
704.172	40.03
704.577	40.61
704.981	41.14
705.386	41.69
705.791	42.22
706.195	42.72
706.6	43.23
707.004	43.72
707.408	44.23
707.813	44.68
708.217	45.12
708.621	45.57
709.025	45.98
709.43	46.41
709.834	46.82
710.237	47.19
710.641	47.6
711.045	47.97
711.449	48.36
711.853	48.72
712.256	49.1
712.66	49.49
713.064	49.82
713.467	50.18
713.87	50.55
714.274	50.9
714.677	51.25
715.08	51.56
715.484	51.9
715.887	52.21
716.29	52.54
716.693	52.84
717.096	53.14
717.499	53.43
717.901	53.7
718.304	53.99
718.707	54.25
719.109	54.51
719.512	54.8
719.915	55.05
720.317	55.31
720.719	55.54
721.122	55.77
721.524	55.99
721.926	56.24
722.328	56.48
722.731	56.67
723.133	56.86
723.535	57.09
723.937	57.27
724.338	57.41
724.74	57.58
725.142	57.68
725.544	57.83
725.945	57.97
726.347	58.14
726.748	58.25
727.15	58.37
727.551	58.54
727.952	58.64
728.354	58.8
728.755	58.98
729.156	59.1
729.557	59.28
729.958	59.43
730.359	59.55
730.76	59.62
731.161	59.73
731.562	59.84
731.962	59.93
732.363	60.01
732.763	60.06
733.164	60.12
733.564	60.21
733.965	60.3
734.365	60.33
734.766	60.38
735.166	60.44
735.566	60.48
735.966	60.5
736.366	60.53
736.766	60.58
737.166	60.66
737.566	60.74
737.966	60.77
738.365	60.81
738.765	60.89
739.165	60.9
739.564	60.97
739.964	61.04
740.363	61.11
740.763	61.16
741.162	61.18
741.561	61.2
741.96	61.22
742.36	61.25
742.759	61.23
743.158	61.24
743.557	61.29
743.955	61.35
744.354	61.38
744.753	61.46
745.152	61.48
745.55	61.53
745.949	61.57
746.348	61.58
746.746	61.57
747.144	61.65
747.543	61.68
747.941	61.76
748.339	61.8
748.737	61.84
749.136	61.81
749.534	61.86
749.932	61.86
750.33	61.89
750.727	61.94
751.125	62
751.523	61.98
751.921	62.01
752.318	62
752.716	61.97
753.113	61.95
753.511	61.93
753.908	61.91
754.305	61.89
754.703	61.85
755.1	61.8
755.497	61.78
755.894	61.83
756.291	61.81
756.688	61.77
757.085	61.76
757.482	61.77
757.878	61.78
758.275	61.78
758.672	61.8
759.068	61.82
759.465	61.84
759.861	61.82
760.258	61.77
760.654	61.76
761.05	61.79
761.447	61.76
761.843	61.7
762.239	61.68
762.635	61.67
763.031	61.65
763.427	61.64
763.822	61.58
764.218	61.61
764.614	61.6
765.01	61.55
765.405	61.53
765.801	61.51
766.196	61.53
766.592	61.55
766.987	61.55
767.382	61.55
767.778	61.61
768.173	61.68
768.568	61.62
768.963	61.64
769.358	61.67
769.753	61.7
770.148	61.72
770.542	61.72
770.937	61.7
771.332	61.7
771.726	61.69
772.121	61.62
772.515	61.59
772.91	61.63
773.304	61.6
773.699	61.64
774.093	61.58
774.487	61.59
774.881	61.59
775.275	61.62
775.669	61.62
776.063	61.59
776.457	61.58
776.851	61.56
777.245	61.55
777.638	61.56
778.032	61.53
778.425	61.56
778.819	61.57
779.212	61.55
779.606	61.51
779.999	61.48
780.392	61.5
780.786	61.5
781.179	61.52
781.572	61.48
781.965	61.51
782.358	61.49
782.751	61.48
783.143	61.48
783.536	61.54
783.929	61.59
784.322	61.62
784.714	61.65
785.107	61.69
785.499	61.68
785.891	61.72
786.284	61.66
786.676	61.68
787.068	61.66
787.46	61.64
787.852	61.61
788.245	61.58
788.636	61.56
789.028	61.54
789.42	61.48
789.812	61.51
790.204	61.46
790.595	61.51
790.987	61.49
791.378	61.5
791.77	61.55
792.161	61.54
792.553	61.55
792.944	61.57
793.335	61.58
793.726	61.6
794.117	61.6
794.508	61.6
794.899	61.58
795.29	61.57
795.681	61.55
796.072	61.5
796.463	61.46
796.853	61.44
797.244	61.4
797.634	61.41
798.025	61.39
798.415	61.39
798.806	61.41
799.196	61.42
799.586	61.46
799.976	61.47
800.366	61.48
800.756	61.52
801.146	61.55
801.536	61.55
801.926	61.58
802.316	61.61
802.706	61.6
803.095	61.6
803.485	61.62
803.874	61.58
804.264	61.61
804.653	61.61
805.043	61.61
805.432	61.53
805.821	61.53
806.21	61.51
806.599	61.55
806.988	61.55
807.377	61.6
807.766	61.58
808.155	61.61
808.544	61.57
808.933	61.57
809.321	61.6
809.71	61.67
810.098	61.68
810.487	61.68
810.875	61.64
811.264	61.65
811.652	61.63
812.04	61.6
812.428	61.62
812.816	61.65
813.204	61.65
813.592	61.64
813.98	61.64
814.368	61.65
814.756	61.65
815.144	61.66
815.531	61.65
815.919	61.6
816.306	61.6
816.694	61.6
817.081	61.59
817.469	61.61
817.856	61.65
818.243	61.63
818.63	61.68
819.017	61.66
819.404	61.66
819.791	61.67
820.178	61.73
820.565	61.78
820.952	61.78
821.339	61.8
821.725	61.83
822.112	61.82
822.498	61.81
822.885	61.79
823.271	61.81
823.657	61.81
824.044	61.79
824.43	61.78
824.816	61.77
825.202	61.77
825.588	61.77
825.974	61.77
826.36	61.74
826.746	61.79
827.132	61.73
827.517	61.75
827.903	61.76
828.289	61.78
828.674	61.78
829.06	61.8
829.445	61.81
829.83	61.81
830.216	61.82
830.601	61.85
830.986	61.84
831.371	61.93
831.756	61.88
832.141	61.87
832.526	61.9
832.911	61.93
833.295	61.92
833.68	61.92
834.065	61.93
834.449	61.9
834.834	61.85
835.218	61.82
835.603	61.8
835.987	61.81
836.371	61.84
836.755	61.81
837.139	61.81
837.524	61.8
837.908	61.79
838.291	61.79
838.675	61.82
839.059	61.85
839.443	61.87
839.827	61.86
840.21	61.87
840.594	61.86
840.977	61.84
841.361	61.82
841.744	61.84
842.127	61.85
842.511	61.83
842.894	61.79
843.277	61.77
843.66	61.75
844.043	61.74
844.426	61.76
844.809	61.75
845.191	61.76
845.574	61.72
845.957	61.67
846.339	61.68
846.722	61.67
847.104	61.69
847.487	61.71
847.869	61.71
848.252	61.71
848.634	61.7
849.016	61.69
849.398	61.68
849.78	61.7
850.162	61.72
850.544	61.71
850.926	61.69
851.307	61.71
851.689	61.69
852.071	61.69
852.452	61.7
852.834	61.71
853.215	61.7
853.597	61.72
853.978	61.68
854.359	61.67
854.741	61.67
855.122	61.7
855.503	61.69
855.884	61.69
856.265	61.67
856.646	61.62
857.026	61.59
857.407	61.56
857.788	61.58
858.169	61.6
858.549	61.61
858.93	61.61
859.31	61.59
859.69	61.6
860.071	61.59
860.451	61.61
860.831	61.65
861.211	61.66
861.591	61.7
861.971	61.68
862.351	61.69
862.731	61.7
863.111	61.69
863.491	61.69
863.87	61.65
864.25	61.67
864.629	61.66
865.009	61.65
865.388	61.63
865.768	61.62
866.147	61.62
866.526	61.6
866.905	61.6
867.284	61.63
867.663	61.62
868.042	61.65
868.421	61.62
868.8	61.63
869.179	61.63
869.558	61.63
869.936	61.64
870.315	61.63
870.693	61.66
871.072	61.62
871.45	61.59
871.828	61.62
872.207	61.62
872.585	61.62
872.963	61.59
873.341	61.61
873.719	61.62
874.097	61.59
874.475	61.6
874.853	61.56
875.23	61.6
875.608	61.6
875.986	61.56
876.363	61.56
876.741	61.56
877.118	61.56
877.495	61.54
877.873	61.53
878.25	61.54
878.627	61.53
879.004	61.56
879.381	61.57
879.758	61.55
880.135	61.58
880.512	61.56
880.889	61.54
881.265	61.6
881.642	61.6
882.019	61.62
882.395	61.61
882.772	61.6
883.148	61.58
883.524	61.56
883.901	61.55
884.277	61.52
884.653	61.55
885.029	61.55
885.405	61.48
885.781	61.46
886.157	61.49
886.532	61.48
886.908	61.52
887.284	61.55
887.659	61.59
888.035	61.61
888.411	61.59
888.786	61.55
889.161	61.56
889.537	61.6
889.912	61.58
890.287	61.55
890.662	61.56
891.037	61.52
891.412	61.49
891.787	61.44
892.162	61.41
892.536	61.42
892.911	61.42
893.286	61.37
893.66	61.33
894.035	61.34
894.409	61.33
894.784	61.32
895.158	61.31
895.532	61.29
895.906	61.3
896.281	61.29
896.655	61.27
897.029	61.24
897.402	61.26
897.776	61.26
898.15	61.24
898.524	61.21
898.898	61.16
899.271	61.17
899.645	61.2
900.018	61.17
900.392	61.19
900.765	61.22
901.138	61.24
901.511	61.24
901.884	61.25
902.258	61.25
902.631	61.27
903.003	61.32
903.376	61.27
903.749	61.26
904.122	61.28
904.495	61.29
904.867	61.28
905.24	61.27
905.612	61.26
905.985	61.26
906.357	61.25
906.729	61.25
907.102	61.22
907.474	61.25
907.846	61.24
908.218	61.16
908.59	61.13
908.962	61.1
909.334	61.09
909.705	61.07
910.077	61
910.449	61.03
910.82	61.03
911.192	61.03
911.563	60.97
911.935	60.95
912.306	60.98
912.677	60.99
913.048	60.95
913.419	60.94
913.79	60.95
914.161	60.97
914.532	60.93
914.903	60.9
915.274	60.87
915.645	60.91
916.015	60.95
916.386	60.9
916.756	60.85
917.127	60.88
917.497	60.88
917.868	60.87
918.238	60.89
918.608	60.89
918.978	60.86
919.348	60.82
919.718	60.79
920.088	60.76
920.458	60.82
920.828	60.83
921.198	60.84
921.567	60.81
921.937	60.83
922.306	60.78
922.676	60.79
923.045	60.82
923.415	60.84
923.784	60.8
924.153	60.76
924.522	60.71
924.891	60.71
925.26	60.66
925.629	60.65
925.998	60.62
926.367	60.6
926.736	60.58
927.104	60.58
927.473	60.6
927.842	60.61
928.21	60.66
928.578	60.62
928.947	60.64
929.315	60.69
929.683	60.69
930.051	60.68
930.42	60.71
930.788	60.71
931.156	60.68
931.523	60.65
931.891	60.6
932.259	60.51
932.627	60.47
932.994	60.4
933.362	60.34
933.729	60.31
934.097	60.3
934.464	60.27
934.831	60.25
935.199	60.21
935.566	60.19
935.933	60.3
936.3	60.27
936.667	60.25
937.034	60.23
937.401	60.18
937.767	60.15
938.134	60.11
938.501	60.01
938.867	60.01
939.234	60.03
939.6	60.08
939.967	60.03
940.333	60.15
940.699	60.3
941.065	60.45
941.431	60.58
941.798	60.73
942.163	60.79
942.529	60.87
942.895	60.91
943.261	60.91
943.627	60.94
943.992	60.87
944.358	60.92
944.723	60.87
945.089	60.86
945.454	60.88
945.82	60.88
946.185	61
946.55	61.04
946.915	61.06
947.28	61.06
947.645	61.06
948.01	61.05
948.375	61.02
948.74	61.02
949.104	60.96
949.469	60.86
949.834	60.81
950.198	60.64
950.562	60.56
950.927	60.49
951.291	60.48
951.655	60.4
952.02	60.4
952.384	60.48
952.748	60.45
953.112	60.41
953.476	60.42
953.839	60.36
954.203	60.33
954.567	60.34
954.931	60.33
955.294	60.28
955.658	60.31
956.021	60.26
956.385	60.12
956.748	60.11
957.111	60.04
957.474	59.96
957.837	59.97
958.2	59.95
958.563	59.91
958.926	59.85
959.289	59.86
959.652	59.79
960.015	59.77
960.377	59.79
960.74	59.78
961.102	59.84
961.465	59.87
961.827	59.77
962.189	59.74
962.552	59.73
962.914	59.76
963.276	59.77
963.638	59.75
964	59.74
964.362	59.7
964.724	59.66
965.085	59.7
965.447	59.6
965.809	59.59
966.17	59.61
966.532	59.61
966.893	59.63
967.255	59.5
967.616	59.52
967.977	59.53
968.338	59.47
968.699	59.5
969.061	59.36
969.421	59.38
969.782	59.44
970.143	59.44
970.504	59.35
970.865	59.27
971.225	59.32
971.586	59.42
971.946	59.43
972.307	59.48
972.667	59.53
973.027	59.62
973.388	59.57
973.748	59.62
974.108	59.73
974.468	59.82
974.828	59.84
975.188	59.87
975.548	59.81
975.907	59.77
976.267	59.79
976.627	59.72
976.986	59.74
977.346	59.8
977.705	59.76
978.064	59.71
978.424	59.71
978.783	59.74
979.142	59.67
979.501	59.67
979.86	59.7
980.219	59.67
980.578	59.66
980.937	59.61
981.296	59.68
981.654	59.74
982.013	59.74
982.371	59.7
982.73	59.71
983.088	59.66
983.447	59.63
983.805	59.53
984.163	59.54
984.521	59.44
984.879	59.36
985.237	59.4
985.595	59.37
985.953	59.26
986.311	59.35
986.669	59.36
987.026	59.51
987.384	59.45
987.741	59.6
988.099	59.6
988.456	59.7
988.814	59.71
989.171	59.67
989.528	59.58
989.885	59.63
990.242	59.64
990.599	59.71
990.956	59.72
991.313	59.74
991.67	59.83
992.027	59.81
992.383	59.82
992.74	59.93
993.096	59.92
993.453	60.05
993.809	60.09
994.165	60.06
994.522	59.95
994.878	59.78
995.234	59.78
995.59	59.59
995.946	59.69
996.302	59.54
996.658	59.58
997.013	59.59
997.369	59.46
997.725	59.6
998.08	59.59
998.436	59.62
998.791	59.73
999.147	59.77
999.502	59.73
999.857	59.64
1000.212	59.74
1000.567	59.75
1000.922	59.71
1001.277	59.71
1001.632	59.58
1001.987	59.47
1002.342	59.44
1002.696	59.43
1003.051	59.45
1003.406	59.41
1003.76	59.45
1004.114	59.61
1004.469	59.58
1004.823	59.67
1005.177	59.89
1005.531	59.9
1005.885	60
1006.239	59.99
1006.593	60.1
1006.947	59.98
1007.301	60.14
1007.655	60.09
1008.008	59.94
1008.362	59.88
1008.715	59.84
1009.069	59.66
1009.422	59.6
1009.776	59.61
1010.129	59.6
1010.482	59.59
1010.835	59.69
1011.188	59.64
1011.541	59.5
1011.894	59.44
1012.247	59.36
1012.6	59.53
1012.952	59.64
1013.305	59.73
1013.657	59.85
1014.01	59.98
1014.362	60.07
1014.715	59.97
1015.067	60.16
1015.419	60.5
1015.771	60.96
1016.123	61.11
1016.475	61.08
1016.827	61.14
1017.179	61.21
1017.531	61.13
1017.883	61.33
1018.234	61.08
1018.586	61.25
1018.938	61.21
1019.289	61.03
1019.64	61
1019.992	60.94
1020.343	60.76
1020.694	60.7
1021.045	60.67
1021.396	60.76
1021.747	60.56
1022.098	60.93
1022.449	60.84
1022.8	60.64
1023.151	60.88
1023.501	60.98
1023.852	61.3
1024.202	61.39
1024.553	61.27
1024.903	61.44
1025.253	61.37
1025.604	61.69
1025.954	61.32
1026.304	62.02
1026.654	62.37
1027.004	62.75
1027.354	62.58
1027.703	62.2
1028.053	62.35
1028.403	62.45
1028.753	62.9
1029.102	62.75
1029.452	62.34
1029.801	62.55
1030.15	62.13
1030.499	62.1
897.758	165.9
901.051	174.88
904.343	181.65
907.636	179.21
910.928	177.83
914.22	178.97
917.511	173.86
920.803	171.79
924.094	167.85
927.384	168.42
930.675	167.6
933.965	166.97
937.255	162.48
940.544	152.41
943.834	148.09
947.123	145.39
950.411	142.51
953.7	141.53
956.988	138.04
960.276	133.34
963.563	133.07
966.851	127.07
970.138	127.04
973.424	123.41
976.711	123.26
979.997	121.93
983.283	120.29
986.568	116.2
989.853	116.15
993.138	112.97
996.423	111.26
999.708	108.47
1002.992	109.46
1006.275	107.3
1009.559	107.59
1012.842	104.82
1016.125	101.34
1019.408	100.07
1022.69	101.7
1025.972	100.26
1029.254	99.23
1032.536	98.15
1035.817	97.88
1039.098	96.65
1042.379	97.51
1045.659	96.4
1048.939	95.76
1052.219	95.68
1055.498	95.28
1058.778	93.1
1062.057	92.52
1065.335	93.21
1068.614	91.1
1071.892	90.36
1075.17	89.29
1078.447	88.13
1081.724	88.03
1085.001	87.16
1088.278	87
1091.554	85.89
1094.83	86.96
1098.106	85.61
1101.382	85.69
1104.657	86.39
1107.932	85.35
1111.206	86.21
1114.481	85.72
1117.755	84.41
1121.029	84.43
1124.302	83.18
1127.575	83.84
1130.848	82.54
1134.121	81.61
1137.393	80.7
1140.665	80.61
1143.937	79.87
1147.208	78.18
1150.48	77.57
1153.75	77.75
1157.021	78.5
1160.291	78.25
1163.561	77.15
1166.831	78.01
1170.101	78.22
1173.37	78.4
1176.639	77.53
1179.907	77.76
1183.176	77.87
1186.444	77.79
1189.711	77.1
1192.979	76.72
1196.246	78.1
1199.513	77.87
1202.78	77.33
1206.046	77.63
1209.312	77.4
1212.578	77.7
1215.843	78.6
1219.108	78.47
1222.373	78.8
1225.638	79.9
1228.902	80.75
1232.166	80.49
1235.43	79.57
1238.693	81.4
1241.956	81.18
1245.219	82.11
1248.482	82.85
1251.744	82.29
1255.006	84.49
1258.268	82.6
1261.529	82.15
1264.79	81.22
1268.051	80.79
1271.312	82.99
1274.572	80.56
1277.832	80.38
1281.092	80.02
1284.351	79.32
1287.61	79.17
1290.869	78.28
1294.128	78.97
1297.386	79.06
1300.644	79.19
1303.902	78.15
1307.159	76.55
1310.416	77.15
1313.673	78.01
1316.93	77.84
1320.186	78.21
1323.442	78.44
1326.697	77.94
1329.953	78.48
1333.208	77.62
1336.463	78.57
1339.717	79.79
1342.972	82.63
1346.226	82.98
1349.479	82.87
1352.733	84.48
1355.986	84.92
1359.238	85.57
1362.491	85.57
1365.743	85.8
1368.995	88.41
1372.247	84.5
1375.498	83.4
1378.749	83.01
1382	82.17
1385.251	80.42
1388.501	79.82
1391.751	79.07
1395	77.93
1398.25	78.44
1401.499	76.3
1404.748	73.74
1407.996	76.26
1411.244	76.99
1414.492	74.54
1417.74	70.91
1420.987	68.92
1424.234	67.82
1427.481	65.11
1430.728	64.22
1433.974	62.4
1437.22	61.06
1440.465	58.86
1443.711	55.55
1446.956	54.61
1450.201	54.5
1453.445	53.57
1456.689	53.63
1459.933	51.69
1463.177	50.28
1466.42	49.21
1469.663	48.32
1472.906	47.37
1476.148	47.02
1479.391	47.74
1482.633	46.96
1485.874	46.73
1489.115	46.7
1492.356	45.91
1495.597	46.47
1498.838	47.13
1502.078	47.4
1505.318	47.71
1508.557	47.53
1511.797	48.39
1515.036	48.49
1518.274	49.19
1521.513	49.28
1524.751	49.54
1527.989	50.96
1531.227	50.71
1534.464	51.48
1537.701	51.46
1540.938	51.58
1544.174	51.53
1547.41	51.93
1550.646	52.21
1553.882	52.26
1557.117	52.27
1560.352	52.82
1563.587	52.41
1566.821	52.63
1570.055	52.98
1573.289	52.97
1576.523	53.49
1579.756	54.48
1582.989	54.35
1586.222	54.22
1589.454	54.9
1592.686	55.55
1595.918	55.19
1599.15	55.64
1602.381	55.58
1605.612	55.77
1608.843	56.17
1612.073	55.72
1615.303	55.85
1618.533	56.1
1621.762	56.41
1624.992	55.82
1628.221	55.41
1631.449	56.05
1634.678	56.4
1637.906	56.58
1641.134	56.7
1644.361	56.77
1647.588	57.28
1650.815	57.44
1654.042	57.61
1657.269	57.34
1660.495	57.97
1663.72	57.71
1666.946	57.39
1670.171	57.33
1673.396	57.5
1676.621	57.55
1679.845	58.52
1683.069	57.6
1686.293	56.8
1689.517	57.31
1692.74	57.3
1695.963	57.18
1699.185	57.23
1702.408	57.33
1705.63	57.29
1708.852	57.25
1712.073	56.74
1715.294	55.72
1718.515	56.93
1721.736	57.24
1724.956	56.65
1728.176	56.62
1731.396	56.41
1734.616	56.6
1737.835	56.16
1741.054	55.65
1744.272	56.15
1747.491	56.22
1750.709	55.96
1753.927	55.28
1757.144	55.49
1760.361	55
1763.578	54.96
1766.795	55.16
1770.011	55.2
1773.227	55.75
1776.443	55.7
1779.658	54.88
1782.874	55.03
1786.089	54.71
1789.303	54.93
1792.518	55.33
1795.732	55.2
1798.945	55.9
1802.159	55.64
1805.372	55.78
1808.585	55.54
1811.797	55.8
1815.01	56.38
1818.222	56.49
1821.434	56.83
1824.645	56.68
1827.856	56.45
1831.067	56.05
1834.278	56.5
1837.488	56.8
1840.698	56.33
1843.908	56.02
1847.117	56.34
1850.326	55.46
1853.535	55.53
1856.744	55.69
1859.952	55.3
1863.16	54.51
1866.368	54.34
1869.575	52.64
1872.782	50.89
1875.989	49.52
1879.196	49.15
1882.402	45.9
1885.608	46.02
1888.814	43.53
1892.019	40.95
1895.224	39.28
1898.429	38.44
1901.634	37.28
1904.838	36.65
1908.042	36.06
1911.246	35.61
1914.449	34.32
1917.652	36.63
1920.855	35.35
1924.058	34.89
1927.26	34.92
1930.462	35.43
1933.664	35.96
1936.865	35.23
1940.066	34.23
1943.267	34.35
1946.467	34.7
1949.668	34.62
1952.868	33.43
1956.067	33.52
1959.267	35.87
1962.466	35.99
1965.665	36.13
1968.863	36.35
1972.061	36.88
1975.259	38.18
1978.457	38.2
1981.654	38.36
1984.852	39.01
1988.048	39.98
1991.245	41.56
1994.441	41.23
1997.637	43.01
2000.833	44.08
2004.028	43.88
2007.223	45.47
2010.418	47.23
2013.613	50.44
2016.807	52.46
2020.001	53.27
2023.194	55.41
2026.388	56.05
2029.581	58.49
2032.774	59.12
2035.966	60.76
2039.158	63.46
2042.35	63.72
2045.542	63.69
2048.733	63.97
2051.924	64.64
2055.115	65.88
2058.306	65.46
2061.496	66.82
2064.686	65.16
2067.875	67
2071.065	68.99
2074.254	68.14
2077.442	71.62
2080.631	72.37
2083.819	72.9
2087.007	74.29
2090.195	75.45
2093.382	74.36
2096.569	74.36
2099.756	78.73
2102.942	78.27
2106.128	77.43
2109.314	81.2
2112.5	80.3
2115.685	78.4
2118.87	79.47
2122.055	80.93
2125.239	80.72
2128.424	85.25
2131.608	83.75
2134.791	83.66
2137.974	85.44
2141.157	86.96
2144.34	86.2
2147.523	88.47
2150.705	92.27
2153.887	93.89
2157.068	95.07
2160.25	96.01
2163.431	94.58
2166.611	98.1
2169.792	99.33
2172.972	99.01
2176.152	101.68
2179.331	101.54
2182.511	101.28
2185.69	101.88
2188.868	97.84
2192.047	99.76
2195.225	101.83
2198.403	103.36
2201.58	100.82
2204.758	105.54
2207.935	104.95
2211.111	103.46
2214.288	105.32
2217.464	107.74
2220.64	109.45
2223.815	110.5
2226.991	111.71
2230.166	111.04
2233.34	113.51
2236.515	115.83
2239.689	109.86
2242.863	114.73
2246.036	111.6
2249.209	115.12
2252.382	114.96
2255.555	117.37
2258.727	122.02
2261.9	118.11
2265.071	121
2268.243	123.45
2271.414	124.54
2274.585	126.61
2277.756	125.04
2280.926	126.8
2284.096	129.66
2287.266	130.43
2290.436	130.22
2293.605	133.65
2296.774	142.33
2299.942	138.2
2303.111	140.5
2306.279	145.24
2309.447	147.73
2312.614	145.35
2315.781	150.84
2318.948	151.45
2322.115	153.62
2325.281	152.4
2328.447	150.33
2331.613	152.72
2334.779	159.65
2337.944	155.38
2341.109	156.41
2344.274	158.13
2347.438	164.88
2350.602	168.66
2353.766	176.35
2356.929	177.04
2360.092	186.2
2363.255	186.02
2366.418	185.12
2369.58	185.76
2372.742	199.2
2375.904	201.65
2379.066	205.03
2382.227	218.93
2385.388	211.68
2388.548	205.96
2391.709	202.48
2394.869	203.76
2398.029	210.11
2401.188	211.24
2404.347	220.71
2407.506	213.34
2410.665	208.42
2413.823	208.64
2416.981	210.27
2420.139	210.9
2423.296	219
2426.453	228.47
2429.61	223.12
2432.767	230.77
2435.923	241.84
2439.079	229.28
2442.235	239.6
2445.391	242.02
2448.546	243.18
2451.701	240.82
2454.855	249.67
2458.009	233.07
2461.163	240.37
2464.317	244.82
2467.471	236.61
2470.624	237.06
2473.777	245.07
2476.929	239.08
2480.082	246.35
2483.234	257.84
2486.385	269.2
2489.537	276.08
2492.688	291.4
2495.839	287.03
2498.989	291.64
2502.14	295.84
2505.29	284.95
2508.439	301.56
2511.589	307.82
2514.738	307.85
2517.887	300.47
2521.035	283.55
2524.183	281.59
2527.331	281.89
2530.479	273.55
2533.627	279.04
