Data from C_1_DIV_PA_2n_Splice17_20.txt Node
Date: Sat Feb 29 13:06:52 EST 2020
User: sa697716
Spectrometer: FLMS03696
Trigger mode: 0
Integration Time (sec): 3.180400E-1
Scans to average: 20
Electric dark correction enabled: true
Nonlinearity correction enabled: true
Boxcar width: 5
XAxis mode: Wavelengths
Number of Pixels in Spectrum: 2048
>>>>>Begin Spectral Data<<<<<
187.83	78.05
188.298	76.05
188.766	64.2
189.233	56.84
189.701	55.39
190.169	56.25
190.636	55.28
191.104	30.21
191.571	225.96
192.039	213.39
192.506	-412.01
192.974	1765.41
193.441	35.64
193.908	13.43
194.375	-48.33
194.842	10.68
195.31	64.4
195.777	37.15
196.244	9.81
196.711	16.21
197.177	15
197.644	16.24
198.111	14.63
198.578	14.56
199.045	15.41
199.511	15.62
199.978	15.92
200.445	15.53
200.911	16.22
201.378	16.34
201.844	17.12
202.31	17.78
202.777	18.24
203.243	18.74
203.709	19.4
204.176	19.04
204.642	19.36
205.108	19.4
205.574	20
206.04	19.78
206.506	19.88
206.972	20.38
207.438	20
207.903	20.28
208.369	20.39
208.835	20.27
209.301	20.56
209.766	20.36
210.232	20.39
210.697	20.05
211.163	19.93
211.628	19.77
212.094	19.21
212.559	19.28
213.024	18.92
213.49	18.99
213.955	18.93
214.42	18.85
214.885	18.72
215.35	18.67
215.815	18.36
216.28	18.42
216.745	18.37
217.21	18.22
217.675	17.98
218.14	17.62
218.604	17.25
219.069	17.01
219.534	16.78
219.998	16.63
220.463	16.42
220.927	16.31
221.392	16.07
221.856	15.89
222.32	15.72
222.785	15.56
223.249	15.45
223.713	15.33
224.177	15.19
224.642	15.05
225.106	14.88
225.57	14.72
226.034	14.6
226.497	14.45
226.961	14.3
227.425	14.13
227.889	14.02
228.353	13.87
228.816	13.75
229.28	13.61
229.744	13.48
230.207	13.36
230.671	13.25
231.134	13.13
231.597	13.03
232.061	12.92
232.524	12.84
232.987	12.71
233.45	12.59
233.914	12.47
234.377	12.38
234.84	12.28
235.303	12.19
235.766	12.08
236.229	11.97
236.691	11.87
237.154	11.78
237.617	11.68
238.08	11.58
238.542	11.51
239.005	11.42
239.468	11.32
239.93	11.22
240.393	11.12
240.855	11.04
241.317	10.97
241.78	10.91
242.242	10.81
242.704	10.74
243.166	10.67
243.629	10.58
244.091	10.51
244.553	10.45
245.015	10.4
245.477	10.32
245.939	10.23
246.4	10.14
246.862	10.08
247.324	10.02
247.786	9.96
248.247	9.91
248.709	9.85
249.17	9.79
249.632	9.73
250.093	9.64
250.555	9.6
251.016	9.55
251.477	9.51
251.939	9.45
252.4	9.41
252.861	9.35
253.322	9.3
253.783	9.27
254.244	9.24
254.705	9.19
255.166	9.16
255.627	9.11
256.088	9.07
256.549	9.04
257.009	9
257.47	8.95
257.931	8.93
258.391	8.89
258.852	8.83
259.312	8.78
259.773	8.74
260.233	8.71
260.694	8.67
261.154	8.63
261.614	8.59
262.074	8.55
262.534	8.51
262.994	8.47
263.455	8.44
263.915	8.4
264.374	8.36
264.834	8.34
265.294	8.3
265.754	8.27
266.214	8.24
266.673	8.21
267.133	8.19
267.593	8.16
268.052	8.13
268.512	8.1
268.971	8.07
269.431	8.05
269.89	8.03
270.349	8
270.809	7.98
271.268	7.96
271.727	7.93
272.186	7.9
272.645	7.88
273.104	7.86
273.563	7.83
274.022	7.81
274.481	7.79
274.94	7.76
275.399	7.74
275.857	7.71
276.316	7.68
276.775	7.65
277.233	7.63
277.692	7.6
278.15	7.57
278.609	7.54
279.067	7.5
279.525	7.48
279.984	7.45
280.442	7.42
280.9	7.4
281.358	7.38
281.816	7.35
282.274	7.33
282.732	7.31
283.19	7.29
283.648	7.28
284.106	7.26
284.564	7.25
285.021	7.24
285.479	7.22
285.937	7.2
286.394	7.18
286.852	7.16
287.309	7.16
287.767	7.15
288.224	7.13
288.682	7.11
289.139	7.11
289.596	7.08
290.053	7.06
290.511	7.04
290.968	7.03
291.425	7.01
291.882	7
292.339	6.97
292.796	6.94
293.252	6.92
293.709	6.91
294.166	6.88
294.623	6.87
295.079	6.86
295.536	6.85
295.992	6.84
296.449	6.83
296.905	6.81
297.362	6.8
297.818	6.79
298.274	6.77
298.731	6.76
299.187	6.75
299.643	6.73
300.099	6.72
300.555	6.7
301.011	6.69
301.467	6.68
301.923	6.67
302.379	6.66
302.835	6.65
303.291	6.63
303.746	6.62
304.202	6.6
304.658	6.58
305.113	6.56
305.569	6.55
306.024	6.53
306.479	6.52
306.935	6.51
307.39	6.49
307.845	6.47
308.301	6.47
308.756	6.46
309.211	6.47
309.666	6.46
310.121	6.46
310.576	6.45
311.031	6.45
311.486	6.44
311.94	6.44
312.395	6.44
312.85	6.43
313.305	6.42
313.759	6.41
314.214	6.4
314.668	6.39
315.123	6.39
315.577	6.38
316.032	6.38
316.486	6.37
316.94	6.35
317.394	6.34
317.849	6.34
318.303	6.33
318.757	6.33
319.211	6.31
319.665	6.3
320.119	6.29
320.572	6.28
321.026	6.26
321.48	6.25
321.934	6.24
322.387	6.24
322.841	6.23
323.295	6.22
323.748	6.21
324.202	6.21
324.655	6.2
325.108	6.18
325.562	6.16
326.015	6.15
326.468	6.14
326.921	6.13
327.374	6.11
327.827	6.1
328.28	6.09
328.733	6.08
329.186	6.08
329.639	6.07
330.092	6.06
330.545	6.06
330.997	6.06
331.45	6.05
331.903	6.04
332.355	6.03
332.808	6.03
333.26	6.03
333.713	6.02
334.165	6.02
334.617	6.03
335.069	6.03
335.522	6.03
335.974	6.04
336.426	6.05
336.878	6.05
337.33	6.05
337.782	6.05
338.234	6.04
338.686	6.03
339.137	6.03
339.589	6.01
340.041	6
340.493	5.99
340.944	5.98
341.396	5.97
341.847	5.95
342.299	5.94
342.75	5.92
343.201	5.91
343.653	5.9
344.104	5.89
344.555	5.87
345.006	5.86
345.457	5.85
345.908	5.84
346.359	5.83
346.81	5.83
347.261	5.82
347.712	5.82
348.163	5.82
348.613	5.81
349.064	5.8
349.515	5.79
349.965	5.78
350.416	5.79
350.866	5.78
351.317	5.78
351.767	5.78
352.217	5.78
352.668	5.79
353.118	5.8
353.568	5.81
354.018	5.82
354.468	5.82
354.918	5.84
355.368	5.84
355.818	5.84
356.268	5.85
356.718	5.85
357.168	5.84
357.617	5.84
358.067	5.83
358.517	5.82
358.966	5.83
359.416	5.85
359.865	5.86
360.315	5.86
360.764	5.87
361.213	5.87
361.663	5.89
362.112	5.91
362.561	5.93
363.01	5.95
363.459	5.97
363.908	5.98
364.357	6
364.806	6.01
365.255	6.04
365.703	6.05
366.152	6.07
366.601	6.09
367.05	6.11
367.498	6.12
367.947	6.13
368.395	6.16
368.844	6.19
369.292	6.2
369.74	6.23
370.189	6.25
370.637	6.28
371.085	6.31
371.533	6.33
371.981	6.36
372.429	6.39
372.877	6.42
373.325	6.45
373.773	6.45
374.221	6.49
374.669	6.51
375.116	6.54
375.564	6.56
376.012	6.59
376.459	6.62
376.907	6.66
377.354	6.69
377.801	6.72
378.249	6.75
378.696	6.81
379.143	6.83
379.591	6.87
380.038	6.9
380.485	6.95
380.932	6.97
381.379	7.01
381.826	7.03
382.273	7.08
382.72	7.12
383.166	7.14
383.613	7.16
384.06	7.18
384.506	7.21
384.953	7.24
385.4	7.27
385.846	7.29
386.292	7.33
386.739	7.36
387.185	7.39
387.631	7.4
388.078	7.44
388.524	7.47
388.97	7.5
389.416	7.53
389.862	7.55
390.308	7.59
390.754	7.62
391.2	7.65
391.645	7.68
392.091	7.7
392.537	7.73
392.983	7.76
393.428	7.78
393.874	7.82
394.319	7.86
394.765	7.88
395.21	7.88
395.655	7.92
396.101	7.93
396.546	7.95
396.991	7.97
397.436	7.97
397.881	8.01
398.326	8.03
398.771	8.06
399.216	8.09
399.661	8.12
400.106	8.16
400.551	8.15
400.995	8.15
401.44	8.16
401.885	8.18
402.329	8.2
402.774	8.19
403.218	8.2
403.663	8.2
404.107	8.21
404.551	8.22
404.995	8.22
405.44	8.25
405.884	8.27
406.328	8.28
406.772	8.3
407.216	8.32
407.66	8.34
408.104	8.36
408.547	8.38
408.991	8.37
409.435	8.36
409.879	8.37
410.322	8.38
410.766	8.39
411.209	8.4
411.653	8.4
412.096	8.4
412.54	8.4
412.983	8.39
413.426	8.4
413.869	8.42
414.312	8.45
414.756	8.46
415.199	8.47
415.642	8.49
416.085	8.51
416.527	8.52
416.97	8.53
417.413	8.53
417.856	8.55
418.298	8.54
418.741	8.54
419.184	8.52
419.626	8.53
420.069	8.52
420.511	8.52
420.953	8.5
421.396	8.52
421.838	8.52
422.28	8.55
422.722	8.55
423.164	8.56
423.606	8.58
424.048	8.59
424.49	8.6
424.932	8.61
425.374	8.61
425.816	8.61
426.258	8.6
426.699	8.58
427.141	8.55
427.582	8.55
428.024	8.55
428.465	8.56
428.907	8.57
429.348	8.57
429.789	8.58
430.231	8.56
430.672	8.56
431.113	8.58
431.554	8.61
431.995	8.65
432.436	8.66
432.877	8.67
433.318	8.66
433.759	8.66
434.2	8.66
434.64	8.67
435.081	8.69
435.522	8.7
435.962	8.72
436.403	8.75
436.843	8.75
437.284	8.77
437.724	8.78
438.164	8.79
438.604	8.8
439.045	8.8
439.485	8.82
439.925	8.82
440.365	8.82
440.805	8.82
441.245	8.79
441.685	8.78
442.125	8.77
442.564	8.78
443.004	8.78
443.444	8.79
443.883	8.82
444.323	8.79
444.762	8.83
445.202	8.85
445.641	8.85
446.081	8.88
446.52	8.89
446.959	8.91
447.398	8.95
447.837	8.96
448.276	8.96
448.716	8.97
449.154	9.01
449.593	9
450.032	9.02
450.471	9.04
450.91	9.03
451.349	9.03
451.787	9.03
452.226	9.02
452.664	9.02
453.103	9.01
453.541	9.02
453.98	9.01
454.418	8.99
454.856	8.96
455.295	8.92
455.733	8.92
456.171	8.92
456.609	8.92
457.047	8.9
457.485	8.88
457.923	8.87
458.361	8.87
458.798	8.88
459.236	8.89
459.674	8.9
460.111	8.92
460.549	8.91
460.987	8.91
461.424	8.89
461.862	8.9
462.299	8.9
462.736	8.91
463.173	8.91
463.611	8.89
464.048	8.89
464.485	8.88
464.922	8.89
465.359	8.92
465.796	8.9
466.233	8.93
466.67	8.91
467.106	8.92
467.543	8.93
467.98	8.95
468.416	8.96
468.853	8.97
469.29	9
469.726	8.99
470.162	8.96
470.599	8.98
471.035	8.98
471.471	8.99
471.907	9
472.344	8.96
472.78	8.94
473.216	8.93
473.652	8.92
474.088	8.9
474.523	8.89
474.959	8.88
475.395	8.87
475.831	8.87
476.266	8.86
476.702	8.85
477.138	8.86
477.573	8.85
478.008	8.85
478.444	8.82
478.879	8.81
479.314	8.8
479.75	8.8
480.185	8.79
480.62	8.77
481.055	8.76
481.49	8.74
481.925	8.72
482.36	8.71
482.795	8.7
483.229	8.69
483.664	8.67
484.099	8.67
484.534	8.65
484.968	8.64
485.403	8.64
485.837	8.64
486.271	8.62
486.706	8.61
487.14	8.61
487.574	8.59
488.009	8.6
488.443	8.6
488.877	8.6
489.311	8.59
489.745	8.59
490.179	8.59
490.613	8.58
491.046	8.59
491.48	8.6
491.914	8.59
492.348	8.6
492.781	8.6
493.215	8.6
493.648	8.6
494.082	8.61
494.515	8.62
494.948	8.61
495.382	8.62
495.815	8.62
496.248	8.63
496.681	8.64
497.114	8.64
497.547	8.64
497.98	8.65
498.413	8.66
498.846	8.66
499.279	8.67
499.711	8.68
500.144	8.68
500.577	8.68
501.009	8.7
501.442	8.71
501.874	8.73
502.306	8.74
502.739	8.74
503.171	8.76
503.603	8.78
504.036	8.8
504.468	8.83
504.9	8.86
505.332	8.89
505.764	8.92
506.196	8.94
506.627	8.96
507.059	8.99
507.491	9.03
507.923	9.05
508.354	9.08
508.786	9.11
509.217	9.13
509.649	9.15
510.08	9.18
510.512	9.2
510.943	9.24
511.374	9.27
511.805	9.31
512.237	9.34
512.668	9.38
513.099	9.42
513.53	9.47
513.961	9.52
514.391	9.56
514.822	9.6
515.253	9.66
515.684	9.71
516.114	9.78
516.545	9.84
516.975	9.91
517.406	9.97
517.836	10.05
518.267	10.12
518.697	10.2
519.127	10.29
519.558	10.38
519.988	10.46
520.418	10.54
520.848	10.62
521.278	10.7
521.708	10.61
522.138	10.68
522.567	10.74
522.997	10.82
523.427	10.88
523.857	10.95
524.286	11.02
524.716	11.1
525.145	11.19
525.575	11.26
526.004	11.33
526.433	11.57
526.863	11.66
527.292	11.75
527.721	11.81
528.15	11.89
528.579	11.95
529.008	12.02
529.437	12.07
529.866	12.12
530.295	12.17
530.724	12.21
531.152	12.27
531.581	12.3
532.01	12.36
532.438	12.4
532.867	12.44
533.295	12.46
533.723	12.51
534.152	12.55
534.58	12.57
535.008	12.6
535.436	12.63
535.865	12.65
536.293	12.69
536.721	12.7
537.149	12.7
537.576	12.72
538.004	12.74
538.432	12.73
538.86	12.74
539.287	12.74
539.715	12.76
540.143	12.78
540.57	12.8
540.998	12.8
541.425	12.8
541.852	12.83
542.28	12.85
542.707	12.87
543.134	12.87
543.561	12.87
543.988	12.88
544.415	12.89
544.842	12.89
545.269	12.89
545.696	12.87
546.123	12.88
546.549	12.88
546.976	12.89
547.403	12.88
547.829	12.89
548.256	12.91
548.682	12.93
549.108	12.94
549.535	12.94
549.961	12.94
550.387	12.95
550.813	12.94
551.24	12.92
551.666	12.93
552.092	12.94
552.518	12.92
552.943	12.91
553.369	12.89
553.795	12.86
554.221	12.84
554.646	12.82
555.072	12.79
555.498	12.78
555.923	12.76
556.349	12.71
556.774	12.66
557.199	12.64
557.625	12.59
558.05	12.54
558.475	12.51
558.9	12.47
559.325	12.43
559.75	12.36
560.175	12.29
560.6	12.23
561.025	12.17
561.449	12.11
561.874	12.05
562.299	11.98
562.723	11.93
563.148	11.86
563.572	11.79
563.997	11.72
564.421	11.68
564.846	11.63
565.27	11.55
565.694	11.49
566.118	11.41
566.542	11.34
566.966	11.29
567.39	11.22
567.814	11.14
568.238	11.07
568.662	11.01
569.086	10.95
569.509	10.88
569.933	10.8
570.357	10.72
570.78	10.69
571.204	10.63
571.627	10.56
572.05	10.51
572.474	10.46
572.897	10.4
573.32	10.34
573.743	10.29
574.166	10.25
574.589	10.23
575.012	10.19
575.435	10.12
575.858	10.08
576.281	10.05
576.704	10.02
577.126	9.98
577.549	9.96
577.972	9.94
578.394	9.89
578.817	9.86
579.239	9.82
579.661	9.81
580.084	9.8
580.506	9.76
580.928	9.73
581.35	9.69
581.772	9.68
582.194	9.64
582.616	9.62
583.038	9.6
583.46	9.59
583.882	9.57
584.303	9.55
584.725	9.54
585.147	9.51
585.568	9.47
585.99	9.47
586.411	9.43
586.833	9.41
587.254	9.4
587.675	9.39
588.096	9.36
588.518	9.35
588.939	9.34
589.36	9.33
589.781	9.34
590.202	9.35
590.623	9.32
591.043	9.32
591.464	9.31
591.885	9.3
592.305	9.3
592.726	9.27
593.147	9.25
593.567	9.23
593.987	9.22
594.408	9.19
594.828	9.17
595.248	9.17
595.669	9.16
596.089	9.14
596.509	9.11
596.929	9.09
597.349	9.09
597.769	9.08
598.189	9.07
598.608	9.06
599.028	9.05
599.448	9.04
599.867	9.03
600.287	9.01
600.706	9
601.126	9
601.545	8.98
601.965	8.97
602.384	8.95
602.803	8.92
603.222	8.9
603.641	8.9
604.061	8.89
604.48	8.87
604.898	8.87
605.317	8.85
605.736	8.84
606.155	8.82
606.574	8.81
606.992	8.78
607.411	8.77
607.829	8.72
608.248	8.69
608.666	8.66
609.085	8.65
609.503	8.63
609.921	8.59
610.339	8.58
610.758	8.57
611.176	8.54
611.594	8.52
612.012	8.51
612.43	8.55
612.847	8.54
613.265	8.53
613.683	8.52
614.101	8.5
614.518	8.5
614.936	8.49
615.353	8.49
615.771	8.48
616.188	8.49
616.606	8.47
617.023	8.47
617.44	8.45
617.857	8.43
618.274	8.41
618.691	8.41
619.108	8.39
619.525	8.38
619.942	8.36
620.359	8.36
620.776	8.35
621.192	8.34
621.609	8.31
622.026	8.3
622.442	8.3
622.859	8.29
623.275	8.3
623.691	8.31
624.108	8.31
624.524	8.3
624.94	8.29
625.356	8.28
625.772	8.27
626.188	8.29
626.604	8.28
627.02	8.27
627.436	8.26
627.852	8.24
628.268	8.22
628.683	8.21
629.099	8.21
629.514	8.2
629.93	8.2
630.345	8.19
630.761	8.16
631.176	8.17
631.591	8.17
632.007	8.15
632.422	8.16
632.837	8.15
633.252	8.14
633.667	8.12
634.082	8.12
634.497	8.1
634.911	8.11
635.326	8.1
635.741	8.08
636.155	8.07
636.57	8.06
636.984	8.03
637.399	8.01
637.813	8
638.228	8
638.642	7.99
639.056	7.99
639.47	7.97
639.884	7.94
640.298	7.93
640.712	7.92
641.126	7.9
641.54	7.89
641.954	7.9
642.368	7.88
642.781	7.86
643.195	7.84
643.609	7.82
644.022	7.79
644.436	7.78
644.849	7.78
645.262	7.77
645.676	7.77
646.089	7.76
646.502	7.76
646.915	7.75
647.328	7.75
647.741	7.74
648.154	7.76
648.567	7.75
648.98	7.75
649.393	7.75
649.805	7.73
650.218	7.74
650.631	7.73
651.043	7.72
651.456	7.72
651.868	7.71
652.28	7.71
652.693	7.69
653.105	7.69
653.517	7.69
653.929	7.69
654.341	7.7
654.753	7.69
655.165	7.69
655.577	7.68
655.989	7.67
656.401	7.65
656.813	7.65
657.224	7.64
657.636	7.65
658.047	7.64
658.459	7.62
658.87	7.61
659.282	7.6
659.693	7.6
660.104	7.6
660.515	7.6
660.926	7.6
661.338	7.6
661.749	7.58
662.159	7.57
662.57	7.57
662.981	7.57
663.392	7.57
663.803	7.57
664.213	7.57
664.624	7.57
665.035	7.57
665.445	7.57
665.855	7.59
666.266	7.6
666.676	7.6
667.086	7.61
667.497	7.6
667.907	7.62
668.317	7.6
668.727	7.6
669.137	7.61
669.547	7.63
669.956	7.64
670.366	7.65
670.776	7.65
671.186	7.67
671.595	7.68
672.005	7.7
672.414	7.71
672.824	7.73
673.233	7.77
673.642	7.77
674.052	7.78
674.461	7.79
674.87	7.81
675.279	7.83
675.688	7.85
676.097	7.87
676.506	7.89
676.915	7.91
677.323	7.95
677.732	7.97
678.141	8
678.549	8.03
678.958	8.06
679.366	8.06
679.775	8.1
680.183	8.12
680.592	8.15
681	8.17
681.408	8.19
681.816	8.19
682.224	8.21
682.632	8.23
683.04	8.23
683.448	8.24
683.856	8.26
684.264	8.27
684.671	8.28
685.079	8.27
685.487	8.3
685.894	8.31
686.302	8.34
686.709	8.34
687.116	8.36
687.524	8.39
687.931	8.4
688.338	8.43
688.745	8.48
689.152	8.51
689.559	8.58
689.966	8.61
690.373	8.67
690.78	8.73
691.187	8.81
691.593	8.89
692	8.97
692.407	9.08
692.813	9.2
693.22	9.31
693.626	9.45
694.032	9.59
694.439	9.76
694.845	9.91
695.251	10.1
695.657	10.3
696.063	10.5
696.469	10.73
696.875	10.95
697.281	11.16
697.687	11.43
698.093	11.69
698.498	11.96
698.904	12.25
699.31	12.57
699.715	12.88
700.12	13.21
700.526	13.56
700.931	13.91
701.337	14.28
701.742	14.65
702.147	15.03
702.552	15.42
702.957	15.82
703.362	16.24
703.767	16.65
704.172	17.08
704.577	17.52
704.981	17.96
705.386	18.42
705.791	18.9
706.195	19.37
706.6	19.84
707.004	20.34
707.408	20.83
707.813	21.31
708.217	21.81
708.621	22.34
709.025	22.87
709.43	23.38
709.834	23.92
710.237	24.42
710.641	25.02
711.045	25.56
711.449	26.08
711.853	26.66
712.256	27.24
712.66	27.81
713.064	28.37
713.467	28.92
713.87	29.54
714.274	30.13
714.677	30.71
715.08	31.28
715.484	31.91
715.887	32.52
716.29	33.11
716.693	33.7
717.096	34.31
717.499	34.94
717.901	35.54
718.304	36.12
718.707	36.72
719.109	37.37
719.512	37.98
719.915	38.57
720.317	39.18
720.719	39.78
721.122	40.38
721.524	40.98
721.926	41.56
722.328	42.19
722.731	42.78
723.133	43.36
723.535	43.91
723.937	44.47
724.338	45.01
724.74	45.53
725.142	45.99
725.544	46.48
725.945	46.95
726.347	47.48
726.748	47.92
727.15	48.4
727.551	48.87
727.952	49.33
728.354	49.82
728.755	50.28
729.156	50.76
729.557	51.29
729.958	51.77
730.359	52.22
730.76	52.6
731.161	53.04
731.562	53.43
731.962	53.84
732.363	54.2
732.763	54.58
733.164	54.93
733.564	55.28
733.965	55.59
734.365	55.92
734.766	56.24
735.166	56.55
735.566	56.82
735.966	57.09
736.366	57.3
736.766	57.55
737.166	57.78
737.566	58.01
737.966	58.24
738.365	58.47
738.765	58.7
739.165	58.89
739.564	59.12
739.964	59.32
740.363	59.54
740.763	59.77
741.162	59.98
741.561	60.18
741.96	60.37
742.36	60.58
742.759	60.75
743.158	60.87
743.557	61.06
743.955	61.23
744.354	61.43
744.753	61.56
745.152	61.7
745.55	61.82
745.949	61.96
746.348	62.11
746.746	62.2
747.144	62.36
747.543	62.5
747.941	62.64
748.339	62.74
748.737	62.83
749.136	62.95
749.534	63.09
749.932	63.17
750.33	63.25
750.727	63.33
751.125	63.42
751.523	63.46
751.921	63.56
752.318	63.6
752.716	63.64
753.113	63.67
753.511	63.68
753.908	63.69
754.305	63.76
754.703	63.74
755.1	63.77
755.497	63.77
755.894	63.78
756.291	63.74
756.688	63.72
757.085	63.7
757.482	63.7
757.878	63.75
758.275	63.73
758.672	63.75
759.068	63.79
759.465	63.77
759.861	63.78
760.258	63.76
760.654	63.76
761.05	63.8
761.447	63.8
761.843	63.81
762.239	63.79
762.635	63.83
763.031	63.85
763.427	63.82
763.822	63.81
764.218	63.85
764.614	63.92
765.01	63.99
765.405	64
765.801	64.03
766.196	64.07
766.592	64.08
766.987	64.1
767.382	64.09
767.778	64.13
768.173	64.16
768.568	64.15
768.963	64.14
769.358	64.11
769.753	64.12
770.148	64.14
770.542	64.11
770.937	64.14
771.332	64.15
771.726	64.16
772.121	64.14
772.515	64.18
772.91	64.17
773.304	64.14
773.699	64.13
774.093	64.12
774.487	64.11
774.881	64.13
775.275	64.13
775.669	64.11
776.063	64.1
776.457	64.11
776.851	64.06
777.245	64.1
777.638	64.12
778.032	64.14
778.425	64.14
778.819	64.13
779.212	64.1
779.606	64.1
779.999	64.08
780.392	64.07
780.786	64.04
781.179	64.07
781.572	64.03
781.965	64.05
782.358	64.02
782.751	64
783.143	64.02
783.536	64.09
783.929	64.1
784.322	64.12
784.714	64.14
785.107	64.18
785.499	64.2
785.891	64.24
786.284	64.2
786.676	64.25
787.068	64.27
787.46	64.25
787.852	64.21
788.245	64.22
788.636	64.22
789.028	64.16
789.42	64.17
789.812	64.14
790.204	64.07
790.595	64.11
790.987	64.11
791.378	64.12
791.77	64.13
792.161	64.14
792.553	64.09
792.944	64.14
793.335	64.16
793.726	64.12
794.117	64.12
794.508	64.13
794.899	64.09
795.29	64.08
795.681	64.09
796.072	64.11
796.463	64.05
796.853	64.07
797.244	64.01
797.634	63.98
798.025	64
798.415	64
798.806	64.03
799.196	64.04
799.586	64.03
799.976	63.99
800.366	63.98
800.756	64.02
801.146	64
801.536	64.02
801.926	64.02
802.316	64.04
802.706	64.04
803.095	64.03
803.485	64.05
803.874	64.03
804.264	64.05
804.653	64.02
805.043	64
805.432	63.99
805.821	64.01
806.21	64.06
806.599	64.08
806.988	64.1
807.377	64.09
807.766	64.08
808.155	64.1
808.544	64.04
808.933	64.07
809.321	64.14
809.71	64.17
810.098	64.12
810.487	64.09
810.875	64.07
811.264	64.06
811.652	64.06
812.04	64.03
812.428	64.04
812.816	64.1
813.204	64.1
813.592	64.01
813.98	64.01
814.368	64.01
814.756	64.01
815.144	64.02
815.531	64.02
815.919	64.01
816.306	64.04
816.694	64.04
817.081	64.01
817.469	64.02
817.856	64.1
818.243	64.09
818.63	64.14
819.017	64.14
819.404	64.15
819.791	64.17
820.178	64.18
820.565	64.17
820.952	64.16
821.339	64.19
821.725	64.2
822.112	64.17
822.498	64.23
822.885	64.24
823.271	64.29
823.657	64.28
824.044	64.25
824.43	64.28
824.816	64.28
825.202	64.3
825.588	64.29
825.974	64.27
826.36	64.24
826.746	64.23
827.132	64.18
827.517	64.14
827.903	64.15
828.289	64.17
828.674	64.16
829.06	64.19
829.445	64.19
829.83	64.19
830.216	64.21
830.601	64.23
830.986	64.24
831.371	64.29
831.756	64.28
832.141	64.28
832.526	64.27
832.911	64.3
833.295	64.3
833.68	64.33
834.065	64.35
834.449	64.31
834.834	64.31
835.218	64.28
835.603	64.27
835.987	64.27
836.371	64.29
836.755	64.3
837.139	64.26
837.524	64.25
837.908	64.19
838.291	64.16
838.675	64.2
839.059	64.17
839.443	64.17
839.827	64.16
840.21	64.17
840.594	64.16
840.977	64.15
841.361	64.19
841.744	64.21
842.127	64.22
842.511	64.25
842.894	64.2
843.277	64.24
843.66	64.25
844.043	64.27
844.426	64.27
844.809	64.23
845.191	64.22
845.574	64.21
845.957	64.15
846.339	64.17
846.722	64.18
847.104	64.21
847.487	64.22
847.869	64.22
848.252	64.19
848.634	64.22
849.016	64.28
849.398	64.29
849.78	64.27
850.162	64.29
850.544	64.3
850.926	64.29
851.307	64.29
851.689	64.23
852.071	64.24
852.452	64.28
852.834	64.23
853.215	64.2
853.597	64.17
853.978	64.15
854.359	64.14
854.741	64.16
855.122	64.16
855.503	64.17
855.884	64.17
856.265	64.17
856.646	64.15
857.026	64.17
857.407	64.15
857.788	64.18
858.169	64.19
858.549	64.23
858.93	64.21
859.31	64.18
859.69	64.15
860.071	64.14
860.451	64.12
860.831	64.12
861.211	64.09
861.591	64.08
861.971	64.08
862.351	64.11
862.731	64.09
863.111	64.1
863.491	64.1
863.87	64.12
864.25	64.16
864.629	64.15
865.009	64.14
865.388	64.15
865.768	64.16
866.147	64.17
866.526	64.17
866.905	64.16
867.284	64.15
867.663	64.15
868.042	64.14
868.421	64.13
868.8	64.13
869.179	64.16
869.558	64.15
869.936	64.13
870.315	64.13
870.693	64.14
871.072	64.14
871.45	64.12
871.828	64.13
872.207	64.17
872.585	64.16
872.963	64.15
873.341	64.13
873.719	64.12
874.097	64.12
874.475	64.1
874.853	64.06
875.23	64.07
875.608	64.07
875.986	64.05
876.363	64.03
876.741	64.01
877.118	64.03
877.495	64.05
877.873	64.06
878.25	64.05
878.627	64.04
879.004	64.05
879.381	64.06
879.758	64.06
880.135	64.08
880.512	64.11
880.889	64.13
881.265	64.12
881.642	64.13
882.019	64.17
882.395	64.16
882.772	64.19
883.148	64.2
883.524	64.24
883.901	64.25
884.277	64.26
884.653	64.24
885.029	64.24
885.405	64.22
885.781	64.2
886.157	64.19
886.532	64.25
886.908	64.28
887.284	64.28
887.659	64.25
888.035	64.23
888.411	64.19
888.786	64.2
889.161	64.22
889.537	64.23
889.912	64.23
890.287	64.19
890.662	64.16
891.037	64.11
891.412	64.09
891.787	64.08
892.162	64.08
892.536	64.08
892.911	64.06
893.286	64.01
893.66	64.03
894.035	63.99
894.409	64.01
894.784	63.99
895.158	63.98
895.532	63.97
895.906	63.97
896.281	63.93
896.655	63.94
897.029	63.95
897.402	63.94
897.776	63.9
898.15	63.88
898.524	63.88
898.898	63.86
899.271	63.83
899.645	63.82
900.018	63.81
900.392	63.83
900.765	63.83
901.138	63.83
901.511	63.83
901.884	63.86
902.258	63.86
902.631	63.85
903.003	63.88
903.376	63.89
903.749	63.92
904.122	63.93
904.495	63.95
904.867	63.93
905.24	63.94
905.612	63.93
905.985	63.91
906.357	63.87
906.729	63.83
907.102	63.78
907.474	63.79
907.846	63.77
908.218	63.7
908.59	63.62
908.962	63.63
909.334	63.55
909.705	63.51
910.077	63.46
910.449	63.47
910.82	63.46
911.192	63.47
911.563	63.45
911.935	63.4
912.306	63.41
912.677	63.44
913.048	63.4
913.419	63.38
913.79	63.36
914.161	63.37
914.532	63.38
914.903	63.41
915.274	63.36
915.645	63.32
916.015	63.33
916.386	63.33
916.756	63.26
917.127	63.24
917.497	63.25
917.868	63.28
918.238	63.3
918.608	63.31
918.978	63.26
919.348	63.3
919.718	63.32
920.088	63.34
920.458	63.36
920.828	63.42
921.198	63.43
921.567	63.42
921.937	63.38
922.306	63.36
922.676	63.33
923.045	63.32
923.415	63.29
923.784	63.27
924.153	63.2
924.522	63.17
924.891	63.14
925.26	63.14
925.629	63.12
925.998	63.17
926.367	63.12
926.736	63.04
927.104	63.07
927.473	63.08
927.842	63.04
928.21	63.1
928.578	63.03
928.947	63
929.315	62.95
929.683	62.97
930.051	62.9
930.42	62.88
930.788	62.9
931.156	62.84
931.523	62.82
931.891	62.77
932.259	62.66
932.627	62.62
932.994	62.58
933.362	62.49
933.729	62.41
934.097	62.34
934.464	62.29
934.831	62.21
935.199	62.16
935.566	62
935.933	62.07
936.3	61.98
936.667	61.88
937.034	61.74
937.401	61.71
937.767	61.61
938.134	61.51
938.501	61.44
938.867	61.43
939.234	61.42
939.6	61.41
939.967	61.22
940.333	61.21
940.699	61.36
941.065	61.51
941.431	61.57
941.798	61.63
942.163	61.82
942.529	61.86
942.895	61.89
943.261	61.99
943.627	62.14
943.992	62.24
944.358	62.32
944.723	62.24
945.089	62.34
945.454	62.45
945.82	62.47
946.185	62.38
946.55	62.55
946.915	62.58
947.28	62.52
947.645	62.55
948.01	62.55
948.375	62.62
948.74	62.65
949.104	62.58
949.469	62.42
949.834	62.33
950.198	62.27
950.562	62.14
950.927	62.14
951.291	62.06
951.655	61.88
952.02	61.85
952.384	61.85
952.748	61.84
953.112	61.76
953.476	61.83
953.839	61.83
954.203	61.79
954.567	61.77
954.931	61.71
955.294	61.72
955.658	61.77
956.021	61.73
956.385	61.67
956.748	61.68
957.111	61.7
957.474	61.69
957.837	61.68
958.2	61.67
958.563	61.68
958.926	61.66
959.289	61.67
959.652	61.65
960.015	61.58
960.377	61.51
960.74	61.43
961.102	61.3
961.465	61.23
961.827	61.14
962.189	61.13
962.552	60.99
962.914	60.99
963.276	60.96
963.638	60.88
964	60.87
964.362	60.91
964.724	60.9
965.085	60.92
965.447	60.89
965.809	60.88
966.17	60.86
966.532	60.95
966.893	60.91
967.255	60.89
967.616	60.99
967.977	61.02
968.338	61.01
968.699	60.96
969.061	60.94
969.421	60.91
969.782	60.98
970.143	61
970.504	60.96
970.865	60.83
971.225	60.74
971.586	60.62
971.946	60.62
972.307	60.56
972.667	60.61
973.027	60.67
973.388	60.59
973.748	60.57
974.108	60.55
974.468	60.57
974.828	60.7
975.188	60.69
975.548	60.76
975.907	60.67
976.267	60.67
976.627	60.66
976.986	60.63
977.346	60.72
977.705	60.73
978.064	60.8
978.424	60.77
978.783	60.76
979.142	60.82
979.501	60.72
979.86	60.74
980.219	60.73
980.578	60.68
980.937	60.7
981.296	60.71
981.654	60.69
982.013	60.61
982.371	60.48
982.73	60.41
983.088	60.35
983.447	60.34
983.805	60.24
984.163	60.2
984.521	60.12
984.879	60.04
985.237	59.93
985.595	59.94
985.953	59.93
986.311	60.07
986.669	60.11
987.026	60.1
987.384	60.13
987.741	60.2
988.099	60.14
988.456	60.2
988.814	60.23
989.171	60.23
989.528	60.19
989.885	60.23
990.242	60.14
990.599	60.11
990.956	60.12
991.313	60.08
991.67	60.11
992.027	60.09
992.383	60.1
992.74	60.04
993.096	59.98
993.453	60.03
993.809	60.01
994.165	60.01
994.522	59.91
994.878	59.9
995.234	59.86
995.59	59.8
995.946	59.92
996.302	59.74
996.658	59.7
997.013	59.78
997.369	59.63
997.725	59.53
998.08	59.48
998.436	59.62
998.791	59.58
999.147	59.52
999.502	59.57
999.857	59.48
1000.212	59.61
1000.567	59.61
1000.922	59.48
1001.277	59.55
1001.632	59.55
1001.987	59.56
1002.342	59.37
1002.696	59.23
1003.051	59.1
1003.406	58.89
1003.76	58.79
1004.114	58.9
1004.469	58.84
1004.823	58.75
1005.177	58.79
1005.531	58.68
1005.885	58.63
1006.239	58.61
1006.593	58.7
1006.947	58.75
1007.301	58.93
1007.655	58.89
1008.008	58.51
1008.362	58.44
1008.715	58.6
1009.069	58.37
1009.422	58.11
1009.776	58.01
1010.129	57.91
1010.482	58
1010.835	57.94
1011.188	57.72
1011.541	57.44
1011.894	57.42
1012.247	57.24
1012.6	57.1
1012.952	56.99
1013.305	57.16
1013.657	57.01
1014.01	56.95
1014.362	56.81
1014.715	56.65
1015.067	56.74
1015.419	57.14
1015.771	57.19
1016.123	57.46
1016.475	57.36
1016.827	57.44
1017.179	57.37
1017.531	57.48
1017.883	57.61
1018.234	57.27
1018.586	57.27
1018.938	57.01
1019.289	56.57
1019.64	56.67
1019.992	56.67
1020.343	56.59
1020.694	56.37
1021.045	56.36
1021.396	56.25
1021.747	56.02
1022.098	56.02
1022.449	56.1
1022.8	56.22
1023.151	56.26
1023.501	56.11
1023.852	55.73
1024.202	55.69
1024.553	55.86
1024.903	55.64
1025.253	55.54
1025.604	55.7
1025.954	55.75
1026.304	55.96
1026.654	55.99
1027.004	56.21
1027.354	56.05
1027.703	55.8
1028.053	55.34
1028.403	54.76
1028.753	54.83
1029.102	54.58
1029.452	54.2
1029.801	53.97
1030.15	53.6
1030.499	53.13
897.758	-47.67
901.051	-45.74
904.343	-46.41
907.636	-44.73
910.928	-39.79
914.22	-47.13
917.511	-45.98
920.803	-44.74
924.094	-36.32
927.384	-35.36
930.675	-34.07
933.965	-32.3
937.255	-30.91
940.544	-28.65
943.834	-25.03
947.123	-24.82
950.411	-14.45
953.7	-14.44
956.988	-12.59
960.276	-10
963.563	-3.69
966.851	1.49
970.138	1.43
973.424	4.85
976.711	6.98
979.997	9.82
983.283	9.99
986.568	11.01
989.853	13.65
993.138	17.94
996.423	18.44
999.708	17.11
1002.992	17.01
1006.275	20.02
1009.559	21.3
1012.842	21.75
1016.125	22.91
1019.408	24.94
1022.69	26.67
1025.972	27.44
1029.254	27.57
1032.536	28.89
1035.817	29.74
1039.098	32.72
1042.379	35.26
1045.659	34.63
1048.939	35.56
1052.219	36.95
1055.498	37.5
1058.778	37.3
1062.057	37.19
1065.335	38.42
1068.614	38.46
1071.892	40.31
1075.17	37.88
1078.447	37.66
1081.724	39.62
1085.001	39.77
1088.278	39.56
1091.554	38.8
1094.83	39.58
1098.106	40.3
1101.382	40.35
1104.657	41.11
1107.932	40.11
1111.206	42.04
1114.481	42.3
1117.755	41.5
1121.029	41.79
1124.302	42.75
1127.575	43.61
1130.848	43.38
1134.121	43.4
1137.393	43.6
1140.665	42.71
1143.937	42.67
1147.208	42.75
1150.48	42.84
1153.75	42.21
1157.021	43.46
1160.291	43.19
1163.561	43
1166.831	42.79
1170.101	43.32
1173.37	43.93
1176.639	44.03
1179.907	44.11
1183.176	44.56
1186.444	43.82
1189.711	44.11
1192.979	43.41
1196.246	43.36
1199.513	43.42
1202.78	43.45
1206.046	42.98
1209.312	43.11
1212.578	42.86
1215.843	43.25
1219.108	41.46
1222.373	41.61
1225.638	41.72
1228.902	40.79
1232.166	39.59
1235.43	38.96
1238.693	38.32
1241.956	37.47
1245.219	35.86
1248.482	36.72
1251.744	35.79
1255.006	37.68
1258.268	36.77
1261.529	36.8
1264.79	38.36
1268.051	38.63
1271.312	39.31
1274.572	39.75
1277.832	41.42
1281.092	40.68
1284.351	41.38
1287.61	41.78
1290.869	41.43
1294.128	42.68
1297.386	42.48
1300.644	41.18
1303.902	41.27
1307.159	41.41
1310.416	40.83
1313.673	39.97
1316.93	39.72
1320.186	38.82
1323.442	37.41
1326.697	35.65
1329.953	34.93
1333.208	32.85
1336.463	32
1339.717	31.2
1342.972	27.79
1346.226	25.73
1349.479	23.89
1352.733	22.76
1355.986	19.83
1359.238	19.89
1362.491	18.58
1365.743	15.58
1368.995	16.01
1372.247	14.43
1375.498	13.79
1378.749	11.45
1382	9.6
1385.251	7.93
1388.501	7.62
1391.751	5.84
1395	4.34
1398.25	3.41
1401.499	-0.61
1404.748	-3.14
1407.996	-4.72
1411.244	-5.36
1414.492	-5.82
1417.74	-4.62
1420.987	-3.91
1424.234	-5.84
1427.481	-6.22
1430.728	-5.41
1433.974	-5.07
1437.22	-2.74
1440.465	-2.5
1443.711	-1.48
1446.956	-1.54
1450.201	-0.14
1453.445	-0.36
1456.689	1.07
1459.933	2.34
1463.177	4.15
1466.42	3.8
1469.663	4.58
1472.906	5.35
1476.148	6.33
1479.391	7.3
1482.633	8.05
1485.874	8.77
1489.115	10.15
1492.356	10.1
1495.597	10.71
1498.838	11.48
1502.078	12.52
1505.318	12.83
1508.557	13.5
1511.797	14.69
1515.036	16.18
1518.274	16.5
1521.513	17.15
1524.751	17.26
1527.989	18.99
1531.227	19.08
1534.464	20.6
1537.701	21.06
1540.938	21.5
1544.174	22.29
1547.41	22.63
1550.646	22.88
1553.882	23.92
1557.117	24.61
1560.352	25.87
1563.587	25.88
1566.821	26.4
1570.055	26.7
1573.289	27.74
1576.523	28.06
1579.756	28.42
1582.989	29.06
1586.222	29.15
1589.454	29.72
1592.686	30.48
1595.918	30.37
1599.15	30.84
1602.381	30.62
1605.612	31.28
1608.843	31.33
1612.073	31.32
1615.303	31.76
1618.533	31.81
1621.762	32.14
1624.992	32.18
1628.221	32.09
1631.449	32.49
1634.678	32.47
1637.906	33.11
1641.134	32.81
1644.361	32.56
1647.588	33.44
1650.815	33.32
1654.042	33.63
1657.269	33.53
1660.495	33.57
1663.72	33.98
1666.946	33.71
1670.171	33.95
1673.396	34.09
1676.621	34.48
1679.845	34.69
1683.069	33.99
1686.293	33.76
1689.517	33.75
1692.74	33.68
1695.963	33.36
1699.185	32.77
1702.408	32.94
1705.63	32.54
1708.852	32.43
1712.073	31.44
1715.294	31
1718.515	31.61
1721.736	31.51
1724.956	30.94
1728.176	30.95
1731.396	30.26
1734.616	30.61
1737.835	30.08
1741.054	29.96
1744.272	29.42
1747.491	29.34
1750.709	29.33
1753.927	28.37
1757.144	28.37
1760.361	28.11
1763.578	26.86
1766.795	27.46
1770.011	27.17
1773.227	26.23
1776.443	25.9
1779.658	25.43
1782.874	25.52
1786.089	24.14
1789.303	24.23
1792.518	23.47
1795.732	23.59
1798.945	24.63
1802.159	23.82
1805.372	22.9
1808.585	23.82
1811.797	23.72
1815.01	23.59
1818.222	23.26
1821.434	23.45
1824.645	22.39
1827.856	21.83
1831.067	21.23
1834.278	21.06
1837.488	20.57
1840.698	19.48
1843.908	18.63
1847.117	18.13
1850.326	16.97
1853.535	16.44
1856.744	14.71
1859.952	13.94
1863.16	12.4
1866.368	11.28
1869.575	8.9
1872.782	6.64
1875.989	4.83
1879.196	3.92
1882.402	0.62
1885.608	0.27
1888.814	-2.81
1892.019	-5.49
1895.224	-7.13
1898.429	-8.05
1901.634	-10
1904.838	-12.14
1908.042	-12.28
1911.246	-12.42
1914.449	-13.65
1917.652	-14.1
1920.855	-15.08
1924.058	-14.68
1927.26	-15.06
1930.462	-15.33
1933.664	-14.1
1936.865	-13.89
1940.066	-13.65
1943.267	-14.52
1946.467	-15.79
1949.668	-15.04
1952.868	-13.67
1956.067	-14.14
1959.267	-14.12
1962.466	-13.61
1965.665	-12.65
1968.863	-13.63
1972.061	-13.06
1975.259	-13.57
1978.457	-13.16
1981.654	-11.24
1984.852	-12.46
1988.048	-13.31
1991.245	-12.21
1994.441	-12.77
1997.637	-12.3
2000.833	-11.82
2004.028	-12.49
2007.223	-14.78
2010.418	-13.11
2013.613	-12.78
2016.807	-13.95
2020.001	-14.46
2023.194	-12.51
2026.388	-14.05
2029.581	-14.36
2032.774	-15.62
2035.966	-17.16
2039.158	-15.46
2042.35	-15.94
2045.542	-16.4
2048.733	-17.85
2051.924	-20.15
2055.115	-20.55
2058.306	-23.23
2061.496	-25.75
2064.686	-24.05
2067.875	-22.44
2071.065	-23.13
2074.254	-23.6
2077.442	-23.62
2080.631	-25.73
2083.819	-26.02
2087.007	-24.33
2090.195	-23.14
2093.382	-24.09
2096.569	-22.42
2099.756	-21.51
2102.942	-23.26
2106.128	-23.87
2109.314	-23.8
2112.5	-22.16
2115.685	-23.03
2118.87	-21.9
2122.055	-22.56
2125.239	-25.14
2128.424	-23.52
2131.608	-25.1
2134.791	-27.74
2137.974	-28.49
2141.157	-25.98
2144.34	-27.23
2147.523	-28.05
2150.705	-27.2
2153.887	-27.78
2157.068	-26.85
2160.25	-26.15
2163.431	-24.6
2166.611	-24.85
2169.792	-24.83
2172.972	-21.91
2176.152	-23.68
2179.331	-25.84
2182.511	-25.73
2185.69	-25.95
2188.868	-29.93
2192.047	-32.51
2195.225	-33.22
2198.403	-39.71
2201.58	-36.57
2204.758	-38.63
2207.935	-44.27
2211.111	-49.13
2214.288	-47.92
2217.464	-48.67
2220.64	-49.96
2223.815	-49.68
2226.991	-46.37
2230.166	-45.98
2233.34	-46.21
2236.515	-51.65
2239.689	-49.74
2242.863	-48.86
2246.036	-44.72
2249.209	-49.15
2252.382	-49.44
2255.555	-51.14
2258.727	-50.2
2261.9	-54.51
2265.071	-55.1
2268.243	-53.33
2271.414	-56.49
2274.585	-62.76
2277.756	-60.67
2280.926	-65.39
2284.096	-62.34
2287.266	-62.15
2290.436	-57.98
2293.605	-60.32
2296.774	-65.01
2299.942	-70.09
2303.111	-70.57
2306.279	-67.83
2309.447	-64.98
2312.614	-68.32
2315.781	-73.53
2318.948	-76.21
2322.115	-79.54
2325.281	-94.05
2328.447	-93.74
2331.613	-91.35
2334.779	-89.57
2337.944	-95.4
2341.109	-102.11
2344.274	-103.61
2347.438	-104.44
2350.602	-105.8
2353.766	-115.82
2356.929	-113.13
2360.092	-111.13
2363.255	-110.54
2366.418	-113.42
2369.58	-114.8
2372.742	-113.4
2375.904	-108.65
2379.066	-112.74
2382.227	-128.06
2385.388	-128.95
2388.548	-113.73
2391.709	-113.75
2394.869	-116.54
2398.029	-107.36
2401.188	-111
2404.347	-121.46
2407.506	-125.34
2410.665	-116.64
2413.823	-117.41
2416.981	-111.45
2420.139	-102.79
2423.296	-117.21
2426.453	-129.55
2429.61	-121.66
2432.767	-141.95
2435.923	-140.1
2439.079	-131.1
2442.235	-141.34
2445.391	-146.43
2448.546	-143.17
2451.701	-160.16
2454.855	-173.39
2458.009	-132.92
2461.163	-140.67
2464.317	-140.54
2467.471	-138.89
2470.624	-145.38
2473.777	-143.9
2476.929	-124.63
2480.082	-142.21
2483.234	-154.33
2486.385	-145.9
2489.537	-149.9
2492.688	-186.09
2495.839	-177.59
2498.989	-182.74
2502.14	-181.4
2505.29	-168.18
2508.439	-192.15
2511.589	-211.31
2514.738	-203.5
2517.887	-202.55
2521.035	-196.83
2524.183	-191.72
2527.331	-185.99
2530.479	-178.91
2533.627	-188.15
