Data from c_1_dec_on_6n_019_Splice17_07.txt Node
Date: Sat Feb 29 13:17:10 EST 2020
User: sa697716
Spectrometer: FLMS03696
Trigger mode: 0
Integration Time (sec): 3.180400E-1
Scans to average: 20
Electric dark correction enabled: true
Nonlinearity correction enabled: true
Boxcar width: 5
XAxis mode: Wavelengths
Number of Pixels in Spectrum: 2048
>>>>>Begin Spectral Data<<<<<
187.83	82.72
188.298	81.35
188.766	81.23
189.233	82.53
189.701	83.52
190.169	89.97
190.636	94.83
191.104	108.63
191.571	372.04
192.039	263.64
192.506	-16.53
192.974	1291.24
193.441	36.45
193.908	53.73
194.375	71.05
194.842	144.15
195.31	98.69
195.777	118.5
196.244	65.8
196.711	43.25
197.177	37.67
197.644	36.79
198.111	36.92
198.578	36.95
199.045	37.4
199.511	37.85
199.978	37.86
200.445	37.69
200.911	37.62
201.378	37.23
201.844	37.92
202.31	38.38
202.777	38.52
203.243	39.05
203.709	39.19
204.176	38.62
204.642	38.04
205.108	37.48
205.574	38.15
206.04	38.06
206.506	38.05
206.972	37.47
207.438	37.14
207.903	36.99
208.369	36.44
208.835	36.24
209.301	36.17
209.766	36.06
210.232	36.19
210.697	35.7
211.163	35.35
211.628	34.8
212.094	34.36
212.559	33.76
213.024	33.15
213.49	32.51
213.955	31.96
214.42	31.61
214.885	30.93
215.35	30.43
215.815	29.2
216.28	28.33
216.745	27.4
217.21	26.43
217.675	25.45
218.14	24.42
218.604	23.52
219.069	22.72
219.534	21.88
219.998	21.19
220.463	20.62
220.927	20.19
221.392	19.77
221.856	19.38
222.32	18.99
222.785	18.68
223.249	18.38
223.713	18.11
224.177	17.82
224.642	17.64
225.106	17.44
225.57	17.19
226.034	16.99
226.497	16.73
226.961	16.51
227.425	16.29
227.889	16.05
228.353	15.83
228.816	15.65
229.28	15.42
229.744	15.22
230.207	15.02
230.671	14.82
231.134	14.6
231.597	14.41
232.061	14.22
232.524	14.06
232.987	13.89
233.45	13.72
233.914	13.55
234.377	13.43
234.84	13.27
235.303	13.15
235.766	13.01
236.229	12.88
236.691	12.77
237.154	12.66
237.617	12.54
238.08	12.42
238.542	12.32
239.005	12.21
239.468	12.07
239.93	11.97
240.393	11.85
240.855	11.75
241.317	11.65
241.78	11.55
242.242	11.45
242.704	11.34
243.166	11.25
243.629	11.14
244.091	11.06
244.553	10.98
245.015	10.9
245.477	10.81
245.939	10.73
246.4	10.64
246.862	10.55
247.324	10.48
247.786	10.41
248.247	10.33
248.709	10.29
249.17	10.2
249.632	10.11
250.093	10.01
250.555	9.95
251.016	9.9
251.477	9.83
251.939	9.77
252.4	9.71
252.861	9.63
253.322	9.57
253.783	9.52
254.244	9.47
254.705	9.43
255.166	9.4
255.627	9.36
256.088	9.29
256.549	9.24
257.009	9.2
257.47	9.15
257.931	9.11
258.391	9.05
258.852	8.99
259.312	8.95
259.773	8.88
260.233	8.82
260.694	8.76
261.154	8.72
261.614	8.67
262.074	8.61
262.534	8.55
262.994	8.52
263.455	8.48
263.915	8.44
264.374	8.39
264.834	8.36
265.294	8.32
265.754	8.28
266.214	8.23
266.673	8.21
267.133	8.18
267.593	8.15
268.052	8.11
268.512	8.08
268.971	8.05
269.431	8.03
269.89	8
270.349	7.97
270.809	7.95
271.268	7.93
271.727	7.9
272.186	7.88
272.645	7.85
273.104	7.83
273.563	7.81
274.022	7.78
274.481	7.75
274.94	7.72
275.399	7.7
275.857	7.67
276.316	7.64
276.775	7.59
277.233	7.57
277.692	7.53
278.15	7.49
278.609	7.46
279.067	7.43
279.525	7.4
279.984	7.37
280.442	7.35
280.9	7.33
281.358	7.3
281.816	7.28
282.274	7.24
282.732	7.22
283.19	7.21
283.648	7.19
284.106	7.16
284.564	7.15
285.021	7.13
285.479	7.11
285.937	7.08
286.394	7.06
286.852	7.05
287.309	7.04
287.767	7.01
288.224	6.99
288.682	6.98
289.139	6.96
289.596	6.93
290.053	6.9
290.511	6.86
290.968	6.83
291.425	6.81
291.882	6.78
292.339	6.74
292.796	6.71
293.252	6.69
293.709	6.66
294.166	6.64
294.623	6.62
295.079	6.61
295.536	6.58
295.992	6.56
296.449	6.55
296.905	6.52
297.362	6.51
297.818	6.5
298.274	6.48
298.731	6.45
299.187	6.43
299.643	6.4
300.099	6.38
300.555	6.35
301.011	6.34
301.467	6.32
301.923	6.3
302.379	6.29
302.835	6.27
303.291	6.25
303.746	6.24
304.202	6.23
304.658	6.22
305.113	6.21
305.569	6.2
306.024	6.19
306.479	6.18
306.935	6.17
307.39	6.15
307.845	6.15
308.301	6.14
308.756	6.14
309.211	6.14
309.666	6.13
310.121	6.13
310.576	6.13
311.031	6.12
311.486	6.11
311.94	6.11
312.395	6.11
312.85	6.1
313.305	6.1
313.759	6.09
314.214	6.08
314.668	6.08
315.123	6.08
315.577	6.06
316.032	6.06
316.486	6.04
316.94	6.03
317.394	6.01
317.849	6
318.303	5.98
318.757	5.96
319.211	5.95
319.665	5.93
320.119	5.91
320.572	5.91
321.026	5.9
321.48	5.89
321.934	5.88
322.387	5.87
322.841	5.85
323.295	5.83
323.748	5.83
324.202	5.82
324.655	5.81
325.108	5.8
325.562	5.77
326.015	5.75
326.468	5.74
326.921	5.72
327.374	5.72
327.827	5.71
328.28	5.7
328.733	5.68
329.186	5.67
329.639	5.66
330.092	5.66
330.545	5.66
330.997	5.65
331.45	5.64
331.903	5.64
332.355	5.64
332.808	5.65
333.26	5.64
333.713	5.64
334.165	5.63
334.617	5.62
335.069	5.62
335.522	5.63
335.974	5.64
336.426	5.64
336.878	5.64
337.33	5.63
337.782	5.62
338.234	5.61
338.686	5.61
339.137	5.61
339.589	5.61
340.041	5.6
340.493	5.57
340.944	5.56
341.396	5.55
341.847	5.53
342.299	5.51
342.75	5.49
343.201	5.47
343.653	5.46
344.104	5.44
344.555	5.42
345.006	5.4
345.457	5.39
345.908	5.38
346.359	5.36
346.81	5.36
347.261	5.35
347.712	5.35
348.163	5.35
348.613	5.34
349.064	5.32
349.515	5.3
349.965	5.29
350.416	5.28
350.866	5.28
351.317	5.28
351.767	5.27
352.217	5.27
352.668	5.26
353.118	5.26
353.568	5.26
354.018	5.28
354.468	5.28
354.918	5.31
355.368	5.31
355.818	5.3
356.268	5.29
356.718	5.29
357.168	5.28
357.617	5.27
358.067	5.27
358.517	5.26
358.966	5.25
359.416	5.25
359.865	5.24
360.315	5.23
360.764	5.23
361.213	5.22
361.663	5.22
362.112	5.25
362.561	5.24
363.01	5.25
363.459	5.25
363.908	5.25
364.357	5.24
364.806	5.23
365.255	5.24
365.703	5.23
366.152	5.23
366.601	5.22
367.05	5.21
367.498	5.21
367.947	5.2
368.395	5.2
368.844	5.21
369.292	5.2
369.74	5.21
370.189	5.2
370.637	5.21
371.085	5.22
371.533	5.22
371.981	5.23
372.429	5.23
372.877	5.23
373.325	5.23
373.773	5.23
374.221	5.23
374.669	5.23
375.116	5.22
375.564	5.22
376.012	5.21
376.459	5.21
376.907	5.21
377.354	5.2
377.801	5.2
378.249	5.21
378.696	5.22
379.143	5.23
379.591	5.24
380.038	5.26
380.485	5.28
380.932	5.3
381.379	5.3
381.826	5.32
382.273	5.35
382.72	5.37
383.166	5.38
383.613	5.4
384.06	5.39
384.506	5.4
384.953	5.4
385.4	5.39
385.846	5.38
386.292	5.4
386.739	5.4
387.185	5.41
387.631	5.42
388.078	5.42
388.524	5.41
388.97	5.43
389.416	5.44
389.862	5.45
390.308	5.47
390.754	5.48
391.2	5.49
391.645	5.51
392.091	5.5
392.537	5.52
392.983	5.53
393.428	5.54
393.874	5.55
394.319	5.57
394.765	5.58
395.21	5.59
395.655	5.6
396.101	5.61
396.546	5.63
396.991	5.65
397.436	5.65
397.881	5.66
398.326	5.69
398.771	5.72
399.216	5.73
399.661	5.76
400.106	5.78
400.551	5.79
400.995	5.8
401.44	5.8
401.885	5.81
402.329	5.82
402.774	5.82
403.218	5.81
403.663	5.81
404.107	5.81
404.551	5.81
404.995	5.82
405.44	5.83
405.884	5.84
406.328	5.84
406.772	5.85
407.216	5.86
407.66	5.88
408.104	5.9
408.547	5.92
408.991	5.91
409.435	5.91
409.879	5.92
410.322	5.94
410.766	5.94
411.209	5.95
411.653	5.95
412.096	5.95
412.54	5.94
412.983	5.94
413.426	5.95
413.869	5.97
414.312	6
414.756	6.02
415.199	6.02
415.642	6.05
416.085	6.05
416.527	6.07
416.97	6.08
417.413	6.1
417.856	6.1
418.298	6.09
418.741	6.09
419.184	6.08
419.626	6.07
420.069	6.07
420.511	6.06
420.953	6.07
421.396	6.07
421.838	6.09
422.28	6.1
422.722	6.11
423.164	6.11
423.606	6.14
424.048	6.13
424.49	6.14
424.932	6.14
425.374	6.14
425.816	6.14
426.258	6.13
426.699	6.1
427.141	6.07
427.582	6.06
428.024	6.07
428.465	6.07
428.907	6.09
429.348	6.09
429.789	6.1
430.231	6.1
430.672	6.11
431.113	6.13
431.554	6.16
431.995	6.19
432.436	6.19
432.877	6.18
433.318	6.16
433.759	6.17
434.2	6.18
434.64	6.18
435.081	6.18
435.522	6.18
435.962	6.2
436.403	6.2
436.843	6.2
437.284	6.24
437.724	6.26
438.164	6.28
438.604	6.3
439.045	6.31
439.485	6.32
439.925	6.33
440.365	6.33
440.805	6.32
441.245	6.32
441.685	6.34
442.125	6.34
442.564	6.35
443.004	6.36
443.444	6.36
443.883	6.36
444.323	6.36
444.762	6.39
445.202	6.45
445.641	6.47
446.081	6.49
446.52	6.5
446.959	6.51
447.398	6.54
447.837	6.55
448.276	6.56
448.716	6.56
449.154	6.6
449.593	6.62
450.032	6.6
450.471	6.61
450.91	6.6
451.349	6.6
451.787	6.61
452.226	6.59
452.664	6.6
453.103	6.59
453.541	6.6
453.98	6.59
454.418	6.55
454.856	6.54
455.295	6.52
455.733	6.53
456.171	6.53
456.609	6.51
457.047	6.51
457.485	6.51
457.923	6.5
458.361	6.49
458.798	6.49
459.236	6.51
459.674	6.51
460.111	6.53
460.549	6.51
460.987	6.51
461.424	6.51
461.862	6.52
462.299	6.51
462.736	6.52
463.173	6.53
463.611	6.52
464.048	6.51
464.485	6.52
464.922	6.49
465.359	6.51
465.796	6.48
466.233	6.48
466.67	6.49
467.106	6.49
467.543	6.5
467.98	6.5
468.416	6.51
468.853	6.52
469.29	6.53
469.726	6.54
470.162	6.52
470.599	6.55
471.035	6.57
471.471	6.56
471.907	6.57
472.344	6.55
472.78	6.55
473.216	6.55
473.652	6.55
474.088	6.53
474.523	6.52
474.959	6.52
475.395	6.52
475.831	6.5
476.266	6.5
476.702	6.5
477.138	6.48
477.573	6.46
478.008	6.44
478.444	6.44
478.879	6.44
479.314	6.44
479.75	6.44
480.185	6.43
480.62	6.41
481.055	6.39
481.49	6.38
481.925	6.37
482.36	6.36
482.795	6.36
483.229	6.36
483.664	6.34
484.099	6.34
484.534	6.32
484.968	6.33
485.403	6.33
485.837	6.34
486.271	6.34
486.706	6.33
487.14	6.34
487.574	6.34
488.009	6.35
488.443	6.36
488.877	6.37
489.311	6.38
489.745	6.4
490.179	6.42
490.613	6.43
491.046	6.45
491.48	6.48
491.914	6.5
492.348	6.52
492.781	6.54
493.215	6.56
493.648	6.59
494.082	6.62
494.515	6.64
494.948	6.67
495.382	6.7
495.815	6.74
496.248	6.78
496.681	6.81
497.114	6.85
497.547	6.88
497.98	6.93
498.413	6.97
498.846	7.02
499.279	7.09
499.711	7.15
500.144	7.22
500.577	7.27
501.009	7.34
501.442	7.42
501.874	7.5
502.306	7.6
502.739	7.68
503.171	7.78
503.603	7.88
504.036	7.99
504.468	8.11
504.9	8.23
505.332	8.35
505.764	8.49
506.196	8.61
506.627	8.75
507.059	8.89
507.491	9.07
507.923	9.23
508.354	9.39
508.786	9.57
509.217	9.73
509.649	9.91
510.08	10.11
510.512	10.3
510.943	10.52
511.374	10.74
511.805	10.95
512.237	11.17
512.668	11.39
513.099	11.63
513.53	11.87
513.961	12.13
514.391	12.38
514.822	12.64
515.253	12.91
515.684	13.16
516.114	13.45
516.545	13.72
516.975	14.02
517.406	14.3
517.836	14.57
518.267	14.86
518.697	15.15
519.127	15.46
519.558	15.76
519.988	16.03
520.418	16.32
520.848	16.62
521.278	16.92
521.708	17.14
522.138	17.42
522.567	17.7
522.997	17.97
523.427	18.24
523.857	18.49
524.286	18.73
524.716	19
525.145	19.26
525.575	19.49
526.004	19.73
526.433	20.01
526.863	20.22
527.292	20.44
527.721	20.64
528.15	20.82
528.579	21.01
529.008	21.18
529.437	21.34
529.866	21.49
530.295	21.65
530.724	21.8
531.152	21.94
531.581	22.08
532.01	22.2
532.438	22.31
532.867	22.43
533.295	22.52
533.723	22.65
534.152	22.76
534.58	22.83
535.008	22.91
535.436	22.97
535.865	23.03
536.293	23.1
536.721	23.15
537.149	23.23
537.576	23.3
538.004	23.37
538.432	23.41
538.86	23.46
539.287	23.51
539.715	23.57
540.143	23.61
540.57	23.68
540.998	23.72
541.425	23.78
541.852	23.83
542.28	23.88
542.707	23.93
543.134	23.96
543.561	23.97
543.988	24.02
544.415	24.05
544.842	24.09
545.269	24.11
545.696	24.13
546.123	24.15
546.549	24.17
546.976	24.18
547.403	24.18
547.829	24.21
548.256	24.24
548.682	24.26
549.108	24.27
549.535	24.27
549.961	24.27
550.387	24.26
550.813	24.24
551.24	24.21
551.666	24.22
552.092	24.21
552.518	24.18
552.943	24.16
553.369	24.12
553.795	24.09
554.221	24.05
554.646	24.03
555.072	24
555.498	23.97
555.923	23.95
556.349	23.86
556.774	23.8
557.199	23.74
557.625	23.67
558.05	23.59
558.475	23.48
558.9	23.4
559.325	23.29
559.75	23.18
560.175	23.08
560.6	22.96
561.025	22.84
561.449	22.7
561.874	22.57
562.299	22.44
562.723	22.3
563.148	22.17
563.572	22.03
563.997	21.88
564.421	21.74
564.846	21.58
565.27	21.42
565.694	21.27
566.118	21.12
566.542	20.96
566.966	20.78
567.39	20.6
567.814	20.43
568.238	20.24
568.662	20.07
569.086	19.87
569.509	19.7
569.933	19.51
570.357	19.34
570.78	19.17
571.204	18.99
571.627	18.83
572.05	18.68
572.474	18.51
572.897	18.37
573.32	18.21
573.743	18.07
574.166	17.92
574.589	17.8
575.012	17.69
575.435	17.54
575.858	17.42
576.281	17.31
576.704	17.21
577.126	17.08
577.549	16.99
577.972	16.88
578.394	16.77
578.817	16.66
579.239	16.55
579.661	16.43
580.084	16.34
580.506	16.25
580.928	16.16
581.35	16.06
581.772	16
582.194	15.91
582.616	15.83
583.038	15.75
583.46	15.69
583.882	15.62
584.303	15.56
584.725	15.5
585.147	15.4
585.568	15.32
585.99	15.25
586.411	15.19
586.833	15.13
587.254	15.06
587.675	15.02
588.096	14.97
588.518	14.9
588.939	14.85
589.36	14.78
589.781	14.74
590.202	14.7
590.623	14.65
591.043	14.61
591.464	14.56
591.885	14.5
592.305	14.46
592.726	14.41
593.147	14.38
593.567	14.35
593.987	14.33
594.408	14.3
594.828	14.28
595.248	14.25
595.669	14.21
596.089	14.18
596.509	14.15
596.929	14.09
597.349	14.07
597.769	14.02
598.189	13.99
598.608	13.95
599.028	13.9
599.448	13.87
599.867	13.84
600.287	13.79
600.706	13.75
601.126	13.71
601.545	13.68
601.965	13.62
602.384	13.58
602.803	13.53
603.222	13.47
603.641	13.42
604.061	13.33
604.48	13.28
604.898	13.23
605.317	13.16
605.736	13.1
606.155	13.02
606.574	12.95
606.992	12.88
607.411	12.81
607.829	12.7
608.248	12.62
608.666	12.57
609.085	12.49
609.503	12.4
609.921	12.34
610.339	12.27
610.758	12.21
611.176	12.14
611.594	12.07
612.012	11.99
612.43	11.97
612.847	11.91
613.265	11.85
613.683	11.78
614.101	11.71
614.518	11.64
614.936	11.57
615.353	11.5
615.771	11.44
616.188	11.39
616.606	11.33
617.023	11.27
617.44	11.21
617.857	11.15
618.274	11.11
618.691	11.08
619.108	11.04
619.525	11.01
619.942	10.98
620.359	10.95
620.776	10.91
621.192	10.88
621.609	10.85
622.026	10.82
622.442	10.8
622.859	10.78
623.275	10.76
623.691	10.73
624.108	10.71
624.524	10.7
624.94	10.68
625.356	10.67
625.772	10.68
626.188	10.69
626.604	10.68
627.02	10.66
627.436	10.66
627.852	10.65
628.268	10.65
628.683	10.63
629.099	10.62
629.514	10.61
629.93	10.58
630.345	10.55
630.761	10.5
631.176	10.48
631.591	10.45
632.007	10.41
632.422	10.36
632.837	10.32
633.252	10.28
633.667	10.21
634.082	10.15
634.497	10.09
634.911	10.03
635.326	9.95
635.741	9.88
636.155	9.81
636.57	9.72
636.984	9.63
637.399	9.52
637.813	9.41
638.228	9.33
638.642	9.23
639.056	9.13
639.47	9.02
639.884	8.92
640.298	8.82
640.712	8.73
641.126	8.63
641.54	8.54
641.954	8.47
642.368	8.39
642.781	8.31
643.195	8.23
643.609	8.15
644.022	8.07
644.436	8
644.849	7.94
645.262	7.87
645.676	7.82
646.089	7.74
646.502	7.67
646.915	7.61
647.328	7.57
647.741	7.52
648.154	7.49
648.567	7.46
648.98	7.43
649.393	7.39
649.805	7.36
650.218	7.32
650.631	7.31
651.043	7.3
651.456	7.28
651.868	7.26
652.28	7.24
652.693	7.2
653.105	7.16
653.517	7.14
653.929	7.1
654.341	7.07
654.753	7.02
655.165	6.99
655.577	6.96
655.989	6.91
656.401	6.86
656.813	6.8
657.224	6.78
657.636	6.74
658.047	6.69
658.459	6.64
658.87	6.59
659.282	6.57
659.693	6.5
660.104	6.46
660.515	6.42
660.926	6.39
661.338	6.36
661.749	6.3
662.159	6.26
662.57	6.23
662.981	6.2
663.392	6.16
663.803	6.14
664.213	6.12
664.624	6.11
665.035	6.08
665.445	6.05
665.855	6.04
666.266	6.03
666.676	6.02
667.086	6.02
667.497	6.01
667.907	6.01
668.317	6
668.727	5.99
669.137	5.99
669.547	6
669.956	6.02
670.366	6.04
670.776	6.05
671.186	6.06
671.595	6.07
672.005	6.1
672.414	6.12
672.824	6.14
673.233	6.17
673.642	6.18
674.052	6.2
674.461	6.22
674.87	6.23
675.279	6.26
675.688	6.29
676.097	6.31
676.506	6.34
676.915	6.36
677.323	6.4
677.732	6.45
678.141	6.49
678.549	6.53
678.958	6.58
679.366	6.62
679.775	6.67
680.183	6.71
680.592	6.76
681	6.81
681.408	6.87
681.816	6.93
682.224	6.98
682.632	7.07
683.04	7.13
683.448	7.21
683.856	7.31
684.264	7.41
684.671	7.54
685.079	7.66
685.487	7.8
685.894	7.97
686.302	8.16
686.709	8.34
687.116	8.54
687.524	8.78
687.931	9.04
688.338	9.33
688.745	9.63
689.152	9.98
689.559	10.35
689.966	10.74
690.373	11.14
690.78	11.57
691.187	12.03
691.593	12.5
692	13.01
692.407	13.53
692.813	14.07
693.22	14.63
693.626	15.2
694.032	15.8
694.439	16.42
694.845	17.04
695.251	17.69
695.657	18.34
696.063	18.99
696.469	19.65
696.875	20.29
697.281	20.94
697.687	21.62
698.093	22.27
698.498	22.92
698.904	23.56
699.31	24.21
699.715	24.84
700.12	25.47
700.526	26.11
700.931	26.74
701.337	27.39
701.742	28
702.147	28.63
702.552	29.23
702.957	29.84
703.362	30.44
703.767	31.03
704.172	31.64
704.577	32.22
704.981	32.8
705.386	33.35
705.791	33.9
706.195	34.46
706.6	34.99
707.004	35.53
707.408	36.06
707.813	36.57
708.217	37.09
708.621	37.58
709.025	38.08
709.43	38.56
709.834	39.05
710.237	39.51
710.641	40.02
711.045	40.48
711.449	40.93
711.853	41.39
712.256	41.86
712.66	42.28
713.064	42.72
713.467	43.13
713.87	43.55
714.274	43.98
714.677	44.41
715.08	44.79
715.484	45.19
715.887	45.6
716.29	45.99
716.693	46.37
717.096	46.77
717.499	47.17
717.901	47.55
718.304	47.93
718.707	48.28
719.109	48.65
719.512	49.02
719.915	49.4
720.317	49.73
720.719	50.04
721.122	50.35
721.524	50.68
721.926	51
722.328	51.31
722.731	51.6
723.133	51.91
723.535	52.2
723.937	52.45
724.338	52.67
724.74	52.93
725.142	53.07
725.544	53.31
725.945	53.51
726.347	53.73
726.748	53.94
727.15	54.14
727.551	54.32
727.952	54.48
728.354	54.7
728.755	54.91
729.156	55.11
729.557	55.41
729.958	55.61
730.359	55.76
730.76	55.89
731.161	56.04
731.562	56.18
731.962	56.32
732.363	56.46
732.763	56.6
733.164	56.71
733.564	56.8
733.965	56.91
734.365	56.98
734.766	57.11
735.166	57.21
735.566	57.29
735.966	57.4
736.366	57.47
736.766	57.57
737.166	57.64
737.566	57.72
737.966	57.82
738.365	57.89
738.765	58
739.165	58.04
739.564	58.14
739.964	58.19
740.363	58.28
740.763	58.33
741.162	58.36
741.561	58.42
741.96	58.48
742.36	58.55
742.759	58.59
743.158	58.58
743.557	58.64
743.955	58.7
744.354	58.77
744.753	58.81
745.152	58.85
745.55	58.92
745.949	58.94
746.348	58.97
746.746	59.02
747.144	59.06
747.543	59.12
747.941	59.18
748.339	59.23
748.737	59.31
749.136	59.34
749.534	59.4
749.932	59.44
750.33	59.45
750.727	59.51
751.125	59.53
751.523	59.55
751.921	59.57
752.318	59.59
752.716	59.56
753.113	59.5
753.511	59.47
753.908	59.44
754.305	59.42
754.703	59.42
755.1	59.38
755.497	59.39
755.894	59.4
756.291	59.4
756.688	59.38
757.085	59.38
757.482	59.4
757.878	59.45
758.275	59.46
758.672	59.47
759.068	59.52
759.465	59.51
759.861	59.47
760.258	59.46
760.654	59.47
761.05	59.49
761.447	59.47
761.843	59.45
762.239	59.4
762.635	59.42
763.031	59.44
763.427	59.39
763.822	59.38
764.218	59.4
764.614	59.4
765.01	59.38
765.405	59.38
765.801	59.39
766.196	59.38
766.592	59.42
766.987	59.41
767.382	59.41
767.778	59.43
768.173	59.46
768.568	59.43
768.963	59.42
769.358	59.41
769.753	59.41
770.148	59.39
770.542	59.38
770.937	59.35
771.332	59.36
771.726	59.31
772.121	59.25
772.515	59.22
772.91	59.25
773.304	59.23
773.699	59.24
774.093	59.19
774.487	59.23
774.881	59.27
775.275	59.29
775.669	59.29
776.063	59.3
776.457	59.33
776.851	59.31
777.245	59.32
777.638	59.31
778.032	59.29
778.425	59.32
778.819	59.32
779.212	59.28
779.606	59.25
779.999	59.22
780.392	59.21
780.786	59.23
781.179	59.26
781.572	59.22
781.965	59.26
782.358	59.26
782.751	59.25
783.143	59.25
783.536	59.26
783.929	59.31
784.322	59.37
784.714	59.43
785.107	59.44
785.499	59.45
785.891	59.49
786.284	59.48
786.676	59.52
787.068	59.5
787.46	59.51
787.852	59.51
788.245	59.5
788.636	59.45
789.028	59.43
789.42	59.42
789.812	59.42
790.204	59.38
790.595	59.38
790.987	59.38
791.378	59.42
791.77	59.44
792.161	59.48
792.553	59.47
792.944	59.51
793.335	59.51
793.726	59.49
794.117	59.46
794.508	59.52
794.899	59.53
795.29	59.56
795.681	59.52
796.072	59.48
796.463	59.42
796.853	59.4
797.244	59.39
797.634	59.36
798.025	59.42
798.415	59.43
798.806	59.42
799.196	59.45
799.586	59.42
799.976	59.43
800.366	59.48
800.756	59.51
801.146	59.55
801.536	59.54
801.926	59.54
802.316	59.52
802.706	59.54
803.095	59.53
803.485	59.5
803.874	59.5
804.264	59.56
804.653	59.52
805.043	59.52
805.432	59.49
805.821	59.47
806.21	59.51
806.599	59.56
806.988	59.53
807.377	59.57
807.766	59.55
808.155	59.57
808.544	59.51
808.933	59.5
809.321	59.55
809.71	59.58
810.098	59.61
810.487	59.62
810.875	59.58
811.264	59.62
811.652	59.61
812.04	59.64
812.428	59.64
812.816	59.69
813.204	59.69
813.592	59.64
813.98	59.62
814.368	59.61
814.756	59.6
815.144	59.64
815.531	59.63
815.919	59.63
816.306	59.63
816.694	59.65
817.081	59.63
817.469	59.66
817.856	59.75
818.243	59.76
818.63	59.81
819.017	59.81
819.404	59.78
819.791	59.81
820.178	59.84
820.565	59.85
820.952	59.83
821.339	59.87
821.725	59.91
822.112	59.93
822.498	59.96
822.885	59.96
823.271	60
823.657	60
824.044	59.98
824.43	60
824.816	60.01
825.202	60.04
825.588	60.07
825.974	60.04
826.36	60.01
826.746	60.04
827.132	60.01
827.517	60
827.903	60.03
828.289	60.04
828.674	60.02
829.06	60.02
829.445	60.02
829.83	59.98
830.216	60.01
830.601	60.03
830.986	60
831.371	60.05
831.756	60.01
832.141	60.03
832.526	60.02
832.911	60.04
833.295	60.07
833.68	60.1
834.065	60.12
834.449	60.06
834.834	60.02
835.218	60
835.603	60
835.987	60.04
836.371	60.04
836.755	60.06
837.139	60.06
837.524	60.03
837.908	60
838.291	59.98
838.675	60.02
839.059	60.03
839.443	60.05
839.827	60.05
840.21	60.05
840.594	60.05
840.977	60.02
841.361	60.02
841.744	60.03
842.127	60.02
842.511	60.01
842.894	60.01
843.277	60.03
843.66	60
844.043	60
844.426	60
844.809	59.97
845.191	59.97
845.574	59.96
845.957	59.94
846.339	59.93
846.722	59.96
847.104	59.98
847.487	59.99
847.869	60.01
848.252	59.98
848.634	59.99
849.016	60.03
849.398	60.03
849.78	60.02
850.162	60.02
850.544	60.05
850.926	60.04
851.307	60.03
851.689	59.98
852.071	59.97
852.452	59.97
852.834	59.94
853.215	59.94
853.597	59.98
853.978	59.97
854.359	59.97
854.741	59.96
855.122	59.97
855.503	59.95
855.884	59.96
856.265	59.97
856.646	59.99
857.026	60.02
857.407	59.98
857.788	59.98
858.169	59.99
858.549	60.01
858.93	60.03
859.31	60.04
859.69	60.04
860.071	60.07
860.451	60.07
860.831	60.07
861.211	60.06
861.591	60.1
861.971	60.06
862.351	60.11
862.731	60.11
863.111	60.07
863.491	60.1
863.87	60.09
864.25	60.1
864.629	60.1
865.009	60.1
865.388	60.11
865.768	60.11
866.147	60.12
866.526	60.07
866.905	60.1
867.284	60.12
867.663	60.13
868.042	60.14
868.421	60.12
868.8	60.14
869.179	60.16
869.558	60.14
869.936	60.15
870.315	60.17
870.693	60.19
871.072	60.18
871.45	60.18
871.828	60.16
872.207	60.17
872.585	60.19
872.963	60.18
873.341	60.16
873.719	60.15
874.097	60.15
874.475	60.16
874.853	60.17
875.23	60.16
875.608	60.17
875.986	60.17
876.363	60.17
876.741	60.2
877.118	60.2
877.495	60.21
877.873	60.23
878.25	60.22
878.627	60.23
879.004	60.24
879.381	60.25
879.758	60.24
880.135	60.25
880.512	60.28
880.889	60.29
881.265	60.34
881.642	60.33
882.019	60.36
882.395	60.37
882.772	60.38
883.148	60.36
883.524	60.37
883.901	60.38
884.277	60.39
884.653	60.38
885.029	60.34
885.405	60.31
885.781	60.34
886.157	60.34
886.532	60.36
886.908	60.37
887.284	60.43
887.659	60.44
888.035	60.45
888.411	60.45
888.786	60.47
889.161	60.51
889.537	60.57
889.912	60.58
890.287	60.58
890.662	60.57
891.037	60.53
891.412	60.51
891.787	60.49
892.162	60.48
892.536	60.47
892.911	60.44
893.286	60.39
893.66	60.36
894.035	60.33
894.409	60.33
894.784	60.33
895.158	60.36
895.532	60.34
895.906	60.36
896.281	60.34
896.655	60.37
897.029	60.35
897.402	60.38
897.776	60.36
898.15	60.37
898.524	60.38
898.898	60.37
899.271	60.36
899.645	60.36
900.018	60.34
900.392	60.42
900.765	60.43
901.138	60.45
901.511	60.47
901.884	60.51
902.258	60.52
902.631	60.5
903.003	60.53
903.376	60.53
903.749	60.59
904.122	60.61
904.495	60.57
904.867	60.54
905.24	60.54
905.612	60.54
905.985	60.51
906.357	60.47
906.729	60.46
907.102	60.46
907.474	60.49
907.846	60.45
908.218	60.4
908.59	60.35
908.962	60.36
909.334	60.36
909.705	60.32
910.077	60.31
910.449	60.34
910.82	60.31
911.192	60.32
911.563	60.29
911.935	60.28
912.306	60.29
912.677	60.32
913.048	60.32
913.419	60.3
913.79	60.32
914.161	60.31
914.532	60.28
914.903	60.28
915.274	60.28
915.645	60.3
916.015	60.31
916.386	60.3
916.756	60.25
917.127	60.25
917.497	60.28
917.868	60.27
918.238	60.27
918.608	60.32
918.978	60.34
919.348	60.3
919.718	60.29
920.088	60.31
920.458	60.37
920.828	60.42
921.198	60.43
921.567	60.4
921.937	60.42
922.306	60.44
922.676	60.43
923.045	60.37
923.415	60.37
923.784	60.34
924.153	60.28
924.522	60.27
924.891	60.24
925.26	60.24
925.629	60.23
925.998	60.2
926.367	60.18
926.736	60.13
927.104	60.17
927.473	60.17
927.842	60.12
928.21	60.18
928.578	60.14
928.947	60.16
929.315	60.19
929.683	60.2
930.051	60.22
930.42	60.21
930.788	60.22
931.156	60.2
931.523	60.22
931.891	60.21
932.259	60.13
932.627	60.07
932.994	60
933.362	59.92
933.729	59.88
934.097	59.81
934.464	59.76
934.831	59.74
935.199	59.71
935.566	59.63
935.933	59.62
936.3	59.55
936.667	59.54
937.034	59.5
937.401	59.48
937.767	59.38
938.134	59.44
938.501	59.42
938.867	59.42
939.234	59.47
939.6	59.52
939.967	59.52
940.333	59.71
940.699	59.76
941.065	59.86
941.431	59.92
941.798	60.1
942.163	60.11
942.529	60.2
942.895	60.27
943.261	60.28
943.627	60.38
943.992	60.5
944.358	60.51
944.723	60.55
945.089	60.57
945.454	60.55
945.82	60.58
946.185	60.65
946.55	60.71
946.915	60.75
947.28	60.75
947.645	60.68
948.01	60.59
948.375	60.58
948.74	60.54
949.104	60.59
949.469	60.51
949.834	60.46
950.198	60.34
950.562	60.31
950.927	60.23
951.291	60.17
951.655	60.19
952.02	60.23
952.384	60.24
952.748	60.24
953.112	60.24
953.476	60.29
953.839	60.27
954.203	60.28
954.567	60.3
954.931	60.32
955.294	60.35
955.658	60.29
956.021	60.32
956.385	60.31
956.748	60.26
957.111	60.23
957.474	60.23
957.837	60.22
958.2	60.19
958.563	60.1
958.926	60.07
959.289	60.03
959.652	60.02
960.015	59.94
960.377	59.88
960.74	59.94
961.102	59.91
961.465	59.85
961.827	59.73
962.189	59.77
962.552	59.68
962.914	59.64
963.276	59.66
963.638	59.62
964	59.61
964.362	59.65
964.724	59.62
965.085	59.56
965.447	59.56
965.809	59.58
966.17	59.58
966.532	59.66
966.893	59.69
967.255	59.62
967.616	59.66
967.977	59.64
968.338	59.58
968.699	59.46
969.061	59.5
969.421	59.51
969.782	59.54
970.143	59.44
970.504	59.36
970.865	59.23
971.225	59.21
971.586	59.23
971.946	59.25
972.307	59.32
972.667	59.42
973.027	59.43
973.388	59.41
973.748	59.43
974.108	59.49
974.468	59.52
974.828	59.62
975.188	59.67
975.548	59.64
975.907	59.68
976.267	59.62
976.627	59.56
976.986	59.53
977.346	59.52
977.705	59.55
978.064	59.56
978.424	59.57
978.783	59.52
979.142	59.42
979.501	59.36
979.86	59.31
980.219	59.23
980.578	59.22
980.937	59.22
981.296	59.2
981.654	59.27
982.013	59.23
982.371	59.21
982.73	59.23
983.088	59.23
983.447	59.28
983.805	59.19
984.163	59.23
984.521	59.2
984.879	59.26
985.237	59.27
985.595	59.17
985.953	59.15
986.311	59.15
986.669	59.1
987.026	59.14
987.384	59.06
987.741	59.2
988.099	59.18
988.456	59.2
988.814	59.09
989.171	59.04
989.528	58.99
989.885	58.99
990.242	59.09
990.599	59.16
990.956	59.17
991.313	59.32
991.67	59.34
992.027	59.26
992.383	59.28
992.74	59.32
993.096	59.38
993.453	59.31
993.809	59.27
994.165	59.14
994.522	59.11
994.878	59.1
995.234	58.97
995.59	58.8
995.946	58.95
996.302	58.92
996.658	58.91
997.013	58.94
997.369	59.06
997.725	59.2
998.08	59.18
998.436	59.35
998.791	59.36
999.147	59.46
999.502	59.54
999.857	59.49
1000.212	59.44
1000.567	59.42
1000.922	59.32
1001.277	59.16
1001.632	59.19
1001.987	59.19
1002.342	59.16
1002.696	59.08
1003.051	58.96
1003.406	58.95
1003.76	58.92
1004.114	58.99
1004.469	58.81
1004.823	58.95
1005.177	59.25
1005.531	58.99
1005.885	59.11
1006.239	59
1006.593	58.96
1006.947	58.91
1007.301	58.97
1007.655	58.85
1008.008	58.8
1008.362	58.76
1008.715	58.59
1009.069	58.36
1009.422	58.31
1009.776	58.19
1010.129	57.92
1010.482	58.19
1010.835	58.27
1011.188	58.21
1011.541	57.99
1011.894	57.88
1012.247	57.93
1012.6	57.86
1012.952	57.89
1013.305	57.94
1013.657	57.98
1014.01	58.33
1014.362	58.27
1014.715	58.29
1015.067	58.36
1015.419	58.74
1015.771	59.06
1016.123	59.24
1016.475	59.47
1016.827	59.64
1017.179	59.67
1017.531	59.49
1017.883	59.62
1018.234	59.45
1018.586	59.32
1018.938	59.07
1019.289	58.82
1019.64	58.78
1019.992	58.82
1020.343	58.47
1020.694	58.14
1021.045	58.03
1021.396	58.24
1021.747	57.75
1022.098	57.74
1022.449	57.87
1022.8	57.95
1023.151	57.93
1023.501	57.64
1023.852	57.7
1024.202	58
1024.553	58.15
1024.903	57.95
1025.253	57.77
1025.604	58.04
1025.954	57.81
1026.304	58.08
1026.654	58.11
1027.004	58.38
1027.354	58.4
1027.703	58.04
1028.053	57.74
1028.403	57.54
1028.753	58
1029.102	57.81
1029.452	57.53
1029.801	57.46
1030.15	56.95
1030.499	56.87
897.758	-26.43
901.051	-14.91
904.343	-19.33
907.636	-17.51
910.928	-11.64
914.22	-13.46
917.511	-13.45
920.803	-6
924.094	-4.07
927.384	-4.6
930.675	-2.12
933.965	-0.04
937.255	-2.53
940.544	2.1
943.834	2.78
947.123	1.01
950.411	6.65
953.7	8.74
956.988	8.31
960.276	11.1
963.563	14.89
966.851	15.87
970.138	18.2
973.424	20.05
976.711	21.31
979.997	24.05
983.283	23.37
986.568	23.24
989.853	25.87
993.138	28.08
996.423	28.49
999.708	28.45
1002.992	28.3
1006.275	29.94
1009.559	30.07
1012.842	30.24
1016.125	30.97
1019.408	31.69
1022.69	33.22
1025.972	33.52
1029.254	33.25
1032.536	34.66
1035.817	34.35
1039.098	36.13
1042.379	36.71
1045.659	37.86
1048.939	38.61
1052.219	38.54
1055.498	40.82
1058.778	40.16
1062.057	39.37
1065.335	40.61
1068.614	39.88
1071.892	40.77
1075.17	40.73
1078.447	40.92
1081.724	40.52
1085.001	39.64
1088.278	39.64
1091.554	38.72
1094.83	39.81
1098.106	40.8
1101.382	41.3
1104.657	41.83
1107.932	41.36
1111.206	41.96
1114.481	42.31
1117.755	41.85
1121.029	42.84
1124.302	43.63
1127.575	44.35
1130.848	44.08
1134.121	43.34
1137.393	43.11
1140.665	42.36
1143.937	42.75
1147.208	42.23
1150.48	42.18
1153.75	41.72
1157.021	42.05
1160.291	42.39
1163.561	40.47
1166.831	41.63
1170.101	41.86
1173.37	41.79
1176.639	42.25
1179.907	42.36
1183.176	42.23
1186.444	41.54
1189.711	42.06
1192.979	40.68
1196.246	41.4
1199.513	42.25
1202.78	41.45
1206.046	41.52
1209.312	41.92
1212.578	41.89
1215.843	41.59
1219.108	40.92
1222.373	41.27
1225.638	41.27
1228.902	42.15
1232.166	39.73
1235.43	38.69
1238.693	38.53
1241.956	37.17
1245.219	36.69
1248.482	37.42
1251.744	36.96
1255.006	38.63
1258.268	38.41
1261.529	38.6
1264.79	39.56
1268.051	40.17
1271.312	41.96
1274.572	41.89
1277.832	43.5
1281.092	43.5
1284.351	43.49
1287.61	43.92
1290.869	43.47
1294.128	43.73
1297.386	44.2
1300.644	43.86
1303.902	43.17
1307.159	42.8
1310.416	42.17
1313.673	42.07
1316.93	40.83
1320.186	40.88
1323.442	39.89
1326.697	38.68
1329.953	37.31
1333.208	35.15
1336.463	33.29
1339.717	33.9
1342.972	32.6
1346.226	31.78
1349.479	30.66
1352.733	30.09
1355.986	27.67
1359.238	27.78
1362.491	27.13
1365.743	26.31
1368.995	28.53
1372.247	26.48
1375.498	24.72
1378.749	20.89
1382	19.48
1385.251	16.97
1388.501	18.71
1391.751	17.56
1395	15.19
1398.25	14.29
1401.499	14.31
1404.748	9.87
1407.996	11.56
1411.244	12.41
1414.492	12.49
1417.74	11.03
1420.987	12.47
1424.234	9.81
1427.481	9.16
1430.728	10.57
1433.974	12.15
1437.22	10.72
1440.465	11.52
1443.711	11.36
1446.956	11.59
1450.201	12.65
1453.445	13.42
1456.689	14.45
1459.933	14.9
1463.177	14.82
1466.42	14.74
1469.663	14.34
1472.906	15.16
1476.148	15.96
1479.391	16
1482.633	16.25
1485.874	17.47
1489.115	18.33
1492.356	18.17
1495.597	18.76
1498.838	20.45
1502.078	21.13
1505.318	21.34
1508.557	21.71
1511.797	22.1
1515.036	23.69
1518.274	24.06
1521.513	23.94
1524.751	24.48
1527.989	25.88
1531.227	25.91
1534.464	26.74
1537.701	27.11
1540.938	27.39
1544.174	28.25
1547.41	28.77
1550.646	29.69
1553.882	30.16
1557.117	30.88
1560.352	30.89
1563.587	30.76
1566.821	31.32
1570.055	31.4
1573.289	32.07
1576.523	32.6
1579.756	32.71
1582.989	33.04
1586.222	32.64
1589.454	33.25
1592.686	33.54
1595.918	33.56
1599.15	34.03
1602.381	33.91
1605.612	34.59
1608.843	34.38
1612.073	34.26
1615.303	35.06
1618.533	34.65
1621.762	35.2
1624.992	34.27
1628.221	34.14
1631.449	35.1
1634.678	35.48
1637.906	35.42
1641.134	35.15
1644.361	35.43
1647.588	35.8
1650.815	35.46
1654.042	36.32
1657.269	35.61
1660.495	36.6
1663.72	37.01
1666.946	36.31
1670.171	36.01
1673.396	36.56
1676.621	36.56
1679.845	36.48
1683.069	36.01
1686.293	35.53
1689.517	35.56
1692.74	35.82
1695.963	35.62
1699.185	35.05
1702.408	35.35
1705.63	35.31
1708.852	35.07
1712.073	34.3
1715.294	34.14
1718.515	34.32
1721.736	34.34
1724.956	33.88
1728.176	33.66
1731.396	33.25
1734.616	33.42
1737.835	33.01
1741.054	32.33
1744.272	32.57
1747.491	32.92
1750.709	32.7
1753.927	32.35
1757.144	32.4
1760.361	32.18
1763.578	31.72
1766.795	31.81
1770.011	31.93
1773.227	31.77
1776.443	31.73
1779.658	30.72
1782.874	30.5
1786.089	29.75
1789.303	29.75
1792.518	29.24
1795.732	29.19
1798.945	29.64
1802.159	29.37
1805.372	28.48
1808.585	28.54
1811.797	28.58
1815.01	29.21
1818.222	29.28
1821.434	28.88
1824.645	28.18
1827.856	27.54
1831.067	26.95
1834.278	27.07
1837.488	26.96
1840.698	26.28
1843.908	25.78
1847.117	25.2
1850.326	23.31
1853.535	23.52
1856.744	23.35
1859.952	23.21
1863.16	22.44
1866.368	21.59
1869.575	19.77
1872.782	18.1
1875.989	16.72
1879.196	15.73
1882.402	13.14
1885.608	13.19
1888.814	10.23
1892.019	7.86
1895.224	6.09
1898.429	5.39
1901.634	3.93
1904.838	2.13
1908.042	1.04
1911.246	0.69
1914.449	-0.09
1917.652	-0.59
1920.855	-1.67
1924.058	-1.97
1927.26	-2.44
1930.462	-2.56
1933.664	-1.83
1936.865	-2.16
1940.066	-2.36
1943.267	-2.6
1946.467	-2.42
1949.668	-2.93
1952.868	-1.75
1956.067	-2.03
1959.267	-0.06
1962.466	-0.43
1965.665	0.04
1968.863	0.02
1972.061	-0.01
1975.259	0.9
1978.457	0.94
1981.654	1.32
1984.852	1.52
1988.048	1.69
1991.245	1.82
1994.441	0.92
1997.637	0.93
2000.833	2.18
2004.028	1.33
2007.223	1.22
2010.418	1.89
2013.613	2.26
2016.807	1.46
2020.001	0.54
2023.194	2.83
2026.388	1.96
2029.581	0.95
2032.774	0.64
2035.966	-0.95
2039.158	0.1
2042.35	-0.39
2045.542	-0.28
2048.733	-1.05
2051.924	-3.3
2055.115	-1.33
2058.306	-4.38
2061.496	-5.14
2064.686	-3.57
2067.875	-1.22
2071.065	-1.15
2074.254	-1.57
2077.442	-1.72
2080.631	-3.58
2083.819	-3.13
2087.007	-0.8
2090.195	-2.25
2093.382	-3.89
2096.569	-2.53
2099.756	-1.25
2102.942	-2.78
2106.128	-2.58
2109.314	-1.43
2112.5	-0.77
2115.685	-1.16
2118.87	-0.97
2122.055	-0.4
2125.239	-2.39
2128.424	-0.79
2131.608	-1.19
2134.791	-3.82
2137.974	-2.62
2141.157	-2.52
2144.34	-4.21
2147.523	-1.47
2150.705	-0.99
2153.887	-1.61
2157.068	-1.57
2160.25	-0.41
2163.431	1.34
2166.611	1.28
2169.792	2.91
2172.972	2.65
2176.152	2.04
2179.331	0.04
2182.511	-3.2
2185.69	-3.17
2188.868	-5.35
2192.047	-4.59
2195.225	-2.76
2198.403	-9.8
2201.58	-4.94
2204.758	-8.38
2207.935	-10.07
2211.111	-12.26
2214.288	-10.51
2217.464	-9.28
2220.64	-7.53
2223.815	-6.82
2226.991	-7.19
2230.166	-8.01
2233.34	-3.98
2236.515	-11.84
2239.689	-8.83
2242.863	-9.21
2246.036	-8.92
2249.209	-13.63
2252.382	-13.79
2255.555	-17.38
2258.727	-15.29
2261.9	-22.16
2265.071	-22.72
2268.243	-19.57
2271.414	-21.7
2274.585	-26
2277.756	-24.17
2280.926	-28.97
2284.096	-22.03
2287.266	-21.07
2290.436	-21.04
2293.605	-24.07
2296.774	-18.74
2299.942	-23.36
2303.111	-24.75
2306.279	-20.51
2309.447	-19.23
2312.614	-22.94
2315.781	-22.46
2318.948	-26.46
2322.115	-26.9
2325.281	-39.06
2328.447	-35.17
2331.613	-38.41
2334.779	-36.31
2337.944	-48.1
2341.109	-50.83
2344.274	-50.03
2347.438	-54.45
2350.602	-52.15
2353.766	-54.69
2356.929	-59.41
2360.092	-50.39
2363.255	-52.51
2366.418	-55.11
2369.58	-59.32
2372.742	-42.04
2375.904	-44.29
2379.066	-48.85
2382.227	-45.74
2385.388	-52.27
2388.548	-49.38
2391.709	-44.16
2394.869	-50.03
2398.029	-49.77
2401.188	-47.17
2404.347	-48.11
2407.506	-60.91
2410.665	-53.32
2413.823	-55.29
2416.981	-56.01
2420.139	-45.56
2423.296	-51.82
2426.453	-62.63
2429.61	-55.95
2432.767	-64.35
2435.923	-64.79
2439.079	-58.44
2442.235	-64.81
2445.391	-66.19
2448.546	-60.29
2451.701	-70.25
2454.855	-80.8
2458.009	-62.85
2461.163	-61.46
2464.317	-62.9
2467.471	-63.13
2470.624	-69.81
2473.777	-64.95
2476.929	-52.12
2480.082	-68.43
2483.234	-76.64
2486.385	-78.59
2489.537	-79.45
2492.688	-98.7
2495.839	-97.26
2498.989	-99.22
2502.14	-93.78
2505.29	-84.03
2508.439	-109.24
2511.589	-114.78
2514.738	-109.26
2517.887	-105.8
2521.035	-101.6
2524.183	-96.66
2527.331	-92.95
2530.479	-91.09
2533.627	-92.23
