Data from c_1_dec_on_6n_019_Splice17_03.txt Node
Date: Sat Feb 29 13:17:03 EST 2020
User: sa697716
Spectrometer: FLMS03696
Trigger mode: 0
Integration Time (sec): 3.180400E-1
Scans to average: 20
Electric dark correction enabled: true
Nonlinearity correction enabled: true
Boxcar width: 5
XAxis mode: Wavelengths
Number of Pixels in Spectrum: 2048
>>>>>Begin Spectral Data<<<<<
187.83	72.42
188.298	71.15
188.766	66.23
189.233	61.52
189.701	78.29
190.169	68.12
190.636	60.69
191.104	23.72
191.571	-58.16
192.039	40.83
192.506	444.77
192.974	9927.52
193.441	-676.67
193.908	85.62
194.375	4.31
194.842	152.25
195.31	75.78
195.777	30.36
196.244	17.87
196.711	31.17
197.177	30.27
197.644	31.56
198.111	31.76
198.578	32.92
199.045	33.74
199.511	34.2
199.978	34.28
200.445	33.93
200.911	34.34
201.378	34.57
201.844	35.14
202.31	35.86
202.777	35.74
203.243	36.03
203.709	36.1
204.176	35.87
204.642	35.85
205.108	35.56
205.574	36.11
206.04	36.05
206.506	35.77
206.972	35.19
207.438	34.61
207.903	34.77
208.369	34.24
208.835	33.96
209.301	33.88
209.766	33.37
210.232	33.15
210.697	32.61
211.163	32.17
211.628	31.6
212.094	31.44
212.559	31.11
213.024	30.27
213.49	29.5
213.955	28.92
214.42	28.36
214.885	27.75
215.35	27.06
215.815	25.9
216.28	24.83
216.745	23.64
217.21	22.25
217.675	21.12
218.14	20.06
218.604	19.02
219.069	18.2
219.534	17.33
219.998	16.69
220.463	16.14
220.927	15.69
221.392	15.24
221.856	14.86
222.32	14.53
222.785	14.22
223.249	13.92
223.713	13.7
224.177	13.45
224.642	13.27
225.106	13.08
225.57	12.84
226.034	12.65
226.497	12.45
226.961	12.26
227.425	12.07
227.889	11.92
228.353	11.76
228.816	11.64
229.28	11.47
229.744	11.32
230.207	11.19
230.671	11.05
231.134	10.9
231.597	10.74
232.061	10.61
232.524	10.51
232.987	10.37
233.45	10.25
233.914	10.12
234.377	10
234.84	9.87
235.303	9.77
235.766	9.69
236.229	9.61
236.691	9.54
237.154	9.48
237.617	9.38
238.08	9.3
238.542	9.23
239.005	9.15
239.468	9.07
239.93	9.02
240.393	8.93
240.855	8.83
241.317	8.76
241.78	8.69
242.242	8.61
242.704	8.54
243.166	8.46
243.629	8.38
244.091	8.31
244.553	8.25
245.015	8.17
245.477	8.09
245.939	8.04
246.4	7.95
246.862	7.9
247.324	7.85
247.786	7.79
248.247	7.73
248.709	7.68
249.17	7.63
249.632	7.55
250.093	7.5
250.555	7.45
251.016	7.42
251.477	7.37
251.939	7.31
252.4	7.26
252.861	7.21
253.322	7.18
253.783	7.14
254.244	7.11
254.705	7.08
255.166	7.04
255.627	7.01
256.088	6.94
256.549	6.91
257.009	6.87
257.47	6.83
257.931	6.78
258.391	6.74
258.852	6.69
259.312	6.65
259.773	6.6
260.233	6.55
260.694	6.51
261.154	6.48
261.614	6.44
262.074	6.41
262.534	6.37
262.994	6.33
263.455	6.29
263.915	6.26
264.374	6.23
264.834	6.21
265.294	6.18
265.754	6.16
266.214	6.13
266.673	6.1
267.133	6.07
267.593	6.06
268.052	6.03
268.512	6.01
268.971	5.98
269.431	5.97
269.89	5.94
270.349	5.93
270.809	5.91
271.268	5.9
271.727	5.87
272.186	5.85
272.645	5.83
273.104	5.81
273.563	5.8
274.022	5.78
274.481	5.76
274.94	5.73
275.399	5.71
275.857	5.69
276.316	5.66
276.775	5.64
277.233	5.63
277.692	5.6
278.15	5.58
278.609	5.55
279.067	5.53
279.525	5.51
279.984	5.5
280.442	5.48
280.9	5.47
281.358	5.45
281.816	5.44
282.274	5.42
282.732	5.41
283.19	5.4
283.648	5.39
284.106	5.38
284.564	5.37
285.021	5.37
285.479	5.35
285.937	5.34
286.394	5.33
286.852	5.33
287.309	5.32
287.767	5.3
288.224	5.29
288.682	5.27
289.139	5.25
289.596	5.23
290.053	5.2
290.511	5.18
290.968	5.16
291.425	5.14
291.882	5.12
292.339	5.1
292.796	5.08
293.252	5.06
293.709	5.04
294.166	5.03
294.623	5.01
295.079	5
295.536	4.98
295.992	4.96
296.449	4.95
296.905	4.93
297.362	4.92
297.818	4.91
298.274	4.9
298.731	4.89
299.187	4.88
299.643	4.87
300.099	4.87
300.555	4.86
301.011	4.84
301.467	4.83
301.923	4.82
302.379	4.8
302.835	4.79
303.291	4.78
303.746	4.76
304.202	4.75
304.658	4.74
305.113	4.73
305.569	4.72
306.024	4.72
306.479	4.72
306.935	4.71
307.39	4.71
307.845	4.7
308.301	4.7
308.756	4.71
309.211	4.71
309.666	4.71
310.121	4.69
310.576	4.7
311.031	4.69
311.486	4.69
311.94	4.69
312.395	4.69
312.85	4.69
313.305	4.68
313.759	4.68
314.214	4.67
314.668	4.66
315.123	4.67
315.577	4.66
316.032	4.66
316.486	4.65
316.94	4.65
317.394	4.64
317.849	4.62
318.303	4.62
318.757	4.6
319.211	4.58
319.665	4.57
320.119	4.56
320.572	4.56
321.026	4.54
321.48	4.53
321.934	4.52
322.387	4.52
322.841	4.51
323.295	4.49
323.748	4.49
324.202	4.48
324.655	4.48
325.108	4.47
325.562	4.46
326.015	4.45
326.468	4.44
326.921	4.43
327.374	4.43
327.827	4.42
328.28	4.41
328.733	4.4
329.186	4.41
329.639	4.39
330.092	4.38
330.545	4.39
330.997	4.39
331.45	4.38
331.903	4.38
332.355	4.38
332.808	4.38
333.26	4.38
333.713	4.39
334.165	4.38
334.617	4.39
335.069	4.38
335.522	4.39
335.974	4.4
336.426	4.4
336.878	4.4
337.33	4.4
337.782	4.4
338.234	4.41
338.686	4.4
339.137	4.4
339.589	4.39
340.041	4.39
340.493	4.37
340.944	4.36
341.396	4.36
341.847	4.34
342.299	4.32
342.75	4.3
343.201	4.29
343.653	4.28
344.104	4.26
344.555	4.25
345.006	4.24
345.457	4.24
345.908	4.23
346.359	4.22
346.81	4.22
347.261	4.21
347.712	4.21
348.163	4.21
348.613	4.2
349.064	4.19
349.515	4.18
349.965	4.18
350.416	4.17
350.866	4.17
351.317	4.16
351.767	4.16
352.217	4.15
352.668	4.15
353.118	4.15
353.568	4.16
354.018	4.17
354.468	4.16
354.918	4.17
355.368	4.17
355.818	4.16
356.268	4.17
356.718	4.17
357.168	4.15
357.617	4.15
358.067	4.14
358.517	4.14
358.966	4.14
359.416	4.15
359.865	4.14
360.315	4.14
360.764	4.14
361.213	4.14
361.663	4.14
362.112	4.16
362.561	4.16
363.01	4.17
363.459	4.17
363.908	4.16
364.357	4.17
364.806	4.16
365.255	4.16
365.703	4.16
366.152	4.16
366.601	4.16
367.05	4.16
367.498	4.15
367.947	4.13
368.395	4.15
368.844	4.14
369.292	4.13
369.74	4.14
370.189	4.14
370.637	4.15
371.085	4.16
371.533	4.16
371.981	4.17
372.429	4.16
372.877	4.18
373.325	4.17
373.773	4.17
374.221	4.17
374.669	4.17
375.116	4.16
375.564	4.17
376.012	4.17
376.459	4.17
376.907	4.17
377.354	4.17
377.801	4.18
378.249	4.2
378.696	4.2
379.143	4.22
379.591	4.23
380.038	4.24
380.485	4.25
380.932	4.26
381.379	4.25
381.826	4.26
382.273	4.28
382.72	4.29
383.166	4.29
383.613	4.3
384.06	4.3
384.506	4.3
384.953	4.31
385.4	4.31
385.846	4.32
386.292	4.35
386.739	4.35
387.185	4.36
387.631	4.38
388.078	4.39
388.524	4.39
388.97	4.39
389.416	4.4
389.862	4.41
390.308	4.43
390.754	4.44
391.2	4.46
391.645	4.48
392.091	4.48
392.537	4.48
392.983	4.5
393.428	4.52
393.874	4.55
394.319	4.58
394.765	4.6
395.21	4.6
395.655	4.62
396.101	4.63
396.546	4.63
396.991	4.64
397.436	4.64
397.881	4.65
398.326	4.67
398.771	4.69
399.216	4.7
399.661	4.72
400.106	4.75
400.551	4.75
400.995	4.76
401.44	4.76
401.885	4.79
402.329	4.82
402.774	4.82
403.218	4.82
403.663	4.82
404.107	4.83
404.551	4.84
404.995	4.84
405.44	4.84
405.884	4.85
406.328	4.85
406.772	4.86
407.216	4.87
407.66	4.89
408.104	4.9
408.547	4.91
408.991	4.9
409.435	4.9
409.879	4.9
410.322	4.92
410.766	4.93
411.209	4.95
411.653	4.95
412.096	4.95
412.54	4.95
412.983	4.95
413.426	4.97
413.869	4.99
414.312	5.02
414.756	5.04
415.199	5.04
415.642	5.07
416.085	5.09
416.527	5.11
416.97	5.13
417.413	5.14
417.856	5.13
418.298	5.11
418.741	5.11
419.184	5.11
419.626	5.11
420.069	5.11
420.511	5.1
420.953	5.07
421.396	5.08
421.838	5.1
422.28	5.11
422.722	5.13
423.164	5.14
423.606	5.15
424.048	5.16
424.49	5.16
424.932	5.17
425.374	5.18
425.816	5.18
426.258	5.17
426.699	5.14
427.141	5.12
427.582	5.12
428.024	5.14
428.465	5.14
428.907	5.16
429.348	5.16
429.789	5.18
430.231	5.18
430.672	5.19
431.113	5.21
431.554	5.25
431.995	5.28
432.436	5.29
432.877	5.28
433.318	5.28
433.759	5.28
434.2	5.3
434.64	5.3
435.081	5.32
435.522	5.35
435.962	5.37
436.403	5.37
436.843	5.39
437.284	5.4
437.724	5.45
438.164	5.48
438.604	5.5
439.045	5.5
439.485	5.52
439.925	5.52
440.365	5.5
440.805	5.51
441.245	5.51
441.685	5.51
442.125	5.52
442.564	5.53
443.004	5.53
443.444	5.53
443.883	5.54
444.323	5.55
444.762	5.58
445.202	5.61
445.641	5.62
446.081	5.66
446.52	5.67
446.959	5.69
447.398	5.71
447.837	5.76
448.276	5.78
448.716	5.79
449.154	5.81
449.593	5.82
450.032	5.83
450.471	5.84
450.91	5.83
451.349	5.84
451.787	5.84
452.226	5.8
452.664	5.77
453.103	5.77
453.541	5.78
453.98	5.77
454.418	5.75
454.856	5.73
455.295	5.7
455.733	5.7
456.171	5.7
456.609	5.7
457.047	5.72
457.485	5.71
457.923	5.7
458.361	5.69
458.798	5.69
459.236	5.71
459.674	5.72
460.111	5.73
460.549	5.74
460.987	5.74
461.424	5.74
461.862	5.74
462.299	5.75
462.736	5.76
463.173	5.75
463.611	5.74
464.048	5.74
464.485	5.72
464.922	5.72
465.359	5.72
465.796	5.71
466.233	5.72
466.67	5.72
467.106	5.71
467.543	5.71
467.98	5.73
468.416	5.75
468.853	5.75
469.29	5.79
469.726	5.79
470.162	5.77
470.599	5.8
471.035	5.79
471.471	5.79
471.907	5.79
472.344	5.79
472.78	5.79
473.216	5.78
473.652	5.78
474.088	5.78
474.523	5.77
474.959	5.77
475.395	5.75
475.831	5.75
476.266	5.75
476.702	5.75
477.138	5.74
477.573	5.71
478.008	5.71
478.444	5.7
478.879	5.7
479.314	5.7
479.75	5.7
480.185	5.7
480.62	5.7
481.055	5.68
481.49	5.68
481.925	5.67
482.36	5.67
482.795	5.66
483.229	5.66
483.664	5.65
484.099	5.64
484.534	5.63
484.968	5.62
485.403	5.61
485.837	5.6
486.271	5.61
486.706	5.61
487.14	5.63
487.574	5.63
488.009	5.65
488.443	5.67
488.877	5.66
489.311	5.68
489.745	5.69
490.179	5.7
490.613	5.72
491.046	5.74
491.48	5.76
491.914	5.77
492.348	5.78
492.781	5.79
493.215	5.81
493.648	5.85
494.082	5.88
494.515	5.91
494.948	5.95
495.382	5.97
495.815	6.02
496.248	6.05
496.681	6.09
497.114	6.13
497.547	6.18
497.98	6.23
498.413	6.27
498.846	6.33
499.279	6.38
499.711	6.43
500.144	6.5
500.577	6.55
501.009	6.62
501.442	6.69
501.874	6.78
502.306	6.85
502.739	6.93
503.171	7.02
503.603	7.12
504.036	7.21
504.468	7.32
504.9	7.44
505.332	7.56
505.764	7.69
506.196	7.82
506.627	7.93
507.059	8.07
507.491	8.22
507.923	8.38
508.354	8.53
508.786	8.69
509.217	8.84
509.649	9
510.08	9.18
510.512	9.34
510.943	9.54
511.374	9.73
511.805	9.94
512.237	10.14
512.668	10.32
513.099	10.55
513.53	10.78
513.961	11.01
514.391	11.23
514.822	11.46
515.253	11.69
515.684	11.91
516.114	12.17
516.545	12.41
516.975	12.66
517.406	12.93
517.836	13.17
518.267	13.43
518.697	13.7
519.127	13.99
519.558	14.26
519.988	14.53
520.418	14.79
520.848	15.05
521.278	15.31
521.708	15.54
522.138	15.78
522.567	16.02
522.997	16.26
523.427	16.49
523.857	16.69
524.286	16.92
524.716	17.15
525.145	17.39
525.575	17.6
526.004	17.81
526.433	18.03
526.863	18.24
527.292	18.44
527.721	18.61
528.15	18.78
528.579	18.97
529.008	19.13
529.437	19.29
529.866	19.43
530.295	19.6
530.724	19.73
531.152	19.88
531.581	19.98
532.01	20.09
532.438	20.21
532.867	20.34
533.295	20.45
533.723	20.55
534.152	20.63
534.58	20.7
535.008	20.75
535.436	20.82
535.865	20.88
536.293	20.95
536.721	21.04
537.149	21.1
537.576	21.13
538.004	21.18
538.432	21.22
538.86	21.27
539.287	21.33
539.715	21.38
540.143	21.43
540.57	21.46
540.998	21.52
541.425	21.54
541.852	21.59
542.28	21.63
542.707	21.67
543.134	21.7
543.561	21.73
543.988	21.77
544.415	21.8
544.842	21.84
545.269	21.89
545.696	21.91
546.123	21.93
546.549	21.96
546.976	21.99
547.403	22.02
547.829	22.05
548.256	22.09
548.682	22.09
549.108	22.11
549.535	22.12
549.961	22.12
550.387	22.12
550.813	22.11
551.24	22.11
551.666	22.11
552.092	22.1
552.518	22.1
552.943	22.09
553.369	22.09
553.795	22.07
554.221	22.04
554.646	22
555.072	21.98
555.498	21.96
555.923	21.9
556.349	21.82
556.774	21.76
557.199	21.7
557.625	21.61
558.05	21.52
558.475	21.45
558.9	21.37
559.325	21.31
559.75	21.21
560.175	21.12
560.6	21.03
561.025	20.92
561.449	20.82
561.874	20.71
562.299	20.59
562.723	20.47
563.148	20.34
563.572	20.21
563.997	20.07
564.421	19.94
564.846	19.81
565.27	19.67
565.694	19.54
566.118	19.39
566.542	19.24
566.966	19.11
567.39	18.96
567.814	18.82
568.238	18.65
568.662	18.5
569.086	18.34
569.509	18.19
569.933	18.03
570.357	17.86
570.78	17.72
571.204	17.56
571.627	17.4
572.05	17.26
572.474	17.12
572.897	16.99
573.32	16.85
573.743	16.73
574.166	16.6
574.589	16.48
575.012	16.38
575.435	16.25
575.858	16.14
576.281	16.03
576.704	15.92
577.126	15.81
577.549	15.71
577.972	15.62
578.394	15.5
578.817	15.39
579.239	15.3
579.661	15.21
580.084	15.12
580.506	15.03
580.928	14.93
581.35	14.84
581.772	14.78
582.194	14.7
582.616	14.64
583.038	14.58
583.46	14.52
583.882	14.47
584.303	14.39
584.725	14.35
585.147	14.27
585.568	14.21
585.99	14.18
586.411	14.12
586.833	14.08
587.254	14.02
587.675	13.96
588.096	13.91
588.518	13.84
588.939	13.8
589.36	13.75
589.781	13.72
590.202	13.67
590.623	13.61
591.043	13.57
591.464	13.5
591.885	13.47
592.305	13.45
592.726	13.4
593.147	13.38
593.567	13.34
593.987	13.32
594.408	13.29
594.828	13.28
595.248	13.25
595.669	13.22
596.089	13.19
596.509	13.14
596.929	13.09
597.349	13.05
597.769	13
598.189	12.96
598.608	12.92
599.028	12.87
599.448	12.83
599.867	12.79
600.287	12.75
600.706	12.72
601.126	12.68
601.545	12.64
601.965	12.6
602.384	12.57
602.803	12.52
603.222	12.46
603.641	12.42
604.061	12.35
604.48	12.3
604.898	12.24
605.317	12.18
605.736	12.12
606.155	12.06
606.574	11.99
606.992	11.92
607.411	11.87
607.829	11.77
608.248	11.71
608.666	11.65
609.085	11.58
609.503	11.52
609.921	11.45
610.339	11.4
610.758	11.33
611.176	11.28
611.594	11.23
612.012	11.15
612.43	11.13
612.847	11.07
613.265	11
613.683	10.94
614.101	10.87
614.518	10.82
614.936	10.75
615.353	10.7
615.771	10.64
616.188	10.59
616.606	10.54
617.023	10.48
617.44	10.43
617.857	10.39
618.274	10.35
618.691	10.31
619.108	10.27
619.525	10.24
619.942	10.21
620.359	10.18
620.776	10.14
621.192	10.13
621.609	10.1
622.026	10.08
622.442	10.04
622.859	10.03
623.275	10.03
623.691	10.02
624.108	10.01
624.524	9.99
624.94	9.98
625.356	9.98
625.772	9.97
626.188	9.97
626.604	9.97
627.02	9.98
627.436	9.96
627.852	9.94
628.268	9.93
628.683	9.92
629.099	9.9
629.514	9.88
629.93	9.85
630.345	9.82
630.761	9.78
631.176	9.75
631.591	9.71
632.007	9.68
632.422	9.64
632.837	9.6
633.252	9.55
633.667	9.49
634.082	9.44
634.497	9.37
634.911	9.3
635.326	9.22
635.741	9.14
636.155	9.06
636.57	8.97
636.984	8.87
637.399	8.77
637.813	8.67
638.228	8.58
638.642	8.5
639.056	8.43
639.47	8.35
639.884	8.26
640.298	8.18
640.712	8.08
641.126	8
641.54	7.92
641.954	7.86
642.368	7.78
642.781	7.71
643.195	7.61
643.609	7.53
644.022	7.46
644.436	7.39
644.849	7.31
645.262	7.27
645.676	7.2
646.089	7.14
646.502	7.07
646.915	7.02
647.328	6.98
647.741	6.93
648.154	6.89
648.567	6.86
648.98	6.82
649.393	6.79
649.805	6.74
650.218	6.72
650.631	6.69
651.043	6.66
651.456	6.64
651.868	6.62
652.28	6.6
652.693	6.57
653.105	6.54
653.517	6.5
653.929	6.48
654.341	6.46
654.753	6.41
655.165	6.39
655.577	6.34
655.989	6.31
656.401	6.25
656.813	6.2
657.224	6.17
657.636	6.14
658.047	6.1
658.459	6.04
658.87	6.01
659.282	5.98
659.693	5.94
660.104	5.9
660.515	5.86
660.926	5.83
661.338	5.8
661.749	5.75
662.159	5.7
662.57	5.65
662.981	5.62
663.392	5.57
663.803	5.53
664.213	5.5
664.624	5.48
665.035	5.44
665.445	5.41
665.855	5.4
666.266	5.38
666.676	5.38
667.086	5.38
667.497	5.36
667.907	5.35
668.317	5.35
668.727	5.34
669.137	5.34
669.547	5.35
669.956	5.35
670.366	5.35
670.776	5.37
671.186	5.37
671.595	5.38
672.005	5.4
672.414	5.42
672.824	5.43
673.233	5.45
673.642	5.46
674.052	5.47
674.461	5.48
674.87	5.49
675.279	5.5
675.688	5.51
676.097	5.53
676.506	5.56
676.915	5.58
677.323	5.61
677.732	5.65
678.141	5.68
678.549	5.72
678.958	5.77
679.366	5.81
679.775	5.86
680.183	5.92
680.592	5.97
681	6.01
681.408	6.07
681.816	6.13
682.224	6.2
682.632	6.28
683.04	6.36
683.448	6.45
683.856	6.55
684.264	6.66
684.671	6.78
685.079	6.91
685.487	7.08
685.894	7.26
686.302	7.45
686.709	7.65
687.116	7.87
687.524	8.11
687.931	8.36
688.338	8.64
688.745	8.96
689.152	9.3
689.559	9.64
689.966	10.02
690.373	10.41
690.78	10.82
691.187	11.25
691.593	11.7
692	12.19
692.407	12.7
692.813	13.21
693.22	13.74
693.626	14.27
694.032	14.83
694.439	15.39
694.845	15.97
695.251	16.54
695.657	17.13
696.063	17.74
696.469	18.34
696.875	18.92
697.281	19.52
697.687	20.13
698.093	20.74
698.498	21.33
698.904	21.95
699.31	22.54
699.715	23.14
700.12	23.74
700.526	24.31
700.931	24.87
701.337	25.47
701.742	26.04
702.147	26.6
702.552	27.15
702.957	27.71
703.362	28.25
703.767	28.78
704.172	29.31
704.577	29.83
704.981	30.38
705.386	30.91
705.791	31.41
706.195	31.91
706.6	32.38
707.004	32.86
707.408	33.36
707.813	33.81
708.217	34.27
708.621	34.73
709.025	35.16
709.43	35.59
709.834	36.04
710.237	36.43
710.641	36.89
711.045	37.34
711.449	37.76
711.853	38.17
712.256	38.61
712.66	39.01
713.064	39.4
713.467	39.8
713.87	40.2
714.274	40.6
714.677	41.01
715.08	41.35
715.484	41.73
715.887	42.1
716.29	42.47
716.693	42.8
717.096	43.17
717.499	43.52
717.901	43.85
718.304	44.17
718.707	44.47
719.109	44.81
719.512	45.14
719.915	45.44
720.317	45.73
720.719	46.01
721.122	46.34
721.524	46.63
721.926	46.93
722.328	47.22
722.731	47.5
723.133	47.77
723.535	48.02
723.937	48.24
724.338	48.49
724.74	48.73
725.142	48.88
725.544	49.05
725.945	49.24
726.347	49.42
726.748	49.6
727.15	49.77
727.551	49.96
727.952	50.13
728.354	50.33
728.755	50.5
729.156	50.68
729.557	50.94
729.958	51.11
730.359	51.27
730.76	51.41
731.161	51.58
731.562	51.75
731.962	51.92
732.363	52.06
732.763	52.2
733.164	52.3
733.564	52.42
733.965	52.51
734.365	52.59
734.766	52.69
735.166	52.8
735.566	52.87
735.966	52.93
736.366	52.96
736.766	53.04
737.166	53.12
737.566	53.18
737.966	53.28
738.365	53.37
738.765	53.45
739.165	53.48
739.564	53.56
739.964	53.6
740.363	53.69
740.763	53.74
741.162	53.78
741.561	53.82
741.96	53.89
742.36	53.91
742.759	53.92
743.158	53.99
743.557	54.06
743.955	54.11
744.354	54.19
744.753	54.25
745.152	54.3
745.55	54.36
745.949	54.4
746.348	54.47
746.746	54.5
747.144	54.59
747.543	54.61
747.941	54.67
748.339	54.71
748.737	54.75
749.136	54.77
749.534	54.84
749.932	54.86
750.33	54.88
750.727	54.9
751.125	54.92
751.523	54.91
751.921	54.95
752.318	55.01
752.716	55.03
753.113	55.05
753.511	55.05
753.908	55.05
754.305	55.04
754.703	55.07
755.1	55.08
755.497	55.1
755.894	55.13
756.291	55.12
756.688	55.08
757.085	55.04
757.482	55.06
757.878	55.07
758.275	55.07
758.672	55.11
759.068	55.13
759.465	55.13
759.861	55.12
760.258	55.13
760.654	55.1
761.05	55.14
761.447	55.15
761.843	55.12
762.239	55.09
762.635	55.1
763.031	55.09
763.427	55.06
763.822	55.02
764.218	55.03
764.614	55.02
765.01	55.02
765.405	54.98
765.801	54.97
766.196	54.97
766.592	55.02
766.987	55
767.382	54.98
767.778	55.02
768.173	55.05
768.568	55.03
768.963	55.03
769.358	55.05
769.753	55.06
770.148	55.07
770.542	55.06
770.937	54.99
771.332	55.02
771.726	55.02
772.121	54.94
772.515	54.92
772.91	54.95
773.304	54.93
773.699	54.96
774.093	54.92
774.487	54.95
774.881	54.96
775.275	54.99
775.669	54.99
776.063	55
776.457	55.02
776.851	55.02
777.245	54.98
777.638	55.04
778.032	55.02
778.425	55.07
778.819	55.09
779.212	55.07
779.606	55.08
779.999	55.08
780.392	55.1
780.786	55.15
781.179	55.18
781.572	55.2
781.965	55.17
782.358	55.15
782.751	55.13
783.143	55.16
783.536	55.24
783.929	55.27
784.322	55.26
784.714	55.24
785.107	55.27
785.499	55.29
785.891	55.29
786.284	55.27
786.676	55.31
787.068	55.33
787.46	55.3
787.852	55.27
788.245	55.27
788.636	55.3
789.028	55.32
789.42	55.28
789.812	55.28
790.204	55.25
790.595	55.3
790.987	55.3
791.378	55.33
791.77	55.36
792.161	55.4
792.553	55.37
792.944	55.39
793.335	55.45
793.726	55.44
794.117	55.45
794.508	55.5
794.899	55.49
795.29	55.49
795.681	55.48
796.072	55.47
796.463	55.39
796.853	55.41
797.244	55.37
797.634	55.31
798.025	55.34
798.415	55.37
798.806	55.37
799.196	55.39
799.586	55.38
799.976	55.38
800.366	55.39
800.756	55.45
801.146	55.43
801.536	55.46
801.926	55.48
802.316	55.49
802.706	55.47
803.095	55.49
803.485	55.53
803.874	55.56
804.264	55.59
804.653	55.55
805.043	55.53
805.432	55.53
805.821	55.51
806.21	55.52
806.599	55.54
806.988	55.53
807.377	55.52
807.766	55.5
808.155	55.51
808.544	55.47
808.933	55.51
809.321	55.55
809.71	55.63
810.098	55.63
810.487	55.65
810.875	55.66
811.264	55.67
811.652	55.69
812.04	55.71
812.428	55.7
812.816	55.76
813.204	55.76
813.592	55.74
813.98	55.71
814.368	55.69
814.756	55.69
815.144	55.69
815.531	55.68
815.919	55.69
816.306	55.66
816.694	55.72
817.081	55.68
817.469	55.71
817.856	55.77
818.243	55.81
818.63	55.89
819.017	55.9
819.404	55.9
819.791	55.93
820.178	55.96
820.565	56.02
820.952	55.98
821.339	56.02
821.725	56.06
822.112	56.07
822.498	56.08
822.885	56.09
823.271	56.11
823.657	56.13
824.044	56.15
824.43	56.16
824.816	56.14
825.202	56.14
825.588	56.15
825.974	56.14
826.36	56.12
826.746	56.15
827.132	56.11
827.517	56.13
827.903	56.15
828.289	56.17
828.674	56.16
829.06	56.18
829.445	56.26
829.83	56.28
830.216	56.3
830.601	56.3
830.986	56.28
831.371	56.34
831.756	56.29
832.141	56.29
832.526	56.28
832.911	56.34
833.295	56.38
833.68	56.36
834.065	56.34
834.449	56.32
834.834	56.31
835.218	56.3
835.603	56.28
835.987	56.29
836.371	56.31
836.755	56.32
837.139	56.26
837.524	56.23
837.908	56.2
838.291	56.21
838.675	56.21
839.059	56.21
839.443	56.22
839.827	56.23
840.21	56.26
840.594	56.24
840.977	56.23
841.361	56.26
841.744	56.28
842.127	56.28
842.511	56.29
842.894	56.28
843.277	56.32
843.66	56.33
844.043	56.36
844.426	56.32
844.809	56.33
845.191	56.3
845.574	56.28
845.957	56.24
846.339	56.24
846.722	56.21
847.104	56.23
847.487	56.24
847.869	56.24
848.252	56.24
848.634	56.29
849.016	56.32
849.398	56.34
849.78	56.35
850.162	56.39
850.544	56.45
850.926	56.48
851.307	56.49
851.689	56.43
852.071	56.42
852.452	56.41
852.834	56.39
853.215	56.38
853.597	56.42
853.978	56.4
854.359	56.37
854.741	56.37
855.122	56.39
855.503	56.4
855.884	56.43
856.265	56.44
856.646	56.45
857.026	56.49
857.407	56.47
857.788	56.46
858.169	56.47
858.549	56.49
858.93	56.46
859.31	56.46
859.69	56.46
860.071	56.49
860.451	56.49
860.831	56.5
861.211	56.47
861.591	56.49
861.971	56.46
862.351	56.51
862.731	56.52
863.111	56.52
863.491	56.51
863.87	56.49
864.25	56.49
864.629	56.51
865.009	56.51
865.388	56.52
865.768	56.52
866.147	56.56
866.526	56.54
866.905	56.56
867.284	56.57
867.663	56.58
868.042	56.6
868.421	56.59
868.8	56.6
869.179	56.64
869.558	56.62
869.936	56.59
870.315	56.61
870.693	56.62
871.072	56.63
871.45	56.64
871.828	56.64
872.207	56.69
872.585	56.72
872.963	56.68
873.341	56.68
873.719	56.71
874.097	56.74
874.475	56.77
874.853	56.78
875.23	56.77
875.608	56.78
875.986	56.77
876.363	56.77
876.741	56.75
877.118	56.8
877.495	56.81
877.873	56.79
878.25	56.81
878.627	56.8
879.004	56.81
879.381	56.81
879.758	56.83
880.135	56.86
880.512	56.87
880.889	56.9
881.265	56.93
881.642	56.93
882.019	56.96
882.395	56.98
882.772	57
883.148	57.01
883.524	57.04
883.901	57.04
884.277	57.05
884.653	57.04
885.029	57.03
885.405	57.02
885.781	57.03
886.157	57.05
886.532	57.06
886.908	57.05
887.284	57.06
887.659	57.09
888.035	57.13
888.411	57.11
888.786	57.13
889.161	57.16
889.537	57.2
889.912	57.21
890.287	57.21
890.662	57.21
891.037	57.22
891.412	57.19
891.787	57.17
892.162	57.14
892.536	57.15
892.911	57.15
893.286	57.13
893.66	57.1
894.035	57.09
894.409	57.11
894.784	57.12
895.158	57.11
895.532	57.12
895.906	57.11
896.281	57.12
896.655	57.11
897.029	57.08
897.402	57.09
897.776	57.09
898.15	57.07
898.524	57.06
898.898	57.02
899.271	57.05
899.645	57.05
900.018	57.06
900.392	57.08
900.765	57.11
901.138	57.15
901.511	57.16
901.884	57.16
902.258	57.17
902.631	57.17
903.003	57.18
903.376	57.15
903.749	57.18
904.122	57.19
904.495	57.18
904.867	57.16
905.24	57.14
905.612	57.12
905.985	57.12
906.357	57.12
906.729	57.13
907.102	57.12
907.474	57.11
907.846	57.07
908.218	57.06
908.59	57.03
908.962	57.06
909.334	57.08
909.705	57.08
910.077	57.06
910.449	57.06
910.82	57.04
911.192	57.06
911.563	57.08
911.935	57.1
912.306	57.1
912.677	57.15
913.048	57.13
913.419	57.13
913.79	57.14
914.161	57.15
914.532	57.12
914.903	57.13
915.274	57.12
915.645	57.12
916.015	57.14
916.386	57.14
916.756	57.1
917.127	57.11
917.497	57.1
917.868	57.1
918.238	57.15
918.608	57.18
918.978	57.19
919.348	57.17
919.718	57.17
920.088	57.15
920.458	57.18
920.828	57.2
921.198	57.19
921.567	57.18
921.937	57.22
922.306	57.2
922.676	57.23
923.045	57.25
923.415	57.28
923.784	57.28
924.153	57.31
924.522	57.3
924.891	57.27
925.26	57.28
925.629	57.3
925.998	57.27
926.367	57.28
926.736	57.24
927.104	57.22
927.473	57.24
927.842	57.22
928.21	57.22
928.578	57.18
928.947	57.21
929.315	57.2
929.683	57.22
930.051	57.22
930.42	57.19
930.788	57.17
931.156	57.14
931.523	57.14
931.891	57.1
932.259	57.04
932.627	56.98
932.994	56.92
933.362	56.89
933.729	56.82
934.097	56.76
934.464	56.7
934.831	56.66
935.199	56.65
935.566	56.56
935.933	56.59
936.3	56.49
936.667	56.49
937.034	56.41
937.401	56.41
937.767	56.34
938.134	56.33
938.501	56.33
938.867	56.39
939.234	56.42
939.6	56.41
939.967	56.41
940.333	56.57
940.699	56.69
941.065	56.86
941.431	56.89
941.798	57.01
942.163	57.06
942.529	57.12
942.895	57.12
943.261	57.12
943.627	57.21
943.992	57.27
944.358	57.23
944.723	57.21
945.089	57.21
945.454	57.28
945.82	57.31
946.185	57.35
946.55	57.41
946.915	57.4
947.28	57.46
947.645	57.48
948.01	57.4
948.375	57.46
948.74	57.5
949.104	57.55
949.469	57.46
949.834	57.42
950.198	57.32
950.562	57.21
950.927	57.24
951.291	57.18
951.655	57.15
952.02	57.19
952.384	57.25
952.748	57.21
953.112	57.17
953.476	57.17
953.839	57.13
954.203	57.13
954.567	57.21
954.931	57.19
955.294	57.18
955.658	57.18
956.021	57.15
956.385	57.12
956.748	57.16
957.111	57.11
957.474	57.11
957.837	57.15
958.2	57.1
958.563	57.01
958.926	56.98
959.289	56.97
959.652	56.97
960.015	56.94
960.377	56.92
960.74	56.82
961.102	56.82
961.465	56.82
961.827	56.67
962.189	56.67
962.552	56.64
962.914	56.63
963.276	56.65
963.638	56.6
964	56.58
964.362	56.56
964.724	56.59
965.085	56.59
965.447	56.54
965.809	56.53
966.17	56.63
966.532	56.69
966.893	56.67
967.255	56.64
967.616	56.65
967.977	56.67
968.338	56.57
968.699	56.43
969.061	56.38
969.421	56.3
969.782	56.39
970.143	56.29
970.504	56.18
970.865	56.14
971.225	56.1
971.586	56.17
971.946	56.19
972.307	56.26
972.667	56.34
973.027	56.45
973.388	56.48
973.748	56.44
974.108	56.51
974.468	56.55
974.828	56.59
975.188	56.62
975.548	56.53
975.907	56.52
976.267	56.51
976.627	56.56
976.986	56.42
977.346	56.51
977.705	56.58
978.064	56.53
978.424	56.56
978.783	56.61
979.142	56.65
979.501	56.58
979.86	56.5
980.219	56.46
980.578	56.48
980.937	56.56
981.296	56.54
981.654	56.55
982.013	56.62
982.371	56.6
982.73	56.54
983.088	56.47
983.447	56.57
983.805	56.57
984.163	56.58
984.521	56.46
984.879	56.41
985.237	56.41
985.595	56.36
985.953	56.31
986.311	56.31
986.669	56.31
987.026	56.37
987.384	56.29
987.741	56.38
988.099	56.39
988.456	56.44
988.814	56.46
989.171	56.42
989.528	56.36
989.885	56.32
990.242	56.3
990.599	56.3
990.956	56.31
991.313	56.33
991.67	56.29
992.027	56.21
992.383	56.25
992.74	56.23
993.096	56.26
993.453	56.28
993.809	56.39
994.165	56.4
994.522	56.31
994.878	56.14
995.234	56.17
995.59	56.04
995.946	56
996.302	55.96
996.658	55.98
997.013	55.9
997.369	55.98
997.725	55.95
998.08	55.92
998.436	56.08
998.791	56.1
999.147	56.1
999.502	56.23
999.857	56.41
1000.212	56.37
1000.567	56.39
1000.922	56.5
1001.277	56.36
1001.632	56.38
1001.987	56.5
1002.342	56.45
1002.696	56.68
1003.051	56.34
1003.406	56.23
1003.76	56.1
1004.114	56.27
1004.469	56.23
1004.823	56.17
1005.177	56.23
1005.531	56.04
1005.885	55.99
1006.239	55.84
1006.593	55.66
1006.947	55.76
1007.301	55.69
1007.655	55.63
1008.008	55.39
1008.362	55.26
1008.715	55.1
1009.069	55.01
1009.422	54.95
1009.776	54.76
1010.129	54.73
1010.482	54.77
1010.835	55.06
1011.188	55.24
1011.541	55.11
1011.894	55.14
1012.247	55.09
1012.6	55.1
1012.952	55.18
1013.305	55.39
1013.657	55.56
1014.01	55.77
1014.362	55.67
1014.715	55.36
1015.067	55.26
1015.419	55.6
1015.771	55.51
1016.123	55.52
1016.475	55.82
1016.827	55.86
1017.179	55.86
1017.531	55.84
1017.883	56.04
1018.234	55.91
1018.586	56.16
1018.938	56
1019.289	55.82
1019.64	56.09
1019.992	56.33
1020.343	56.13
1020.694	56
1021.045	55.89
1021.396	55.83
1021.747	55.33
1022.098	55.6
1022.449	55.4
1022.8	55.25
1023.151	54.99
1023.501	54.85
1023.852	54.66
1024.202	54.53
1024.553	54.33
1024.903	54.16
1025.253	54.13
1025.604	53.97
1025.954	53.73
1026.304	54.11
1026.654	54.72
1027.004	55.04
1027.354	55
1027.703	54.94
1028.053	54.84
1028.403	54.9
1028.753	55.27
1029.102	55.22
1029.452	55.55
1029.801	55.62
1030.15	55.37
1030.499	55
897.758	-20.1
901.051	-12.97
904.343	-15.9
907.636	-15.03
910.928	-10.1
914.22	-12.49
917.511	-15.41
920.803	-10.29
924.094	-5.04
927.384	-5
930.675	-3.49
933.965	-2.74
937.255	-3.81
940.544	-1.68
943.834	-0.23
947.123	-1.57
950.411	3.9
953.7	6.84
956.988	10.48
960.276	9.61
963.563	12.6
966.851	16.32
970.138	18.15
973.424	19.19
976.711	22.33
979.997	22.25
983.283	22.19
986.568	21.52
989.853	25.65
993.138	25.1
996.423	25.65
999.708	25.79
1002.992	24.03
1006.275	26.53
1009.559	27.4
1012.842	27.13
1016.125	30.09
1019.408	30.95
1022.69	32.19
1025.972	31.31
1029.254	32.26
1032.536	33.55
1035.817	33.36
1039.098	36.2
1042.379	35.95
1045.659	37.48
1048.939	37.4
1052.219	37.37
1055.498	39.25
1058.778	39.62
1062.057	39.78
1065.335	40.7
1068.614	39.48
1071.892	41
1075.17	39.53
1078.447	40.19
1081.724	39.91
1085.001	39.21
1088.278	39.16
1091.554	37.57
1094.83	38.92
1098.106	39.16
1101.382	39.16
1104.657	40.4
1107.932	39.97
1111.206	41.2
1114.481	41.69
1117.755	40.64
1121.029	41.36
1124.302	42.22
1127.575	42.91
1130.848	42.19
1134.121	40.74
1137.393	40.93
1140.665	40.44
1143.937	40.38
1147.208	39.71
1150.48	39.71
1153.75	39.77
1157.021	40.79
1160.291	40.84
1163.561	39.62
1166.831	40.9
1170.101	41.78
1173.37	41.77
1176.639	41.86
1179.907	42.2
1183.176	41.75
1186.444	40.87
1189.711	41.04
1192.979	39.79
1196.246	40.59
1199.513	41.05
1202.78	40.27
1206.046	40.27
1209.312	40.85
1212.578	40.73
1215.843	40.63
1219.108	40.24
1222.373	40.98
1225.638	41.33
1228.902	42.11
1232.166	39.2
1235.43	38.7
1238.693	37.63
1241.956	36.74
1245.219	35.87
1248.482	36.94
1251.744	35.65
1255.006	37.91
1258.268	37.28
1261.529	37.22
1264.79	37.7
1268.051	38.93
1271.312	40.21
1274.572	40.43
1277.832	42.09
1281.092	41.84
1284.351	41.93
1287.61	42.53
1290.869	41.89
1294.128	42.1
1297.386	42.59
1300.644	42.41
1303.902	41.79
1307.159	41.98
1310.416	41.66
1313.673	40.94
1316.93	40.85
1320.186	40.38
1323.442	39.8
1326.697	38.23
1329.953	37.17
1333.208	35.45
1336.463	33.56
1339.717	34.14
1342.972	32.9
1346.226	31.59
1349.479	31.04
1352.733	29.59
1355.986	27.29
1359.238	26.78
1362.491	26.94
1365.743	25.34
1368.995	26.49
1372.247	25.38
1375.498	23.48
1378.749	19.33
1382	19.49
1385.251	16.8
1388.501	18.14
1391.751	17.44
1395	15.85
1398.25	15
1401.499	14.21
1404.748	10.94
1407.996	11.29
1411.244	12.71
1414.492	12.59
1417.74	10.81
1420.987	11.23
1424.234	7.94
1427.481	8.41
1430.728	8.89
1433.974	10.37
1437.22	9.13
1440.465	9.6
1443.711	9.83
1446.956	9.73
1450.201	11.12
1453.445	11.98
1456.689	13.38
1459.933	13.91
1463.177	13.63
1466.42	13.96
1469.663	13.05
1472.906	14.36
1476.148	14.9
1479.391	15.46
1482.633	15.53
1485.874	16.69
1489.115	17.23
1492.356	17.76
1495.597	18.01
1498.838	19.37
1502.078	20.02
1505.318	20.74
1508.557	20.92
1511.797	21.65
1515.036	22.73
1518.274	23.65
1521.513	23.36
1524.751	24.12
1527.989	25.04
1531.227	25.49
1534.464	26.26
1537.701	26.67
1540.938	26.99
1544.174	27.91
1547.41	28.32
1550.646	29.02
1553.882	29.32
1557.117	29.88
1560.352	29.99
1563.587	29.88
1566.821	30.41
1570.055	30.74
1573.289	31.4
1576.523	32.02
1579.756	31.68
1582.989	32.42
1586.222	32.15
1589.454	32.52
1592.686	33.45
1595.918	33.08
1599.15	33.76
1602.381	33.75
1605.612	34.37
1608.843	34.01
1612.073	33.77
1615.303	34.76
1618.533	33.93
1621.762	34.47
1624.992	33.97
1628.221	33.39
1631.449	34.13
1634.678	34.52
1637.906	34.39
1641.134	34.16
1644.361	34.41
1647.588	34.69
1650.815	34.51
1654.042	35.39
1657.269	35.1
1660.495	35.83
1663.72	35.97
1666.946	35.73
1670.171	35.34
1673.396	35.53
1676.621	35.41
1679.845	35.54
1683.069	34.84
1686.293	34.6
1689.517	34.47
1692.74	34.36
1695.963	34.19
1699.185	33.99
1702.408	34.03
1705.63	33.89
1708.852	34.02
1712.073	33.28
1715.294	32.96
1718.515	33.66
1721.736	33.59
1724.956	32.93
1728.176	32.69
1731.396	32.32
1734.616	32.37
1737.835	32.04
1741.054	31.18
1744.272	31.71
1747.491	31.99
1750.709	31.95
1753.927	31.28
1757.144	31.37
1760.361	31.34
1763.578	30.9
1766.795	30.94
1770.011	30.81
1773.227	30.63
1776.443	31.01
1779.658	29.59
1782.874	28.85
1786.089	28.36
1789.303	28.4
1792.518	28.13
1795.732	28.36
1798.945	28.59
1802.159	28.38
1805.372	27.87
1808.585	27.89
1811.797	27.97
1815.01	28.33
1818.222	29.28
1821.434	28.25
1824.645	27.43
1827.856	26.93
1831.067	26.14
1834.278	26.28
1837.488	25.9
1840.698	25.36
1843.908	24.86
1847.117	24.56
1850.326	23.12
1853.535	22.83
1856.744	23.19
1859.952	22.16
1863.16	21.18
1866.368	20.4
1869.575	19.09
1872.782	17.14
1875.989	14.65
1879.196	14.05
1882.402	10.92
1885.608	11.06
1888.814	8.4
1892.019	5.11
1895.224	4.39
1898.429	3.19
1901.634	2.03
1904.838	0.33
1908.042	-0.39
1911.246	-0.23
1914.449	-1.4
1917.652	-0.61
1920.855	-1.71
1924.058	-2.48
1927.26	-2.69
1930.462	-3
1933.664	-1.98
1936.865	-2.5
1940.066	-2.52
1943.267	-2.95
1946.467	-2.86
1949.668	-2.88
1952.868	-3.06
1956.067	-3.7
1959.267	-1.36
1962.466	-1.47
1965.665	-0.76
1968.863	-0.76
1972.061	-0.88
1975.259	-0.75
1978.457	-0.87
1981.654	0.2
1984.852	0.12
1988.048	0.38
1991.245	0.2
1994.441	-0.77
1997.637	-0.43
2000.833	0.89
2004.028	-0.86
2007.223	-1.13
2010.418	-0.16
2013.613	0.55
2016.807	-0.54
2020.001	-1.14
2023.194	0.18
2026.388	0.1
2029.581	-0.89
2032.774	-1.51
2035.966	-3.96
2039.158	-2.39
2042.35	-2.88
2045.542	-3.07
2048.733	-3.08
2051.924	-4.18
2055.115	-4.27
2058.306	-5.9
2061.496	-7.02
2064.686	-5.88
2067.875	-3.71
2071.065	-2.41
2074.254	-2.71
2077.442	-3.33
2080.631	-5.53
2083.819	-5.58
2087.007	-4.92
2090.195	-4.11
2093.382	-6.36
2096.569	-5.21
2099.756	-3.9
2102.942	-6.27
2106.128	-7.74
2109.314	-5
2112.5	-3.78
2115.685	-3.87
2118.87	-4.34
2122.055	-2.91
2125.239	-5.65
2128.424	-4.13
2131.608	-4.16
2134.791	-6.29
2137.974	-4.62
2141.157	-3.67
2144.34	-6.34
2147.523	-5.44
2150.705	-4.57
2153.887	-3.6
2157.068	-4.18
2160.25	-4.22
2163.431	-1.4
2166.611	-2.5
2169.792	-1.72
2172.972	-1.1
2176.152	-0.99
2179.331	-3.17
2182.511	-4.54
2185.69	-4.59
2188.868	-9.09
2192.047	-8.39
2195.225	-5.53
2198.403	-13.77
2201.58	-9.85
2204.758	-8.58
2207.935	-12.52
2211.111	-16.72
2214.288	-14.16
2217.464	-12.74
2220.64	-11.99
2223.815	-10.75
2226.991	-11.99
2230.166	-12.81
2233.34	-10.09
2236.515	-14.53
2239.689	-19.39
2242.863	-16.34
2246.036	-14.69
2249.209	-19.72
2252.382	-19.62
2255.555	-23.9
2258.727	-21.77
2261.9	-28.25
2265.071	-28.15
2268.243	-25.01
2271.414	-28.57
2274.585	-29.4
2277.756	-31.16
2280.926	-35.12
2284.096	-30.23
2287.266	-29.73
2290.436	-28.59
2293.605	-30.83
2296.774	-27.47
2299.942	-29.97
2303.111	-30.26
2306.279	-29.16
2309.447	-27.99
2312.614	-29.76
2315.781	-33
2318.948	-33.86
2322.115	-36.4
2325.281	-46.85
2328.447	-42.88
2331.613	-44.82
2334.779	-45.55
2337.944	-53.37
2341.109	-54
2344.274	-53.07
2347.438	-59.21
2350.602	-52.36
2353.766	-61.62
2356.929	-64.98
2360.092	-57.31
2363.255	-62.81
2366.418	-63.12
2369.58	-69.88
2372.742	-51.89
2375.904	-52.84
2379.066	-58.83
2382.227	-48.1
2385.388	-58.41
2388.548	-47.46
2391.709	-43.31
2394.869	-45.4
2398.029	-39.9
2401.188	-42.97
2404.347	-42.3
2407.506	-61.28
2410.665	-47.91
2413.823	-47.47
2416.981	-54.29
2420.139	-44.9
2423.296	-54.35
2426.453	-63.03
2429.61	-59.83
2432.767	-70.76
2435.923	-67.61
2439.079	-58.75
2442.235	-66.7
2445.391	-76.04
2448.546	-72.81
2451.701	-81.1
2454.855	-91.68
2458.009	-70.84
2461.163	-73.35
2464.317	-75.51
2467.471	-74.73
2470.624	-84.3
2473.777	-83.28
2476.929	-64.91
2480.082	-77.88
2483.234	-87.92
2486.385	-87.97
2489.537	-88.26
2492.688	-102.24
2495.839	-96.52
2498.989	-97.08
2502.14	-91.48
2505.29	-80.73
2508.439	-101.62
2511.589	-109.67
2514.738	-103.72
2517.887	-104.77
2521.035	-103.53
2524.183	-99.83
2527.331	-102.7
2530.479	-101.94
2533.627	-105.4
