Data from c_1_hir_il_4n_023_Splice17_16.txt Node
Date: Sat Feb 29 13:19:44 EST 2020
User: sa697716
Spectrometer: FLMS03696
Trigger mode: 0
Integration Time (sec): 3.180400E-1
Scans to average: 20
Electric dark correction enabled: true
Nonlinearity correction enabled: true
Boxcar width: 5
XAxis mode: Wavelengths
Number of Pixels in Spectrum: 2048
>>>>>Begin Spectral Data<<<<<
187.83	96.44
188.298	93.01
188.766	87.62
189.233	83.99
189.701	83.14
190.169	83.89
190.636	77.65
191.104	77.56
191.571	278.78
192.039	359.72
192.506	-117.94
192.974	1611.32
193.441	82.42
193.908	55.05
194.375	95.66
194.842	45.32
195.31	26.04
195.777	-31.23
196.244	10.97
196.711	32.37
197.177	33.69
197.644	32.97
198.111	33.2
198.578	34.29
199.045	35.38
199.511	35.31
199.978	35.87
200.445	35.94
200.911	36.31
201.378	36.47
201.844	36.99
202.31	37.1
202.777	37.22
203.243	37.29
203.709	37.4
204.176	36.36
204.642	36.15
205.108	36.03
205.574	36.37
206.04	36.36
206.506	36.08
206.972	35.56
207.438	34.99
207.903	35.29
208.369	34.78
208.835	33.85
209.301	33.78
209.766	33.2
210.232	32.73
210.697	31.68
211.163	31.16
211.628	30.57
212.094	30.06
212.559	29.6
213.024	28.82
213.49	28.04
213.955	27.9
214.42	27.41
214.885	26.85
215.35	25.91
215.815	24.96
216.28	23.8
216.745	22.76
217.21	21.56
217.675	20.6
218.14	19.34
218.604	18.37
219.069	17.48
219.534	16.73
219.998	16.09
220.463	15.61
220.927	15.22
221.392	14.79
221.856	14.43
222.32	14.07
222.785	13.74
223.249	13.55
223.713	13.34
224.177	13.07
224.642	12.87
225.106	12.64
225.57	12.4
226.034	12.2
226.497	11.99
226.961	11.77
227.425	11.54
227.889	11.35
228.353	11.16
228.816	11.02
229.28	10.83
229.744	10.65
230.207	10.52
230.671	10.38
231.134	10.24
231.597	10.11
232.061	10
232.524	9.91
232.987	9.81
233.45	9.7
233.914	9.57
234.377	9.5
234.84	9.41
235.303	9.31
235.766	9.22
236.229	9.12
236.691	9.03
237.154	8.95
237.617	8.88
238.08	8.79
238.542	8.71
239.005	8.62
239.468	8.51
239.93	8.43
240.393	8.35
240.855	8.28
241.317	8.22
241.78	8.16
242.242	8.07
242.704	7.99
243.166	7.92
243.629	7.85
244.091	7.8
244.553	7.75
245.015	7.69
245.477	7.62
245.939	7.57
246.4	7.49
246.862	7.43
247.324	7.38
247.786	7.34
248.247	7.29
248.709	7.25
249.17	7.21
249.632	7.14
250.093	7.07
250.555	7.02
251.016	6.97
251.477	6.92
251.939	6.88
252.4	6.83
252.861	6.77
253.322	6.73
253.783	6.69
254.244	6.64
254.705	6.61
255.166	6.61
255.627	6.56
256.088	6.51
256.549	6.48
257.009	6.44
257.47	6.4
257.931	6.36
258.391	6.31
258.852	6.26
259.312	6.22
259.773	6.17
260.233	6.12
260.694	6.1
261.154	6.07
261.614	6.03
262.074	5.99
262.534	5.95
262.994	5.92
263.455	5.9
263.915	5.86
264.374	5.83
264.834	5.8
265.294	5.77
265.754	5.73
266.214	5.7
266.673	5.68
267.133	5.66
267.593	5.63
268.052	5.6
268.512	5.58
268.971	5.56
269.431	5.54
269.89	5.52
270.349	5.5
270.809	5.48
271.268	5.47
271.727	5.45
272.186	5.42
272.645	5.41
273.104	5.39
273.563	5.37
274.022	5.35
274.481	5.33
274.94	5.31
275.399	5.28
275.857	5.27
276.316	5.25
276.775	5.22
277.233	5.2
277.692	5.19
278.15	5.16
278.609	5.14
279.067	5.12
279.525	5.1
279.984	5.08
280.442	5.07
280.9	5.05
281.358	5.03
281.816	5.01
282.274	5
282.732	4.99
283.19	4.98
283.648	4.97
284.106	4.95
284.564	4.94
285.021	4.93
285.479	4.93
285.937	4.92
286.394	4.9
286.852	4.89
287.309	4.88
287.767	4.86
288.224	4.85
288.682	4.83
289.139	4.82
289.596	4.79
290.053	4.76
290.511	4.74
290.968	4.72
291.425	4.7
291.882	4.68
292.339	4.65
292.796	4.63
293.252	4.61
293.709	4.59
294.166	4.57
294.623	4.56
295.079	4.55
295.536	4.53
295.992	4.51
296.449	4.5
296.905	4.49
297.362	4.48
297.818	4.46
298.274	4.45
298.731	4.44
299.187	4.43
299.643	4.41
300.099	4.41
300.555	4.4
301.011	4.39
301.467	4.37
301.923	4.37
302.379	4.36
302.835	4.36
303.291	4.34
303.746	4.33
304.202	4.32
304.658	4.31
305.113	4.3
305.569	4.29
306.024	4.28
306.479	4.27
306.935	4.26
307.39	4.26
307.845	4.25
308.301	4.25
308.756	4.25
309.211	4.25
309.666	4.24
310.121	4.24
310.576	4.23
311.031	4.23
311.486	4.24
311.94	4.22
312.395	4.22
312.85	4.21
313.305	4.21
313.759	4.21
314.214	4.2
314.668	4.19
315.123	4.19
315.577	4.18
316.032	4.17
316.486	4.16
316.94	4.15
317.394	4.14
317.849	4.13
318.303	4.13
318.757	4.11
319.211	4.09
319.665	4.08
320.119	4.08
320.572	4.07
321.026	4.06
321.48	4.05
321.934	4.05
322.387	4.05
322.841	4.03
323.295	4.02
323.748	4.01
324.202	4.01
324.655	4
325.108	3.99
325.562	3.98
326.015	3.97
326.468	3.95
326.921	3.94
327.374	3.93
327.827	3.92
328.28	3.92
328.733	3.91
329.186	3.91
329.639	3.91
330.092	3.9
330.545	3.89
330.997	3.9
331.45	3.89
331.903	3.88
332.355	3.89
332.808	3.89
333.26	3.88
333.713	3.89
334.165	3.89
334.617	3.89
335.069	3.89
335.522	3.89
335.974	3.89
336.426	3.9
336.878	3.9
337.33	3.89
337.782	3.89
338.234	3.89
338.686	3.89
339.137	3.89
339.589	3.88
340.041	3.88
340.493	3.87
340.944	3.87
341.396	3.86
341.847	3.84
342.299	3.83
342.75	3.8
343.201	3.79
343.653	3.77
344.104	3.75
344.555	3.74
345.006	3.74
345.457	3.72
345.908	3.72
346.359	3.71
346.81	3.71
347.261	3.71
347.712	3.7
348.163	3.69
348.613	3.68
349.064	3.67
349.515	3.66
349.965	3.64
350.416	3.64
350.866	3.63
351.317	3.63
351.767	3.62
352.217	3.6
352.668	3.6
353.118	3.6
353.568	3.6
354.018	3.61
354.468	3.61
354.918	3.62
355.368	3.63
355.818	3.61
356.268	3.61
356.718	3.61
357.168	3.61
357.617	3.62
358.067	3.62
358.517	3.62
358.966	3.61
359.416	3.62
359.865	3.61
360.315	3.61
360.764	3.62
361.213	3.61
361.663	3.61
362.112	3.61
362.561	3.6
363.01	3.61
363.459	3.6
363.908	3.59
364.357	3.59
364.806	3.58
365.255	3.59
365.703	3.58
366.152	3.59
366.601	3.59
367.05	3.59
367.498	3.58
367.947	3.58
368.395	3.59
368.844	3.59
369.292	3.59
369.74	3.6
370.189	3.59
370.637	3.59
371.085	3.6
371.533	3.6
371.981	3.6
372.429	3.6
372.877	3.61
373.325	3.61
373.773	3.61
374.221	3.62
374.669	3.61
375.116	3.61
375.564	3.61
376.012	3.62
376.459	3.62
376.907	3.63
377.354	3.65
377.801	3.65
378.249	3.67
378.696	3.69
379.143	3.71
379.591	3.73
380.038	3.76
380.485	3.77
380.932	3.78
381.379	3.8
381.826	3.81
382.273	3.83
382.72	3.85
383.166	3.85
383.613	3.87
384.06	3.87
384.506	3.89
384.953	3.9
385.4	3.92
385.846	3.93
386.292	3.95
386.739	3.97
387.185	3.98
387.631	3.99
388.078	4.02
388.524	4.02
388.97	4.04
389.416	4.04
389.862	4.06
390.308	4.07
390.754	4.08
391.2	4.11
391.645	4.13
392.091	4.14
392.537	4.14
392.983	4.16
393.428	4.17
393.874	4.19
394.319	4.2
394.765	4.21
395.21	4.22
395.655	4.24
396.101	4.24
396.546	4.25
396.991	4.27
397.436	4.27
397.881	4.3
398.326	4.32
398.771	4.33
399.216	4.36
399.661	4.38
400.106	4.4
400.551	4.39
400.995	4.39
401.44	4.4
401.885	4.41
402.329	4.42
402.774	4.42
403.218	4.42
403.663	4.41
404.107	4.43
404.551	4.43
404.995	4.43
405.44	4.44
405.884	4.46
406.328	4.46
406.772	4.47
407.216	4.48
407.66	4.47
408.104	4.48
408.547	4.49
408.991	4.47
409.435	4.45
409.879	4.45
410.322	4.47
410.766	4.46
411.209	4.47
411.653	4.45
412.096	4.43
412.54	4.44
412.983	4.43
413.426	4.43
413.869	4.44
414.312	4.46
414.756	4.47
415.199	4.48
415.642	4.49
416.085	4.49
416.527	4.51
416.97	4.54
417.413	4.53
417.856	4.53
418.298	4.52
418.741	4.52
419.184	4.51
419.626	4.5
420.069	4.49
420.511	4.48
420.953	4.48
421.396	4.49
421.838	4.5
422.28	4.52
422.722	4.52
423.164	4.53
423.606	4.53
424.048	4.51
424.49	4.53
424.932	4.54
425.374	4.54
425.816	4.52
426.258	4.5
426.699	4.47
427.141	4.45
427.582	4.44
428.024	4.45
428.465	4.45
428.907	4.47
429.348	4.44
429.789	4.43
430.231	4.42
430.672	4.43
431.113	4.44
431.554	4.46
431.995	4.47
432.436	4.48
432.877	4.46
433.318	4.46
433.759	4.47
434.2	4.48
434.64	4.51
435.081	4.51
435.522	4.51
435.962	4.52
436.403	4.54
436.843	4.55
437.284	4.57
437.724	4.61
438.164	4.63
438.604	4.62
439.045	4.62
439.485	4.61
439.925	4.61
440.365	4.59
440.805	4.58
441.245	4.56
441.685	4.56
442.125	4.54
442.564	4.53
443.004	4.53
443.444	4.55
443.883	4.55
444.323	4.56
444.762	4.59
445.202	4.65
445.641	4.66
446.081	4.7
446.52	4.69
446.959	4.71
447.398	4.74
447.837	4.75
448.276	4.75
448.716	4.76
449.154	4.78
449.593	4.76
450.032	4.76
450.471	4.79
450.91	4.77
451.349	4.78
451.787	4.76
452.226	4.74
452.664	4.72
453.103	4.72
453.541	4.72
453.98	4.71
454.418	4.71
454.856	4.67
455.295	4.65
455.733	4.65
456.171	4.66
456.609	4.66
457.047	4.66
457.485	4.65
457.923	4.65
458.361	4.63
458.798	4.64
459.236	4.64
459.674	4.66
460.111	4.66
460.549	4.65
460.987	4.63
461.424	4.63
461.862	4.62
462.299	4.62
462.736	4.62
463.173	4.62
463.611	4.6
464.048	4.61
464.485	4.6
464.922	4.59
465.359	4.6
465.796	4.58
466.233	4.59
466.67	4.59
467.106	4.58
467.543	4.58
467.98	4.58
468.416	4.6
468.853	4.59
469.29	4.6
469.726	4.61
470.162	4.6
470.599	4.63
471.035	4.64
471.471	4.63
471.907	4.64
472.344	4.64
472.78	4.63
473.216	4.62
473.652	4.61
474.088	4.6
474.523	4.58
474.959	4.58
475.395	4.56
475.831	4.54
476.266	4.54
476.702	4.52
477.138	4.51
477.573	4.5
478.008	4.5
478.444	4.49
478.879	4.49
479.314	4.48
479.75	4.47
480.185	4.46
480.62	4.47
481.055	4.46
481.49	4.46
481.925	4.44
482.36	4.42
482.795	4.4
483.229	4.41
483.664	4.41
484.099	4.41
484.534	4.41
484.968	4.41
485.403	4.4
485.837	4.4
486.271	4.41
486.706	4.41
487.14	4.44
487.574	4.44
488.009	4.44
488.443	4.45
488.877	4.45
489.311	4.45
489.745	4.47
490.179	4.48
490.613	4.49
491.046	4.51
491.48	4.53
491.914	4.54
492.348	4.58
492.781	4.6
493.215	4.61
493.648	4.65
494.082	4.69
494.515	4.71
494.948	4.75
495.382	4.78
495.815	4.81
496.248	4.84
496.681	4.87
497.114	4.9
497.547	4.95
497.98	5
498.413	5.05
498.846	5.09
499.279	5.16
499.711	5.22
500.144	5.28
500.577	5.34
501.009	5.42
501.442	5.51
501.874	5.59
502.306	5.67
502.739	5.75
503.171	5.84
503.603	5.95
504.036	6.05
504.468	6.15
504.9	6.27
505.332	6.4
505.764	6.53
506.196	6.66
506.627	6.8
507.059	6.94
507.491	7.1
507.923	7.26
508.354	7.41
508.786	7.58
509.217	7.75
509.649	7.93
510.08	8.12
510.512	8.31
510.943	8.51
511.374	8.72
511.805	8.94
512.237	9.14
512.668	9.36
513.099	9.59
513.53	9.84
513.961	10.08
514.391	10.32
514.822	10.57
515.253	10.83
515.684	11.09
516.114	11.37
516.545	11.63
516.975	11.91
517.406	12.18
517.836	12.45
518.267	12.73
518.697	13.03
519.127	13.31
519.558	13.59
519.988	13.87
520.418	14.13
520.848	14.4
521.278	14.67
521.708	14.91
522.138	15.19
522.567	15.47
522.997	15.72
523.427	15.97
523.857	16.2
524.286	16.45
524.716	16.67
525.145	16.9
525.575	17.13
526.004	17.36
526.433	17.58
526.863	17.78
527.292	17.98
527.721	18.17
528.15	18.36
528.579	18.54
529.008	18.7
529.437	18.87
529.866	19.01
530.295	19.15
530.724	19.3
531.152	19.43
531.581	19.55
532.01	19.66
532.438	19.77
532.867	19.86
533.295	19.96
533.723	20.07
534.152	20.17
534.58	20.26
535.008	20.33
535.436	20.39
535.865	20.47
536.293	20.54
536.721	20.59
537.149	20.65
537.576	20.69
538.004	20.74
538.432	20.75
538.86	20.78
539.287	20.83
539.715	20.87
540.143	20.91
540.57	20.94
540.998	20.98
541.425	21.04
541.852	21.07
542.28	21.11
542.707	21.15
543.134	21.18
543.561	21.19
543.988	21.21
544.415	21.24
544.842	21.25
545.269	21.27
545.696	21.29
546.123	21.3
546.549	21.33
546.976	21.35
547.403	21.36
547.829	21.4
548.256	21.43
548.682	21.44
549.108	21.45
549.535	21.47
549.961	21.47
550.387	21.47
550.813	21.46
551.24	21.44
551.666	21.44
552.092	21.42
552.518	21.4
552.943	21.38
553.369	21.34
553.795	21.32
554.221	21.28
554.646	21.22
555.072	21.18
555.498	21.14
555.923	21.09
556.349	21.01
556.774	20.94
557.199	20.88
557.625	20.79
558.05	20.73
558.475	20.65
558.9	20.56
559.325	20.48
559.75	20.36
560.175	20.26
560.6	20.14
561.025	20.01
561.449	19.88
561.874	19.74
562.299	19.6
562.723	19.47
563.148	19.32
563.572	19.16
563.997	19.01
564.421	18.85
564.846	18.68
565.27	18.51
565.694	18.36
566.118	18.2
566.542	18.06
566.966	17.91
567.39	17.72
567.814	17.55
568.238	17.38
568.662	17.21
569.086	17.05
569.509	16.9
569.933	16.73
570.357	16.55
570.78	16.39
571.204	16.2
571.627	16.03
572.05	15.88
572.474	15.72
572.897	15.58
573.32	15.43
573.743	15.28
574.166	15.13
574.589	14.98
575.012	14.86
575.435	14.71
575.858	14.61
576.281	14.48
576.704	14.35
577.126	14.23
577.549	14.13
577.972	14.02
578.394	13.91
578.817	13.82
579.239	13.74
579.661	13.64
580.084	13.57
580.506	13.46
580.928	13.36
581.35	13.26
581.772	13.19
582.194	13.09
582.616	13.03
583.038	12.96
583.46	12.89
583.882	12.81
584.303	12.74
584.725	12.66
585.147	12.58
585.568	12.53
585.99	12.49
586.411	12.42
586.833	12.36
587.254	12.3
587.675	12.23
588.096	12.16
588.518	12.11
588.939	12.07
589.36	12.03
589.781	12.02
590.202	11.97
590.623	11.92
591.043	11.85
591.464	11.82
591.885	11.78
592.305	11.76
592.726	11.72
593.147	11.69
593.567	11.65
593.987	11.63
594.408	11.57
594.828	11.56
595.248	11.53
595.669	11.51
596.089	11.49
596.509	11.44
596.929	11.4
597.349	11.37
597.769	11.32
598.189	11.31
598.608	11.27
599.028	11.24
599.448	11.21
599.867	11.17
600.287	11.13
600.706	11.09
601.126	11.05
601.545	11
601.965	10.96
602.384	10.92
602.803	10.85
603.222	10.8
603.641	10.73
604.061	10.67
604.48	10.61
604.898	10.54
605.317	10.48
605.736	10.41
606.155	10.35
606.574	10.29
606.992	10.23
607.411	10.17
607.829	10.06
608.248	10.01
608.666	9.94
609.085	9.87
609.503	9.81
609.921	9.73
610.339	9.66
610.758	9.59
611.176	9.52
611.594	9.44
612.012	9.36
612.43	9.34
612.847	9.27
613.265	9.2
613.683	9.14
614.101	9.07
614.518	9.01
614.936	8.94
615.353	8.88
615.771	8.82
616.188	8.76
616.606	8.72
617.023	8.66
617.44	8.6
617.857	8.54
618.274	8.48
618.691	8.44
619.108	8.39
619.525	8.37
619.942	8.34
620.359	8.3
620.776	8.28
621.192	8.25
621.609	8.22
622.026	8.19
622.442	8.16
622.859	8.16
623.275	8.15
623.691	8.14
624.108	8.12
624.524	8.1
624.94	8.09
625.356	8.08
625.772	8.07
626.188	8.06
626.604	8.05
627.02	8.05
627.436	8.05
627.852	8.04
628.268	8.02
628.683	8
629.099	8
629.514	7.97
629.93	7.96
630.345	7.93
630.761	7.91
631.176	7.88
631.591	7.85
632.007	7.81
632.422	7.79
632.837	7.76
633.252	7.73
633.667	7.68
634.082	7.64
634.497	7.57
634.911	7.52
635.326	7.45
635.741	7.39
636.155	7.34
636.57	7.28
636.984	7.19
637.399	7.09
637.813	7
638.228	6.93
638.642	6.85
639.056	6.8
639.47	6.72
639.884	6.65
640.298	6.58
640.712	6.5
641.126	6.4
641.54	6.33
641.954	6.29
642.368	6.23
642.781	6.15
643.195	6.07
643.609	6
644.022	5.94
644.436	5.87
644.849	5.81
645.262	5.75
645.676	5.69
646.089	5.63
646.502	5.57
646.915	5.51
647.328	5.46
647.741	5.41
648.154	5.38
648.567	5.35
648.98	5.32
649.393	5.28
649.805	5.25
650.218	5.22
650.631	5.2
651.043	5.18
651.456	5.16
651.868	5.15
652.28	5.14
652.693	5.09
653.105	5.05
653.517	5.01
653.929	5
654.341	4.97
654.753	4.93
655.165	4.91
655.577	4.86
655.989	4.81
656.401	4.77
656.813	4.71
657.224	4.67
657.636	4.64
658.047	4.59
658.459	4.54
658.87	4.5
659.282	4.48
659.693	4.43
660.104	4.4
660.515	4.37
660.926	4.34
661.338	4.33
661.749	4.29
662.159	4.26
662.57	4.25
662.981	4.23
663.392	4.19
663.803	4.15
664.213	4.13
664.624	4.09
665.035	4.08
665.445	4.06
665.855	4.04
666.266	4.04
666.676	4.03
667.086	4.01
667.497	3.98
667.907	3.98
668.317	3.97
668.727	3.97
669.137	3.98
669.547	3.98
669.956	3.98
670.366	3.99
670.776	3.99
671.186	4
671.595	4.03
672.005	4.07
672.414	4.08
672.824	4.11
673.233	4.15
673.642	4.16
674.052	4.18
674.461	4.2
674.87	4.23
675.279	4.26
675.688	4.26
676.097	4.28
676.506	4.3
676.915	4.32
677.323	4.35
677.732	4.37
678.141	4.41
678.549	4.45
678.958	4.48
679.366	4.5
679.775	4.53
680.183	4.58
680.592	4.62
681	4.65
681.408	4.69
681.816	4.73
682.224	4.77
682.632	4.83
683.04	4.88
683.448	4.94
683.856	5.03
684.264	5.1
684.671	5.2
685.079	5.3
685.487	5.43
685.894	5.56
686.302	5.71
686.709	5.87
687.116	6.04
687.524	6.24
687.931	6.44
688.338	6.66
688.745	6.92
689.152	7.2
689.559	7.5
689.966	7.82
690.373	8.18
690.78	8.55
691.187	8.94
691.593	9.36
692	9.79
692.407	10.26
692.813	10.74
693.22	11.24
693.626	11.73
694.032	12.25
694.439	12.81
694.845	13.36
695.251	13.91
695.657	14.49
696.063	15.08
696.469	15.69
696.875	16.27
697.281	16.89
697.687	17.52
698.093	18.15
698.498	18.78
698.904	19.39
699.31	20.02
699.715	20.65
700.12	21.26
700.526	21.88
700.931	22.49
701.337	23.1
701.742	23.69
702.147	24.27
702.552	24.86
702.957	25.45
703.362	26.05
703.767	26.62
704.172	27.21
704.577	27.8
704.981	28.35
705.386	28.89
705.791	29.46
706.195	30.04
706.6	30.58
707.004	31.14
707.408	31.7
707.813	32.22
708.217	32.75
708.621	33.27
709.025	33.78
709.43	34.26
709.834	34.8
710.237	35.29
710.641	35.79
711.045	36.29
711.449	36.78
711.853	37.21
712.256	37.7
712.66	38.18
713.064	38.65
713.467	39.09
713.87	39.57
714.274	40.04
714.677	40.48
715.08	40.9
715.484	41.37
715.887	41.8
716.29	42.24
716.693	42.65
717.096	43.06
717.499	43.47
717.901	43.88
718.304	44.25
718.707	44.63
719.109	45.03
719.512	45.43
719.915	45.75
720.317	46.12
720.719	46.46
721.122	46.8
721.524	47.14
721.926	47.45
722.328	47.79
722.731	48.15
723.133	48.48
723.535	48.8
723.937	49.07
724.338	49.36
724.74	49.64
725.142	49.87
725.544	50.13
725.945	50.37
726.347	50.66
726.748	50.82
727.15	51.02
727.551	51.26
727.952	51.44
728.354	51.68
728.755	51.9
729.156	52.11
729.557	52.37
729.958	52.56
730.359	52.76
730.76	52.88
731.161	53.08
731.562	53.29
731.962	53.43
732.363	53.56
732.763	53.7
733.164	53.8
733.564	53.9
733.965	54.03
734.365	54.15
734.766	54.27
735.166	54.38
735.566	54.49
735.966	54.58
736.366	54.67
736.766	54.8
737.166	54.9
737.566	55.02
737.966	55.14
738.365	55.24
738.765	55.32
739.165	55.39
739.564	55.5
739.964	55.57
740.363	55.66
740.763	55.72
741.162	55.76
741.561	55.83
741.96	55.93
742.36	55.99
742.759	56.03
743.158	56.09
743.557	56.13
743.955	56.2
744.354	56.27
744.753	56.32
745.152	56.39
745.55	56.46
745.949	56.5
746.348	56.51
746.746	56.54
747.144	56.59
747.543	56.66
747.941	56.74
748.339	56.8
748.737	56.88
749.136	56.89
749.534	56.94
749.932	56.96
750.33	57.02
750.727	57.05
751.125	57.06
751.523	57.06
751.921	57.08
752.318	57.09
752.716	57.07
753.113	57.05
753.511	57.03
753.908	57
754.305	56.98
754.703	56.96
755.1	56.94
755.497	56.96
755.894	56.98
756.291	56.95
756.688	56.93
757.085	56.94
757.482	56.95
757.878	56.98
758.275	57
758.672	57.02
759.068	57.01
759.465	57.01
759.861	57.02
760.258	56.99
760.654	56.99
761.05	57
761.447	57
761.843	57
762.239	56.98
762.635	56.97
763.031	56.95
763.427	56.94
763.822	56.92
764.218	56.91
764.614	56.91
765.01	56.9
765.405	56.89
765.801	56.87
766.196	56.84
766.592	56.86
766.987	56.9
767.382	56.91
767.778	56.9
768.173	56.88
768.568	56.88
768.963	56.85
769.358	56.86
769.753	56.88
770.148	56.88
770.542	56.85
770.937	56.83
771.332	56.79
771.726	56.77
772.121	56.75
772.515	56.77
772.91	56.73
773.304	56.74
773.699	56.75
774.093	56.7
774.487	56.67
774.881	56.72
775.275	56.71
775.669	56.7
776.063	56.68
776.457	56.68
776.851	56.65
777.245	56.67
777.638	56.68
778.032	56.69
778.425	56.72
778.819	56.74
779.212	56.69
779.606	56.69
779.999	56.67
780.392	56.68
780.786	56.69
781.179	56.72
781.572	56.71
781.965	56.72
782.358	56.67
782.751	56.67
783.143	56.67
783.536	56.69
783.929	56.71
784.322	56.74
784.714	56.76
785.107	56.79
785.499	56.77
785.891	56.78
786.284	56.75
786.676	56.77
787.068	56.76
787.46	56.72
787.852	56.73
788.245	56.72
788.636	56.68
789.028	56.64
789.42	56.6
789.812	56.59
790.204	56.57
790.595	56.56
790.987	56.54
791.378	56.52
791.77	56.54
792.161	56.55
792.553	56.51
792.944	56.56
793.335	56.62
793.726	56.57
794.117	56.56
794.508	56.57
794.899	56.59
795.29	56.63
795.681	56.61
796.072	56.63
796.463	56.61
796.853	56.62
797.244	56.58
797.634	56.57
798.025	56.64
798.415	56.7
798.806	56.71
799.196	56.75
799.586	56.76
799.976	56.78
800.366	56.78
800.756	56.8
801.146	56.81
801.536	56.84
801.926	56.81
802.316	56.83
802.706	56.82
803.095	56.8
803.485	56.79
803.874	56.77
804.264	56.81
804.653	56.79
805.043	56.77
805.432	56.74
805.821	56.73
806.21	56.75
806.599	56.75
806.988	56.75
807.377	56.76
807.766	56.75
808.155	56.77
808.544	56.78
808.933	56.77
809.321	56.84
809.71	56.92
810.098	56.89
810.487	56.89
810.875	56.87
811.264	56.89
811.652	56.92
812.04	56.91
812.428	56.9
812.816	56.88
813.204	56.89
813.592	56.87
813.98	56.83
814.368	56.86
814.756	56.88
815.144	56.93
815.531	56.9
815.919	56.87
816.306	56.87
816.694	56.89
817.081	56.89
817.469	56.93
817.856	56.96
818.243	56.97
818.63	56.99
819.017	57
819.404	56.97
819.791	56.95
820.178	56.99
820.565	57
820.952	56.99
821.339	56.98
821.725	56.99
822.112	56.96
822.498	56.99
822.885	56.99
823.271	57
823.657	57
824.044	57.02
824.43	57.04
824.816	57.05
825.202	57.07
825.588	57.09
825.974	57.09
826.36	57.11
826.746	57.14
827.132	57.11
827.517	57.11
827.903	57.12
828.289	57.14
828.674	57.12
829.06	57.11
829.445	57.13
829.83	57.15
830.216	57.14
830.601	57.11
830.986	57.08
831.371	57.12
831.756	57.08
832.141	57.09
832.526	57.08
832.911	57.13
833.295	57.16
833.68	57.18
834.065	57.21
834.449	57.19
834.834	57.21
835.218	57.24
835.603	57.23
835.987	57.26
836.371	57.28
836.755	57.3
837.139	57.3
837.524	57.27
837.908	57.21
838.291	57.19
838.675	57.23
839.059	57.23
839.443	57.23
839.827	57.24
840.21	57.27
840.594	57.24
840.977	57.2
841.361	57.16
841.744	57.19
842.127	57.19
842.511	57.15
842.894	57.15
843.277	57.18
843.66	57.17
844.043	57.17
844.426	57.15
844.809	57.17
845.191	57.21
845.574	57.24
845.957	57.21
846.339	57.21
846.722	57.25
847.104	57.23
847.487	57.24
847.869	57.22
848.252	57.18
848.634	57.21
849.016	57.21
849.398	57.2
849.78	57.19
850.162	57.21
850.544	57.23
850.926	57.2
851.307	57.22
851.689	57.18
852.071	57.2
852.452	57.22
852.834	57.18
853.215	57.15
853.597	57.17
853.978	57.13
854.359	57.1
854.741	57.09
855.122	57.11
855.503	57.09
855.884	57.08
856.265	57.05
856.646	57.04
857.026	57.06
857.407	57.04
857.788	57.04
858.169	57.06
858.549	57.12
858.93	57.11
859.31	57.1
859.69	57.11
860.071	57.14
860.451	57.13
860.831	57.14
861.211	57.13
861.591	57.12
861.971	57.1
862.351	57.12
862.731	57.06
863.111	57.06
863.491	57.09
863.87	57.06
864.25	57.03
864.629	57.04
865.009	57.04
865.388	57.02
865.768	57.05
866.147	57.05
866.526	57.06
866.905	57.06
867.284	57.07
867.663	57.04
868.042	57.05
868.421	57.04
868.8	57.03
869.179	57.02
869.558	57.02
869.936	57.01
870.315	57.02
870.693	56.99
871.072	56.98
871.45	56.96
871.828	56.96
872.207	56.95
872.585	56.98
872.963	56.99
873.341	56.97
873.719	56.96
874.097	56.97
874.475	57
874.853	57
875.23	57.01
875.608	57
875.986	56.99
876.363	57.01
876.741	57.01
877.118	57
877.495	57.02
877.873	57.05
878.25	57.02
878.627	56.98
879.004	56.99
879.381	57.02
879.758	57.02
880.135	57.04
880.512	57.06
880.889	57.06
881.265	57.09
881.642	57.09
882.019	57.08
882.395	57.09
882.772	57.13
883.148	57.11
883.524	57.11
883.901	57.14
884.277	57.15
884.653	57.15
885.029	57.13
885.405	57.1
885.781	57.1
886.157	57.13
886.532	57.14
886.908	57.16
887.284	57.2
887.659	57.18
888.035	57.16
888.411	57.14
888.786	57.11
889.161	57.11
889.537	57.14
889.912	57.1
890.287	57.06
890.662	57.05
891.037	57
891.412	56.94
891.787	56.93
892.162	56.9
892.536	56.9
892.911	56.89
893.286	56.86
893.66	56.84
894.035	56.87
894.409	56.88
894.784	56.87
895.158	56.87
895.532	56.88
895.906	56.83
896.281	56.84
896.655	56.83
897.029	56.82
897.402	56.82
897.776	56.82
898.15	56.78
898.524	56.75
898.898	56.7
899.271	56.69
899.645	56.7
900.018	56.71
900.392	56.71
900.765	56.72
901.138	56.7
901.511	56.7
901.884	56.7
902.258	56.7
902.631	56.72
903.003	56.73
903.376	56.72
903.749	56.71
904.122	56.71
904.495	56.68
904.867	56.68
905.24	56.68
905.612	56.65
905.985	56.6
906.357	56.56
906.729	56.52
907.102	56.52
907.474	56.53
907.846	56.51
908.218	56.48
908.59	56.47
908.962	56.41
909.334	56.39
909.705	56.4
910.077	56.38
910.449	56.4
910.82	56.39
911.192	56.35
911.563	56.29
911.935	56.25
912.306	56.26
912.677	56.26
913.048	56.24
913.419	56.25
913.79	56.25
914.161	56.24
914.532	56.25
914.903	56.22
915.274	56.25
915.645	56.29
916.015	56.32
916.386	56.28
916.756	56.27
917.127	56.27
917.497	56.22
917.868	56.18
918.238	56.17
918.608	56.16
918.978	56.16
919.348	56.12
919.718	56.09
920.088	56.07
920.458	56.12
920.828	56.15
921.198	56.19
921.567	56.21
921.937	56.24
922.306	56.22
922.676	56.22
923.045	56.22
923.415	56.28
923.784	56.33
924.153	56.3
924.522	56.25
924.891	56.2
925.26	56.14
925.629	56.12
925.998	56.1
926.367	56.1
926.736	56.09
927.104	56.11
927.473	56.07
927.842	56
928.21	56.07
928.578	56.02
928.947	56
929.315	56.01
929.683	56.07
930.051	56.04
930.42	56.09
930.788	56.07
931.156	56.01
931.523	56
931.891	55.98
932.259	55.91
932.627	55.86
932.994	55.86
933.362	55.8
933.729	55.72
934.097	55.68
934.464	55.58
934.831	55.54
935.199	55.53
935.566	55.41
935.933	55.41
936.3	55.28
936.667	55.26
937.034	55.17
937.401	55.14
937.767	55.1
938.134	55.03
938.501	54.96
938.867	54.97
939.234	55
939.6	54.99
939.967	54.93
940.333	55.11
940.699	55.23
941.065	55.31
941.431	55.41
941.798	55.45
942.163	55.65
942.529	55.74
942.895	55.72
943.261	55.67
943.627	55.8
943.992	55.92
944.358	55.87
944.723	55.82
945.089	55.86
945.454	55.85
945.82	55.86
946.185	55.86
946.55	55.9
946.915	55.94
947.28	55.93
947.645	55.95
948.01	55.91
948.375	56
948.74	55.96
949.104	55.94
949.469	55.86
949.834	55.86
950.198	55.71
950.562	55.63
950.927	55.53
951.291	55.51
951.655	55.5
952.02	55.45
952.384	55.41
952.748	55.43
953.112	55.4
953.476	55.4
953.839	55.37
954.203	55.36
954.567	55.42
954.931	55.49
955.294	55.44
955.658	55.32
956.021	55.28
956.385	55.33
956.748	55.28
957.111	55.28
957.474	55.28
957.837	55.32
958.2	55.33
958.563	55.25
958.926	55.11
959.289	55.12
959.652	55.16
960.015	55.2
960.377	55.07
960.74	55.02
961.102	55.01
961.465	55.08
961.827	54.9
962.189	54.85
962.552	54.83
962.914	54.85
963.276	54.78
963.638	54.73
964	54.64
964.362	54.61
964.724	54.64
965.085	54.66
965.447	54.51
965.809	54.53
966.17	54.63
966.532	54.66
966.893	54.66
967.255	54.74
967.616	54.79
967.977	54.84
968.338	54.76
968.699	54.65
969.061	54.56
969.421	54.63
969.782	54.68
970.143	54.62
970.504	54.54
970.865	54.49
971.225	54.38
971.586	54.37
971.946	54.37
972.307	54.46
972.667	54.63
973.027	54.7
973.388	54.67
973.748	54.62
974.108	54.56
974.468	54.55
974.828	54.6
975.188	54.66
975.548	54.67
975.907	54.6
976.267	54.5
976.627	54.44
976.986	54.39
977.346	54.41
977.705	54.41
978.064	54.39
978.424	54.47
978.783	54.43
979.142	54.3
979.501	54.21
979.86	54.28
980.219	54.2
980.578	54.2
980.937	54.25
981.296	54.21
981.654	54.26
982.013	54.34
982.371	54.31
982.73	54.36
983.088	54.39
983.447	54.46
983.805	54.43
984.163	54.58
984.521	54.44
984.879	54.4
985.237	54.48
985.595	54.43
985.953	54.38
986.311	54.41
986.669	54.41
987.026	54.53
987.384	54.52
987.741	54.49
988.099	54.5
988.456	54.69
988.814	54.64
989.171	54.54
989.528	54.52
989.885	54.51
990.242	54.48
990.599	54.48
990.956	54.36
991.313	54.36
991.67	54.36
992.027	54.32
992.383	54.16
992.74	54.11
993.096	54.05
993.453	54.08
993.809	54.22
994.165	54.22
994.522	54.18
994.878	54.18
995.234	54.09
995.59	54.01
995.946	54.01
996.302	53.97
996.658	54.03
997.013	54.05
997.369	54.03
997.725	53.93
998.08	53.84
998.436	53.95
998.791	54.05
999.147	54.1
999.502	54.07
999.857	54.07
1000.212	54.06
1000.567	54.05
1000.922	54.18
1001.277	54.16
1001.632	54.16
1001.987	54.21
1002.342	54.22
1002.696	54.25
1003.051	54.1
1003.406	54.23
1003.76	54.07
1004.114	54.16
1004.469	53.99
1004.823	53.98
1005.177	54.08
1005.531	53.9
1005.885	53.91
1006.239	53.78
1006.593	53.53
1006.947	53.67
1007.301	53.73
1007.655	53.84
1008.008	53.75
1008.362	53.78
1008.715	53.47
1009.069	53.19
1009.422	53.19
1009.776	52.98
1010.129	52.81
1010.482	53.04
1010.835	53.01
1011.188	52.75
1011.541	52.51
1011.894	52.47
1012.247	52.43
1012.6	52.53
1012.952	52.59
1013.305	52.74
1013.657	52.73
1014.01	52.79
1014.362	52.67
1014.715	52.64
1015.067	52.61
1015.419	52.99
1015.771	53.22
1016.123	53.49
1016.475	53.62
1016.827	53.82
1017.179	53.88
1017.531	54.06
1017.883	54.31
1018.234	54.3
1018.586	54.31
1018.938	54.37
1019.289	54.08
1019.64	53.94
1019.992	53.94
1020.343	53.81
1020.694	53.67
1021.045	53.47
1021.396	53.41
1021.747	53.12
1022.098	53.19
1022.449	53.2
1022.8	53.3
1023.151	53.33
1023.501	53.46
1023.852	53.16
1024.202	53.31
1024.553	53.14
1024.903	53.11
1025.253	53.07
1025.604	53.34
1025.954	53.06
1026.304	53.26
1026.654	53.4
1027.004	53.54
1027.354	53.44
1027.703	53.49
1028.053	53.15
1028.403	53.38
1028.753	53.82
1029.102	53.64
1029.452	53.26
1029.801	53.18
1030.15	52.94
1030.499	52.73
897.758	79.64
901.051	93.2
904.343	97.45
907.636	96.9
910.928	98.01
914.22	98.34
917.511	95.58
920.803	98.37
924.094	97.18
927.384	100.34
930.675	96.78
933.965	99.04
937.255	94.52
940.544	90.19
943.834	83.81
947.123	83.84
950.411	81.97
953.7	82.36
956.988	81.23
960.276	76.87
963.563	78.96
966.851	75.56
970.138	76.26
973.424	73.73
976.711	73.02
979.997	74.61
983.283	72.87
986.568	71.67
989.853	71.03
993.138	69.75
996.423	71.22
999.708	68.77
1002.992	69.19
1006.275	68.94
1009.559	70.04
1012.842	69.92
1016.125	69.47
1019.408	68.58
1022.69	70.03
1025.972	71.46
1029.254	70.39
1032.536	70.12
1035.817	68.91
1039.098	69.08
1042.379	69.16
1045.659	67.25
1048.939	67.08
1052.219	66.43
1055.498	66.69
1058.778	65.41
1062.057	64.56
1065.335	65.48
1068.614	63.41
1071.892	64.01
1075.17	62.75
1078.447	62.37
1081.724	63.82
1085.001	63.29
1088.278	62.75
1091.554	61.84
1094.83	62.58
1098.106	61.94
1101.382	62.25
1104.657	63.84
1107.932	62.89
1111.206	64.02
1114.481	64.18
1117.755	62.65
1121.029	62.39
1124.302	62.55
1127.575	63.24
1130.848	62.33
1134.121	61.78
1137.393	60.95
1140.665	59.87
1143.937	59.42
1147.208	58.52
1150.48	57.64
1153.75	58
1157.021	57.98
1160.291	58.17
1163.561	56.89
1166.831	57.67
1170.101	57.67
1173.37	57.96
1176.639	57.83
1179.907	58.2
1183.176	58.26
1186.444	58
1189.711	57.33
1192.979	57.6
1196.246	58.37
1199.513	58.03
1202.78	57.4
1206.046	57.89
1209.312	57.24
1212.578	57.71
1215.843	58.42
1219.108	57.5
1222.373	58.19
1225.638	58.87
1228.902	59.25
1232.166	58.18
1235.43	57.91
1238.693	59.24
1241.956	58.35
1245.219	59.85
1248.482	59.79
1251.744	58.73
1255.006	61.5
1258.268	59.72
1261.529	60.03
1264.79	60.08
1268.051	59.76
1271.312	61.68
1274.572	60.23
1277.832	61.01
1281.092	60.01
1284.351	60.18
1287.61	60.44
1290.869	58.39
1294.128	59.12
1297.386	58.73
1300.644	57.94
1303.902	58
1307.159	56.6
1310.416	56.67
1313.673	56.63
1316.93	56.76
1320.186	57.18
1323.442	56.35
1326.697	57.46
1329.953	56.38
1333.208	55.53
1336.463	56.54
1339.717	56.86
1342.972	57.24
1346.226	57.68
1349.479	57.66
1352.733	58.07
1355.986	56.18
1359.238	57.14
1362.491	56.71
1365.743	57.48
1368.995	58.96
1372.247	55.15
1375.498	53.88
1378.749	54
1382	53.91
1385.251	51.34
1388.501	50.14
1391.751	50.36
1395	49.53
1398.25	48.66
1401.499	47.85
1404.748	45.64
1407.996	48.18
1411.244	48.99
1414.492	47.97
1417.74	43.43
1420.987	43.34
1424.234	43.54
1427.481	40.74
1430.728	40.18
1433.974	39.34
1437.22	38.39
1440.465	37.56
1443.711	35.46
1446.956	34.78
1450.201	34.8
1453.445	34.44
1456.689	34.43
1459.933	33.7
1463.177	32.56
1466.42	31.98
1469.663	32.04
1472.906	32.09
1476.148	31.89
1479.391	31.98
1482.633	31.8
1485.874	31.9
1489.115	32.85
1492.356	32.38
1495.597	32.6
1498.838	34.02
1502.078	34.54
1505.318	34.44
1508.557	34.07
1511.797	35.01
1515.036	36.15
1518.274	35.68
1521.513	35.75
1524.751	35.93
1527.989	36.82
1531.227	36.65
1534.464	37.3
1537.701	37.13
1540.938	37.3
1544.174	37.76
1547.41	37.86
1550.646	37.9
1553.882	39.06
1557.117	39.54
1560.352	39.53
1563.587	39.77
1566.821	40.07
1570.055	40.15
1573.289	41.11
1576.523	41.07
1579.756	41.35
1582.989	41.6
1586.222	41.71
1589.454	41.44
1592.686	41.81
1595.918	41.94
1599.15	42.14
1602.381	42.24
1605.612	42.67
1608.843	42.13
1612.073	42.73
1615.303	43.14
1618.533	43.11
1621.762	43.34
1624.992	43.09
1628.221	42.96
1631.449	43.33
1634.678	43.48
1637.906	44.01
1641.134	43.97
1644.361	44.08
1647.588	44.42
1650.815	44.44
1654.042	44.76
1657.269	44.28
1660.495	45.15
1663.72	44.79
1666.946	44.89
1670.171	44.96
1673.396	44.55
1676.621	44.5
1679.845	45.28
1683.069	44.22
1686.293	43.79
1689.517	44.02
1692.74	43.93
1695.963	44.03
1699.185	44.09
1702.408	43.51
1705.63	43.64
1708.852	43.71
1712.073	43.38
1715.294	42.75
1718.515	43.56
1721.736	43.55
1724.956	42.97
1728.176	43.13
1731.396	42.74
1734.616	43.22
1737.835	43.33
1741.054	42.48
1744.272	43.04
1747.491	42.98
1750.709	42.68
1753.927	42.45
1757.144	42.38
1760.361	42.21
1763.578	41.91
1766.795	41.91
1770.011	41.68
1773.227	41.67
1776.443	42.06
1779.658	41.13
1782.874	40.81
1786.089	40.52
1789.303	40.47
1792.518	41.02
1795.732	40.8
1798.945	41.81
1802.159	41.65
1805.372	41.41
1808.585	41.27
1811.797	41.81
1815.01	41.62
1818.222	42.52
1821.434	42.08
1824.645	41.94
1827.856	41.48
1831.067	41.14
1834.278	41.06
1837.488	40.91
1840.698	40.42
1843.908	40.36
1847.117	39.92
1850.326	39.45
1853.535	39.52
1856.744	39.14
1859.952	38.36
1863.16	37.4
1866.368	37.72
1869.575	35.61
1872.782	34.49
1875.989	32.61
1879.196	32.51
1882.402	29.76
1885.608	30.06
1888.814	27.35
1892.019	26.13
1895.224	24.64
1898.429	23.58
1901.634	22.34
1904.838	21.55
1908.042	21.1
1911.246	21.31
1914.449	20.09
1917.652	20.09
1920.855	18.59
1924.058	18.44
1927.26	17.62
1930.462	17.81
1933.664	18.87
1936.865	18.32
1940.066	17.56
1943.267	16.92
1946.467	16.95
1949.668	15.82
1952.868	16.44
1956.067	16.54
1959.267	17.98
1962.466	17.99
1965.665	18.43
1968.863	18.98
1972.061	18.34
1975.259	19.8
1978.457	20.25
1981.654	20.76
1984.852	22.28
1988.048	22.64
1991.245	23.46
1994.441	23.12
1997.637	24
2000.833	25.77
2004.028	24.63
2007.223	26.4
2010.418	27.18
2013.613	28.49
2016.807	29.4
2020.001	28.22
2023.194	30.89
2026.388	30.79
2029.581	32.14
2032.774	32.59
2035.966	32.7
2039.158	34.79
2042.35	34.26
2045.542	34.5
2048.733	36.63
2051.924	33.49
2055.115	36.38
2058.306	35.45
2061.496	35.68
2064.686	35.52
2067.875	37.01
2071.065	39.19
2074.254	36.83
2077.442	38.93
2080.631	39.52
2083.819	38.63
2087.007	43.7
2090.195	44.09
2093.382	41.14
2096.569	42.11
2099.756	45.55
2102.942	46.36
2106.128	45.06
2109.314	49.2
2112.5	49.36
2115.685	47.42
2118.87	46.82
2122.055	47.29
2125.239	46.15
2128.424	49.31
2131.608	47.22
2134.791	44.05
2137.974	44.15
2141.157	45.44
2144.34	44.19
2147.523	45
2150.705	46.19
2153.887	49.02
2157.068	49.26
2160.25	48.65
2163.431	49.65
2166.611	51.86
2169.792	54.13
2172.972	55.57
2176.152	57.28
2179.331	56.99
2182.511	57.04
2185.69	59.19
2188.868	55.56
2192.047	55.09
2195.225	60.38
2198.403	55.6
2201.58	55.45
2204.758	58.65
2207.935	58.37
2211.111	53.07
2214.288	55.38
2217.464	55.65
2220.64	56.59
2223.815	57.56
2226.991	60.66
2230.166	59.72
2233.34	62.46
2236.515	62.28
2239.689	59.4
2242.863	61.1
2246.036	62.2
2249.209	60.14
2252.382	63.33
2255.555	63.41
2258.727	65.92
2261.9	62.68
2265.071	63.43
2268.243	66.24
2271.414	66.38
2274.585	66.26
2277.756	67.59
2280.926	66.27
2284.096	69.44
2287.266	68.43
2290.436	65.82
2293.605	68.21
2296.774	73.39
2299.942	70.72
2303.111	72.4
2306.279	77.02
2309.447	78.08
2312.614	73.83
2315.781	72.77
2318.948	78.36
2322.115	79.57
2325.281	79.23
2328.447	71.32
2331.613	74.42
2334.779	77.28
2337.944	73.8
2341.109	74.32
2344.274	73.88
2347.438	75.23
2350.602	83.25
2353.766	81.69
2356.929	80.03
2360.092	86.75
2363.255	94.82
2366.418	88.14
2369.58	85.4
2372.742	100.64
2375.904	98.08
2379.066	102.28
2382.227	109.23
2385.388	105.46
2388.548	102.08
2391.709	102.34
2394.869	105.59
2398.029	109.21
2401.188	115.04
2404.347	116.27
2407.506	106.28
2410.665	107.31
2413.823	108.25
2416.981	110.01
2420.139	107
2423.296	111
2426.453	121.65
2429.61	110.24
2432.767	111.23
2435.923	113.5
2439.079	117.47
2442.235	123.17
2445.391	124.82
2448.546	124.92
2451.701	127.68
2454.855	137.84
2458.009	132.11
2461.163	121.67
2464.317	129.21
2467.471	128.21
2470.624	130.89
2473.777	127.84
2476.929	130.97
2480.082	130.88
2483.234	133.09
2486.385	133.14
2489.537	137.94
2492.688	148.19
2495.839	149.67
2498.989	155.45
2502.14	151.49
2505.29	139.54
2508.439	162.39
2511.589	156.66
2514.738	155.93
2517.887	156.01
2521.035	145.53
2524.183	138.61
2527.331	130.66
2530.479	130.06
2533.627	130.26
