Data from c_1_dec_ct_2n_035_Splice17_04.txt Node
Date: Sat Feb 29 13:25:17 EST 2020
User: sa697716
Spectrometer: FLMS03696
Trigger mode: 0
Integration Time (sec): 3.180400E-1
Scans to average: 20
Electric dark correction enabled: true
Nonlinearity correction enabled: true
Boxcar width: 5
XAxis mode: Wavelengths
Number of Pixels in Spectrum: 2048
>>>>>Begin Spectral Data<<<<<
187.83	38.22
188.298	21.94
188.766	35.32
189.233	23.7
189.701	44.68
190.169	60.41
190.636	67.6
191.104	58.56
191.571	286.3
192.039	239.81
192.506	349.21
192.974	6555.85
193.441	-244.73
193.908	37.09
194.375	-9.38
194.842	123.5
195.31	144.64
195.777	139.93
196.244	92.52
196.711	78.89
197.177	77.19
197.644	73.94
198.111	73.68
198.578	74.22
199.045	75.49
199.511	75.6
199.978	75.95
200.445	75.6
200.911	75.72
201.378	74.85
201.844	75.81
202.31	75.64
202.777	75.94
203.243	76.17
203.709	75.98
204.176	75.68
204.642	75.3
205.108	74.49
205.574	74.46
206.04	73.83
206.506	73.63
206.972	72.52
207.438	71.95
207.903	71.18
208.369	69.9
208.835	68.75
209.301	67.76
209.766	66.12
210.232	64.93
210.697	63.54
211.163	62.21
211.628	61.11
212.094	59.76
212.559	58.34
213.024	56.84
213.49	55.87
213.955	54.56
214.42	52.81
214.885	51.26
215.35	49.31
215.815	46.52
216.28	43.69
216.745	40.59
217.21	37.31
217.675	34.26
218.14	31.49
218.604	28.79
219.069	26.59
219.534	24.74
219.998	23.16
220.463	21.83
220.927	20.78
221.392	19.89
221.856	19.08
222.32	18.4
222.785	17.78
223.249	17.28
223.713	16.85
224.177	16.43
224.642	16.04
225.106	15.69
225.57	15.35
226.034	15.02
226.497	14.69
226.961	14.36
227.425	14.05
227.889	13.76
228.353	13.49
228.816	13.22
229.28	12.96
229.744	12.72
230.207	12.49
230.671	12.27
231.134	12.06
231.597	11.84
232.061	11.67
232.524	11.49
232.987	11.34
233.45	11.17
233.914	11.01
234.377	10.87
234.84	10.75
235.303	10.62
235.766	10.5
236.229	10.38
236.691	10.28
237.154	10.16
237.617	10.06
238.08	9.93
238.542	9.84
239.005	9.74
239.468	9.65
239.93	9.55
240.393	9.46
240.855	9.35
241.317	9.28
241.78	9.19
242.242	9.1
242.704	9.01
243.166	8.95
243.629	8.86
244.091	8.77
244.553	8.69
245.015	8.61
245.477	8.51
245.939	8.44
246.4	8.33
246.862	8.26
247.324	8.2
247.786	8.11
248.247	8.02
248.709	7.95
249.17	7.88
249.632	7.8
250.093	7.71
250.555	7.65
251.016	7.61
251.477	7.56
251.939	7.49
252.4	7.43
252.861	7.38
253.322	7.32
253.783	7.28
254.244	7.23
254.705	7.19
255.166	7.15
255.627	7.1
256.088	7.03
256.549	6.98
257.009	6.93
257.47	6.88
257.931	6.83
258.391	6.76
258.852	6.7
259.312	6.66
259.773	6.6
260.233	6.55
260.694	6.5
261.154	6.45
261.614	6.4
262.074	6.36
262.534	6.29
262.994	6.25
263.455	6.22
263.915	6.18
264.374	6.14
264.834	6.1
265.294	6.05
265.754	6.01
266.214	5.97
266.673	5.94
267.133	5.91
267.593	5.88
268.052	5.85
268.512	5.82
268.971	5.79
269.431	5.76
269.89	5.73
270.349	5.71
270.809	5.7
271.268	5.68
271.727	5.66
272.186	5.63
272.645	5.61
273.104	5.59
273.563	5.57
274.022	5.55
274.481	5.55
274.94	5.52
275.399	5.5
275.857	5.48
276.316	5.46
276.775	5.43
277.233	5.42
277.692	5.41
278.15	5.39
278.609	5.36
279.067	5.34
279.525	5.31
279.984	5.3
280.442	5.29
280.9	5.28
281.358	5.27
281.816	5.26
282.274	5.24
282.732	5.23
283.19	5.23
283.648	5.22
284.106	5.21
284.564	5.21
285.021	5.21
285.479	5.2
285.937	5.18
286.394	5.16
286.852	5.15
287.309	5.14
287.767	5.12
288.224	5.09
288.682	5.07
289.139	5.05
289.596	5.02
290.053	4.98
290.511	4.95
290.968	4.93
291.425	4.9
291.882	4.88
292.339	4.85
292.796	4.82
293.252	4.8
293.709	4.78
294.166	4.76
294.623	4.75
295.079	4.73
295.536	4.72
295.992	4.7
296.449	4.69
296.905	4.67
297.362	4.65
297.818	4.64
298.274	4.62
298.731	4.6
299.187	4.59
299.643	4.57
300.099	4.56
300.555	4.54
301.011	4.52
301.467	4.5
301.923	4.5
302.379	4.5
302.835	4.49
303.291	4.48
303.746	4.48
304.202	4.47
304.658	4.46
305.113	4.46
305.569	4.45
306.024	4.45
306.479	4.45
306.935	4.45
307.39	4.44
307.845	4.44
308.301	4.44
308.756	4.44
309.211	4.43
309.666	4.43
310.121	4.43
310.576	4.42
311.031	4.41
311.486	4.41
311.94	4.4
312.395	4.4
312.85	4.39
313.305	4.39
313.759	4.39
314.214	4.39
314.668	4.39
315.123	4.39
315.577	4.39
316.032	4.39
316.486	4.38
316.94	4.37
317.394	4.36
317.849	4.35
318.303	4.34
318.757	4.32
319.211	4.29
319.665	4.28
320.119	4.27
320.572	4.26
321.026	4.24
321.48	4.24
321.934	4.23
322.387	4.22
322.841	4.21
323.295	4.2
323.748	4.19
324.202	4.19
324.655	4.18
325.108	4.16
325.562	4.14
326.015	4.13
326.468	4.11
326.921	4.1
327.374	4.1
327.827	4.1
328.28	4.09
328.733	4.08
329.186	4.09
329.639	4.09
330.092	4.1
330.545	4.1
330.997	4.11
331.45	4.11
331.903	4.11
332.355	4.1
332.808	4.11
333.26	4.12
333.713	4.12
334.165	4.11
334.617	4.12
335.069	4.11
335.522	4.12
335.974	4.13
336.426	4.14
336.878	4.14
337.33	4.13
337.782	4.12
338.234	4.12
338.686	4.12
339.137	4.13
339.589	4.11
340.041	4.1
340.493	4.08
340.944	4.06
341.396	4.03
341.847	4.02
342.299	4.01
342.75	3.98
343.201	3.96
343.653	3.94
344.104	3.92
344.555	3.91
345.006	3.9
345.457	3.87
345.908	3.86
346.359	3.86
346.81	3.85
347.261	3.84
347.712	3.83
348.163	3.83
348.613	3.82
349.064	3.8
349.515	3.8
349.965	3.79
350.416	3.8
350.866	3.81
351.317	3.8
351.767	3.8
352.217	3.79
352.668	3.8
353.118	3.79
353.568	3.8
354.018	3.82
354.468	3.82
354.918	3.83
355.368	3.82
355.818	3.81
356.268	3.81
356.718	3.81
357.168	3.81
357.617	3.81
358.067	3.81
358.517	3.79
358.966	3.79
359.416	3.79
359.865	3.78
360.315	3.78
360.764	3.78
361.213	3.77
361.663	3.75
362.112	3.76
362.561	3.75
363.01	3.75
363.459	3.75
363.908	3.74
364.357	3.74
364.806	3.73
365.255	3.74
365.703	3.73
366.152	3.74
366.601	3.74
367.05	3.74
367.498	3.75
367.947	3.74
368.395	3.75
368.844	3.75
369.292	3.74
369.74	3.75
370.189	3.74
370.637	3.74
371.085	3.74
371.533	3.73
371.981	3.73
372.429	3.71
372.877	3.71
373.325	3.7
373.773	3.7
374.221	3.69
374.669	3.69
375.116	3.68
375.564	3.67
376.012	3.68
376.459	3.67
376.907	3.68
377.354	3.68
377.801	3.68
378.249	3.68
378.696	3.68
379.143	3.69
379.591	3.68
380.038	3.69
380.485	3.7
380.932	3.69
381.379	3.68
381.826	3.68
382.273	3.67
382.72	3.68
383.166	3.67
383.613	3.67
384.06	3.66
384.506	3.66
384.953	3.64
385.4	3.62
385.846	3.62
386.292	3.63
386.739	3.62
387.185	3.64
387.631	3.63
388.078	3.63
388.524	3.62
388.97	3.63
389.416	3.62
389.862	3.63
390.308	3.64
390.754	3.64
391.2	3.66
391.645	3.66
392.091	3.65
392.537	3.66
392.983	3.66
393.428	3.68
393.874	3.69
394.319	3.68
394.765	3.69
395.21	3.7
395.655	3.71
396.101	3.71
396.546	3.72
396.991	3.72
397.436	3.71
397.881	3.73
398.326	3.74
398.771	3.76
399.216	3.79
399.661	3.81
400.106	3.83
400.551	3.83
400.995	3.82
401.44	3.82
401.885	3.84
402.329	3.87
402.774	3.86
403.218	3.87
403.663	3.86
404.107	3.87
404.551	3.88
404.995	3.88
405.44	3.9
405.884	3.91
406.328	3.93
406.772	3.94
407.216	3.95
407.66	3.97
408.104	3.98
408.547	4
408.991	4
409.435	4.01
409.879	4.02
410.322	4.05
410.766	4.07
411.209	4.09
411.653	4.09
412.096	4.11
412.54	4.13
412.983	4.15
413.426	4.18
413.869	4.21
414.312	4.25
414.756	4.28
415.199	4.3
415.642	4.34
416.085	4.37
416.527	4.39
416.97	4.42
417.413	4.42
417.856	4.41
418.298	4.41
418.741	4.42
419.184	4.41
419.626	4.39
420.069	4.39
420.511	4.37
420.953	4.37
421.396	4.37
421.838	4.39
422.28	4.4
422.722	4.43
423.164	4.44
423.606	4.45
424.048	4.46
424.49	4.47
424.932	4.47
425.374	4.47
425.816	4.46
426.258	4.45
426.699	4.43
427.141	4.42
427.582	4.42
428.024	4.43
428.465	4.43
428.907	4.44
429.348	4.44
429.789	4.46
430.231	4.47
430.672	4.5
431.113	4.53
431.554	4.56
431.995	4.59
432.436	4.6
432.877	4.59
433.318	4.6
433.759	4.61
434.2	4.64
434.64	4.65
435.081	4.68
435.522	4.7
435.962	4.73
436.403	4.75
436.843	4.75
437.284	4.77
437.724	4.8
438.164	4.84
438.604	4.86
439.045	4.86
439.485	4.87
439.925	4.86
440.365	4.85
440.805	4.84
441.245	4.83
441.685	4.87
442.125	4.86
442.564	4.88
443.004	4.86
443.444	4.87
443.883	4.89
444.323	4.89
444.762	4.93
445.202	4.98
445.641	5
446.081	5.03
446.52	5.01
446.959	5.03
447.398	5.06
447.837	5.1
448.276	5.1
448.716	5.11
449.154	5.12
449.593	5.13
450.032	5.13
450.471	5.13
450.91	5.12
451.349	5.13
451.787	5.11
452.226	5.07
452.664	5.03
453.103	5.02
453.541	5
453.98	4.98
454.418	4.93
454.856	4.9
455.295	4.87
455.733	4.86
456.171	4.84
456.609	4.84
457.047	4.84
457.485	4.84
457.923	4.83
458.361	4.83
458.798	4.85
459.236	4.86
459.674	4.86
460.111	4.87
460.549	4.87
460.987	4.87
461.424	4.86
461.862	4.85
462.299	4.86
462.736	4.86
463.173	4.86
463.611	4.85
464.048	4.87
464.485	4.86
464.922	4.85
465.359	4.86
465.796	4.85
466.233	4.88
466.67	4.87
467.106	4.88
467.543	4.89
467.98	4.89
468.416	4.89
468.853	4.88
469.29	4.89
469.726	4.9
470.162	4.88
470.599	4.89
471.035	4.87
471.471	4.88
471.907	4.87
472.344	4.86
472.78	4.83
473.216	4.82
473.652	4.81
474.088	4.81
474.523	4.8
474.959	4.78
475.395	4.76
475.831	4.75
476.266	4.74
476.702	4.71
477.138	4.7
477.573	4.69
478.008	4.67
478.444	4.65
478.879	4.62
479.314	4.59
479.75	4.59
480.185	4.59
480.62	4.57
481.055	4.55
481.49	4.53
481.925	4.53
482.36	4.51
482.795	4.5
483.229	4.5
483.664	4.49
484.099	4.49
484.534	4.48
484.968	4.46
485.403	4.46
485.837	4.45
486.271	4.44
486.706	4.43
487.14	4.42
487.574	4.42
488.009	4.41
488.443	4.4
488.877	4.4
489.311	4.4
489.745	4.41
490.179	4.41
490.613	4.43
491.046	4.44
491.48	4.46
491.914	4.48
492.348	4.49
492.781	4.5
493.215	4.52
493.648	4.54
494.082	4.57
494.515	4.59
494.948	4.62
495.382	4.64
495.815	4.67
496.248	4.71
496.681	4.74
497.114	4.78
497.547	4.81
497.98	4.86
498.413	4.89
498.846	4.94
499.279	4.99
499.711	5.04
500.144	5.09
500.577	5.15
501.009	5.2
501.442	5.27
501.874	5.34
502.306	5.42
502.739	5.48
503.171	5.57
503.603	5.66
504.036	5.75
504.468	5.85
504.9	5.97
505.332	6.07
505.764	6.2
506.196	6.32
506.627	6.45
507.059	6.59
507.491	6.73
507.923	6.87
508.354	7.02
508.786	7.19
509.217	7.33
509.649	7.51
510.08	7.7
510.512	7.88
510.943	8.07
511.374	8.28
511.805	8.48
512.237	8.7
512.668	8.93
513.099	9.16
513.53	9.4
513.961	9.65
514.391	9.89
514.822	10.15
515.253	10.42
515.684	10.68
516.114	10.94
516.545	11.22
516.975	11.5
517.406	11.8
517.836	12.1
518.267	12.41
518.697	12.71
519.127	13.01
519.558	13.31
519.988	13.62
520.418	13.93
520.848	14.25
521.278	14.56
521.708	14.89
522.138	15.18
522.567	15.48
522.997	15.76
523.427	16.06
523.857	16.34
524.286	16.63
524.716	16.88
525.145	17.15
525.575	17.41
526.004	17.67
526.433	17.91
526.863	18.16
527.292	18.4
527.721	18.62
528.15	18.83
528.579	19.04
529.008	19.24
529.437	19.44
529.866	19.63
530.295	19.81
530.724	19.99
531.152	20.14
531.581	20.29
532.01	20.42
532.438	20.58
532.867	20.72
533.295	20.85
533.723	20.99
534.152	21.1
534.58	21.2
535.008	21.3
535.436	21.4
535.865	21.49
536.293	21.59
536.721	21.69
537.149	21.75
537.576	21.84
538.004	21.91
538.432	21.96
538.86	22.03
539.287	22.11
539.715	22.18
540.143	22.22
540.57	22.28
540.998	22.36
541.425	22.41
541.852	22.47
542.28	22.51
542.707	22.57
543.134	22.62
543.561	22.66
543.988	22.7
544.415	22.76
544.842	22.81
545.269	22.85
545.696	22.88
546.123	22.91
546.549	22.95
546.976	23
547.403	23.03
547.829	23.06
548.256	23.1
548.682	23.13
549.108	23.14
549.535	23.15
549.961	23.16
550.387	23.15
550.813	23.15
551.24	23.15
551.666	23.14
552.092	23.13
552.518	23.12
552.943	23.12
553.369	23.1
553.795	23.08
554.221	23.05
554.646	23.03
555.072	23.01
555.498	22.98
555.923	22.95
556.349	22.88
556.774	22.81
557.199	22.75
557.625	22.67
558.05	22.57
558.475	22.46
558.9	22.36
559.325	22.25
559.75	22.13
560.175	22.01
560.6	21.87
561.025	21.75
561.449	21.61
561.874	21.47
562.299	21.32
562.723	21.18
563.148	21.03
563.572	20.9
563.997	20.73
564.421	20.58
564.846	20.41
565.27	20.23
565.694	20.06
566.118	19.88
566.542	19.71
566.966	19.54
567.39	19.34
567.814	19.15
568.238	18.94
568.662	18.75
569.086	18.57
569.509	18.38
569.933	18.19
570.357	18.01
570.78	17.84
571.204	17.66
571.627	17.48
572.05	17.32
572.474	17.17
572.897	17.02
573.32	16.85
573.743	16.7
574.166	16.55
574.589	16.4
575.012	16.27
575.435	16.13
575.858	15.99
576.281	15.86
576.704	15.74
577.126	15.61
577.549	15.49
577.972	15.38
578.394	15.25
578.817	15.14
579.239	15.04
579.661	14.93
580.084	14.82
580.506	14.72
580.928	14.63
581.35	14.53
581.772	14.44
582.194	14.36
582.616	14.28
583.038	14.19
583.46	14.12
583.882	14.04
584.303	13.96
584.725	13.88
585.147	13.79
585.568	13.7
585.99	13.63
586.411	13.57
586.833	13.49
587.254	13.43
587.675	13.38
588.096	13.33
588.518	13.29
588.939	13.24
589.36	13.19
589.781	13.15
590.202	13.13
590.623	13.08
591.043	13.02
591.464	12.97
591.885	12.91
592.305	12.88
592.726	12.82
593.147	12.76
593.567	12.72
593.987	12.69
594.408	12.66
594.828	12.61
595.248	12.57
595.669	12.54
596.089	12.51
596.509	12.47
596.929	12.42
597.349	12.37
597.769	12.33
598.189	12.27
598.608	12.22
599.028	12.16
599.448	12.11
599.867	12.07
600.287	12.01
600.706	11.96
601.126	11.92
601.545	11.88
601.965	11.83
602.384	11.79
602.803	11.74
603.222	11.67
603.641	11.62
604.061	11.56
604.48	11.51
604.898	11.45
605.317	11.39
605.736	11.32
606.155	11.24
606.574	11.17
606.992	11.09
607.411	11.02
607.829	10.92
608.248	10.85
608.666	10.76
609.085	10.67
609.503	10.6
609.921	10.51
610.339	10.44
610.758	10.36
611.176	10.29
611.594	10.22
612.012	10.14
612.43	10.11
612.847	10.04
613.265	9.98
613.683	9.9
614.101	9.84
614.518	9.77
614.936	9.7
615.353	9.64
615.771	9.57
616.188	9.52
616.606	9.46
617.023	9.39
617.44	9.33
617.857	9.28
618.274	9.24
618.691	9.19
619.108	9.14
619.525	9.1
619.942	9.04
620.359	9.01
620.776	8.97
621.192	8.93
621.609	8.9
622.026	8.87
622.442	8.84
622.859	8.81
623.275	8.8
623.691	8.78
624.108	8.76
624.524	8.75
624.94	8.73
625.356	8.72
625.772	8.71
626.188	8.71
626.604	8.7
627.02	8.68
627.436	8.67
627.852	8.66
628.268	8.64
628.683	8.63
629.099	8.61
629.514	8.59
629.93	8.57
630.345	8.54
630.761	8.51
631.176	8.49
631.591	8.46
632.007	8.42
632.422	8.39
632.837	8.36
633.252	8.32
633.667	8.27
634.082	8.22
634.497	8.16
634.911	8.11
635.326	8.05
635.741	7.98
636.155	7.92
636.57	7.85
636.984	7.76
637.399	7.67
637.813	7.58
638.228	7.5
638.642	7.42
639.056	7.33
639.47	7.25
639.884	7.15
640.298	7.06
640.712	6.97
641.126	6.87
641.54	6.77
641.954	6.71
642.368	6.63
642.781	6.54
643.195	6.45
643.609	6.38
644.022	6.3
644.436	6.23
644.849	6.16
645.262	6.11
645.676	6.05
646.089	5.99
646.502	5.9
646.915	5.84
647.328	5.79
647.741	5.74
648.154	5.7
648.567	5.66
648.98	5.62
649.393	5.58
649.805	5.54
650.218	5.51
650.631	5.48
651.043	5.48
651.456	5.46
651.868	5.43
652.28	5.42
652.693	5.38
653.105	5.35
653.517	5.31
653.929	5.29
654.341	5.27
654.753	5.24
655.165	5.21
655.577	5.15
655.989	5.1
656.401	5.05
656.813	5
657.224	4.96
657.636	4.93
658.047	4.89
658.459	4.83
658.87	4.76
659.282	4.74
659.693	4.69
660.104	4.64
660.515	4.6
660.926	4.58
661.338	4.53
661.749	4.49
662.159	4.44
662.57	4.41
662.981	4.38
663.392	4.35
663.803	4.31
664.213	4.28
664.624	4.27
665.035	4.24
665.445	4.21
665.855	4.19
666.266	4.18
666.676	4.17
667.086	4.15
667.497	4.14
667.907	4.13
668.317	4.13
668.727	4.12
669.137	4.13
669.547	4.14
669.956	4.14
670.366	4.16
670.776	4.16
671.186	4.17
671.595	4.19
672.005	4.21
672.414	4.23
672.824	4.25
673.233	4.28
673.642	4.28
674.052	4.28
674.461	4.3
674.87	4.32
675.279	4.34
675.688	4.35
676.097	4.37
676.506	4.39
676.915	4.41
677.323	4.43
677.732	4.45
678.141	4.48
678.549	4.51
678.958	4.55
679.366	4.57
679.775	4.61
680.183	4.66
680.592	4.7
681	4.73
681.408	4.78
681.816	4.81
682.224	4.87
682.632	4.95
683.04	5.01
683.448	5.08
683.856	5.18
684.264	5.27
684.671	5.37
685.079	5.47
685.487	5.63
685.894	5.79
686.302	5.97
686.709	6.16
687.116	6.35
687.524	6.58
687.931	6.83
688.338	7.1
688.745	7.4
689.152	7.74
689.559	8.1
689.966	8.45
690.373	8.87
690.78	9.3
691.187	9.76
691.593	10.24
692	10.75
692.407	11.28
692.813	11.83
693.22	12.39
693.626	12.97
694.032	13.57
694.439	14.2
694.845	14.81
695.251	15.46
695.657	16.12
696.063	16.78
696.469	17.47
696.875	18.13
697.281	18.81
697.687	19.51
698.093	20.2
698.498	20.9
698.904	21.61
699.31	22.29
699.715	22.98
700.12	23.65
700.526	24.33
700.931	25.01
701.337	25.7
701.742	26.34
702.147	27.01
702.552	27.67
702.957	28.32
703.362	28.96
703.767	29.59
704.172	30.2
704.577	30.83
704.981	31.45
705.386	32.07
705.791	32.64
706.195	33.25
706.6	33.82
707.004	34.39
707.408	34.94
707.813	35.51
708.217	36.06
708.621	36.65
709.025	37.21
709.43	37.74
709.834	38.28
710.237	38.8
710.641	39.34
711.045	39.86
711.449	40.37
711.853	40.9
712.256	41.42
712.66	41.93
713.064	42.4
713.467	42.87
713.87	43.36
714.274	43.83
714.677	44.31
715.08	44.77
715.484	45.25
715.887	45.72
716.29	46.17
716.693	46.58
717.096	47.04
717.499	47.47
717.901	47.87
718.304	48.27
718.707	48.66
719.109	49.03
719.512	49.42
719.915	49.78
720.317	50.14
720.719	50.5
721.122	50.85
721.524	51.17
721.926	51.52
722.328	51.89
722.731	52.2
723.133	52.54
723.535	52.9
723.937	53.19
724.338	53.45
724.74	53.75
725.142	54.02
725.544	54.28
725.945	54.54
726.347	54.77
726.748	54.96
727.15	55.17
727.551	55.4
727.952	55.6
728.354	55.86
728.755	56.1
729.156	56.3
729.557	56.5
729.958	56.7
730.359	56.9
730.76	57.06
731.161	57.25
731.562	57.46
731.962	57.61
732.363	57.76
732.763	57.87
733.164	57.99
733.564	58.11
733.965	58.25
734.365	58.37
734.766	58.49
735.166	58.59
735.566	58.68
735.966	58.77
736.366	58.84
736.766	58.93
737.166	59.04
737.566	59.14
737.966	59.24
738.365	59.34
738.765	59.42
739.165	59.47
739.564	59.58
739.964	59.66
740.363	59.77
740.763	59.83
741.162	59.92
741.561	60
741.96	60.08
742.36	60.13
742.759	60.14
743.158	60.19
743.557	60.28
743.955	60.34
744.354	60.42
744.753	60.45
745.152	60.51
745.55	60.52
745.949	60.54
746.348	60.56
746.746	60.58
747.144	60.67
747.543	60.72
747.941	60.78
748.339	60.84
748.737	60.9
749.136	60.94
749.534	61
749.932	61.04
750.33	61.1
750.727	61.16
751.125	61.22
751.523	61.19
751.921	61.19
752.318	61.2
752.716	61.22
753.113	61.21
753.511	61.2
753.908	61.17
754.305	61.17
754.703	61.14
755.1	61.12
755.497	61.14
755.894	61.16
756.291	61.17
756.688	61.16
757.085	61.12
757.482	61.12
757.878	61.12
758.275	61.15
758.672	61.16
759.068	61.18
759.465	61.22
759.861	61.21
760.258	61.23
760.654	61.25
761.05	61.25
761.447	61.26
761.843	61.26
762.239	61.26
762.635	61.23
763.031	61.27
763.427	61.25
763.822	61.23
764.218	61.21
764.614	61.18
765.01	61.17
765.405	61.16
765.801	61.13
766.196	61.12
766.592	61.14
766.987	61.13
767.382	61.13
767.778	61.13
768.173	61.13
768.568	61.1
768.963	61.11
769.358	61.1
769.753	61.1
770.148	61.14
770.542	61.14
770.937	61.13
771.332	61.17
771.726	61.14
772.121	61.11
772.515	61.08
772.91	61.13
773.304	61.14
773.699	61.15
774.093	61.14
774.487	61.13
774.881	61.16
775.275	61.18
775.669	61.18
776.063	61.17
776.457	61.16
776.851	61.18
777.245	61.14
777.638	61.13
778.032	61.14
778.425	61.17
778.819	61.19
779.212	61.15
779.606	61.13
779.999	61.1
780.392	61.14
780.786	61.15
781.179	61.17
781.572	61.15
781.965	61.17
782.358	61.15
782.751	61.13
783.143	61.14
783.536	61.17
783.929	61.17
784.322	61.19
784.714	61.15
785.107	61.21
785.499	61.19
785.891	61.23
786.284	61.19
786.676	61.2
787.068	61.17
787.46	61.13
787.852	61.12
788.245	61.12
788.636	61.11
789.028	61.09
789.42	61.02
789.812	61.03
790.204	61
790.595	61
790.987	60.98
791.378	61
791.77	61.05
792.161	61.05
792.553	61.03
792.944	61.08
793.335	61.11
793.726	61.1
794.117	61.11
794.508	61.09
794.899	61.13
795.29	61.12
795.681	61.12
796.072	61.11
796.463	61.1
796.853	61.13
797.244	61.11
797.634	61.11
798.025	61.15
798.415	61.13
798.806	61.19
799.196	61.21
799.586	61.23
799.976	61.23
800.366	61.21
800.756	61.21
801.146	61.17
801.536	61.15
801.926	61.14
802.316	61.12
802.706	61.14
803.095	61.12
803.485	61.09
803.874	61.09
804.264	61.11
804.653	61.1
805.043	61.1
805.432	61.09
805.821	61.1
806.21	61.14
806.599	61.19
806.988	61.16
807.377	61.19
807.766	61.2
808.155	61.21
808.544	61.17
808.933	61.19
809.321	61.22
809.71	61.27
810.098	61.28
810.487	61.24
810.875	61.22
811.264	61.27
811.652	61.26
812.04	61.26
812.428	61.28
812.816	61.31
813.204	61.3
813.592	61.25
813.98	61.24
814.368	61.25
814.756	61.32
815.144	61.33
815.531	61.32
815.919	61.3
816.306	61.28
816.694	61.28
817.081	61.26
817.469	61.29
817.856	61.33
818.243	61.34
818.63	61.35
819.017	61.35
819.404	61.3
819.791	61.3
820.178	61.33
820.565	61.35
820.952	61.36
821.339	61.4
821.725	61.39
822.112	61.45
822.498	61.44
822.885	61.45
823.271	61.44
823.657	61.47
824.044	61.48
824.43	61.5
824.816	61.46
825.202	61.44
825.588	61.43
825.974	61.43
826.36	61.38
826.746	61.42
827.132	61.41
827.517	61.42
827.903	61.44
828.289	61.42
828.674	61.36
829.06	61.4
829.445	61.43
829.83	61.44
830.216	61.45
830.601	61.45
830.986	61.39
831.371	61.39
831.756	61.36
832.141	61.38
832.526	61.42
832.911	61.49
833.295	61.5
833.68	61.52
834.065	61.48
834.449	61.46
834.834	61.46
835.218	61.48
835.603	61.48
835.987	61.44
836.371	61.42
836.755	61.37
837.139	61.37
837.524	61.39
837.908	61.32
838.291	61.33
838.675	61.37
839.059	61.37
839.443	61.38
839.827	61.37
840.21	61.45
840.594	61.45
840.977	61.45
841.361	61.46
841.744	61.46
842.127	61.49
842.511	61.51
842.894	61.48
843.277	61.46
843.66	61.47
844.043	61.46
844.426	61.42
844.809	61.42
845.191	61.41
845.574	61.37
845.957	61.34
846.339	61.3
846.722	61.31
847.104	61.31
847.487	61.33
847.869	61.32
848.252	61.31
848.634	61.34
849.016	61.36
849.398	61.37
849.78	61.37
850.162	61.38
850.544	61.43
850.926	61.4
851.307	61.42
851.689	61.38
852.071	61.35
852.452	61.34
852.834	61.32
853.215	61.29
853.597	61.29
853.978	61.26
854.359	61.25
854.741	61.23
855.122	61.23
855.503	61.22
855.884	61.25
856.265	61.25
856.646	61.27
857.026	61.28
857.407	61.23
857.788	61.22
858.169	61.22
858.549	61.25
858.93	61.25
859.31	61.25
859.69	61.23
860.071	61.22
860.451	61.23
860.831	61.22
861.211	61.21
861.591	61.27
861.971	61.28
862.351	61.29
862.731	61.28
863.111	61.27
863.491	61.26
863.87	61.27
864.25	61.31
864.629	61.29
865.009	61.29
865.388	61.3
865.768	61.24
866.147	61.27
866.526	61.27
866.905	61.3
867.284	61.31
867.663	61.35
868.042	61.37
868.421	61.34
868.8	61.35
869.179	61.36
869.558	61.37
869.936	61.39
870.315	61.38
870.693	61.37
871.072	61.32
871.45	61.27
871.828	61.26
872.207	61.25
872.585	61.25
872.963	61.23
873.341	61.22
873.719	61.2
874.097	61.2
874.475	61.2
874.853	61.2
875.23	61.2
875.608	61.25
875.986	61.22
876.363	61.2
876.741	61.21
877.118	61.22
877.495	61.25
877.873	61.24
878.25	61.23
878.627	61.22
879.004	61.21
879.381	61.2
879.758	61.15
880.135	61.14
880.512	61.15
880.889	61.13
881.265	61.15
881.642	61.1
882.019	61.1
882.395	61.11
882.772	61.1
883.148	61.07
883.524	61.08
883.901	61.09
884.277	61.1
884.653	61.08
885.029	61.09
885.405	61.04
885.781	61.02
886.157	61.01
886.532	61
886.908	61.03
887.284	61.05
887.659	61.04
888.035	61.05
888.411	61.02
888.786	61
889.161	60.98
889.537	61
889.912	60.99
890.287	61.01
890.662	61
891.037	60.95
891.412	60.93
891.787	60.92
892.162	60.93
892.536	60.95
892.911	60.95
893.286	60.92
893.66	60.91
894.035	60.94
894.409	60.92
894.784	60.92
895.158	60.93
895.532	60.9
895.906	60.89
896.281	60.87
896.655	60.85
897.029	60.85
897.402	60.9
897.776	60.89
898.15	60.89
898.524	60.88
898.898	60.84
899.271	60.85
899.645	60.87
900.018	60.89
900.392	60.91
900.765	60.94
901.138	60.95
901.511	60.92
901.884	60.99
902.258	60.97
902.631	60.97
903.003	61.01
903.376	61
903.749	61
904.122	61.02
904.495	61.01
904.867	60.98
905.24	60.94
905.612	60.96
905.985	60.87
906.357	60.84
906.729	60.83
907.102	60.8
907.474	60.83
907.846	60.8
908.218	60.74
908.59	60.73
908.962	60.71
909.334	60.69
909.705	60.68
910.077	60.69
910.449	60.72
910.82	60.72
911.192	60.74
911.563	60.68
911.935	60.65
912.306	60.65
912.677	60.66
913.048	60.63
913.419	60.65
913.79	60.63
914.161	60.63
914.532	60.58
914.903	60.59
915.274	60.53
915.645	60.55
916.015	60.57
916.386	60.58
916.756	60.48
917.127	60.49
917.497	60.48
917.868	60.46
918.238	60.5
918.608	60.49
918.978	60.46
919.348	60.44
919.718	60.45
920.088	60.44
920.458	60.47
920.828	60.55
921.198	60.56
921.567	60.52
921.937	60.54
922.306	60.52
922.676	60.53
923.045	60.53
923.415	60.56
923.784	60.59
924.153	60.58
924.522	60.52
924.891	60.49
925.26	60.45
925.629	60.5
925.998	60.47
926.367	60.42
926.736	60.39
927.104	60.39
927.473	60.39
927.842	60.33
928.21	60.34
928.578	60.35
928.947	60.34
929.315	60.39
929.683	60.38
930.051	60.36
930.42	60.4
930.788	60.43
931.156	60.45
931.523	60.44
931.891	60.44
932.259	60.45
932.627	60.41
932.994	60.4
933.362	60.38
933.729	60.35
934.097	60.38
934.464	60.33
934.831	60.34
935.199	60.27
935.566	60.2
935.933	60.21
936.3	60.16
936.667	60.16
937.034	60.13
937.401	60.14
937.767	60.14
938.134	60.12
938.501	60.13
938.867	60.14
939.234	60.22
939.6	60.28
939.967	60.25
940.333	60.31
940.699	60.41
941.065	60.54
941.431	60.6
941.798	60.7
942.163	60.77
942.529	60.86
942.895	60.89
943.261	60.89
943.627	60.99
943.992	61.1
944.358	61.02
944.723	60.93
945.089	60.9
945.454	60.91
945.82	60.81
946.185	60.88
946.55	60.93
946.915	60.86
947.28	60.87
947.645	60.84
948.01	60.77
948.375	60.92
948.74	60.87
949.104	60.85
949.469	60.73
949.834	60.74
950.198	60.61
950.562	60.48
950.927	60.47
951.291	60.4
951.655	60.34
952.02	60.35
952.384	60.3
952.748	60.31
953.112	60.3
953.476	60.33
953.839	60.26
954.203	60.25
954.567	60.22
954.931	60.22
955.294	60.19
955.658	60.14
956.021	60.12
956.385	60.06
956.748	60.06
957.111	59.96
957.474	59.96
957.837	59.98
958.2	59.91
958.563	59.86
958.926	59.78
959.289	59.84
959.652	59.81
960.015	59.73
960.377	59.74
960.74	59.67
961.102	59.71
961.465	59.72
961.827	59.66
962.189	59.66
962.552	59.63
962.914	59.63
963.276	59.56
963.638	59.54
964	59.55
964.362	59.54
964.724	59.6
965.085	59.62
965.447	59.54
965.809	59.46
966.17	59.42
966.532	59.49
966.893	59.46
967.255	59.45
967.616	59.5
967.977	59.55
968.338	59.51
968.699	59.5
969.061	59.42
969.421	59.44
969.782	59.53
970.143	59.59
970.504	59.61
970.865	59.62
971.225	59.58
971.586	59.57
971.946	59.54
972.307	59.56
972.667	59.53
973.027	59.55
973.388	59.51
973.748	59.57
974.108	59.51
974.468	59.49
974.828	59.54
975.188	59.68
975.548	59.6
975.907	59.64
976.267	59.6
976.627	59.62
976.986	59.62
977.346	59.66
977.705	59.65
978.064	59.69
978.424	59.73
978.783	59.72
979.142	59.62
979.501	59.7
979.86	59.63
980.219	59.6
980.578	59.56
980.937	59.63
981.296	59.61
981.654	59.7
982.013	59.75
982.371	59.65
982.73	59.6
983.088	59.57
983.447	59.67
983.805	59.7
984.163	59.81
984.521	59.82
984.879	59.8
985.237	59.91
985.595	59.9
985.953	59.9
986.311	59.99
986.669	60.19
987.026	60.26
987.384	60.16
987.741	60.25
988.099	60.27
988.456	60.28
988.814	60.26
989.171	60.14
989.528	60.04
989.885	60.03
990.242	60.08
990.599	60.04
990.956	60.07
991.313	60.09
991.67	60.08
992.027	60.08
992.383	60.24
992.74	60.28
993.096	60.4
993.453	60.42
993.809	60.45
994.165	60.45
994.522	60.38
994.878	60.42
995.234	60.44
995.59	60.4
995.946	60.55
996.302	60.48
996.658	60.56
997.013	60.56
997.369	60.68
997.725	60.79
998.08	60.7
998.436	60.8
998.791	60.73
999.147	60.92
999.502	60.99
999.857	60.95
1000.212	61.03
1000.567	61.04
1000.922	61.03
1001.277	60.85
1001.632	60.96
1001.987	61.14
1002.342	61.1
1002.696	61.29
1003.051	61
1003.406	60.86
1003.76	60.85
1004.114	60.97
1004.469	60.89
1004.823	60.97
1005.177	61.36
1005.531	61.16
1005.885	61.23
1006.239	61.31
1006.593	61.26
1006.947	61.42
1007.301	61.72
1007.655	61.71
1008.008	61.48
1008.362	61.63
1008.715	61.64
1009.069	61.44
1009.422	61.6
1009.776	61.53
1010.129	61.42
1010.482	61.53
1010.835	61.73
1011.188	61.69
1011.541	61.64
1011.894	61.89
1012.247	61.95
1012.6	62.08
1012.952	62.06
1013.305	61.88
1013.657	61.94
1014.01	62.03
1014.362	62.01
1014.715	61.82
1015.067	61.92
1015.419	62.33
1015.771	62.47
1016.123	62.55
1016.475	62.59
1016.827	62.99
1017.179	63.29
1017.531	63.46
1017.883	63.71
1018.234	64.17
1018.586	64.4
1018.938	64.18
1019.289	64.08
1019.64	64.15
1019.992	64.18
1020.343	64.22
1020.694	64.11
1021.045	64.45
1021.396	64.64
1021.747	64.63
1022.098	64.24
1022.449	64.36
1022.8	64.63
1023.151	64.88
1023.501	64.88
1023.852	65.05
1024.202	65.38
1024.553	65.14
1024.903	64.92
1025.253	64.92
1025.604	65.13
1025.954	65.04
1026.304	65.39
1026.654	65.83
1027.004	65.88
1027.354	65.91
1027.703	66.03
1028.053	65.71
1028.403	65.91
1028.753	66.23
1029.102	66.35
1029.452	66.56
1029.801	67.04
1030.15	67.01
1030.499	66.8
897.758	387.31
901.051	397.4
904.343	401.52
907.636	396.07
910.928	387.7
914.22	397.19
917.511	390.08
920.803	373.66
924.094	360.06
927.384	363.39
930.675	353.67
933.965	351.01
937.255	350.41
940.544	334.15
943.834	321.19
947.123	317.5
950.411	301.45
953.7	297.01
956.988	289.52
960.276	276.13
963.563	273.62
966.851	262.11
970.138	257.78
973.424	240.33
976.711	237.81
979.997	230.78
983.283	227.35
986.568	219.94
989.853	214.86
993.138	207.75
996.423	206.51
999.708	200.49
1002.992	200.34
1006.275	195.83
1009.559	195.19
1012.842	190.48
1016.125	183.82
1019.408	180.17
1022.69	178.95
1025.972	177.5
1029.254	174.21
1032.536	171.37
1035.817	166.96
1039.098	164.61
1042.379	161.95
1045.659	160.27
1048.939	157.97
1052.219	156.96
1055.498	155.74
1058.778	153.08
1062.057	150.11
1065.335	149.91
1068.614	147.43
1071.892	146.25
1075.17	142.95
1078.447	141.85
1081.724	139.86
1085.001	139.84
1088.278	138.61
1091.554	136.66
1094.83	136.79
1098.106	134.88
1101.382	134.58
1104.657	134
1107.932	133.11
1111.206	133.55
1114.481	131.88
1117.755	131.9
1121.029	130.56
1124.302	129.9
1127.575	128.59
1130.848	128.05
1134.121	126.78
1137.393	125.5
1140.665	124.95
1143.937	124.15
1147.208	121.7
1150.48	120.99
1153.75	119.91
1157.021	119.27
1160.291	118.75
1163.561	118.9
1166.831	118.21
1170.101	118.47
1173.37	117.85
1176.639	116.57
1179.907	116.81
1183.176	117.8
1186.444	118.08
1189.711	117.08
1192.979	117.47
1196.246	118.72
1199.513	117.98
1202.78	117.51
1206.046	117.52
1209.312	118.38
1212.578	119.01
1215.843	120.43
1219.108	120.57
1222.373	121.69
1225.638	123.81
1228.902	126.18
1232.166	127.08
1235.43	128.37
1238.693	131.67
1241.956	133.68
1245.219	135.91
1248.482	137.23
1251.744	135.81
1255.006	138.41
1258.268	133.83
1261.529	133.6
1264.79	130.77
1268.051	129.51
1271.312	128.91
1274.572	126.9
1277.832	124.56
1281.092	123.22
1284.351	121.57
1287.61	122.07
1290.869	120.05
1294.128	121.14
1297.386	120.15
1300.644	120.51
1303.902	119.2
1307.159	118.3
1310.416	118.47
1313.673	119.9
1316.93	121.27
1320.186	122.31
1323.442	122.27
1326.697	124.66
1329.953	124.61
1333.208	128.02
1336.463	130.68
1339.717	133.56
1342.972	139.86
1346.226	142.94
1349.479	143.75
1352.733	147.76
1355.986	150.64
1359.238	154.35
1362.491	154.06
1365.743	159.8
1368.995	159.06
1372.247	160.42
1375.498	158.88
1378.749	162.22
1382	161.78
1385.251	162.06
1388.501	159.39
1391.751	161.2
1395	160.84
1398.25	160.82
1401.499	159.57
1404.748	160.77
1407.996	155.05
1411.244	156.08
1414.492	152.35
1417.74	146.66
1420.987	143.07
1424.234	141.95
1427.481	136.77
1430.728	132.16
1433.974	128.71
1437.22	125.04
1440.465	120.22
1443.711	117.13
1446.956	113.6
1450.201	110.36
1453.445	106.56
1456.689	104.35
1459.933	101.63
1463.177	97.9
1466.42	95.97
1469.663	93.8
1472.906	91.37
1476.148	90.16
1479.391	88.3
1482.633	87.28
1485.874	86.76
1489.115	87.04
1492.356	84.75
1495.597	83.83
1498.838	83.44
1502.078	83.41
1505.318	83.26
1508.557	82.73
1511.797	81.83
1515.036	82.84
1518.274	82.19
1521.513	81.61
1524.751	81.12
1527.989	82.62
1531.227	82.37
1534.464	82.73
1537.701	82.01
1540.938	81.89
1544.174	82.29
1547.41	82.52
1550.646	82
1553.882	82.84
1557.117	81.86
1560.352	82.28
1563.587	81.53
1566.821	81.58
1570.055	81.02
1573.289	81.36
1576.523	81.75
1579.756	81.41
1582.989	81.88
1586.222	81.79
1589.454	81.17
1592.686	81.45
1595.918	80.97
1599.15	81.02
1602.381	81.43
1605.612	82.03
1608.843	81.64
1612.073	81.55
1615.303	82.03
1618.533	81.57
1621.762	81.89
1624.992	82.03
1628.221	82.04
1631.449	82.47
1634.678	82.42
1637.906	82.55
1641.134	82.43
1644.361	82.77
1647.588	82.97
1650.815	82.86
1654.042	82.99
1657.269	82.77
1660.495	83.48
1663.72	83.11
1666.946	83.04
1670.171	83.38
1673.396	83.05
1676.621	83.87
1679.845	84.28
1683.069	83.38
1686.293	83
1689.517	83.45
1692.74	83.33
1695.963	83.3
1699.185	83.97
1702.408	83.85
1705.63	83.44
1708.852	84.37
1712.073	83.23
1715.294	82.93
1718.515	83.85
1721.736	84.04
1724.956	83.6
1728.176	83.79
1731.396	83.9
1734.616	83.59
1737.835	83.81
1741.054	84.16
1744.272	83.18
1747.491	83.5
1750.709	83.49
1753.927	83.24
1757.144	84.17
1760.361	84.04
1763.578	84.01
1766.795	84.09
1770.011	84.77
1773.227	85.17
1776.443	85.1
1779.658	85.58
1782.874	85.76
1786.089	86.06
1789.303	86.39
1792.518	86.73
1795.732	87.14
1798.945	88.18
1802.159	88.08
1805.372	88.83
1808.585	88.81
1811.797	89.47
1815.01	89.9
1818.222	90.75
1821.434	91.49
1824.645	92
1827.856	92.38
1831.067	93.07
1834.278	93.75
1837.488	94.4
1840.698	93.92
1843.908	94.05
1847.117	95.05
1850.326	95.42
1853.535	95.57
1856.744	95.75
1859.952	95.91
1863.16	95.4
1866.368	95.13
1869.575	94.17
1872.782	93.35
1875.989	92.63
1879.196	92.73
1882.402	90.16
1885.608	90.8
1888.814	89.3
1892.019	88.2
1895.224	86.26
1898.429	85.85
1901.634	85.19
1904.838	85.38
1908.042	84.9
1911.246	85.27
1914.449	84.4
1917.652	84.61
1920.855	84.18
1924.058	83.72
1927.26	83.33
1930.462	84
1933.664	84.16
1936.865	84.24
1940.066	82.97
1943.267	82.15
1946.467	82.29
1949.668	81.83
1952.868	82.63
1956.067	82.05
1959.267	83.46
1962.466	84.12
1965.665	84.35
1968.863	84.59
1972.061	84.31
1975.259	86.37
1978.457	87.95
1981.654	88.92
1984.852	90.29
1988.048	91.54
1991.245	93.78
1994.441	94.74
1997.637	97.87
2000.833	100.25
2004.028	100.96
2007.223	105.76
2010.418	108.41
2013.613	112.51
2016.807	115.7
2020.001	116.48
2023.194	120.35
2026.388	123.32
2029.581	130.17
2032.774	131.66
2035.966	135.66
2039.158	141.43
2042.35	142.53
2045.542	144.6
2048.733	149.52
2051.924	150.96
2055.115	156.16
2058.306	157.21
2061.496	158.82
2064.686	158.46
2067.875	159.65
2071.065	160.98
2074.254	159.6
2077.442	164.9
2080.631	167.23
2083.819	168.61
2087.007	171.23
2090.195	172.87
2093.382	170.62
2096.569	171.9
2099.756	174.89
2102.942	177.19
2106.128	181.16
2109.314	184.48
2112.5	183.14
2115.685	180.65
2118.87	180.7
2122.055	182.82
2125.239	185.32
2128.424	192.83
2131.608	189.53
2134.791	189.28
2137.974	190.01
2141.157	192.98
2144.34	194.22
2147.523	198.15
2150.705	203.44
2153.887	202.65
2157.068	204.15
2160.25	204.12
2163.431	203.92
2166.611	208.2
2169.792	213.39
2172.972	216.56
2176.152	216.92
2179.331	221.36
2182.511	219.86
2185.69	222.34
2188.868	227.52
2192.047	232.24
2195.225	238.52
2198.403	241.52
2201.58	240.97
2204.758	246.41
2207.935	247.61
2211.111	248.71
2214.288	250.15
2217.464	252.3
2220.64	256.26
2223.815	258.29
2226.991	259.55
2230.166	259.94
2233.34	269.36
2236.515	271.53
2239.689	269.16
2242.863	275.41
2246.036	274.82
2249.209	279.02
2252.382	282.4
2255.555	290.27
2258.727	294.31
2261.9	294.67
2265.071	299.65
2268.243	298.24
2271.414	309.18
2274.585	313.37
2277.756	310.47
2280.926	320.66
2284.096	322.1
2287.266	323.22
2290.436	314.84
2293.605	320.48
2296.774	335.91
2299.942	335.6
2303.111	339.74
2306.279	347.66
2309.447	350.92
2312.614	351.57
2315.781	361.74
2318.948	368.26
2322.115	373.28
2325.281	394.83
2328.447	393.52
2331.613	391.32
2334.779	399.02
2337.944	402.73
2341.109	408.95
2344.274	411.49
2347.438	427.05
2350.602	430.84
2353.766	455.74
2356.929	455.95
2360.092	460.72
2363.255	457.99
2366.418	467.63
2369.58	474.75
2372.742	479.82
2375.904	480.09
2379.066	493.72
2382.227	525.84
2385.388	524.77
2388.548	497.88
2391.709	494.82
2394.869	510.49
2398.029	514.29
2401.188	514.62
2404.347	532.43
2407.506	547.3
2410.665	528.71
2413.823	525.04
2416.981	520.73
2420.139	497.39
2423.296	537.59
2426.453	573.72
2429.61	548.98
2432.767	586.18
2435.923	605.08
2439.079	579.18
2442.235	594.29
2445.391	603.76
2448.546	610.98
2451.701	635.71
2454.855	676.25
2458.009	598.61
2461.163	605.07
2464.317	610.12
2467.471	595.19
2470.624	620.03
2473.777	610.43
2476.929	588.77
2480.082	637.22
2483.234	660.4
2486.385	665.57
2489.537	680.4
2492.688	747.97
2495.839	734.14
2498.989	754
2502.14	764.69
2505.29	720.28
2508.439	798.45
2511.589	823.11
2514.738	786.64
2517.887	783.46
2521.035	739.51
2524.183	725.68
2527.331	719.06
2530.479	702.09
2533.627	717
