Data from c_1_dec_on_6n_019_Splice17_01.txt Node
Date: Sat Feb 29 13:16:58 EST 2020
User: sa697716
Spectrometer: FLMS03696
Trigger mode: 0
Integration Time (sec): 3.180400E-1
Scans to average: 20
Electric dark correction enabled: true
Nonlinearity correction enabled: true
Boxcar width: 5
XAxis mode: Wavelengths
Number of Pixels in Spectrum: 2048
>>>>>Begin Spectral Data<<<<<
187.83	33.26
188.298	29.75
188.766	35.79
189.233	30.97
189.701	38.18
190.169	34.94
190.636	29.83
191.104	1.14
191.571	-149.75
192.039	25.74
192.506	-1.59
192.974	2606.93
193.441	-73.8
193.908	48.16
194.375	-10.77
194.842	80.12
195.31	25.74
195.777	47.63
196.244	20.44
196.711	30.36
197.177	31.19
197.644	33.1
198.111	32.59
198.578	33.76
199.045	34.04
199.511	34.39
199.978	34.41
200.445	34.04
200.911	33.92
201.378	33.89
201.844	33.77
202.31	33.83
202.777	33.66
203.243	33.79
203.709	33.38
204.176	32.79
204.642	32.44
205.108	31.55
205.574	31.85
206.04	31.67
206.506	31.34
206.972	30.95
207.438	30.35
207.903	30.38
208.369	29.6
208.835	29.23
209.301	29.12
209.766	28.34
210.232	28.04
210.697	27.13
211.163	26.41
211.628	25.87
212.094	25.75
212.559	24.9
213.024	24.05
213.49	23.51
213.955	22.88
214.42	21.82
214.885	20.99
215.35	19.87
215.815	18.48
216.28	17.03
216.745	15.94
217.21	14.29
217.675	13.03
218.14	11.73
218.604	10.51
219.069	9.42
219.534	8.63
219.998	7.91
220.463	7.38
220.927	7
221.392	6.6
221.856	6.14
222.32	5.84
222.785	5.55
223.249	5.29
223.713	5.11
224.177	4.91
224.642	4.76
225.106	4.62
225.57	4.43
226.034	4.27
226.497	4.13
226.961	3.97
227.425	3.82
227.889	3.74
228.353	3.64
228.816	3.55
229.28	3.45
229.744	3.35
230.207	3.29
230.671	3.23
231.134	3.16
231.597	3.1
232.061	3.06
232.524	3.03
232.987	2.98
233.45	2.94
233.914	2.9
234.377	2.88
234.84	2.85
235.303	2.81
235.766	2.79
236.229	2.76
236.691	2.74
237.154	2.71
237.617	2.67
238.08	2.63
238.542	2.61
239.005	2.57
239.468	2.54
239.93	2.52
240.393	2.48
240.855	2.43
241.317	2.41
241.78	2.39
242.242	2.35
242.704	2.32
243.166	2.31
243.629	2.28
244.091	2.27
244.553	2.25
245.015	2.23
245.477	2.2
245.939	2.2
246.4	2.19
246.862	2.17
247.324	2.17
247.786	2.15
248.247	2.14
248.709	2.13
249.17	2.1
249.632	2.07
250.093	2.05
250.555	2.04
251.016	2.02
251.477	2
251.939	1.98
252.4	1.97
252.861	1.96
253.322	1.92
253.783	1.92
254.244	1.9
254.705	1.89
255.166	1.89
255.627	1.87
256.088	1.84
256.549	1.83
257.009	1.81
257.47	1.8
257.931	1.78
258.391	1.78
258.852	1.76
259.312	1.74
259.773	1.73
260.233	1.7
260.694	1.69
261.154	1.68
261.614	1.66
262.074	1.65
262.534	1.63
262.994	1.61
263.455	1.6
263.915	1.58
264.374	1.56
264.834	1.55
265.294	1.54
265.754	1.52
266.214	1.51
266.673	1.5
267.133	1.49
267.593	1.49
268.052	1.47
268.512	1.46
268.971	1.46
269.431	1.45
269.89	1.45
270.349	1.44
270.809	1.44
271.268	1.45
271.727	1.45
272.186	1.44
272.645	1.44
273.104	1.44
273.563	1.44
274.022	1.44
274.481	1.43
274.94	1.43
275.399	1.43
275.857	1.42
276.316	1.41
276.775	1.4
277.233	1.4
277.692	1.4
278.15	1.39
278.609	1.38
279.067	1.38
279.525	1.38
279.984	1.38
280.442	1.38
280.9	1.38
281.358	1.37
281.816	1.38
282.274	1.38
282.732	1.39
283.19	1.39
283.648	1.39
284.106	1.38
284.564	1.39
285.021	1.39
285.479	1.39
285.937	1.39
286.394	1.38
286.852	1.39
287.309	1.38
287.767	1.37
288.224	1.37
288.682	1.36
289.139	1.37
289.596	1.36
290.053	1.34
290.511	1.34
290.968	1.33
291.425	1.33
291.882	1.32
292.339	1.32
292.796	1.31
293.252	1.3
293.709	1.3
294.166	1.3
294.623	1.29
295.079	1.29
295.536	1.28
295.992	1.28
296.449	1.28
296.905	1.27
297.362	1.27
297.818	1.27
298.274	1.27
298.731	1.26
299.187	1.26
299.643	1.26
300.099	1.27
300.555	1.26
301.011	1.26
301.467	1.26
301.923	1.27
302.379	1.27
302.835	1.26
303.291	1.26
303.746	1.25
304.202	1.25
304.658	1.24
305.113	1.24
305.569	1.24
306.024	1.24
306.479	1.24
306.935	1.24
307.39	1.24
307.845	1.24
308.301	1.25
308.756	1.25
309.211	1.26
309.666	1.26
310.121	1.26
310.576	1.27
311.031	1.27
311.486	1.28
311.94	1.28
312.395	1.28
312.85	1.28
313.305	1.28
313.759	1.28
314.214	1.28
314.668	1.28
315.123	1.28
315.577	1.28
316.032	1.28
316.486	1.28
316.94	1.28
317.394	1.27
317.849	1.27
318.303	1.27
318.757	1.27
319.211	1.26
319.665	1.26
320.119	1.27
320.572	1.26
321.026	1.26
321.48	1.26
321.934	1.26
322.387	1.26
322.841	1.26
323.295	1.25
323.748	1.25
324.202	1.25
324.655	1.25
325.108	1.24
325.562	1.23
326.015	1.23
326.468	1.23
326.921	1.22
327.374	1.23
327.827	1.23
328.28	1.23
328.733	1.23
329.186	1.23
329.639	1.23
330.092	1.23
330.545	1.24
330.997	1.24
331.45	1.23
331.903	1.23
332.355	1.23
332.808	1.23
333.26	1.22
333.713	1.23
334.165	1.23
334.617	1.24
335.069	1.24
335.522	1.25
335.974	1.25
336.426	1.26
336.878	1.26
337.33	1.26
337.782	1.27
338.234	1.27
338.686	1.27
339.137	1.27
339.589	1.27
340.041	1.26
340.493	1.25
340.944	1.25
341.396	1.26
341.847	1.26
342.299	1.25
342.75	1.24
343.201	1.25
343.653	1.23
344.104	1.23
344.555	1.23
345.006	1.23
345.457	1.22
345.908	1.22
346.359	1.22
346.81	1.22
347.261	1.22
347.712	1.22
348.163	1.22
348.613	1.21
349.064	1.21
349.515	1.2
349.965	1.2
350.416	1.2
350.866	1.2
351.317	1.19
351.767	1.19
352.217	1.19
352.668	1.18
353.118	1.19
353.568	1.2
354.018	1.2
354.468	1.2
354.918	1.21
355.368	1.22
355.818	1.22
356.268	1.22
356.718	1.22
357.168	1.22
357.617	1.23
358.067	1.23
358.517	1.22
358.966	1.23
359.416	1.24
359.865	1.23
360.315	1.23
360.764	1.24
361.213	1.24
361.663	1.24
362.112	1.24
362.561	1.24
363.01	1.25
363.459	1.25
363.908	1.24
364.357	1.24
364.806	1.26
365.255	1.26
365.703	1.26
366.152	1.26
366.601	1.27
367.05	1.28
367.498	1.28
367.947	1.28
368.395	1.29
368.844	1.3
369.292	1.29
369.74	1.29
370.189	1.29
370.637	1.29
371.085	1.29
371.533	1.29
371.981	1.29
372.429	1.28
372.877	1.28
373.325	1.26
373.773	1.26
374.221	1.26
374.669	1.26
375.116	1.25
375.564	1.24
376.012	1.24
376.459	1.24
376.907	1.24
377.354	1.26
377.801	1.26
378.249	1.28
378.696	1.3
379.143	1.31
379.591	1.32
380.038	1.34
380.485	1.35
380.932	1.37
381.379	1.37
381.826	1.4
382.273	1.42
382.72	1.45
383.166	1.47
383.613	1.5
384.06	1.53
384.506	1.58
384.953	1.63
385.4	1.69
385.846	1.75
386.292	1.82
386.739	1.9
387.185	2
387.631	2.08
388.078	2.17
388.524	2.22
388.97	2.28
389.416	2.34
389.862	2.44
390.308	2.57
390.754	2.74
391.2	2.91
391.645	3.04
392.091	3.15
392.537	3.28
392.983	3.46
393.428	3.74
393.874	4.09
394.319	4.48
394.765	4.89
395.21	5.28
395.655	5.71
396.101	6.16
396.546	6.68
396.991	7.26
397.436	7.89
397.881	8.54
398.326	9.17
398.771	9.76
399.216	10.34
399.661	10.85
400.106	11.34
400.551	11.76
400.995	12.16
401.44	12.52
401.885	12.86
402.329	13.19
402.774	13.54
403.218	13.94
403.663	14.38
404.107	14.88
404.551	15.4
404.995	15.88
405.44	16.33
405.884	16.8
406.328	17.32
406.772	17.95
407.216	18.62
407.66	19.25
408.104	19.81
408.547	20.28
408.991	20.7
409.435	21.13
409.879	21.67
410.322	22.3
410.766	22.92
411.209	23.56
411.653	24.1
412.096	24.56
412.54	25
412.983	25.45
413.426	25.97
413.869	26.49
414.312	27.04
414.756	27.5
415.199	27.91
415.642	28.29
416.085	28.6
416.527	28.86
416.97	29.04
417.413	29.14
417.856	29.14
418.298	29.13
418.741	29.13
419.184	29.17
419.626	29.28
420.069	29.42
420.511	29.59
420.953	29.75
421.396	29.99
421.838	30.33
422.28	30.76
422.722	31.23
423.164	31.67
423.606	32.09
424.048	32.4
424.49	32.57
424.932	32.43
425.374	32.03
425.816	31.37
426.258	30.66
426.699	30.12
427.141	29.97
427.582	30.2
428.024	30.66
428.465	31.15
428.907	31.64
429.348	32.07
429.789	32.7
430.231	33.67
430.672	35.12
431.113	36.77
431.554	38.39
431.995	39.67
432.436	40.6
432.877	41.27
433.318	41.78
433.759	42.37
434.2	43.1
434.64	44.02
435.081	44.9
435.522	45.66
435.962	46.29
436.403	46.81
436.843	47.24
437.284	47.71
437.724	48.22
438.164	48.89
438.604	49.62
439.045	50.42
439.485	51.11
439.925	51.75
440.365	52.24
440.805	52.61
441.245	52.89
441.685	53.18
442.125	53.5
442.564	53.95
443.004	54.43
443.444	54.95
443.883	55.51
444.323	56.13
444.762	56.71
445.202	57.41
445.641	58.18
446.081	59.18
446.52	60.19
446.959	61.16
447.398	61.89
447.837	62.39
448.276	62.6
448.716	62.74
449.154	62.82
449.593	62.97
450.032	62.98
450.471	62.88
450.91	62.58
451.349	62.35
451.787	62.15
452.226	61.99
452.664	61.95
453.103	61.99
453.541	61.99
453.98	61.87
454.418	61.62
454.856	61.33
455.295	61.11
455.733	60.93
456.171	60.7
456.609	60.49
457.047	60.36
457.485	60.26
457.923	60.3
458.361	60.38
458.798	60.57
459.236	60.8
459.674	61.04
460.111	61.25
460.549	61.44
460.987	61.7
461.424	61.94
461.862	62.19
462.299	62.4
462.736	62.61
463.173	62.89
463.611	63.27
464.048	63.82
464.485	64.38
464.922	65.02
465.359	65.65
465.796	66.25
466.233	66.85
466.67	67.48
467.106	68.31
467.543	69.21
467.98	70.1
468.416	70.9
468.853	71.48
469.29	72.12
469.726	72.77
470.162	73.5
470.599	74.19
471.035	74.85
471.471	75.28
471.907	75.55
472.344	75.67
472.78	75.78
473.216	75.95
473.652	76.14
474.088	76.27
474.523	76.27
474.959	76.21
475.395	76.15
475.831	76.02
476.266	75.99
476.702	75.93
477.138	75.83
477.573	75.67
478.008	75.35
478.444	74.99
478.879	74.54
479.314	74.06
479.75	73.54
480.185	72.92
480.62	72.16
481.055	71.12
481.49	69.72
481.925	68.19
482.36	66.73
482.795	65.5
483.229	64.56
483.664	63.78
484.099	63.15
484.534	62.54
484.968	62.09
485.403	61.87
485.837	61.97
486.271	62.33
486.706	62.79
487.14	63.16
487.574	63.3
488.009	63.29
488.443	63.28
488.877	63.22
489.311	63.22
489.745	63.2
490.179	63.21
490.613	63.21
491.046	63.26
491.48	63.37
491.914	63.58
492.348	63.91
492.781	64.23
493.215	64.49
493.648	64.71
494.082	64.85
494.515	65
494.948	65.11
495.382	65.22
495.815	65.28
496.248	65.32
496.681	65.28
497.114	65.24
497.547	65.22
497.98	65.29
498.413	65.5
498.846	65.8
499.279	66.1
499.711	66.35
500.144	66.64
500.577	67.07
501.009	67.67
501.442	68.42
501.874	69.22
502.306	70.02
502.739	70.69
503.171	71.3
503.603	71.87
504.036	72.47
504.468	73.21
504.9	74
505.332	74.7
505.764	75.34
506.196	75.92
506.627	76.56
507.059	77.25
507.491	78.06
507.923	78.86
508.354	79.69
508.786	80.47
509.217	81.11
509.649	81.74
510.08	82.41
510.512	83.13
510.943	83.93
511.374	84.67
511.805	85.2
512.237	85.46
512.668	85.62
513.099	85.85
513.53	86.18
513.961	86.6
514.391	87.12
514.822	87.85
515.253	88.68
515.684	89.55
516.114	90.55
516.545	91.74
516.975	93.31
517.406	95.01
517.836	96.66
518.267	98.22
518.697	99.71
519.127	101.19
519.558	102.53
519.988	103.76
520.418	104.93
520.848	105.93
521.278	106.87
521.708	107.48
522.138	107.92
522.567	108.32
522.997	108.76
523.427	109.33
523.857	109.89
524.286	110.52
524.716	111.16
525.145	111.71
525.575	112.28
526.004	112.92
526.433	113.81
526.863	114.87
527.292	115.9
527.721	116.75
528.15	117.33
528.579	117.72
529.008	117.95
529.437	118.1
529.866	118.25
530.295	118.46
530.724	118.71
531.152	118.91
531.581	119.1
532.01	119.19
532.438	119.32
532.867	119.57
533.295	119.88
533.723	120.22
534.152	120.47
534.58	120.64
535.008	120.66
535.436	120.56
535.865	120.37
536.293	120.1
536.721	120.01
537.149	120.04
537.576	120.16
538.004	120.29
538.432	120.37
538.86	120.51
539.287	120.76
539.715	121.1
540.143	121.53
540.57	122.08
540.998	122.73
541.425	123.29
541.852	123.88
542.28	124.35
542.707	124.84
543.134	125.28
543.561	125.62
543.988	125.99
544.415	126.41
544.842	126.82
545.269	127.21
545.696	127.54
546.123	127.97
546.549	128.29
546.976	128.62
547.403	128.92
547.829	129.3
548.256	129.7
548.682	129.96
549.108	130.27
549.535	130.53
549.961	130.73
550.387	130.95
550.813	131.15
551.24	131.35
551.666	131.49
552.092	131.52
552.518	131.46
552.943	131.41
553.369	131.37
553.795	131.22
554.221	130.92
554.646	130.53
555.072	130.02
555.498	129.46
555.923	128.96
556.349	128.52
556.774	128.19
557.199	127.85
557.625	127.45
558.05	127.03
558.475	126.56
558.9	126.25
559.325	125.94
559.75	125.58
560.175	125.22
560.6	124.72
561.025	124.05
561.449	123.27
561.874	122.44
562.299	121.74
562.723	121.02
563.148	120.3
563.572	119.45
563.997	118.55
564.421	117.64
564.846	116.69
565.27	115.81
565.694	114.92
566.118	113.96
566.542	113.03
566.966	112
567.39	111
567.814	110.13
568.238	109.36
568.662	108.73
569.086	108.17
569.509	107.7
569.933	107.16
570.357	106.7
570.78	106.31
571.204	105.95
571.627	105.65
572.05	105.4
572.474	105.03
572.897	104.67
573.32	104.28
573.743	103.85
574.166	103.33
574.589	102.9
575.012	102.6
575.435	102.39
575.858	102.23
576.281	102.09
576.704	101.92
577.126	101.79
577.549	101.7
577.972	101.68
578.394	101.66
578.817	101.75
579.239	101.89
579.661	101.89
580.084	101.86
580.506	101.76
580.928	101.56
581.35	101.35
581.772	101.06
582.194	100.74
582.616	100.38
583.038	100.09
583.46	99.72
583.882	99.14
584.303	98.43
584.725	97.5
585.147	96.51
585.568	95.65
585.99	94.95
586.411	94.41
586.833	93.87
587.254	93.41
587.675	92.94
588.096	92.53
588.518	92.24
588.939	92.17
589.36	92.26
589.781	92.45
590.202	92.52
590.623	92.48
591.043	92.3
591.464	92.1
591.885	91.81
592.305	91.5
592.726	91.18
593.147	90.87
593.567	90.48
593.987	90.1
594.408	89.72
594.828	89.37
595.248	89.01
595.669	88.61
596.089	88.18
596.509	87.69
596.929	87.17
597.349	86.58
597.769	86.01
598.189	85.49
598.608	85.02
599.028	84.62
599.448	84.26
599.867	83.9
600.287	83.58
600.706	83.19
601.126	82.9
601.545	82.59
601.965	82.34
602.384	82.08
602.803	81.81
603.222	81.49
603.641	81.13
604.061	80.72
604.48	80.23
604.898	79.76
605.317	79.29
605.736	78.76
606.155	78.25
606.574	77.73
606.992	77.24
607.411	76.73
607.829	76.22
608.248	75.72
608.666	75.23
609.085	74.73
609.503	74.21
609.921	73.8
610.339	73.39
610.758	72.98
611.176	72.54
611.594	72.04
612.012	71.5
612.43	70.99
612.847	70.5
613.265	70.09
613.683	69.75
614.101	69.43
614.518	69.11
614.936	68.83
615.353	68.55
615.771	68.34
616.188	68.2
616.606	68.09
617.023	68.01
617.44	67.85
617.857	67.63
618.274	67.38
618.691	67.09
619.108	66.76
619.525	66.43
619.942	66.05
620.359	65.65
620.776	65.21
621.192	64.76
621.609	64.34
622.026	63.98
622.442	63.7
622.859	63.38
623.275	63.11
623.691	62.8
624.108	62.5
624.524	62.25
624.94	62.04
625.356	61.78
625.772	61.62
626.188	61.43
626.604	61.21
627.02	60.95
627.436	60.73
627.852	60.51
628.268	60.41
628.683	60.33
629.099	60.26
629.514	60.14
629.93	60.1
630.345	60.03
630.761	59.99
631.176	59.95
631.591	59.89
632.007	59.83
632.422	59.82
632.837	59.75
633.252	59.64
633.667	59.54
634.082	59.49
634.497	59.38
634.911	59.26
635.326	59.05
635.741	58.84
636.155	58.61
636.57	58.37
636.984	58.05
637.399	57.74
637.813	57.47
638.228	57.17
638.642	56.85
639.056	56.53
639.47	56.22
639.884	55.96
640.298	55.74
640.712	55.49
641.126	55.26
641.54	55.06
641.954	54.82
642.368	54.53
642.781	54.23
643.195	53.9
643.609	53.62
644.022	53.35
644.436	53.08
644.849	52.74
645.262	52.42
645.676	52.08
646.089	51.84
646.502	51.63
646.915	51.52
647.328	51.35
647.741	51.27
648.154	51.18
648.567	51.1
648.98	51.03
649.393	51.04
649.805	51.04
650.218	51.07
650.631	50.96
651.043	50.76
651.456	50.27
651.868	49.65
652.28	48.92
652.693	48.28
653.105	47.79
653.517	47.39
653.929	47.1
654.341	46.9
654.753	46.75
655.165	46.68
655.577	46.69
655.989	46.98
656.401	47.42
656.813	47.98
657.224	48.48
657.636	48.82
658.047	49.06
658.459	49.15
658.87	49.18
659.282	49.16
659.693	49.09
660.104	49.01
660.515	48.91
660.926	48.87
661.338	48.79
661.749	48.64
662.159	48.52
662.57	48.38
662.981	48.25
663.392	48.14
663.803	48.02
664.213	47.96
664.624	47.9
665.035	47.8
665.445	47.7
665.855	47.55
666.266	47.46
666.676	47.32
667.086	47.2
667.497	47.09
667.907	46.96
668.317	46.86
668.727	46.73
669.137	46.64
669.547	46.56
669.956	46.45
670.366	46.39
670.776	46.3
671.186	46.26
671.595	46.25
672.005	46.22
672.414	46.19
672.824	46.16
673.233	46.18
673.642	46.14
674.052	46.13
674.461	46.14
674.87	46.16
675.279	46.2
675.688	46.22
676.097	46.26
676.506	46.33
676.915	46.41
677.323	46.5
677.732	46.59
678.141	46.67
678.549	46.76
678.958	46.88
679.366	46.96
679.775	47.06
680.183	47.12
680.592	47.19
681	47.27
681.408	47.32
681.816	47.31
682.224	47.11
682.632	46.69
683.04	46.03
683.448	45.36
683.856	44.8
684.264	44.35
684.671	43.94
685.079	43.6
685.487	43.29
685.894	43.1
686.302	43.06
686.709	43.26
687.116	43.84
687.524	44.74
687.931	45.73
688.338	46.75
688.745	47.74
689.152	48.8
689.559	49.81
689.966	50.83
690.373	51.86
690.78	52.86
691.187	53.88
691.593	54.85
692	55.85
692.407	56.87
692.813	57.87
693.22	58.85
693.626	59.82
694.032	60.8
694.439	61.85
694.845	62.83
695.251	63.82
695.657	64.8
696.063	65.75
696.469	66.63
696.875	67.43
697.281	68.22
697.687	69.05
698.093	69.85
698.498	70.72
698.904	71.56
699.31	72.44
699.715	73.4
700.12	74.34
700.526	75.36
700.931	76.38
701.337	77.47
701.742	78.52
702.147	79.56
702.552	80.62
702.957	81.64
703.362	82.62
703.767	83.6
704.172	84.51
704.577	85.38
704.981	86.18
705.386	86.99
705.791	87.81
706.195	88.56
706.6	89.37
707.004	90.16
707.408	90.89
707.813	91.62
708.217	92.27
708.621	92.92
709.025	93.62
709.43	94.25
709.834	94.92
710.237	95.51
710.641	96.15
711.045	96.67
711.449	97.18
711.853	97.64
712.256	98.01
712.66	98.22
713.064	98.25
713.467	98.07
713.87	97.78
714.274	97.33
714.677	96.73
715.08	96.1
715.484	95.5
715.887	94.93
716.29	94.51
716.693	94.31
717.096	94.55
717.499	95.12
717.901	95.91
718.304	96.87
718.707	97.86
719.109	98.93
719.512	99.93
719.915	100.85
720.317	101.71
720.719	102.43
721.122	102.98
721.524	103.31
721.926	103.46
722.328	103.57
722.731	103.61
723.133	103.73
723.535	103.89
723.937	104.07
724.338	104.29
724.74	104.45
725.142	104.54
725.544	104.77
725.945	104.96
726.347	105.23
726.748	105.38
727.15	105.61
727.551	105.89
727.952	106.25
728.354	106.71
728.755	107.22
729.156	107.85
729.557	108.6
729.958	109.28
730.359	109.85
730.76	110.32
731.161	110.82
731.562	111.25
731.962	111.58
732.363	111.84
732.763	112.09
733.164	112.22
733.564	112.29
733.965	112.27
734.365	112.08
734.766	111.98
735.166	111.8
735.566	111.66
735.966	111.62
736.366	111.54
736.766	111.44
737.166	111.27
737.566	111.15
737.966	111.04
738.365	110.96
738.765	111.06
739.165	111.07
739.564	111.22
739.964	111.28
740.363	111.28
740.763	111.28
741.162	111.31
741.561	111.43
741.96	111.56
742.36	111.62
742.759	111.69
743.158	111.68
743.557	111.72
743.955	111.71
744.354	111.72
744.753	111.66
745.152	111.6
745.55	111.53
745.949	111.36
746.348	111.16
746.746	111.01
747.144	110.81
747.543	110.6
747.941	110.38
748.339	110.18
748.737	110.01
749.136	109.84
749.534	109.71
749.932	109.55
750.33	109.43
750.727	109.28
751.125	109.12
751.523	108.88
751.921	108.72
752.318	108.53
752.716	108.28
753.113	108.01
753.511	107.72
753.908	107.41
754.305	106.98
754.703	106.18
755.1	104.59
755.497	101.68
755.894	97.51
756.291	92.27
756.688	86.69
757.085	81.36
757.482	76.49
757.878	72.01
758.275	67.58
758.672	63.13
759.068	59.01
759.465	55.75
759.861	54.09
760.258	54.09
760.654	55.51
761.05	57.62
761.447	59.88
761.843	62.03
762.239	64.21
762.635	66.73
763.031	69.71
763.427	73.06
763.822	76.58
764.218	80.01
764.614	83.27
765.01	86.29
765.405	89.05
765.801	91.54
766.196	93.71
766.592	95.53
766.987	96.98
767.382	98.11
767.778	98.91
768.173	99.53
768.568	99.98
768.963	100.33
769.358	100.58
769.753	100.76
770.148	100.82
770.542	100.78
770.937	100.63
771.332	100.56
771.726	100.49
772.121	100.43
772.515	100.33
772.91	100.24
773.304	100.08
773.699	99.83
774.093	99.56
774.487	99.39
774.881	99.27
775.275	99.15
775.669	98.94
776.063	98.66
776.457	98.34
776.851	98.04
777.245	97.78
777.638	97.54
778.032	97.37
778.425	97.2
778.819	96.95
779.212	96.61
779.606	96.32
779.999	96
780.392	95.73
780.786	95.52
781.179	95.28
781.572	94.99
781.965	94.76
782.358	94.43
782.751	94.08
783.143	93.76
783.536	93.56
783.929	93.26
784.322	92.97
784.714	92.63
785.107	92.28
785.499	91.9
785.891	91.47
786.284	90.96
786.676	90.53
787.068	90.1
787.46	89.65
787.852	89.14
788.245	88.67
788.636	88.17
789.028	87.67
789.42	87.13
789.812	86.6
790.204	86.07
790.595	85.57
790.987	85.14
791.378	84.72
791.77	84.35
792.161	83.94
792.553	83.57
792.944	83.3
793.335	83.08
793.726	82.79
794.117	82.51
794.508	82.29
794.899	82.06
795.29	81.73
795.681	81.38
796.072	80.97
796.463	80.6
796.853	80.19
797.244	79.74
797.634	79.24
798.025	78.82
798.415	78.42
798.806	77.97
799.196	77.51
799.586	77.04
799.976	76.63
800.366	76.18
800.756	75.72
801.146	75.29
801.536	74.84
801.926	74.46
802.316	74.07
802.706	73.66
803.095	73.24
803.485	72.86
803.874	72.38
804.264	71.96
804.653	71.52
805.043	71.05
805.432	70.5
805.821	69.99
806.21	69.45
806.599	68.93
806.988	68.37
807.377	67.86
807.766	67.29
808.155	66.79
808.544	66.14
808.933	65.5
809.321	64.89
809.71	64.26
810.098	63.53
810.487	62.75
810.875	61.87
811.264	61.03
811.652	60.08
812.04	59.12
812.428	58.15
812.816	57.3
813.204	56.45
813.592	55.63
813.98	54.87
814.368	54.18
814.756	53.54
815.144	52.96
815.531	52.41
815.919	52.03
816.306	51.77
816.694	51.61
817.081	51.42
817.469	51.27
817.856	51.06
818.243	50.68
818.63	50.28
819.017	49.8
819.404	49.39
819.791	49.07
820.178	48.76
820.565	48.43
820.952	48.04
821.339	47.67
821.725	47.32
822.112	47.08
822.498	47
822.885	46.89
823.271	46.83
823.657	46.7
824.044	46.43
824.43	46.14
824.816	45.78
825.202	45.47
825.588	45.12
825.974	44.77
826.36	44.35
826.746	43.98
827.132	43.67
827.517	43.36
827.903	43.09
828.289	42.83
828.674	42.55
829.06	42.3
829.445	42.03
829.83	41.79
830.216	41.58
830.601	41.4
830.986	41.2
831.371	41.04
831.756	40.86
832.141	40.71
832.526	40.59
832.911	40.5
833.295	40.39
833.68	40.27
834.065	40.16
834.449	40
834.834	39.84
835.218	39.68
835.603	39.51
835.987	39.37
836.371	39.24
836.755	39.07
837.139	38.91
837.524	38.74
837.908	38.55
838.291	38.37
838.675	38.22
839.059	38.06
839.443	37.91
839.827	37.72
840.21	37.53
840.594	37.34
840.977	37.16
841.361	36.99
841.744	36.84
842.127	36.69
842.511	36.56
842.894	36.38
843.277	36.27
843.66	36.12
844.043	36
844.426	35.89
844.809	35.73
845.191	35.55
845.574	35.29
845.957	35.03
846.339	34.8
846.722	34.61
847.104	34.45
847.487	34.25
847.869	34.05
848.252	33.85
848.634	33.68
849.016	33.54
849.398	33.32
849.78	33.11
850.162	32.86
850.544	32.62
850.926	32.37
851.307	32.17
851.689	31.98
852.071	31.85
852.452	31.72
852.834	31.57
853.215	31.46
853.597	31.42
853.978	31.45
854.359	31.54
854.741	31.61
855.122	31.66
855.503	31.63
855.884	31.61
856.265	31.56
856.646	31.47
857.026	31.41
857.407	31.29
857.788	31.22
858.169	31.12
858.549	31.02
858.93	30.92
859.31	30.8
859.69	30.7
860.071	30.58
860.451	30.46
860.831	30.35
861.211	30.19
861.591	30.04
861.971	29.79
862.351	29.57
862.731	29.33
863.111	29.14
863.491	28.95
863.87	28.79
864.25	28.65
864.629	28.49
865.009	28.37
865.388	28.27
865.768	28.2
866.147	28.25
866.526	28.28
866.905	28.3
867.284	28.32
867.663	28.3
868.042	28.28
868.421	28.22
868.8	28.2
869.179	28.13
869.558	28.1
869.936	28.05
870.315	27.99
870.693	27.91
871.072	27.84
871.45	27.75
871.828	27.69
872.207	27.61
872.585	27.55
872.963	27.49
873.341	27.43
873.719	27.38
874.097	27.33
874.475	27.28
874.853	27.22
875.23	27.18
875.608	27.13
875.986	27.06
876.363	27
876.741	26.94
877.118	26.89
877.495	26.81
877.873	26.74
878.25	26.64
878.627	26.57
879.004	26.5
879.381	26.43
879.758	26.37
880.135	26.33
880.512	26.28
880.889	26.24
881.265	26.18
881.642	26.14
882.019	26.07
882.395	26.03
882.772	25.93
883.148	25.86
883.524	25.79
883.901	25.73
884.277	25.65
884.653	25.6
885.029	25.52
885.405	25.44
885.781	25.4
886.157	25.36
886.532	25.31
886.908	25.28
887.284	25.26
887.659	25.22
888.035	25.18
888.411	25.14
888.786	25.06
889.161	25.01
889.537	24.95
889.912	24.9
890.287	24.83
890.662	24.74
891.037	24.64
891.412	24.51
891.787	24.4
892.162	24.27
892.536	24.14
892.911	24.02
893.286	23.88
893.66	23.74
894.035	23.58
894.409	23.41
894.784	23.26
895.158	23.09
895.532	22.92
895.906	22.77
896.281	22.64
896.655	22.5
897.029	22.36
897.402	22.25
897.776	22.14
898.15	22.04
898.524	21.97
898.898	21.93
899.271	21.93
899.645	21.97
900.018	21.97
900.392	22.01
900.765	22.06
901.138	22.14
901.511	22.19
901.884	22.24
902.258	22.31
902.631	22.38
903.003	22.38
903.376	22.38
903.749	22.36
904.122	22.32
904.495	22.23
904.867	22.16
905.24	22.06
905.612	21.98
905.985	21.87
906.357	21.78
906.729	21.66
907.102	21.59
907.474	21.52
907.846	21.47
908.218	21.43
908.59	21.39
908.962	21.38
909.334	21.36
909.705	21.3
910.077	21.27
910.449	21.24
910.82	21.23
911.192	21.21
911.563	21.2
911.935	21.14
912.306	21.12
912.677	21.11
913.048	21.05
913.419	21
913.79	21
914.161	20.94
914.532	20.92
914.903	20.9
915.274	20.88
915.645	20.87
916.015	20.89
916.386	20.88
916.756	20.86
917.127	20.92
917.497	20.99
917.868	21.02
918.238	21.08
918.608	21.13
918.978	21.13
919.348	21.14
919.718	21.14
920.088	21.11
920.458	21.12
920.828	21.13
921.198	21.07
921.567	21.03
921.937	21.01
922.306	20.99
922.676	20.96
923.045	20.93
923.415	20.9
923.784	20.89
924.153	20.88
924.522	20.84
924.891	20.77
925.26	20.74
925.629	20.64
925.998	20.57
926.367	20.44
926.736	20.31
927.104	20.2
927.473	20.06
927.842	19.86
928.21	19.67
928.578	19.44
928.947	19.25
929.315	19.06
929.683	18.86
930.051	18.64
930.42	18.41
930.788	18.22
931.156	18.04
931.523	17.83
931.891	17.67
932.259	17.52
932.627	17.38
932.994	17.29
933.362	17.17
933.729	17.09
934.097	17.03
934.464	17.05
934.831	17.08
935.199	17.13
935.566	17.24
935.933	17.33
936.3	17.45
936.667	17.6
937.034	17.71
937.401	17.8
937.767	18.03
938.134	18.18
938.501	18.36
938.867	18.51
939.234	18.67
939.6	18.78
939.967	18.95
940.333	19.13
940.699	19.25
941.065	19.31
941.431	19.36
941.798	19.35
942.163	19.42
942.529	19.39
942.895	19.35
943.261	19.24
943.627	19.26
943.992	19.17
944.358	19.05
944.723	18.98
945.089	19.03
945.454	19.12
945.82	19.12
946.185	19.13
946.55	19.17
946.915	19.21
947.28	19.2
947.645	19.16
948.01	19.21
948.375	19.22
948.74	19.19
949.104	19.19
949.469	19.12
949.834	19.07
950.198	18.99
950.562	18.9
950.927	18.83
951.291	18.82
951.655	18.78
952.02	18.66
952.384	18.68
952.748	18.65
953.112	18.53
953.476	18.47
953.839	18.44
954.203	18.39
954.567	18.36
954.931	18.33
955.294	18.34
955.658	18.25
956.021	18.26
956.385	18.18
956.748	18.17
957.111	18.2
957.474	18.21
957.837	18.22
958.2	18.23
958.563	18.28
958.926	18.29
959.289	18.22
959.652	18.25
960.015	18.24
960.377	18.25
960.74	18.24
961.102	18.21
961.465	18.22
961.827	18.13
962.189	18.09
962.552	18.05
962.914	18.06
963.276	18.08
963.638	18.07
964	18.05
964.362	18.07
964.724	18.12
965.085	18.16
965.447	18.15
965.809	18.22
966.17	18.3
966.532	18.37
966.893	18.44
967.255	18.48
967.616	18.53
967.977	18.64
968.338	18.66
968.699	18.72
969.061	18.78
969.421	18.81
969.782	18.87
970.143	18.88
970.504	18.84
970.865	18.76
971.225	18.78
971.586	18.84
971.946	18.77
972.307	18.77
972.667	18.76
973.027	18.76
973.388	18.75
973.748	18.72
974.108	18.72
974.468	18.73
974.828	18.79
975.188	18.73
975.548	18.69
975.907	18.73
976.267	18.76
976.627	18.72
976.986	18.66
977.346	18.71
977.705	18.71
978.064	18.77
978.424	18.85
978.783	18.89
979.142	18.99
979.501	18.99
979.86	18.97
980.219	18.89
980.578	18.86
980.937	18.95
981.296	19.02
981.654	19.1
982.013	19.1
982.371	19.04
982.73	19.01
983.088	18.98
983.447	19.07
983.805	19.16
984.163	19.28
984.521	19.34
984.879	19.42
985.237	19.37
985.595	19.38
985.953	19.36
986.311	19.46
986.669	19.53
987.026	19.5
987.384	19.44
987.741	19.53
988.099	19.48
988.456	19.63
988.814	19.57
989.171	19.69
989.528	19.65
989.885	19.63
990.242	19.56
990.599	19.61
990.956	19.65
991.313	19.65
991.67	19.69
992.027	19.74
992.383	19.65
992.74	19.59
993.096	19.5
993.453	19.63
993.809	19.78
994.165	19.82
994.522	19.7
994.878	19.75
995.234	19.78
995.59	19.69
995.946	19.71
996.302	19.79
996.658	19.99
997.013	20.03
997.369	19.9
997.725	19.86
998.08	19.83
998.436	19.95
998.791	19.98
999.147	20.02
999.502	20.06
999.857	20.19
1000.212	20.08
1000.567	19.98
1000.922	19.92
1001.277	19.95
1001.632	19.94
1001.987	19.95
1002.342	20.03
1002.696	20.02
1003.051	20.02
1003.406	19.99
1003.76	19.94
1004.114	20.06
1004.469	20.06
1004.823	20.12
1005.177	20.39
1005.531	20.41
1005.885	20.52
1006.239	20.49
1006.593	20.59
1006.947	20.62
1007.301	20.7
1007.655	20.73
1008.008	20.69
1008.362	20.78
1008.715	20.94
1009.069	20.77
1009.422	20.8
1009.776	20.95
1010.129	20.81
1010.482	20.89
1010.835	21.06
1011.188	21.06
1011.541	20.93
1011.894	20.98
1012.247	20.9
1012.6	20.83
1012.952	20.9
1013.305	20.87
1013.657	20.93
1014.01	21.38
1014.362	21.45
1014.715	21.41
1015.067	21.69
1015.419	21.92
1015.771	22.09
1016.123	22.19
1016.475	22.4
1016.827	22.69
1017.179	23
1017.531	23.08
1017.883	23.16
1018.234	23.08
1018.586	23.21
1018.938	22.86
1019.289	22.75
1019.64	23.03
1019.992	23.17
1020.343	23.03
1020.694	22.6
1021.045	22.4
1021.396	22.29
1021.747	22.23
1022.098	22.51
1022.449	22.64
1022.8	22.77
1023.151	22.89
1023.501	22.9
1023.852	22.99
1024.202	23.45
1024.553	24
1024.903	24.14
1025.253	24.16
1025.604	24.37
1025.954	24.2
1026.304	24.76
1026.654	25.28
1027.004	25.92
1027.354	25.67
1027.703	26.08
1028.053	26
1028.403	25.94
1028.753	26.4
1029.102	26.66
1029.452	26.59
1029.801	26.98
1030.15	26.62
1030.499	26.51
897.758	-23.12
901.051	-15.11
904.343	-17.27
907.636	-16.46
910.928	-12.35
914.22	-15.57
917.511	-18.32
920.803	-14.5
924.094	-10.15
927.384	-12.77
930.675	-8.74
933.965	-7.93
937.255	-9.78
940.544	-7.23
943.834	-7.46
947.123	-8.03
950.411	-3.25
953.7	-0.38
956.988	3.22
960.276	1.7
963.563	5.9
966.851	8.09
970.138	10.44
973.424	11.31
976.711	14.68
979.997	15.7
983.283	14.22
986.568	14.08
989.853	19.36
993.138	18.44
996.423	20.26
999.708	19.75
1002.992	18.83
1006.275	21.08
1009.559	21.88
1012.842	21.65
1016.125	23.45
1019.408	25.14
1022.69	26.54
1025.972	24.46
1029.254	25.33
1032.536	26.39
1035.817	26.43
1039.098	28.21
1042.379	28.2
1045.659	29.55
1048.939	28.51
1052.219	29.35
1055.498	31.44
1058.778	31.71
1062.057	31.79
1065.335	32.55
1068.614	31.36
1071.892	32.79
1075.17	32.57
1078.447	32.55
1081.724	32.11
1085.001	31.95
1088.278	32.46
1091.554	31.07
1094.83	32.05
1098.106	32.39
1101.382	32.55
1104.657	34.13
1107.932	33.46
1111.206	34.19
1114.481	34.7
1117.755	34.03
1121.029	34.77
1124.302	34.96
1127.575	35.19
1130.848	34.44
1134.121	33.52
1137.393	33.61
1140.665	32.91
1143.937	33.07
1147.208	32.85
1150.48	32.88
1153.75	32.1
1157.021	33.21
1160.291	33.08
1163.561	32.23
1166.831	33.6
1170.101	34.3
1173.37	34.2
1176.639	34.05
1179.907	34.63
1183.176	33.94
1186.444	33.26
1189.711	34.22
1192.979	32.64
1196.246	34.04
1199.513	34.47
1202.78	33.51
1206.046	33.2
1209.312	34.41
1212.578	34.21
1215.843	33.74
1219.108	33.66
1222.373	34.15
1225.638	34.09
1228.902	34.91
1232.166	32.08
1235.43	31.22
1238.693	30.7
1241.956	29.97
1245.219	28.24
1248.482	29.91
1251.744	28.81
1255.006	30.38
1258.268	29.63
1261.529	29.84
1264.79	30.47
1268.051	30.88
1271.312	32.7
1274.572	33.05
1277.832	34.4
1281.092	34.35
1284.351	34.21
1287.61	34.62
1290.869	34.2
1294.128	34.66
1297.386	35.43
1300.644	34.89
1303.902	34.59
1307.159	34.52
1310.416	33.97
1313.673	33.75
1316.93	33.48
1320.186	33.21
1323.442	32.87
1326.697	31.41
1329.953	30.39
1333.208	28.35
1336.463	26.97
1339.717	27.48
1342.972	26.56
1346.226	24.94
1349.479	24.23
1352.733	23.59
1355.986	20.51
1359.238	19.89
1362.491	20.3
1365.743	18.36
1368.995	20.37
1372.247	19.74
1375.498	18.03
1378.749	13.75
1382	14.64
1385.251	12.22
1388.501	13.28
1391.751	13.24
1395	12.09
1398.25	10.82
1401.499	10.51
1404.748	6.73
1407.996	7.72
1411.244	8.88
1414.492	9.02
1417.74	7.3
1420.987	7.59
1424.234	4.43
1427.481	4.37
1430.728	4.87
1433.974	6.5
1437.22	5.58
1440.465	6.01
1443.711	5.32
1446.956	5.49
1450.201	7.24
1453.445	7.85
1456.689	8.85
1459.933	9.82
1463.177	9.63
1466.42	9.6
1469.663	8.77
1472.906	9.8
1476.148	10.12
1479.391	11.13
1482.633	11.03
1485.874	11.47
1489.115	11.99
1492.356	12.94
1495.597	13.05
1498.838	14.33
1502.078	15.04
1505.318	15.48
1508.557	15.97
1511.797	16.63
1515.036	17.72
1518.274	18.25
1521.513	18.49
1524.751	19.18
1527.989	19.77
1531.227	19.93
1534.464	20.86
1537.701	20.99
1540.938	21.35
1544.174	22.14
1547.41	22.41
1550.646	22.78
1553.882	23.29
1557.117	23.55
1560.352	23.65
1563.587	23.46
1566.821	23.86
1570.055	24.31
1573.289	25.06
1576.523	25.44
1579.756	25.02
1582.989	25.59
1586.222	25.23
1589.454	25.92
1592.686	26.63
1595.918	26.6
1599.15	27.36
1602.381	27.48
1605.612	27.92
1608.843	27.59
1612.073	27.43
1615.303	28.53
1618.533	28.11
1621.762	28.78
1624.992	27.81
1628.221	27.34
1631.449	28.11
1634.678	28.42
1637.906	28.38
1641.134	28.06
1644.361	28.33
1647.588	28.82
1650.815	28.64
1654.042	29.38
1657.269	28.93
1660.495	29.81
1663.72	30.06
1666.946	29.4
1670.171	28.95
1673.396	28.91
1676.621	28.91
1679.845	29.26
1683.069	28.48
1686.293	28.04
1689.517	28.05
1692.74	27.97
1695.963	27.7
1699.185	27.52
1702.408	27.64
1705.63	27.64
1708.852	28.03
1712.073	27.21
1715.294	26.6
1718.515	27.35
1721.736	27.41
1724.956	26.71
1728.176	26.64
1731.396	26.37
1734.616	26.28
1737.835	25.95
1741.054	24.83
1744.272	25.46
1747.491	25.87
1750.709	26
1753.927	25.33
1757.144	25.42
1760.361	25.47
1763.578	24.99
1766.795	25.06
1770.011	24.93
1773.227	24.62
1776.443	25.36
1779.658	23.67
1782.874	23.45
1786.089	22.76
1789.303	22.79
1792.518	22.23
1795.732	22.36
1798.945	22.53
1802.159	22.42
1805.372	21.9
1808.585	22.18
1811.797	22.13
1815.01	22.59
1818.222	22.84
1821.434	22.41
1824.645	21.78
1827.856	21.5
1831.067	20.77
1834.278	21.44
1837.488	21.28
1840.698	20.79
1843.908	20.17
1847.117	20.04
1850.326	18.69
1853.535	18.93
1856.744	18.74
1859.952	17.94
1863.16	17.34
1866.368	16.33
1869.575	14.55
1872.782	13.2
1875.989	10.53
1879.196	10.6
1882.402	7.48
1885.608	7.86
1888.814	4.74
1892.019	1.9
1895.224	0.64
1898.429	-0.64
1901.634	-1.32
1904.838	-3.17
1908.042	-4.34
1911.246	-3.7
1914.449	-5.44
1917.652	-4.54
1920.855	-5.9
1924.058	-5.98
1927.26	-5.91
1930.462	-6.19
1933.664	-4.97
1936.865	-5.76
1940.066	-5.73
1943.267	-6.31
1946.467	-6.25
1949.668	-6.12
1952.868	-6.2
1956.067	-6.69
1959.267	-4.65
1962.466	-4.99
1965.665	-3.9
1968.863	-3.87
1972.061	-4.03
1975.259	-3.64
1978.457	-3.78
1981.654	-2.65
1984.852	-3.25
1988.048	-3.01
1991.245	-2.72
1994.441	-3.8
1997.637	-3.23
2000.833	-2.54
2004.028	-4.14
2007.223	-4.46
2010.418	-3.44
2013.613	-2.99
2016.807	-4.39
2020.001	-4.82
2023.194	-3.37
2026.388	-3.83
2029.581	-5.17
2032.774	-5.94
2035.966	-7.58
2039.158	-6.35
2042.35	-7.28
2045.542	-7.83
2048.733	-6.86
2051.924	-7.42
2055.115	-7.94
2058.306	-9.43
2061.496	-10.71
2064.686	-8.82
2067.875	-6.3
2071.065	-5.35
2074.254	-5.54
2077.442	-5.31
2080.631	-6.94
2083.819	-8.09
2087.007	-7.07
2090.195	-5.71
2093.382	-8.12
2096.569	-6.99
2099.756	-5.4
2102.942	-8.55
2106.128	-9.7
2109.314	-6.6
2112.5	-5.56
2115.685	-5.7
2118.87	-5.5
2122.055	-5.56
2125.239	-8.01
2128.424	-5.81
2131.608	-5.05
2134.791	-8.66
2137.974	-6.37
2141.157	-4.99
2144.34	-9.01
2147.523	-7.46
2150.705	-6.67
2153.887	-5.88
2157.068	-5.81
2160.25	-5.82
2163.431	-4.26
2166.611	-5.6
2169.792	-4.33
2172.972	-4.41
2176.152	-3.92
2179.331	-5.85
2182.511	-7.87
2185.69	-8.87
2188.868	-12.99
2192.047	-13.3
2195.225	-9.55
2198.403	-16.34
2201.58	-12.38
2204.758	-12.04
2207.935	-14.64
2211.111	-20.16
2214.288	-16.86
2217.464	-15.48
2220.64	-13.44
2223.815	-12.71
2226.991	-12.74
2230.166	-14.41
2233.34	-12.86
2236.515	-17.27
2239.689	-19.34
2242.863	-19.43
2246.036	-16.48
2249.209	-22.11
2252.382	-21.77
2255.555	-26.14
2258.727	-23.81
2261.9	-30.1
2265.071	-31.3
2268.243	-28.78
2271.414	-32.24
2274.585	-34.44
2277.756	-34.18
2280.926	-40.36
2284.096	-36.04
2287.266	-36.08
2290.436	-34.87
2293.605	-35.93
2296.774	-33.54
2299.942	-33.78
2303.111	-32.29
2306.279	-33.11
2309.447	-31.96
2312.614	-32.83
2315.781	-33.92
2318.948	-35.12
2322.115	-36.5
2325.281	-48.36
2328.447	-48.26
2331.613	-48.17
2334.779	-49.47
2337.944	-58.7
2341.109	-59.74
2344.274	-57.62
2347.438	-64.41
2350.602	-58.64
2353.766	-66.94
2356.929	-69.13
2360.092	-59.73
2363.255	-62.8
2366.418	-64.2
2369.58	-71.05
2372.742	-53.33
2375.904	-52.56
2379.066	-58.13
2382.227	-52.17
2385.388	-61.55
2388.548	-49.8
2391.709	-45.36
2394.869	-47.17
2398.029	-40.21
2401.188	-45.35
2404.347	-43.69
2407.506	-60.77
2410.665	-48.99
2413.823	-51.25
2416.981	-53.43
2420.139	-44.72
2423.296	-51.94
2426.453	-66.04
2429.61	-60.2
2432.767	-73.57
2435.923	-69.1
2439.079	-60.91
2442.235	-66.38
2445.391	-72.94
2448.546	-68.9
2451.701	-78.06
2454.855	-87.12
2458.009	-71.88
2461.163	-67.9
2464.317	-72.34
2467.471	-71.12
2470.624	-78.04
2473.777	-83.3
2476.929	-65.05
2480.082	-77.73
2483.234	-88.01
2486.385	-92.43
2489.537	-93.45
2492.688	-105.05
2495.839	-102.07
2498.989	-103.38
2502.14	-98.53
2505.29	-85.87
2508.439	-99.1
2511.589	-111.44
2514.738	-113.48
2517.887	-113.61
2521.035	-100.79
2524.183	-101.15
2527.331	-102.97
2530.479	-102.28
2533.627	-106.42
