Data from C_1_DIV_IL_4n_007_Splice17_06.txt Node
Date: Sat Feb 29 13:09:21 EST 2020
User: sa697716
Spectrometer: FLMS03696
Trigger mode: 0
Integration Time (sec): 3.180400E-1
Scans to average: 20
Electric dark correction enabled: true
Nonlinearity correction enabled: true
Boxcar width: 5
XAxis mode: Wavelengths
Number of Pixels in Spectrum: 2048
>>>>>Begin Spectral Data<<<<<
187.83	61.62
188.298	54.45
188.766	56.3
189.233	55.85
189.701	74.55
190.169	70.89
190.636	89
191.104	94.29
191.571	435.33
192.039	371
192.506	-404.34
192.974	1710
193.441	601.84
193.908	6.51
194.375	16.07
194.842	216.31
195.31	68.05
195.777	91.28
196.244	22.62
196.711	24.82
197.177	20.37
197.644	20.05
198.111	18.17
198.578	19.3
199.045	20.41
199.511	19.79
199.978	20.09
200.445	20.59
200.911	20.63
201.378	21.03
201.844	21.3
202.31	22.22
202.777	22.98
203.243	24.05
203.709	24.63
204.176	24
204.642	24.77
205.108	24.76
205.574	25.31
206.04	26.01
206.506	25.72
206.972	25.51
207.438	25.44
207.903	25.34
208.369	24.62
208.835	24.62
209.301	24.78
209.766	24.85
210.232	24.8
210.697	24.66
211.163	24.38
211.628	24.38
212.094	24.48
212.559	24.34
213.024	24.01
213.49	24
213.955	23.87
214.42	23.64
214.885	23.2
215.35	23.31
215.815	22.9
216.28	22.72
216.745	22.4
217.21	21.89
217.675	21.5
218.14	21.12
218.604	20.66
219.069	20.17
219.534	19.79
219.998	19.57
220.463	19.24
220.927	19.02
221.392	18.71
221.856	18.49
222.32	18.25
222.785	18.02
223.249	17.72
223.713	17.51
224.177	17.32
224.642	17.14
225.106	16.88
225.57	16.64
226.034	16.4
226.497	16.17
226.961	15.95
227.425	15.72
227.889	15.52
228.353	15.36
228.816	15.16
229.28	14.98
229.744	14.8
230.207	14.61
230.671	14.43
231.134	14.26
231.597	14.09
232.061	13.91
232.524	13.78
232.987	13.59
233.45	13.42
233.914	13.26
234.377	13.1
234.84	12.94
235.303	12.8
235.766	12.65
236.229	12.5
236.691	12.39
237.154	12.26
237.617	12.12
238.08	12
238.542	11.89
239.005	11.77
239.468	11.64
239.93	11.53
240.393	11.41
240.855	11.3
241.317	11.2
241.78	11.1
242.242	10.99
242.704	10.88
243.166	10.78
243.629	10.66
244.091	10.56
244.553	10.47
245.015	10.38
245.477	10.27
245.939	10.18
246.4	10.07
246.862	9.98
247.324	9.89
247.786	9.79
248.247	9.71
248.709	9.62
249.17	9.55
249.632	9.44
250.093	9.32
250.555	9.24
251.016	9.16
251.477	9.08
251.939	8.99
252.4	8.92
252.861	8.85
253.322	8.76
253.783	8.71
254.244	8.64
254.705	8.59
255.166	8.55
255.627	8.5
256.088	8.44
256.549	8.37
257.009	8.32
257.47	8.27
257.931	8.22
258.391	8.16
258.852	8.1
259.312	8.04
259.773	7.98
260.233	7.92
260.694	7.86
261.154	7.79
261.614	7.74
262.074	7.69
262.534	7.61
262.994	7.56
263.455	7.52
263.915	7.47
264.374	7.41
264.834	7.37
265.294	7.34
265.754	7.29
266.214	7.26
266.673	7.22
267.133	7.17
267.593	7.14
268.052	7.09
268.512	7.05
268.971	7.01
269.431	6.98
269.89	6.94
270.349	6.9
270.809	6.87
271.268	6.84
271.727	6.81
272.186	6.78
272.645	6.74
273.104	6.71
273.563	6.68
274.022	6.65
274.481	6.61
274.94	6.58
275.399	6.54
275.857	6.51
276.316	6.47
276.775	6.43
277.233	6.4
277.692	6.36
278.15	6.33
278.609	6.3
279.067	6.27
279.525	6.24
279.984	6.21
280.442	6.18
280.9	6.15
281.358	6.12
281.816	6.09
282.274	6.07
282.732	6.06
283.19	6.04
283.648	6.03
284.106	6.01
284.564	6
285.021	5.98
285.479	5.96
285.937	5.96
286.394	5.94
286.852	5.93
287.309	5.9
287.767	5.88
288.224	5.85
288.682	5.82
289.139	5.8
289.596	5.76
290.053	5.73
290.511	5.69
290.968	5.65
291.425	5.61
291.882	5.58
292.339	5.55
292.796	5.52
293.252	5.49
293.709	5.47
294.166	5.44
294.623	5.41
295.079	5.39
295.536	5.36
295.992	5.34
296.449	5.32
296.905	5.29
297.362	5.27
297.818	5.24
298.274	5.22
298.731	5.19
299.187	5.18
299.643	5.16
300.099	5.14
300.555	5.11
301.011	5.08
301.467	5.06
301.923	5.05
302.379	5.02
302.835	5.01
303.291	4.98
303.746	4.96
304.202	4.93
304.658	4.91
305.113	4.9
305.569	4.89
306.024	4.87
306.479	4.86
306.935	4.85
307.39	4.84
307.845	4.83
308.301	4.82
308.756	4.82
309.211	4.82
309.666	4.81
310.121	4.8
310.576	4.8
311.031	4.79
311.486	4.78
311.94	4.76
312.395	4.75
312.85	4.74
313.305	4.73
313.759	4.72
314.214	4.71
314.668	4.7
315.123	4.69
315.577	4.68
316.032	4.66
316.486	4.65
316.94	4.65
317.394	4.64
317.849	4.61
318.303	4.59
318.757	4.57
319.211	4.54
319.665	4.52
320.119	4.51
320.572	4.49
321.026	4.47
321.48	4.45
321.934	4.44
322.387	4.43
322.841	4.41
323.295	4.4
323.748	4.39
324.202	4.38
324.655	4.36
325.108	4.35
325.562	4.32
326.015	4.31
326.468	4.29
326.921	4.27
327.374	4.26
327.827	4.25
328.28	4.22
328.733	4.21
329.186	4.2
329.639	4.19
330.092	4.18
330.545	4.18
330.997	4.17
331.45	4.16
331.903	4.16
332.355	4.16
332.808	4.15
333.26	4.15
333.713	4.16
334.165	4.14
334.617	4.14
335.069	4.13
335.522	4.13
335.974	4.13
336.426	4.14
336.878	4.13
337.33	4.12
337.782	4.12
338.234	4.12
338.686	4.12
339.137	4.12
339.589	4.11
340.041	4.11
340.493	4.09
340.944	4.07
341.396	4.06
341.847	4.03
342.299	4
342.75	3.97
343.201	3.96
343.653	3.93
344.104	3.91
344.555	3.9
345.006	3.88
345.457	3.86
345.908	3.84
346.359	3.83
346.81	3.83
347.261	3.83
347.712	3.83
348.163	3.82
348.613	3.81
349.064	3.8
349.515	3.79
349.965	3.78
350.416	3.78
350.866	3.77
351.317	3.76
351.767	3.75
352.217	3.73
352.668	3.73
353.118	3.73
353.568	3.72
354.018	3.72
354.468	3.71
354.918	3.72
355.368	3.71
355.818	3.71
356.268	3.71
356.718	3.71
357.168	3.71
357.617	3.7
358.067	3.69
358.517	3.68
358.966	3.68
359.416	3.68
359.865	3.67
360.315	3.67
360.764	3.66
361.213	3.64
361.663	3.64
362.112	3.64
362.561	3.64
363.01	3.64
363.459	3.64
363.908	3.64
364.357	3.63
364.806	3.61
365.255	3.61
365.703	3.6
366.152	3.6
366.601	3.59
367.05	3.58
367.498	3.56
367.947	3.54
368.395	3.55
368.844	3.54
369.292	3.53
369.74	3.53
370.189	3.53
370.637	3.53
371.085	3.52
371.533	3.52
371.981	3.51
372.429	3.51
372.877	3.52
373.325	3.51
373.773	3.51
374.221	3.51
374.669	3.5
375.116	3.48
375.564	3.48
376.012	3.48
376.459	3.48
376.907	3.5
377.354	3.5
377.801	3.49
378.249	3.49
378.696	3.49
379.143	3.5
379.591	3.52
380.038	3.54
380.485	3.54
380.932	3.55
381.379	3.53
381.826	3.53
382.273	3.53
382.72	3.53
383.166	3.52
383.613	3.51
384.06	3.5
384.506	3.5
384.953	3.5
385.4	3.49
385.846	3.48
386.292	3.5
386.739	3.49
387.185	3.49
387.631	3.5
388.078	3.5
388.524	3.49
388.97	3.49
389.416	3.49
389.862	3.49
390.308	3.49
390.754	3.5
391.2	3.51
391.645	3.53
392.091	3.53
392.537	3.55
392.983	3.57
393.428	3.6
393.874	3.62
394.319	3.63
394.765	3.65
395.21	3.65
395.655	3.66
396.101	3.67
396.546	3.69
396.991	3.71
397.436	3.7
397.881	3.72
398.326	3.74
398.771	3.76
399.216	3.78
399.661	3.8
400.106	3.83
400.551	3.84
400.995	3.86
401.44	3.86
401.885	3.88
402.329	3.9
402.774	3.9
403.218	3.91
403.663	3.91
404.107	3.92
404.551	3.94
404.995	3.94
405.44	3.96
405.884	3.97
406.328	3.99
406.772	4
407.216	4.03
407.66	4.05
408.104	4.07
408.547	4.09
408.991	4.1
409.435	4.1
409.879	4.13
410.322	4.15
410.766	4.16
411.209	4.18
411.653	4.18
412.096	4.18
412.54	4.2
412.983	4.21
413.426	4.24
413.869	4.25
414.312	4.28
414.756	4.3
415.199	4.32
415.642	4.35
416.085	4.39
416.527	4.42
416.97	4.44
417.413	4.43
417.856	4.44
418.298	4.42
418.741	4.43
419.184	4.43
419.626	4.43
420.069	4.45
420.511	4.46
420.953	4.44
421.396	4.44
421.838	4.46
422.28	4.48
422.722	4.51
423.164	4.53
423.606	4.54
424.048	4.55
424.49	4.56
424.932	4.56
425.374	4.55
425.816	4.54
426.258	4.54
426.699	4.53
427.141	4.51
427.582	4.51
428.024	4.55
428.465	4.56
428.907	4.58
429.348	4.59
429.789	4.6
430.231	4.61
430.672	4.63
431.113	4.66
431.554	4.69
431.995	4.74
432.436	4.74
432.877	4.73
433.318	4.73
433.759	4.72
434.2	4.73
434.64	4.75
435.081	4.76
435.522	4.79
435.962	4.8
436.403	4.82
436.843	4.84
437.284	4.87
437.724	4.93
438.164	4.95
438.604	5
439.045	5.03
439.485	5.03
439.925	5.05
440.365	5.06
440.805	5.08
441.245	5.1
441.685	5.11
442.125	5.13
442.564	5.15
443.004	5.18
443.444	5.22
443.883	5.25
444.323	5.28
444.762	5.35
445.202	5.41
445.641	5.46
446.081	5.52
446.52	5.55
446.959	5.59
447.398	5.65
447.837	5.7
448.276	5.74
448.716	5.78
449.154	5.84
449.593	5.88
450.032	5.92
450.471	5.95
450.91	5.97
451.349	6
451.787	6.02
452.226	6.01
452.664	6.01
453.103	6.03
453.541	6.06
453.98	6.08
454.418	6.07
454.856	6.05
455.295	6.06
455.733	6.07
456.171	6.05
456.609	6.07
457.047	6.07
457.485	6.06
457.923	6.05
458.361	6.04
458.798	6.04
459.236	6.05
459.674	6.07
460.111	6.07
460.549	6.06
460.987	6.08
461.424	6.07
461.862	6.08
462.299	6.09
462.736	6.09
463.173	6.11
463.611	6.1
464.048	6.12
464.485	6.12
464.922	6.12
465.359	6.15
465.796	6.14
466.233	6.16
466.67	6.18
467.106	6.17
467.543	6.18
467.98	6.18
468.416	6.2
468.853	6.19
469.29	6.21
469.726	6.23
470.162	6.22
470.599	6.23
471.035	6.24
471.471	6.22
471.907	6.24
472.344	6.25
472.78	6.26
473.216	6.26
473.652	6.26
474.088	6.26
474.523	6.24
474.959	6.25
475.395	6.25
475.831	6.25
476.266	6.27
476.702	6.27
477.138	6.27
477.573	6.26
478.008	6.26
478.444	6.26
478.879	6.26
479.314	6.26
479.75	6.27
480.185	6.28
480.62	6.28
481.055	6.28
481.49	6.27
481.925	6.27
482.36	6.28
482.795	6.29
483.229	6.29
483.664	6.3
484.099	6.31
484.534	6.32
484.968	6.33
485.403	6.34
485.837	6.37
486.271	6.4
486.706	6.42
487.14	6.46
487.574	6.48
488.009	6.52
488.443	6.55
488.877	6.58
489.311	6.62
489.745	6.68
490.179	6.73
490.613	6.77
491.046	6.82
491.48	6.88
491.914	6.95
492.348	7.02
492.781	7.1
493.215	7.17
493.648	7.27
494.082	7.37
494.515	7.45
494.948	7.55
495.382	7.65
495.815	7.77
496.248	7.89
496.681	8
497.114	8.12
497.547	8.25
497.98	8.4
498.413	8.54
498.846	8.7
499.279	8.86
499.711	9.03
500.144	9.2
500.577	9.39
501.009	9.59
501.442	9.8
501.874	10.01
502.306	10.25
502.739	10.46
503.171	10.71
503.603	10.97
504.036	11.23
504.468	11.51
504.9	11.81
505.332	12.12
505.764	12.42
506.196	12.74
506.627	13.09
507.059	13.41
507.491	13.78
507.923	14.13
508.354	14.49
508.786	14.88
509.217	15.27
509.649	15.65
510.08	16.05
510.512	16.47
510.943	16.89
511.374	17.31
511.805	17.74
512.237	18.19
512.668	18.63
513.099	19.08
513.53	19.54
513.961	19.99
514.391	20.46
514.822	20.93
515.253	21.41
515.684	21.87
516.114	22.36
516.545	22.84
516.975	23.33
517.406	23.84
517.836	24.32
518.267	24.81
518.697	25.32
519.127	25.81
519.558	26.3
519.988	26.76
520.418	27.22
520.848	27.68
521.278	28.17
521.708	28.57
522.138	28.99
522.567	29.42
522.997	29.82
523.427	30.22
523.857	30.6
524.286	30.98
524.716	31.35
525.145	31.73
525.575	32.08
526.004	32.41
526.433	32.78
526.863	33.11
527.292	33.44
527.721	33.75
528.15	34.02
528.579	34.32
529.008	34.59
529.437	34.86
529.866	35.09
530.295	35.33
530.724	35.56
531.152	35.78
531.581	35.98
532.01	36.17
532.438	36.34
532.867	36.54
533.295	36.69
533.723	36.85
534.152	36.99
534.58	37.12
535.008	37.21
535.436	37.32
535.865	37.42
536.293	37.53
536.721	37.62
537.149	37.7
537.576	37.75
538.004	37.83
538.432	37.89
538.86	37.96
539.287	38.03
539.715	38.11
540.143	38.15
540.57	38.22
540.998	38.28
541.425	38.33
541.852	38.38
542.28	38.42
542.707	38.49
543.134	38.54
543.561	38.56
543.988	38.6
544.415	38.62
544.842	38.64
545.269	38.67
545.696	38.69
546.123	38.7
546.549	38.76
546.976	38.82
547.403	38.83
547.829	38.85
548.256	38.9
548.682	38.92
549.108	38.96
549.535	39
549.961	39.02
550.387	39.03
550.813	39.03
551.24	39
551.666	38.99
552.092	38.97
552.518	38.94
552.943	38.92
553.369	38.88
553.795	38.83
554.221	38.78
554.646	38.73
555.072	38.67
555.498	38.61
555.923	38.56
556.349	38.46
556.774	38.37
557.199	38.27
557.625	38.16
558.05	38.06
558.475	37.94
558.9	37.82
559.325	37.66
559.75	37.5
560.175	37.38
560.6	37.21
561.025	37.06
561.449	36.89
561.874	36.73
562.299	36.56
562.723	36.38
563.148	36.19
563.572	36
563.997	35.8
564.421	35.59
564.846	35.39
565.27	35.18
565.694	34.94
566.118	34.74
566.542	34.49
566.966	34.25
567.39	33.99
567.814	33.74
568.238	33.48
568.662	33.25
569.086	33.01
569.509	32.74
569.933	32.47
570.357	32.23
570.78	31.97
571.204	31.73
571.627	31.48
572.05	31.24
572.474	31
572.897	30.78
573.32	30.54
573.743	30.33
574.166	30.11
574.589	29.9
575.012	29.7
575.435	29.49
575.858	29.31
576.281	29.12
576.704	28.95
577.126	28.78
577.549	28.63
577.972	28.47
578.394	28.29
578.817	28.12
579.239	27.98
579.661	27.82
580.084	27.69
580.506	27.54
580.928	27.41
581.35	27.28
581.772	27.14
582.194	27
582.616	26.89
583.038	26.78
583.46	26.68
583.882	26.54
584.303	26.43
584.725	26.31
585.147	26.19
585.568	26.06
585.99	25.96
586.411	25.85
586.833	25.74
587.254	25.62
587.675	25.53
588.096	25.44
588.518	25.36
588.939	25.28
589.36	25.18
589.781	25.13
590.202	25.08
590.623	25
591.043	24.93
591.464	24.87
591.885	24.81
592.305	24.75
592.726	24.69
593.147	24.65
593.567	24.59
593.987	24.54
594.408	24.48
594.828	24.42
595.248	24.38
595.669	24.32
596.089	24.28
596.509	24.21
596.929	24.15
597.349	24.09
597.769	24.01
598.189	23.96
598.608	23.91
599.028	23.83
599.448	23.76
599.867	23.7
600.287	23.62
600.706	23.56
601.126	23.5
601.545	23.41
601.965	23.35
602.384	23.26
602.803	23.16
603.222	23.06
603.641	22.98
604.061	22.89
604.48	22.76
604.898	22.66
605.317	22.54
605.736	22.42
606.155	22.29
606.574	22.16
606.992	22.02
607.411	21.9
607.829	21.75
608.248	21.62
608.666	21.49
609.085	21.38
609.503	21.24
609.921	21.11
610.339	20.98
610.758	20.86
611.176	20.74
611.594	20.62
612.012	20.48
612.43	20.4
612.847	20.28
613.265	20.14
613.683	20
614.101	19.87
614.518	19.75
614.936	19.62
615.353	19.5
615.771	19.38
616.188	19.27
616.606	19.18
617.023	19.07
617.44	18.96
617.857	18.86
618.274	18.78
618.691	18.71
619.108	18.62
619.525	18.56
619.942	18.49
620.359	18.44
620.776	18.39
621.192	18.33
621.609	18.29
622.026	18.23
622.442	18.19
622.859	18.14
623.275	18.12
623.691	18.1
624.108	18.06
624.524	18.05
624.94	18.02
625.356	18
625.772	17.99
626.188	17.97
626.604	17.96
627.02	17.94
627.436	17.93
627.852	17.89
628.268	17.86
628.683	17.83
629.099	17.81
629.514	17.76
629.93	17.73
630.345	17.67
630.761	17.61
631.176	17.55
631.591	17.49
632.007	17.43
632.422	17.37
632.837	17.28
633.252	17.2
633.667	17.09
634.082	16.99
634.497	16.85
634.911	16.71
635.326	16.58
635.741	16.44
636.155	16.3
636.57	16.14
636.984	15.95
637.399	15.77
637.813	15.57
638.228	15.38
638.642	15.19
639.056	15.01
639.47	14.81
639.884	14.61
640.298	14.4
640.712	14.19
641.126	13.98
641.54	13.8
641.954	13.61
642.368	13.4
642.781	13.21
643.195	13.01
643.609	12.81
644.022	12.64
644.436	12.47
644.849	12.3
645.262	12.13
645.676	11.98
646.089	11.81
646.502	11.66
646.915	11.54
647.328	11.44
647.741	11.31
648.154	11.23
648.567	11.13
648.98	11.04
649.393	10.96
649.805	10.89
650.218	10.82
650.631	10.76
651.043	10.7
651.456	10.62
651.868	10.54
652.28	10.49
652.693	10.41
653.105	10.34
653.517	10.25
653.929	10.18
654.341	10.09
654.753	9.99
655.165	9.9
655.577	9.78
655.989	9.68
656.401	9.57
656.813	9.43
657.224	9.31
657.636	9.17
658.047	9.05
658.459	8.9
658.87	8.76
659.282	8.63
659.693	8.49
660.104	8.35
660.515	8.21
660.926	8.09
661.338	7.97
661.749	7.85
662.159	7.72
662.57	7.6
662.981	7.51
663.392	7.38
663.803	7.28
664.213	7.17
664.624	7.09
665.035	7
665.445	6.92
665.855	6.85
666.266	6.79
666.676	6.73
667.086	6.65
667.497	6.6
667.907	6.55
668.317	6.5
668.727	6.47
669.137	6.45
669.547	6.42
669.956	6.4
670.366	6.39
670.776	6.38
671.186	6.37
671.595	6.39
672.005	6.41
672.414	6.42
672.824	6.44
673.233	6.47
673.642	6.47
674.052	6.5
674.461	6.52
674.87	6.54
675.279	6.56
675.688	6.59
676.097	6.62
676.506	6.65
676.915	6.69
677.323	6.73
677.732	6.77
678.141	6.84
678.549	6.92
678.958	6.99
679.366	7.07
679.775	7.16
680.183	7.27
680.592	7.38
681	7.49
681.408	7.62
681.816	7.77
682.224	7.95
682.632	8.13
683.04	8.33
683.448	8.55
683.856	8.81
684.264	9.1
684.671	9.42
685.079	9.76
685.487	10.16
685.894	10.59
686.302	11.06
686.709	11.53
687.116	12.06
687.524	12.64
687.931	13.26
688.338	13.91
688.745	14.62
689.152	15.32
689.559	16.08
689.966	16.86
690.373	17.68
690.78	18.54
691.187	19.41
691.593	20.29
692	21.19
692.407	22.11
692.813	23.03
693.22	23.94
693.626	24.88
694.032	25.8
694.439	26.74
694.845	27.66
695.251	28.57
695.657	29.46
696.063	30.4
696.469	31.31
696.875	32.19
697.281	33.08
697.687	33.94
698.093	34.8
698.498	35.67
698.904	36.51
699.31	37.34
699.715	38.15
700.12	38.95
700.526	39.73
700.931	40.52
701.337	41.25
701.742	41.97
702.147	42.7
702.552	43.43
702.957	44.14
703.362	44.83
703.767	45.5
704.172	46.15
704.577	46.8
704.981	47.4
705.386	47.95
705.791	48.59
706.195	49.19
706.6	49.74
707.004	50.29
707.408	50.81
707.813	51.35
708.217	51.86
708.621	52.38
709.025	52.88
709.43	53.38
709.834	53.9
710.237	54.33
710.641	54.8
711.045	55.23
711.449	55.66
711.853	56.1
712.256	56.54
712.66	56.94
713.064	57.34
713.467	57.75
713.87	58.17
714.274	58.58
714.677	59
715.08	59.35
715.484	59.75
715.887	60.12
716.29	60.46
716.693	60.76
717.096	61.12
717.499	61.47
717.901	61.75
718.304	62.06
718.707	62.34
719.109	62.64
719.512	62.95
719.915	63.24
720.317	63.55
720.719	63.85
721.122	64.13
721.524	64.4
721.926	64.64
722.328	64.91
722.731	65.16
723.133	65.41
723.535	65.65
723.937	65.86
724.338	66.04
724.74	66.2
725.142	66.29
725.544	66.47
725.945	66.63
726.347	66.84
726.748	66.96
727.15	67.12
727.551	67.28
727.952	67.41
728.354	67.58
728.755	67.74
729.156	67.87
729.557	68.1
729.958	68.29
730.359	68.42
730.76	68.5
731.161	68.66
731.562	68.78
731.962	68.9
732.363	68.99
732.763	69.06
733.164	69.15
733.564	69.24
733.965	69.3
734.365	69.34
734.766	69.42
735.166	69.46
735.566	69.5
735.966	69.55
736.366	69.58
736.766	69.64
737.166	69.69
737.566	69.76
737.966	69.84
738.365	69.91
738.765	69.96
739.165	69.97
739.564	70.08
739.964	70.1
740.363	70.16
740.763	70.18
741.162	70.2
741.561	70.26
741.96	70.29
742.36	70.31
742.759	70.31
743.158	70.32
743.557	70.36
743.955	70.4
744.354	70.46
744.753	70.51
745.152	70.55
745.55	70.62
745.949	70.66
746.348	70.7
746.746	70.73
747.144	70.78
747.543	70.8
747.941	70.9
748.339	70.95
748.737	71.01
749.136	71.01
749.534	71.06
749.932	71.1
750.33	71.08
750.727	71.07
751.125	71.09
751.523	71.11
751.921	71.13
752.318	71.11
752.716	71.09
753.113	71.08
753.511	71.05
753.908	70.98
754.305	70.91
754.703	70.89
755.1	70.87
755.497	70.84
755.894	70.85
756.291	70.82
756.688	70.8
757.085	70.75
757.482	70.75
757.878	70.78
758.275	70.82
758.672	70.89
759.068	70.91
759.465	70.94
759.861	70.93
760.258	70.88
760.654	70.91
761.05	70.89
761.447	70.9
761.843	70.89
762.239	70.81
762.635	70.8
763.031	70.74
763.427	70.73
763.822	70.7
764.218	70.69
764.614	70.69
765.01	70.66
765.405	70.64
765.801	70.57
766.196	70.54
766.592	70.56
766.987	70.53
767.382	70.52
767.778	70.5
768.173	70.49
768.568	70.44
768.963	70.45
769.358	70.41
769.753	70.46
770.148	70.48
770.542	70.47
770.937	70.48
771.332	70.46
771.726	70.44
772.121	70.4
772.515	70.4
772.91	70.43
773.304	70.38
773.699	70.4
774.093	70.29
774.487	70.32
774.881	70.34
775.275	70.32
775.669	70.35
776.063	70.33
776.457	70.34
776.851	70.29
777.245	70.31
777.638	70.34
778.032	70.33
778.425	70.37
778.819	70.33
779.212	70.27
779.606	70.27
779.999	70.27
780.392	70.31
780.786	70.3
781.179	70.38
781.572	70.34
781.965	70.37
782.358	70.38
782.751	70.37
783.143	70.4
783.536	70.47
783.929	70.51
784.322	70.49
784.714	70.5
785.107	70.55
785.499	70.54
785.891	70.59
786.284	70.5
786.676	70.53
787.068	70.5
787.46	70.49
787.852	70.49
788.245	70.44
788.636	70.45
789.028	70.43
789.42	70.37
789.812	70.36
790.204	70.28
790.595	70.32
790.987	70.31
791.378	70.34
791.77	70.35
792.161	70.35
792.553	70.36
792.944	70.37
793.335	70.39
793.726	70.38
794.117	70.37
794.508	70.43
794.899	70.44
795.29	70.43
795.681	70.41
796.072	70.4
796.463	70.37
796.853	70.4
797.244	70.36
797.634	70.32
798.025	70.36
798.415	70.34
798.806	70.35
799.196	70.41
799.586	70.4
799.976	70.42
800.366	70.43
800.756	70.44
801.146	70.41
801.536	70.44
801.926	70.45
802.316	70.44
802.706	70.48
803.095	70.47
803.485	70.45
803.874	70.49
804.264	70.57
804.653	70.53
805.043	70.53
805.432	70.51
805.821	70.5
806.21	70.51
806.599	70.54
806.988	70.53
807.377	70.55
807.766	70.53
808.155	70.54
808.544	70.5
808.933	70.54
809.321	70.55
809.71	70.57
810.098	70.58
810.487	70.6
810.875	70.57
811.264	70.57
811.652	70.55
812.04	70.53
812.428	70.51
812.816	70.48
813.204	70.48
813.592	70.51
813.98	70.49
814.368	70.46
814.756	70.46
815.144	70.47
815.531	70.43
815.919	70.44
816.306	70.45
816.694	70.46
817.081	70.47
817.469	70.47
817.856	70.48
818.243	70.48
818.63	70.55
819.017	70.57
819.404	70.54
819.791	70.58
820.178	70.58
820.565	70.56
820.952	70.56
821.339	70.62
821.725	70.62
822.112	70.6
822.498	70.65
822.885	70.65
823.271	70.66
823.657	70.67
824.044	70.69
824.43	70.73
824.816	70.75
825.202	70.76
825.588	70.76
825.974	70.77
826.36	70.73
826.746	70.74
827.132	70.68
827.517	70.64
827.903	70.69
828.289	70.66
828.674	70.66
829.06	70.7
829.445	70.74
829.83	70.75
830.216	70.75
830.601	70.81
830.986	70.77
831.371	70.84
831.756	70.85
832.141	70.84
832.526	70.86
832.911	70.84
833.295	70.85
833.68	70.82
834.065	70.84
834.449	70.81
834.834	70.79
835.218	70.81
835.603	70.82
835.987	70.83
836.371	70.83
836.755	70.81
837.139	70.81
837.524	70.79
837.908	70.73
838.291	70.68
838.675	70.7
839.059	70.71
839.443	70.69
839.827	70.67
840.21	70.66
840.594	70.66
840.977	70.68
841.361	70.67
841.744	70.68
842.127	70.68
842.511	70.7
842.894	70.68
843.277	70.67
843.66	70.69
844.043	70.68
844.426	70.65
844.809	70.64
845.191	70.6
845.574	70.59
845.957	70.54
846.339	70.57
846.722	70.56
847.104	70.57
847.487	70.58
847.869	70.57
848.252	70.56
848.634	70.61
849.016	70.61
849.398	70.62
849.78	70.63
850.162	70.68
850.544	70.69
850.926	70.67
851.307	70.64
851.689	70.61
852.071	70.63
852.452	70.62
852.834	70.6
853.215	70.57
853.597	70.59
853.978	70.57
854.359	70.54
854.741	70.51
855.122	70.52
855.503	70.52
855.884	70.51
856.265	70.51
856.646	70.5
857.026	70.5
857.407	70.46
857.788	70.47
858.169	70.49
858.549	70.5
858.93	70.51
859.31	70.52
859.69	70.54
860.071	70.53
860.451	70.52
860.831	70.52
861.211	70.47
861.591	70.52
861.971	70.5
862.351	70.52
862.731	70.52
863.111	70.53
863.491	70.54
863.87	70.52
864.25	70.55
864.629	70.52
865.009	70.51
865.388	70.53
865.768	70.51
866.147	70.5
866.526	70.47
866.905	70.47
867.284	70.45
867.663	70.41
868.042	70.41
868.421	70.37
868.8	70.36
869.179	70.38
869.558	70.39
869.936	70.37
870.315	70.37
870.693	70.35
871.072	70.32
871.45	70.29
871.828	70.31
872.207	70.32
872.585	70.36
872.963	70.36
873.341	70.36
873.719	70.33
874.097	70.38
874.475	70.4
874.853	70.39
875.23	70.42
875.608	70.46
875.986	70.46
876.363	70.43
876.741	70.41
877.118	70.42
877.495	70.38
877.873	70.39
878.25	70.37
878.627	70.39
879.004	70.41
879.381	70.41
879.758	70.36
880.135	70.37
880.512	70.4
880.889	70.41
881.265	70.43
881.642	70.43
882.019	70.44
882.395	70.42
882.772	70.4
883.148	70.41
883.524	70.42
883.901	70.41
884.277	70.4
884.653	70.43
885.029	70.4
885.405	70.37
885.781	70.41
886.157	70.44
886.532	70.44
886.908	70.45
887.284	70.43
887.659	70.43
888.035	70.46
888.411	70.43
888.786	70.4
889.161	70.4
889.537	70.42
889.912	70.41
890.287	70.36
890.662	70.35
891.037	70.29
891.412	70.23
891.787	70.2
892.162	70.17
892.536	70.17
892.911	70.13
893.286	70.09
893.66	70.07
894.035	70.05
894.409	70.04
894.784	70.03
895.158	70
895.532	70.03
895.906	70.01
896.281	69.99
896.655	69.97
897.029	69.96
897.402	69.97
897.776	69.96
898.15	69.93
898.524	69.92
898.898	69.88
899.271	69.92
899.645	69.9
900.018	69.89
900.392	69.86
900.765	69.89
901.138	69.92
901.511	69.91
901.884	69.89
902.258	69.91
902.631	69.91
903.003	69.95
903.376	69.94
903.749	69.96
904.122	69.99
904.495	70
904.867	69.93
905.24	69.89
905.612	69.87
905.985	69.83
906.357	69.78
906.729	69.74
907.102	69.67
907.474	69.68
907.846	69.65
908.218	69.64
908.59	69.63
908.962	69.65
909.334	69.66
909.705	69.68
910.077	69.68
910.449	69.69
910.82	69.69
911.192	69.73
911.563	69.67
911.935	69.66
912.306	69.62
912.677	69.62
913.048	69.6
913.419	69.55
913.79	69.53
914.161	69.5
914.532	69.44
914.903	69.41
915.274	69.37
915.645	69.36
916.015	69.36
916.386	69.32
916.756	69.26
917.127	69.22
917.497	69.22
917.868	69.23
918.238	69.23
918.608	69.28
918.978	69.25
919.348	69.24
919.718	69.24
920.088	69.24
920.458	69.31
920.828	69.35
921.198	69.33
921.567	69.29
921.937	69.3
922.306	69.29
922.676	69.28
923.045	69.28
923.415	69.25
923.784	69.25
924.153	69.22
924.522	69.14
924.891	69.09
925.26	69.09
925.629	69.07
925.998	69
926.367	68.98
926.736	68.92
927.104	68.92
927.473	68.93
927.842	68.91
928.21	68.93
928.578	68.9
928.947	68.88
929.315	68.87
929.683	68.9
930.051	68.89
930.42	68.9
930.788	68.9
931.156	68.87
931.523	68.83
931.891	68.76
932.259	68.62
932.627	68.57
932.994	68.56
933.362	68.5
933.729	68.41
934.097	68.31
934.464	68.2
934.831	68.11
935.199	68
935.566	67.89
935.933	67.94
936.3	67.87
936.667	67.84
937.034	67.69
937.401	67.62
937.767	67.56
938.134	67.53
938.501	67.49
938.867	67.52
939.234	67.55
939.6	67.56
939.967	67.39
940.333	67.5
940.699	67.55
941.065	67.7
941.431	67.73
941.798	67.83
942.163	67.9
942.529	67.99
942.895	67.94
943.261	67.97
943.627	68.03
943.992	68.08
944.358	68.08
944.723	68.09
945.089	68.16
945.454	68.26
945.82	68.31
946.185	68.43
946.55	68.6
946.915	68.7
947.28	68.7
947.645	68.72
948.01	68.72
948.375	68.76
948.74	68.79
949.104	68.77
949.469	68.68
949.834	68.58
950.198	68.42
950.562	68.31
950.927	68.31
951.291	68.28
951.655	68.24
952.02	68.26
952.384	68.29
952.748	68.21
953.112	68.16
953.476	68.18
953.839	68.16
954.203	68.1
954.567	68.06
954.931	68.01
955.294	67.97
955.658	67.93
956.021	67.92
956.385	67.92
956.748	67.95
957.111	67.91
957.474	67.89
957.837	67.97
958.2	67.96
958.563	67.93
958.926	67.87
959.289	67.89
959.652	67.87
960.015	67.81
960.377	67.67
960.74	67.61
961.102	67.56
961.465	67.52
961.827	67.35
962.189	67.36
962.552	67.28
962.914	67.28
963.276	67.33
963.638	67.31
964	67.27
964.362	67.31
964.724	67.26
965.085	67.32
965.447	67.28
965.809	67.27
966.17	67.24
966.532	67.31
966.893	67.31
967.255	67.19
967.616	67.28
967.977	67.36
968.338	67.35
968.699	67.34
969.061	67.23
969.421	67.27
969.782	67.29
970.143	67.28
970.504	67.19
970.865	67.05
971.225	67.01
971.586	66.92
971.946	66.84
972.307	66.8
972.667	66.87
973.027	66.9
973.388	66.88
973.748	66.97
974.108	67.01
974.468	67.06
974.828	67.19
975.188	67.25
975.548	67.22
975.907	67.19
976.267	67.18
976.627	67.1
976.986	67.15
977.346	67.12
977.705	67.01
978.064	66.99
978.424	66.94
978.783	66.88
979.142	66.88
979.501	66.83
979.86	66.84
980.219	66.77
980.578	66.68
980.937	66.68
981.296	66.63
981.654	66.71
982.013	66.72
982.371	66.67
982.73	66.67
983.088	66.6
983.447	66.63
983.805	66.55
984.163	66.65
984.521	66.62
984.879	66.52
985.237	66.58
985.595	66.44
985.953	66.37
986.311	66.46
986.669	66.33
987.026	66.24
987.384	66.2
987.741	66.28
988.099	66.18
988.456	66.25
988.814	66.23
989.171	66.22
989.528	66.2
989.885	66.09
990.242	66.03
990.599	66.13
990.956	66.13
991.313	66.17
991.67	66.11
992.027	66.04
992.383	66
992.74	65.94
993.096	65.83
993.453	65.82
993.809	65.97
994.165	65.91
994.522	65.81
994.878	65.86
995.234	65.85
995.59	65.72
995.946	65.8
996.302	65.73
996.658	65.67
997.013	65.62
997.369	65.64
997.725	65.65
998.08	65.65
998.436	65.73
998.791	65.7
999.147	65.57
999.502	65.4
999.857	65.41
1000.212	65.34
1000.567	65.45
1000.922	65.71
1001.277	65.64
1001.632	65.62
1001.987	65.61
1002.342	65.7
1002.696	65.72
1003.051	65.59
1003.406	65.86
1003.76	65.69
1004.114	65.85
1004.469	65.63
1004.823	65.38
1005.177	65.38
1005.531	65.12
1005.885	65.09
1006.239	64.79
1006.593	64.53
1006.947	64.43
1007.301	64.41
1007.655	64.53
1008.008	64.38
1008.362	64.41
1008.715	64.3
1009.069	64.26
1009.422	64.07
1009.776	63.96
1010.129	64.05
1010.482	64.03
1010.835	64.38
1011.188	64.25
1011.541	63.81
1011.894	63.63
1012.247	63.61
1012.6	63.44
1012.952	63.41
1013.305	63.53
1013.657	63.5
1014.01	63.57
1014.362	63.75
1014.715	63.27
1015.067	63.2
1015.419	63.64
1015.771	63.69
1016.123	63.5
1016.475	63.76
1016.827	63.58
1017.179	63.47
1017.531	63.41
1017.883	63.08
1018.234	62.88
1018.586	63.03
1018.938	62.62
1019.289	62.47
1019.64	62.84
1019.992	62.95
1020.343	62.54
1020.694	62.23
1021.045	62.2
1021.396	61.94
1021.747	61.86
1022.098	61.8
1022.449	61.69
1022.8	61.86
1023.151	61.87
1023.501	61.6
1023.852	61.47
1024.202	61.33
1024.553	61.49
1024.903	61.36
1025.253	61.72
1025.604	61.78
1025.954	61.68
1026.304	61.83
1026.654	62.08
1027.004	61.88
1027.354	61.63
1027.703	61.47
1028.053	61.5
1028.403	61.21
1028.753	61.58
1029.102	61.2
1029.452	61.03
1029.801	60.95
1030.15	60.77
1030.499	60.38
897.758	-63.47
901.051	-62.36
904.343	-63.23
907.636	-62.25
910.928	-56.88
914.22	-58.6
917.511	-60.76
920.803	-58.85
924.094	-52.99
927.384	-53.41
930.675	-47.93
933.965	-47.91
937.255	-45.45
940.544	-42.25
943.834	-38.69
947.123	-38.51
950.411	-30.8
953.7	-27.25
956.988	-24.83
960.276	-19.25
963.563	-14.48
966.851	-10.85
970.138	-6.71
973.424	-3.59
976.711	-2.06
979.997	1.42
983.283	0.06
986.568	0.67
989.853	3.76
993.138	8.14
996.423	9.04
999.708	9.41
1002.992	9.95
1006.275	9.84
1009.559	10.57
1012.842	13.74
1016.125	14.51
1019.408	17.23
1022.69	18.39
1025.972	19.86
1029.254	19.15
1032.536	19.91
1035.817	20.05
1039.098	21.27
1042.379	24.13
1045.659	24.73
1048.939	23.51
1052.219	25.19
1055.498	26.42
1058.778	27.31
1062.057	26.02
1065.335	27.54
1068.614	26.98
1071.892	29.08
1075.17	28.58
1078.447	28.97
1081.724	29.79
1085.001	29.29
1088.278	29.43
1091.554	29.45
1094.83	30.06
1098.106	30.71
1101.382	31.04
1104.657	32.22
1107.932	31.65
1111.206	33.01
1114.481	33.17
1117.755	32.71
1121.029	33.89
1124.302	34.61
1127.575	35.45
1130.848	34.71
1134.121	34.53
1137.393	34.79
1140.665	34.9
1143.937	34.98
1147.208	34.72
1150.48	34.53
1153.75	34.28
1157.021	35.64
1160.291	35.05
1163.561	34.08
1166.831	35.26
1170.101	36.09
1173.37	36.07
1176.639	35.88
1179.907	35.79
1183.176	36.5
1186.444	36.14
1189.711	36.65
1192.979	35.22
1196.246	36.13
1199.513	36.52
1202.78	35.7
1206.046	35.37
1209.312	36.18
1212.578	36.11
1215.843	36.36
1219.108	35.11
1222.373	34.8
1225.638	34.23
1228.902	34.26
1232.166	32.22
1235.43	30.85
1238.693	30.13
1241.956	29.84
1245.219	27.13
1248.482	28.07
1251.744	27.48
1255.006	29.6
1258.268	28.32
1261.529	28.65
1264.79	29.73
1268.051	31.36
1271.312	32.8
1274.572	32.89
1277.832	34.73
1281.092	34.83
1284.351	34.8
1287.61	34.77
1290.869	34.53
1294.128	36.37
1297.386	36.16
1300.644	35.39
1303.902	34.44
1307.159	34.79
1310.416	34.43
1313.673	33.35
1316.93	32.62
1320.186	32.43
1323.442	31.63
1326.697	29.36
1329.953	27.41
1333.208	25.51
1336.463	24.36
1339.717	24.06
1342.972	20.86
1346.226	19.38
1349.479	17.92
1352.733	17.33
1355.986	14.91
1359.238	13.82
1362.491	12.12
1365.743	11.73
1368.995	12.44
1372.247	10.13
1375.498	9.26
1378.749	5.92
1382	5.38
1385.251	3.59
1388.501	3.12
1391.751	0.95
1395	1.37
1398.25	1.04
1401.499	-0.3
1404.748	-2.07
1407.996	-0.6
1411.244	-1.08
1414.492	-0.66
1417.74	-1.29
1420.987	-0.62
1424.234	-1.98
1427.481	-1.25
1430.728	-1.57
1433.974	-0.67
1437.22	-0.28
1440.465	-0.06
1443.711	-0.3
1446.956	0.49
1450.201	1.46
1453.445	2.81
1456.689	4.43
1459.933	5.93
1463.177	7.46
1466.42	7.58
1469.663	7.78
1472.906	8.75
1476.148	10.01
1479.391	10.86
1482.633	11.41
1485.874	13.01
1489.115	13.61
1492.356	14.07
1495.597	14.54
1498.838	14.85
1502.078	15.96
1505.318	16.86
1508.557	17.14
1511.797	18.5
1515.036	19.58
1518.274	20.14
1521.513	20.12
1524.751	20.35
1527.989	21.65
1531.227	21.98
1534.464	23.35
1537.701	23.37
1540.938	23.45
1544.174	23.98
1547.41	24.14
1550.646	24.44
1553.882	24.94
1557.117	26.3
1560.352	26.75
1563.587	26.21
1566.821	26.59
1570.055	27.19
1573.289	28.12
1576.523	28.51
1579.756	29.09
1582.989	29.37
1586.222	29.51
1589.454	30.29
1592.686	30.02
1595.918	30.44
1599.15	30.79
1602.381	31.05
1605.612	31.42
1608.843	31.14
1612.073	30.96
1615.303	31.1
1618.533	30.93
1621.762	31.36
1624.992	30.36
1628.221	30.51
1631.449	30.86
1634.678	31.09
1637.906	31.27
1641.134	30.65
1644.361	30.82
1647.588	30.97
1650.815	31.17
1654.042	31.82
1657.269	31.2
1660.495	32.02
1663.72	32.49
1666.946	32.13
1670.171	32.24
1673.396	31.8
1676.621	32.4
1679.845	32.94
1683.069	32.58
1686.293	32.02
1689.517	31.72
1692.74	32.08
1695.963	31.82
1699.185	31.35
1702.408	31.31
1705.63	31.27
1708.852	31.07
1712.073	30.3
1715.294	29.59
1718.515	30.38
1721.736	30.59
1724.956	30.3
1728.176	30.23
1731.396	29.55
1734.616	29.67
1737.835	29.49
1741.054	29.19
1744.272	29.1
1747.491	29.32
1750.709	29.1
1753.927	28.52
1757.144	27.98
1760.361	27.4
1763.578	27
1766.795	27.37
1770.011	27.28
1773.227	26.4
1776.443	26.06
1779.658	25.63
1782.874	25.52
1786.089	24.67
1789.303	24.38
1792.518	23.87
1795.732	24.67
1798.945	24.97
1802.159	24.48
1805.372	23.29
1808.585	23.72
1811.797	23.35
1815.01	23.36
1818.222	22.87
1821.434	22.63
1824.645	22.28
1827.856	22.06
1831.067	20.67
1834.278	20.14
1837.488	19.49
1840.698	18.93
1843.908	18.58
1847.117	18.28
1850.326	17.22
1853.535	17.03
1856.744	16.08
1859.952	15.07
1863.16	13.76
1866.368	13.2
1869.575	11.49
1872.782	9.84
1875.989	7.44
1879.196	6.48
1882.402	3.61
1885.608	3.51
1888.814	0.35
1892.019	-2.46
1895.224	-3.76
1898.429	-4.37
1901.634	-6.87
1904.838	-9.27
1908.042	-9.98
1911.246	-9.75
1914.449	-10.92
1917.652	-11.15
1920.855	-12.78
1924.058	-13.12
1927.26	-13.76
1930.462	-14.3
1933.664	-13.07
1936.865	-13.15
1940.066	-12.96
1943.267	-13.51
1946.467	-14.61
1949.668	-14.64
1952.868	-13.69
1956.067	-14.01
1959.267	-12.26
1962.466	-12.04
1965.665	-11.24
1968.863	-13.37
1972.061	-12.84
1975.259	-12.33
1978.457	-12.19
1981.654	-10.74
1984.852	-10.85
1988.048	-11.43
1991.245	-10.67
1994.441	-11.49
1997.637	-11.7
2000.833	-11.35
2004.028	-11.33
2007.223	-12.23
2010.418	-11.18
2013.613	-11.63
2016.807	-12.31
2020.001	-12.4
2023.194	-11.52
2026.388	-12.36
2029.581	-14.72
2032.774	-14.87
2035.966	-16.53
2039.158	-14.88
2042.35	-16.65
2045.542	-18.54
2048.733	-18.64
2051.924	-22.33
2055.115	-25.29
2058.306	-26.87
2061.496	-29.61
2064.686	-27.02
2067.875	-24.07
2071.065	-24.22
2074.254	-25.53
2077.442	-25.68
2080.631	-25.27
2083.819	-26.3
2087.007	-23.77
2090.195	-22.15
2093.382	-22.39
2096.569	-21.27
2099.756	-20.25
2102.942	-24.16
2106.128	-25.25
2109.314	-22.57
2112.5	-21.3
2115.685	-22.35
2118.87	-22.89
2122.055	-21.6
2125.239	-23.07
2128.424	-22.91
2131.608	-24.37
2134.791	-27.23
2137.974	-27.69
2141.157	-25.13
2144.34	-28.73
2147.523	-29.78
2150.705	-31.04
2153.887	-27.89
2157.068	-29.34
2160.25	-30.13
2163.431	-29.39
2166.611	-27.79
2169.792	-31.47
2172.972	-28.47
2176.152	-29.13
2179.331	-31.26
2182.511	-30.56
2185.69	-30.17
2188.868	-36.94
2192.047	-35.15
2195.225	-34.3
2198.403	-41.81
2201.58	-42.07
2204.758	-39.49
2207.935	-43.21
2211.111	-51.18
2214.288	-48.86
2217.464	-49
2220.64	-49.17
2223.815	-48.37
2226.991	-50.99
2230.166	-50.67
2233.34	-50.58
2236.515	-55.78
2239.689	-56.33
2242.863	-57.45
2246.036	-51.18
2249.209	-55.06
2252.382	-57.47
2255.555	-60.81
2258.727	-60.76
2261.9	-65.08
2265.071	-65.42
2268.243	-61.29
2271.414	-66.35
2274.585	-67.46
2277.756	-66.35
2280.926	-73.81
2284.096	-74.18
2287.266	-71.29
2290.436	-67.31
2293.605	-69.05
2296.774	-72
2299.942	-76.16
2303.111	-79.05
2306.279	-73.59
2309.447	-70.99
2312.614	-74.34
2315.781	-78.98
2318.948	-78.3
2322.115	-81.88
2325.281	-98.16
2328.447	-100.57
2331.613	-94.73
2334.779	-95.19
2337.944	-100.86
2341.109	-108.04
2344.274	-110.69
2347.438	-113.69
2350.602	-109.06
2353.766	-124.25
2356.929	-125.96
2360.092	-117.3
2363.255	-113.94
2366.418	-121.5
2369.58	-121.51
2372.742	-118.45
2375.904	-114.66
2379.066	-119.89
2382.227	-131.36
2385.388	-136.93
2388.548	-126.87
2391.709	-119.17
2394.869	-125.14
2398.029	-118.53
2401.188	-127.17
2404.347	-131.65
2407.506	-136.3
2410.665	-127.02
2413.823	-135.95
2416.981	-130.53
2420.139	-122.07
2423.296	-134.26
2426.453	-146.37
2429.61	-140.17
2432.767	-160.17
2435.923	-154.8
2439.079	-147.95
2442.235	-164.91
2445.391	-171.05
2448.546	-161.91
2451.701	-178.82
2454.855	-189.91
2458.009	-143.87
2461.163	-163.05
2464.317	-156.03
2467.471	-154.41
2470.624	-163.86
2473.777	-164.88
2476.929	-138.29
2480.082	-163.15
2483.234	-175.43
2486.385	-176.49
2489.537	-181.01
2492.688	-221.45
2495.839	-202.44
2498.989	-219.48
2502.14	-214.35
2505.29	-197.24
2508.439	-224.86
2511.589	-240.03
2514.738	-225.15
2517.887	-222.46
2521.035	-203.55
2524.183	-205.9
2527.331	-196.02
2530.479	-189.36
2533.627	-197.56
