Data from c_1_dec_va_2n_011_Splice17_14.txt Node
Date: Sat Feb 29 13:12:55 EST 2020
User: sa697716
Spectrometer: FLMS03696
Trigger mode: 0
Integration Time (sec): 3.180400E-1
Scans to average: 20
Electric dark correction enabled: true
Nonlinearity correction enabled: true
Boxcar width: 5
XAxis mode: Wavelengths
Number of Pixels in Spectrum: 2048
>>>>>Begin Spectral Data<<<<<
187.83	40.42
188.298	34.87
188.766	37.81
189.233	31.8
189.701	51.98
190.169	50.17
190.636	63.38
191.104	66.22
191.571	328.73
192.039	286.94
192.506	-233.74
192.974	-577.6
193.441	605.98
193.908	2.5
194.375	-49.75
194.842	134.93
195.31	42.06
195.777	79.23
196.244	25.06
196.711	25.92
197.177	22.56
197.644	23.76
198.111	22.63
198.578	23.79
199.045	24.27
199.511	24.41
199.978	24.87
200.445	25.11
200.911	25.04
201.378	25.31
201.844	26.01
202.31	26.81
202.777	26.55
203.243	27.62
203.709	27.77
204.176	27.37
204.642	27.24
205.108	26.77
205.574	26.93
206.04	27.18
206.506	27.25
206.972	27.07
207.438	26.68
207.903	26.93
208.369	25.92
208.835	25.61
209.301	25.24
209.766	25.09
210.232	24.97
210.697	24.78
211.163	24.41
211.628	24.12
212.094	23.53
212.559	22.98
213.024	22.45
213.49	22.41
213.955	22.23
214.42	22.01
214.885	21.51
215.35	21.02
215.815	20.14
216.28	19.5
216.745	18.67
217.21	17.8
217.675	17.14
218.14	16.16
218.604	15.29
219.069	14.67
219.534	13.99
219.998	13.54
220.463	13.18
220.927	12.88
221.392	12.55
221.856	12.26
222.32	11.98
222.785	11.72
223.249	11.58
223.713	11.43
224.177	11.22
224.642	11.09
225.106	10.92
225.57	10.72
226.034	10.56
226.497	10.4
226.961	10.23
227.425	10.08
227.889	9.92
228.353	9.74
228.816	9.58
229.28	9.43
229.744	9.31
230.207	9.19
230.671	9.05
231.134	8.9
231.597	8.74
232.061	8.64
232.524	8.54
232.987	8.43
233.45	8.32
233.914	8.22
234.377	8.14
234.84	8.05
235.303	7.94
235.766	7.86
236.229	7.79
236.691	7.71
237.154	7.64
237.617	7.56
238.08	7.47
238.542	7.41
239.005	7.34
239.468	7.25
239.93	7.18
240.393	7.11
240.855	7.04
241.317	6.98
241.78	6.91
242.242	6.82
242.704	6.75
243.166	6.69
243.629	6.63
244.091	6.57
244.553	6.51
245.015	6.44
245.477	6.38
245.939	6.32
246.4	6.25
246.862	6.2
247.324	6.15
247.786	6.1
248.247	6.05
248.709	6
249.17	5.96
249.632	5.9
250.093	5.84
250.555	5.8
251.016	5.77
251.477	5.72
251.939	5.68
252.4	5.63
252.861	5.6
253.322	5.55
253.783	5.53
254.244	5.47
254.705	5.45
255.166	5.43
255.627	5.4
256.088	5.35
256.549	5.33
257.009	5.31
257.47	5.29
257.931	5.26
258.391	5.23
258.852	5.18
259.312	5.16
259.773	5.12
260.233	5.09
260.694	5.05
261.154	5.02
261.614	4.99
262.074	4.95
262.534	4.91
262.994	4.88
263.455	4.86
263.915	4.84
264.374	4.81
264.834	4.79
265.294	4.77
265.754	4.74
266.214	4.73
266.673	4.71
267.133	4.69
267.593	4.68
268.052	4.66
268.512	4.64
268.971	4.61
269.431	4.59
269.89	4.58
270.349	4.56
270.809	4.55
271.268	4.54
271.727	4.53
272.186	4.51
272.645	4.49
273.104	4.49
273.563	4.47
274.022	4.46
274.481	4.44
274.94	4.42
275.399	4.41
275.857	4.39
276.316	4.37
276.775	4.35
277.233	4.32
277.692	4.31
278.15	4.28
278.609	4.26
279.067	4.24
279.525	4.22
279.984	4.21
280.442	4.2
280.9	4.18
281.358	4.17
281.816	4.16
282.274	4.14
282.732	4.14
283.19	4.13
283.648	4.12
284.106	4.11
284.564	4.11
285.021	4.09
285.479	4.08
285.937	4.07
286.394	4.06
286.852	4.06
287.309	4.05
287.767	4.05
288.224	4.03
288.682	4.03
289.139	4.02
289.596	4.01
290.053	3.98
290.511	3.96
290.968	3.95
291.425	3.93
291.882	3.9
292.339	3.89
292.796	3.86
293.252	3.84
293.709	3.83
294.166	3.81
294.623	3.8
295.079	3.81
295.536	3.8
295.992	3.79
296.449	3.78
296.905	3.77
297.362	3.76
297.818	3.75
298.274	3.75
298.731	3.74
299.187	3.73
299.643	3.72
300.099	3.71
300.555	3.7
301.011	3.68
301.467	3.67
301.923	3.68
302.379	3.67
302.835	3.66
303.291	3.66
303.746	3.65
304.202	3.64
304.658	3.64
305.113	3.64
305.569	3.64
306.024	3.63
306.479	3.63
306.935	3.62
307.39	3.62
307.845	3.61
308.301	3.6
308.756	3.6
309.211	3.61
309.666	3.61
310.121	3.6
310.576	3.59
311.031	3.6
311.486	3.6
311.94	3.59
312.395	3.59
312.85	3.58
313.305	3.59
313.759	3.58
314.214	3.57
314.668	3.57
315.123	3.57
315.577	3.56
316.032	3.56
316.486	3.56
316.94	3.55
317.394	3.55
317.849	3.54
318.303	3.54
318.757	3.52
319.211	3.51
319.665	3.5
320.119	3.49
320.572	3.49
321.026	3.49
321.48	3.48
321.934	3.48
322.387	3.47
322.841	3.46
323.295	3.45
323.748	3.45
324.202	3.45
324.655	3.45
325.108	3.44
325.562	3.43
326.015	3.42
326.468	3.41
326.921	3.4
327.374	3.4
327.827	3.4
328.28	3.38
328.733	3.38
329.186	3.37
329.639	3.36
330.092	3.36
330.545	3.36
330.997	3.37
331.45	3.37
331.903	3.37
332.355	3.36
332.808	3.36
333.26	3.37
333.713	3.37
334.165	3.37
334.617	3.38
335.069	3.37
335.522	3.38
335.974	3.38
336.426	3.38
336.878	3.39
337.33	3.39
337.782	3.39
338.234	3.39
338.686	3.39
339.137	3.39
339.589	3.38
340.041	3.38
340.493	3.36
340.944	3.35
341.396	3.35
341.847	3.34
342.299	3.32
342.75	3.31
343.201	3.29
343.653	3.28
344.104	3.27
344.555	3.27
345.006	3.26
345.457	3.25
345.908	3.25
346.359	3.26
346.81	3.26
347.261	3.25
347.712	3.25
348.163	3.25
348.613	3.24
349.064	3.23
349.515	3.23
349.965	3.22
350.416	3.22
350.866	3.22
351.317	3.21
351.767	3.2
352.217	3.2
352.668	3.2
353.118	3.2
353.568	3.21
354.018	3.23
354.468	3.22
354.918	3.23
355.368	3.22
355.818	3.22
356.268	3.23
356.718	3.23
357.168	3.23
357.617	3.23
358.067	3.23
358.517	3.23
358.966	3.23
359.416	3.24
359.865	3.24
360.315	3.25
360.764	3.25
361.213	3.25
361.663	3.25
362.112	3.26
362.561	3.26
363.01	3.28
363.459	3.27
363.908	3.28
364.357	3.27
364.806	3.27
365.255	3.27
365.703	3.28
366.152	3.29
366.601	3.3
367.05	3.3
367.498	3.3
367.947	3.3
368.395	3.31
368.844	3.32
369.292	3.32
369.74	3.33
370.189	3.32
370.637	3.34
371.085	3.35
371.533	3.36
371.981	3.37
372.429	3.38
372.877	3.39
373.325	3.39
373.773	3.39
374.221	3.41
374.669	3.42
375.116	3.44
375.564	3.45
376.012	3.45
376.459	3.47
376.907	3.49
377.354	3.51
377.801	3.53
378.249	3.56
378.696	3.58
379.143	3.61
379.591	3.63
380.038	3.65
380.485	3.68
380.932	3.71
381.379	3.71
381.826	3.74
382.273	3.76
382.72	3.78
383.166	3.81
383.613	3.84
384.06	3.85
384.506	3.87
384.953	3.9
385.4	3.92
385.846	3.94
386.292	3.97
386.739	3.99
387.185	4.03
387.631	4.07
388.078	4.1
388.524	4.12
388.97	4.15
389.416	4.18
389.862	4.2
390.308	4.24
390.754	4.28
391.2	4.31
391.645	4.35
392.091	4.37
392.537	4.4
392.983	4.43
393.428	4.46
393.874	4.51
394.319	4.53
394.765	4.57
395.21	4.59
395.655	4.62
396.101	4.65
396.546	4.67
396.991	4.69
397.436	4.69
397.881	4.71
398.326	4.74
398.771	4.76
399.216	4.79
399.661	4.83
400.106	4.85
400.551	4.85
400.995	4.86
401.44	4.86
401.885	4.87
402.329	4.88
402.774	4.88
403.218	4.87
403.663	4.87
404.107	4.88
404.551	4.88
404.995	4.88
405.44	4.89
405.884	4.89
406.328	4.9
406.772	4.9
407.216	4.9
407.66	4.91
408.104	4.92
408.547	4.92
408.991	4.91
409.435	4.9
409.879	4.89
410.322	4.89
410.766	4.9
411.209	4.9
411.653	4.9
412.096	4.9
412.54	4.89
412.983	4.89
413.426	4.9
413.869	4.92
414.312	4.94
414.756	4.97
415.199	4.99
415.642	5
416.085	5.02
416.527	5.04
416.97	5.06
417.413	5.07
417.856	5.05
418.298	5.04
418.741	5.03
419.184	5.01
419.626	4.99
420.069	4.98
420.511	4.97
420.953	4.95
421.396	4.94
421.838	4.95
422.28	4.96
422.722	4.98
423.164	4.99
423.606	5
424.048	4.99
424.49	5.01
424.932	5
425.374	5.01
425.816	5
426.258	4.97
426.699	4.93
427.141	4.91
427.582	4.89
428.024	4.89
428.465	4.88
428.907	4.89
429.348	4.88
429.789	4.88
430.231	4.86
430.672	4.87
431.113	4.89
431.554	4.91
431.995	4.93
432.436	4.94
432.877	4.93
433.318	4.93
433.759	4.94
434.2	4.94
434.64	4.95
435.081	4.96
435.522	4.99
435.962	5.01
436.403	5.04
436.843	5.04
437.284	5.07
437.724	5.08
438.164	5.11
438.604	5.11
439.045	5.12
439.485	5.14
439.925	5.17
440.365	5.15
440.805	5.14
441.245	5.14
441.685	5.18
442.125	5.2
442.564	5.23
443.004	5.25
443.444	5.29
443.883	5.32
444.323	5.34
444.762	5.38
445.202	5.45
445.641	5.51
446.081	5.57
446.52	5.6
446.959	5.64
447.398	5.7
447.837	5.76
448.276	5.81
448.716	5.86
449.154	5.92
449.593	5.95
450.032	5.96
450.471	6
450.91	6
451.349	6.03
451.787	6.05
452.226	6.03
452.664	6.03
453.103	6.02
453.541	6.02
453.98	6.02
454.418	6.03
454.856	6.03
455.295	6.01
455.733	6.02
456.171	6.01
456.609	5.99
457.047	5.99
457.485	6.01
457.923	5.99
458.361	5.99
458.798	5.98
459.236	5.97
459.674	5.97
460.111	5.98
460.549	5.96
460.987	5.96
461.424	5.96
461.862	5.95
462.299	5.95
462.736	5.97
463.173	5.99
463.611	5.99
464.048	6.01
464.485	6.01
464.922	6
465.359	6.01
465.796	5.99
466.233	6.01
466.67	6.03
467.106	6.02
467.543	6.02
467.98	6.01
468.416	6.01
468.853	6.01
469.29	6.03
469.726	6.04
470.162	6.04
470.599	6.07
471.035	6.08
471.471	6.05
471.907	6.06
472.344	6.05
472.78	6.06
473.216	6.06
473.652	6.07
474.088	6.08
474.523	6.1
474.959	6.11
475.395	6.12
475.831	6.13
476.266	6.14
476.702	6.15
477.138	6.16
477.573	6.16
478.008	6.17
478.444	6.16
478.879	6.14
479.314	6.14
479.75	6.13
480.185	6.14
480.62	6.15
481.055	6.15
481.49	6.16
481.925	6.16
482.36	6.16
482.795	6.15
483.229	6.17
483.664	6.17
484.099	6.19
484.534	6.19
484.968	6.19
485.403	6.2
485.837	6.22
486.271	6.22
486.706	6.25
487.14	6.28
487.574	6.31
488.009	6.33
488.443	6.37
488.877	6.4
489.311	6.43
489.745	6.47
490.179	6.5
490.613	6.55
491.046	6.61
491.48	6.66
491.914	6.71
492.348	6.76
492.781	6.82
493.215	6.87
493.648	6.94
494.082	7.02
494.515	7.09
494.948	7.17
495.382	7.26
495.815	7.34
496.248	7.43
496.681	7.51
497.114	7.61
497.547	7.73
497.98	7.84
498.413	7.95
498.846	8.07
499.279	8.21
499.711	8.35
500.144	8.48
500.577	8.62
501.009	8.77
501.442	8.93
501.874	9.11
502.306	9.29
502.739	9.46
503.171	9.65
503.603	9.84
504.036	10.05
504.468	10.27
504.9	10.5
505.332	10.74
505.764	11
506.196	11.26
506.627	11.53
507.059	11.79
507.491	12.08
507.923	12.37
508.354	12.67
508.786	12.96
509.217	13.27
509.649	13.57
510.08	13.89
510.512	14.21
510.943	14.55
511.374	14.89
511.805	15.24
512.237	15.61
512.668	15.98
513.099	16.35
513.53	16.74
513.961	17.13
514.391	17.52
514.822	17.91
515.253	18.32
515.684	18.73
516.114	19.14
516.545	19.54
516.975	19.96
517.406	20.38
517.836	20.79
518.267	21.2
518.697	21.63
519.127	22.04
519.558	22.46
519.988	22.86
520.418	23.25
520.848	23.65
521.278	24.05
521.708	24.36
522.138	24.73
522.567	25.11
522.997	25.48
523.427	25.83
523.857	26.18
524.286	26.53
524.716	26.85
525.145	27.19
525.575	27.47
526.004	27.77
526.433	28.11
526.863	28.4
527.292	28.67
527.721	28.92
528.15	29.16
528.579	29.4
529.008	29.63
529.437	29.85
529.866	30.04
530.295	30.25
530.724	30.46
531.152	30.65
531.581	30.82
532.01	30.97
532.438	31.12
532.867	31.29
533.295	31.41
533.723	31.54
534.152	31.67
534.58	31.8
535.008	31.89
535.436	31.96
535.865	32.05
536.293	32.13
536.721	32.2
537.149	32.29
537.576	32.33
538.004	32.4
538.432	32.46
538.86	32.51
539.287	32.57
539.715	32.65
540.143	32.71
540.57	32.76
540.998	32.84
541.425	32.91
541.852	32.96
542.28	33.02
542.707	33.07
543.134	33.14
543.561	33.18
543.988	33.24
544.415	33.29
544.842	33.35
545.269	33.4
545.696	33.43
546.123	33.47
546.549	33.52
546.976	33.56
547.403	33.59
547.829	33.63
548.256	33.66
548.682	33.66
549.108	33.69
549.535	33.69
549.961	33.7
550.387	33.71
550.813	33.7
551.24	33.68
551.666	33.67
552.092	33.68
552.518	33.66
552.943	33.66
553.369	33.65
553.795	33.61
554.221	33.58
554.646	33.52
555.072	33.48
555.498	33.44
555.923	33.4
556.349	33.31
556.774	33.23
557.199	33.13
557.625	33.03
558.05	32.92
558.475	32.81
558.9	32.71
559.325	32.61
559.75	32.47
560.175	32.33
560.6	32.17
561.025	32.03
561.449	31.88
561.874	31.73
562.299	31.57
562.723	31.4
563.148	31.25
563.572	31.08
563.997	30.89
564.421	30.69
564.846	30.5
565.27	30.33
565.694	30.13
566.118	29.91
566.542	29.71
566.966	29.5
567.39	29.28
567.814	29.05
568.238	28.81
568.662	28.6
569.086	28.39
569.509	28.17
569.933	27.94
570.357	27.7
570.78	27.49
571.204	27.26
571.627	27.04
572.05	26.85
572.474	26.64
572.897	26.44
573.32	26.22
573.743	26.02
574.166	25.82
574.589	25.63
575.012	25.47
575.435	25.27
575.858	25.1
576.281	24.94
576.704	24.75
577.126	24.59
577.549	24.47
577.972	24.34
578.394	24.2
578.817	24.05
579.239	23.92
579.661	23.78
580.084	23.67
580.506	23.55
580.928	23.43
581.35	23.32
581.772	23.22
582.194	23.09
582.616	22.98
583.038	22.88
583.46	22.78
583.882	22.68
584.303	22.59
584.725	22.5
585.147	22.38
585.568	22.29
585.99	22.2
586.411	22.09
586.833	22
587.254	21.92
587.675	21.84
588.096	21.79
588.518	21.71
588.939	21.64
589.36	21.56
589.781	21.51
590.202	21.43
590.623	21.34
591.043	21.28
591.464	21.21
591.885	21.15
592.305	21.06
592.726	20.99
593.147	20.95
593.567	20.88
593.987	20.84
594.408	20.79
594.828	20.76
595.248	20.73
595.669	20.69
596.089	20.66
596.509	20.59
596.929	20.54
597.349	20.49
597.769	20.42
598.189	20.38
598.608	20.33
599.028	20.28
599.448	20.22
599.867	20.16
600.287	20.1
600.706	20.03
601.126	19.98
601.545	19.92
601.965	19.86
602.384	19.79
602.803	19.71
603.222	19.62
603.641	19.54
604.061	19.44
604.48	19.36
604.898	19.26
605.317	19.17
605.736	19.07
606.155	18.96
606.574	18.86
606.992	18.76
607.411	18.67
607.829	18.52
608.248	18.43
608.666	18.31
609.085	18.19
609.503	18.09
609.921	17.98
610.339	17.88
610.758	17.78
611.176	17.66
611.594	17.56
612.012	17.44
612.43	17.38
612.847	17.27
613.265	17.17
613.683	17.08
614.101	16.96
614.518	16.87
614.936	16.76
615.353	16.65
615.771	16.57
616.188	16.47
616.606	16.37
617.023	16.28
617.44	16.21
617.857	16.13
618.274	16.06
618.691	16
619.108	15.93
619.525	15.87
619.942	15.83
620.359	15.77
620.776	15.73
621.192	15.7
621.609	15.66
622.026	15.62
622.442	15.56
622.859	15.53
623.275	15.51
623.691	15.49
624.108	15.48
624.524	15.44
624.94	15.44
625.356	15.42
625.772	15.41
626.188	15.4
626.604	15.38
627.02	15.37
627.436	15.35
627.852	15.33
628.268	15.32
628.683	15.29
629.099	15.29
629.514	15.25
629.93	15.21
630.345	15.16
630.761	15.1
631.176	15.05
631.591	15.02
632.007	14.96
632.422	14.89
632.837	14.8
633.252	14.72
633.667	14.61
634.082	14.5
634.497	14.39
634.911	14.28
635.326	14.17
635.741	14.04
636.155	13.9
636.57	13.75
636.984	13.59
637.399	13.43
637.813	13.27
638.228	13.11
638.642	12.96
639.056	12.8
639.47	12.64
639.884	12.48
640.298	12.31
640.712	12.14
641.126	11.98
641.54	11.81
641.954	11.68
642.368	11.52
642.781	11.37
643.195	11.2
643.609	11.05
644.022	10.91
644.436	10.78
644.849	10.64
645.262	10.51
645.676	10.37
646.089	10.25
646.502	10.11
646.915	10.01
647.328	9.9
647.741	9.8
648.154	9.71
648.567	9.62
648.98	9.53
649.393	9.47
649.805	9.39
650.218	9.35
650.631	9.3
651.043	9.27
651.456	9.22
651.868	9.17
652.28	9.12
652.693	9.05
653.105	9
653.517	8.93
653.929	8.87
654.341	8.81
654.753	8.74
655.165	8.66
655.577	8.56
655.989	8.47
656.401	8.38
656.813	8.28
657.224	8.19
657.636	8.09
658.047	7.99
658.459	7.87
658.87	7.76
659.282	7.67
659.693	7.55
660.104	7.44
660.515	7.32
660.926	7.21
661.338	7.12
661.749	7
662.159	6.89
662.57	6.81
662.981	6.72
663.392	6.62
663.803	6.52
664.213	6.45
664.624	6.39
665.035	6.33
665.445	6.28
665.855	6.22
666.266	6.17
666.676	6.13
667.086	6.07
667.497	6.03
667.907	6
668.317	5.96
668.727	5.92
669.137	5.89
669.547	5.87
669.956	5.84
670.366	5.84
670.776	5.83
671.186	5.81
671.595	5.81
672.005	5.82
672.414	5.82
672.824	5.84
673.233	5.85
673.642	5.86
674.052	5.87
674.461	5.88
674.87	5.9
675.279	5.93
675.688	5.96
676.097	6
676.506	6.02
676.915	6.06
677.323	6.11
677.732	6.16
678.141	6.21
678.549	6.28
678.958	6.35
679.366	6.41
679.775	6.51
680.183	6.61
680.592	6.71
681	6.82
681.408	6.95
681.816	7.08
682.224	7.24
682.632	7.42
683.04	7.61
683.448	7.82
683.856	8.04
684.264	8.29
684.671	8.57
685.079	8.88
685.487	9.22
685.894	9.61
686.302	10.01
686.709	10.44
687.116	10.88
687.524	11.39
687.931	11.91
688.338	12.52
688.745	13.12
689.152	13.75
689.559	14.44
689.966	15.13
690.373	15.82
690.78	16.55
691.187	17.33
691.593	18.14
692	18.95
692.407	19.78
692.813	20.6
693.22	21.42
693.626	22.28
694.032	23.13
694.439	24
694.845	24.88
695.251	25.77
695.657	26.64
696.063	27.52
696.469	28.39
696.875	29.22
697.281	30.07
697.687	30.93
698.093	31.75
698.498	32.58
698.904	33.39
699.31	34.18
699.715	34.97
700.12	35.72
700.526	36.48
700.931	37.19
701.337	37.95
701.742	38.64
702.147	39.35
702.552	40.06
702.957	40.76
703.362	41.44
703.767	42.09
704.172	42.77
704.577	43.43
704.981	44.07
705.386	44.72
705.791	45.34
706.195	45.96
706.6	46.53
707.004	47.12
707.408	47.64
707.813	48.2
708.217	48.74
708.621	49.22
709.025	49.75
709.43	50.27
709.834	50.78
710.237	51.26
710.641	51.75
711.045	52.21
711.449	52.65
711.853	53.13
712.256	53.58
712.66	54.02
713.064	54.48
713.467	54.87
713.87	55.24
714.274	55.66
714.677	56.05
715.08	56.4
715.484	56.82
715.887	57.24
716.29	57.6
716.693	57.96
717.096	58.32
717.499	58.67
717.901	59
718.304	59.32
718.707	59.6
719.109	59.94
719.512	60.31
719.915	60.57
720.317	60.85
720.719	61.13
721.122	61.41
721.524	61.69
721.926	61.96
722.328	62.24
722.731	62.55
723.133	62.8
723.535	63.04
723.937	63.28
724.338	63.49
724.74	63.69
725.142	63.81
725.544	63.99
725.945	64.15
726.347	64.35
726.748	64.47
727.15	64.61
727.551	64.79
727.952	64.94
728.354	65.11
728.755	65.27
729.156	65.43
729.557	65.69
729.958	65.88
730.359	66
730.76	66.1
731.161	66.26
731.562	66.39
731.962	66.51
732.363	66.62
732.763	66.73
733.164	66.85
733.564	66.96
733.965	67.02
734.365	67.08
734.766	67.21
735.166	67.26
735.566	67.3
735.966	67.35
736.366	67.4
736.766	67.47
737.166	67.52
737.566	67.54
737.966	67.61
738.365	67.66
738.765	67.71
739.165	67.68
739.564	67.78
739.964	67.86
740.363	67.91
740.763	67.95
741.162	67.97
741.561	68.01
741.96	68.07
742.36	68.11
742.759	68.15
743.158	68.17
743.557	68.24
743.955	68.29
744.354	68.32
744.753	68.38
745.152	68.4
745.55	68.48
745.949	68.54
746.348	68.57
746.746	68.64
747.144	68.69
747.543	68.75
747.941	68.87
748.339	68.9
748.737	68.97
749.136	68.97
749.534	69.04
749.932	69.01
750.33	69.04
750.727	69.06
751.125	69.04
751.523	69.05
751.921	69.04
752.318	69
752.716	69.01
753.113	68.98
753.511	68.97
753.908	68.94
754.305	68.91
754.703	68.88
755.1	68.87
755.497	68.88
755.894	68.86
756.291	68.88
756.688	68.86
757.085	68.84
757.482	68.86
757.878	68.87
758.275	68.89
758.672	68.96
759.068	68.99
759.465	68.95
759.861	68.97
760.258	68.96
760.654	68.96
761.05	68.94
761.447	68.95
761.843	68.89
762.239	68.89
762.635	68.86
763.031	68.82
763.427	68.76
763.822	68.75
764.218	68.68
764.614	68.64
765.01	68.61
765.405	68.61
765.801	68.56
766.196	68.6
766.592	68.59
766.987	68.61
767.382	68.58
767.778	68.6
768.173	68.62
768.568	68.62
768.963	68.61
769.358	68.59
769.753	68.6
770.148	68.6
770.542	68.54
770.937	68.53
771.332	68.51
771.726	68.52
772.121	68.49
772.515	68.51
772.91	68.51
773.304	68.49
773.699	68.5
774.093	68.45
774.487	68.44
774.881	68.47
775.275	68.44
775.669	68.44
776.063	68.39
776.457	68.38
776.851	68.33
777.245	68.32
777.638	68.32
778.032	68.35
778.425	68.39
778.819	68.38
779.212	68.34
779.606	68.35
779.999	68.33
780.392	68.35
780.786	68.39
781.179	68.43
781.572	68.43
781.965	68.45
782.358	68.42
782.751	68.45
783.143	68.49
783.536	68.54
783.929	68.56
784.322	68.58
784.714	68.62
785.107	68.61
785.499	68.61
785.891	68.67
786.284	68.67
786.676	68.74
787.068	68.73
787.46	68.71
787.852	68.7
788.245	68.7
788.636	68.7
789.028	68.7
789.42	68.71
789.812	68.72
790.204	68.68
790.595	68.69
790.987	68.66
791.378	68.62
791.77	68.66
792.161	68.68
792.553	68.7
792.944	68.72
793.335	68.73
793.726	68.67
794.117	68.66
794.508	68.67
794.899	68.67
795.29	68.68
795.681	68.68
796.072	68.66
796.463	68.57
796.853	68.51
797.244	68.48
797.634	68.48
798.025	68.53
798.415	68.53
798.806	68.53
799.196	68.55
799.586	68.52
799.976	68.56
800.366	68.56
800.756	68.64
801.146	68.68
801.536	68.65
801.926	68.64
802.316	68.64
802.706	68.65
803.095	68.7
803.485	68.69
803.874	68.68
804.264	68.7
804.653	68.66
805.043	68.65
805.432	68.61
805.821	68.64
806.21	68.68
806.599	68.7
806.988	68.69
807.377	68.67
807.766	68.66
808.155	68.68
808.544	68.65
808.933	68.66
809.321	68.68
809.71	68.75
810.098	68.75
810.487	68.75
810.875	68.72
811.264	68.72
811.652	68.71
812.04	68.7
812.428	68.71
812.816	68.71
813.204	68.73
813.592	68.73
813.98	68.72
814.368	68.72
814.756	68.7
815.144	68.73
815.531	68.72
815.919	68.7
816.306	68.71
816.694	68.73
817.081	68.73
817.469	68.75
817.856	68.78
818.243	68.76
818.63	68.81
819.017	68.84
819.404	68.8
819.791	68.82
820.178	68.85
820.565	68.88
820.952	68.87
821.339	68.9
821.725	68.93
822.112	68.95
822.498	68.95
822.885	68.96
823.271	68.95
823.657	68.99
824.044	68.98
824.43	69.01
824.816	69
825.202	68.99
825.588	69
825.974	68.99
826.36	68.96
826.746	69.01
827.132	69
827.517	69.01
827.903	68.99
828.289	69.01
828.674	68.96
829.06	69
829.445	69.07
829.83	69.06
830.216	69.07
830.601	69.07
830.986	69.07
831.371	69.09
831.756	69.07
832.141	69.11
832.526	69.09
832.911	69.12
833.295	69.11
833.68	69.09
834.065	69.1
834.449	69.08
834.834	69.07
835.218	69.04
835.603	69.04
835.987	69.03
836.371	69.01
836.755	69.02
837.139	69.03
837.524	69.01
837.908	68.99
838.291	68.97
838.675	68.98
839.059	68.97
839.443	68.97
839.827	68.96
840.21	69
840.594	69.01
840.977	68.97
841.361	68.98
841.744	68.99
842.127	68.97
842.511	68.96
842.894	68.94
843.277	68.97
843.66	68.96
844.043	68.94
844.426	68.89
844.809	68.9
845.191	68.91
845.574	68.87
845.957	68.85
846.339	68.84
846.722	68.85
847.104	68.83
847.487	68.81
847.869	68.82
848.252	68.83
848.634	68.87
849.016	68.88
849.398	68.9
849.78	68.94
850.162	68.94
850.544	68.98
850.926	68.97
851.307	68.98
851.689	68.97
852.071	68.96
852.452	68.95
852.834	68.94
853.215	68.94
853.597	68.91
853.978	68.87
854.359	68.89
854.741	68.85
855.122	68.87
855.503	68.87
855.884	68.86
856.265	68.86
856.646	68.85
857.026	68.84
857.407	68.8
857.788	68.81
858.169	68.83
858.549	68.85
858.93	68.84
859.31	68.8
859.69	68.79
860.071	68.8
860.451	68.81
860.831	68.81
861.211	68.79
861.591	68.83
861.971	68.82
862.351	68.83
862.731	68.79
863.111	68.8
863.491	68.84
863.87	68.85
864.25	68.85
864.629	68.82
865.009	68.8
865.388	68.78
865.768	68.77
866.147	68.77
866.526	68.72
866.905	68.71
867.284	68.71
867.663	68.72
868.042	68.69
868.421	68.7
868.8	68.72
869.179	68.72
869.558	68.72
869.936	68.71
870.315	68.7
870.693	68.72
871.072	68.71
871.45	68.71
871.828	68.68
872.207	68.7
872.585	68.69
872.963	68.67
873.341	68.68
873.719	68.68
874.097	68.68
874.475	68.7
874.853	68.69
875.23	68.73
875.608	68.71
875.986	68.72
876.363	68.73
876.741	68.73
877.118	68.74
877.495	68.76
877.873	68.79
878.25	68.81
878.627	68.79
879.004	68.8
879.381	68.77
879.758	68.77
880.135	68.78
880.512	68.8
880.889	68.81
881.265	68.86
881.642	68.83
882.019	68.85
882.395	68.81
882.772	68.82
883.148	68.79
883.524	68.84
883.901	68.84
884.277	68.81
884.653	68.81
885.029	68.81
885.405	68.8
885.781	68.81
886.157	68.8
886.532	68.84
886.908	68.85
887.284	68.9
887.659	68.87
888.035	68.85
888.411	68.85
888.786	68.84
889.161	68.84
889.537	68.85
889.912	68.81
890.287	68.77
890.662	68.74
891.037	68.71
891.412	68.68
891.787	68.65
892.162	68.63
892.536	68.63
892.911	68.64
893.286	68.57
893.66	68.53
894.035	68.54
894.409	68.56
894.784	68.56
895.158	68.58
895.532	68.57
895.906	68.57
896.281	68.59
896.655	68.55
897.029	68.5
897.402	68.53
897.776	68.51
898.15	68.49
898.524	68.46
898.898	68.41
899.271	68.37
899.645	68.33
900.018	68.3
900.392	68.32
900.765	68.32
901.138	68.34
901.511	68.32
901.884	68.33
902.258	68.32
902.631	68.31
903.003	68.33
903.376	68.34
903.749	68.38
904.122	68.42
904.495	68.41
904.867	68.39
905.24	68.37
905.612	68.36
905.985	68.36
906.357	68.39
906.729	68.38
907.102	68.41
907.474	68.39
907.846	68.37
908.218	68.3
908.59	68.25
908.962	68.27
909.334	68.27
909.705	68.26
910.077	68.23
910.449	68.22
910.82	68.21
911.192	68.18
911.563	68.18
911.935	68.17
912.306	68.2
912.677	68.24
913.048	68.23
913.419	68.22
913.79	68.19
914.161	68.18
914.532	68.15
914.903	68.16
915.274	68.12
915.645	68.12
916.015	68.13
916.386	68.08
916.756	67.98
917.127	67.95
917.497	67.93
917.868	67.95
918.238	67.96
918.608	67.99
918.978	67.94
919.348	67.94
919.718	67.87
920.088	67.85
920.458	67.89
920.828	67.94
921.198	67.94
921.567	67.96
921.937	67.99
922.306	67.95
922.676	67.91
923.045	67.93
923.415	67.91
923.784	67.92
924.153	67.91
924.522	67.89
924.891	67.86
925.26	67.86
925.629	67.83
925.998	67.79
926.367	67.78
926.736	67.72
927.104	67.67
927.473	67.71
927.842	67.71
928.21	67.74
928.578	67.65
928.947	67.63
929.315	67.62
929.683	67.68
930.051	67.64
930.42	67.58
930.788	67.6
931.156	67.56
931.523	67.5
931.891	67.43
932.259	67.33
932.627	67.35
932.994	67.32
933.362	67.22
933.729	67.04
934.097	66.99
934.464	66.97
934.831	66.89
935.199	66.89
935.566	66.83
935.933	66.78
936.3	66.7
936.667	66.6
937.034	66.44
937.401	66.42
937.767	66.37
938.134	66.27
938.501	66.13
938.867	66.15
939.234	66.11
939.6	66.07
939.967	66.04
940.333	66.1
940.699	66.17
941.065	66.37
941.431	66.46
941.798	66.59
942.163	66.8
942.529	66.96
942.895	67.07
943.261	67.12
943.627	67.31
943.992	67.42
944.358	67.45
944.723	67.51
945.089	67.56
945.454	67.58
945.82	67.63
946.185	67.67
946.55	67.86
946.915	67.82
947.28	67.72
947.645	67.64
948.01	67.66
948.375	67.69
948.74	67.61
949.104	67.58
949.469	67.44
949.834	67.34
950.198	67.26
950.562	67.11
950.927	67.05
951.291	67.14
951.655	67.15
952.02	67.09
952.384	67.18
952.748	67.19
953.112	67.18
953.476	67.3
953.839	67.32
954.203	67.31
954.567	67.28
954.931	67.29
955.294	67.27
955.658	67.24
956.021	67.21
956.385	67.13
956.748	67.16
957.111	67.13
957.474	67.14
957.837	67.21
958.2	67.19
958.563	67.12
958.926	67.07
959.289	67.07
959.652	67.09
960.015	67.07
960.377	67.04
960.74	66.93
961.102	66.92
961.465	66.87
961.827	66.65
962.189	66.65
962.552	66.6
962.914	66.61
963.276	66.57
963.638	66.46
964	66.42
964.362	66.41
964.724	66.43
965.085	66.37
965.447	66.26
965.809	66.39
966.17	66.39
966.532	66.5
966.893	66.45
967.255	66.38
967.616	66.43
967.977	66.43
968.338	66.4
968.699	66.35
969.061	66.3
969.421	66.3
969.782	66.26
970.143	66.13
970.504	65.99
970.865	65.95
971.225	65.96
971.586	65.93
971.946	65.95
972.307	65.91
972.667	65.92
973.027	66.02
973.388	66.09
973.748	66.07
974.108	66.15
974.468	66.19
974.828	66.25
975.188	66.31
975.548	66.3
975.907	66.33
976.267	66.39
976.627	66.39
976.986	66.38
977.346	66.33
977.705	66.32
978.064	66.3
978.424	66.27
978.783	66.32
979.142	66.22
979.501	66.15
979.86	66.1
980.219	66.08
980.578	66.02
980.937	65.99
981.296	65.89
981.654	65.92
982.013	65.89
982.371	65.91
982.73	65.8
983.088	65.84
983.447	65.93
983.805	65.85
984.163	65.81
984.521	65.73
984.879	65.73
985.237	65.91
985.595	65.88
985.953	65.96
986.311	66.03
986.669	66.05
987.026	66.02
987.384	65.94
987.741	66.04
988.099	66.03
988.456	66.15
988.814	66.09
989.171	65.99
989.528	65.87
989.885	65.73
990.242	65.69
990.599	65.69
990.956	65.61
991.313	65.7
991.67	65.65
992.027	65.55
992.383	65.51
992.74	65.42
993.096	65.38
993.453	65.48
993.809	65.51
994.165	65.53
994.522	65.44
994.878	65.55
995.234	65.4
995.59	65.34
995.946	65.47
996.302	65.36
996.658	65.39
997.013	65.37
997.369	65.21
997.725	65.2
998.08	65.15
998.436	65.2
998.791	65.08
999.147	65.07
999.502	65.02
999.857	64.97
1000.212	64.97
1000.567	64.98
1000.922	64.84
1001.277	64.89
1001.632	64.78
1001.987	64.71
1002.342	64.86
1002.696	64.97
1003.051	64.89
1003.406	64.85
1003.76	64.77
1004.114	64.92
1004.469	64.86
1004.823	64.98
1005.177	65.21
1005.531	65.22
1005.885	65.3
1006.239	64.95
1006.593	64.66
1006.947	64.69
1007.301	64.79
1007.655	64.62
1008.008	64.36
1008.362	64.43
1008.715	64.29
1009.069	63.73
1009.422	63.61
1009.776	63.47
1010.129	63.51
1010.482	63.83
1010.835	63.73
1011.188	63.54
1011.541	63.4
1011.894	63.32
1012.247	63.15
1012.6	63.06
1012.952	63.19
1013.305	63.17
1013.657	63.11
1014.01	63.35
1014.362	63.16
1014.715	63.14
1015.067	63.29
1015.419	63.52
1015.771	63.85
1016.123	63.66
1016.475	63.96
1016.827	64.31
1017.179	64.31
1017.531	64.13
1017.883	63.96
1018.234	63.69
1018.586	63.5
1018.938	63.13
1019.289	62.97
1019.64	63
1019.992	63.18
1020.343	62.62
1020.694	62.31
1021.045	62.13
1021.396	62.21
1021.747	62.05
1022.098	62.11
1022.449	61.97
1022.8	61.8
1023.151	61.75
1023.501	61.39
1023.852	61.54
1024.202	61.89
1024.553	61.41
1024.903	61.46
1025.253	61.14
1025.604	61.12
1025.954	60.93
1026.304	61.36
1026.654	61.52
1027.004	61.66
1027.354	61.5
1027.703	61.09
1028.053	60.62
1028.403	60.81
1028.753	60.8
1029.102	61.19
1029.452	61.22
1029.801	61.53
1030.15	61.33
1030.499	61.49
897.758	-96.89
901.051	-87.95
904.343	-90.57
907.636	-88.22
910.928	-82.35
914.22	-84.03
917.511	-84.89
920.803	-77.35
924.094	-70.15
927.384	-68.07
930.675	-62.81
933.965	-62.53
937.255	-62.16
940.544	-57.23
943.834	-52.74
947.123	-53.1
950.411	-43.14
953.7	-39.86
956.988	-37.58
960.276	-29.83
963.563	-26.07
966.851	-19.62
970.138	-17.01
973.424	-13.83
976.711	-10.73
979.997	-7.17
983.283	-7.43
986.568	-7.68
989.853	-1.49
993.138	0.65
996.423	0.51
999.708	3.59
1002.992	2.65
1006.275	5.34
1009.559	7.14
1012.842	8.74
1016.125	10.71
1019.408	13.07
1022.69	15.78
1025.972	14.33
1029.254	16.76
1032.536	18.11
1035.817	18.04
1039.098	20.69
1042.379	23.14
1045.659	23.42
1048.939	24.78
1052.219	26.75
1055.498	27.26
1058.778	27.22
1062.057	27.77
1065.335	29.1
1068.614	28.44
1071.892	29.75
1075.17	28.74
1078.447	29.44
1081.724	30.52
1085.001	28.88
1088.278	28.27
1091.554	29.45
1094.83	29.75
1098.106	30.66
1101.382	30.55
1104.657	31.58
1107.932	31.72
1111.206	32.92
1114.481	32.89
1117.755	32.07
1121.029	33.28
1124.302	34.02
1127.575	35.23
1130.848	35.06
1134.121	34.81
1137.393	35.48
1140.665	35.05
1143.937	34.5
1147.208	35.55
1150.48	35.45
1153.75	35.49
1157.021	36.95
1160.291	37.32
1163.561	35.82
1166.831	36.65
1170.101	37.26
1173.37	37.11
1176.639	37.51
1179.907	38.33
1183.176	37.84
1186.444	37.03
1189.711	37.39
1192.979	36.36
1196.246	37.02
1199.513	36.85
1202.78	36.76
1206.046	36.72
1209.312	36.9
1212.578	37.15
1215.843	36.31
1219.108	35.66
1222.373	35.86
1225.638	35.17
1228.902	34.81
1232.166	31.75
1235.43	30.82
1238.693	30.08
1241.956	28.71
1245.219	26.21
1248.482	27.02
1251.744	26.63
1255.006	27.74
1258.268	27.21
1261.529	28.05
1264.79	29.5
1268.051	30.73
1271.312	32.73
1274.572	32.87
1277.832	34.68
1281.092	35.36
1284.351	35.49
1287.61	35.78
1290.869	35.76
1294.128	36.71
1297.386	37.01
1300.644	36.28
1303.902	35.84
1307.159	35.99
1310.416	35.6
1313.673	35.01
1316.93	34.33
1320.186	33.8
1323.442	32.24
1326.697	30.55
1329.953	28.46
1333.208	25.87
1336.463	24.02
1339.717	24.78
1342.972	21.24
1346.226	18.55
1349.479	16.98
1352.733	15.55
1355.986	11.93
1359.238	11.64
1362.491	9.47
1365.743	8.6
1368.995	10.56
1372.247	6.33
1375.498	4.29
1378.749	1.81
1382	-0.19
1385.251	-0.56
1388.501	-2.12
1391.751	-4.04
1395	-4.42
1398.25	-4.44
1401.499	-6.57
1404.748	-10.5
1407.996	-7.94
1411.244	-7.67
1414.492	-8.31
1417.74	-7.8
1420.987	-7.79
1424.234	-8.11
1427.481	-7.3
1430.728	-6.01
1433.974	-6.07
1437.22	-3.67
1440.465	-2.92
1443.711	-2.29
1446.956	-1.35
1450.201	1.04
1453.445	2.75
1456.689	4.26
1459.933	5.68
1463.177	7.46
1466.42	7.68
1469.663	8.46
1472.906	9.35
1476.148	10.21
1479.391	12.07
1482.633	12.52
1485.874	13.7
1489.115	15.25
1492.356	15.77
1495.597	16.25
1498.838	17.13
1502.078	18.17
1505.318	19.37
1508.557	19.64
1511.797	21.03
1515.036	21.82
1518.274	22.89
1521.513	23.21
1524.751	23.26
1527.989	24.64
1531.227	25.18
1534.464	26.58
1537.701	27.13
1540.938	27.26
1544.174	28.13
1547.41	28.51
1550.646	29.14
1553.882	29.45
1557.117	30.01
1560.352	30.66
1563.587	30.15
1566.821	30.76
1570.055	31.64
1573.289	31.77
1576.523	32.34
1579.756	32.02
1582.989	33.08
1586.222	32.95
1589.454	32.68
1592.686	32.95
1595.918	33.12
1599.15	33.87
1602.381	33.99
1605.612	33.86
1608.843	33.64
1612.073	33.63
1615.303	34.82
1618.533	34.13
1621.762	34.36
1624.992	34.99
1628.221	34.91
1631.449	35.08
1634.678	35.45
1637.906	35.01
1641.134	34.92
1644.361	35.31
1647.588	35.28
1650.815	34.92
1654.042	36.24
1657.269	35.8
1660.495	35.95
1663.72	36.41
1666.946	35.59
1670.171	35.44
1673.396	35.35
1676.621	35.62
1679.845	36.28
1683.069	35.62
1686.293	35.44
1689.517	34.51
1692.74	34.66
1695.963	34.91
1699.185	34.16
1702.408	34.92
1705.63	34.49
1708.852	34.86
1712.073	34.11
1715.294	33.24
1718.515	34.49
1721.736	34.19
1724.956	33.71
1728.176	33.75
1731.396	32.96
1734.616	33.34
1737.835	32.81
1741.054	32.65
1744.272	32.51
1747.491	32.09
1750.709	32.14
1753.927	31.19
1757.144	31.19
1760.361	30.66
1763.578	30.09
1766.795	30.16
1770.011	29.85
1773.227	29.97
1776.443	29.26
1779.658	28.88
1782.874	28.52
1786.089	27.53
1789.303	27.55
1792.518	26.76
1795.732	27.16
1798.945	27.68
1802.159	27
1805.372	26.08
1808.585	25.95
1811.797	26.32
1815.01	25.52
1818.222	25.84
1821.434	25.76
1824.645	25.37
1827.856	25.15
1831.067	24.31
1834.278	23.81
1837.488	23.25
1840.698	22.86
1843.908	21.88
1847.117	21.09
1850.326	20.55
1853.535	19.87
1856.744	18.39
1859.952	16.47
1863.16	15.44
1866.368	14.93
1869.575	13.05
1872.782	10.73
1875.989	7.43
1879.196	7.25
1882.402	3.85
1885.608	3.22
1888.814	0.05
1892.019	-2.85
1895.224	-4
1898.429	-6.06
1901.634	-9
1904.838	-12.24
1908.042	-12.74
1911.246	-12.55
1914.449	-15.1
1917.652	-15.6
1920.855	-17.22
1924.058	-18.06
1927.26	-19.28
1930.462	-19.47
1933.664	-18.32
1936.865	-18.3
1940.066	-17.35
1943.267	-18.11
1946.467	-18.39
1949.668	-18.65
1952.868	-17.3
1956.067	-17.08
1959.267	-14.9
1962.466	-14.79
1965.665	-14.57
1968.863	-14.77
1972.061	-14.46
1975.259	-15.23
1978.457	-15.07
1981.654	-14.93
1984.852	-14.84
1988.048	-15.05
1991.245	-14.5
1994.441	-15.05
1997.637	-14.52
2000.833	-13.53
2004.028	-15.51
2007.223	-16.15
2010.418	-14.49
2013.613	-14.44
2016.807	-14.29
2020.001	-14.42
2023.194	-14.26
2026.388	-15.17
2029.581	-17.04
2032.774	-18.28
2035.966	-20.34
2039.158	-18.65
2042.35	-20.38
2045.542	-22.1
2048.733	-22.94
2051.924	-26.39
2055.115	-27.74
2058.306	-28.87
2061.496	-31.48
2064.686	-31.47
2067.875	-29.66
2071.065	-28.43
2074.254	-29.68
2077.442	-31.63
2080.631	-31.96
2083.819	-32.51
2087.007	-28.83
2090.195	-30.06
2093.382	-31.62
2096.569	-30.94
2099.756	-27.78
2102.942	-30.18
2106.128	-33.19
2109.314	-31.03
2112.5	-28.51
2115.685	-28.86
2118.87	-29.45
2122.055	-29.49
2125.239	-31.2
2128.424	-29.54
2131.608	-31.08
2134.791	-34.37
2137.974	-34.25
2141.157	-32.22
2144.34	-34.35
2147.523	-35.27
2150.705	-35.92
2153.887	-36.18
2157.068	-37.46
2160.25	-35.68
2163.431	-35.21
2166.611	-33.85
2169.792	-36.4
2172.972	-34.58
2176.152	-35.9
2179.331	-38.31
2182.511	-39.36
2185.69	-39.86
2188.868	-43.91
2192.047	-45.17
2195.225	-45.15
2198.403	-51.88
2201.58	-51.28
2204.758	-47.98
2207.935	-53.82
2211.111	-58.18
2214.288	-56.41
2217.464	-56
2220.64	-55.46
2223.815	-56.59
2226.991	-56.11
2230.166	-57.37
2233.34	-56.11
2236.515	-63.18
2239.689	-66.34
2242.863	-64.87
2246.036	-62.32
2249.209	-66.5
2252.382	-67.32
2255.555	-73.51
2258.727	-70.12
2261.9	-78.93
2265.071	-80.03
2268.243	-77.99
2271.414	-80.55
2274.585	-84.65
2277.756	-83.31
2280.926	-89.91
2284.096	-90.29
2287.266	-90.07
2290.436	-85.46
2293.605	-89.16
2296.774	-86.66
2299.942	-88.43
2303.111	-93.4
2306.279	-91.46
2309.447	-89.55
2312.614	-92.06
2315.781	-96.12
2318.948	-96.46
2322.115	-98.09
2325.281	-116.45
2328.447	-113.74
2331.613	-114.01
2334.779	-115.85
2337.944	-124.76
2341.109	-130.16
2344.274	-130.25
2347.438	-141.63
2350.602	-137.98
2353.766	-152.35
2356.929	-153.5
2360.092	-147.26
2363.255	-150.5
2366.418	-156.28
2369.58	-166.02
2372.742	-151.53
2375.904	-148.06
2379.066	-156.9
2382.227	-159.45
2385.388	-168.65
2388.548	-151.67
2391.709	-147.98
2394.869	-158.69
2398.029	-154.64
2401.188	-152.45
2404.347	-159.44
2407.506	-171.85
2410.665	-158.62
2413.823	-163.64
2416.981	-165.29
2420.139	-152.96
2423.296	-171.71
2426.453	-187.32
2429.61	-175.86
2432.767	-192.08
2435.923	-200.01
2439.079	-176.74
2442.235	-190.94
2445.391	-198.85
2448.546	-194.22
2451.701	-207.4
2454.855	-225.61
2458.009	-184.01
2461.163	-187.88
2464.317	-184.98
2467.471	-179.24
2470.624	-190.2
2473.777	-191.83
2476.929	-169.33
2480.082	-193.21
2483.234	-203.61
2486.385	-207.65
2489.537	-207.36
2492.688	-242.08
2495.839	-245.92
2498.989	-250.37
2502.14	-252.92
2505.29	-230.45
2508.439	-271.95
2511.589	-288.16
2514.738	-269
2517.887	-271.02
2521.035	-253.52
2524.183	-257.35
2527.331	-251.44
2530.479	-237.51
2533.627	-248.7
