Data from C_1_DIV_IL_4n_007_Splice17_18.txt Node
Date: Sat Feb 29 13:09:45 EST 2020
User: sa697716
Spectrometer: FLMS03696
Trigger mode: 0
Integration Time (sec): 3.180400E-1
Scans to average: 20
Electric dark correction enabled: true
Nonlinearity correction enabled: true
Boxcar width: 5
XAxis mode: Wavelengths
Number of Pixels in Spectrum: 2048
>>>>>Begin Spectral Data<<<<<
187.83	25.98
188.298	16.09
188.766	33.3
189.233	19.57
189.701	27.86
190.169	29.6
190.636	27.54
191.104	19.47
191.571	55.07
192.039	42.19
192.506	-3.68
192.974	1009.09
193.441	35.6
193.908	76.28
194.375	-11.34
194.842	102.04
195.31	84.23
195.777	42.28
196.244	4.19
196.711	12.65
197.177	6.63
197.644	7.5
198.111	7.43
198.578	7.5
199.045	7.85
199.511	8.65
199.978	9.04
200.445	8.44
200.911	8.75
201.378	9.16
201.844	9.28
202.31	10.01
202.777	10.24
203.243	10.96
203.709	11.43
204.176	11.35
204.642	11.21
205.108	10.79
205.574	11.87
206.04	12.21
206.506	12.08
206.972	11.82
207.438	12.01
207.903	12.6
208.369	12.28
208.835	12.39
209.301	12.65
209.766	13.05
210.232	13.21
210.697	12.79
211.163	12.58
211.628	12.67
212.094	12.49
212.559	12.13
213.024	11.69
213.49	11.9
213.955	11.93
214.42	11.6
214.885	11.22
215.35	10.92
215.815	10.48
216.28	10.28
216.745	10.24
217.21	10.12
217.675	10.09
218.14	9.7
218.604	9.23
219.069	9
219.534	8.87
219.998	8.7
220.463	8.62
220.927	8.49
221.392	8.33
221.856	8.17
222.32	8.04
222.785	7.88
223.249	7.84
223.713	7.8
224.177	7.66
224.642	7.58
225.106	7.46
225.57	7.33
226.034	7.26
226.497	7.16
226.961	7.03
227.425	6.91
227.889	6.8
228.353	6.67
228.816	6.57
229.28	6.46
229.744	6.38
230.207	6.31
230.671	6.22
231.134	6.14
231.597	6.05
232.061	6
232.524	5.95
232.987	5.88
233.45	5.82
233.914	5.76
234.377	5.7
234.84	5.62
235.303	5.53
235.766	5.48
236.229	5.42
236.691	5.38
237.154	5.32
237.617	5.25
238.08	5.19
238.542	5.13
239.005	5.07
239.468	5.01
239.93	4.96
240.393	4.92
240.855	4.87
241.317	4.83
241.78	4.78
242.242	4.74
242.704	4.69
243.166	4.65
243.629	4.6
244.091	4.57
244.553	4.53
245.015	4.49
245.477	4.45
245.939	4.4
246.4	4.35
246.862	4.32
247.324	4.28
247.786	4.25
248.247	4.22
248.709	4.18
249.17	4.14
249.632	4.09
250.093	4.04
250.555	4
251.016	3.99
251.477	3.96
251.939	3.92
252.4	3.89
252.861	3.86
253.322	3.82
253.783	3.8
254.244	3.78
254.705	3.78
255.166	3.78
255.627	3.76
256.088	3.73
256.549	3.71
257.009	3.68
257.47	3.66
257.931	3.64
258.391	3.61
258.852	3.57
259.312	3.55
259.773	3.52
260.233	3.49
260.694	3.46
261.154	3.44
261.614	3.42
262.074	3.4
262.534	3.37
262.994	3.35
263.455	3.34
263.915	3.32
264.374	3.3
264.834	3.28
265.294	3.26
265.754	3.23
266.214	3.21
266.673	3.2
267.133	3.17
267.593	3.16
268.052	3.14
268.512	3.12
268.971	3.11
269.431	3.09
269.89	3.08
270.349	3.06
270.809	3.06
271.268	3.05
271.727	3.04
272.186	3.03
272.645	3.01
273.104	3.01
273.563	2.99
274.022	2.99
274.481	2.97
274.94	2.96
275.399	2.95
275.857	2.93
276.316	2.92
276.775	2.9
277.233	2.89
277.692	2.87
278.15	2.85
278.609	2.83
279.067	2.81
279.525	2.79
279.984	2.78
280.442	2.77
280.9	2.76
281.358	2.74
281.816	2.73
282.274	2.72
282.732	2.72
283.19	2.71
283.648	2.7
284.106	2.69
284.564	2.69
285.021	2.68
285.479	2.68
285.937	2.67
286.394	2.66
286.852	2.65
287.309	2.64
287.767	2.63
288.224	2.62
288.682	2.61
289.139	2.6
289.596	2.58
290.053	2.57
290.511	2.55
290.968	2.54
291.425	2.53
291.882	2.52
292.339	2.5
292.796	2.48
293.252	2.47
293.709	2.46
294.166	2.44
294.623	2.43
295.079	2.43
295.536	2.43
295.992	2.42
296.449	2.41
296.905	2.39
297.362	2.39
297.818	2.38
298.274	2.37
298.731	2.37
299.187	2.37
299.643	2.36
300.099	2.36
300.555	2.34
301.011	2.33
301.467	2.32
301.923	2.31
302.379	2.31
302.835	2.3
303.291	2.29
303.746	2.28
304.202	2.27
304.658	2.26
305.113	2.25
305.569	2.25
306.024	2.24
306.479	2.23
306.935	2.23
307.39	2.22
307.845	2.22
308.301	2.22
308.756	2.22
309.211	2.21
309.666	2.21
310.121	2.21
310.576	2.21
311.031	2.21
311.486	2.21
311.94	2.2
312.395	2.2
312.85	2.2
313.305	2.19
313.759	2.19
314.214	2.19
314.668	2.18
315.123	2.17
315.577	2.16
316.032	2.16
316.486	2.15
316.94	2.16
317.394	2.15
317.849	2.14
318.303	2.14
318.757	2.12
319.211	2.11
319.665	2.11
320.119	2.11
320.572	2.11
321.026	2.1
321.48	2.1
321.934	2.09
322.387	2.08
322.841	2.08
323.295	2.07
323.748	2.07
324.202	2.07
324.655	2.06
325.108	2.05
325.562	2.03
326.015	2.02
326.468	2.01
326.921	2.01
327.374	2.01
327.827	2.01
328.28	2
328.733	2
329.186	1.99
329.639	1.98
330.092	1.99
330.545	1.99
330.997	2
331.45	2
331.903	1.99
332.355	1.99
332.808	1.99
333.26	1.98
333.713	1.98
334.165	1.98
334.617	1.98
335.069	1.98
335.522	1.98
335.974	1.98
336.426	1.98
336.878	1.98
337.33	1.98
337.782	1.98
338.234	1.98
338.686	1.98
339.137	1.98
339.589	1.98
340.041	1.98
340.493	1.96
340.944	1.96
341.396	1.96
341.847	1.95
342.299	1.93
342.75	1.92
343.201	1.91
343.653	1.9
344.104	1.9
344.555	1.89
345.006	1.89
345.457	1.88
345.908	1.87
346.359	1.87
346.81	1.87
347.261	1.87
347.712	1.87
348.163	1.87
348.613	1.87
349.064	1.84
349.515	1.83
349.965	1.83
350.416	1.82
350.866	1.82
351.317	1.82
351.767	1.81
352.217	1.8
352.668	1.8
353.118	1.8
353.568	1.81
354.018	1.81
354.468	1.81
354.918	1.81
355.368	1.82
355.818	1.81
356.268	1.82
356.718	1.81
357.168	1.82
357.617	1.81
358.067	1.8
358.517	1.79
358.966	1.78
359.416	1.79
359.865	1.78
360.315	1.78
360.764	1.79
361.213	1.78
361.663	1.77
362.112	1.77
362.561	1.77
363.01	1.78
363.459	1.78
363.908	1.78
364.357	1.77
364.806	1.77
365.255	1.77
365.703	1.77
366.152	1.77
366.601	1.76
367.05	1.76
367.498	1.76
367.947	1.74
368.395	1.75
368.844	1.74
369.292	1.73
369.74	1.74
370.189	1.73
370.637	1.73
371.085	1.73
371.533	1.74
371.981	1.74
372.429	1.73
372.877	1.73
373.325	1.72
373.773	1.72
374.221	1.72
374.669	1.72
375.116	1.71
375.564	1.72
376.012	1.71
376.459	1.71
376.907	1.7
377.354	1.69
377.801	1.69
378.249	1.7
378.696	1.71
379.143	1.71
379.591	1.71
380.038	1.72
380.485	1.72
380.932	1.72
381.379	1.71
381.826	1.71
382.273	1.72
382.72	1.73
383.166	1.72
383.613	1.71
384.06	1.72
384.506	1.72
384.953	1.71
385.4	1.72
385.846	1.71
386.292	1.72
386.739	1.71
387.185	1.72
387.631	1.72
388.078	1.73
388.524	1.72
388.97	1.73
389.416	1.72
389.862	1.71
390.308	1.7
390.754	1.71
391.2	1.73
391.645	1.74
392.091	1.74
392.537	1.74
392.983	1.75
393.428	1.76
393.874	1.78
394.319	1.79
394.765	1.79
395.21	1.8
395.655	1.81
396.101	1.81
396.546	1.81
396.991	1.83
397.436	1.83
397.881	1.85
398.326	1.87
398.771	1.87
399.216	1.89
399.661	1.91
400.106	1.93
400.551	1.93
400.995	1.93
401.44	1.94
401.885	1.95
402.329	1.97
402.774	1.97
403.218	1.98
403.663	1.99
404.107	2
404.551	2.02
404.995	2.02
405.44	2.04
405.884	2.05
406.328	2.07
406.772	2.08
407.216	2.1
407.66	2.11
408.104	2.12
408.547	2.14
408.991	2.16
409.435	2.17
409.879	2.18
410.322	2.22
410.766	2.25
411.209	2.26
411.653	2.28
412.096	2.29
412.54	2.3
412.983	2.33
413.426	2.34
413.869	2.35
414.312	2.37
414.756	2.39
415.199	2.4
415.642	2.42
416.085	2.44
416.527	2.46
416.97	2.48
417.413	2.49
417.856	2.49
418.298	2.5
418.741	2.51
419.184	2.52
419.626	2.53
420.069	2.54
420.511	2.53
420.953	2.53
421.396	2.54
421.838	2.56
422.28	2.57
422.722	2.6
423.164	2.6
423.606	2.61
424.048	2.61
424.49	2.61
424.932	2.6
425.374	2.61
425.816	2.61
426.258	2.59
426.699	2.58
427.141	2.57
427.582	2.57
428.024	2.58
428.465	2.6
428.907	2.61
429.348	2.61
429.789	2.62
430.231	2.63
430.672	2.65
431.113	2.67
431.554	2.69
431.995	2.71
432.436	2.71
432.877	2.7
433.318	2.7
433.759	2.69
434.2	2.72
434.64	2.73
435.081	2.73
435.522	2.75
435.962	2.78
436.403	2.81
436.843	2.8
437.284	2.81
437.724	2.84
438.164	2.86
438.604	2.89
439.045	2.9
439.485	2.9
439.925	2.89
440.365	2.88
440.805	2.88
441.245	2.85
441.685	2.89
442.125	2.89
442.564	2.9
443.004	2.92
443.444	2.93
443.883	2.94
444.323	2.96
444.762	3.02
445.202	3.06
445.641	3.08
446.081	3.14
446.52	3.14
446.959	3.18
447.398	3.22
447.837	3.25
448.276	3.28
448.716	3.3
449.154	3.35
449.593	3.37
450.032	3.4
450.471	3.44
450.91	3.47
451.349	3.51
451.787	3.54
452.226	3.54
452.664	3.55
453.103	3.56
453.541	3.59
453.98	3.59
454.418	3.57
454.856	3.56
455.295	3.53
455.733	3.51
456.171	3.5
456.609	3.49
457.047	3.5
457.485	3.5
457.923	3.49
458.361	3.47
458.798	3.48
459.236	3.49
459.674	3.49
460.111	3.52
460.549	3.52
460.987	3.53
461.424	3.53
461.862	3.54
462.299	3.54
462.736	3.54
463.173	3.54
463.611	3.53
464.048	3.54
464.485	3.54
464.922	3.53
465.359	3.53
465.796	3.51
466.233	3.51
466.67	3.5
467.106	3.5
467.543	3.51
467.98	3.52
468.416	3.54
468.853	3.54
469.29	3.56
469.726	3.56
470.162	3.57
470.599	3.6
471.035	3.61
471.471	3.62
471.907	3.63
472.344	3.63
472.78	3.64
473.216	3.64
473.652	3.66
474.088	3.66
474.523	3.67
474.959	3.67
475.395	3.66
475.831	3.68
476.266	3.68
476.702	3.69
477.138	3.69
477.573	3.68
478.008	3.68
478.444	3.67
478.879	3.67
479.314	3.68
479.75	3.69
480.185	3.69
480.62	3.69
481.055	3.68
481.49	3.69
481.925	3.68
482.36	3.68
482.795	3.68
483.229	3.69
483.664	3.69
484.099	3.7
484.534	3.71
484.968	3.72
485.403	3.72
485.837	3.75
486.271	3.76
486.706	3.78
487.14	3.82
487.574	3.85
488.009	3.88
488.443	3.91
488.877	3.93
489.311	3.96
489.745	3.99
490.179	4.02
490.613	4.07
491.046	4.12
491.48	4.17
491.914	4.21
492.348	4.26
492.781	4.32
493.215	4.37
493.648	4.45
494.082	4.53
494.515	4.61
494.948	4.69
495.382	4.76
495.815	4.85
496.248	4.95
496.681	5.04
497.114	5.14
497.547	5.24
497.98	5.36
498.413	5.47
498.846	5.59
499.279	5.71
499.711	5.85
500.144	5.98
500.577	6.12
501.009	6.25
501.442	6.41
501.874	6.57
502.306	6.74
502.739	6.91
503.171	7.11
503.603	7.31
504.036	7.51
504.468	7.72
504.9	7.96
505.332	8.18
505.764	8.41
506.196	8.66
506.627	8.91
507.059	9.18
507.491	9.45
507.923	9.7
508.354	9.98
508.786	10.26
509.217	10.54
509.649	10.84
510.08	11.16
510.512	11.46
510.943	11.77
511.374	12.09
511.805	12.4
512.237	12.73
512.668	13.08
513.099	13.43
513.53	13.78
513.961	14.14
514.391	14.48
514.822	14.83
515.253	15.19
515.684	15.54
516.114	15.92
516.545	16.29
516.975	16.67
517.406	17.04
517.836	17.38
518.267	17.75
518.697	18.11
519.127	18.48
519.558	18.84
519.988	19.21
520.418	19.57
520.848	19.9
521.278	20.25
521.708	20.52
522.138	20.83
522.567	21.16
522.997	21.47
523.427	21.77
523.857	22.06
524.286	22.36
524.716	22.62
525.145	22.89
525.575	23.15
526.004	23.41
526.433	23.7
526.863	23.94
527.292	24.17
527.721	24.37
528.15	24.58
528.579	24.78
529.008	24.97
529.437	25.17
529.866	25.34
530.295	25.51
530.724	25.67
531.152	25.83
531.581	25.98
532.01	26.11
532.438	26.25
532.867	26.39
533.295	26.5
533.723	26.64
534.152	26.72
534.58	26.82
535.008	26.91
535.436	26.97
535.865	27.06
536.293	27.14
536.721	27.23
537.149	27.3
537.576	27.36
538.004	27.4
538.432	27.45
538.86	27.51
539.287	27.56
539.715	27.61
540.143	27.67
540.57	27.68
540.998	27.73
541.425	27.77
541.852	27.79
542.28	27.81
542.707	27.86
543.134	27.88
543.561	27.9
543.988	27.92
544.415	27.97
544.842	28.01
545.269	28.06
545.696	28.08
546.123	28.1
546.549	28.15
546.976	28.19
547.403	28.2
547.829	28.24
548.256	28.27
548.682	28.26
549.108	28.27
549.535	28.26
549.961	28.26
550.387	28.26
550.813	28.26
551.24	28.24
551.666	28.25
552.092	28.23
552.518	28.2
552.943	28.19
553.369	28.19
553.795	28.18
554.221	28.16
554.646	28.13
555.072	28.08
555.498	28.04
555.923	27.99
556.349	27.91
556.774	27.86
557.199	27.79
557.625	27.72
558.05	27.63
558.475	27.53
558.9	27.44
559.325	27.35
559.75	27.24
560.175	27.14
560.6	27.02
561.025	26.92
561.449	26.79
561.874	26.67
562.299	26.54
562.723	26.41
563.148	26.29
563.572	26.15
563.997	26
564.421	25.86
564.846	25.7
565.27	25.55
565.694	25.39
566.118	25.23
566.542	25.07
566.966	24.91
567.39	24.72
567.814	24.53
568.238	24.33
568.662	24.15
569.086	23.97
569.509	23.8
569.933	23.63
570.357	23.42
570.78	23.24
571.204	23.05
571.627	22.86
572.05	22.7
572.474	22.53
572.897	22.37
573.32	22.21
573.743	22.03
574.166	21.86
574.589	21.69
575.012	21.55
575.435	21.38
575.858	21.24
576.281	21.1
576.704	20.96
577.126	20.82
577.549	20.72
577.972	20.59
578.394	20.47
578.817	20.35
579.239	20.25
579.661	20.14
580.084	20.05
580.506	19.94
580.928	19.83
581.35	19.74
581.772	19.64
582.194	19.55
582.616	19.46
583.038	19.37
583.46	19.3
583.882	19.21
584.303	19.14
584.725	19.06
585.147	18.97
585.568	18.89
585.99	18.8
586.411	18.72
586.833	18.64
587.254	18.57
587.675	18.49
588.096	18.42
588.518	18.33
588.939	18.27
589.36	18.2
589.781	18.16
590.202	18.1
590.623	18.06
591.043	18
591.464	17.94
591.885	17.88
592.305	17.86
592.726	17.81
593.147	17.79
593.567	17.73
593.987	17.7
594.408	17.65
594.828	17.63
595.248	17.59
595.669	17.55
596.089	17.53
596.509	17.49
596.929	17.44
597.349	17.38
597.769	17.34
598.189	17.3
598.608	17.25
599.028	17.21
599.448	17.17
599.867	17.12
600.287	17.06
600.706	17
601.126	16.95
601.545	16.89
601.965	16.84
602.384	16.76
602.803	16.7
603.222	16.62
603.641	16.54
604.061	16.45
604.48	16.37
604.898	16.31
605.317	16.24
605.736	16.16
606.155	16.07
606.574	15.98
606.992	15.89
607.411	15.8
607.829	15.67
608.248	15.59
608.666	15.49
609.085	15.38
609.503	15.25
609.921	15.13
610.339	15.03
610.758	14.94
611.176	14.84
611.594	14.72
612.012	14.62
612.43	14.56
612.847	14.47
613.265	14.37
613.683	14.29
614.101	14.19
614.518	14.1
614.936	14
615.353	13.9
615.771	13.81
616.188	13.74
616.606	13.66
617.023	13.58
617.44	13.5
617.857	13.42
618.274	13.35
618.691	13.29
619.108	13.24
619.525	13.19
619.942	13.12
620.359	13.07
620.776	13.03
621.192	12.99
621.609	12.95
622.026	12.91
622.442	12.89
622.859	12.86
623.275	12.84
623.691	12.81
624.108	12.78
624.524	12.77
624.94	12.74
625.356	12.71
625.772	12.7
626.188	12.69
626.604	12.65
627.02	12.63
627.436	12.62
627.852	12.59
628.268	12.58
628.683	12.56
629.099	12.54
629.514	12.51
629.93	12.49
630.345	12.46
630.761	12.42
631.176	12.39
631.591	12.35
632.007	12.3
632.422	12.25
632.837	12.19
633.252	12.12
633.667	12.03
634.082	11.97
634.497	11.87
634.911	11.75
635.326	11.65
635.741	11.54
636.155	11.43
636.57	11.33
636.984	11.19
637.399	11.05
637.813	10.92
638.228	10.79
638.642	10.64
639.056	10.5
639.47	10.37
639.884	10.23
640.298	10.09
640.712	9.93
641.126	9.76
641.54	9.61
641.954	9.46
642.368	9.32
642.781	9.16
643.195	9.01
643.609	8.86
644.022	8.73
644.436	8.59
644.849	8.45
645.262	8.33
645.676	8.22
646.089	8.11
646.502	8.01
646.915	7.9
647.328	7.81
647.741	7.73
648.154	7.66
648.567	7.57
648.98	7.51
649.393	7.44
649.805	7.37
650.218	7.31
650.631	7.26
651.043	7.19
651.456	7.15
651.868	7.09
652.28	7.04
652.693	6.97
653.105	6.91
653.517	6.83
653.929	6.77
654.341	6.71
654.753	6.63
655.165	6.54
655.577	6.45
655.989	6.35
656.401	6.25
656.813	6.15
657.224	6.06
657.636	5.96
658.047	5.85
658.459	5.73
658.87	5.61
659.282	5.5
659.693	5.4
660.104	5.28
660.515	5.17
660.926	5.06
661.338	4.95
661.749	4.83
662.159	4.73
662.57	4.65
662.981	4.55
663.392	4.46
663.803	4.36
664.213	4.28
664.624	4.23
665.035	4.16
665.445	4.12
665.855	4.05
666.266	4.01
666.676	3.97
667.086	3.9
667.497	3.86
667.907	3.82
668.317	3.79
668.727	3.74
669.137	3.71
669.547	3.7
669.956	3.67
670.366	3.65
670.776	3.64
671.186	3.62
671.595	3.64
672.005	3.64
672.414	3.65
672.824	3.66
673.233	3.68
673.642	3.7
674.052	3.69
674.461	3.7
674.87	3.73
675.279	3.75
675.688	3.77
676.097	3.79
676.506	3.82
676.915	3.86
677.323	3.9
677.732	3.94
678.141	3.99
678.549	4.05
678.958	4.12
679.366	4.18
679.775	4.26
680.183	4.34
680.592	4.42
681	4.52
681.408	4.63
681.816	4.75
682.224	4.88
682.632	5.02
683.04	5.19
683.448	5.36
683.856	5.56
684.264	5.78
684.671	6.03
685.079	6.31
685.487	6.62
685.894	6.95
686.302	7.3
686.709	7.68
687.116	8.1
687.524	8.53
687.931	8.99
688.338	9.48
688.745	9.99
689.152	10.54
689.559	11.11
689.966	11.68
690.373	12.3
690.78	12.92
691.187	13.57
691.593	14.23
692	14.91
692.407	15.6
692.813	16.31
693.22	17.01
693.626	17.7
694.032	18.41
694.439	19.13
694.845	19.83
695.251	20.52
695.657	21.21
696.063	21.89
696.469	22.57
696.875	23.23
697.281	23.87
697.687	24.53
698.093	25.17
698.498	25.78
698.904	26.39
699.31	27
699.715	27.6
700.12	28.18
700.526	28.77
700.931	29.32
701.337	29.88
701.742	30.41
702.147	30.95
702.552	31.48
702.957	32
703.362	32.5
703.767	32.97
704.172	33.45
704.577	33.93
704.981	34.37
705.386	34.82
705.791	35.28
706.195	35.7
706.6	36.11
707.004	36.51
707.408	36.93
707.813	37.33
708.217	37.71
708.621	38.09
709.025	38.44
709.43	38.8
709.834	39.18
710.237	39.51
710.641	39.87
711.045	40.18
711.449	40.5
711.853	40.78
712.256	41.11
712.66	41.41
713.064	41.7
713.467	42.01
713.87	42.3
714.274	42.57
714.677	42.86
715.08	43.14
715.484	43.43
715.887	43.69
716.29	43.96
716.693	44.18
717.096	44.45
717.499	44.71
717.901	44.91
718.304	45.12
718.707	45.33
719.109	45.54
719.512	45.75
719.915	45.96
720.317	46.18
720.719	46.39
721.122	46.6
721.524	46.78
721.926	46.94
722.328	47.15
722.731	47.32
723.133	47.52
723.535	47.72
723.937	47.84
724.338	47.99
724.74	48.12
725.142	48.19
725.544	48.3
725.945	48.44
726.347	48.6
726.748	48.69
727.15	48.84
727.551	48.96
727.952	49.04
728.354	49.18
728.755	49.33
729.156	49.45
729.557	49.66
729.958	49.78
730.359	49.87
730.76	49.96
731.161	50.08
731.562	50.17
731.962	50.25
732.363	50.34
732.763	50.44
733.164	50.45
733.564	50.5
733.965	50.54
734.365	50.58
734.766	50.67
735.166	50.69
735.566	50.72
735.966	50.73
736.366	50.76
736.766	50.78
737.166	50.77
737.566	50.83
737.966	50.87
738.365	50.93
738.765	50.96
739.165	50.95
739.564	50.98
739.964	51.02
740.363	51.06
740.763	51.06
741.162	51.05
741.561	51.08
741.96	51.12
742.36	51.15
742.759	51.11
743.158	51.12
743.557	51.15
743.955	51.2
744.354	51.26
744.753	51.29
745.152	51.35
745.55	51.43
745.949	51.47
746.348	51.49
746.746	51.52
747.144	51.6
747.543	51.64
747.941	51.72
748.339	51.74
748.737	51.78
749.136	51.77
749.534	51.75
749.932	51.74
750.33	51.79
750.727	51.81
751.125	51.82
751.523	51.81
751.921	51.83
752.318	51.77
752.716	51.78
753.113	51.73
753.511	51.75
753.908	51.78
754.305	51.78
754.703	51.73
755.1	51.72
755.497	51.72
755.894	51.74
756.291	51.73
756.688	51.78
757.085	51.78
757.482	51.8
757.878	51.8
758.275	51.8
758.672	51.82
759.068	51.84
759.465	51.84
759.861	51.85
760.258	51.81
760.654	51.79
761.05	51.75
761.447	51.71
761.843	51.68
762.239	51.65
762.635	51.63
763.031	51.62
763.427	51.57
763.822	51.51
764.218	51.51
764.614	51.49
765.01	51.48
765.405	51.43
765.801	51.43
766.196	51.41
766.592	51.4
766.987	51.37
767.382	51.31
767.778	51.31
768.173	51.33
768.568	51.28
768.963	51.3
769.358	51.3
769.753	51.34
770.148	51.34
770.542	51.33
770.937	51.33
771.332	51.34
771.726	51.31
772.121	51.29
772.515	51.29
772.91	51.29
773.304	51.26
773.699	51.24
774.093	51.23
774.487	51.23
774.881	51.26
775.275	51.26
775.669	51.24
776.063	51.28
776.457	51.28
776.851	51.26
777.245	51.28
777.638	51.27
778.032	51.27
778.425	51.25
778.819	51.25
779.212	51.2
779.606	51.2
779.999	51.21
780.392	51.19
780.786	51.19
781.179	51.22
781.572	51.18
781.965	51.18
782.358	51.16
782.751	51.15
783.143	51.16
783.536	51.19
783.929	51.22
784.322	51.24
784.714	51.28
785.107	51.32
785.499	51.31
785.891	51.33
786.284	51.32
786.676	51.37
787.068	51.39
787.46	51.35
787.852	51.38
788.245	51.36
788.636	51.34
789.028	51.32
789.42	51.3
789.812	51.29
790.204	51.28
790.595	51.31
790.987	51.27
791.378	51.27
791.77	51.34
792.161	51.31
792.553	51.3
792.944	51.32
793.335	51.34
793.726	51.33
794.117	51.33
794.508	51.34
794.899	51.36
795.29	51.35
795.681	51.35
796.072	51.33
796.463	51.3
796.853	51.27
797.244	51.25
797.634	51.2
798.025	51.24
798.415	51.23
798.806	51.22
799.196	51.17
799.586	51.17
799.976	51.17
800.366	51.16
800.756	51.18
801.146	51.21
801.536	51.2
801.926	51.22
802.316	51.18
802.706	51.22
803.095	51.2
803.485	51.23
803.874	51.25
804.264	51.25
804.653	51.2
805.043	51.22
805.432	51.17
805.821	51.19
806.21	51.21
806.599	51.26
806.988	51.22
807.377	51.28
807.766	51.27
808.155	51.28
808.544	51.26
808.933	51.3
809.321	51.31
809.71	51.36
810.098	51.36
810.487	51.35
810.875	51.33
811.264	51.36
811.652	51.33
812.04	51.31
812.428	51.32
812.816	51.34
813.204	51.33
813.592	51.33
813.98	51.32
814.368	51.32
814.756	51.33
815.144	51.34
815.531	51.3
815.919	51.32
816.306	51.34
816.694	51.33
817.081	51.3
817.469	51.29
817.856	51.31
818.243	51.31
818.63	51.37
819.017	51.37
819.404	51.37
819.791	51.39
820.178	51.41
820.565	51.42
820.952	51.45
821.339	51.48
821.725	51.51
822.112	51.52
822.498	51.56
822.885	51.55
823.271	51.59
823.657	51.57
824.044	51.58
824.43	51.59
824.816	51.61
825.202	51.61
825.588	51.64
825.974	51.66
826.36	51.68
826.746	51.69
827.132	51.68
827.517	51.64
827.903	51.66
828.289	51.69
828.674	51.7
829.06	51.72
829.445	51.74
829.83	51.74
830.216	51.73
830.601	51.7
830.986	51.68
831.371	51.7
831.756	51.7
832.141	51.72
832.526	51.69
832.911	51.72
833.295	51.69
833.68	51.67
834.065	51.66
834.449	51.63
834.834	51.65
835.218	51.63
835.603	51.61
835.987	51.62
836.371	51.63
836.755	51.64
837.139	51.62
837.524	51.61
837.908	51.59
838.291	51.59
838.675	51.62
839.059	51.62
839.443	51.65
839.827	51.65
840.21	51.67
840.594	51.66
840.977	51.64
841.361	51.61
841.744	51.63
842.127	51.65
842.511	51.65
842.894	51.63
843.277	51.62
843.66	51.59
844.043	51.59
844.426	51.56
844.809	51.53
845.191	51.52
845.574	51.52
845.957	51.49
846.339	51.47
846.722	51.48
847.104	51.48
847.487	51.49
847.869	51.5
848.252	51.5
848.634	51.5
849.016	51.54
849.398	51.54
849.78	51.54
850.162	51.54
850.544	51.55
850.926	51.53
851.307	51.55
851.689	51.53
852.071	51.53
852.452	51.54
852.834	51.53
853.215	51.5
853.597	51.52
853.978	51.5
854.359	51.51
854.741	51.51
855.122	51.5
855.503	51.48
855.884	51.48
856.265	51.48
856.646	51.47
857.026	51.46
857.407	51.44
857.788	51.45
858.169	51.47
858.549	51.49
858.93	51.49
859.31	51.49
859.69	51.46
860.071	51.46
860.451	51.44
860.831	51.44
861.211	51.45
861.591	51.5
861.971	51.47
862.351	51.49
862.731	51.47
863.111	51.49
863.491	51.5
863.87	51.52
864.25	51.52
864.629	51.51
865.009	51.51
865.388	51.53
865.768	51.52
866.147	51.54
866.526	51.53
866.905	51.54
867.284	51.55
867.663	51.56
868.042	51.58
868.421	51.58
868.8	51.61
869.179	51.61
869.558	51.59
869.936	51.57
870.315	51.58
870.693	51.57
871.072	51.57
871.45	51.56
871.828	51.55
872.207	51.55
872.585	51.54
872.963	51.49
873.341	51.49
873.719	51.49
874.097	51.51
874.475	51.48
874.853	51.47
875.23	51.46
875.608	51.47
875.986	51.44
876.363	51.42
876.741	51.44
877.118	51.48
877.495	51.47
877.873	51.46
878.25	51.42
878.627	51.45
879.004	51.46
879.381	51.48
879.758	51.45
880.135	51.46
880.512	51.47
880.889	51.47
881.265	51.49
881.642	51.48
882.019	51.5
882.395	51.53
882.772	51.51
883.148	51.48
883.524	51.45
883.901	51.46
884.277	51.5
884.653	51.51
885.029	51.49
885.405	51.49
885.781	51.5
886.157	51.52
886.532	51.5
886.908	51.53
887.284	51.56
887.659	51.56
888.035	51.57
888.411	51.55
888.786	51.52
889.161	51.52
889.537	51.55
889.912	51.55
890.287	51.53
890.662	51.53
891.037	51.49
891.412	51.44
891.787	51.44
892.162	51.41
892.536	51.42
892.911	51.45
893.286	51.4
893.66	51.36
894.035	51.34
894.409	51.33
894.784	51.33
895.158	51.33
895.532	51.33
895.906	51.32
896.281	51.32
896.655	51.3
897.029	51.26
897.402	51.28
897.776	51.28
898.15	51.25
898.524	51.23
898.898	51.21
899.271	51.2
899.645	51.21
900.018	51.19
900.392	51.17
900.765	51.16
901.138	51.17
901.511	51.15
901.884	51.14
902.258	51.14
902.631	51.17
903.003	51.17
903.376	51.14
903.749	51.12
904.122	51.09
904.495	51.09
904.867	51.04
905.24	51.01
905.612	51.01
905.985	51
906.357	51
906.729	50.94
907.102	50.94
907.474	50.93
907.846	50.91
908.218	50.91
908.59	50.9
908.962	50.92
909.334	50.94
909.705	50.93
910.077	50.89
910.449	50.86
910.82	50.84
911.192	50.81
911.563	50.81
911.935	50.78
912.306	50.77
912.677	50.79
913.048	50.79
913.419	50.74
913.79	50.71
914.161	50.69
914.532	50.73
914.903	50.74
915.274	50.75
915.645	50.77
916.015	50.79
916.386	50.78
916.756	50.72
917.127	50.69
917.497	50.75
917.868	50.76
918.238	50.82
918.608	50.78
918.978	50.77
919.348	50.74
919.718	50.74
920.088	50.74
920.458	50.81
920.828	50.83
921.198	50.85
921.567	50.81
921.937	50.84
922.306	50.74
922.676	50.75
923.045	50.73
923.415	50.74
923.784	50.72
924.153	50.7
924.522	50.64
924.891	50.64
925.26	50.62
925.629	50.59
925.998	50.56
926.367	50.57
926.736	50.52
927.104	50.58
927.473	50.53
927.842	50.54
928.21	50.58
928.578	50.57
928.947	50.55
929.315	50.52
929.683	50.53
930.051	50.51
930.42	50.54
930.788	50.53
931.156	50.45
931.523	50.45
931.891	50.35
932.259	50.22
932.627	50.12
932.994	50.05
933.362	49.95
933.729	49.92
934.097	49.84
934.464	49.74
934.831	49.67
935.199	49.58
935.566	49.51
935.933	49.52
936.3	49.45
936.667	49.4
937.034	49.35
937.401	49.34
937.767	49.23
938.134	49.13
938.501	49.14
938.867	49.16
939.234	49.15
939.6	49.14
939.967	49.1
940.333	49.22
940.699	49.3
941.065	49.4
941.431	49.41
941.798	49.47
942.163	49.62
942.529	49.66
942.895	49.69
943.261	49.77
943.627	49.81
943.992	49.85
944.358	49.82
944.723	49.81
945.089	49.87
945.454	49.95
945.82	49.95
946.185	50.01
946.55	50.14
946.915	50.15
947.28	50.2
947.645	50.17
948.01	50.18
948.375	50.22
948.74	50.21
949.104	50.26
949.469	50.18
949.834	50.17
950.198	50.02
950.562	49.94
950.927	49.93
951.291	49.85
951.655	49.87
952.02	49.88
952.384	49.93
952.748	49.93
953.112	49.78
953.476	49.81
953.839	49.8
954.203	49.82
954.567	49.84
954.931	49.81
955.294	49.76
955.658	49.74
956.021	49.7
956.385	49.71
956.748	49.71
957.111	49.75
957.474	49.81
957.837	49.84
958.2	49.82
958.563	49.79
958.926	49.71
959.289	49.73
959.652	49.66
960.015	49.65
960.377	49.54
960.74	49.45
961.102	49.38
961.465	49.26
961.827	49.14
962.189	49.1
962.552	49.04
962.914	49.08
963.276	49.04
963.638	49.07
964	49.07
964.362	49.05
964.724	49.13
965.085	49.14
965.447	49.15
965.809	49.14
966.17	49.2
966.532	49.23
966.893	49.22
967.255	49.18
967.616	49.13
967.977	49.14
968.338	49.07
968.699	49.02
969.061	48.97
969.421	48.98
969.782	48.97
970.143	48.95
970.504	48.86
970.865	48.72
971.225	48.72
971.586	48.79
971.946	48.74
972.307	48.83
972.667	48.84
973.027	48.92
973.388	48.86
973.748	48.93
974.108	48.88
974.468	48.88
974.828	48.93
975.188	48.98
975.548	48.96
975.907	48.92
976.267	48.87
976.627	48.82
976.986	48.76
977.346	48.75
977.705	48.66
978.064	48.64
978.424	48.69
978.783	48.8
979.142	48.8
979.501	48.71
979.86	48.73
980.219	48.64
980.578	48.63
980.937	48.69
981.296	48.67
981.654	48.75
982.013	48.81
982.371	48.73
982.73	48.61
983.088	48.5
983.447	48.53
983.805	48.51
984.163	48.62
984.521	48.53
984.879	48.49
985.237	48.48
985.595	48.47
985.953	48.41
986.311	48.43
986.669	48.4
987.026	48.52
987.384	48.46
987.741	48.47
988.099	48.33
988.456	48.39
988.814	48.42
989.171	48.35
989.528	48.25
989.885	48.16
990.242	48.13
990.599	48.11
990.956	47.98
991.313	47.98
991.67	48.04
992.027	48.08
992.383	48.03
992.74	47.88
993.096	47.94
993.453	47.96
993.809	48.12
994.165	48.1
994.522	48.08
994.878	48.15
995.234	48.09
995.59	47.88
995.946	48
996.302	47.98
996.658	48
997.013	47.95
997.369	48.03
997.725	47.88
998.08	47.74
998.436	47.76
998.791	47.7
999.147	47.78
999.502	47.73
999.857	47.61
1000.212	47.54
1000.567	47.47
1000.922	47.41
1001.277	47.23
1001.632	47.29
1001.987	47.27
1002.342	47.29
1002.696	47.16
1003.051	46.96
1003.406	47.05
1003.76	46.94
1004.114	47.04
1004.469	47.09
1004.823	47.05
1005.177	47.16
1005.531	47.03
1005.885	47.21
1006.239	47.06
1006.593	47.03
1006.947	47.01
1007.301	46.96
1007.655	47.12
1008.008	46.9
1008.362	46.77
1008.715	46.7
1009.069	46.68
1009.422	46.47
1009.776	46.42
1010.129	46.2
1010.482	46.27
1010.835	46.4
1011.188	46.27
1011.541	46.01
1011.894	46.12
1012.247	46.1
1012.6	46.16
1012.952	45.89
1013.305	45.96
1013.657	45.76
1014.01	46.04
1014.362	46.12
1014.715	45.93
1015.067	45.96
1015.419	46.03
1015.771	46.01
1016.123	46.06
1016.475	45.93
1016.827	45.95
1017.179	45.99
1017.531	46
1017.883	46.03
1018.234	45.91
1018.586	45.75
1018.938	45.54
1019.289	45.33
1019.64	45.5
1019.992	45.51
1020.343	45.48
1020.694	45.29
1021.045	45.05
1021.396	45.09
1021.747	44.8
1022.098	44.59
1022.449	44.49
1022.8	44.24
1023.151	44.14
1023.501	43.74
1023.852	43.86
1024.202	43.69
1024.553	43.76
1024.903	43.94
1025.253	43.78
1025.604	43.84
1025.954	43.72
1026.304	44.22
1026.654	44.8
1027.004	45.06
1027.354	45.15
1027.703	44.54
1028.053	44.17
1028.403	43.87
1028.753	43.87
1029.102	43.71
1029.452	43.55
1029.801	43.54
1030.15	43.19
1030.499	42.74
897.758	-78.33
901.051	-73.28
904.343	-73.25
907.636	-74.37
910.928	-67.86
914.22	-71.33
917.511	-70.91
920.803	-68.45
924.094	-60.2
927.384	-61.04
930.675	-53.77
933.965	-52.86
937.255	-55.36
940.544	-52.27
943.834	-45.38
947.123	-45.64
950.411	-38.56
953.7	-35.75
956.988	-31.01
960.276	-28.91
963.563	-22.56
966.851	-18.56
970.138	-15.83
973.424	-10.9
976.711	-7.94
979.997	-5.45
983.283	-7.08
986.568	-5.11
989.853	-2.37
993.138	0.29
996.423	0.36
999.708	0.98
1002.992	-0.09
1006.275	1.29
1009.559	3.99
1012.842	4.74
1016.125	6.14
1019.408	8.23
1022.69	10.29
1025.972	10.91
1029.254	9.68
1032.536	11.89
1035.817	11.59
1039.098	13.13
1042.379	16.09
1045.659	15.9
1048.939	15.16
1052.219	16.24
1055.498	17.98
1058.778	17.66
1062.057	17.04
1065.335	19.02
1068.614	18.11
1071.892	19.98
1075.17	19.64
1078.447	19.96
1081.724	20.26
1085.001	20.05
1088.278	20.43
1091.554	19.81
1094.83	20.4
1098.106	20.73
1101.382	21.34
1104.657	22.57
1107.932	21.55
1111.206	23.54
1114.481	22.53
1117.755	22.12
1121.029	22.7
1124.302	23.25
1127.575	24
1130.848	23.87
1134.121	24.13
1137.393	24.2
1140.665	23.26
1143.937	23.81
1147.208	23.32
1150.48	23.55
1153.75	23.62
1157.021	25.15
1160.291	24.51
1163.561	24.01
1166.831	24.68
1170.101	25.24
1173.37	25.41
1176.639	26.04
1179.907	25.6
1183.176	25.75
1186.444	25.34
1189.711	25.58
1192.979	24.55
1196.246	25.38
1199.513	26.23
1202.78	25.02
1206.046	24.76
1209.312	25.71
1212.578	26.12
1215.843	26.46
1219.108	25.47
1222.373	25.68
1225.638	25.24
1228.902	25
1232.166	23.43
1235.43	21.29
1238.693	21.43
1241.956	20.57
1245.219	17.15
1248.482	17.68
1251.744	17.27
1255.006	18.97
1258.268	17.87
1261.529	18.39
1264.79	19.67
1268.051	20.22
1271.312	21.91
1274.572	23.12
1277.832	25.34
1281.092	25.77
1284.351	25.69
1287.61	25.65
1290.869	25.06
1294.128	26.79
1297.386	26.91
1300.644	26.01
1303.902	25.31
1307.159	26.35
1310.416	24.95
1313.673	23.62
1316.93	22.79
1320.186	22.71
1323.442	21.88
1326.697	20.71
1329.953	18.95
1333.208	16.21
1336.463	15.15
1339.717	15.62
1342.972	12.69
1346.226	11.49
1349.479	10.36
1352.733	10.02
1355.986	7
1359.238	6.07
1362.491	4.28
1365.743	4.01
1368.995	5.44
1372.247	3.42
1375.498	2.07
1378.749	-2.11
1382	-1.93
1385.251	-3.62
1388.501	-4.71
1391.751	-6.26
1395	-5.91
1398.25	-6.1
1401.499	-8.37
1404.748	-10.76
1407.996	-9.07
1411.244	-9.52
1414.492	-9.06
1417.74	-10.35
1420.987	-9.51
1424.234	-9.43
1427.481	-9.27
1430.728	-8.45
1433.974	-7.9
1437.22	-7.94
1440.465	-6.56
1443.711	-6.86
1446.956	-6.21
1450.201	-5.36
1453.445	-4.33
1456.689	-3.49
1459.933	-2.01
1463.177	-0.61
1466.42	-0.93
1469.663	-0.94
1472.906	0.4
1476.148	1.36
1479.391	2.11
1482.633	2.83
1485.874	4.22
1489.115	4.92
1492.356	5.52
1495.597	6.21
1498.838	6.77
1502.078	7.6
1505.318	8.43
1508.557	8.36
1511.797	9.18
1515.036	10.72
1518.274	11.03
1521.513	11.34
1524.751	11.49
1527.989	12.64
1531.227	12.56
1534.464	13.84
1537.701	14.25
1540.938	14.44
1544.174	14.96
1547.41	15.27
1550.646	15.65
1553.882	15.96
1557.117	17.07
1560.352	17.53
1563.587	17.68
1566.821	17.88
1570.055	18.48
1573.289	19.07
1576.523	19.26
1579.756	20.5
1582.989	20.97
1586.222	20.49
1589.454	21.29
1592.686	20.83
1595.918	21.29
1599.15	21.26
1602.381	21.42
1605.612	21.49
1608.843	21.38
1612.073	22.03
1615.303	21.77
1618.533	21.6
1621.762	22.7
1624.992	21.77
1628.221	22
1631.449	22.64
1634.678	23.19
1637.906	23.21
1641.134	23.13
1644.361	23.04
1647.588	23.06
1650.815	23.07
1654.042	23.5
1657.269	22.76
1660.495	23.69
1663.72	24.23
1666.946	23.36
1670.171	23.13
1673.396	23.08
1676.621	23.22
1679.845	23.96
1683.069	23.52
1686.293	23.08
1689.517	22.91
1692.74	23.02
1695.963	22.85
1699.185	22.19
1702.408	22.38
1705.63	22.19
1708.852	22.22
1712.073	21.39
1715.294	20.62
1718.515	21.01
1721.736	21.15
1724.956	21.08
1728.176	21.03
1731.396	20.22
1734.616	20.09
1737.835	19.74
1741.054	20.21
1744.272	19.9
1747.491	20.52
1750.709	20.36
1753.927	19.8
1757.144	19.52
1760.361	18.37
1763.578	17.84
1766.795	18.36
1770.011	18.8
1773.227	18.19
1776.443	17.24
1779.658	16.61
1782.874	16.28
1786.089	15.29
1789.303	15.25
1792.518	14.45
1795.732	15.41
1798.945	15.82
1802.159	15.49
1805.372	14.37
1808.585	14.7
1811.797	14.81
1815.01	14.75
1818.222	14.05
1821.434	14.9
1824.645	14.49
1827.856	14.53
1831.067	13.02
1834.278	13.16
1837.488	12.14
1840.698	11.62
1843.908	11.11
1847.117	10.47
1850.326	9.95
1853.535	10.33
1856.744	8.8
1859.952	7.58
1863.16	6.6
1866.368	6.06
1869.575	3.45
1872.782	2.63
1875.989	0.35
1879.196	-0.11
1882.402	-2.84
1885.608	-2.87
1888.814	-6.01
1892.019	-8.91
1895.224	-10.1
1898.429	-9.98
1901.634	-11.94
1904.838	-13.4
1908.042	-14.37
1911.246	-13.67
1914.449	-14.62
1917.652	-14.33
1920.855	-16.71
1924.058	-16.26
1927.26	-16.75
1930.462	-16.98
1933.664	-16.56
1936.865	-16.35
1940.066	-16.33
1943.267	-17.34
1946.467	-18.35
1949.668	-18.64
1952.868	-18.55
1956.067	-17.83
1959.267	-17.06
1962.466	-16.78
1965.665	-16.24
1968.863	-17.52
1972.061	-17.66
1975.259	-17.06
1978.457	-15.87
1981.654	-15.52
1984.852	-15.24
1988.048	-15.28
1991.245	-14.88
1994.441	-16.16
1997.637	-15.06
2000.833	-14.75
2004.028	-15.19
2007.223	-16.71
2010.418	-15.59
2013.613	-16.67
2016.807	-16.58
2020.001	-18.61
2023.194	-16.9
2026.388	-17.42
2029.581	-19.01
2032.774	-20.71
2035.966	-22.3
2039.158	-20.77
2042.35	-20.73
2045.542	-23.2
2048.733	-23.26
2051.924	-25.82
2055.115	-26.08
2058.306	-28.67
2061.496	-31.65
2064.686	-30.21
2067.875	-28.57
2071.065	-28.03
2074.254	-29.96
2077.442	-29.3
2080.631	-30.14
2083.819	-30.73
2087.007	-30.1
2090.195	-28.79
2093.382	-29
2096.569	-27.58
2099.756	-27.56
2102.942	-29.7
2106.128	-32.22
2109.314	-29.58
2112.5	-29.93
2115.685	-28.9
2118.87	-29.49
2122.055	-28.41
2125.239	-31.66
2128.424	-32.26
2131.608	-32.65
2134.791	-33.79
2137.974	-34.8
2141.157	-31.65
2144.34	-34.66
2147.523	-34.59
2150.705	-35.85
2153.887	-34.65
2157.068	-35.25
2160.25	-36.15
2163.431	-34.15
2166.611	-32.05
2169.792	-37.14
2172.972	-34.38
2176.152	-34.96
2179.331	-36.39
2182.511	-37.31
2185.69	-37.25
2188.868	-42.83
2192.047	-41.55
2195.225	-38.72
2198.403	-44.57
2201.58	-44.92
2204.758	-41.72
2207.935	-45.11
2211.111	-52.32
2214.288	-51.94
2217.464	-49.8
2220.64	-49.94
2223.815	-48.85
2226.991	-53.38
2230.166	-52.61
2233.34	-53.67
2236.515	-59.79
2239.689	-58.27
2242.863	-57.05
2246.036	-52.12
2249.209	-53.86
2252.382	-58.08
2255.555	-62.7
2258.727	-61.56
2261.9	-64.69
2265.071	-66.93
2268.243	-63.18
2271.414	-67.38
2274.585	-71.49
2277.756	-74.04
2280.926	-79.28
2284.096	-78.71
2287.266	-76.38
2290.436	-71.11
2293.605	-72.92
2296.774	-72.04
2299.942	-72.04
2303.111	-76.77
2306.279	-74.3
2309.447	-69.07
2312.614	-70.87
2315.781	-75.18
2318.948	-76.34
2322.115	-78.13
2325.281	-94.82
2328.447	-93.88
2331.613	-94.32
2334.779	-97.27
2337.944	-104
2341.109	-109.04
2344.274	-110.34
2347.438	-116
2350.602	-113.97
2353.766	-125.34
2356.929	-126.33
2360.092	-115.72
2363.255	-117.41
2366.418	-121.16
2369.58	-125.98
2372.742	-110.64
2375.904	-108.32
2379.066	-114.08
2382.227	-124.97
2385.388	-126.38
2388.548	-119.36
2391.709	-114.65
2394.869	-118.88
2398.029	-116.77
2401.188	-120.71
2404.347	-126.13
2407.506	-142.35
2410.665	-127.92
2413.823	-133.48
2416.981	-128.11
2420.139	-118.6
2423.296	-132.8
2426.453	-145.45
2429.61	-139.27
2432.767	-155.36
2435.923	-153.6
2439.079	-141.48
2442.235	-152.34
2445.391	-159.66
2448.546	-154.64
2451.701	-171.43
2454.855	-189.06
2458.009	-142.92
2461.163	-153.29
2464.317	-156.2
2467.471	-147.2
2470.624	-160.67
2473.777	-166.7
2476.929	-144.9
2480.082	-171.73
2483.234	-185.64
2486.385	-175.74
2489.537	-180.62
2492.688	-220.39
2495.839	-215.8
2498.989	-222.03
2502.14	-223.83
2505.29	-197.74
2508.439	-227.4
2511.589	-245.3
2514.738	-226.68
2517.887	-223.39
2521.035	-211.82
2524.183	-208.26
2527.331	-200.53
2530.479	-187.36
2533.627	-196.69
