Data from c_1_hir_wi_4n_043_Splice17_09.txt Node
Date: Sat Feb 29 13:29:23 EST 2020
User: sa697716
Spectrometer: FLMS03696
Trigger mode: 0
Integration Time (sec): 3.180400E-1
Scans to average: 20
Electric dark correction enabled: true
Nonlinearity correction enabled: true
Boxcar width: 5
XAxis mode: Wavelengths
Number of Pixels in Spectrum: 2048
>>>>>Begin Spectral Data<<<<<
187.83	67.1
188.298	80.69
188.766	85.31
189.233	82.28
189.701	83.32
190.169	83.53
190.636	82.68
191.104	114.34
191.571	469.81
192.039	227.97
192.506	-302.34
192.974	434.47
193.441	-85.36
193.908	147.57
194.375	249.11
194.842	248.46
195.31	131.63
195.777	75.19
196.244	94.67
196.711	93.62
197.177	89.99
197.644	89.95
198.111	90.02
198.578	91.08
199.045	91.89
199.511	91.98
199.978	92.06
200.445	92.25
200.911	92.82
201.378	92.81
201.844	93.42
202.31	93.96
202.777	93.95
203.243	93.93
203.709	93.67
204.176	93.21
204.642	92.59
205.108	92.33
205.574	92.35
206.04	91.18
206.506	90.52
206.972	89
207.438	88.06
207.903	87.08
208.369	85.33
208.835	83.96
209.301	82.24
209.766	80.2
210.232	78.22
210.697	76.27
211.163	74.87
211.628	72.68
212.094	71.41
212.559	69.61
213.024	67.74
213.49	66.28
213.955	64.57
214.42	62.35
214.885	60.32
215.35	57.65
215.815	54.04
216.28	50
216.745	45.91
217.21	41.28
217.675	36.95
218.14	33.1
218.604	29.47
219.069	26.47
219.534	23.98
219.998	21.87
220.463	20.12
220.927	18.59
221.392	17.39
221.856	16.3
222.32	15.44
222.785	14.69
223.249	14.04
223.713	13.53
224.177	12.95
224.642	12.5
225.106	12.1
225.57	11.67
226.034	11.34
226.497	10.98
226.961	10.66
227.425	10.34
227.889	10.04
228.353	9.76
228.816	9.51
229.28	9.29
229.744	9.09
230.207	8.88
230.671	8.71
231.134	8.49
231.597	8.31
232.061	8.15
232.524	8
232.987	7.87
233.45	7.72
233.914	7.59
234.377	7.47
234.84	7.36
235.303	7.25
235.766	7.16
236.229	7.07
236.691	7
237.154	6.94
237.617	6.85
238.08	6.78
238.542	6.72
239.005	6.65
239.468	6.57
239.93	6.5
240.393	6.42
240.855	6.34
241.317	6.28
241.78	6.21
242.242	6.12
242.704	6.06
243.166	6
243.629	5.94
244.091	5.87
244.553	5.83
245.015	5.76
245.477	5.69
245.939	5.63
246.4	5.55
246.862	5.51
247.324	5.47
247.786	5.41
248.247	5.35
248.709	5.3
249.17	5.26
249.632	5.21
250.093	5.15
250.555	5.12
251.016	5.09
251.477	5.05
251.939	4.99
252.4	4.95
252.861	4.91
253.322	4.86
253.783	4.83
254.244	4.77
254.705	4.73
255.166	4.7
255.627	4.66
256.088	4.61
256.549	4.57
257.009	4.53
257.47	4.48
257.931	4.45
258.391	4.4
258.852	4.34
259.312	4.3
259.773	4.25
260.233	4.2
260.694	4.16
261.154	4.12
261.614	4.07
262.074	4.04
262.534	3.99
262.994	3.95
263.455	3.92
263.915	3.87
264.374	3.83
264.834	3.81
265.294	3.76
265.754	3.74
266.214	3.71
266.673	3.69
267.133	3.66
267.593	3.63
268.052	3.61
268.512	3.58
268.971	3.57
269.431	3.56
269.89	3.54
270.349	3.53
270.809	3.52
271.268	3.51
271.727	3.49
272.186	3.48
272.645	3.47
273.104	3.47
273.563	3.45
274.022	3.44
274.481	3.43
274.94	3.42
275.399	3.41
275.857	3.4
276.316	3.38
276.775	3.37
277.233	3.37
277.692	3.36
278.15	3.35
278.609	3.35
279.067	3.34
279.525	3.33
279.984	3.32
280.442	3.32
280.9	3.32
281.358	3.32
281.816	3.32
282.274	3.31
282.732	3.31
283.19	3.31
283.648	3.32
284.106	3.32
284.564	3.33
285.021	3.33
285.479	3.33
285.937	3.32
286.394	3.31
286.852	3.31
287.309	3.31
287.767	3.31
288.224	3.3
288.682	3.28
289.139	3.27
289.596	3.25
290.053	3.22
290.511	3.19
290.968	3.16
291.425	3.14
291.882	3.12
292.339	3.09
292.796	3.07
293.252	3.04
293.709	3.02
294.166	3.01
294.623	3
295.079	2.99
295.536	2.99
295.992	2.97
296.449	2.97
296.905	2.95
297.362	2.94
297.818	2.93
298.274	2.93
298.731	2.92
299.187	2.91
299.643	2.91
300.099	2.91
300.555	2.89
301.011	2.89
301.467	2.89
301.923	2.89
302.379	2.9
302.835	2.9
303.291	2.89
303.746	2.89
304.202	2.89
304.658	2.88
305.113	2.87
305.569	2.88
306.024	2.88
306.479	2.89
306.935	2.89
307.39	2.89
307.845	2.9
308.301	2.9
308.756	2.92
309.211	2.92
309.666	2.93
310.121	2.93
310.576	2.93
311.031	2.93
311.486	2.94
311.94	2.94
312.395	2.95
312.85	2.94
313.305	2.95
313.759	2.95
314.214	2.95
314.668	2.95
315.123	2.96
315.577	2.96
316.032	2.96
316.486	2.95
316.94	2.94
317.394	2.94
317.849	2.93
318.303	2.92
318.757	2.9
319.211	2.88
319.665	2.87
320.119	2.85
320.572	2.84
321.026	2.83
321.48	2.84
321.934	2.82
322.387	2.81
322.841	2.81
323.295	2.8
323.748	2.8
324.202	2.8
324.655	2.8
325.108	2.8
325.562	2.79
326.015	2.78
326.468	2.77
326.921	2.77
327.374	2.77
327.827	2.77
328.28	2.77
328.733	2.76
329.186	2.77
329.639	2.77
330.092	2.78
330.545	2.79
330.997	2.81
331.45	2.81
331.903	2.81
332.355	2.83
332.808	2.83
333.26	2.84
333.713	2.85
334.165	2.86
334.617	2.87
335.069	2.87
335.522	2.89
335.974	2.89
336.426	2.9
336.878	2.9
337.33	2.91
337.782	2.91
338.234	2.92
338.686	2.92
339.137	2.93
339.589	2.91
340.041	2.9
340.493	2.88
340.944	2.88
341.396	2.86
341.847	2.85
342.299	2.84
342.75	2.82
343.201	2.79
343.653	2.77
344.104	2.75
344.555	2.73
345.006	2.72
345.457	2.72
345.908	2.71
346.359	2.71
346.81	2.7
347.261	2.69
347.712	2.69
348.163	2.7
348.613	2.7
349.064	2.68
349.515	2.68
349.965	2.68
350.416	2.67
350.866	2.66
351.317	2.64
351.767	2.64
352.217	2.63
352.668	2.63
353.118	2.63
353.568	2.63
354.018	2.65
354.468	2.65
354.918	2.67
355.368	2.67
355.818	2.68
356.268	2.7
356.718	2.71
357.168	2.72
357.617	2.72
358.067	2.71
358.517	2.71
358.966	2.73
359.416	2.73
359.865	2.72
360.315	2.72
360.764	2.72
361.213	2.71
361.663	2.7
362.112	2.7
362.561	2.7
363.01	2.72
363.459	2.71
363.908	2.7
364.357	2.7
364.806	2.71
365.255	2.72
365.703	2.72
366.152	2.73
366.601	2.75
367.05	2.75
367.498	2.77
367.947	2.76
368.395	2.77
368.844	2.77
369.292	2.77
369.74	2.77
370.189	2.77
370.637	2.77
371.085	2.78
371.533	2.77
371.981	2.78
372.429	2.77
372.877	2.78
373.325	2.77
373.773	2.78
374.221	2.78
374.669	2.78
375.116	2.78
375.564	2.78
376.012	2.78
376.459	2.78
376.907	2.79
377.354	2.79
377.801	2.8
378.249	2.81
378.696	2.83
379.143	2.84
379.591	2.84
380.038	2.85
380.485	2.87
380.932	2.87
381.379	2.88
381.826	2.89
382.273	2.89
382.72	2.9
383.166	2.91
383.613	2.92
384.06	2.93
384.506	2.94
384.953	2.95
385.4	2.94
385.846	2.95
386.292	2.96
386.739	2.96
387.185	2.98
387.631	3
388.078	3.01
388.524	3
388.97	3.01
389.416	3.02
389.862	3.03
390.308	3.06
390.754	3.08
391.2	3.1
391.645	3.13
392.091	3.13
392.537	3.15
392.983	3.18
393.428	3.21
393.874	3.24
394.319	3.27
394.765	3.28
395.21	3.3
395.655	3.33
396.101	3.34
396.546	3.36
396.991	3.38
397.436	3.38
397.881	3.4
398.326	3.43
398.771	3.45
399.216	3.48
399.661	3.5
400.106	3.52
400.551	3.53
400.995	3.55
401.44	3.56
401.885	3.58
402.329	3.6
402.774	3.62
403.218	3.62
403.663	3.63
404.107	3.64
404.551	3.68
404.995	3.69
405.44	3.71
405.884	3.73
406.328	3.75
406.772	3.78
407.216	3.81
407.66	3.82
408.104	3.83
408.547	3.85
408.991	3.87
409.435	3.87
409.879	3.9
410.322	3.94
410.766	3.97
411.209	4
411.653	4.01
412.096	4.03
412.54	4.05
412.983	4.09
413.426	4.14
413.869	4.17
414.312	4.21
414.756	4.23
415.199	4.24
415.642	4.26
416.085	4.29
416.527	4.32
416.97	4.33
417.413	4.34
417.856	4.33
418.298	4.32
418.741	4.32
419.184	4.32
419.626	4.32
420.069	4.32
420.511	4.32
420.953	4.33
421.396	4.33
421.838	4.36
422.28	4.39
422.722	4.41
423.164	4.43
423.606	4.47
424.048	4.47
424.49	4.49
424.932	4.49
425.374	4.49
425.816	4.47
426.258	4.47
426.699	4.45
427.141	4.45
427.582	4.45
428.024	4.47
428.465	4.45
428.907	4.46
429.348	4.46
429.789	4.48
430.231	4.52
430.672	4.54
431.113	4.57
431.554	4.59
431.995	4.61
432.436	4.63
432.877	4.63
433.318	4.64
433.759	4.66
434.2	4.67
434.64	4.69
435.081	4.69
435.522	4.74
435.962	4.76
436.403	4.8
436.843	4.81
437.284	4.82
437.724	4.85
438.164	4.89
438.604	4.92
439.045	4.94
439.485	4.96
439.925	4.97
440.365	4.95
440.805	4.96
441.245	4.93
441.685	4.95
442.125	4.95
442.564	4.96
443.004	4.95
443.444	4.94
443.883	4.95
444.323	4.93
444.762	4.96
445.202	4.99
445.641	4.99
446.081	5.05
446.52	5.04
446.959	5.07
447.398	5.1
447.837	5.13
448.276	5.12
448.716	5.11
449.154	5.14
449.593	5.16
450.032	5.16
450.471	5.16
450.91	5.11
451.349	5.13
451.787	5.09
452.226	5.05
452.664	5.02
453.103	5.02
453.541	5
453.98	4.97
454.418	4.92
454.856	4.89
455.295	4.87
455.733	4.87
456.171	4.84
456.609	4.84
457.047	4.82
457.485	4.81
457.923	4.79
458.361	4.79
458.798	4.79
459.236	4.81
459.674	4.79
460.111	4.79
460.549	4.8
460.987	4.79
461.424	4.79
461.862	4.81
462.299	4.82
462.736	4.83
463.173	4.83
463.611	4.82
464.048	4.83
464.485	4.84
464.922	4.84
465.359	4.84
465.796	4.85
466.233	4.89
466.67	4.88
467.106	4.89
467.543	4.88
467.98	4.88
468.416	4.9
468.853	4.89
469.29	4.89
469.726	4.9
470.162	4.89
470.599	4.87
471.035	4.85
471.471	4.85
471.907	4.85
472.344	4.84
472.78	4.83
473.216	4.81
473.652	4.8
474.088	4.79
474.523	4.76
474.959	4.73
475.395	4.72
475.831	4.71
476.266	4.68
476.702	4.65
477.138	4.62
477.573	4.59
478.008	4.58
478.444	4.56
478.879	4.53
479.314	4.52
479.75	4.52
480.185	4.49
480.62	4.47
481.055	4.44
481.49	4.42
481.925	4.41
482.36	4.41
482.795	4.39
483.229	4.37
483.664	4.36
484.099	4.34
484.534	4.33
484.968	4.32
485.403	4.31
485.837	4.31
486.271	4.29
486.706	4.28
487.14	4.28
487.574	4.28
488.009	4.28
488.443	4.28
488.877	4.29
489.311	4.28
489.745	4.29
490.179	4.29
490.613	4.3
491.046	4.32
491.48	4.34
491.914	4.35
492.348	4.36
492.781	4.37
493.215	4.39
493.648	4.4
494.082	4.43
494.515	4.45
494.948	4.47
495.382	4.48
495.815	4.51
496.248	4.54
496.681	4.56
497.114	4.59
497.547	4.63
497.98	4.66
498.413	4.7
498.846	4.73
499.279	4.77
499.711	4.8
500.144	4.85
500.577	4.9
501.009	4.95
501.442	5.01
501.874	5.07
502.306	5.13
502.739	5.19
503.171	5.25
503.603	5.33
504.036	5.41
504.468	5.5
504.9	5.6
505.332	5.68
505.764	5.78
506.196	5.87
506.627	5.97
507.059	6.08
507.491	6.19
507.923	6.31
508.354	6.43
508.786	6.55
509.217	6.68
509.649	6.82
510.08	6.98
510.512	7.12
510.943	7.28
511.374	7.44
511.805	7.6
512.237	7.78
512.668	7.94
513.099	8.13
513.53	8.31
513.961	8.51
514.391	8.68
514.822	8.88
515.253	9.09
515.684	9.29
516.114	9.51
516.545	9.72
516.975	9.95
517.406	10.19
517.836	10.41
518.267	10.64
518.697	10.88
519.127	11.14
519.558	11.36
519.988	11.59
520.418	11.81
520.848	12.05
521.278	12.28
521.708	12.58
522.138	12.8
522.567	13.02
522.997	13.25
523.427	13.44
523.857	13.65
524.286	13.87
524.716	14.08
525.145	14.29
525.575	14.49
526.004	14.69
526.433	14.8
526.863	14.99
527.292	15.16
527.721	15.34
528.15	15.51
528.579	15.68
529.008	15.83
529.437	15.98
529.866	16.12
530.295	16.26
530.724	16.4
531.152	16.54
531.581	16.66
532.01	16.78
532.438	16.89
532.867	17
533.295	17.11
533.723	17.23
534.152	17.3
534.58	17.38
535.008	17.46
535.436	17.53
535.865	17.58
536.293	17.67
536.721	17.73
537.149	17.78
537.576	17.84
538.004	17.89
538.432	17.92
538.86	17.99
539.287	18.02
539.715	18.07
540.143	18.12
540.57	18.18
540.998	18.2
541.425	18.25
541.852	18.28
542.28	18.29
542.707	18.35
543.134	18.39
543.561	18.39
543.988	18.44
544.415	18.47
544.842	18.49
545.269	18.53
545.696	18.55
546.123	18.56
546.549	18.59
546.976	18.64
547.403	18.65
547.829	18.67
548.256	18.71
548.682	18.73
549.108	18.75
549.535	18.76
549.961	18.75
550.387	18.76
550.813	18.75
551.24	18.75
551.666	18.73
552.092	18.72
552.518	18.71
552.943	18.69
553.369	18.66
553.795	18.64
554.221	18.61
554.646	18.58
555.072	18.55
555.498	18.52
555.923	18.49
556.349	18.44
556.774	18.39
557.199	18.34
557.625	18.28
558.05	18.21
558.475	18.12
558.9	18.04
559.325	17.96
559.75	17.85
560.175	17.75
560.6	17.66
561.025	17.56
561.449	17.44
561.874	17.32
562.299	17.2
562.723	17.09
563.148	16.96
563.572	16.84
563.997	16.7
564.421	16.57
564.846	16.43
565.27	16.27
565.694	16.13
566.118	15.98
566.542	15.85
566.966	15.71
567.39	15.57
567.814	15.42
568.238	15.26
568.662	15.11
569.086	14.96
569.509	14.81
569.933	14.66
570.357	14.53
570.78	14.4
571.204	14.25
571.627	14.11
572.05	13.98
572.474	13.87
572.897	13.74
573.32	13.64
573.743	13.52
574.166	13.41
574.589	13.31
575.012	13.21
575.435	13.09
575.858	13.01
576.281	12.9
576.704	12.8
577.126	12.69
577.549	12.62
577.972	12.52
578.394	12.43
578.817	12.35
579.239	12.26
579.661	12.17
580.084	12.1
580.506	12.02
580.928	11.94
581.35	11.88
581.772	11.84
582.194	11.76
582.616	11.7
583.038	11.65
583.46	11.61
583.882	11.55
584.303	11.48
584.725	11.43
585.147	11.36
585.568	11.32
585.99	11.28
586.411	11.22
586.833	11.17
587.254	11.14
587.675	11.09
588.096	11.04
588.518	10.99
588.939	10.96
589.36	10.92
589.781	10.89
590.202	10.86
590.623	10.81
591.043	10.75
591.464	10.71
591.885	10.68
592.305	10.65
592.726	10.61
593.147	10.6
593.567	10.57
593.987	10.54
594.408	10.5
594.828	10.46
595.248	10.44
595.669	10.43
596.089	10.4
596.509	10.35
596.929	10.31
597.349	10.28
597.769	10.24
598.189	10.22
598.608	10.19
599.028	10.17
599.448	10.13
599.867	10.09
600.287	10.05
600.706	10.03
601.126	9.99
601.545	9.96
601.965	9.93
602.384	9.88
602.803	9.83
603.222	9.77
603.641	9.73
604.061	9.68
604.48	9.62
604.898	9.56
605.317	9.51
605.736	9.46
606.155	9.4
606.574	9.34
606.992	9.27
607.411	9.21
607.829	9.12
608.248	9.05
608.666	8.99
609.085	8.93
609.503	8.88
609.921	8.81
610.339	8.75
610.758	8.7
611.176	8.65
611.594	8.59
612.012	8.53
612.43	8.52
612.847	8.46
613.265	8.41
613.683	8.35
614.101	8.3
614.518	8.24
614.936	8.18
615.353	8.11
615.771	8.06
616.188	8.04
616.606	7.99
617.023	7.95
617.44	7.9
617.857	7.85
618.274	7.82
618.691	7.79
619.108	7.75
619.525	7.73
619.942	7.7
620.359	7.68
620.776	7.63
621.192	7.6
621.609	7.58
622.026	7.57
622.442	7.55
622.859	7.54
623.275	7.53
623.691	7.53
624.108	7.52
624.524	7.51
624.94	7.5
625.356	7.5
625.772	7.5
626.188	7.5
626.604	7.48
627.02	7.48
627.436	7.48
627.852	7.47
628.268	7.46
628.683	7.46
629.099	7.47
629.514	7.46
629.93	7.45
630.345	7.43
630.761	7.4
631.176	7.41
631.591	7.39
632.007	7.36
632.422	7.35
632.837	7.32
633.252	7.29
633.667	7.26
634.082	7.23
634.497	7.18
634.911	7.17
635.326	7.14
635.741	7.09
636.155	7.05
636.57	7.02
636.984	6.96
637.399	6.9
637.813	6.84
638.228	6.78
638.642	6.73
639.056	6.68
639.47	6.62
639.884	6.56
640.298	6.5
640.712	6.44
641.126	6.36
641.54	6.31
641.954	6.27
642.368	6.2
642.781	6.17
643.195	6.11
643.609	6.07
644.022	6.02
644.436	5.96
644.849	5.92
645.262	5.88
645.676	5.84
646.089	5.79
646.502	5.74
646.915	5.72
647.328	5.67
647.741	5.63
648.154	5.58
648.567	5.57
648.98	5.55
649.393	5.53
649.805	5.49
650.218	5.48
650.631	5.46
651.043	5.43
651.456	5.39
651.868	5.38
652.28	5.36
652.693	5.34
653.105	5.31
653.517	5.28
653.929	5.27
654.341	5.25
654.753	5.22
655.165	5.2
655.577	5.17
655.989	5.14
656.401	5.09
656.813	5.06
657.224	5.03
657.636	5
658.047	4.97
658.459	4.93
658.87	4.88
659.282	4.85
659.693	4.81
660.104	4.79
660.515	4.77
660.926	4.75
661.338	4.72
661.749	4.69
662.159	4.66
662.57	4.63
662.981	4.6
663.392	4.58
663.803	4.56
664.213	4.56
664.624	4.54
665.035	4.52
665.445	4.51
665.855	4.5
666.266	4.5
666.676	4.49
667.086	4.48
667.497	4.47
667.907	4.47
668.317	4.46
668.727	4.46
669.137	4.46
669.547	4.48
669.956	4.48
670.366	4.49
670.776	4.5
671.186	4.52
671.595	4.54
672.005	4.57
672.414	4.58
672.824	4.6
673.233	4.62
673.642	4.62
674.052	4.64
674.461	4.66
674.87	4.68
675.279	4.7
675.688	4.71
676.097	4.74
676.506	4.76
676.915	4.78
677.323	4.82
677.732	4.85
678.141	4.89
678.549	4.92
678.958	4.96
679.366	4.98
679.775	5.02
680.183	5.07
680.592	5.12
681	5.16
681.408	5.2
681.816	5.24
682.224	5.29
682.632	5.36
683.04	5.41
683.448	5.46
683.856	5.54
684.264	5.61
684.671	5.69
685.079	5.76
685.487	5.85
685.894	5.96
686.302	6.08
686.709	6.21
687.116	6.34
687.524	6.5
687.931	6.67
688.338	6.87
688.745	7.07
689.152	7.31
689.559	7.56
689.966	7.83
690.373	8.11
690.78	8.41
691.187	8.74
691.593	9.07
692	9.43
692.407	9.81
692.813	10.19
693.22	10.6
693.626	11.02
694.032	11.45
694.439	11.91
694.845	12.38
695.251	12.85
695.657	13.32
696.063	13.82
696.469	14.33
696.875	14.83
697.281	15.32
697.687	15.85
698.093	16.35
698.498	16.87
698.904	17.39
699.31	17.92
699.715	18.46
700.12	18.99
700.526	19.51
700.931	20.03
701.337	20.55
701.742	21.07
702.147	21.58
702.552	22.1
702.957	22.62
703.362	23.12
703.767	23.62
704.172	24.13
704.577	24.63
704.981	25.11
705.386	25.59
705.791	26.08
706.195	26.58
706.6	27.06
707.004	27.52
707.408	27.98
707.813	28.45
708.217	28.9
708.621	29.33
709.025	29.77
709.43	30.21
709.834	30.68
710.237	31.1
710.641	31.53
711.045	31.94
711.449	32.36
711.853	32.77
712.256	33.17
712.66	33.57
713.064	33.98
713.467	34.37
713.87	34.76
714.274	35.14
714.677	35.51
715.08	35.86
715.484	36.24
715.887	36.6
716.29	36.98
716.693	37.35
717.096	37.72
717.499	38.08
717.901	38.41
718.304	38.74
718.707	39.07
719.109	39.42
719.512	39.77
719.915	40.08
720.317	40.41
720.719	40.68
721.122	40.96
721.524	41.24
721.926	41.52
722.328	41.82
722.731	42.1
723.133	42.36
723.535	42.6
723.937	42.85
724.338	43.07
724.74	43.29
725.142	43.53
725.544	43.75
725.945	43.95
726.347	44.16
726.748	44.35
727.15	44.53
727.551	44.73
727.952	44.93
728.354	45.11
728.755	45.3
729.156	45.49
729.557	45.66
729.958	45.83
730.359	46.01
730.76	46.1
731.161	46.26
731.562	46.41
731.962	46.53
732.363	46.67
732.763	46.82
733.164	46.95
733.564	47.04
733.965	47.16
734.365	47.27
734.766	47.36
735.166	47.49
735.566	47.58
735.966	47.63
736.366	47.7
736.766	47.79
737.166	47.87
737.566	47.93
737.966	48.02
738.365	48.09
738.765	48.16
739.165	48.2
739.564	48.28
739.964	48.35
740.363	48.46
740.763	48.52
741.162	48.58
741.561	48.65
741.96	48.72
742.36	48.77
742.759	48.8
743.158	48.83
743.557	48.88
743.955	48.93
744.354	48.98
744.753	49.03
745.152	49.1
745.55	49.14
745.949	49.14
746.348	49.17
746.746	49.2
747.144	49.28
747.543	49.32
747.941	49.36
748.339	49.38
748.737	49.41
749.136	49.42
749.534	49.43
749.932	49.44
750.33	49.47
750.727	49.48
751.125	49.46
751.523	49.45
751.921	49.49
752.318	49.5
752.716	49.48
753.113	49.5
753.511	49.48
753.908	49.48
754.305	49.51
754.703	49.5
755.1	49.51
755.497	49.54
755.894	49.56
756.291	49.54
756.688	49.53
757.085	49.59
757.482	49.6
757.878	49.67
758.275	49.69
758.672	49.7
759.068	49.73
759.465	49.77
759.861	49.77
760.258	49.76
760.654	49.78
761.05	49.8
761.447	49.79
761.843	49.78
762.239	49.75
762.635	49.76
763.031	49.75
763.427	49.73
763.822	49.71
764.218	49.7
764.614	49.7
765.01	49.7
765.405	49.7
765.801	49.68
766.196	49.65
766.592	49.66
766.987	49.65
767.382	49.65
767.778	49.65
768.173	49.66
768.568	49.64
768.963	49.64
769.358	49.62
769.753	49.63
770.148	49.65
770.542	49.65
770.937	49.63
771.332	49.65
771.726	49.63
772.121	49.61
772.515	49.6
772.91	49.65
773.304	49.66
773.699	49.66
774.093	49.64
774.487	49.64
774.881	49.69
775.275	49.69
775.669	49.72
776.063	49.72
776.457	49.73
776.851	49.71
777.245	49.7
777.638	49.73
778.032	49.74
778.425	49.76
778.819	49.79
779.212	49.79
779.606	49.77
779.999	49.74
780.392	49.79
780.786	49.78
781.179	49.81
781.572	49.79
781.965	49.79
782.358	49.77
782.751	49.75
783.143	49.73
783.536	49.73
783.929	49.75
784.322	49.74
784.714	49.74
785.107	49.8
785.499	49.84
785.891	49.88
786.284	49.89
786.676	49.93
787.068	49.95
787.46	49.94
787.852	49.93
788.245	49.95
788.636	49.94
789.028	49.91
789.42	49.89
789.812	49.9
790.204	49.88
790.595	49.87
790.987	49.84
791.378	49.84
791.77	49.87
792.161	49.89
792.553	49.89
792.944	49.93
793.335	49.94
793.726	49.91
794.117	49.87
794.508	49.86
794.899	49.86
795.29	49.84
795.681	49.84
796.072	49.82
796.463	49.83
796.853	49.79
797.244	49.77
797.634	49.78
798.025	49.8
798.415	49.79
798.806	49.79
799.196	49.82
799.586	49.86
799.976	49.87
800.366	49.86
800.756	49.8
801.146	49.83
801.536	49.81
801.926	49.78
802.316	49.76
802.706	49.76
803.095	49.73
803.485	49.72
803.874	49.69
804.264	49.69
804.653	49.65
805.043	49.67
805.432	49.63
805.821	49.61
806.21	49.66
806.599	49.65
806.988	49.65
807.377	49.69
807.766	49.68
808.155	49.64
808.544	49.62
808.933	49.64
809.321	49.65
809.71	49.65
810.098	49.63
810.487	49.61
810.875	49.63
811.264	49.62
811.652	49.61
812.04	49.59
812.428	49.6
812.816	49.59
813.204	49.57
813.592	49.52
813.98	49.52
814.368	49.51
814.756	49.5
815.144	49.48
815.531	49.48
815.919	49.44
816.306	49.45
816.694	49.43
817.081	49.41
817.469	49.45
817.856	49.49
818.243	49.48
818.63	49.5
819.017	49.5
819.404	49.5
819.791	49.49
820.178	49.5
820.565	49.5
820.952	49.52
821.339	49.56
821.725	49.56
822.112	49.54
822.498	49.57
822.885	49.54
823.271	49.54
823.657	49.52
824.044	49.49
824.43	49.51
824.816	49.5
825.202	49.49
825.588	49.47
825.974	49.47
826.36	49.47
826.746	49.44
827.132	49.45
827.517	49.44
827.903	49.44
828.289	49.49
828.674	49.46
829.06	49.5
829.445	49.53
829.83	49.54
830.216	49.54
830.601	49.55
830.986	49.6
831.371	49.61
831.756	49.6
832.141	49.64
832.526	49.61
832.911	49.64
833.295	49.61
833.68	49.61
834.065	49.61
834.449	49.57
834.834	49.53
835.218	49.47
835.603	49.49
835.987	49.48
836.371	49.46
836.755	49.47
837.139	49.46
837.524	49.47
837.908	49.44
838.291	49.44
838.675	49.46
839.059	49.48
839.443	49.51
839.827	49.51
840.21	49.54
840.594	49.54
840.977	49.55
841.361	49.54
841.744	49.56
842.127	49.57
842.511	49.56
842.894	49.56
843.277	49.58
843.66	49.56
844.043	49.55
844.426	49.51
844.809	49.51
845.191	49.52
845.574	49.52
845.957	49.47
846.339	49.48
846.722	49.48
847.104	49.48
847.487	49.48
847.869	49.49
848.252	49.48
848.634	49.52
849.016	49.52
849.398	49.49
849.78	49.48
850.162	49.5
850.544	49.49
850.926	49.46
851.307	49.47
851.689	49.42
852.071	49.39
852.452	49.38
852.834	49.37
853.215	49.37
853.597	49.4
853.978	49.38
854.359	49.35
854.741	49.37
855.122	49.39
855.503	49.39
855.884	49.39
856.265	49.43
856.646	49.42
857.026	49.4
857.407	49.36
857.788	49.35
858.169	49.35
858.549	49.39
858.93	49.39
859.31	49.35
859.69	49.35
860.071	49.34
860.451	49.3
860.831	49.31
861.211	49.29
861.591	49.29
861.971	49.3
862.351	49.33
862.731	49.3
863.111	49.27
863.491	49.31
863.87	49.3
864.25	49.34
864.629	49.37
865.009	49.37
865.388	49.43
865.768	49.44
866.147	49.42
866.526	49.41
866.905	49.4
867.284	49.44
867.663	49.45
868.042	49.45
868.421	49.44
868.8	49.45
869.179	49.44
869.558	49.4
869.936	49.39
870.315	49.42
870.693	49.43
871.072	49.44
871.45	49.4
871.828	49.37
872.207	49.38
872.585	49.38
872.963	49.36
873.341	49.39
873.719	49.4
874.097	49.39
874.475	49.37
874.853	49.36
875.23	49.35
875.608	49.37
875.986	49.35
876.363	49.34
876.741	49.33
877.118	49.3
877.495	49.27
877.873	49.23
878.25	49.23
878.627	49.22
879.004	49.2
879.381	49.21
879.758	49.17
880.135	49.17
880.512	49.18
880.889	49.17
881.265	49.21
881.642	49.23
882.019	49.27
882.395	49.27
882.772	49.27
883.148	49.28
883.524	49.3
883.901	49.3
884.277	49.27
884.653	49.26
885.029	49.26
885.405	49.22
885.781	49.17
886.157	49.16
886.532	49.15
886.908	49.17
887.284	49.16
887.659	49.13
888.035	49.13
888.411	49.09
888.786	49.08
889.161	49.1
889.537	49.11
889.912	49.13
890.287	49.11
890.662	49.11
891.037	49.08
891.412	49.07
891.787	49.07
892.162	49.09
892.536	49.12
892.911	49.13
893.286	49.09
893.66	49.08
894.035	49.08
894.409	49.07
894.784	49.08
895.158	49.11
895.532	49.08
895.906	49.08
896.281	49.08
896.655	49.08
897.029	49.07
897.402	49.08
897.776	49.08
898.15	49.09
898.524	49.1
898.898	49.08
899.271	49.08
899.645	49.09
900.018	49.07
900.392	49.05
900.765	49.04
901.138	49.04
901.511	49.03
901.884	49.07
902.258	49.06
902.631	49.04
903.003	49.06
903.376	49.02
903.749	49.03
904.122	49.07
904.495	49.08
904.867	49.09
905.24	49.12
905.612	49.13
905.985	49.12
906.357	49.09
906.729	49.09
907.102	49.08
907.474	49.14
907.846	49.13
908.218	49.14
908.59	49.16
908.962	49.17
909.334	49.14
909.705	49.14
910.077	49.11
910.449	49.16
910.82	49.17
911.192	49.18
911.563	49.14
911.935	49.13
912.306	49.1
912.677	49.09
913.048	49.07
913.419	49.07
913.79	49.07
914.161	49.09
914.532	49.09
914.903	49.11
915.274	49.11
915.645	49.12
916.015	49.12
916.386	49.1
916.756	49.05
917.127	49.07
917.497	49.1
917.868	49.11
918.238	49.12
918.608	49.14
918.978	49.1
919.348	49.06
919.718	49.03
920.088	49.05
920.458	49.13
920.828	49.17
921.198	49.19
921.567	49.17
921.937	49.22
922.306	49.22
922.676	49.2
923.045	49.23
923.415	49.28
923.784	49.34
924.153	49.34
924.522	49.33
924.891	49.33
925.26	49.32
925.629	49.29
925.998	49.27
926.367	49.24
926.736	49.24
927.104	49.24
927.473	49.26
927.842	49.24
928.21	49.3
928.578	49.28
928.947	49.3
929.315	49.31
929.683	49.4
930.051	49.44
930.42	49.5
930.788	49.53
931.156	49.55
931.523	49.56
931.891	49.55
932.259	49.52
932.627	49.5
932.994	49.5
933.362	49.51
933.729	49.45
934.097	49.42
934.464	49.39
934.831	49.43
935.199	49.44
935.566	49.44
935.933	49.51
936.3	49.54
936.667	49.62
937.034	49.7
937.401	49.74
937.767	49.76
938.134	49.79
938.501	49.86
938.867	49.91
939.234	50
939.6	50.08
939.967	50.11
940.333	50.21
940.699	50.28
941.065	50.34
941.431	50.39
941.798	50.57
942.163	50.66
942.529	50.72
942.895	50.74
943.261	50.8
943.627	50.8
943.992	50.84
944.358	50.8
944.723	50.75
945.089	50.79
945.454	50.8
945.82	50.68
946.185	50.67
946.55	50.67
946.915	50.61
947.28	50.52
947.645	50.49
948.01	50.38
948.375	50.37
948.74	50.33
949.104	50.23
949.469	50.08
949.834	50.15
950.198	50.06
950.562	50
950.927	49.91
951.291	49.83
951.655	49.78
952.02	49.82
952.384	49.8
952.748	49.81
953.112	49.82
953.476	49.84
953.839	49.79
954.203	49.76
954.567	49.75
954.931	49.73
955.294	49.74
955.658	49.63
956.021	49.62
956.385	49.53
956.748	49.51
957.111	49.43
957.474	49.43
957.837	49.38
958.2	49.3
958.563	49.26
958.926	49.26
959.289	49.27
959.652	49.3
960.015	49.21
960.377	49.25
960.74	49.21
961.102	49.23
961.465	49.25
961.827	49.22
962.189	49.21
962.552	49.16
962.914	49.12
963.276	49.14
963.638	49.11
964	49.15
964.362	49.2
964.724	49.2
965.085	49.17
965.447	49.08
965.809	49.08
966.17	49.13
966.532	49.22
966.893	49.24
967.255	49.18
967.616	49.2
967.977	49.16
968.338	49.07
968.699	49.04
969.061	48.97
969.421	48.94
969.782	48.92
970.143	48.89
970.504	48.83
970.865	48.79
971.225	48.78
971.586	48.8
971.946	48.84
972.307	48.86
972.667	48.87
973.027	48.97
973.388	49.12
973.748	49.12
974.108	49.1
974.468	49.06
974.828	49.17
975.188	49.26
975.548	49.21
975.907	49.16
976.267	49.27
976.627	49.3
976.986	49.32
977.346	49.29
977.705	49.32
978.064	49.33
978.424	49.37
978.783	49.37
979.142	49.4
979.501	49.44
979.86	49.46
980.219	49.35
980.578	49.34
980.937	49.39
981.296	49.36
981.654	49.57
982.013	49.65
982.371	49.73
982.73	49.7
983.088	49.64
983.447	49.67
983.805	49.85
984.163	50
984.521	50.02
984.879	50.07
985.237	50.19
985.595	50.17
985.953	50.17
986.311	50.19
986.669	50.22
987.026	50.29
987.384	50.37
987.741	50.39
988.099	50.44
988.456	50.47
988.814	50.4
989.171	50.42
989.528	50.4
989.885	50.44
990.242	50.51
990.599	50.54
990.956	50.68
991.313	50.69
991.67	50.71
992.027	50.69
992.383	50.78
992.74	50.91
993.096	50.87
993.453	50.85
993.809	50.89
994.165	50.87
994.522	51.01
994.878	50.9
995.234	50.91
995.59	50.94
995.946	51.11
996.302	51.14
996.658	51.09
997.013	51.21
997.369	51.3
997.725	51.37
998.08	51.3
998.436	51.3
998.791	51.35
999.147	51.45
999.502	51.49
999.857	51.5
1000.212	51.52
1000.567	51.64
1000.922	51.68
1001.277	51.57
1001.632	51.77
1001.987	52.14
1002.342	52.31
1002.696	52.5
1003.051	52.42
1003.406	52.42
1003.76	52.36
1004.114	52.47
1004.469	52.44
1004.823	52.6
1005.177	53.04
1005.531	53.05
1005.885	53.1
1006.239	53.19
1006.593	53.16
1006.947	53.36
1007.301	53.61
1007.655	53.61
1008.008	53.62
1008.362	53.94
1008.715	53.94
1009.069	53.66
1009.422	53.61
1009.776	53.73
1010.129	53.62
1010.482	53.93
1010.835	54.05
1011.188	53.94
1011.541	53.93
1011.894	54.22
1012.247	53.99
1012.6	54.16
1012.952	54.51
1013.305	54.7
1013.657	54.69
1014.01	55.06
1014.362	55.05
1014.715	55.09
1015.067	55.39
1015.419	55.77
1015.771	55.96
1016.123	56.26
1016.475	56.42
1016.827	56.54
1017.179	56.71
1017.531	56.78
1017.883	56.72
1018.234	56.96
1018.586	57.42
1018.938	57.42
1019.289	57.4
1019.64	57.38
1019.992	57.69
1020.343	57.6
1020.694	57.63
1021.045	57.92
1021.396	58.07
1021.747	58.28
1022.098	58.7
1022.449	58.52
1022.8	58.76
1023.151	59.09
1023.501	59.37
1023.852	59.49
1024.202	59.78
1024.553	59.95
1024.903	60.05
1025.253	60.4
1025.604	60.64
1025.954	60.29
1026.304	61.36
1026.654	61.85
1027.004	62.17
1027.354	62.41
1027.703	62.38
1028.053	62.32
1028.403	62.14
1028.753	62.55
1029.102	62.62
1029.452	62.67
1029.801	62.96
1030.15	62.24
1030.499	61.95
897.758	601.55
901.051	608.32
904.343	612.37
907.636	604.78
910.928	593.82
914.22	605.27
917.511	599.95
920.803	572.35
924.094	549.98
927.384	552.95
930.675	537.07
933.965	527.97
937.255	527.15
940.544	504.6
943.834	481.97
947.123	474.14
950.411	451.68
953.7	440.79
956.988	426.46
960.276	407.94
963.563	401.08
966.851	381.5
970.138	373.38
973.424	348.69
976.711	342.69
979.997	330.82
983.283	324.78
986.568	311.43
989.853	302.3
993.138	294.38
996.423	288.46
999.708	281.26
1002.992	280.11
1006.275	271.22
1009.559	269.89
1012.842	262.35
1016.125	253.21
1019.408	248.38
1022.69	246.19
1025.972	245.21
1029.254	237.41
1032.536	233.59
1035.817	225.92
1039.098	223.42
1042.379	220.34
1045.659	215.99
1048.939	213.47
1052.219	211.43
1055.498	207.22
1058.778	204.09
1062.057	200.18
1065.335	199.67
1068.614	195.18
1071.892	192.67
1075.17	187.78
1078.447	185.51
1081.724	184.18
1085.001	181.26
1088.278	178.91
1091.554	178.3
1094.83	176.31
1098.106	173.06
1101.382	172.43
1104.657	171.8
1107.932	171.26
1111.206	170.6
1114.481	168.86
1117.755	168.03
1121.029	167
1124.302	165.43
1127.575	161.95
1130.848	162.17
1134.121	159.32
1137.393	158.36
1140.665	157.61
1143.937	155.75
1147.208	152.3
1150.48	150.5
1153.75	148.7
1157.021	148.42
1160.291	148.19
1163.561	147.74
1166.831	146.15
1170.101	146.46
1173.37	146.05
1176.639	144.61
1179.907	144.4
1183.176	145.46
1186.444	146.1
1189.711	145.17
1192.979	145.07
1196.246	145.05
1199.513	144.91
1202.78	145.44
1206.046	145.94
1209.312	145.93
1212.578	146.99
1215.843	149
1219.108	149.79
1222.373	151.61
1225.638	154.68
1228.902	158.42
1232.166	163.19
1235.43	165.13
1238.693	168.78
1241.956	172.2
1245.219	177.37
1248.482	178.73
1251.744	177.88
1255.006	179.31
1258.268	174.79
1261.529	173.43
1264.79	169
1268.051	165.44
1271.312	164.27
1274.572	161.73
1277.832	157.2
1281.092	155.23
1284.351	152.12
1287.61	152.29
1290.869	150.42
1294.128	149.99
1297.386	149.14
1300.644	148.81
1303.902	147.91
1307.159	147.25
1310.416	147.55
1313.673	150.19
1316.93	150.56
1320.186	152.88
1323.442	154.81
1326.697	159.12
1329.953	159.86
1333.208	165.42
1336.463	171.71
1339.717	175.25
1342.972	184.55
1346.226	190.99
1349.479	192.42
1352.733	200.71
1355.986	205.22
1359.238	209.4
1362.491	209.56
1365.743	218.14
1368.995	218.83
1372.247	218.8
1375.498	217.15
1378.749	223.27
1382	221.5
1385.251	220.85
1388.501	219.99
1391.751	223.27
1395	222.49
1398.25	224.33
1401.499	222.4
1404.748	222.07
1407.996	217.34
1411.244	219
1414.492	214.51
1417.74	207.63
1420.987	204
1424.234	199.83
1427.481	192.24
1430.728	186.72
1433.974	181.28
1437.22	174.82
1440.465	169.23
1443.711	164.69
1446.956	159.26
1450.201	153.74
1453.445	147.71
1456.689	143.22
1459.933	139.02
1463.177	132.72
1466.42	129.88
1469.663	125.59
1472.906	122.53
1476.148	119.11
1479.391	116.5
1482.633	114.3
1485.874	112.41
1489.115	111.17
1492.356	108.88
1495.597	107.4
1498.838	106.52
1502.078	105.38
1505.318	105.12
1508.557	104.88
1511.797	103.36
1515.036	103.09
1518.274	102.31
1521.513	101.15
1524.751	100.61
1527.989	101.44
1531.227	100.89
1534.464	101.17
1537.701	100.11
1540.938	99.64
1544.174	99.38
1547.41	99.86
1550.646	99.01
1553.882	99.61
1557.117	98.71
1560.352	98.72
1563.587	97.45
1566.821	97.3
1570.055	97.16
1573.289	96.91
1576.523	97.09
1579.756	96.3
1582.989	96.39
1586.222	96.49
1589.454	96.2
1592.686	96.02
1595.918	95.8
1599.15	96.06
1602.381	96.16
1605.612	95.96
1608.843	96.2
1612.073	96.39
1615.303	96.92
1618.533	96.37
1621.762	96.45
1624.992	96.57
1628.221	96.82
1631.449	97.38
1634.678	97.54
1637.906	97.42
1641.134	97.47
1644.361	97.4
1647.588	97.12
1650.815	97.29
1654.042	97.74
1657.269	97.3
1660.495	97.82
1663.72	97.54
1666.946	97.64
1670.171	97.77
1673.396	98.19
1676.621	98.77
1679.845	99.21
1683.069	99.21
1686.293	98.82
1689.517	99.06
1692.74	99.46
1695.963	99.44
1699.185	100.23
1702.408	100.24
1705.63	100.19
1708.852	101.1
1712.073	100.08
1715.294	100.04
1718.515	100.45
1721.736	100.79
1724.956	100.74
1728.176	100.88
1731.396	101.27
1734.616	100.99
1737.835	100.86
1741.054	101.2
1744.272	100.48
1747.491	101.27
1750.709	101.6
1753.927	101.73
1757.144	101.99
1760.361	102.11
1763.578	102.83
1766.795	102.91
1770.011	104.44
1773.227	104.61
1776.443	105.18
1779.658	105.87
1782.874	105.7
1786.089	106.48
1789.303	106.91
1792.518	108.09
1795.732	108.55
1798.945	109.58
1802.159	109.9
1805.372	110.31
1808.585	111.26
1811.797	111.41
1815.01	112.68
1818.222	114.06
1821.434	114.93
1824.645	115.67
1827.856	116.45
1831.067	117.11
1834.278	118.62
1837.488	118.8
1840.698	119.82
1843.908	120.25
1847.117	121.69
1850.326	121.92
1853.535	122.5
1856.744	123.45
1859.952	124.61
1863.16	125.19
1866.368	125.47
1869.575	125.25
1872.782	125.96
1875.989	123.97
1879.196	125.37
1882.402	124.26
1885.608	125.06
1888.814	124.73
1892.019	125.24
1895.224	123.71
1898.429	124.18
1901.634	125.25
1904.838	125.42
1908.042	125.77
1911.246	126.94
1914.449	125.97
1917.652	125.86
1920.855	126.7
1924.058	126.52
1927.26	126.06
1930.462	126.75
1933.664	127.3
1936.865	126.09
1940.066	125.14
1943.267	124.24
1946.467	125.81
1949.668	124.8
1952.868	126.85
1956.067	125.83
1959.267	126.3
1962.466	127.05
1965.665	128.32
1968.863	128.17
1972.061	129.77
1975.259	132.44
1978.457	133
1981.654	133.42
1984.852	135.61
1988.048	136.37
1991.245	139.09
1994.441	141.93
1997.637	144.67
2000.833	146.77
2004.028	148.23
2007.223	153.11
2010.418	156.64
2013.613	165.38
2016.807	169.55
2020.001	172.4
2023.194	177.74
2026.388	183.27
2029.581	193.01
2032.774	199.2
2035.966	205.26
2039.158	212.68
2042.35	215
2045.542	217.66
2048.733	224.97
2051.924	227.02
2055.115	231.13
2058.306	233.01
2061.496	236.97
2064.686	233.53
2067.875	233.38
2071.065	237.42
2074.254	236.71
2077.442	243.8
2080.631	246.72
2083.819	246.7
2087.007	252.22
2090.195	257.5
2093.382	256.86
2096.569	256.28
2099.756	264.01
2102.942	269.07
2106.128	273.8
2109.314	277.1
2112.5	277.08
2115.685	276.82
2118.87	277.23
2122.055	277.75
2125.239	282.46
2128.424	291.43
2131.608	290.04
2134.791	288.51
2137.974	289.82
2141.157	292.5
2144.34	295.24
2147.523	298.38
2150.705	304.6
2153.887	301
2157.068	305.98
2160.25	307.57
2163.431	304.65
2166.611	310.39
2169.792	316.96
2172.972	321.17
2176.152	321.46
2179.331	328.42
2182.511	328.48
2185.69	330.88
2188.868	346.52
2192.047	353.66
2195.225	358.13
2198.403	364.69
2201.58	363.07
2204.758	376.87
2207.935	376.9
2211.111	384.84
2214.288	386.05
2217.464	392.23
2220.64	396.6
2223.815	395.68
2226.991	393.52
2230.166	397.09
2233.34	407.56
2236.515	418.03
2239.689	409.07
2242.863	419.57
2246.036	413.35
2249.209	426.54
2252.382	426.57
2255.555	439.68
2258.727	444.76
2261.9	452.84
2265.071	460.68
2268.243	457.5
2271.414	468.32
2274.585	478.8
2277.756	478.1
2280.926	495.64
2284.096	496.03
2287.266	495.85
2290.436	486.13
2293.605	496.99
2296.774	517.88
2299.942	517.11
2303.111	533.88
2306.279	542.82
2309.447	546.04
2312.614	545.95
2315.781	563.34
2318.948	565.47
2322.115	578.78
2325.281	605.4
2328.447	600.85
2331.613	605.1
2334.779	615.35
2337.944	621.55
2341.109	635.27
2344.274	639.63
2347.438	661.81
2350.602	667.62
2353.766	711.28
2356.929	714.79
2360.092	729.15
2363.255	728.92
2366.418	735.14
2369.58	748.22
2372.742	755.63
2375.904	750.67
2379.066	771.56
2382.227	815.53
2385.388	821.39
2388.548	777.21
2391.709	771.73
2394.869	795.61
2398.029	802.12
2401.188	803.17
2404.347	828.81
2407.506	852.69
2410.665	823.36
2413.823	824.82
2416.981	827.07
2420.139	780.59
2423.296	840.51
2426.453	896.09
2429.61	860.6
2432.767	919.84
2435.923	951.5
2439.079	910.01
2442.235	928.24
2445.391	948.94
2448.546	946.55
2451.701	987.01
2454.855	1054.32
2458.009	936.53
2461.163	948.66
2464.317	957.66
2467.471	932.07
2470.624	966.47
2473.777	956.45
2476.929	927.46
2480.082	994.08
2483.234	1040.42
2486.385	1059.95
2489.537	1083.39
2492.688	1202.43
2495.839	1181
2498.989	1206.91
2502.14	1215.72
2505.29	1156.33
2508.439	1282.74
2511.589	1321.25
2514.738	1282.11
2517.887	1267.06
2521.035	1190.39
2524.183	1176.58
2527.331	1161.96
2530.479	1135.5
2533.627	1166.76
