Data from c_1_div_wi_4n_031_Splice17_15.txt Node
Date: Sat Feb 29 13:23:44 EST 2020
User: sa697716
Spectrometer: FLMS03696
Trigger mode: 0
Integration Time (sec): 3.180400E-1
Scans to average: 20
Electric dark correction enabled: true
Nonlinearity correction enabled: true
Boxcar width: 5
XAxis mode: Wavelengths
Number of Pixels in Spectrum: 2048
>>>>>Begin Spectral Data<<<<<
187.83	82.81
188.298	72.98
188.766	72.65
189.233	68.52
189.701	67.27
190.169	69.65
190.636	76.18
191.104	56.66
191.571	106.52
192.039	182.38
192.506	117.16
192.974	4078.24
193.441	278.75
193.908	62.23
194.375	69.18
194.842	106.17
195.31	46.75
195.777	64.88
196.244	63.62
196.711	62.23
197.177	60.3
197.644	61.57
198.111	61.88
198.578	62.54
199.045	62.68
199.511	62.58
199.978	62.7
200.445	62.18
200.911	62.38
201.378	61.97
201.844	62.4
202.31	62.61
202.777	62.04
203.243	62.24
203.709	62.34
204.176	61.92
204.642	61.48
205.108	60.68
205.574	60.88
206.04	60.18
206.506	59.66
206.972	58.55
207.438	57.88
207.903	57.4
208.369	56.53
208.835	55.75
209.301	54.56
209.766	53.74
210.232	53.11
210.697	52.22
211.163	51.44
211.628	50.63
212.094	50.07
212.559	48.99
213.024	48.01
213.49	47.07
213.955	45.92
214.42	45.04
214.885	43.49
215.35	41.88
215.815	39.73
216.28	37.53
216.745	35.03
217.21	32.69
217.675	30.46
218.14	28.29
218.604	26.27
219.069	24.65
219.534	23.23
219.998	22.18
220.463	21.24
220.927	20.44
221.392	19.73
221.856	19.16
222.32	18.6
222.785	18.11
223.249	17.71
223.713	17.41
224.177	17.05
224.642	16.75
225.106	16.43
225.57	16.09
226.034	15.82
226.497	15.55
226.961	15.25
227.425	14.95
227.889	14.72
228.353	14.46
228.816	14.18
229.28	13.92
229.744	13.7
230.207	13.48
230.671	13.28
231.134	13.08
231.597	12.89
232.061	12.72
232.524	12.57
232.987	12.39
233.45	12.23
233.914	12.09
234.377	11.97
234.84	11.82
235.303	11.68
235.766	11.56
236.229	11.44
236.691	11.31
237.154	11.18
237.617	11.06
238.08	10.94
238.542	10.83
239.005	10.72
239.468	10.58
239.93	10.47
240.393	10.35
240.855	10.23
241.317	10.12
241.78	10.02
242.242	9.91
242.704	9.81
243.166	9.71
243.629	9.62
244.091	9.52
244.553	9.44
245.015	9.37
245.477	9.28
245.939	9.2
246.4	9.09
246.862	9.01
247.324	8.94
247.786	8.86
248.247	8.79
248.709	8.71
249.17	8.64
249.632	8.56
250.093	8.47
250.555	8.42
251.016	8.37
251.477	8.31
251.939	8.24
252.4	8.17
252.861	8.12
253.322	8.04
253.783	7.99
254.244	7.94
254.705	7.89
255.166	7.85
255.627	7.79
256.088	7.73
256.549	7.68
257.009	7.63
257.47	7.59
257.931	7.54
258.391	7.48
258.852	7.43
259.312	7.37
259.773	7.31
260.233	7.25
260.694	7.2
261.154	7.14
261.614	7.09
262.074	7.04
262.534	6.98
262.994	6.94
263.455	6.9
263.915	6.86
264.374	6.82
264.834	6.78
265.294	6.74
265.754	6.71
266.214	6.67
266.673	6.65
267.133	6.61
267.593	6.59
268.052	6.54
268.512	6.52
268.971	6.48
269.431	6.45
269.89	6.42
270.349	6.4
270.809	6.38
271.268	6.36
271.727	6.34
272.186	6.31
272.645	6.29
273.104	6.27
273.563	6.24
274.022	6.22
274.481	6.2
274.94	6.17
275.399	6.15
275.857	6.12
276.316	6.1
276.775	6.07
277.233	6.06
277.692	6.04
278.15	6.01
278.609	5.99
279.067	5.96
279.525	5.93
279.984	5.91
280.442	5.9
280.9	5.88
281.358	5.85
281.816	5.83
282.274	5.81
282.732	5.78
283.19	5.77
283.648	5.76
284.106	5.75
284.564	5.75
285.021	5.73
285.479	5.72
285.937	5.7
286.394	5.68
286.852	5.67
287.309	5.66
287.767	5.65
288.224	5.63
288.682	5.6
289.139	5.57
289.596	5.54
290.053	5.51
290.511	5.48
290.968	5.45
291.425	5.44
291.882	5.41
292.339	5.38
292.796	5.36
293.252	5.34
293.709	5.31
294.166	5.29
294.623	5.28
295.079	5.25
295.536	5.23
295.992	5.21
296.449	5.2
296.905	5.17
297.362	5.15
297.818	5.13
298.274	5.11
298.731	5.09
299.187	5.08
299.643	5.07
300.099	5.06
300.555	5.04
301.011	5.02
301.467	5.01
301.923	5
302.379	4.99
302.835	4.98
303.291	4.97
303.746	4.96
304.202	4.94
304.658	4.92
305.113	4.91
305.569	4.9
306.024	4.89
306.479	4.88
306.935	4.87
307.39	4.86
307.845	4.85
308.301	4.85
308.756	4.85
309.211	4.86
309.666	4.85
310.121	4.85
310.576	4.84
311.031	4.83
311.486	4.84
311.94	4.84
312.395	4.84
312.85	4.83
313.305	4.82
313.759	4.82
314.214	4.81
314.668	4.8
315.123	4.8
315.577	4.79
316.032	4.78
316.486	4.77
316.94	4.75
317.394	4.73
317.849	4.73
318.303	4.72
318.757	4.69
319.211	4.68
319.665	4.66
320.119	4.65
320.572	4.64
321.026	4.63
321.48	4.62
321.934	4.61
322.387	4.6
322.841	4.58
323.295	4.57
323.748	4.57
324.202	4.56
324.655	4.57
325.108	4.55
325.562	4.54
326.015	4.53
326.468	4.52
326.921	4.51
327.374	4.5
327.827	4.49
328.28	4.48
328.733	4.48
329.186	4.47
329.639	4.45
330.092	4.44
330.545	4.44
330.997	4.44
331.45	4.43
331.903	4.43
332.355	4.43
332.808	4.44
333.26	4.44
333.713	4.45
334.165	4.45
334.617	4.45
335.069	4.46
335.522	4.46
335.974	4.47
336.426	4.47
336.878	4.46
337.33	4.46
337.782	4.45
338.234	4.45
338.686	4.43
339.137	4.42
339.589	4.4
340.041	4.4
340.493	4.37
340.944	4.37
341.396	4.35
341.847	4.34
342.299	4.32
342.75	4.3
343.201	4.27
343.653	4.26
344.104	4.25
344.555	4.24
345.006	4.22
345.457	4.21
345.908	4.19
346.359	4.18
346.81	4.19
347.261	4.18
347.712	4.17
348.163	4.16
348.613	4.15
349.064	4.13
349.515	4.12
349.965	4.12
350.416	4.12
350.866	4.12
351.317	4.12
351.767	4.1
352.217	4.1
352.668	4.1
353.118	4.11
353.568	4.11
354.018	4.12
354.468	4.12
354.918	4.13
355.368	4.13
355.818	4.13
356.268	4.14
356.718	4.14
357.168	4.12
357.617	4.13
358.067	4.12
358.517	4.12
358.966	4.12
359.416	4.12
359.865	4.11
360.315	4.11
360.764	4.11
361.213	4.11
361.663	4.12
362.112	4.13
362.561	4.13
363.01	4.13
363.459	4.13
363.908	4.14
364.357	4.13
364.806	4.13
365.255	4.13
365.703	4.12
366.152	4.13
366.601	4.12
367.05	4.12
367.498	4.12
367.947	4.13
368.395	4.13
368.844	4.14
369.292	4.14
369.74	4.15
370.189	4.15
370.637	4.16
371.085	4.16
371.533	4.17
371.981	4.18
372.429	4.18
372.877	4.17
373.325	4.17
373.773	4.18
374.221	4.17
374.669	4.17
375.116	4.17
375.564	4.17
376.012	4.17
376.459	4.19
376.907	4.19
377.354	4.2
377.801	4.21
378.249	4.22
378.696	4.24
379.143	4.26
379.591	4.28
380.038	4.31
380.485	4.32
380.932	4.34
381.379	4.34
381.826	4.36
382.273	4.38
382.72	4.4
383.166	4.4
383.613	4.41
384.06	4.42
384.506	4.43
384.953	4.44
385.4	4.47
385.846	4.48
386.292	4.5
386.739	4.51
387.185	4.53
387.631	4.56
388.078	4.57
388.524	4.59
388.97	4.6
389.416	4.62
389.862	4.64
390.308	4.65
390.754	4.68
391.2	4.71
391.645	4.74
392.091	4.77
392.537	4.8
392.983	4.83
393.428	4.86
393.874	4.89
394.319	4.92
394.765	4.94
395.21	4.98
395.655	5
396.101	5.02
396.546	5.05
396.991	5.07
397.436	5.09
397.881	5.11
398.326	5.16
398.771	5.2
399.216	5.23
399.661	5.28
400.106	5.32
400.551	5.34
400.995	5.36
401.44	5.38
401.885	5.41
402.329	5.45
402.774	5.47
403.218	5.49
403.663	5.51
404.107	5.54
404.551	5.57
404.995	5.59
405.44	5.61
405.884	5.64
406.328	5.68
406.772	5.72
407.216	5.74
407.66	5.77
408.104	5.8
408.547	5.83
408.991	5.85
409.435	5.88
409.879	5.91
410.322	5.95
410.766	5.97
411.209	6.02
411.653	6.04
412.096	6.06
412.54	6.08
412.983	6.1
413.426	6.14
413.869	6.18
414.312	6.21
414.756	6.25
415.199	6.28
415.642	6.33
416.085	6.34
416.527	6.38
416.97	6.42
417.413	6.44
417.856	6.46
418.298	6.47
418.741	6.48
419.184	6.49
419.626	6.5
420.069	6.51
420.511	6.52
420.953	6.54
421.396	6.54
421.838	6.57
422.28	6.6
422.722	6.63
423.164	6.64
423.606	6.66
424.048	6.65
424.49	6.66
424.932	6.67
425.374	6.67
425.816	6.65
426.258	6.65
426.699	6.62
427.141	6.6
427.582	6.59
428.024	6.61
428.465	6.61
428.907	6.63
429.348	6.62
429.789	6.64
430.231	6.66
430.672	6.68
431.113	6.71
431.554	6.76
431.995	6.78
432.436	6.81
432.877	6.82
433.318	6.82
433.759	6.84
434.2	6.88
434.64	6.9
435.081	6.91
435.522	6.93
435.962	6.94
436.403	6.97
436.843	7
437.284	7.03
437.724	7.06
438.164	7.08
438.604	7.11
439.045	7.11
439.485	7.11
439.925	7.12
440.365	7.12
440.805	7.13
441.245	7.11
441.685	7.12
442.125	7.13
442.564	7.12
443.004	7.14
443.444	7.15
443.883	7.19
444.323	7.2
444.762	7.23
445.202	7.26
445.641	7.29
446.081	7.32
446.52	7.32
446.959	7.35
447.398	7.39
447.837	7.42
448.276	7.44
448.716	7.44
449.154	7.49
449.593	7.49
450.032	7.51
450.471	7.53
450.91	7.53
451.349	7.55
451.787	7.53
452.226	7.51
452.664	7.49
453.103	7.49
453.541	7.5
453.98	7.48
454.418	7.45
454.856	7.44
455.295	7.41
455.733	7.41
456.171	7.4
456.609	7.39
457.047	7.38
457.485	7.38
457.923	7.37
458.361	7.35
458.798	7.36
459.236	7.37
459.674	7.34
460.111	7.35
460.549	7.34
460.987	7.34
461.424	7.34
461.862	7.34
462.299	7.36
462.736	7.37
463.173	7.38
463.611	7.36
464.048	7.37
464.485	7.38
464.922	7.38
465.359	7.41
465.796	7.39
466.233	7.41
466.67	7.41
467.106	7.39
467.543	7.38
467.98	7.39
468.416	7.41
468.853	7.4
469.29	7.43
469.726	7.41
470.162	7.38
470.599	7.38
471.035	7.36
471.471	7.33
471.907	7.33
472.344	7.33
472.78	7.31
473.216	7.3
473.652	7.28
474.088	7.25
474.523	7.26
474.959	7.25
475.395	7.25
475.831	7.25
476.266	7.24
476.702	7.23
477.138	7.21
477.573	7.2
478.008	7.2
478.444	7.19
478.879	7.17
479.314	7.16
479.75	7.16
480.185	7.14
480.62	7.14
481.055	7.13
481.49	7.12
481.925	7.1
482.36	7.07
482.795	7.05
483.229	7.05
483.664	7.04
484.099	7.03
484.534	7.01
484.968	7
485.403	6.99
485.837	6.99
486.271	6.98
486.706	6.98
487.14	6.99
487.574	7
488.009	7.01
488.443	7.02
488.877	7.03
489.311	7.05
489.745	7.07
490.179	7.07
490.613	7.09
491.046	7.11
491.48	7.14
491.914	7.15
492.348	7.15
492.781	7.17
493.215	7.19
493.648	7.21
494.082	7.24
494.515	7.27
494.948	7.3
495.382	7.33
495.815	7.37
496.248	7.41
496.681	7.43
497.114	7.46
497.547	7.49
497.98	7.53
498.413	7.58
498.846	7.62
499.279	7.68
499.711	7.73
500.144	7.79
500.577	7.85
501.009	7.91
501.442	7.99
501.874	8.08
502.306	8.16
502.739	8.23
503.171	8.33
503.603	8.42
504.036	8.51
504.468	8.61
504.9	8.72
505.332	8.83
505.764	8.95
506.196	9.06
506.627	9.19
507.059	9.32
507.491	9.45
507.923	9.58
508.354	9.71
508.786	9.86
509.217	10.01
509.649	10.17
510.08	10.34
510.512	10.51
510.943	10.69
511.374	10.87
511.805	11.05
512.237	11.24
512.668	11.43
513.099	11.64
513.53	11.84
513.961	12.06
514.391	12.26
514.822	12.48
515.253	12.69
515.684	12.9
516.114	13.14
516.545	13.39
516.975	13.63
517.406	13.89
517.836	14.13
518.267	14.36
518.697	14.61
519.127	14.87
519.558	15.11
519.988	15.37
520.418	15.63
520.848	15.87
521.278	16.11
521.708	16.37
522.138	16.59
522.567	16.83
522.997	17.07
523.427	17.3
523.857	17.52
524.286	17.74
524.716	17.96
525.145	18.16
525.575	18.37
526.004	18.56
526.433	18.74
526.863	18.94
527.292	19.12
527.721	19.3
528.15	19.47
528.579	19.62
529.008	19.77
529.437	19.91
529.866	20.05
530.295	20.21
530.724	20.36
531.152	20.5
531.581	20.61
532.01	20.72
532.438	20.82
532.867	20.92
533.295	21.03
533.723	21.13
534.152	21.22
534.58	21.3
535.008	21.34
535.436	21.39
535.865	21.44
536.293	21.5
536.721	21.56
537.149	21.62
537.576	21.66
538.004	21.69
538.432	21.74
538.86	21.78
539.287	21.83
539.715	21.89
540.143	21.93
540.57	21.96
540.998	21.99
541.425	22.03
541.852	22.07
542.28	22.11
542.707	22.15
543.134	22.19
543.561	22.22
543.988	22.24
544.415	22.25
544.842	22.27
545.269	22.3
545.696	22.32
546.123	22.33
546.549	22.33
546.976	22.36
547.403	22.39
547.829	22.41
548.256	22.42
548.682	22.43
549.108	22.46
549.535	22.48
549.961	22.49
550.387	22.48
550.813	22.49
551.24	22.47
551.666	22.45
552.092	22.43
552.518	22.4
552.943	22.39
553.369	22.37
553.795	22.33
554.221	22.28
554.646	22.25
555.072	22.22
555.498	22.17
555.923	22.14
556.349	22.05
556.774	21.98
557.199	21.91
557.625	21.85
558.05	21.76
558.475	21.68
558.9	21.62
559.325	21.53
559.75	21.43
560.175	21.35
560.6	21.23
561.025	21.13
561.449	21.03
561.874	20.94
562.299	20.8
562.723	20.68
563.148	20.53
563.572	20.39
563.997	20.25
564.421	20.11
564.846	19.97
565.27	19.84
565.694	19.71
566.118	19.56
566.542	19.4
566.966	19.26
567.39	19.11
567.814	18.97
568.238	18.82
568.662	18.66
569.086	18.51
569.509	18.36
569.933	18.2
570.357	18.02
570.78	17.87
571.204	17.72
571.627	17.59
572.05	17.45
572.474	17.31
572.897	17.18
573.32	17.03
573.743	16.92
574.166	16.79
574.589	16.68
575.012	16.58
575.435	16.46
575.858	16.35
576.281	16.25
576.704	16.14
577.126	16.05
577.549	15.95
577.972	15.88
578.394	15.78
578.817	15.7
579.239	15.61
579.661	15.52
580.084	15.43
580.506	15.36
580.928	15.27
581.35	15.2
581.772	15.12
582.194	15.03
582.616	14.96
583.038	14.89
583.46	14.83
583.882	14.76
584.303	14.7
584.725	14.63
585.147	14.55
585.568	14.47
585.99	14.41
586.411	14.36
586.833	14.31
587.254	14.25
587.675	14.2
588.096	14.14
588.518	14.09
588.939	14.04
589.36	13.98
589.781	13.96
590.202	13.93
590.623	13.87
591.043	13.83
591.464	13.8
591.885	13.76
592.305	13.72
592.726	13.69
593.147	13.66
593.567	13.63
593.987	13.61
594.408	13.59
594.828	13.56
595.248	13.53
595.669	13.51
596.089	13.47
596.509	13.43
596.929	13.4
597.349	13.37
597.769	13.32
598.189	13.3
598.608	13.26
599.028	13.22
599.448	13.18
599.867	13.14
600.287	13.09
600.706	13.06
601.126	13.02
601.545	12.98
601.965	12.93
602.384	12.89
602.803	12.84
603.222	12.81
603.641	12.76
604.061	12.7
604.48	12.65
604.898	12.6
605.317	12.54
605.736	12.48
606.155	12.41
606.574	12.37
606.992	12.3
607.411	12.24
607.829	12.12
608.248	12.06
608.666	12.01
609.085	11.96
609.503	11.89
609.921	11.82
610.339	11.76
610.758	11.71
611.176	11.64
611.594	11.59
612.012	11.52
612.43	11.51
612.847	11.46
613.265	11.41
613.683	11.34
614.101	11.29
614.518	11.22
614.936	11.17
615.353	11.1
615.771	11.06
616.188	11.01
616.606	10.97
617.023	10.9
617.44	10.85
617.857	10.78
618.274	10.75
618.691	10.71
619.108	10.7
619.525	10.66
619.942	10.63
620.359	10.6
620.776	10.58
621.192	10.55
621.609	10.53
622.026	10.51
622.442	10.49
622.859	10.48
623.275	10.49
623.691	10.47
624.108	10.45
624.524	10.44
624.94	10.43
625.356	10.41
625.772	10.41
626.188	10.4
626.604	10.39
627.02	10.38
627.436	10.36
627.852	10.33
628.268	10.31
628.683	10.29
629.099	10.29
629.514	10.26
629.93	10.25
630.345	10.23
630.761	10.2
631.176	10.18
631.591	10.15
632.007	10.12
632.422	10.1
632.837	10.07
633.252	10.05
633.667	10
634.082	9.97
634.497	9.91
634.911	9.85
635.326	9.79
635.741	9.73
636.155	9.66
636.57	9.6
636.984	9.51
637.399	9.44
637.813	9.37
638.228	9.29
638.642	9.21
639.056	9.14
639.47	9.07
639.884	8.99
640.298	8.92
640.712	8.85
641.126	8.78
641.54	8.71
641.954	8.65
642.368	8.59
642.781	8.52
643.195	8.45
643.609	8.37
644.022	8.31
644.436	8.27
644.849	8.22
645.262	8.17
645.676	8.13
646.089	8.08
646.502	8.01
646.915	7.96
647.328	7.92
647.741	7.87
648.154	7.85
648.567	7.82
648.98	7.8
649.393	7.76
649.805	7.72
650.218	7.69
650.631	7.66
651.043	7.65
651.456	7.64
651.868	7.62
652.28	7.6
652.693	7.57
653.105	7.53
653.517	7.5
653.929	7.48
654.341	7.45
654.753	7.42
655.165	7.4
655.577	7.35
655.989	7.31
656.401	7.27
656.813	7.23
657.224	7.18
657.636	7.16
658.047	7.11
658.459	7.05
658.87	7.02
659.282	6.99
659.693	6.94
660.104	6.9
660.515	6.86
660.926	6.83
661.338	6.79
661.749	6.75
662.159	6.7
662.57	6.67
662.981	6.65
663.392	6.62
663.803	6.59
664.213	6.58
664.624	6.56
665.035	6.54
665.445	6.52
665.855	6.51
666.266	6.49
666.676	6.48
667.086	6.47
667.497	6.46
667.907	6.45
668.317	6.44
668.727	6.44
669.137	6.44
669.547	6.45
669.956	6.45
670.366	6.47
670.776	6.48
671.186	6.5
671.595	6.52
672.005	6.54
672.414	6.55
672.824	6.56
673.233	6.59
673.642	6.61
674.052	6.64
674.461	6.65
674.87	6.67
675.279	6.7
675.688	6.73
676.097	6.76
676.506	6.78
676.915	6.82
677.323	6.87
677.732	6.89
678.141	6.92
678.549	6.95
678.958	7
679.366	7.02
679.775	7.06
680.183	7.11
680.592	7.17
681	7.21
681.408	7.25
681.816	7.3
682.224	7.38
682.632	7.45
683.04	7.51
683.448	7.6
683.856	7.69
684.264	7.8
684.671	7.9
685.079	8.01
685.487	8.16
685.894	8.31
686.302	8.46
686.709	8.61
687.116	8.79
687.524	9
687.931	9.2
688.338	9.43
688.745	9.67
689.152	9.94
689.559	10.22
689.966	10.51
690.373	10.84
690.78	11.17
691.187	11.53
691.593	11.92
692	12.32
692.407	12.75
692.813	13.19
693.22	13.63
693.626	14.09
694.032	14.58
694.439	15.09
694.845	15.58
695.251	16.13
695.657	16.65
696.063	17.18
696.469	17.73
696.875	18.26
697.281	18.79
697.687	19.38
698.093	19.93
698.498	20.48
698.904	21.04
699.31	21.62
699.715	22.18
700.12	22.74
700.526	23.32
700.931	23.86
701.337	24.44
701.742	25
702.147	25.55
702.552	26.1
702.957	26.65
703.362	27.2
703.767	27.71
704.172	28.23
704.577	28.77
704.981	29.31
705.386	29.84
705.791	30.37
706.195	30.89
706.6	31.38
707.004	31.9
707.408	32.39
707.813	32.89
708.217	33.38
708.621	33.88
709.025	34.37
709.43	34.81
709.834	35.31
710.237	35.75
710.641	36.22
711.045	36.67
711.449	37.13
711.853	37.6
712.256	38.05
712.66	38.49
713.064	38.92
713.467	39.32
713.87	39.76
714.274	40.16
714.677	40.59
715.08	40.99
715.484	41.44
715.887	41.85
716.29	42.24
716.693	42.6
717.096	42.99
717.499	43.38
717.901	43.8
718.304	44.19
718.707	44.55
719.109	44.91
719.512	45.31
719.915	45.63
720.317	45.96
720.719	46.29
721.122	46.63
721.524	46.96
721.926	47.29
722.328	47.57
722.731	47.82
723.133	48.12
723.535	48.42
723.937	48.68
724.338	48.94
724.74	49.22
725.142	49.44
725.544	49.69
725.945	49.95
726.347	50.2
726.748	50.45
727.15	50.68
727.551	50.91
727.952	51.13
728.354	51.33
728.755	51.54
729.156	51.76
729.557	52
729.958	52.22
730.359	52.37
730.76	52.51
731.161	52.68
731.562	52.88
731.962	53.04
732.363	53.17
732.763	53.35
733.164	53.46
733.564	53.59
733.965	53.7
734.365	53.79
734.766	53.91
735.166	53.99
735.566	54.07
735.966	54.15
736.366	54.23
736.766	54.31
737.166	54.39
737.566	54.51
737.966	54.59
738.365	54.66
738.765	54.74
739.165	54.8
739.564	54.89
739.964	54.97
740.363	55.03
740.763	55.09
741.162	55.19
741.561	55.26
741.96	55.31
742.36	55.37
742.759	55.46
743.158	55.48
743.557	55.54
743.955	55.6
744.354	55.69
744.753	55.75
745.152	55.81
745.55	55.85
745.949	55.85
746.348	55.87
746.746	55.89
747.144	55.94
747.543	56.01
747.941	56.08
748.339	56.14
748.737	56.19
749.136	56.25
749.534	56.28
749.932	56.29
750.33	56.33
750.727	56.35
751.125	56.41
751.523	56.41
751.921	56.44
752.318	56.45
752.716	56.45
753.113	56.46
753.511	56.41
753.908	56.37
754.305	56.37
754.703	56.36
755.1	56.36
755.497	56.35
755.894	56.33
756.291	56.32
756.688	56.29
757.085	56.28
757.482	56.28
757.878	56.31
758.275	56.36
758.672	56.39
759.068	56.42
759.465	56.43
759.861	56.44
760.258	56.47
760.654	56.48
761.05	56.48
761.447	56.46
761.843	56.46
762.239	56.44
762.635	56.43
763.031	56.46
763.427	56.43
763.822	56.42
764.218	56.41
764.614	56.41
765.01	56.36
765.405	56.36
765.801	56.36
766.196	56.34
766.592	56.37
766.987	56.35
767.382	56.32
767.778	56.35
768.173	56.36
768.568	56.34
768.963	56.33
769.358	56.39
769.753	56.41
770.148	56.39
770.542	56.36
770.937	56.33
771.332	56.32
771.726	56.29
772.121	56.25
772.515	56.27
772.91	56.3
773.304	56.28
773.699	56.21
774.093	56.17
774.487	56.17
774.881	56.19
775.275	56.21
775.669	56.22
776.063	56.21
776.457	56.21
776.851	56.13
777.245	56.08
777.638	56.08
778.032	56.1
778.425	56.09
778.819	56.11
779.212	56.12
779.606	56.09
779.999	56.09
780.392	56.11
780.786	56.11
781.179	56.17
781.572	56.19
781.965	56.21
782.358	56.19
782.751	56.21
783.143	56.22
783.536	56.23
783.929	56.24
784.322	56.25
784.714	56.27
785.107	56.3
785.499	56.29
785.891	56.28
786.284	56.23
786.676	56.27
787.068	56.27
787.46	56.25
787.852	56.23
788.245	56.25
788.636	56.25
789.028	56.2
789.42	56.19
789.812	56.2
790.204	56.17
790.595	56.19
790.987	56.16
791.378	56.13
791.77	56.12
792.161	56.15
792.553	56.12
792.944	56.12
793.335	56.18
793.726	56.16
794.117	56.15
794.508	56.2
794.899	56.2
795.29	56.19
795.681	56.23
796.072	56.23
796.463	56.2
796.853	56.19
797.244	56.17
797.634	56.12
798.025	56.09
798.415	56.06
798.806	56.05
799.196	56.05
799.586	56.07
799.976	56.07
800.366	56.09
800.756	56.08
801.146	56.09
801.536	56.05
801.926	56.05
802.316	56.07
802.706	56.1
803.095	56.1
803.485	56.12
803.874	56.11
804.264	56.13
804.653	56.12
805.043	56.1
805.432	56.1
805.821	56.13
806.21	56.18
806.599	56.2
806.988	56.2
807.377	56.21
807.766	56.21
808.155	56.21
808.544	56.18
808.933	56.14
809.321	56.18
809.71	56.22
810.098	56.23
810.487	56.18
810.875	56.12
811.264	56.14
811.652	56.14
812.04	56.11
812.428	56.12
812.816	56.15
813.204	56.19
813.592	56.19
813.98	56.15
814.368	56.15
814.756	56.16
815.144	56.24
815.531	56.21
815.919	56.21
816.306	56.2
816.694	56.2
817.081	56.16
817.469	56.18
817.856	56.22
818.243	56.24
818.63	56.27
819.017	56.3
819.404	56.26
819.791	56.26
820.178	56.24
820.565	56.25
820.952	56.22
821.339	56.25
821.725	56.25
822.112	56.23
822.498	56.24
822.885	56.2
823.271	56.21
823.657	56.24
824.044	56.25
824.43	56.3
824.816	56.29
825.202	56.29
825.588	56.28
825.974	56.28
826.36	56.29
826.746	56.28
827.132	56.27
827.517	56.24
827.903	56.18
828.289	56.22
828.674	56.18
829.06	56.23
829.445	56.28
829.83	56.31
830.216	56.31
830.601	56.3
830.986	56.32
831.371	56.38
831.756	56.37
832.141	56.42
832.526	56.4
832.911	56.44
833.295	56.43
833.68	56.41
834.065	56.42
834.449	56.4
834.834	56.41
835.218	56.39
835.603	56.35
835.987	56.38
836.371	56.37
836.755	56.36
837.139	56.34
837.524	56.31
837.908	56.3
838.291	56.29
838.675	56.28
839.059	56.26
839.443	56.26
839.827	56.27
840.21	56.27
840.594	56.28
840.977	56.29
841.361	56.29
841.744	56.3
842.127	56.31
842.511	56.31
842.894	56.3
843.277	56.3
843.66	56.3
844.043	56.28
844.426	56.26
844.809	56.25
845.191	56.23
845.574	56.22
845.957	56.2
846.339	56.19
846.722	56.17
847.104	56.2
847.487	56.22
847.869	56.21
848.252	56.22
848.634	56.24
849.016	56.27
849.398	56.25
849.78	56.25
850.162	56.25
850.544	56.28
850.926	56.26
851.307	56.25
851.689	56.19
852.071	56.19
852.452	56.2
852.834	56.16
853.215	56.11
853.597	56.14
853.978	56.13
854.359	56.13
854.741	56.11
855.122	56.12
855.503	56.12
855.884	56.12
856.265	56.12
856.646	56.08
857.026	56.09
857.407	56.05
857.788	56.05
858.169	56.03
858.549	56.04
858.93	56.04
859.31	56.01
859.69	56.03
860.071	56.04
860.451	56.03
860.831	56.03
861.211	56.01
861.591	56.06
861.971	56.04
862.351	56.07
862.731	56.08
863.111	56.08
863.491	56.11
863.87	56.1
864.25	56.11
864.629	56.14
865.009	56.14
865.388	56.15
865.768	56.13
866.147	56.13
866.526	56.11
866.905	56.09
867.284	56.11
867.663	56.1
868.042	56.1
868.421	56.08
868.8	56.06
869.179	56.1
869.558	56.07
869.936	56.08
870.315	56.08
870.693	56.06
871.072	56.06
871.45	56.05
871.828	56.06
872.207	56.05
872.585	56.07
872.963	56.07
873.341	56.07
873.719	56.12
874.097	56.1
874.475	56.1
874.853	56.09
875.23	56.12
875.608	56.13
875.986	56.11
876.363	56.11
876.741	56.08
877.118	56.04
877.495	56.02
877.873	56
878.25	55.99
878.627	56.01
879.004	56.02
879.381	56.01
879.758	55.99
880.135	55.99
880.512	55.99
880.889	56.02
881.265	56.08
881.642	56.08
882.019	56.1
882.395	56.13
882.772	56.12
883.148	56.13
883.524	56.15
883.901	56.14
884.277	56.14
884.653	56.16
885.029	56.16
885.405	56.14
885.781	56.14
886.157	56.1
886.532	56.08
886.908	56.09
887.284	56.12
887.659	56.13
888.035	56.14
888.411	56.11
888.786	56.07
889.161	56.07
889.537	56.08
889.912	56.07
890.287	56.07
890.662	56.08
891.037	56.07
891.412	56.03
891.787	55.99
892.162	55.97
892.536	55.98
892.911	55.99
893.286	55.97
893.66	55.95
894.035	55.96
894.409	55.96
894.784	55.95
895.158	55.94
895.532	55.95
895.906	55.96
896.281	55.96
896.655	55.93
897.029	55.95
897.402	55.97
897.776	55.95
898.15	55.96
898.524	55.92
898.898	55.91
899.271	55.87
899.645	55.83
900.018	55.81
900.392	55.82
900.765	55.85
901.138	55.82
901.511	55.77
901.884	55.81
902.258	55.78
902.631	55.83
903.003	55.82
903.376	55.85
903.749	55.89
904.122	55.9
904.495	55.89
904.867	55.82
905.24	55.8
905.612	55.77
905.985	55.72
906.357	55.7
906.729	55.69
907.102	55.69
907.474	55.7
907.846	55.66
908.218	55.61
908.59	55.6
908.962	55.63
909.334	55.62
909.705	55.63
910.077	55.63
910.449	55.65
910.82	55.62
911.192	55.62
911.563	55.61
911.935	55.59
912.306	55.59
912.677	55.58
913.048	55.59
913.419	55.6
913.79	55.6
914.161	55.61
914.532	55.6
914.903	55.62
915.274	55.61
915.645	55.56
916.015	55.62
916.386	55.64
916.756	55.61
917.127	55.61
917.497	55.63
917.868	55.63
918.238	55.62
918.608	55.62
918.978	55.62
919.348	55.59
919.718	55.63
920.088	55.63
920.458	55.67
920.828	55.7
921.198	55.69
921.567	55.64
921.937	55.66
922.306	55.63
922.676	55.66
923.045	55.65
923.415	55.69
923.784	55.68
924.153	55.68
924.522	55.62
924.891	55.58
925.26	55.56
925.629	55.56
925.998	55.59
926.367	55.62
926.736	55.59
927.104	55.57
927.473	55.57
927.842	55.56
928.21	55.58
928.578	55.59
928.947	55.6
929.315	55.62
929.683	55.65
930.051	55.63
930.42	55.59
930.788	55.63
931.156	55.64
931.523	55.66
931.891	55.67
932.259	55.61
932.627	55.56
932.994	55.59
933.362	55.55
933.729	55.51
934.097	55.49
934.464	55.53
934.831	55.47
935.199	55.45
935.566	55.33
935.933	55.27
936.3	55.24
936.667	55.27
937.034	55.19
937.401	55.27
937.767	55.27
938.134	55.19
938.501	55.15
938.867	55.26
939.234	55.29
939.6	55.37
939.967	55.4
940.333	55.51
940.699	55.64
941.065	55.74
941.431	55.77
941.798	55.84
942.163	56
942.529	56
942.895	55.97
943.261	56.01
943.627	56.09
943.992	56.15
944.358	56.06
944.723	56.01
945.089	56.01
945.454	56.02
945.82	55.97
946.185	56
946.55	56.09
946.915	56.05
947.28	56.03
947.645	56
948.01	56.07
948.375	56.1
948.74	56.04
949.104	55.99
949.469	55.89
949.834	55.88
950.198	55.76
950.562	55.72
950.927	55.71
951.291	55.64
951.655	55.57
952.02	55.49
952.384	55.5
952.748	55.53
953.112	55.57
953.476	55.58
953.839	55.53
954.203	55.53
954.567	55.43
954.931	55.45
955.294	55.45
955.658	55.43
956.021	55.41
956.385	55.41
956.748	55.39
957.111	55.28
957.474	55.27
957.837	55.36
958.2	55.34
958.563	55.38
958.926	55.33
959.289	55.3
959.652	55.29
960.015	55.27
960.377	55.22
960.74	55.19
961.102	55.18
961.465	55.18
961.827	55
962.189	54.97
962.552	54.89
962.914	54.85
963.276	54.87
963.638	54.87
964	54.89
964.362	54.9
964.724	54.9
965.085	54.95
965.447	54.86
965.809	54.91
966.17	54.91
966.532	54.98
966.893	54.97
967.255	54.88
967.616	54.92
967.977	54.83
968.338	54.79
968.699	54.73
969.061	54.71
969.421	54.76
969.782	54.85
970.143	54.81
970.504	54.75
970.865	54.72
971.225	54.81
971.586	54.82
971.946	54.9
972.307	54.91
972.667	54.96
973.027	55.03
973.388	55.04
973.748	55.02
974.108	55.07
974.468	55.1
974.828	55.18
975.188	55.17
975.548	55.17
975.907	55.18
976.267	55.13
976.627	55.14
976.986	55.06
977.346	55.04
977.705	55.03
978.064	55.12
978.424	55.16
978.783	55.21
979.142	55.2
979.501	55.18
979.86	55.16
980.219	55.2
980.578	55.24
980.937	55.39
981.296	55.46
981.654	55.5
982.013	55.48
982.371	55.47
982.73	55.45
983.088	55.47
983.447	55.48
983.805	55.49
984.163	55.65
984.521	55.67
984.879	55.66
985.237	55.6
985.595	55.6
985.953	55.6
986.311	55.63
986.669	55.63
987.026	55.65
987.384	55.62
987.741	55.65
988.099	55.53
988.456	55.45
988.814	55.47
989.171	55.54
989.528	55.53
989.885	55.47
990.242	55.5
990.599	55.53
990.956	55.57
991.313	55.58
991.67	55.68
992.027	55.68
992.383	55.82
992.74	55.74
993.096	55.69
993.453	55.73
993.809	55.83
994.165	55.82
994.522	55.8
994.878	55.72
995.234	55.8
995.59	55.72
995.946	55.82
996.302	55.68
996.658	55.74
997.013	55.78
997.369	55.77
997.725	55.78
998.08	55.87
998.436	55.98
998.791	56.02
999.147	55.98
999.502	55.88
999.857	55.89
1000.212	55.96
1000.567	55.92
1000.922	55.88
1001.277	55.85
1001.632	55.89
1001.987	55.83
1002.342	55.78
1002.696	55.85
1003.051	55.79
1003.406	55.93
1003.76	55.91
1004.114	56
1004.469	55.78
1004.823	56.01
1005.177	56.19
1005.531	56.21
1005.885	56.42
1006.239	56.45
1006.593	56.31
1006.947	56.33
1007.301	56.43
1007.655	56.38
1008.008	56.39
1008.362	56.75
1008.715	56.59
1009.069	56.5
1009.422	56.33
1009.776	56.13
1010.129	56.11
1010.482	56.29
1010.835	56.49
1011.188	56.4
1011.541	56.41
1011.894	56.34
1012.247	56.27
1012.6	56.42
1012.952	56.41
1013.305	56.61
1013.657	56.71
1014.01	57.03
1014.362	57.2
1014.715	57.13
1015.067	57.37
1015.419	57.56
1015.771	57.82
1016.123	57.66
1016.475	57.67
1016.827	57.94
1017.179	58.08
1017.531	58.2
1017.883	58.04
1018.234	57.98
1018.586	58.04
1018.938	57.68
1019.289	57.76
1019.64	57.91
1019.992	58.39
1020.343	58.21
1020.694	58.21
1021.045	58.19
1021.396	58.07
1021.747	58.04
1022.098	58.17
1022.449	58.38
1022.8	58.47
1023.151	58.45
1023.501	58.19
1023.852	58.3
1024.202	58.47
1024.553	58.33
1024.903	58.42
1025.253	58.62
1025.604	58.89
1025.954	58.83
1026.304	58.96
1026.654	59.55
1027.004	59.63
1027.354	60.01
1027.703	59.67
1028.053	59.64
1028.403	59.7
1028.753	59.97
1029.102	60.13
1029.452	60.14
1029.801	60.4
1030.15	60.34
1030.499	60.17
897.758	287.89
901.051	300.16
904.343	305.75
907.636	302.4
910.928	294.09
914.22	302.33
917.511	292.65
920.803	283.94
924.094	275.24
927.384	280.38
930.675	271.51
933.965	268.43
937.255	266.74
940.544	254.52
943.834	242.28
947.123	241.24
950.411	231.9
953.7	229.84
956.988	222.21
960.276	210.91
963.563	212.04
966.851	202.41
970.138	199.17
973.424	187.05
976.711	185.71
979.997	182.68
983.283	177.9
986.568	169.72
989.853	168.66
993.138	164.9
996.423	161.4
999.708	155.64
1002.992	156.24
1006.275	152.32
1009.559	152.74
1012.842	147.43
1016.125	141.74
1019.408	140.88
1022.69	140.54
1025.972	139.28
1029.254	136.26
1032.536	136.5
1035.817	133.18
1039.098	131.29
1042.379	131.01
1045.659	128.76
1048.939	127.76
1052.219	127.52
1055.498	125.69
1058.778	123.89
1062.057	122.23
1065.335	122.24
1068.614	119.72
1071.892	118.47
1075.17	115.47
1078.447	114.51
1081.724	113.47
1085.001	112.75
1088.278	111.99
1091.554	110.83
1094.83	110.74
1098.106	108.78
1101.382	108.85
1104.657	109.07
1107.932	107.63
1111.206	109.01
1114.481	107.32
1117.755	106.71
1121.029	106.3
1124.302	104.95
1127.575	104.92
1130.848	104.41
1134.121	102.69
1137.393	101.68
1140.665	101.44
1143.937	100.96
1147.208	99.64
1150.48	99.1
1153.75	97.61
1157.021	97.22
1160.291	97.81
1163.561	96.53
1166.831	96.64
1170.101	97.11
1173.37	96.14
1176.639	94.91
1179.907	95.97
1183.176	95.6
1186.444	95.87
1189.711	95.75
1192.979	96.1
1196.246	96.41
1199.513	96.51
1202.78	95.65
1206.046	95.92
1209.312	97.19
1212.578	97.32
1215.843	98.49
1219.108	98.07
1222.373	98.83
1225.638	100.42
1228.902	102.26
1232.166	103.74
1235.43	103.29
1238.693	106.57
1241.956	106.98
1245.219	108.52
1248.482	110.19
1251.744	108.33
1255.006	110.56
1258.268	107.57
1261.529	107.39
1264.79	104.83
1268.051	102.9
1271.312	104.23
1274.572	101.83
1277.832	101.2
1281.092	99.6
1284.351	98.24
1287.61	98.17
1290.869	97.66
1294.128	98.23
1297.386	97.61
1300.644	97.54
1303.902	97.29
1307.159	96.28
1310.416	96.46
1313.673	97.05
1316.93	98.14
1320.186	98.54
1323.442	99.21
1326.697	100.06
1329.953	100.34
1333.208	102.1
1336.463	104.67
1339.717	106.33
1342.972	109.56
1346.226	113.06
1349.479	113.1
1352.733	116.37
1355.986	119.1
1359.238	120.97
1362.491	121.82
1365.743	124.67
1368.995	125.54
1372.247	126.19
1375.498	124.65
1378.749	128.81
1382	125.15
1385.251	125.55
1388.501	123.17
1391.751	123.24
1395	122.44
1398.25	122.24
1401.499	121.47
1404.748	120.67
1407.996	116.32
1411.244	116.54
1414.492	113.67
1417.74	110.72
1420.987	108.13
1424.234	105.86
1427.481	102.11
1430.728	99.37
1433.974	96.51
1437.22	93.1
1440.465	90.91
1443.711	88.43
1446.956	85.44
1450.201	83.36
1453.445	80.21
1456.689	78.08
1459.933	76.84
1463.177	73.78
1466.42	72.24
1469.663	70.2
1472.906	69.07
1476.148	66.96
1479.391	66.3
1482.633	65.94
1485.874	64.78
1489.115	64.86
1492.356	63.85
1495.597	63.66
1498.838	63.74
1502.078	63.86
1505.318	64.06
1508.557	63.49
1511.797	63.79
1515.036	64.24
1518.274	63.9
1521.513	63.52
1524.751	63.46
1527.989	64.84
1531.227	64.51
1534.464	64.68
1537.701	63.92
1540.938	63.78
1544.174	64.26
1547.41	64.44
1550.646	64.26
1553.882	64.85
1557.117	65.03
1560.352	65.37
1563.587	64.65
1566.821	64.53
1570.055	65.07
1573.289	65.42
1576.523	66.23
1579.756	65.76
1582.989	66.27
1586.222	65.93
1589.454	65.6
1592.686	65.4
1595.918	65.27
1599.15	65.48
1602.381	65.47
1605.612	65.53
1608.843	65.67
1612.073	65.47
1615.303	66.53
1618.533	65.67
1621.762	66.06
1624.992	66.42
1628.221	66.73
1631.449	66.88
1634.678	67.22
1637.906	67.49
1641.134	67.41
1644.361	67.82
1647.588	67.49
1650.815	67.24
1654.042	67.81
1657.269	67.87
1660.495	68.17
1663.72	68.02
1666.946	68.04
1670.171	68.02
1673.396	68.11
1676.621	68.35
1679.845	68.78
1683.069	68.43
1686.293	67.86
1689.517	68.03
1692.74	67.92
1695.963	68.14
1699.185	68.35
1702.408	68.26
1705.63	68.23
1708.852	68.85
1712.073	67.95
1715.294	67.44
1718.515	68.43
1721.736	68.94
1724.956	68.72
1728.176	68.55
1731.396	68.66
1734.616	68.8
1737.835	68.84
1741.054	68.25
1744.272	67.78
1747.491	68.2
1750.709	68.5
1753.927	68.02
1757.144	68.14
1760.361	68
1763.578	67.91
1766.795	68.01
1770.011	68.12
1773.227	68.64
1776.443	68.93
1779.658	68.98
1782.874	69.04
1786.089	68.71
1789.303	68.92
1792.518	69.72
1795.732	69.73
1798.945	71.35
1802.159	70.57
1805.372	71.35
1808.585	71.02
1811.797	71.66
1815.01	71.99
1818.222	72.86
1821.434	72.76
1824.645	72.87
1827.856	72.99
1831.067	73.45
1834.278	72.81
1837.488	73.36
1840.698	72.88
1843.908	73.31
1847.117	73.28
1850.326	73.32
1853.535	72.82
1856.744	73.58
1859.952	73.61
1863.16	72.69
1866.368	72.46
1869.575	71.93
1872.782	71.63
1875.989	70.15
1879.196	69.36
1882.402	67.59
1885.608	67.96
1888.814	66.84
1892.019	65.24
1895.224	63.82
1898.429	64.23
1901.634	63.34
1904.838	62.88
1908.042	61.91
1911.246	62.19
1914.449	61.86
1917.652	62.97
1920.855	62.2
1924.058	61.57
1927.26	61.43
1930.462	62.2
1933.664	61.3
1936.865	61.39
1940.066	60.79
1943.267	60.43
1946.467	61.09
1949.668	60.71
1952.868	60.61
1956.067	60.57
1959.267	61.82
1962.466	62.25
1965.665	62.3
1968.863	63.14
1972.061	62.93
1975.259	64.62
1978.457	65.91
1981.654	66.15
1984.852	67.37
1988.048	67.77
1991.245	69.36
1994.441	71.32
1997.637	72.44
2000.833	73.83
2004.028	73.98
2007.223	77.05
2010.418	79.08
2013.613	81.4
2016.807	83.84
2020.001	84.22
2023.194	87.72
2026.388	89.43
2029.581	93.53
2032.774	96.92
2035.966	99.42
2039.158	104.1
2042.35	105.99
2045.542	107.54
2048.733	112.26
2051.924	113.49
2055.115	115.57
2058.306	115.72
2061.496	117.82
2064.686	118.68
2067.875	116.39
2071.065	120.18
2074.254	118.79
2077.442	122.82
2080.631	123.51
2083.819	124.05
2087.007	125.27
2090.195	130.6
2093.382	129.51
2096.569	129.99
2099.756	132.28
2102.942	136.4
2106.128	137.34
2109.314	139.29
2112.5	138.48
2115.685	136.68
2118.87	137.42
2122.055	138.74
2125.239	138.57
2128.424	143.25
2131.608	142
2134.791	141.28
2137.974	142.07
2141.157	144.83
2144.34	146.92
2147.523	146.82
2150.705	151.64
2153.887	151.38
2157.068	154.37
2160.25	154.03
2163.431	153.89
2166.611	158.13
2169.792	160.52
2172.972	164.12
2176.152	163.69
2179.331	165.71
2182.511	168.61
2185.69	169.96
2188.868	171.72
2192.047	175.91
2195.225	180.88
2198.403	181.71
2201.58	179.28
2204.758	183.95
2207.935	183.37
2211.111	183.17
2214.288	186.61
2217.464	187.58
2220.64	191.5
2223.815	194.51
2226.991	190.26
2230.166	191.85
2233.34	199.54
2236.515	204.03
2239.689	199.42
2242.863	201.85
2246.036	203.65
2249.209	201.97
2252.382	206.3
2255.555	212.27
2258.727	214.21
2261.9	218.87
2265.071	222.01
2268.243	221.99
2271.414	227.39
2274.585	232.94
2277.756	235.8
2280.926	240.45
2284.096	247.82
2287.266	243.4
2290.436	238.2
2293.605	242.62
2296.774	256.49
2299.942	255.58
2303.111	260.71
2306.279	267.35
2309.447	270.87
2312.614	268.86
2315.781	275
2318.948	278.38
2322.115	284.9
2325.281	294.57
2328.447	293.94
2331.613	291.15
2334.779	295.38
2337.944	294.83
2341.109	296.58
2344.274	300.91
2347.438	315.21
2350.602	318.44
2353.766	332.85
2356.929	334.97
2360.092	346.01
2363.255	346.36
2366.418	353.16
2369.58	358.46
2372.742	368.76
2375.904	368.07
2379.066	374.72
2382.227	393.06
2385.388	389.43
2388.548	375.88
2391.709	372.75
2394.869	375.49
2398.029	379.93
2401.188	382.65
2404.347	390.93
2407.506	395.14
2410.665	385.22
2413.823	385.66
2416.981	383.61
2420.139	372.59
2423.296	393.53
2426.453	421.79
2429.61	405.95
2432.767	427.67
2435.923	438.82
2439.079	427.62
2442.235	437.39
2445.391	445.76
2448.546	446.29
2451.701	467.12
2454.855	497
2458.009	449.33
2461.163	453.87
2464.317	456.91
2467.471	449.78
2470.624	457.47
2473.777	459.9
2476.929	448.18
2480.082	473.03
2483.234	494.09
2486.385	499
2489.537	508.24
2492.688	563.87
2495.839	545.84
2498.989	563.89
2502.14	570.24
2505.29	547.74
2508.439	595.26
2511.589	612.48
2514.738	589.72
2517.887	586.92
2521.035	552.81
2524.183	547.03
2527.331	531.7
2530.479	523.47
2533.627	536.58
