Data from c_1_dec_on_6n_019_Splice17_21.txt Node
Date: Sat Feb 29 13:17:40 EST 2020
User: sa697716
Spectrometer: FLMS03696
Trigger mode: 0
Integration Time (sec): 3.180400E-1
Scans to average: 20
Electric dark correction enabled: true
Nonlinearity correction enabled: true
Boxcar width: 5
XAxis mode: Wavelengths
Number of Pixels in Spectrum: 2048
>>>>>Begin Spectral Data<<<<<
187.83	74.91
188.298	58.15
188.766	56.56
189.233	58.3
189.701	60.37
190.169	64.64
190.636	71.97
191.104	97.87
191.571	517.56
192.039	410.51
192.506	-407.76
192.974	2724.07
193.441	234.82
193.908	18.59
194.375	85.81
194.842	108.65
195.31	82.81
195.777	57.26
196.244	34.2
196.711	36.14
197.177	35.48
197.644	35.02
198.111	34.63
198.578	34.97
199.045	35.35
199.511	35.7
199.978	36.24
200.445	36.14
200.911	36.39
201.378	36.99
201.844	37.54
202.31	38.29
202.777	38.63
203.243	39.13
203.709	39.36
204.176	38.99
204.642	38.55
205.108	37.79
205.574	38.2
206.04	38.03
206.506	37.87
206.972	37.75
207.438	37.36
207.903	37.55
208.369	37.14
208.835	36.95
209.301	37.2
209.766	37.1
210.232	37.39
210.697	37.18
211.163	36.82
211.628	36.22
212.094	35.97
212.559	35.58
213.024	35.28
213.49	34.76
213.955	34.5
214.42	34.03
214.885	33.54
215.35	33.1
215.815	32.43
216.28	32.01
216.745	31.72
217.21	30.97
217.675	30.46
218.14	29.58
218.604	29
219.069	28.43
219.534	27.84
219.998	27.41
220.463	26.95
220.927	26.57
221.392	26.23
221.856	25.82
222.32	25.49
222.785	25.13
223.249	24.84
223.713	24.57
224.177	24.27
224.642	24.02
225.106	23.7
225.57	23.42
226.034	23.13
226.497	22.84
226.961	22.53
227.425	22.21
227.889	21.92
228.353	21.62
228.816	21.37
229.28	21.07
229.744	20.82
230.207	20.58
230.671	20.31
231.134	20.06
231.597	19.8
232.061	19.58
232.524	19.38
232.987	19.16
233.45	18.93
233.914	18.68
234.377	18.49
234.84	18.29
235.303	18.1
235.766	17.93
236.229	17.76
236.691	17.59
237.154	17.4
237.617	17.24
238.08	17.08
238.542	16.94
239.005	16.8
239.468	16.62
239.93	16.47
240.393	16.32
240.855	16.15
241.317	16
241.78	15.86
242.242	15.71
242.704	15.55
243.166	15.4
243.629	15.27
244.091	15.15
244.553	15.04
245.015	14.91
245.477	14.78
245.939	14.68
246.4	14.56
246.862	14.47
247.324	14.38
247.786	14.28
248.247	14.19
248.709	14.07
249.17	13.97
249.632	13.86
250.093	13.74
250.555	13.65
251.016	13.58
251.477	13.47
251.939	13.4
252.4	13.31
252.861	13.23
253.322	13.16
253.783	13.11
254.244	13.03
254.705	12.97
255.166	12.92
255.627	12.85
256.088	12.76
256.549	12.69
257.009	12.61
257.47	12.55
257.931	12.47
258.391	12.41
258.852	12.33
259.312	12.26
259.773	12.19
260.233	12.12
260.694	12.06
261.154	12
261.614	11.94
262.074	11.87
262.534	11.8
262.994	11.75
263.455	11.69
263.915	11.63
264.374	11.57
264.834	11.53
265.294	11.48
265.754	11.42
266.214	11.37
266.673	11.32
267.133	11.27
267.593	11.23
268.052	11.17
268.512	11.12
268.971	11.08
269.431	11.04
269.89	10.99
270.349	10.95
270.809	10.91
271.268	10.87
271.727	10.83
272.186	10.8
272.645	10.76
273.104	10.73
273.563	10.7
274.022	10.66
274.481	10.62
274.94	10.58
275.399	10.54
275.857	10.5
276.316	10.45
276.775	10.41
277.233	10.37
277.692	10.32
278.15	10.27
278.609	10.23
279.067	10.18
279.525	10.13
279.984	10.09
280.442	10.05
280.9	10.01
281.358	9.97
281.816	9.93
282.274	9.88
282.732	9.85
283.19	9.83
283.648	9.8
284.106	9.76
284.564	9.74
285.021	9.71
285.479	9.68
285.937	9.65
286.394	9.62
286.852	9.59
287.309	9.57
287.767	9.53
288.224	9.5
288.682	9.47
289.139	9.44
289.596	9.4
290.053	9.37
290.511	9.33
290.968	9.3
291.425	9.27
291.882	9.25
292.339	9.21
292.796	9.18
293.252	9.15
293.709	9.12
294.166	9.09
294.623	9.06
295.079	9.04
295.536	9.02
295.992	9
296.449	8.98
296.905	8.94
297.362	8.92
297.818	8.9
298.274	8.88
298.731	8.86
299.187	8.83
299.643	8.81
300.099	8.79
300.555	8.77
301.011	8.75
301.467	8.72
301.923	8.71
302.379	8.69
302.835	8.67
303.291	8.66
303.746	8.64
304.202	8.61
304.658	8.59
305.113	8.58
305.569	8.56
306.024	8.54
306.479	8.53
306.935	8.51
307.39	8.51
307.845	8.49
308.301	8.47
308.756	8.47
309.211	8.46
309.666	8.46
310.121	8.44
310.576	8.43
311.031	8.42
311.486	8.42
311.94	8.42
312.395	8.41
312.85	8.4
313.305	8.4
313.759	8.38
314.214	8.37
314.668	8.35
315.123	8.35
315.577	8.34
316.032	8.33
316.486	8.3
316.94	8.28
317.394	8.27
317.849	8.25
318.303	8.24
318.757	8.23
319.211	8.21
319.665	8.2
320.119	8.18
320.572	8.18
321.026	8.16
321.48	8.16
321.934	8.15
322.387	8.14
322.841	8.12
323.295	8.11
323.748	8.09
324.202	8.07
324.655	8.04
325.108	8.02
325.562	7.98
326.015	7.97
326.468	7.95
326.921	7.93
327.374	7.91
327.827	7.89
328.28	7.87
328.733	7.85
329.186	7.86
329.639	7.85
330.092	7.84
330.545	7.84
330.997	7.83
331.45	7.82
331.903	7.81
332.355	7.8
332.808	7.79
333.26	7.79
333.713	7.79
334.165	7.77
334.617	7.78
335.069	7.79
335.522	7.79
335.974	7.78
336.426	7.77
336.878	7.76
337.33	7.74
337.782	7.74
338.234	7.73
338.686	7.72
339.137	7.72
339.589	7.69
340.041	7.67
340.493	7.64
340.944	7.63
341.396	7.63
341.847	7.62
342.299	7.6
342.75	7.56
343.201	7.55
343.653	7.53
344.104	7.51
344.555	7.49
345.006	7.47
345.457	7.46
345.908	7.44
346.359	7.42
346.81	7.41
347.261	7.4
347.712	7.4
348.163	7.39
348.613	7.37
349.064	7.35
349.515	7.34
349.965	7.33
350.416	7.32
350.866	7.31
351.317	7.3
351.767	7.29
352.217	7.28
352.668	7.28
353.118	7.28
353.568	7.28
354.018	7.28
354.468	7.27
354.918	7.27
355.368	7.27
355.818	7.26
356.268	7.25
356.718	7.24
357.168	7.23
357.617	7.21
358.067	7.2
358.517	7.18
358.966	7.18
359.416	7.18
359.865	7.18
360.315	7.17
360.764	7.17
361.213	7.16
361.663	7.16
362.112	7.15
362.561	7.16
363.01	7.16
363.459	7.16
363.908	7.15
364.357	7.14
364.806	7.14
365.255	7.14
365.703	7.13
366.152	7.13
366.601	7.13
367.05	7.12
367.498	7.1
367.947	7.09
368.395	7.1
368.844	7.1
369.292	7.09
369.74	7.09
370.189	7.08
370.637	7.1
371.085	7.1
371.533	7.1
371.981	7.1
372.429	7.09
372.877	7.1
373.325	7.08
373.773	7.08
374.221	7.08
374.669	7.08
375.116	7.07
375.564	7.07
376.012	7.07
376.459	7.08
376.907	7.09
377.354	7.1
377.801	7.1
378.249	7.11
378.696	7.12
379.143	7.12
379.591	7.12
380.038	7.13
380.485	7.13
380.932	7.13
381.379	7.12
381.826	7.12
382.273	7.13
382.72	7.14
383.166	7.15
383.613	7.16
384.06	7.16
384.506	7.17
384.953	7.18
385.4	7.19
385.846	7.2
386.292	7.22
386.739	7.23
387.185	7.24
387.631	7.24
388.078	7.26
388.524	7.25
388.97	7.26
389.416	7.26
389.862	7.26
390.308	7.27
390.754	7.28
391.2	7.29
391.645	7.31
392.091	7.32
392.537	7.33
392.983	7.35
393.428	7.38
393.874	7.4
394.319	7.41
394.765	7.42
395.21	7.42
395.655	7.43
396.101	7.43
396.546	7.43
396.991	7.43
397.436	7.43
397.881	7.44
398.326	7.46
398.771	7.46
399.216	7.49
399.661	7.51
400.106	7.55
400.551	7.56
400.995	7.57
401.44	7.57
401.885	7.59
402.329	7.59
402.774	7.59
403.218	7.58
403.663	7.58
404.107	7.59
404.551	7.6
404.995	7.59
405.44	7.59
405.884	7.59
406.328	7.6
406.772	7.62
407.216	7.64
407.66	7.65
408.104	7.65
408.547	7.66
408.991	7.66
409.435	7.64
409.879	7.66
410.322	7.67
410.766	7.67
411.209	7.67
411.653	7.67
412.096	7.68
412.54	7.67
412.983	7.67
413.426	7.67
413.869	7.68
414.312	7.7
414.756	7.71
415.199	7.72
415.642	7.75
416.085	7.78
416.527	7.78
416.97	7.79
417.413	7.8
417.856	7.8
418.298	7.79
418.741	7.79
419.184	7.78
419.626	7.76
420.069	7.74
420.511	7.73
420.953	7.72
421.396	7.71
421.838	7.72
422.28	7.73
422.722	7.74
423.164	7.76
423.606	7.77
424.048	7.76
424.49	7.79
424.932	7.79
425.374	7.78
425.816	7.78
426.258	7.78
426.699	7.74
427.141	7.73
427.582	7.71
428.024	7.72
428.465	7.7
428.907	7.72
429.348	7.72
429.789	7.72
430.231	7.72
430.672	7.71
431.113	7.72
431.554	7.74
431.995	7.74
432.436	7.73
432.877	7.72
433.318	7.71
433.759	7.7
434.2	7.67
434.64	7.69
435.081	7.7
435.522	7.72
435.962	7.73
436.403	7.74
436.843	7.75
437.284	7.78
437.724	7.8
438.164	7.85
438.604	7.87
439.045	7.88
439.485	7.87
439.925	7.87
440.365	7.86
440.805	7.87
441.245	7.84
441.685	7.85
442.125	7.87
442.564	7.86
443.004	7.85
443.444	7.85
443.883	7.87
444.323	7.9
444.762	7.95
445.202	7.98
445.641	7.99
446.081	8.05
446.52	8.06
446.959	8.05
447.398	8.08
447.837	8.1
448.276	8.11
448.716	8.11
449.154	8.13
449.593	8.13
450.032	8.14
450.471	8.13
450.91	8.13
451.349	8.13
451.787	8.15
452.226	8.15
452.664	8.13
453.103	8.14
453.541	8.15
453.98	8.13
454.418	8.12
454.856	8.08
455.295	8.08
455.733	8.07
456.171	8.07
456.609	8.06
457.047	8.04
457.485	8.02
457.923	8
458.361	7.98
458.798	7.98
459.236	7.98
459.674	8.01
460.111	8.01
460.549	8
460.987	7.99
461.424	7.98
461.862	7.98
462.299	7.99
462.736	7.99
463.173	8.01
463.611	8
464.048	8
464.485	7.97
464.922	7.97
465.359	7.99
465.796	7.96
466.233	7.97
466.67	7.99
467.106	7.99
467.543	7.99
467.98	7.98
468.416	8
468.853	7.99
469.29	8.02
469.726	8.01
470.162	8
470.599	8.02
471.035	8.04
471.471	8.02
471.907	8.03
472.344	8.04
472.78	8.03
473.216	8.04
473.652	8.05
474.088	8.06
474.523	8.06
474.959	8.05
475.395	8.04
475.831	8.02
476.266	8.02
476.702	8
477.138	7.99
477.573	7.99
478.008	7.97
478.444	7.96
478.879	7.93
479.314	7.93
479.75	7.93
480.185	7.91
480.62	7.91
481.055	7.9
481.49	7.9
481.925	7.88
482.36	7.88
482.795	7.86
483.229	7.85
483.664	7.84
484.099	7.84
484.534	7.83
484.968	7.83
485.403	7.82
485.837	7.82
486.271	7.83
486.706	7.84
487.14	7.84
487.574	7.85
488.009	7.86
488.443	7.89
488.877	7.89
489.311	7.92
489.745	7.93
490.179	7.95
490.613	7.97
491.046	7.99
491.48	8.02
491.914	8.06
492.348	8.09
492.781	8.11
493.215	8.13
493.648	8.17
494.082	8.2
494.515	8.24
494.948	8.28
495.382	8.32
495.815	8.37
496.248	8.42
496.681	8.46
497.114	8.51
497.547	8.57
497.98	8.62
498.413	8.68
498.846	8.75
499.279	8.82
499.711	8.89
500.144	8.97
500.577	9.05
501.009	9.14
501.442	9.23
501.874	9.32
502.306	9.42
502.739	9.53
503.171	9.65
503.603	9.78
504.036	9.89
504.468	10.02
504.9	10.17
505.332	10.32
505.764	10.47
506.196	10.63
506.627	10.81
507.059	10.97
507.491	11.16
507.923	11.34
508.354	11.53
508.786	11.75
509.217	11.95
509.649	12.17
510.08	12.4
510.512	12.61
510.943	12.85
511.374	13.09
511.805	13.34
512.237	13.61
512.668	13.86
513.099	14.13
513.53	14.41
513.961	14.7
514.391	14.96
514.822	15.23
515.253	15.53
515.684	15.82
516.114	16.12
516.545	16.42
516.975	16.74
517.406	17.06
517.836	17.35
518.267	17.65
518.697	17.99
519.127	18.3
519.558	18.64
519.988	18.96
520.418	19.27
520.848	19.57
521.278	19.88
521.708	20.14
522.138	20.43
522.567	20.73
522.997	21.02
523.427	21.28
523.857	21.54
524.286	21.79
524.716	22.04
525.145	22.29
525.575	22.53
526.004	22.76
526.433	23.04
526.863	23.26
527.292	23.48
527.721	23.67
528.15	23.86
528.579	24.05
529.008	24.23
529.437	24.39
529.866	24.55
530.295	24.7
530.724	24.87
531.152	25.01
531.581	25.13
532.01	25.26
532.438	25.38
532.867	25.51
533.295	25.63
533.723	25.74
534.152	25.84
534.58	25.92
535.008	25.98
535.436	26.03
535.865	26.08
536.293	26.15
536.721	26.22
537.149	26.27
537.576	26.33
538.004	26.37
538.432	26.4
538.86	26.45
539.287	26.5
539.715	26.56
540.143	26.62
540.57	26.67
540.998	26.71
541.425	26.74
541.852	26.77
542.28	26.8
542.707	26.84
543.134	26.87
543.561	26.88
543.988	26.91
544.415	26.93
544.842	26.94
545.269	26.96
545.696	26.97
546.123	26.99
546.549	27.03
546.976	27.03
547.403	27.04
547.829	27.07
548.256	27.09
548.682	27.11
549.108	27.13
549.535	27.16
549.961	27.14
550.387	27.15
550.813	27.14
551.24	27.14
551.666	27.17
552.092	27.16
552.518	27.13
552.943	27.11
553.369	27.06
553.795	27.03
554.221	26.98
554.646	26.96
555.072	26.9
555.498	26.82
555.923	26.75
556.349	26.66
556.774	26.57
557.199	26.5
557.625	26.43
558.05	26.34
558.475	26.24
558.9	26.16
559.325	26.04
559.75	25.91
560.175	25.83
560.6	25.71
561.025	25.59
561.449	25.47
561.874	25.34
562.299	25.2
562.723	25.06
563.148	24.91
563.572	24.74
563.997	24.57
564.421	24.42
564.846	24.25
565.27	24.09
565.694	23.92
566.118	23.75
566.542	23.59
566.966	23.39
567.39	23.23
567.814	23.06
568.238	22.86
568.662	22.69
569.086	22.51
569.509	22.34
569.933	22.15
570.357	21.97
570.78	21.78
571.204	21.58
571.627	21.43
572.05	21.25
572.474	21.08
572.897	20.92
573.32	20.77
573.743	20.6
574.166	20.43
574.589	20.28
575.012	20.16
575.435	20.03
575.858	19.9
576.281	19.74
576.704	19.64
577.126	19.51
577.549	19.41
577.972	19.28
578.394	19.18
578.817	19.08
579.239	18.97
579.661	18.86
580.084	18.75
580.506	18.66
580.928	18.57
581.35	18.48
581.772	18.4
582.194	18.31
582.616	18.22
583.038	18.14
583.46	18.06
583.882	17.98
584.303	17.9
584.725	17.84
585.147	17.74
585.568	17.66
585.99	17.58
586.411	17.5
586.833	17.43
587.254	17.38
587.675	17.32
588.096	17.26
588.518	17.2
588.939	17.13
589.36	17.07
589.781	17.05
590.202	17
590.623	16.94
591.043	16.9
591.464	16.85
591.885	16.79
592.305	16.76
592.726	16.71
593.147	16.68
593.567	16.65
593.987	16.61
594.408	16.56
594.828	16.54
595.248	16.52
595.669	16.48
596.089	16.43
596.509	16.4
596.929	16.35
597.349	16.32
597.769	16.28
598.189	16.24
598.608	16.21
599.028	16.16
599.448	16.11
599.867	16.06
600.287	16.02
600.706	15.97
601.126	15.92
601.545	15.88
601.965	15.82
602.384	15.76
602.803	15.69
603.222	15.64
603.641	15.58
604.061	15.5
604.48	15.44
604.898	15.38
605.317	15.32
605.736	15.25
606.155	15.17
606.574	15.11
606.992	15.03
607.411	14.95
607.829	14.82
608.248	14.75
608.666	14.68
609.085	14.59
609.503	14.51
609.921	14.44
610.339	14.37
610.758	14.31
611.176	14.22
611.594	14.15
612.012	14.08
612.43	14.05
612.847	13.98
613.265	13.92
613.683	13.85
614.101	13.77
614.518	13.68
614.936	13.6
615.353	13.52
615.771	13.46
616.188	13.41
616.606	13.34
617.023	13.27
617.44	13.21
617.857	13.13
618.274	13.08
618.691	13.02
619.108	12.97
619.525	12.93
619.942	12.89
620.359	12.85
620.776	12.81
621.192	12.79
621.609	12.75
622.026	12.72
622.442	12.71
622.859	12.69
623.275	12.69
623.691	12.68
624.108	12.66
624.524	12.64
624.94	12.62
625.356	12.61
625.772	12.6
626.188	12.6
626.604	12.59
627.02	12.57
627.436	12.55
627.852	12.54
628.268	12.51
628.683	12.48
629.099	12.47
629.514	12.44
629.93	12.42
630.345	12.38
630.761	12.34
631.176	12.31
631.591	12.28
632.007	12.23
632.422	12.17
632.837	12.13
633.252	12.07
633.667	12.01
634.082	11.94
634.497	11.86
634.911	11.79
635.326	11.71
635.741	11.62
636.155	11.55
636.57	11.47
636.984	11.37
637.399	11.27
637.813	11.18
638.228	11.07
638.642	11.01
639.056	10.91
639.47	10.81
639.884	10.7
640.298	10.6
640.712	10.49
641.126	10.39
641.54	10.29
641.954	10.21
642.368	10.12
642.781	10.02
643.195	9.9
643.609	9.8
644.022	9.71
644.436	9.64
644.849	9.57
645.262	9.5
645.676	9.43
646.089	9.37
646.502	9.29
646.915	9.23
647.328	9.18
647.741	9.13
648.154	9.09
648.567	9.05
648.98	9.02
649.393	8.97
649.805	8.9
650.218	8.87
650.631	8.84
651.043	8.81
651.456	8.78
651.868	8.76
652.28	8.74
652.693	8.7
653.105	8.66
653.517	8.63
653.929	8.61
654.341	8.6
654.753	8.54
655.165	8.5
655.577	8.46
655.989	8.4
656.401	8.36
656.813	8.3
657.224	8.26
657.636	8.22
658.047	8.15
658.459	8.07
658.87	8.02
659.282	8
659.693	7.95
660.104	7.9
660.515	7.86
660.926	7.81
661.338	7.76
661.749	7.71
662.159	7.67
662.57	7.64
662.981	7.62
663.392	7.58
663.803	7.54
664.213	7.51
664.624	7.48
665.035	7.46
665.445	7.45
665.855	7.44
666.266	7.44
666.676	7.42
667.086	7.41
667.497	7.39
667.907	7.38
668.317	7.36
668.727	7.36
669.137	7.35
669.547	7.35
669.956	7.35
670.366	7.36
670.776	7.36
671.186	7.36
671.595	7.37
672.005	7.39
672.414	7.42
672.824	7.45
673.233	7.49
673.642	7.52
674.052	7.52
674.461	7.55
674.87	7.58
675.279	7.61
675.688	7.65
676.097	7.69
676.506	7.72
676.915	7.76
677.323	7.79
677.732	7.83
678.141	7.87
678.549	7.93
678.958	7.98
679.366	8.02
679.775	8.08
680.183	8.13
680.592	8.19
681	8.24
681.408	8.3
681.816	8.35
682.224	8.4
682.632	8.49
683.04	8.57
683.448	8.66
683.856	8.76
684.264	8.87
684.671	9
685.079	9.15
685.487	9.33
685.894	9.51
686.302	9.72
686.709	9.94
687.116	10.17
687.524	10.42
687.931	10.69
688.338	11
688.745	11.33
689.152	11.69
689.559	12.06
689.966	12.45
690.373	12.89
690.78	13.35
691.187	13.85
691.593	14.35
692	14.9
692.407	15.45
692.813	16.03
693.22	16.63
693.626	17.23
694.032	17.85
694.439	18.5
694.845	19.14
695.251	19.78
695.657	20.43
696.063	21.08
696.469	21.74
696.875	22.39
697.281	23.04
697.687	23.72
698.093	24.38
698.498	25.03
698.904	25.69
699.31	26.33
699.715	26.97
700.12	27.62
700.526	28.27
700.931	28.88
701.337	29.52
701.742	30.12
702.147	30.7
702.552	31.32
702.957	31.93
703.362	32.52
703.767	33.11
704.172	33.68
704.577	34.25
704.981	34.79
705.386	35.37
705.791	35.92
706.195	36.47
706.6	37
707.004	37.52
707.408	38.04
707.813	38.53
708.217	39.02
708.621	39.53
709.025	40.01
709.43	40.47
709.834	40.94
710.237	41.41
710.641	41.89
711.045	42.33
711.449	42.76
711.853	43.2
712.256	43.63
712.66	44.05
713.064	44.45
713.467	44.88
713.87	45.31
714.274	45.71
714.677	46.1
715.08	46.46
715.484	46.86
715.887	47.26
716.29	47.61
716.693	47.98
717.096	48.39
717.499	48.75
717.901	49.08
718.304	49.42
718.707	49.75
719.109	50.11
719.512	50.46
719.915	50.75
720.317	51.04
720.719	51.37
721.122	51.65
721.524	51.92
721.926	52.22
722.328	52.53
722.731	52.8
723.133	53.06
723.535	53.32
723.937	53.6
724.338	53.84
724.74	54.1
725.142	54.21
725.544	54.42
725.945	54.59
726.347	54.8
726.748	54.98
727.15	55.14
727.551	55.37
727.952	55.54
728.354	55.67
728.755	55.86
729.156	56.02
729.557	56.32
729.958	56.53
730.359	56.69
730.76	56.8
731.161	56.95
731.562	57.12
731.962	57.23
732.363	57.35
732.763	57.5
733.164	57.63
733.564	57.75
733.965	57.82
734.365	57.9
734.766	58
735.166	58.07
735.566	58.12
735.966	58.19
736.366	58.26
736.766	58.35
737.166	58.41
737.566	58.47
737.966	58.5
738.365	58.58
738.765	58.62
739.165	58.64
739.564	58.75
739.964	58.83
740.363	58.88
740.763	58.91
741.162	58.93
741.561	58.98
741.96	59.04
742.36	59.11
742.759	59.11
743.158	59.16
743.557	59.24
743.955	59.29
744.354	59.31
744.753	59.34
745.152	59.39
745.55	59.41
745.949	59.42
746.348	59.49
746.746	59.51
747.144	59.61
747.543	59.65
747.941	59.72
748.339	59.77
748.737	59.84
749.136	59.88
749.534	59.94
749.932	60.01
750.33	60.08
750.727	60.06
751.125	60.1
751.523	60.08
751.921	60.09
752.318	60.11
752.716	60.07
753.113	60.07
753.511	60.05
753.908	60.02
754.305	59.97
754.703	59.92
755.1	59.91
755.497	59.9
755.894	59.91
756.291	59.91
756.688	59.87
757.085	59.9
757.482	59.9
757.878	59.93
758.275	59.92
758.672	59.94
759.068	59.94
759.465	59.92
759.861	59.9
760.258	59.87
760.654	59.86
761.05	59.86
761.447	59.84
761.843	59.8
762.239	59.78
762.635	59.81
763.031	59.84
763.427	59.82
763.822	59.81
764.218	59.81
764.614	59.81
765.01	59.81
765.405	59.78
765.801	59.78
766.196	59.78
766.592	59.78
766.987	59.73
767.382	59.69
767.778	59.72
768.173	59.74
768.568	59.73
768.963	59.73
769.358	59.72
769.753	59.74
770.148	59.7
770.542	59.68
770.937	59.64
771.332	59.65
771.726	59.64
772.121	59.6
772.515	59.59
772.91	59.6
773.304	59.61
773.699	59.57
774.093	59.51
774.487	59.55
774.881	59.57
775.275	59.6
775.669	59.61
776.063	59.6
776.457	59.59
776.851	59.52
777.245	59.53
777.638	59.48
778.032	59.51
778.425	59.55
778.819	59.56
779.212	59.54
779.606	59.53
779.999	59.48
780.392	59.47
780.786	59.52
781.179	59.56
781.572	59.5
781.965	59.53
782.358	59.49
782.751	59.47
783.143	59.42
783.536	59.45
783.929	59.45
784.322	59.49
784.714	59.54
785.107	59.54
785.499	59.56
785.891	59.62
786.284	59.61
786.676	59.69
787.068	59.68
787.46	59.69
787.852	59.71
788.245	59.71
788.636	59.71
789.028	59.67
789.42	59.68
789.812	59.66
790.204	59.61
790.595	59.63
790.987	59.64
791.378	59.67
791.77	59.69
792.161	59.66
792.553	59.66
792.944	59.65
793.335	59.71
793.726	59.65
794.117	59.63
794.508	59.67
794.899	59.65
795.29	59.59
795.681	59.56
796.072	59.57
796.463	59.51
796.853	59.5
797.244	59.53
797.634	59.46
798.025	59.52
798.415	59.57
798.806	59.59
799.196	59.62
799.586	59.64
799.976	59.68
800.366	59.66
800.756	59.72
801.146	59.73
801.536	59.67
801.926	59.7
802.316	59.68
802.706	59.67
803.095	59.68
803.485	59.69
803.874	59.71
804.264	59.74
804.653	59.72
805.043	59.7
805.432	59.65
805.821	59.67
806.21	59.68
806.599	59.7
806.988	59.67
807.377	59.66
807.766	59.65
808.155	59.62
808.544	59.56
808.933	59.61
809.321	59.66
809.71	59.73
810.098	59.78
810.487	59.79
810.875	59.77
811.264	59.8
811.652	59.81
812.04	59.82
812.428	59.86
812.816	59.92
813.204	59.89
813.592	59.88
813.98	59.85
814.368	59.84
814.756	59.82
815.144	59.84
815.531	59.83
815.919	59.82
816.306	59.82
816.694	59.81
817.081	59.8
817.469	59.83
817.856	59.9
818.243	59.94
818.63	59.97
819.017	60
819.404	60.01
819.791	60.02
820.178	60.04
820.565	60.06
820.952	60.09
821.339	60.13
821.725	60.18
822.112	60.15
822.498	60.15
822.885	60.17
823.271	60.19
823.657	60.2
824.044	60.22
824.43	60.26
824.816	60.25
825.202	60.23
825.588	60.23
825.974	60.22
826.36	60.21
826.746	60.23
827.132	60.21
827.517	60.22
827.903	60.24
828.289	60.23
828.674	60.22
829.06	60.25
829.445	60.28
829.83	60.29
830.216	60.31
830.601	60.35
830.986	60.35
831.371	60.4
831.756	60.37
832.141	60.36
832.526	60.36
832.911	60.41
833.295	60.42
833.68	60.43
834.065	60.46
834.449	60.42
834.834	60.39
835.218	60.39
835.603	60.34
835.987	60.35
836.371	60.37
836.755	60.38
837.139	60.34
837.524	60.32
837.908	60.28
838.291	60.23
838.675	60.25
839.059	60.24
839.443	60.22
839.827	60.21
840.21	60.25
840.594	60.23
840.977	60.21
841.361	60.22
841.744	60.24
842.127	60.25
842.511	60.27
842.894	60.24
843.277	60.27
843.66	60.29
844.043	60.3
844.426	60.26
844.809	60.25
845.191	60.26
845.574	60.23
845.957	60.18
846.339	60.18
846.722	60.18
847.104	60.18
847.487	60.19
847.869	60.17
848.252	60.15
848.634	60.17
849.016	60.17
849.398	60.16
849.78	60.17
850.162	60.18
850.544	60.18
850.926	60.18
851.307	60.2
851.689	60.14
852.071	60.15
852.452	60.14
852.834	60.11
853.215	60.1
853.597	60.12
853.978	60.14
854.359	60.14
854.741	60.16
855.122	60.17
855.503	60.18
855.884	60.21
856.265	60.23
856.646	60.24
857.026	60.27
857.407	60.26
857.788	60.25
858.169	60.24
858.549	60.25
858.93	60.25
859.31	60.19
859.69	60.16
860.071	60.16
860.451	60.15
860.831	60.17
861.211	60.17
861.591	60.16
861.971	60.15
862.351	60.18
862.731	60.17
863.111	60.16
863.491	60.19
863.87	60.19
864.25	60.2
864.629	60.2
865.009	60.16
865.388	60.15
865.768	60.19
866.147	60.22
866.526	60.2
866.905	60.21
867.284	60.23
867.663	60.26
868.042	60.28
868.421	60.27
868.8	60.29
869.179	60.3
869.558	60.29
869.936	60.26
870.315	60.26
870.693	60.27
871.072	60.24
871.45	60.2
871.828	60.19
872.207	60.18
872.585	60.15
872.963	60.12
873.341	60.12
873.719	60.11
874.097	60.11
874.475	60.08
874.853	60.08
875.23	60.07
875.608	60.09
875.986	60.07
876.363	60.07
876.741	60.09
877.118	60.09
877.495	60.08
877.873	60.09
878.25	60.06
878.627	60.05
879.004	60.03
879.381	60.03
879.758	60.04
880.135	60.05
880.512	60.06
880.889	60.06
881.265	60.09
881.642	60.08
882.019	60.11
882.395	60.14
882.772	60.15
883.148	60.15
883.524	60.16
883.901	60.13
884.277	60.11
884.653	60.1
885.029	60.07
885.405	60.01
885.781	60
886.157	60.01
886.532	59.98
886.908	59.98
887.284	60
887.659	60.02
888.035	60.06
888.411	60.06
888.786	60.06
889.161	60.09
889.537	60.14
889.912	60.15
890.287	60.14
890.662	60.16
891.037	60.15
891.412	60.11
891.787	60.11
892.162	60.06
892.536	60.06
892.911	60.04
893.286	60.01
893.66	59.97
894.035	59.95
894.409	59.92
894.784	59.91
895.158	59.91
895.532	59.9
895.906	59.86
896.281	59.88
896.655	59.86
897.029	59.86
897.402	59.86
897.776	59.83
898.15	59.84
898.524	59.84
898.898	59.8
899.271	59.84
899.645	59.81
900.018	59.82
900.392	59.81
900.765	59.8
901.138	59.81
901.511	59.8
901.884	59.82
902.258	59.8
902.631	59.8
903.003	59.8
903.376	59.75
903.749	59.76
904.122	59.71
904.495	59.67
904.867	59.65
905.24	59.61
905.612	59.62
905.985	59.62
906.357	59.61
906.729	59.6
907.102	59.6
907.474	59.62
907.846	59.6
908.218	59.62
908.59	59.59
908.962	59.6
909.334	59.61
909.705	59.56
910.077	59.51
910.449	59.48
910.82	59.45
911.192	59.42
911.563	59.36
911.935	59.32
912.306	59.28
912.677	59.32
913.048	59.27
913.419	59.23
913.79	59.22
914.161	59.19
914.532	59.16
914.903	59.17
915.274	59.16
915.645	59.2
916.015	59.19
916.386	59.2
916.756	59.15
917.127	59.17
917.497	59.14
917.868	59.14
918.238	59.15
918.608	59.16
918.978	59.12
919.348	59.05
919.718	59.03
920.088	59.03
920.458	59.05
920.828	59.03
921.198	59.03
921.567	59.04
921.937	59.04
922.306	59
922.676	59
923.045	59
923.415	59
923.784	58.97
924.153	58.96
924.522	58.9
924.891	58.9
925.26	58.88
925.629	58.83
925.998	58.78
926.367	58.78
926.736	58.73
927.104	58.68
927.473	58.69
927.842	58.63
928.21	58.63
928.578	58.58
928.947	58.56
929.315	58.52
929.683	58.54
930.051	58.54
930.42	58.5
930.788	58.51
931.156	58.46
931.523	58.44
931.891	58.38
932.259	58.3
932.627	58.26
932.994	58.21
933.362	58.17
933.729	58.07
934.097	57.97
934.464	57.83
934.831	57.75
935.199	57.68
935.566	57.51
935.933	57.52
936.3	57.4
936.667	57.31
937.034	57.15
937.401	57.04
937.767	56.99
938.134	56.92
938.501	56.93
938.867	56.91
939.234	56.91
939.6	56.99
939.967	56.96
940.333	57.04
940.699	57.18
941.065	57.33
941.431	57.4
941.798	57.49
942.163	57.7
942.529	57.83
942.895	57.94
943.261	58
943.627	58.05
943.992	58.14
944.358	58.16
944.723	58.04
945.089	58.09
945.454	58.17
945.82	58.23
946.185	58.24
946.55	58.32
946.915	58.31
947.28	58.37
947.645	58.36
948.01	58.37
948.375	58.43
948.74	58.58
949.104	58.62
949.469	58.48
949.834	58.42
950.198	58.35
950.562	58.27
950.927	58.23
951.291	58.15
951.655	58.12
952.02	58.07
952.384	58.05
952.748	57.96
953.112	57.88
953.476	57.9
953.839	57.85
954.203	57.78
954.567	57.68
954.931	57.67
955.294	57.62
955.658	57.56
956.021	57.52
956.385	57.49
956.748	57.49
957.111	57.44
957.474	57.45
957.837	57.47
958.2	57.43
958.563	57.42
958.926	57.27
959.289	57.32
959.652	57.29
960.015	57.27
960.377	57.21
960.74	57.15
961.102	57.17
961.465	57.12
961.827	56.98
962.189	56.97
962.552	56.89
962.914	56.96
963.276	56.94
963.638	56.91
964	56.89
964.362	56.89
964.724	56.86
965.085	56.82
965.447	56.72
965.809	56.67
966.17	56.7
966.532	56.74
966.893	56.71
967.255	56.62
967.616	56.61
967.977	56.6
968.338	56.49
968.699	56.41
969.061	56.31
969.421	56.35
969.782	56.39
970.143	56.27
970.504	56.19
970.865	56.06
971.225	56.02
971.586	56.08
971.946	56.06
972.307	56.09
972.667	56.16
973.027	56.23
973.388	56.16
973.748	56.15
974.108	56.18
974.468	56.23
974.828	56.32
975.188	56.38
975.548	56.28
975.907	56.2
976.267	56.24
976.627	56.19
976.986	56.13
977.346	56.15
977.705	56.2
978.064	56.19
978.424	56.15
978.783	56.16
979.142	56.13
979.501	56.02
979.86	56.06
980.219	55.92
980.578	55.91
980.937	55.92
981.296	55.93
981.654	55.89
982.013	55.92
982.371	55.87
982.73	55.83
983.088	55.79
983.447	55.89
983.805	55.83
984.163	55.89
984.521	55.8
984.879	55.77
985.237	55.77
985.595	55.67
985.953	55.65
986.311	55.81
986.669	55.75
987.026	55.71
987.384	55.67
987.741	55.69
988.099	55.69
988.456	55.72
988.814	55.72
989.171	55.67
989.528	55.7
989.885	55.64
990.242	55.59
990.599	55.57
990.956	55.61
991.313	55.66
991.67	55.68
992.027	55.56
992.383	55.59
992.74	55.54
993.096	55.51
993.453	55.57
993.809	55.7
994.165	55.58
994.522	55.55
994.878	55.39
995.234	55.29
995.59	55.08
995.946	55.14
996.302	55.01
996.658	55.05
997.013	55.13
997.369	55.08
997.725	55.03
998.08	55.01
998.436	55.05
998.791	55.14
999.147	55.19
999.502	55.28
999.857	55.39
1000.212	55.49
1000.567	55.44
1000.922	55.32
1001.277	55.2
1001.632	55.06
1001.987	55.1
1002.342	55
1002.696	55
1003.051	54.85
1003.406	54.78
1003.76	54.51
1004.114	54.47
1004.469	54.42
1004.823	54.54
1005.177	54.56
1005.531	54.51
1005.885	54.36
1006.239	54.24
1006.593	54.14
1006.947	54.01
1007.301	54.13
1007.655	54.25
1008.008	54.3
1008.362	54.13
1008.715	54.04
1009.069	54.04
1009.422	54.07
1009.776	54.08
1010.129	54.11
1010.482	54.3
1010.835	54.48
1011.188	54.45
1011.541	54.36
1011.894	54.33
1012.247	54.26
1012.6	54.19
1012.952	54.2
1013.305	54.28
1013.657	54.42
1014.01	54.59
1014.362	54.37
1014.715	54.23
1015.067	54.21
1015.419	54.19
1015.771	54.41
1016.123	54.65
1016.475	54.84
1016.827	54.94
1017.179	54.63
1017.531	54.45
1017.883	54.55
1018.234	54.47
1018.586	54.57
1018.938	54.41
1019.289	54.53
1019.64	54.35
1019.992	54.35
1020.343	54.33
1020.694	54.12
1021.045	54.29
1021.396	54.15
1021.747	53.99
1022.098	54.37
1022.449	54.32
1022.8	54.38
1023.151	54.13
1023.501	53.91
1023.852	54.2
1024.202	53.84
1024.553	53.74
1024.903	53.8
1025.253	54.06
1025.604	54.07
1025.954	53.73
1026.304	54.14
1026.654	54.14
1027.004	54.72
1027.354	54.8
1027.703	54.03
1028.053	54.03
1028.403	54.26
1028.753	54.35
1029.102	53.87
1029.452	53.44
1029.801	53.08
1030.15	52.65
1030.499	52.65
897.758	-3.97
901.051	5.99
904.343	2.78
907.636	3.01
910.928	7.24
914.22	4.55
917.511	3.2
920.803	7.15
924.094	10.23
927.384	6.1
930.675	11
933.965	11.74
937.255	5.52
940.544	6.96
943.834	9.96
947.123	8.78
950.411	12.11
953.7	13.5
956.988	16.21
960.276	16.01
963.563	19.32
966.851	19.83
970.138	20.68
973.424	24.56
976.711	24.17
979.997	23.53
983.283	21.12
986.568	20.96
989.853	24.13
993.138	24.04
996.423	24.36
999.708	24.1
1002.992	23.35
1006.275	25.64
1009.559	25.64
1012.842	26.75
1016.125	26.62
1019.408	27.95
1022.69	28.33
1025.972	28.04
1029.254	27.2
1032.536	27.82
1035.817	27.19
1039.098	28.74
1042.379	27.82
1045.659	27.77
1048.939	28.24
1052.219	29.4
1055.498	30.43
1058.778	30.39
1062.057	30.02
1065.335	30.9
1068.614	30.73
1071.892	31.72
1075.17	30.23
1078.447	31.38
1081.724	31.42
1085.001	30.27
1088.278	29.91
1091.554	29.2
1094.83	30.62
1098.106	30.02
1101.382	30.12
1104.657	30.58
1107.932	29.69
1111.206	31.21
1114.481	30.7
1117.755	29.8
1121.029	31.02
1124.302	31.91
1127.575	32.08
1130.848	30.98
1134.121	30.62
1137.393	30.81
1140.665	29.85
1143.937	30.16
1147.208	29.2
1150.48	29.35
1153.75	29.28
1157.021	29.23
1160.291	29.14
1163.561	27.95
1166.831	29.7
1170.101	30.1
1173.37	30.07
1176.639	30.09
1179.907	30.14
1183.176	30.42
1186.444	29.73
1189.711	30.11
1192.979	29.05
1196.246	29.35
1199.513	30.29
1202.78	28.34
1206.046	28.36
1209.312	28.98
1212.578	29.02
1215.843	29.4
1219.108	28.67
1222.373	29.23
1225.638	29.27
1228.902	29.74
1232.166	28.4
1235.43	27.67
1238.693	28.35
1241.956	27.73
1245.219	26.69
1248.482	27.52
1251.744	26.48
1255.006	28.84
1258.268	27.73
1261.529	27.94
1264.79	29.99
1268.051	29.59
1271.312	31.01
1274.572	30.93
1277.832	32.13
1281.092	32.65
1284.351	32.5
1287.61	32.42
1290.869	31.18
1294.128	31.97
1297.386	32.47
1300.644	30.77
1303.902	30.4
1307.159	30.13
1310.416	29.62
1313.673	29.15
1316.93	28.26
1320.186	28.24
1323.442	27.84
1326.697	27.38
1329.953	25.69
1333.208	24.08
1336.463	23.06
1339.717	23.87
1342.972	22.74
1346.226	22.36
1349.479	21.76
1352.733	21.34
1355.986	18.89
1359.238	18.96
1362.491	18.19
1365.743	18.06
1368.995	19.41
1372.247	18.73
1375.498	17.63
1378.749	14.5
1382	15.46
1385.251	11.95
1388.501	13.12
1391.751	13.4
1395	12.59
1398.25	12.44
1401.499	12.6
1404.748	9.47
1407.996	10.02
1411.244	10.29
1414.492	10.93
1417.74	8.59
1420.987	10
1424.234	7.63
1427.481	7.21
1430.728	7.52
1433.974	7.49
1437.22	6.67
1440.465	7.08
1443.711	7.16
1446.956	6.92
1450.201	8.07
1453.445	8.11
1456.689	9.33
1459.933	9.23
1463.177	9.02
1466.42	9.64
1469.663	9.12
1472.906	9.66
1476.148	10.16
1479.391	10.3
1482.633	10.64
1485.874	10.95
1489.115	11.64
1492.356	11.64
1495.597	12.07
1498.838	12.77
1502.078	12.76
1505.318	13.13
1508.557	13.31
1511.797	13.7
1515.036	14.62
1518.274	15.17
1521.513	15.03
1524.751	15.38
1527.989	16.11
1531.227	16.28
1534.464	17.32
1537.701	17.25
1540.938	17.39
1544.174	17.94
1547.41	18.22
1550.646	18.76
1553.882	18.78
1557.117	19.25
1560.352	19.7
1563.587	19.36
1566.821	19.66
1570.055	20.18
1573.289	20.7
1576.523	21
1579.756	20.76
1582.989	20.97
1586.222	20.39
1589.454	20.79
1592.686	21.16
1595.918	21.04
1599.15	21.64
1602.381	21.73
1605.612	21.9
1608.843	21.63
1612.073	21.79
1615.303	23.14
1618.533	22.57
1621.762	23.18
1624.992	23.03
1628.221	22.87
1631.449	23.27
1634.678	23.43
1637.906	24.01
1641.134	23.42
1644.361	23.71
1647.588	23.96
1650.815	23.41
1654.042	24.52
1657.269	23.8
1660.495	24.23
1663.72	24.44
1666.946	23.93
1670.171	23.66
1673.396	23.33
1676.621	23.52
1679.845	24.4
1683.069	23.53
1686.293	23.05
1689.517	23.08
1692.74	23.34
1695.963	23.22
1699.185	22.64
1702.408	23.23
1705.63	23.22
1708.852	23.2
1712.073	22.48
1715.294	21.36
1718.515	22.26
1721.736	22.51
1724.956	21.74
1728.176	21.75
1731.396	21.22
1734.616	21.84
1737.835	20.9
1741.054	20.89
1744.272	21.33
1747.491	21.59
1750.709	21.63
1753.927	21.39
1757.144	21.35
1760.361	21.27
1763.578	20.95
1766.795	21.29
1770.011	20.75
1773.227	20.79
1776.443	20.51
1779.658	19.36
1782.874	19.75
1786.089	19
1789.303	19.07
1792.518	18.79
1795.732	18.65
1798.945	18.94
1802.159	18.68
1805.372	18.51
1808.585	18.7
1811.797	18.43
1815.01	18.9
1818.222	18.58
1821.434	19.23
1824.645	18.15
1827.856	17.64
1831.067	17.26
1834.278	18.04
1837.488	17.85
1840.698	17.51
1843.908	16.72
1847.117	17.26
1850.326	16.12
1853.535	16.54
1856.744	15.77
1859.952	15.48
1863.16	15.28
1866.368	15.54
1869.575	14.04
1872.782	12.51
1875.989	10.93
1879.196	10.95
1882.402	8.11
1885.608	8.72
1888.814	6.46
1892.019	4.84
1895.224	4.17
1898.429	3.1
1901.634	2.28
1904.838	0.65
1908.042	0.63
1911.246	1
1914.449	0.41
1917.652	1.27
1920.855	0.16
1924.058	-0.32
1927.26	-0.87
1930.462	-0.1
1933.664	1.15
1936.865	0.33
1940.066	0.37
1943.267	0.22
1946.467	1.06
1949.668	0.72
1952.868	0.42
1956.067	0.39
1959.267	1.89
1962.466	2.1
1965.665	1.66
1968.863	1.33
1972.061	1.01
1975.259	1.78
1978.457	1.78
1981.654	1.21
1984.852	1.13
1988.048	1.88
1991.245	1.98
1994.441	1.47
1997.637	2.13
2000.833	3.41
2004.028	2.71
2007.223	2.87
2010.418	3.32
2013.613	4.35
2016.807	4.61
2020.001	3.47
2023.194	5.06
2026.388	4.99
2029.581	4.31
2032.774	3.57
2035.966	2.27
2039.158	3.4
2042.35	2.36
2045.542	3.47
2048.733	2.65
2051.924	0.02
2055.115	1.5
2058.306	-0.41
2061.496	-1.96
2064.686	-2.01
2067.875	-1.55
2071.065	0.63
2074.254	-0.69
2077.442	-0.51
2080.631	-3.3
2083.819	-3.5
2087.007	0.96
2090.195	-0.44
2093.382	-1.81
2096.569	-1
2099.756	0.22
2102.942	0.05
2106.128	-2.49
2109.314	-0.34
2112.5	0.38
2115.685	-0.13
2118.87	0.03
2122.055	-1.36
2125.239	-1.81
2128.424	-0.64
2131.608	-0.43
2134.791	-0.66
2137.974	0.17
2141.157	0.79
2144.34	-0.54
2147.523	2.37
2150.705	3.33
2153.887	2.71
2157.068	2.84
2160.25	0.94
2163.431	4.67
2166.611	3.98
2169.792	1.91
2172.972	3.82
2176.152	4.83
2179.331	2.94
2182.511	-0.48
2185.69	0.27
2188.868	-1.99
2192.047	-2.86
2195.225	2.19
2198.403	-8.4
2201.58	-4.45
2204.758	-1.05
2207.935	-4.64
2211.111	-9.64
2214.288	-7.65
2217.464	-5.84
2220.64	-3.78
2223.815	-4.11
2226.991	-3.23
2230.166	-4.19
2233.34	1.17
2236.515	-3.93
2239.689	-6.77
2242.863	-4.54
2246.036	-3.68
2249.209	-4.28
2252.382	-4.2
2255.555	-7.04
2258.727	-4.96
2261.9	-12.44
2265.071	-11.34
2268.243	-7.13
2271.414	-11.05
2274.585	-11.06
2277.756	-11.76
2280.926	-15.32
2284.096	-15.13
2287.266	-15.81
2290.436	-15.06
2293.605	-13.93
2296.774	-7.29
2299.942	-15.53
2303.111	-16.78
2306.279	-11.57
2309.447	-10.71
2312.614	-13.38
2315.781	-13.31
2318.948	-10.96
2322.115	-11.7
2325.281	-18.8
2328.447	-21.41
2331.613	-21.4
2334.779	-16.69
2337.944	-25.24
2341.109	-26.47
2344.274	-23.68
2347.438	-27.58
2350.602	-18.75
2353.766	-30.98
2356.929	-32.49
2360.092	-25.87
2363.255	-24.25
2366.418	-25.5
2369.58	-29.06
2372.742	-16.58
2375.904	-17.07
2379.066	-21.23
2382.227	-19.5
2385.388	-30.11
2388.548	-21.77
2391.709	-17.02
2394.869	-22.84
2398.029	-18.79
2401.188	-19.38
2404.347	-19.75
2407.506	-31.64
2410.665	-26.7
2413.823	-23.27
2416.981	-20.59
2420.139	-14.97
2423.296	-15.32
2426.453	-27.13
2429.61	-18.3
2432.767	-25.44
2435.923	-23.83
2439.079	-15.32
2442.235	-20.63
2445.391	-17.51
2448.546	-18.17
2451.701	-30.73
2454.855	-34.97
2458.009	-28.53
2461.163	-26.05
2464.317	-33.83
2467.471	-30.99
2470.624	-36.41
2473.777	-34.06
2476.929	-22.01
2480.082	-41.59
2483.234	-47.48
2486.385	-43.27
2489.537	-44.42
2492.688	-48.95
2495.839	-37.83
2498.989	-38.82
2502.14	-39.98
2505.29	-30.18
2508.439	-52.35
2511.589	-57.57
2514.738	-46.76
2517.887	-47.18
2521.035	-39.13
2524.183	-41.96
2527.331	-42.04
2530.479	-49.02
2533.627	-48.94
