Data from c_1_dec_ct_2n_035_Splice17_07.txt Node
Date: Sat Feb 29 13:25:23 EST 2020
User: sa697716
Spectrometer: FLMS03696
Trigger mode: 0
Integration Time (sec): 3.180400E-1
Scans to average: 20
Electric dark correction enabled: true
Nonlinearity correction enabled: true
Boxcar width: 5
XAxis mode: Wavelengths
Number of Pixels in Spectrum: 2048
>>>>>Begin Spectral Data<<<<<
187.83	97.95
188.298	91.5
188.766	77.35
189.233	74.4
189.701	87.61
190.169	87.01
190.636	87.35
191.104	88.63
191.571	226.27
192.039	84.26
192.506	239.45
192.974	5374.57
193.441	3.24
193.908	36.06
194.375	30.07
194.842	46.16
195.31	35.22
195.777	-35.52
196.244	41.76
196.711	64.09
197.177	67.11
197.644	70.05
198.111	70.27
198.578	72.06
199.045	72.77
199.511	73.1
199.978	74.47
200.445	74.63
200.911	75.22
201.378	75.45
201.844	76.33
202.31	76.73
202.777	76.73
203.243	77.55
203.709	77.35
204.176	76.7
204.642	76.32
205.108	75.27
205.574	74.87
206.04	74.28
206.506	73.03
206.972	71.99
207.438	71.01
207.903	70.06
208.369	68.04
208.835	66.87
209.301	66.15
209.766	64.58
210.232	63.58
210.697	62.45
211.163	61.28
211.628	60.04
212.094	59.27
212.559	58.09
213.024	56.79
213.49	55.6
213.955	54.19
214.42	52.63
214.885	51.08
215.35	49.05
215.815	46.43
216.28	43.44
216.745	40.65
217.21	37.09
217.675	34.08
218.14	31.29
218.604	28.78
219.069	26.64
219.534	24.81
219.998	23.29
220.463	22.02
220.927	20.95
221.392	20.05
221.856	19.17
222.32	18.52
222.785	17.86
223.249	17.33
223.713	16.85
224.177	16.37
224.642	15.99
225.106	15.59
225.57	15.22
226.034	14.88
226.497	14.58
226.961	14.27
227.425	13.94
227.889	13.69
228.353	13.42
228.816	13.2
229.28	12.94
229.744	12.71
230.207	12.5
230.671	12.27
231.134	12.04
231.597	11.83
232.061	11.66
232.524	11.53
232.987	11.36
233.45	11.19
233.914	11.02
234.377	10.89
234.84	10.75
235.303	10.62
235.766	10.5
236.229	10.4
236.691	10.3
237.154	10.2
237.617	10.08
238.08	9.98
238.542	9.88
239.005	9.79
239.468	9.69
239.93	9.6
240.393	9.5
240.855	9.4
241.317	9.31
241.78	9.21
242.242	9.11
242.704	9.02
243.166	8.91
243.629	8.83
244.091	8.75
244.553	8.66
245.015	8.59
245.477	8.51
245.939	8.43
246.4	8.34
246.862	8.26
247.324	8.19
247.786	8.11
248.247	8.05
248.709	7.98
249.17	7.91
249.632	7.84
250.093	7.76
250.555	7.68
251.016	7.62
251.477	7.55
251.939	7.5
252.4	7.44
252.861	7.38
253.322	7.32
253.783	7.28
254.244	7.23
254.705	7.17
255.166	7.13
255.627	7.08
256.088	7.02
256.549	6.99
257.009	6.93
257.47	6.89
257.931	6.83
258.391	6.77
258.852	6.71
259.312	6.65
259.773	6.61
260.233	6.55
260.694	6.5
261.154	6.45
261.614	6.4
262.074	6.35
262.534	6.29
262.994	6.25
263.455	6.22
263.915	6.17
264.374	6.13
264.834	6.1
265.294	6.05
265.754	6.01
266.214	5.98
266.673	5.95
267.133	5.91
267.593	5.88
268.052	5.84
268.512	5.81
268.971	5.79
269.431	5.76
269.89	5.73
270.349	5.7
270.809	5.68
271.268	5.65
271.727	5.64
272.186	5.62
272.645	5.59
273.104	5.58
273.563	5.56
274.022	5.54
274.481	5.52
274.94	5.5
275.399	5.48
275.857	5.47
276.316	5.44
276.775	5.41
277.233	5.4
277.692	5.39
278.15	5.36
278.609	5.35
279.067	5.33
279.525	5.31
279.984	5.3
280.442	5.29
280.9	5.27
281.358	5.26
281.816	5.25
282.274	5.23
282.732	5.21
283.19	5.21
283.648	5.2
284.106	5.18
284.564	5.18
285.021	5.17
285.479	5.16
285.937	5.15
286.394	5.12
286.852	5.11
287.309	5.1
287.767	5.09
288.224	5.07
288.682	5.05
289.139	5.04
289.596	5.01
290.053	4.97
290.511	4.93
290.968	4.91
291.425	4.89
291.882	4.86
292.339	4.84
292.796	4.81
293.252	4.78
293.709	4.76
294.166	4.74
294.623	4.72
295.079	4.71
295.536	4.69
295.992	4.67
296.449	4.66
296.905	4.64
297.362	4.62
297.818	4.61
298.274	4.6
298.731	4.58
299.187	4.57
299.643	4.55
300.099	4.54
300.555	4.53
301.011	4.53
301.467	4.51
301.923	4.5
302.379	4.5
302.835	4.49
303.291	4.48
303.746	4.47
304.202	4.46
304.658	4.46
305.113	4.44
305.569	4.44
306.024	4.43
306.479	4.42
306.935	4.42
307.39	4.41
307.845	4.41
308.301	4.41
308.756	4.41
309.211	4.41
309.666	4.41
310.121	4.42
310.576	4.42
311.031	4.42
311.486	4.42
311.94	4.41
312.395	4.42
312.85	4.41
313.305	4.4
313.759	4.4
314.214	4.39
314.668	4.38
315.123	4.38
315.577	4.37
316.032	4.36
316.486	4.34
316.94	4.33
317.394	4.32
317.849	4.31
318.303	4.3
318.757	4.28
319.211	4.26
319.665	4.24
320.119	4.23
320.572	4.22
321.026	4.21
321.48	4.2
321.934	4.2
322.387	4.18
322.841	4.17
323.295	4.16
323.748	4.15
324.202	4.15
324.655	4.14
325.108	4.12
325.562	4.11
326.015	4.1
326.468	4.09
326.921	4.08
327.374	4.07
327.827	4.06
328.28	4.06
328.733	4.06
329.186	4.06
329.639	4.05
330.092	4.05
330.545	4.05
330.997	4.05
331.45	4.06
331.903	4.05
332.355	4.06
332.808	4.06
333.26	4.06
333.713	4.06
334.165	4.06
334.617	4.07
335.069	4.07
335.522	4.07
335.974	4.07
336.426	4.08
336.878	4.08
337.33	4.08
337.782	4.09
338.234	4.09
338.686	4.09
339.137	4.08
339.589	4.07
340.041	4.06
340.493	4.04
340.944	4.03
341.396	4.02
341.847	4
342.299	3.98
342.75	3.95
343.201	3.94
343.653	3.92
344.104	3.91
344.555	3.89
345.006	3.87
345.457	3.87
345.908	3.85
346.359	3.84
346.81	3.84
347.261	3.83
347.712	3.83
348.163	3.82
348.613	3.81
349.064	3.79
349.515	3.78
349.965	3.77
350.416	3.77
350.866	3.78
351.317	3.77
351.767	3.77
352.217	3.76
352.668	3.76
353.118	3.77
353.568	3.77
354.018	3.79
354.468	3.78
354.918	3.79
355.368	3.79
355.818	3.78
356.268	3.79
356.718	3.79
357.168	3.79
357.617	3.79
358.067	3.78
358.517	3.78
358.966	3.77
359.416	3.78
359.865	3.77
360.315	3.77
360.764	3.77
361.213	3.76
361.663	3.75
362.112	3.76
362.561	3.76
363.01	3.76
363.459	3.75
363.908	3.75
364.357	3.74
364.806	3.74
365.255	3.73
365.703	3.72
366.152	3.72
366.601	3.72
367.05	3.71
367.498	3.71
367.947	3.72
368.395	3.72
368.844	3.73
369.292	3.72
369.74	3.73
370.189	3.73
370.637	3.72
371.085	3.71
371.533	3.7
371.981	3.7
372.429	3.68
372.877	3.67
373.325	3.67
373.773	3.65
374.221	3.65
374.669	3.64
375.116	3.63
375.564	3.63
376.012	3.63
376.459	3.64
376.907	3.64
377.354	3.65
377.801	3.65
378.249	3.65
378.696	3.66
379.143	3.65
379.591	3.66
380.038	3.66
380.485	3.67
380.932	3.67
381.379	3.65
381.826	3.65
382.273	3.64
382.72	3.64
383.166	3.64
383.613	3.63
384.06	3.63
384.506	3.63
384.953	3.62
385.4	3.61
385.846	3.6
386.292	3.61
386.739	3.61
387.185	3.62
387.631	3.62
388.078	3.62
388.524	3.61
388.97	3.6
389.416	3.6
389.862	3.59
390.308	3.6
390.754	3.61
391.2	3.61
391.645	3.62
392.091	3.62
392.537	3.62
392.983	3.63
393.428	3.64
393.874	3.65
394.319	3.65
394.765	3.65
395.21	3.65
395.655	3.65
396.101	3.66
396.546	3.67
396.991	3.68
397.436	3.68
397.881	3.69
398.326	3.72
398.771	3.73
399.216	3.75
399.661	3.77
400.106	3.8
400.551	3.8
400.995	3.8
401.44	3.79
401.885	3.81
402.329	3.81
402.774	3.81
403.218	3.81
403.663	3.81
404.107	3.82
404.551	3.84
404.995	3.85
405.44	3.86
405.884	3.88
406.328	3.89
406.772	3.9
407.216	3.93
407.66	3.96
408.104	3.98
408.547	3.99
408.991	4
409.435	4
409.879	4.01
410.322	4.04
410.766	4.05
411.209	4.07
411.653	4.08
412.096	4.08
412.54	4.09
412.983	4.11
413.426	4.15
413.869	4.17
414.312	4.21
414.756	4.23
415.199	4.24
415.642	4.28
416.085	4.31
416.527	4.34
416.97	4.35
417.413	4.36
417.856	4.34
418.298	4.33
418.741	4.33
419.184	4.33
419.626	4.33
420.069	4.33
420.511	4.31
420.953	4.31
421.396	4.32
421.838	4.35
422.28	4.37
422.722	4.41
423.164	4.41
423.606	4.43
424.048	4.42
424.49	4.43
424.932	4.43
425.374	4.43
425.816	4.42
426.258	4.4
426.699	4.38
427.141	4.37
427.582	4.36
428.024	4.38
428.465	4.38
428.907	4.4
429.348	4.4
429.789	4.42
430.231	4.45
430.672	4.47
431.113	4.5
431.554	4.53
431.995	4.55
432.436	4.56
432.877	4.54
433.318	4.56
433.759	4.57
434.2	4.58
434.64	4.59
435.081	4.59
435.522	4.62
435.962	4.64
436.403	4.66
436.843	4.67
437.284	4.68
437.724	4.73
438.164	4.75
438.604	4.76
439.045	4.78
439.485	4.8
439.925	4.8
440.365	4.8
440.805	4.78
441.245	4.78
441.685	4.8
442.125	4.81
442.564	4.83
443.004	4.85
443.444	4.86
443.883	4.88
444.323	4.87
444.762	4.89
445.202	4.94
445.641	4.97
446.081	4.99
446.52	4.98
446.959	5.01
447.398	5.02
447.837	5.05
448.276	5.06
448.716	5.05
449.154	5.09
449.593	5.11
450.032	5.1
450.471	5.09
450.91	5.08
451.349	5.08
451.787	5.06
452.226	5.03
452.664	4.99
453.103	4.96
453.541	4.97
453.98	4.95
454.418	4.91
454.856	4.86
455.295	4.83
455.733	4.82
456.171	4.81
456.609	4.8
457.047	4.78
457.485	4.78
457.923	4.78
458.361	4.75
458.798	4.75
459.236	4.75
459.674	4.76
460.111	4.77
460.549	4.76
460.987	4.78
461.424	4.77
461.862	4.77
462.299	4.78
462.736	4.78
463.173	4.8
463.611	4.79
464.048	4.8
464.485	4.79
464.922	4.79
465.359	4.81
465.796	4.8
466.233	4.81
466.67	4.82
467.106	4.81
467.543	4.82
467.98	4.82
468.416	4.84
468.853	4.84
469.29	4.84
469.726	4.85
470.162	4.83
470.599	4.83
471.035	4.83
471.471	4.81
471.907	4.81
472.344	4.8
472.78	4.8
473.216	4.77
473.652	4.76
474.088	4.76
474.523	4.75
474.959	4.74
475.395	4.72
475.831	4.71
476.266	4.69
476.702	4.68
477.138	4.65
477.573	4.61
478.008	4.62
478.444	4.61
478.879	4.6
479.314	4.58
479.75	4.58
480.185	4.57
480.62	4.56
481.055	4.55
481.49	4.53
481.925	4.52
482.36	4.51
482.795	4.49
483.229	4.48
483.664	4.46
484.099	4.45
484.534	4.43
484.968	4.42
485.403	4.4
485.837	4.38
486.271	4.38
486.706	4.36
487.14	4.37
487.574	4.37
488.009	4.38
488.443	4.38
488.877	4.39
489.311	4.38
489.745	4.39
490.179	4.4
490.613	4.42
491.046	4.43
491.48	4.45
491.914	4.45
492.348	4.46
492.781	4.47
493.215	4.49
493.648	4.51
494.082	4.55
494.515	4.57
494.948	4.59
495.382	4.61
495.815	4.65
496.248	4.68
496.681	4.72
497.114	4.76
497.547	4.79
497.98	4.82
498.413	4.85
498.846	4.88
499.279	4.94
499.711	5
500.144	5.06
500.577	5.1
501.009	5.16
501.442	5.23
501.874	5.29
502.306	5.38
502.739	5.44
503.171	5.53
503.603	5.63
504.036	5.72
504.468	5.82
504.9	5.93
505.332	6.05
505.764	6.18
506.196	6.31
506.627	6.44
507.059	6.57
507.491	6.72
507.923	6.88
508.354	7.03
508.786	7.19
509.217	7.34
509.649	7.52
510.08	7.7
510.512	7.87
510.943	8.07
511.374	8.27
511.805	8.47
512.237	8.69
512.668	8.91
513.099	9.14
513.53	9.37
513.961	9.63
514.391	9.87
514.822	10.12
515.253	10.39
515.684	10.65
516.114	10.93
516.545	11.22
516.975	11.5
517.406	11.8
517.836	12.1
518.267	12.42
518.697	12.72
519.127	13.03
519.558	13.34
519.988	13.64
520.418	13.94
520.848	14.25
521.278	14.57
521.708	14.92
522.138	15.22
522.567	15.51
522.997	15.8
523.427	16.09
523.857	16.37
524.286	16.64
524.716	16.93
525.145	17.21
525.575	17.47
526.004	17.72
526.433	17.91
526.863	18.16
527.292	18.39
527.721	18.61
528.15	18.82
528.579	19.06
529.008	19.26
529.437	19.46
529.866	19.64
530.295	19.83
530.724	20.02
531.152	20.19
531.581	20.34
532.01	20.48
532.438	20.63
532.867	20.77
533.295	20.88
533.723	21.02
534.152	21.14
534.58	21.25
535.008	21.33
535.436	21.4
535.865	21.48
536.293	21.58
536.721	21.69
537.149	21.77
537.576	21.84
538.004	21.91
538.432	21.97
538.86	22.02
539.287	22.09
539.715	22.17
540.143	22.2
540.57	22.26
540.998	22.32
541.425	22.37
541.852	22.42
542.28	22.46
542.707	22.53
543.134	22.57
543.561	22.59
543.988	22.64
544.415	22.68
544.842	22.76
545.269	22.81
545.696	22.84
546.123	22.87
546.549	22.91
546.976	22.97
547.403	22.96
547.829	22.99
548.256	23.06
548.682	23.09
549.108	23.12
549.535	23.12
549.961	23.1
550.387	23.09
550.813	23.09
551.24	23.09
551.666	23.08
552.092	23.09
552.518	23.07
552.943	23.03
553.369	23
553.795	22.96
554.221	22.92
554.646	22.88
555.072	22.86
555.498	22.8
555.923	22.75
556.349	22.68
556.774	22.6
557.199	22.54
557.625	22.45
558.05	22.36
558.475	22.26
558.9	22.16
559.325	22.07
559.75	21.94
560.175	21.83
560.6	21.71
561.025	21.58
561.449	21.45
561.874	21.31
562.299	21.18
562.723	21.04
563.148	20.88
563.572	20.74
563.997	20.59
564.421	20.42
564.846	20.25
565.27	20.06
565.694	19.88
566.118	19.71
566.542	19.51
566.966	19.32
567.39	19.12
567.814	18.95
568.238	18.75
568.662	18.55
569.086	18.4
569.509	18.21
569.933	18.02
570.357	17.84
570.78	17.66
571.204	17.49
571.627	17.33
572.05	17.18
572.474	17.01
572.897	16.87
573.32	16.72
573.743	16.55
574.166	16.41
574.589	16.27
575.012	16.16
575.435	16.04
575.858	15.92
576.281	15.78
576.704	15.66
577.126	15.52
577.549	15.39
577.972	15.27
578.394	15.15
578.817	15.04
579.239	14.94
579.661	14.84
580.084	14.74
580.506	14.63
580.928	14.55
581.35	14.45
581.772	14.38
582.194	14.3
582.616	14.21
583.038	14.12
583.46	14.06
583.882	13.97
584.303	13.87
584.725	13.77
585.147	13.69
585.568	13.59
585.99	13.52
586.411	13.44
586.833	13.39
587.254	13.35
587.675	13.28
588.096	13.2
588.518	13.14
588.939	13.1
589.36	13.05
589.781	13
590.202	12.98
590.623	12.92
591.043	12.88
591.464	12.82
591.885	12.76
592.305	12.74
592.726	12.7
593.147	12.66
593.567	12.62
593.987	12.59
594.408	12.55
594.828	12.51
595.248	12.48
595.669	12.44
596.089	12.4
596.509	12.36
596.929	12.31
597.349	12.27
597.769	12.24
598.189	12.2
598.608	12.15
599.028	12.11
599.448	12.07
599.867	12.02
600.287	11.96
600.706	11.93
601.126	11.88
601.545	11.84
601.965	11.78
602.384	11.71
602.803	11.65
603.222	11.59
603.641	11.52
604.061	11.46
604.48	11.4
604.898	11.35
605.317	11.28
605.736	11.21
606.155	11.14
606.574	11.07
606.992	11.01
607.411	10.95
607.829	10.83
608.248	10.76
608.666	10.68
609.085	10.6
609.503	10.53
609.921	10.44
610.339	10.36
610.758	10.29
611.176	10.2
611.594	10.12
612.012	10.04
612.43	10.01
612.847	9.96
613.265	9.87
613.683	9.8
614.101	9.73
614.518	9.67
614.936	9.61
615.353	9.54
615.771	9.48
616.188	9.43
616.606	9.37
617.023	9.31
617.44	9.24
617.857	9.2
618.274	9.15
618.691	9.1
619.108	9.05
619.525	9
619.942	8.96
620.359	8.94
620.776	8.9
621.192	8.87
621.609	8.84
622.026	8.82
622.442	8.79
622.859	8.77
623.275	8.75
623.691	8.74
624.108	8.74
624.524	8.74
624.94	8.72
625.356	8.7
625.772	8.68
626.188	8.68
626.604	8.66
627.02	8.66
627.436	8.65
627.852	8.63
628.268	8.62
628.683	8.59
629.099	8.58
629.514	8.56
629.93	8.55
630.345	8.52
630.761	8.49
631.176	8.47
631.591	8.44
632.007	8.4
632.422	8.38
632.837	8.34
633.252	8.32
633.667	8.26
634.082	8.21
634.497	8.15
634.911	8.11
635.326	8.04
635.741	7.96
636.155	7.89
636.57	7.82
636.984	7.73
637.399	7.65
637.813	7.55
638.228	7.47
638.642	7.39
639.056	7.31
639.47	7.2
639.884	7.1
640.298	7.03
640.712	6.94
641.126	6.84
641.54	6.75
641.954	6.68
642.368	6.59
642.781	6.51
643.195	6.41
643.609	6.32
644.022	6.24
644.436	6.18
644.849	6.11
645.262	6.05
645.676	5.99
646.089	5.92
646.502	5.85
646.915	5.79
647.328	5.74
647.741	5.7
648.154	5.68
648.567	5.65
648.98	5.61
649.393	5.58
649.805	5.54
650.218	5.52
650.631	5.48
651.043	5.46
651.456	5.44
651.868	5.41
652.28	5.39
652.693	5.36
653.105	5.32
653.517	5.3
653.929	5.28
654.341	5.25
654.753	5.21
655.165	5.17
655.577	5.12
655.989	5.07
656.401	5.03
656.813	4.98
657.224	4.93
657.636	4.9
658.047	4.84
658.459	4.8
658.87	4.75
659.282	4.72
659.693	4.68
660.104	4.65
660.515	4.61
660.926	4.58
661.338	4.54
661.749	4.49
662.159	4.45
662.57	4.42
662.981	4.38
663.392	4.36
663.803	4.33
664.213	4.3
664.624	4.28
665.035	4.25
665.445	4.24
665.855	4.25
666.266	4.24
666.676	4.23
667.086	4.23
667.497	4.21
667.907	4.19
668.317	4.18
668.727	4.18
669.137	4.18
669.547	4.2
669.956	4.2
670.366	4.2
670.776	4.21
671.186	4.22
671.595	4.22
672.005	4.25
672.414	4.27
672.824	4.3
673.233	4.31
673.642	4.32
674.052	4.32
674.461	4.32
674.87	4.34
675.279	4.36
675.688	4.37
676.097	4.39
676.506	4.41
676.915	4.44
677.323	4.47
677.732	4.5
678.141	4.53
678.549	4.59
678.958	4.63
679.366	4.66
679.775	4.7
680.183	4.75
680.592	4.81
681	4.86
681.408	4.91
681.816	4.94
682.224	5
682.632	5.08
683.04	5.12
683.448	5.21
683.856	5.29
684.264	5.39
684.671	5.5
685.079	5.6
685.487	5.74
685.894	5.88
686.302	6.05
686.709	6.22
687.116	6.41
687.524	6.64
687.931	6.87
688.338	7.14
688.745	7.42
689.152	7.73
689.559	8.06
689.966	8.42
690.373	8.83
690.78	9.25
691.187	9.7
691.593	10.16
692	10.65
692.407	11.19
692.813	11.73
693.22	12.29
693.626	12.87
694.032	13.48
694.439	14.1
694.845	14.73
695.251	15.36
695.657	16.01
696.063	16.69
696.469	17.35
696.875	18.01
697.281	18.68
697.687	19.37
698.093	20.06
698.498	20.73
698.904	21.43
699.31	22.11
699.715	22.81
700.12	23.48
700.526	24.15
700.931	24.83
701.337	25.5
701.742	26.17
702.147	26.81
702.552	27.47
702.957	28.13
703.362	28.76
703.767	29.35
704.172	29.98
704.577	30.6
704.981	31.23
705.386	31.84
705.791	32.44
706.195	33.02
706.6	33.61
707.004	34.17
707.408	34.73
707.813	35.28
708.217	35.86
708.621	36.4
709.025	36.95
709.43	37.46
709.834	38.01
710.237	38.54
710.641	39.09
711.045	39.59
711.449	40.11
711.853	40.63
712.256	41.15
712.66	41.64
713.064	42.12
713.467	42.6
713.87	43.1
714.274	43.56
714.677	44
715.08	44.45
715.484	44.91
715.887	45.37
716.29	45.79
716.693	46.2
717.096	46.62
717.499	47.06
717.901	47.46
718.304	47.84
718.707	48.22
719.109	48.63
719.512	49.06
719.915	49.45
720.317	49.82
720.719	50.16
721.122	50.49
721.524	50.87
721.926	51.24
722.328	51.57
722.731	51.9
723.133	52.22
723.535	52.54
723.937	52.79
724.338	53.06
724.74	53.34
725.142	53.64
725.544	53.93
725.945	54.18
726.347	54.41
726.748	54.64
727.15	54.89
727.551	55.14
727.952	55.33
728.354	55.54
728.755	55.74
729.156	55.96
729.557	56.16
729.958	56.34
730.359	56.52
730.76	56.67
731.161	56.82
731.562	56.98
731.962	57.11
732.363	57.27
732.763	57.45
733.164	57.57
733.564	57.66
733.965	57.76
734.365	57.86
734.766	57.98
735.166	58.08
735.566	58.19
735.966	58.28
736.366	58.37
736.766	58.45
737.166	58.53
737.566	58.62
737.966	58.73
738.365	58.83
738.765	58.91
739.165	58.98
739.564	59.06
739.964	59.12
740.363	59.2
740.763	59.28
741.162	59.38
741.561	59.45
741.96	59.56
742.36	59.62
742.759	59.69
743.158	59.73
743.557	59.78
743.955	59.86
744.354	59.96
744.753	60
745.152	60.06
745.55	60.12
745.949	60.13
746.348	60.15
746.746	60.15
747.144	60.22
747.543	60.27
747.941	60.34
748.339	60.37
748.737	60.41
749.136	60.43
749.534	60.44
749.932	60.45
750.33	60.45
750.727	60.49
751.125	60.56
751.523	60.55
751.921	60.59
752.318	60.6
752.716	60.63
753.113	60.64
753.511	60.62
753.908	60.65
754.305	60.64
754.703	60.68
755.1	60.66
755.497	60.67
755.894	60.66
756.291	60.66
756.688	60.66
757.085	60.64
757.482	60.65
757.878	60.68
758.275	60.68
758.672	60.71
759.068	60.73
759.465	60.77
759.861	60.74
760.258	60.77
760.654	60.79
761.05	60.8
761.447	60.79
761.843	60.79
762.239	60.82
762.635	60.81
763.031	60.83
763.427	60.79
763.822	60.74
764.218	60.76
764.614	60.73
765.01	60.68
765.405	60.65
765.801	60.63
766.196	60.61
766.592	60.62
766.987	60.64
767.382	60.61
767.778	60.64
768.173	60.63
768.568	60.6
768.963	60.61
769.358	60.61
769.753	60.67
770.148	60.7
770.542	60.69
770.937	60.67
771.332	60.64
771.726	60.63
772.121	60.62
772.515	60.64
772.91	60.67
773.304	60.66
773.699	60.66
774.093	60.62
774.487	60.62
774.881	60.62
775.275	60.64
775.669	60.65
776.063	60.63
776.457	60.57
776.851	60.54
777.245	60.52
777.638	60.56
778.032	60.58
778.425	60.58
778.819	60.59
779.212	60.55
779.606	60.5
779.999	60.5
780.392	60.49
780.786	60.5
781.179	60.55
781.572	60.56
781.965	60.53
782.358	60.49
782.751	60.47
783.143	60.46
783.536	60.55
783.929	60.54
784.322	60.58
784.714	60.62
785.107	60.68
785.499	60.64
785.891	60.67
786.284	60.64
786.676	60.66
787.068	60.71
787.46	60.68
787.852	60.62
788.245	60.67
788.636	60.63
789.028	60.6
789.42	60.55
789.812	60.57
790.204	60.55
790.595	60.61
790.987	60.63
791.378	60.64
791.77	60.7
792.161	60.68
792.553	60.66
792.944	60.69
793.335	60.73
793.726	60.75
794.117	60.72
794.508	60.72
794.899	60.7
795.29	60.66
795.681	60.64
796.072	60.63
796.463	60.67
796.853	60.65
797.244	60.65
797.634	60.62
798.025	60.61
798.415	60.62
798.806	60.63
799.196	60.63
799.586	60.65
799.976	60.67
800.366	60.64
800.756	60.63
801.146	60.64
801.536	60.6
801.926	60.57
802.316	60.6
802.706	60.62
803.095	60.63
803.485	60.63
803.874	60.63
804.264	60.63
804.653	60.62
805.043	60.63
805.432	60.62
805.821	60.61
806.21	60.68
806.599	60.72
806.988	60.71
807.377	60.71
807.766	60.71
808.155	60.7
808.544	60.67
808.933	60.7
809.321	60.7
809.71	60.75
810.098	60.76
810.487	60.71
810.875	60.67
811.264	60.71
811.652	60.72
812.04	60.74
812.428	60.77
812.816	60.77
813.204	60.78
813.592	60.76
813.98	60.76
814.368	60.78
814.756	60.8
815.144	60.83
815.531	60.83
815.919	60.8
816.306	60.76
816.694	60.75
817.081	60.75
817.469	60.77
817.856	60.86
818.243	60.84
818.63	60.84
819.017	60.85
819.404	60.84
819.791	60.81
820.178	60.83
820.565	60.85
820.952	60.83
821.339	60.87
821.725	60.88
822.112	60.84
822.498	60.84
822.885	60.87
823.271	60.87
823.657	60.87
824.044	60.89
824.43	60.91
824.816	60.9
825.202	60.89
825.588	60.85
825.974	60.84
826.36	60.82
826.746	60.86
827.132	60.84
827.517	60.84
827.903	60.84
828.289	60.86
828.674	60.84
829.06	60.89
829.445	60.95
829.83	60.96
830.216	60.96
830.601	60.97
830.986	60.95
831.371	60.98
831.756	60.98
832.141	60.99
832.526	60.98
832.911	61.01
833.295	60.99
833.68	60.97
834.065	60.99
834.449	60.97
834.834	60.92
835.218	60.93
835.603	60.92
835.987	60.92
836.371	60.93
836.755	60.92
837.139	60.91
837.524	60.91
837.908	60.88
838.291	60.88
838.675	60.91
839.059	60.91
839.443	60.9
839.827	60.91
840.21	60.93
840.594	60.91
840.977	60.92
841.361	60.92
841.744	60.92
842.127	60.93
842.511	60.92
842.894	60.88
843.277	60.92
843.66	60.92
844.043	60.94
844.426	60.93
844.809	60.94
845.191	60.92
845.574	60.91
845.957	60.89
846.339	60.89
846.722	60.92
847.104	60.94
847.487	60.94
847.869	60.93
848.252	60.89
848.634	60.9
849.016	60.92
849.398	60.93
849.78	60.92
850.162	60.91
850.544	60.92
850.926	60.88
851.307	60.89
851.689	60.85
852.071	60.85
852.452	60.87
852.834	60.83
853.215	60.8
853.597	60.8
853.978	60.79
854.359	60.79
854.741	60.8
855.122	60.8
855.503	60.8
855.884	60.83
856.265	60.81
856.646	60.79
857.026	60.79
857.407	60.76
857.788	60.77
858.169	60.75
858.549	60.8
858.93	60.78
859.31	60.79
859.69	60.77
860.071	60.73
860.451	60.75
860.831	60.75
861.211	60.73
861.591	60.74
861.971	60.71
862.351	60.73
862.731	60.7
863.111	60.67
863.491	60.68
863.87	60.71
864.25	60.77
864.629	60.74
865.009	60.76
865.388	60.79
865.768	60.79
866.147	60.82
866.526	60.8
866.905	60.79
867.284	60.82
867.663	60.83
868.042	60.83
868.421	60.78
868.8	60.81
869.179	60.78
869.558	60.79
869.936	60.82
870.315	60.83
870.693	60.84
871.072	60.85
871.45	60.85
871.828	60.83
872.207	60.81
872.585	60.83
872.963	60.76
873.341	60.77
873.719	60.73
874.097	60.69
874.475	60.68
874.853	60.65
875.23	60.67
875.608	60.68
875.986	60.67
876.363	60.68
876.741	60.64
877.118	60.67
877.495	60.64
877.873	60.67
878.25	60.66
878.627	60.66
879.004	60.68
879.381	60.66
879.758	60.59
880.135	60.59
880.512	60.58
880.889	60.6
881.265	60.62
881.642	60.62
882.019	60.61
882.395	60.62
882.772	60.58
883.148	60.58
883.524	60.57
883.901	60.57
884.277	60.55
884.653	60.58
885.029	60.6
885.405	60.59
885.781	60.6
886.157	60.6
886.532	60.59
886.908	60.64
887.284	60.66
887.659	60.66
888.035	60.68
888.411	60.65
888.786	60.64
889.161	60.64
889.537	60.63
889.912	60.61
890.287	60.61
890.662	60.62
891.037	60.58
891.412	60.55
891.787	60.53
892.162	60.52
892.536	60.52
892.911	60.5
893.286	60.44
893.66	60.41
894.035	60.4
894.409	60.4
894.784	60.37
895.158	60.37
895.532	60.36
895.906	60.37
896.281	60.35
896.655	60.36
897.029	60.34
897.402	60.38
897.776	60.43
898.15	60.45
898.524	60.43
898.898	60.43
899.271	60.43
899.645	60.4
900.018	60.4
900.392	60.41
900.765	60.42
901.138	60.46
901.511	60.48
901.884	60.42
902.258	60.44
902.631	60.45
903.003	60.47
903.376	60.49
903.749	60.54
904.122	60.54
904.495	60.54
904.867	60.51
905.24	60.47
905.612	60.44
905.985	60.43
906.357	60.37
906.729	60.35
907.102	60.31
907.474	60.32
907.846	60.24
908.218	60.19
908.59	60.15
908.962	60.19
909.334	60.19
909.705	60.18
910.077	60.16
910.449	60.16
910.82	60.18
911.192	60.2
911.563	60.14
911.935	60.12
912.306	60.16
912.677	60.19
913.048	60.15
913.419	60.12
913.79	60.11
914.161	60.14
914.532	60.14
914.903	60.11
915.274	60.08
915.645	60.11
916.015	60.13
916.386	60.11
916.756	60.07
917.127	60.07
917.497	60.08
917.868	60.06
918.238	60.06
918.608	60.08
918.978	60.05
919.348	60.02
919.718	60
920.088	60.01
920.458	60
920.828	60
921.198	60
921.567	60.03
921.937	60.05
922.306	60.03
922.676	59.99
923.045	60.02
923.415	60.02
923.784	60.03
924.153	60.01
924.522	60
924.891	60.02
925.26	60.02
925.629	59.99
925.998	59.97
926.367	59.94
926.736	59.93
927.104	59.9
927.473	59.9
927.842	59.85
928.21	59.89
928.578	59.88
928.947	59.84
929.315	59.83
929.683	59.83
930.051	59.82
930.42	59.87
930.788	59.89
931.156	59.92
931.523	59.91
931.891	59.92
932.259	59.85
932.627	59.8
932.994	59.83
933.362	59.82
933.729	59.8
934.097	59.8
934.464	59.76
934.831	59.78
935.199	59.73
935.566	59.73
935.933	59.73
936.3	59.7
936.667	59.72
937.034	59.65
937.401	59.61
937.767	59.59
938.134	59.55
938.501	59.54
938.867	59.48
939.234	59.45
939.6	59.44
939.967	59.42
940.333	59.54
940.699	59.63
941.065	59.75
941.431	59.85
941.798	60.01
942.163	60.17
942.529	60.22
942.895	60.24
943.261	60.34
943.627	60.38
943.992	60.45
944.358	60.43
944.723	60.44
945.089	60.5
945.454	60.54
945.82	60.45
946.185	60.44
946.55	60.49
946.915	60.45
947.28	60.41
947.645	60.42
948.01	60.38
948.375	60.38
948.74	60.3
949.104	60.2
949.469	60.09
949.834	60.04
950.198	59.85
950.562	59.78
950.927	59.75
951.291	59.72
951.655	59.73
952.02	59.71
952.384	59.79
952.748	59.83
953.112	59.84
953.476	59.83
953.839	59.82
954.203	59.82
954.567	59.8
954.931	59.81
955.294	59.77
955.658	59.68
956.021	59.64
956.385	59.5
956.748	59.48
957.111	59.43
957.474	59.45
957.837	59.44
958.2	59.4
958.563	59.31
958.926	59.31
959.289	59.32
959.652	59.27
960.015	59.29
960.377	59.29
960.74	59.2
961.102	59.23
961.465	59.21
961.827	59.13
962.189	59.12
962.552	59.09
962.914	59.04
963.276	58.99
963.638	59
964	59
964.362	59.05
964.724	59.09
965.085	59.06
965.447	58.96
965.809	58.92
966.17	58.95
966.532	59.02
966.893	58.99
967.255	59.01
967.616	59.09
967.977	59.05
968.338	58.97
968.699	58.92
969.061	58.87
969.421	58.93
969.782	59
970.143	59.02
970.504	58.93
970.865	58.95
971.225	58.87
971.586	58.82
971.946	58.86
972.307	58.83
972.667	58.87
973.027	58.87
973.388	58.85
973.748	58.85
974.108	58.82
974.468	58.91
974.828	58.98
975.188	59.07
975.548	59.08
975.907	59.02
976.267	59.02
976.627	59
976.986	59.02
977.346	59.07
977.705	59.15
978.064	59.17
978.424	59.13
978.783	59.11
979.142	59.08
979.501	58.98
979.86	59.02
980.219	58.98
980.578	58.98
980.937	59.05
981.296	59.02
981.654	59.06
982.013	59.15
982.371	59.14
982.73	59.22
983.088	59.15
983.447	59.28
983.805	59.26
984.163	59.37
984.521	59.3
984.879	59.33
985.237	59.3
985.595	59.19
985.953	59.14
986.311	59.26
986.669	59.19
987.026	59.33
987.384	59.33
987.741	59.47
988.099	59.4
988.456	59.51
988.814	59.49
989.171	59.49
989.528	59.44
989.885	59.41
990.242	59.32
990.599	59.32
990.956	59.4
991.313	59.46
991.67	59.44
992.027	59.48
992.383	59.52
992.74	59.53
993.096	59.51
993.453	59.56
993.809	59.59
994.165	59.71
994.522	59.8
994.878	59.66
995.234	59.58
995.59	59.5
995.946	59.71
996.302	59.68
996.658	59.79
997.013	59.81
997.369	59.86
997.725	60.01
998.08	60.05
998.436	60.13
998.791	60.18
999.147	60.33
999.502	60.37
999.857	60.29
1000.212	60.19
1000.567	60.14
1000.922	60.28
1001.277	60.33
1001.632	60.35
1001.987	60.23
1002.342	60.19
1002.696	60.25
1003.051	60.08
1003.406	60.1
1003.76	59.97
1004.114	60.2
1004.469	60.06
1004.823	60.02
1005.177	60.23
1005.531	60.07
1005.885	60.17
1006.239	60.03
1006.593	59.95
1006.947	59.98
1007.301	60.13
1007.655	60.38
1008.008	60.17
1008.362	60.18
1008.715	60.36
1009.069	59.99
1009.422	60.21
1009.776	60.23
1010.129	60.22
1010.482	60.51
1010.835	60.77
1011.188	60.67
1011.541	60.55
1011.894	60.83
1012.247	61.05
1012.6	61.02
1012.952	61.46
1013.305	61.47
1013.657	61.7
1014.01	61.93
1014.362	62.01
1014.715	62.02
1015.067	62.38
1015.419	62.77
1015.771	62.99
1016.123	63.02
1016.475	63.12
1016.827	63.15
1017.179	63.07
1017.531	62.95
1017.883	63.09
1018.234	62.94
1018.586	63.14
1018.938	63.11
1019.289	62.8
1019.64	63.05
1019.992	63.22
1020.343	63.15
1020.694	63.06
1021.045	63.27
1021.396	63.33
1021.747	63.09
1022.098	63.46
1022.449	63.24
1022.8	63.07
1023.151	63.27
1023.501	62.99
1023.852	63.12
1024.202	63.31
1024.553	63.57
1024.903	63.67
1025.253	63.88
1025.604	64.25
1025.954	63.79
1026.304	64.33
1026.654	64.82
1027.004	65.2
1027.354	65.13
1027.703	65.27
1028.053	65.2
1028.403	65.07
1028.753	65.24
1029.102	65.37
1029.452	65.56
1029.801	66.01
1030.15	65.68
1030.499	65.42
897.758	403.87
901.051	409.44
904.343	413.29
907.636	407.7
910.928	399.87
914.22	407.73
917.511	399.46
920.803	380.98
924.094	368.59
927.384	370.82
930.675	362.77
933.965	357.65
937.255	357.81
940.544	340.9
943.834	329.05
947.123	324.49
950.411	308.26
953.7	303.15
956.988	297.02
960.276	285.17
963.563	280.7
966.851	266.45
970.138	262.45
973.424	245.35
976.711	242.83
979.997	235.17
983.283	231.46
986.568	224.3
989.853	218.96
993.138	212.13
996.423	209.14
999.708	203.51
1002.992	204.32
1006.275	199.91
1009.559	199.58
1012.842	194.17
1016.125	187.68
1019.408	183.92
1022.69	182.37
1025.972	181.17
1029.254	176.7
1032.536	173.87
1035.817	170.49
1039.098	168.02
1042.379	165.49
1045.659	162.83
1048.939	162.71
1052.219	160.51
1055.498	158.97
1058.778	156.66
1062.057	153.33
1065.335	153.69
1068.614	151.04
1071.892	149.01
1075.17	146.37
1078.447	145.05
1081.724	143.62
1085.001	141.83
1088.278	141.05
1091.554	139.57
1094.83	140.05
1098.106	138.92
1101.382	138.13
1104.657	137.32
1107.932	136.08
1111.206	135.95
1114.481	134.38
1117.755	133.69
1121.029	132.59
1124.302	131.77
1127.575	130.22
1130.848	129.21
1134.121	127.69
1137.393	126.39
1140.665	126.18
1143.937	125.82
1147.208	123.77
1150.48	122.24
1153.75	121.58
1157.021	121.04
1160.291	120.64
1163.561	120.22
1166.831	119.71
1170.101	119.68
1173.37	119.91
1176.639	118.4
1179.907	118.42
1183.176	118.93
1186.444	119.3
1189.711	118.74
1192.979	118.91
1196.246	119.97
1199.513	119.26
1202.78	119.31
1206.046	119.27
1209.312	119.75
1212.578	120.31
1215.843	121.73
1219.108	121.73
1222.373	123.23
1225.638	124.9
1228.902	127.16
1232.166	129.16
1235.43	131.26
1238.693	133.09
1241.956	135.66
1245.219	138.11
1248.482	139.54
1251.744	138.4
1255.006	140.29
1258.268	136.72
1261.529	136.33
1264.79	133.11
1268.051	130.97
1271.312	130.06
1274.572	128.81
1277.832	126.32
1281.092	124.43
1284.351	122.68
1287.61	123.16
1290.869	122.26
1294.128	122.52
1297.386	121.96
1300.644	123.05
1303.902	121.72
1307.159	120.34
1310.416	120.48
1313.673	121.95
1316.93	123.14
1320.186	124.25
1323.442	124.39
1326.697	126.28
1329.953	127.07
1333.208	130.36
1336.463	132.42
1339.717	135.41
1342.972	142.52
1346.226	145.82
1349.479	146.53
1352.733	151.38
1355.986	154.74
1359.238	158.02
1362.491	158.64
1365.743	162.74
1368.995	162.52
1372.247	163.33
1375.498	161.56
1378.749	164.85
1382	164.04
1385.251	163.4
1388.501	161.24
1391.751	162.86
1395	162.9
1398.25	162.52
1401.499	160.88
1404.748	161.26
1407.996	157.49
1411.244	158.87
1414.492	154.58
1417.74	149.51
1420.987	146.6
1424.234	144.43
1427.481	138.64
1430.728	134.14
1433.974	131.22
1437.22	128.12
1440.465	123.81
1443.711	120.06
1446.956	116.13
1450.201	113.41
1453.445	109.13
1456.689	106.76
1459.933	104.17
1463.177	100.33
1466.42	98.33
1469.663	96.03
1472.906	93.64
1476.148	91.76
1479.391	90.05
1482.633	88.97
1485.874	88.32
1489.115	88.36
1492.356	86.23
1495.597	85.05
1498.838	85.38
1502.078	85.02
1505.318	84.48
1508.557	84.16
1511.797	83.67
1515.036	84.26
1518.274	83.41
1521.513	82.98
1524.751	82.69
1527.989	83.83
1531.227	83.78
1534.464	83.53
1537.701	83.16
1540.938	83
1544.174	83.4
1547.41	83.19
1550.646	83.04
1553.882	83.99
1557.117	82.91
1560.352	83.11
1563.587	82.52
1566.821	82.66
1570.055	82.03
1573.289	82.49
1576.523	82.89
1579.756	82.2
1582.989	82.77
1586.222	82.85
1589.454	81.89
1592.686	82.17
1595.918	81.79
1599.15	81.76
1602.381	82.09
1605.612	82.69
1608.843	82.15
1612.073	82.13
1615.303	83.09
1618.533	82.38
1621.762	82.41
1624.992	83.05
1628.221	82.99
1631.449	83.37
1634.678	83.56
1637.906	83.52
1641.134	83.73
1644.361	83.71
1647.588	83.71
1650.815	83.38
1654.042	83.81
1657.269	83.78
1660.495	84.38
1663.72	83.78
1666.946	83.89
1670.171	84.05
1673.396	84.35
1676.621	84.31
1679.845	84.7
1683.069	84.66
1686.293	84.05
1689.517	84.66
1692.74	84.29
1695.963	84.24
1699.185	84.99
1702.408	84.91
1705.63	84.77
1708.852	85.27
1712.073	84.63
1715.294	84.6
1718.515	84.96
1721.736	85.39
1724.956	84.61
1728.176	84.87
1731.396	85.36
1734.616	85.18
1737.835	85.09
1741.054	85
1744.272	84.78
1747.491	85.16
1750.709	85.26
1753.927	84.91
1757.144	85.35
1760.361	85.46
1763.578	85.43
1766.795	85.18
1770.011	86.18
1773.227	86.44
1776.443	86.66
1779.658	86.29
1782.874	86.44
1786.089	86.72
1789.303	86.98
1792.518	87.79
1795.732	88.25
1798.945	89.34
1802.159	89.55
1805.372	89.77
1808.585	90.06
1811.797	90.84
1815.01	91.22
1818.222	92.13
1821.434	92.94
1824.645	93.23
1827.856	93.95
1831.067	94.33
1834.278	95.11
1837.488	95.38
1840.698	95.67
1843.908	95.77
1847.117	96.26
1850.326	97.02
1853.535	97.03
1856.744	97.09
1859.952	97.41
1863.16	96.45
1866.368	96.05
1869.575	94.97
1872.782	94.7
1875.989	93.15
1879.196	93.56
1882.402	91.75
1885.608	92.05
1888.814	90.75
1892.019	90.12
1895.224	88.38
1898.429	87.77
1901.634	87.54
1904.838	87.71
1908.042	86.82
1911.246	87.62
1914.449	86.73
1917.652	86.56
1920.855	86.61
1924.058	86.35
1927.26	85.65
1930.462	86.27
1933.664	87.12
1936.865	86.82
1940.066	85.55
1943.267	85.31
1946.467	85.43
1949.668	85.09
1952.868	85.51
1956.067	84.64
1959.267	86.43
1962.466	86.93
1965.665	87.8
1968.863	87.56
1972.061	87.22
1975.259	89.63
1978.457	90.5
1981.654	91.87
1984.852	92.8
1988.048	94.33
1991.245	96.07
1994.441	96.57
1997.637	99.89
2000.833	101.42
2004.028	102.39
2007.223	107.58
2010.418	109.51
2013.613	114.11
2016.807	117.03
2020.001	118.28
2023.194	122.28
2026.388	126.32
2029.581	133.25
2032.774	135.68
2035.966	139.96
2039.158	145.8
2042.35	146.23
2045.542	148.75
2048.733	155.56
2051.924	156.44
2055.115	161.94
2058.306	162.95
2061.496	164.52
2064.686	163.97
2067.875	163.65
2071.065	165.73
2074.254	164.6
2077.442	171.78
2080.631	173.45
2083.819	173.09
2087.007	176.23
2090.195	176.73
2093.382	175.98
2096.569	176.75
2099.756	179.73
2102.942	182.76
2106.128	186.48
2109.314	190.03
2112.5	187.82
2115.685	186.67
2118.87	185.73
2122.055	187.47
2125.239	191.5
2128.424	198.12
2131.608	196.03
2134.791	195.62
2137.974	196.09
2141.157	199.31
2144.34	199.98
2147.523	204.62
2150.705	209.46
2153.887	208.69
2157.068	210.73
2160.25	210.45
2163.431	208.48
2166.611	213.89
2169.792	218.21
2172.972	223.03
2176.152	222.99
2179.331	226.42
2182.511	224.9
2185.69	227.62
2188.868	231.76
2192.047	238.33
2195.225	242.75
2198.403	248.23
2201.58	246.7
2204.758	254.31
2207.935	253.1
2211.111	255.26
2214.288	257.56
2217.464	258.39
2220.64	261.91
2223.815	266.7
2226.991	264.01
2230.166	266.39
2233.34	274.18
2236.515	276.81
2239.689	271.19
2242.863	279.21
2246.036	277.79
2249.209	281.35
2252.382	286.42
2255.555	291.88
2258.727	295.27
2261.9	297.24
2265.071	301.66
2268.243	299.48
2271.414	309.36
2274.585	316.15
2277.756	311.73
2280.926	322.82
2284.096	326.71
2287.266	327.1
2290.436	322.19
2293.605	329.03
2296.774	344.05
2299.942	344.24
2303.111	351.9
2306.279	358.77
2309.447	360.73
2312.614	364.25
2315.781	373.75
2318.948	379.35
2322.115	384.14
2325.281	400.97
2328.447	400.06
2331.613	402.08
2334.779	408.29
2337.944	411.34
2341.109	418.23
2344.274	421.1
2347.438	436.14
2350.602	439.75
2353.766	464.8
2356.929	465.39
2360.092	476.01
2363.255	471.05
2366.418	476.67
2369.58	485.99
2372.742	497.1
2375.904	495.48
2379.066	510.38
2382.227	537.99
2385.388	534.39
2388.548	505.39
2391.709	504.62
2394.869	519.03
2398.029	525.62
2401.188	527.52
2404.347	545.77
2407.506	552.26
2410.665	531.22
2413.823	531.9
2416.981	528.42
2420.139	506.29
2423.296	545.91
2426.453	586.14
2429.61	565.09
2432.767	601.37
2435.923	618.35
2439.079	594.11
2442.235	610.17
2445.391	626.83
2448.546	628.37
2451.701	656.08
2454.855	703.45
2458.009	624.3
2461.163	620.24
2464.317	622.64
2467.471	611.81
2470.624	631.66
2473.777	619.37
2476.929	599.11
2480.082	643.4
2483.234	669.9
2486.385	677.33
2489.537	689.62
2492.688	761.33
2495.839	750.56
2498.989	770.43
2502.14	775.72
2505.29	736.84
2508.439	815.48
2511.589	836.75
2514.738	804.68
2517.887	801.57
2521.035	748.86
2524.183	738.71
2527.331	731.27
2530.479	714.32
2533.627	728.65
