Data from c_1_hir_wi_4n_043_Splice17_06.txt Node
Date: Sat Feb 29 13:29:17 EST 2020
User: sa697716
Spectrometer: FLMS03696
Trigger mode: 0
Integration Time (sec): 3.180400E-1
Scans to average: 20
Electric dark correction enabled: true
Nonlinearity correction enabled: true
Boxcar width: 5
XAxis mode: Wavelengths
Number of Pixels in Spectrum: 2048
>>>>>Begin Spectral Data<<<<<
187.83	93.59
188.298	86.13
188.766	65.83
189.233	55.43
189.701	67.73
190.169	71.63
190.636	68.04
191.104	69.02
191.571	81.51
192.039	76.02
192.506	190.48
192.974	4344.29
193.441	-68.75
193.908	-0.89
194.375	-162.16
194.842	-86.11
195.31	-44.01
195.777	-41.8
196.244	64.26
196.711	84.7
197.177	88.03
197.644	88.52
198.111	89.96
198.578	90.36
199.045	91.41
199.511	92.06
199.978	92.55
200.445	92.95
200.911	93.18
201.378	93.16
201.844	94.04
202.31	94.3
202.777	94.37
203.243	94.42
203.709	94.38
204.176	93.91
204.642	93.46
205.108	92.67
205.574	92.32
206.04	91.59
206.506	90.77
206.972	89.27
207.438	88.29
207.903	87
208.369	84.97
208.835	83.96
209.301	82.39
209.766	80.29
210.232	78.35
210.697	76.62
211.163	74.63
211.628	73.12
212.094	72.07
212.559	70.46
213.024	69.1
213.49	67.65
213.955	65.46
214.42	63.22
214.885	61.01
215.35	58.43
215.815	54.77
216.28	50.91
216.745	46.34
217.21	41.45
217.675	36.99
218.14	32.9
218.604	29.24
219.069	26.25
219.534	23.81
219.998	21.75
220.463	19.94
220.927	18.44
221.392	17.2
221.856	16.16
222.32	15.29
222.785	14.51
223.249	13.85
223.713	13.34
224.177	12.8
224.642	12.33
225.106	11.9
225.57	11.5
226.034	11.16
226.497	10.8
226.961	10.45
227.425	10.11
227.889	9.82
228.353	9.55
228.816	9.28
229.28	9.04
229.744	8.82
230.207	8.61
230.671	8.41
231.134	8.21
231.597	8.05
232.061	7.89
232.524	7.76
232.987	7.63
233.45	7.49
233.914	7.37
234.377	7.25
234.84	7.16
235.303	7.06
235.766	6.98
236.229	6.89
236.691	6.82
237.154	6.75
237.617	6.67
238.08	6.59
238.542	6.52
239.005	6.46
239.468	6.39
239.93	6.32
240.393	6.26
240.855	6.17
241.317	6.12
241.78	6.05
242.242	5.97
242.704	5.92
243.166	5.86
243.629	5.8
244.091	5.73
244.553	5.69
245.015	5.62
245.477	5.56
245.939	5.5
246.4	5.44
246.862	5.37
247.324	5.32
247.786	5.26
248.247	5.21
248.709	5.15
249.17	5.1
249.632	5.03
250.093	4.97
250.555	4.93
251.016	4.9
251.477	4.84
251.939	4.8
252.4	4.76
252.861	4.72
253.322	4.66
253.783	4.64
254.244	4.61
254.705	4.57
255.166	4.54
255.627	4.5
256.088	4.45
256.549	4.42
257.009	4.37
257.47	4.33
257.931	4.29
258.391	4.24
258.852	4.18
259.312	4.13
259.773	4.09
260.233	4.04
260.694	4
261.154	3.95
261.614	3.91
262.074	3.87
262.534	3.82
262.994	3.79
263.455	3.76
263.915	3.72
264.374	3.69
264.834	3.65
265.294	3.62
265.754	3.59
266.214	3.56
266.673	3.54
267.133	3.51
267.593	3.49
268.052	3.46
268.512	3.44
268.971	3.43
269.431	3.41
269.89	3.4
270.349	3.39
270.809	3.38
271.268	3.37
271.727	3.36
272.186	3.35
272.645	3.33
273.104	3.33
273.563	3.32
274.022	3.31
274.481	3.3
274.94	3.29
275.399	3.28
275.857	3.27
276.316	3.26
276.775	3.24
277.233	3.23
277.692	3.23
278.15	3.21
278.609	3.2
279.067	3.19
279.525	3.19
279.984	3.18
280.442	3.18
280.9	3.18
281.358	3.18
281.816	3.19
282.274	3.19
282.732	3.19
283.19	3.19
283.648	3.19
284.106	3.19
284.564	3.2
285.021	3.2
285.479	3.2
285.937	3.2
286.394	3.19
286.852	3.19
287.309	3.18
287.767	3.18
288.224	3.16
288.682	3.15
289.139	3.13
289.596	3.11
290.053	3.08
290.511	3.05
290.968	3.03
291.425	3
291.882	2.98
292.339	2.97
292.796	2.94
293.252	2.93
293.709	2.91
294.166	2.9
294.623	2.89
295.079	2.88
295.536	2.87
295.992	2.86
296.449	2.85
296.905	2.83
297.362	2.81
297.818	2.81
298.274	2.8
298.731	2.79
299.187	2.79
299.643	2.78
300.099	2.78
300.555	2.77
301.011	2.77
301.467	2.77
301.923	2.78
302.379	2.78
302.835	2.78
303.291	2.79
303.746	2.78
304.202	2.78
304.658	2.78
305.113	2.77
305.569	2.78
306.024	2.78
306.479	2.77
306.935	2.78
307.39	2.79
307.845	2.79
308.301	2.8
308.756	2.81
309.211	2.82
309.666	2.82
310.121	2.83
310.576	2.83
311.031	2.83
311.486	2.84
311.94	2.84
312.395	2.84
312.85	2.85
313.305	2.84
313.759	2.85
314.214	2.85
314.668	2.85
315.123	2.85
315.577	2.86
316.032	2.85
316.486	2.84
316.94	2.84
317.394	2.83
317.849	2.82
318.303	2.81
318.757	2.79
319.211	2.78
319.665	2.77
320.119	2.76
320.572	2.75
321.026	2.74
321.48	2.74
321.934	2.73
322.387	2.73
322.841	2.72
323.295	2.72
323.748	2.73
324.202	2.73
324.655	2.72
325.108	2.72
325.562	2.71
326.015	2.71
326.468	2.7
326.921	2.71
327.374	2.7
327.827	2.7
328.28	2.7
328.733	2.71
329.186	2.71
329.639	2.72
330.092	2.72
330.545	2.72
330.997	2.74
331.45	2.75
331.903	2.75
332.355	2.76
332.808	2.76
333.26	2.77
333.713	2.78
334.165	2.78
334.617	2.78
335.069	2.79
335.522	2.8
335.974	2.8
336.426	2.81
336.878	2.8
337.33	2.81
337.782	2.82
338.234	2.82
338.686	2.81
339.137	2.82
339.589	2.81
340.041	2.81
340.493	2.79
340.944	2.78
341.396	2.78
341.847	2.78
342.299	2.76
342.75	2.75
343.201	2.72
343.653	2.71
344.104	2.7
344.555	2.68
345.006	2.66
345.457	2.66
345.908	2.65
346.359	2.64
346.81	2.65
347.261	2.63
347.712	2.62
348.163	2.62
348.613	2.62
349.064	2.6
349.515	2.59
349.965	2.6
350.416	2.59
350.866	2.59
351.317	2.58
351.767	2.57
352.217	2.57
352.668	2.59
353.118	2.59
353.568	2.6
354.018	2.61
354.468	2.61
354.918	2.62
355.368	2.62
355.818	2.63
356.268	2.63
356.718	2.64
357.168	2.63
357.617	2.61
358.067	2.61
358.517	2.61
358.966	2.61
359.416	2.63
359.865	2.63
360.315	2.63
360.764	2.63
361.213	2.63
361.663	2.63
362.112	2.65
362.561	2.66
363.01	2.66
363.459	2.65
363.908	2.65
364.357	2.65
364.806	2.65
365.255	2.66
365.703	2.65
366.152	2.65
366.601	2.66
367.05	2.66
367.498	2.67
367.947	2.68
368.395	2.7
368.844	2.7
369.292	2.7
369.74	2.7
370.189	2.7
370.637	2.7
371.085	2.72
371.533	2.72
371.981	2.72
372.429	2.72
372.877	2.72
373.325	2.72
373.773	2.72
374.221	2.71
374.669	2.72
375.116	2.71
375.564	2.71
376.012	2.72
376.459	2.72
376.907	2.73
377.354	2.73
377.801	2.73
378.249	2.74
378.696	2.75
379.143	2.76
379.591	2.77
380.038	2.79
380.485	2.81
380.932	2.82
381.379	2.82
381.826	2.82
382.273	2.83
382.72	2.83
383.166	2.84
383.613	2.83
384.06	2.85
384.506	2.86
384.953	2.85
385.4	2.86
385.846	2.86
386.292	2.87
386.739	2.89
387.185	2.91
387.631	2.92
388.078	2.95
388.524	2.96
388.97	2.96
389.416	2.97
389.862	2.99
390.308	3
390.754	3.02
391.2	3.05
391.645	3.07
392.091	3.08
392.537	3.1
392.983	3.12
393.428	3.15
393.874	3.17
394.319	3.19
394.765	3.21
395.21	3.23
395.655	3.26
396.101	3.28
396.546	3.29
396.991	3.3
397.436	3.31
397.881	3.34
398.326	3.36
398.771	3.4
399.216	3.43
399.661	3.46
400.106	3.49
400.551	3.49
400.995	3.5
401.44	3.51
401.885	3.54
402.329	3.57
402.774	3.57
403.218	3.59
403.663	3.58
404.107	3.6
404.551	3.61
404.995	3.62
405.44	3.64
405.884	3.65
406.328	3.68
406.772	3.7
407.216	3.72
407.66	3.75
408.104	3.77
408.547	3.8
408.991	3.8
409.435	3.82
409.879	3.85
410.322	3.88
410.766	3.9
411.209	3.93
411.653	3.93
412.096	3.94
412.54	3.96
412.983	3.99
413.426	4.03
413.869	4.07
414.312	4.11
414.756	4.13
415.199	4.16
415.642	4.19
416.085	4.23
416.527	4.27
416.97	4.29
417.413	4.3
417.856	4.29
418.298	4.28
418.741	4.29
419.184	4.28
419.626	4.28
420.069	4.29
420.511	4.28
420.953	4.27
421.396	4.27
421.838	4.3
422.28	4.33
422.722	4.36
423.164	4.39
423.606	4.4
424.048	4.41
424.49	4.42
424.932	4.42
425.374	4.42
425.816	4.42
426.258	4.41
426.699	4.38
427.141	4.36
427.582	4.36
428.024	4.38
428.465	4.39
428.907	4.42
429.348	4.41
429.789	4.42
430.231	4.43
430.672	4.47
431.113	4.49
431.554	4.52
431.995	4.56
432.436	4.57
432.877	4.56
433.318	4.57
433.759	4.58
434.2	4.59
434.64	4.62
435.081	4.63
435.522	4.65
435.962	4.68
436.403	4.72
436.843	4.71
437.284	4.72
437.724	4.77
438.164	4.76
438.604	4.79
439.045	4.81
439.485	4.83
439.925	4.84
440.365	4.81
440.805	4.8
441.245	4.77
441.685	4.8
442.125	4.81
442.564	4.81
443.004	4.83
443.444	4.83
443.883	4.86
444.323	4.85
444.762	4.88
445.202	4.94
445.641	4.95
446.081	4.99
446.52	4.98
446.959	5
447.398	5.02
447.837	5.04
448.276	5.04
448.716	5.03
449.154	5.07
449.593	5.06
450.032	5.03
450.471	5.05
450.91	5.04
451.349	5.04
451.787	5
452.226	4.97
452.664	4.94
453.103	4.93
453.541	4.92
453.98	4.89
454.418	4.86
454.856	4.83
455.295	4.79
455.733	4.76
456.171	4.73
456.609	4.73
457.047	4.72
457.485	4.7
457.923	4.69
458.361	4.68
458.798	4.67
459.236	4.66
459.674	4.66
460.111	4.68
460.549	4.68
460.987	4.71
461.424	4.7
461.862	4.72
462.299	4.73
462.736	4.72
463.173	4.73
463.611	4.74
464.048	4.75
464.485	4.77
464.922	4.77
465.359	4.78
465.796	4.77
466.233	4.79
466.67	4.79
467.106	4.77
467.543	4.79
467.98	4.79
468.416	4.8
468.853	4.78
469.29	4.79
469.726	4.8
470.162	4.78
470.599	4.78
471.035	4.77
471.471	4.77
471.907	4.78
472.344	4.77
472.78	4.76
473.216	4.73
473.652	4.72
474.088	4.71
474.523	4.68
474.959	4.66
475.395	4.64
475.831	4.62
476.266	4.61
476.702	4.58
477.138	4.54
477.573	4.51
478.008	4.49
478.444	4.47
478.879	4.43
479.314	4.4
479.75	4.41
480.185	4.39
480.62	4.37
481.055	4.35
481.49	4.33
481.925	4.32
482.36	4.31
482.795	4.31
483.229	4.3
483.664	4.28
484.099	4.27
484.534	4.26
484.968	4.25
485.403	4.23
485.837	4.22
486.271	4.2
486.706	4.19
487.14	4.19
487.574	4.17
488.009	4.17
488.443	4.17
488.877	4.18
489.311	4.17
489.745	4.17
490.179	4.19
490.613	4.2
491.046	4.22
491.48	4.23
491.914	4.24
492.348	4.26
492.781	4.26
493.215	4.28
493.648	4.31
494.082	4.34
494.515	4.35
494.948	4.37
495.382	4.38
495.815	4.41
496.248	4.44
496.681	4.45
497.114	4.48
497.547	4.52
497.98	4.56
498.413	4.58
498.846	4.61
499.279	4.66
499.711	4.69
500.144	4.73
500.577	4.77
501.009	4.82
501.442	4.88
501.874	4.94
502.306	4.98
502.739	5.03
503.171	5.11
503.603	5.19
504.036	5.25
504.468	5.34
504.9	5.42
505.332	5.51
505.764	5.61
506.196	5.7
506.627	5.8
507.059	5.91
507.491	6.03
507.923	6.13
508.354	6.23
508.786	6.35
509.217	6.47
509.649	6.61
510.08	6.75
510.512	6.88
510.943	7.04
511.374	7.19
511.805	7.35
512.237	7.51
512.668	7.68
513.099	7.87
513.53	8.07
513.961	8.28
514.391	8.45
514.822	8.65
515.253	8.86
515.684	9.06
516.114	9.28
516.545	9.5
516.975	9.74
517.406	9.96
517.836	10.16
518.267	10.39
518.697	10.62
519.127	10.86
519.558	11.08
519.988	11.3
520.418	11.53
520.848	11.76
521.278	11.99
521.708	12.28
522.138	12.5
522.567	12.72
522.997	12.93
523.427	13.14
523.857	13.33
524.286	13.54
524.716	13.74
525.145	13.95
525.575	14.15
526.004	14.33
526.433	14.44
526.863	14.63
527.292	14.82
527.721	15
528.15	15.17
528.579	15.34
529.008	15.51
529.437	15.67
529.866	15.8
530.295	15.93
530.724	16.07
531.152	16.2
531.581	16.31
532.01	16.43
532.438	16.54
532.867	16.65
533.295	16.75
533.723	16.86
534.152	16.95
534.58	17.05
535.008	17.12
535.436	17.2
535.865	17.27
536.293	17.34
536.721	17.41
537.149	17.48
537.576	17.53
538.004	17.58
538.432	17.62
538.86	17.66
539.287	17.72
539.715	17.77
540.143	17.79
540.57	17.84
540.998	17.88
541.425	17.91
541.852	17.94
542.28	17.96
542.707	18
543.134	18.04
543.561	18.05
543.988	18.07
544.415	18.09
544.842	18.13
545.269	18.17
545.696	18.19
546.123	18.2
546.549	18.22
546.976	18.25
547.403	18.26
547.829	18.28
548.256	18.32
548.682	18.34
549.108	18.38
549.535	18.38
549.961	18.37
550.387	18.38
550.813	18.37
551.24	18.36
551.666	18.36
552.092	18.35
552.518	18.33
552.943	18.3
553.369	18.28
553.795	18.24
554.221	18.21
554.646	18.18
555.072	18.16
555.498	18.14
555.923	18.12
556.349	18.06
556.774	17.99
557.199	17.94
557.625	17.88
558.05	17.81
558.475	17.73
558.9	17.66
559.325	17.59
559.75	17.49
560.175	17.37
560.6	17.27
561.025	17.17
561.449	17.07
561.874	16.96
562.299	16.85
562.723	16.75
563.148	16.62
563.572	16.48
563.997	16.33
564.421	16.2
564.846	16.08
565.27	15.94
565.694	15.8
566.118	15.65
566.542	15.52
566.966	15.38
567.39	15.22
567.814	15.09
568.238	14.94
568.662	14.8
569.086	14.67
569.509	14.53
569.933	14.4
570.357	14.24
570.78	14.11
571.204	13.96
571.627	13.84
572.05	13.71
572.474	13.59
572.897	13.48
573.32	13.35
573.743	13.23
574.166	13.1
574.589	12.99
575.012	12.9
575.435	12.79
575.858	12.7
576.281	12.6
576.704	12.51
577.126	12.4
577.549	12.3
577.972	12.22
578.394	12.12
578.817	12.05
579.239	11.96
579.661	11.89
580.084	11.82
580.506	11.73
580.928	11.66
581.35	11.58
581.772	11.53
582.194	11.47
582.616	11.4
583.038	11.35
583.46	11.29
583.882	11.22
584.303	11.17
584.725	11.11
585.147	11.04
585.568	10.98
585.99	10.95
586.411	10.89
586.833	10.85
587.254	10.82
587.675	10.79
588.096	10.74
588.518	10.71
588.939	10.67
589.36	10.65
589.781	10.63
590.202	10.61
590.623	10.56
591.043	10.53
591.464	10.48
591.885	10.45
592.305	10.43
592.726	10.41
593.147	10.38
593.567	10.35
593.987	10.31
594.408	10.27
594.828	10.24
595.248	10.23
595.669	10.21
596.089	10.19
596.509	10.14
596.929	10.09
597.349	10.05
597.769	10
598.189	9.97
598.608	9.94
599.028	9.9
599.448	9.86
599.867	9.82
600.287	9.78
600.706	9.75
601.126	9.73
601.545	9.69
601.965	9.67
602.384	9.64
602.803	9.58
603.222	9.54
603.641	9.49
604.061	9.44
604.48	9.39
604.898	9.34
605.317	9.28
605.736	9.22
606.155	9.17
606.574	9.11
606.992	9.04
607.411	9
607.829	8.9
608.248	8.85
608.666	8.78
609.085	8.72
609.503	8.64
609.921	8.58
610.339	8.52
610.758	8.47
611.176	8.42
611.594	8.36
612.012	8.28
612.43	8.28
612.847	8.22
613.265	8.18
613.683	8.12
614.101	8.06
614.518	8
614.936	7.95
615.353	7.9
615.771	7.85
616.188	7.81
616.606	7.77
617.023	7.72
617.44	7.68
617.857	7.63
618.274	7.6
618.691	7.58
619.108	7.55
619.525	7.53
619.942	7.49
620.359	7.47
620.776	7.44
621.192	7.42
621.609	7.41
622.026	7.39
622.442	7.38
622.859	7.36
623.275	7.36
623.691	7.35
624.108	7.33
624.524	7.32
624.94	7.3
625.356	7.31
625.772	7.3
626.188	7.3
626.604	7.28
627.02	7.27
627.436	7.28
627.852	7.26
628.268	7.25
628.683	7.25
629.099	7.25
629.514	7.25
629.93	7.23
630.345	7.22
630.761	7.21
631.176	7.19
631.591	7.19
632.007	7.16
632.422	7.16
632.837	7.14
633.252	7.13
633.667	7.09
634.082	7.06
634.497	7.03
634.911	7
635.326	6.96
635.741	6.93
636.155	6.88
636.57	6.84
636.984	6.77
637.399	6.71
637.813	6.65
638.228	6.61
638.642	6.56
639.056	6.51
639.47	6.44
639.884	6.4
640.298	6.34
640.712	6.28
641.126	6.22
641.54	6.18
641.954	6.14
642.368	6.09
642.781	6.04
643.195	5.97
643.609	5.92
644.022	5.87
644.436	5.82
644.849	5.77
645.262	5.73
645.676	5.68
646.089	5.64
646.502	5.59
646.915	5.55
647.328	5.52
647.741	5.49
648.154	5.46
648.567	5.45
648.98	5.43
649.393	5.4
649.805	5.37
650.218	5.34
650.631	5.32
651.043	5.3
651.456	5.27
651.868	5.25
652.28	5.24
652.693	5.2
653.105	5.17
653.517	5.14
653.929	5.13
654.341	5.12
654.753	5.1
655.165	5.07
655.577	5.03
655.989	5
656.401	4.97
656.813	4.94
657.224	4.92
657.636	4.89
658.047	4.86
658.459	4.81
658.87	4.77
659.282	4.75
659.693	4.71
660.104	4.7
660.515	4.66
660.926	4.63
661.338	4.61
661.749	4.56
662.159	4.53
662.57	4.51
662.981	4.49
663.392	4.46
663.803	4.45
664.213	4.44
664.624	4.43
665.035	4.41
665.445	4.41
665.855	4.41
666.266	4.41
666.676	4.41
667.086	4.41
667.497	4.41
667.907	4.42
668.317	4.41
668.727	4.41
669.137	4.4
669.547	4.43
669.956	4.42
670.366	4.44
670.776	4.45
671.186	4.46
671.595	4.47
672.005	4.48
672.414	4.5
672.824	4.53
673.233	4.55
673.642	4.56
674.052	4.56
674.461	4.6
674.87	4.6
675.279	4.62
675.688	4.63
676.097	4.66
676.506	4.68
676.915	4.69
677.323	4.72
677.732	4.74
678.141	4.77
678.549	4.82
678.958	4.85
679.366	4.88
679.775	4.92
680.183	4.95
680.592	5
681	5.05
681.408	5.09
681.816	5.13
682.224	5.18
682.632	5.24
683.04	5.28
683.448	5.33
683.856	5.39
684.264	5.46
684.671	5.55
685.079	5.62
685.487	5.71
685.894	5.82
686.302	5.92
686.709	6.05
687.116	6.19
687.524	6.35
687.931	6.51
688.338	6.7
688.745	6.91
689.152	7.14
689.559	7.38
689.966	7.64
690.373	7.93
690.78	8.23
691.187	8.56
691.593	8.9
692	9.25
692.407	9.64
692.813	10.03
693.22	10.43
693.626	10.84
694.032	11.27
694.439	11.72
694.845	12.17
695.251	12.65
695.657	13.11
696.063	13.6
696.469	14.1
696.875	14.59
697.281	15.07
697.687	15.59
698.093	16.11
698.498	16.63
698.904	17.14
699.31	17.67
699.715	18.19
700.12	18.71
700.526	19.23
700.931	19.75
701.337	20.28
701.742	20.81
702.147	21.31
702.552	21.83
702.957	22.34
703.362	22.87
703.767	23.36
704.172	23.85
704.577	24.33
704.981	24.79
705.386	25.27
705.791	25.75
706.195	26.23
706.6	26.71
707.004	27.19
707.408	27.65
707.813	28.09
708.217	28.54
708.621	28.99
709.025	29.44
709.43	29.89
709.834	30.33
710.237	30.75
710.641	31.19
711.045	31.61
711.449	32.02
711.853	32.43
712.256	32.84
712.66	33.26
713.064	33.67
713.467	34.07
713.87	34.51
714.274	34.93
714.677	35.33
715.08	35.68
715.484	36.07
715.887	36.45
716.29	36.84
716.693	37.21
717.096	37.55
717.499	37.89
717.901	38.23
718.304	38.55
718.707	38.87
719.109	39.18
719.512	39.52
719.915	39.83
720.317	40.14
720.719	40.43
721.122	40.71
721.524	41.03
721.926	41.33
722.328	41.62
722.731	41.89
723.133	42.16
723.535	42.42
723.937	42.66
724.338	42.9
724.74	43.12
725.142	43.36
725.544	43.59
725.945	43.8
726.347	44
726.748	44.19
727.15	44.39
727.551	44.58
727.952	44.79
728.354	45.01
728.755	45.2
729.156	45.36
729.557	45.54
729.958	45.74
730.359	45.9
730.76	46.05
731.161	46.24
731.562	46.41
731.962	46.54
732.363	46.66
732.763	46.8
733.164	46.9
733.564	47.03
733.965	47.14
734.365	47.2
734.766	47.3
735.166	47.38
735.566	47.43
735.966	47.48
736.366	47.55
736.766	47.63
737.166	47.69
737.566	47.76
737.966	47.86
738.365	47.92
738.765	48.01
739.165	48.06
739.564	48.13
739.964	48.19
740.363	48.3
740.763	48.38
741.162	48.44
741.561	48.49
741.96	48.58
742.36	48.64
742.759	48.67
743.158	48.7
743.557	48.75
743.955	48.84
744.354	48.92
744.753	48.94
745.152	48.94
745.55	48.98
745.949	49.03
746.348	49.03
746.746	49.03
747.144	49.1
747.543	49.16
747.941	49.22
748.339	49.2
748.737	49.25
749.136	49.25
749.534	49.3
749.932	49.3
750.33	49.29
750.727	49.34
751.125	49.38
751.523	49.38
751.921	49.38
752.318	49.39
752.716	49.4
753.113	49.39
753.511	49.41
753.908	49.42
754.305	49.45
754.703	49.46
755.1	49.44
755.497	49.45
755.894	49.47
756.291	49.48
756.688	49.48
757.085	49.5
757.482	49.52
757.878	49.53
758.275	49.54
758.672	49.57
759.068	49.59
759.465	49.61
759.861	49.62
760.258	49.61
760.654	49.63
761.05	49.63
761.447	49.64
761.843	49.63
762.239	49.65
762.635	49.64
763.031	49.62
763.427	49.61
763.822	49.62
764.218	49.63
764.614	49.64
765.01	49.6
765.405	49.58
765.801	49.58
766.196	49.6
766.592	49.6
766.987	49.61
767.382	49.64
767.778	49.65
768.173	49.66
768.568	49.61
768.963	49.61
769.358	49.62
769.753	49.67
770.148	49.63
770.542	49.62
770.937	49.59
771.332	49.58
771.726	49.55
772.121	49.55
772.515	49.55
772.91	49.59
773.304	49.6
773.699	49.63
774.093	49.6
774.487	49.65
774.881	49.65
775.275	49.66
775.669	49.7
776.063	49.67
776.457	49.62
776.851	49.61
777.245	49.63
777.638	49.64
778.032	49.61
778.425	49.61
778.819	49.61
779.212	49.59
779.606	49.59
779.999	49.57
780.392	49.59
780.786	49.63
781.179	49.64
781.572	49.61
781.965	49.58
782.358	49.61
782.751	49.62
783.143	49.64
783.536	49.69
783.929	49.71
784.322	49.7
784.714	49.73
785.107	49.76
785.499	49.75
785.891	49.78
786.284	49.75
786.676	49.77
787.068	49.75
787.46	49.72
787.852	49.72
788.245	49.68
788.636	49.67
789.028	49.66
789.42	49.66
789.812	49.68
790.204	49.64
790.595	49.65
790.987	49.65
791.378	49.65
791.77	49.69
792.161	49.67
792.553	49.7
792.944	49.72
793.335	49.76
793.726	49.71
794.117	49.69
794.508	49.72
794.899	49.74
795.29	49.72
795.681	49.73
796.072	49.7
796.463	49.7
796.853	49.7
797.244	49.7
797.634	49.66
798.025	49.71
798.415	49.71
798.806	49.71
799.196	49.71
799.586	49.7
799.976	49.69
800.366	49.69
800.756	49.69
801.146	49.67
801.536	49.63
801.926	49.61
802.316	49.6
802.706	49.6
803.095	49.56
803.485	49.52
803.874	49.51
804.264	49.54
804.653	49.51
805.043	49.52
805.432	49.53
805.821	49.52
806.21	49.54
806.599	49.56
806.988	49.55
807.377	49.58
807.766	49.59
808.155	49.6
808.544	49.54
808.933	49.56
809.321	49.55
809.71	49.55
810.098	49.56
810.487	49.57
810.875	49.54
811.264	49.55
811.652	49.56
812.04	49.54
812.428	49.54
812.816	49.56
813.204	49.57
813.592	49.57
813.98	49.55
814.368	49.55
814.756	49.51
815.144	49.53
815.531	49.5
815.919	49.45
816.306	49.45
816.694	49.46
817.081	49.44
817.469	49.44
817.856	49.44
818.243	49.44
818.63	49.45
819.017	49.48
819.404	49.44
819.791	49.45
820.178	49.47
820.565	49.47
820.952	49.46
821.339	49.5
821.725	49.48
822.112	49.48
822.498	49.49
822.885	49.47
823.271	49.46
823.657	49.46
824.044	49.44
824.43	49.45
824.816	49.45
825.202	49.43
825.588	49.39
825.974	49.4
826.36	49.37
826.746	49.38
827.132	49.37
827.517	49.41
827.903	49.44
828.289	49.47
828.674	49.43
829.06	49.45
829.445	49.49
829.83	49.5
830.216	49.49
830.601	49.53
830.986	49.54
831.371	49.58
831.756	49.52
832.141	49.54
832.526	49.54
832.911	49.59
833.295	49.57
833.68	49.56
834.065	49.59
834.449	49.56
834.834	49.52
835.218	49.52
835.603	49.52
835.987	49.52
836.371	49.5
836.755	49.46
837.139	49.44
837.524	49.46
837.908	49.44
838.291	49.44
838.675	49.47
839.059	49.48
839.443	49.45
839.827	49.41
840.21	49.44
840.594	49.42
840.977	49.44
841.361	49.46
841.744	49.45
842.127	49.44
842.511	49.41
842.894	49.39
843.277	49.4
843.66	49.41
844.043	49.44
844.426	49.41
844.809	49.43
845.191	49.42
845.574	49.39
845.957	49.37
846.339	49.37
846.722	49.4
847.104	49.4
847.487	49.41
847.869	49.4
848.252	49.39
848.634	49.41
849.016	49.37
849.398	49.39
849.78	49.39
850.162	49.36
850.544	49.39
850.926	49.35
851.307	49.35
851.689	49.33
852.071	49.32
852.452	49.32
852.834	49.33
853.215	49.35
853.597	49.35
853.978	49.34
854.359	49.33
854.741	49.31
855.122	49.34
855.503	49.35
855.884	49.34
856.265	49.35
856.646	49.36
857.026	49.35
857.407	49.29
857.788	49.28
858.169	49.28
858.549	49.33
858.93	49.33
859.31	49.27
859.69	49.27
860.071	49.26
860.451	49.24
860.831	49.22
861.211	49.22
861.591	49.28
861.971	49.27
862.351	49.3
862.731	49.29
863.111	49.27
863.491	49.33
863.87	49.34
864.25	49.35
864.629	49.35
865.009	49.35
865.388	49.32
865.768	49.3
866.147	49.31
866.526	49.28
866.905	49.28
867.284	49.3
867.663	49.3
868.042	49.29
868.421	49.32
868.8	49.33
869.179	49.32
869.558	49.33
869.936	49.34
870.315	49.32
870.693	49.34
871.072	49.34
871.45	49.32
871.828	49.3
872.207	49.3
872.585	49.26
872.963	49.25
873.341	49.27
873.719	49.27
874.097	49.24
874.475	49.27
874.853	49.25
875.23	49.27
875.608	49.28
875.986	49.27
876.363	49.27
876.741	49.28
877.118	49.27
877.495	49.24
877.873	49.24
878.25	49.27
878.627	49.24
879.004	49.24
879.381	49.18
879.758	49.16
880.135	49.16
880.512	49.16
880.889	49.16
881.265	49.19
881.642	49.2
882.019	49.2
882.395	49.17
882.772	49.16
883.148	49.14
883.524	49.18
883.901	49.15
884.277	49.14
884.653	49.13
885.029	49.14
885.405	49.11
885.781	49.11
886.157	49.11
886.532	49.1
886.908	49.1
887.284	49.14
887.659	49.15
888.035	49.16
888.411	49.17
888.786	49.15
889.161	49.12
889.537	49.15
889.912	49.13
890.287	49.14
890.662	49.15
891.037	49.14
891.412	49.1
891.787	49.06
892.162	49.05
892.536	49.05
892.911	49.04
893.286	49.03
893.66	49.02
894.035	49
894.409	49
894.784	49.03
895.158	49.05
895.532	49.03
895.906	49.03
896.281	49.03
896.655	49.03
897.029	49.03
897.402	49.04
897.776	49.05
898.15	49.05
898.524	49.06
898.898	49.02
899.271	48.98
899.645	49.01
900.018	49.02
900.392	49.05
900.765	49.04
901.138	49.05
901.511	49.05
901.884	49.08
902.258	49.1
902.631	49.09
903.003	49.08
903.376	49.11
903.749	49.11
904.122	49.11
904.495	49.09
904.867	49.11
905.24	49.13
905.612	49.12
905.985	49.05
906.357	49.01
906.729	49.01
907.102	49.03
907.474	49.01
907.846	49
908.218	49.01
908.59	49
908.962	48.99
909.334	48.99
909.705	49
910.077	48.99
910.449	49.04
910.82	49.03
911.192	49.05
911.563	49.06
911.935	49.04
912.306	49.04
912.677	49.08
913.048	49.1
913.419	49.05
913.79	49.06
914.161	49.09
914.532	49.09
914.903	49.11
915.274	49.11
915.645	49.12
916.015	49.16
916.386	49.15
916.756	49.12
917.127	49.13
917.497	49.18
917.868	49.17
918.238	49.19
918.608	49.19
918.978	49.14
919.348	49.1
919.718	49.13
920.088	49.12
920.458	49.14
920.828	49.16
921.198	49.15
921.567	49.12
921.937	49.16
922.306	49.14
922.676	49.15
923.045	49.19
923.415	49.2
923.784	49.19
924.153	49.17
924.522	49.16
924.891	49.15
925.26	49.14
925.629	49.12
925.998	49.11
926.367	49.12
926.736	49.12
927.104	49.15
927.473	49.16
927.842	49.16
928.21	49.2
928.578	49.19
928.947	49.2
929.315	49.24
929.683	49.3
930.051	49.33
930.42	49.36
930.788	49.39
931.156	49.37
931.523	49.4
931.891	49.4
932.259	49.37
932.627	49.36
932.994	49.38
933.362	49.38
933.729	49.36
934.097	49.36
934.464	49.34
934.831	49.29
935.199	49.28
935.566	49.27
935.933	49.35
936.3	49.39
936.667	49.5
937.034	49.57
937.401	49.57
937.767	49.61
938.134	49.69
938.501	49.7
938.867	49.84
939.234	50.02
939.6	50.09
939.967	50.12
940.333	50.26
940.699	50.34
941.065	50.42
941.431	50.55
941.798	50.71
942.163	50.8
942.529	50.92
942.895	51.03
943.261	51.01
943.627	51.12
943.992	51.22
944.358	51.23
944.723	51.19
945.089	51.15
945.454	51.24
945.82	51.15
946.185	51.11
946.55	51.18
946.915	51.03
947.28	51.03
947.645	50.98
948.01	50.85
948.375	50.8
948.74	50.69
949.104	50.67
949.469	50.48
949.834	50.39
950.198	50.3
950.562	50.14
950.927	50.13
951.291	50.02
951.655	49.89
952.02	49.82
952.384	49.83
952.748	49.85
953.112	49.81
953.476	49.79
953.839	49.82
954.203	49.71
954.567	49.73
954.931	49.69
955.294	49.6
955.658	49.57
956.021	49.58
956.385	49.45
956.748	49.39
957.111	49.28
957.474	49.29
957.837	49.3
958.2	49.29
958.563	49.21
958.926	49.15
959.289	49.19
959.652	49.2
960.015	49.21
960.377	49.23
960.74	49.22
961.102	49.25
961.465	49.24
961.827	49.12
962.189	49.15
962.552	49.18
962.914	49.18
963.276	49.17
963.638	49.12
964	49.05
964.362	49.04
964.724	49.08
965.085	49.07
965.447	49.02
965.809	49.01
966.17	48.94
966.532	48.95
966.893	48.99
967.255	49.03
967.616	49.12
967.977	49.17
968.338	49.1
968.699	49.03
969.061	48.98
969.421	49.05
969.782	49.09
970.143	49.14
970.504	49.14
970.865	49.09
971.225	49.07
971.586	49.02
971.946	49.04
972.307	49.11
972.667	49.19
973.027	49.29
973.388	49.23
973.748	49.26
974.108	49.3
974.468	49.31
974.828	49.43
975.188	49.39
975.548	49.43
975.907	49.45
976.267	49.52
976.627	49.51
976.986	49.45
977.346	49.53
977.705	49.6
978.064	49.68
978.424	49.68
978.783	49.67
979.142	49.67
979.501	49.7
979.86	49.69
980.219	49.58
980.578	49.64
980.937	49.72
981.296	49.74
981.654	49.76
982.013	49.68
982.371	49.68
982.73	49.59
983.088	49.53
983.447	49.55
983.805	49.58
984.163	49.74
984.521	49.67
984.879	49.67
985.237	49.7
985.595	49.66
985.953	49.67
986.311	49.69
986.669	49.84
987.026	50.01
987.384	50.02
987.741	50.11
988.099	50.12
988.456	50.27
988.814	50.28
989.171	50.29
989.528	50.32
989.885	50.44
990.242	50.45
990.599	50.51
990.956	50.59
991.313	50.57
991.67	50.59
992.027	50.62
992.383	50.67
992.74	50.73
993.096	50.83
993.453	50.86
993.809	50.99
994.165	51.13
994.522	51.13
994.878	51.15
995.234	51.28
995.59	51.22
995.946	51.32
996.302	51.26
996.658	51.33
997.013	51.4
997.369	51.57
997.725	51.63
998.08	51.65
998.436	51.78
998.791	51.7
999.147	51.76
999.502	51.87
999.857	51.89
1000.212	51.98
1000.567	52.05
1000.922	52.07
1001.277	51.99
1001.632	51.99
1001.987	52.14
1002.342	52.17
1002.696	52.39
1003.051	52.38
1003.406	52.48
1003.76	52.48
1004.114	52.68
1004.469	52.79
1004.823	52.81
1005.177	53.1
1005.531	52.98
1005.885	52.84
1006.239	52.88
1006.593	52.89
1006.947	52.9
1007.301	53.04
1007.655	53.15
1008.008	53.04
1008.362	53.2
1008.715	53.26
1009.069	53.01
1009.422	53.29
1009.776	53.32
1010.129	53.32
1010.482	53.61
1010.835	54.05
1011.188	54.02
1011.541	53.93
1011.894	54.09
1012.247	53.93
1012.6	54.14
1012.952	54.57
1013.305	54.57
1013.657	54.96
1014.01	55.28
1014.362	55.36
1014.715	55.23
1015.067	55.39
1015.419	56.02
1015.771	56.33
1016.123	56.43
1016.475	56.6
1016.827	56.73
1017.179	56.92
1017.531	56.81
1017.883	56.97
1018.234	57.26
1018.586	57.31
1018.938	57.44
1019.289	57.07
1019.64	57.16
1019.992	57.57
1020.343	57.67
1020.694	57.91
1021.045	58.15
1021.396	58.33
1021.747	58.61
1022.098	58.65
1022.449	58.99
1022.8	59.5
1023.151	59.73
1023.501	59.88
1023.852	60.16
1024.202	60.36
1024.553	60.34
1024.903	60.29
1025.253	60.8
1025.604	60.81
1025.954	60.69
1026.304	61.01
1026.654	61.28
1027.004	62.02
1027.354	61.98
1027.703	61.97
1028.053	62.02
1028.403	62.22
1028.753	62.5
1029.102	62.41
1029.452	62.37
1029.801	62.51
1030.15	62.38
1030.499	62
897.758	593.63
901.051	606.71
904.343	609.01
907.636	602.21
910.928	590.35
914.22	599.66
917.511	591.86
920.803	564.77
924.094	542.05
927.384	547.52
930.675	528.6
933.965	521.85
937.255	517.88
940.544	496.06
943.834	474.3
947.123	466.72
950.411	445.35
953.7	434.32
956.988	421.58
960.276	402.92
963.563	395.15
966.851	377.35
970.138	370.38
973.424	345.36
976.711	339.89
979.997	326.75
983.283	320.78
986.568	308.46
989.853	300.59
993.138	291.58
996.423	286.51
999.708	278.28
1002.992	277.55
1006.275	267.56
1009.559	266.86
1012.842	259.75
1016.125	250.83
1019.408	245.51
1022.69	244.18
1025.972	241.92
1029.254	234.25
1032.536	230.39
1035.817	223.05
1039.098	220.6
1042.379	217.31
1045.659	213.33
1048.939	210.03
1052.219	208.4
1055.498	205.83
1058.778	201.96
1062.057	198.26
1065.335	197.99
1068.614	193.47
1071.892	191.46
1075.17	186.52
1078.447	184.06
1081.724	183.32
1085.001	180.76
1088.278	178.82
1091.554	177.34
1094.83	175.58
1098.106	172.94
1101.382	172.38
1104.657	171.24
1107.932	170.56
1111.206	170.02
1114.481	169.04
1117.755	167.6
1121.029	166.58
1124.302	164.49
1127.575	161.39
1130.848	161.13
1134.121	158.06
1137.393	157.25
1140.665	156.42
1143.937	154.87
1147.208	151.68
1150.48	149.73
1153.75	148.13
1157.021	147.42
1160.291	147.66
1163.561	146.75
1166.831	145.61
1170.101	146.22
1173.37	145.18
1176.639	144.49
1179.907	144.3
1183.176	144.89
1186.444	145.31
1189.711	144.57
1192.979	145.3
1196.246	144.88
1199.513	144.56
1202.78	144.68
1206.046	145.01
1209.312	144.92
1212.578	145.63
1215.843	147.51
1219.108	148.72
1222.373	150.76
1225.638	153.08
1228.902	156.39
1232.166	160.68
1235.43	163.12
1238.693	167.17
1241.956	170.96
1245.219	176.23
1248.482	177.66
1251.744	176.75
1255.006	178.19
1258.268	172.88
1261.529	171.49
1264.79	167.07
1268.051	163.62
1271.312	162.74
1274.572	160.05
1277.832	154.79
1281.092	153.08
1284.351	150.01
1287.61	150.13
1290.869	148.22
1294.128	148.55
1297.386	147.51
1300.644	147.02
1303.902	147.1
1307.159	145.34
1310.416	145.62
1313.673	148.7
1316.93	149.16
1320.186	151.38
1323.442	152.96
1326.697	156.95
1329.953	158.48
1333.208	164.2
1336.463	170.43
1339.717	173.06
1342.972	183.39
1346.226	189.4
1349.479	190.51
1352.733	199.14
1355.986	202.96
1359.238	207.65
1362.491	208.47
1365.743	215.92
1368.995	216.52
1372.247	216.41
1375.498	215.51
1378.749	221.22
1382	219.43
1385.251	218.85
1388.501	217.9
1391.751	221.59
1395	220.72
1398.25	222.08
1401.499	220.06
1404.748	220.03
1407.996	216.55
1411.244	217.71
1414.492	212.79
1417.74	206.91
1420.987	202.54
1424.234	198.3
1427.481	191.84
1430.728	186.38
1433.974	180.36
1437.22	174.04
1440.465	168.43
1443.711	162.87
1446.956	157.74
1450.201	152.36
1453.445	145.77
1456.689	141.39
1459.933	137.36
1463.177	130.25
1466.42	127.84
1469.663	123.73
1472.906	120.79
1476.148	117.4
1479.391	115.08
1482.633	112.77
1485.874	111.07
1489.115	110.07
1492.356	107.91
1495.597	106.39
1498.838	105.62
1502.078	104.3
1505.318	104.1
1508.557	103.35
1511.797	102.2
1515.036	102.05
1518.274	101.54
1521.513	100.17
1524.751	99.69
1527.989	100.86
1531.227	100.44
1534.464	100.89
1537.701	99.72
1540.938	99.45
1544.174	99.37
1547.41	99.41
1550.646	98.59
1553.882	99.05
1557.117	98.35
1560.352	98.31
1563.587	97.25
1566.821	97.07
1570.055	96.82
1573.289	96.35
1576.523	96.52
1579.756	95.91
1582.989	96.39
1586.222	96.21
1589.454	95.65
1592.686	95.03
1595.918	95.18
1599.15	94.98
1602.381	94.97
1605.612	94.82
1608.843	95.42
1612.073	95.9
1615.303	96.06
1618.533	95.43
1621.762	95.62
1624.992	96.05
1628.221	96.88
1631.449	96.99
1634.678	97.21
1637.906	97.45
1641.134	97.23
1644.361	97.2
1647.588	96.64
1650.815	96.97
1654.042	97.11
1657.269	96.84
1660.495	97.15
1663.72	97.1
1666.946	96.89
1670.171	97.12
1673.396	97.3
1676.621	98.48
1679.845	98.62
1683.069	98.95
1686.293	98.46
1689.517	98.83
1692.74	99.31
1695.963	99.37
1699.185	99.83
1702.408	100.27
1705.63	99.9
1708.852	101.11
1712.073	99.19
1715.294	99.38
1718.515	99.86
1721.736	100.54
1724.956	99.95
1728.176	100.01
1731.396	100.27
1734.616	100.33
1737.835	100.17
1741.054	100.56
1744.272	99.79
1747.491	101.13
1750.709	101.36
1753.927	100.93
1757.144	101.15
1760.361	102.08
1763.578	102.48
1766.795	102.74
1770.011	103.71
1773.227	103.96
1776.443	104.46
1779.658	104.64
1782.874	105.11
1786.089	105.66
1789.303	106.04
1792.518	107.21
1795.732	107.71
1798.945	108.92
1802.159	108.95
1805.372	109.7
1808.585	110.6
1811.797	111.41
1815.01	112.26
1818.222	113.15
1821.434	113.96
1824.645	114.93
1827.856	115.85
1831.067	116.06
1834.278	117.41
1837.488	117.54
1840.698	118.47
1843.908	118.91
1847.117	120.3
1850.326	120.95
1853.535	121.58
1856.744	122.61
1859.952	123.73
1863.16	123.74
1866.368	124.8
1869.575	124.58
1872.782	125.42
1875.989	123.82
1879.196	124.16
1882.402	122.93
1885.608	123.91
1888.814	123.46
1892.019	123.9
1895.224	122.02
1898.429	123.11
1901.634	123.53
1904.838	123.59
1908.042	123.8
1911.246	124.92
1914.449	124.78
1917.652	125.11
1920.855	125.78
1924.058	125.02
1927.26	124.72
1930.462	125.61
1933.664	125.26
1936.865	124.47
1940.066	123.96
1943.267	123.54
1946.467	124.47
1949.668	123.83
1952.868	124.64
1956.067	123.76
1959.267	124.98
1962.466	125.89
1965.665	126.64
1968.863	126.68
1972.061	128.26
1975.259	130.81
1978.457	130.96
1981.654	131.15
1984.852	133.03
1988.048	134.18
1991.245	137.36
1994.441	139.13
1997.637	142.04
2000.833	144.95
2004.028	147.33
2007.223	150.45
2010.418	153.53
2013.613	162.57
2016.807	167.72
2020.001	170.7
2023.194	175.49
2026.388	181.23
2029.581	190.57
2032.774	196.11
2035.966	201.84
2039.158	207.49
2042.35	211.71
2045.542	215.02
2048.733	222.53
2051.924	224.4
2055.115	229.64
2058.306	232.09
2061.496	234.9
2064.686	233.69
2067.875	233.27
2071.065	237.75
2074.254	237.87
2077.442	245.42
2080.631	247.37
2083.819	246.75
2087.007	252.21
2090.195	255.16
2093.382	254.9
2096.569	254.34
2099.756	261.1
2102.942	266.46
2106.128	270.34
2109.314	273.35
2112.5	272.35
2115.685	272.74
2118.87	273.38
2122.055	273.82
2125.239	280.19
2128.424	288.4
2131.608	287.11
2134.791	285.45
2137.974	287.56
2141.157	290.12
2144.34	293.37
2147.523	297.32
2150.705	304.09
2153.887	300.89
2157.068	305.91
2160.25	306.13
2163.431	304.67
2166.611	309.37
2169.792	315.23
2172.972	321.04
2176.152	320.4
2179.331	326.97
2182.511	326.39
2185.69	328.36
2188.868	342.67
2192.047	350.48
2195.225	354.77
2198.403	362.06
2201.58	357.82
2204.758	374.43
2207.935	372.01
2211.111	381.67
2214.288	383.54
2217.464	388.49
2220.64	393.7
2223.815	393.78
2226.991	391.48
2230.166	396.2
2233.34	405.34
2236.515	418.53
2239.689	406.43
2242.863	416.61
2246.036	408.71
2249.209	421.81
2252.382	421.26
2255.555	435.17
2258.727	438.59
2261.9	445.3
2265.071	452.02
2268.243	448.55
2271.414	462.22
2274.585	474.21
2277.756	472.97
2280.926	490.93
2284.096	489.67
2287.266	492.06
2290.436	481.63
2293.605	492.73
2296.774	514.86
2299.942	513.49
2303.111	530.45
2306.279	536.9
2309.447	539.36
2312.614	540.54
2315.781	556.13
2318.948	563.03
2322.115	575.12
2325.281	603.12
2328.447	598.54
2331.613	602.61
2334.779	613.23
2337.944	618.12
2341.109	631.53
2344.274	639.6
2347.438	658.5
2350.602	668.79
2353.766	706.24
2356.929	709.5
2360.092	718.18
2363.255	719.29
2366.418	723.14
2369.58	738.38
2372.742	740.42
2375.904	737.77
2379.066	754.89
2382.227	798.33
2385.388	799.37
2388.548	757
2391.709	751.9
2394.869	774.27
2398.029	784.9
2401.188	783.68
2404.347	804.92
2407.506	832.51
2410.665	803.85
2413.823	805.83
2416.981	810.05
2420.139	764.02
2423.296	824.82
2426.453	883.08
2429.61	848.19
2432.767	900.07
2435.923	934.71
2439.079	898.22
2442.235	916.26
2445.391	938.21
2448.546	933.66
2451.701	974.08
2454.855	1043.45
2458.009	928.81
2461.163	935.41
2464.317	948.25
2467.471	922.81
2470.624	954.6
2473.777	950.21
2476.929	920.83
2480.082	983.68
2483.234	1031.98
2486.385	1044.6
2489.537	1069.86
2492.688	1182.99
2495.839	1164.36
2498.989	1188.78
2502.14	1205.4
2505.29	1143.62
2508.439	1261.69
2511.589	1298.85
2514.738	1258.51
2517.887	1246.78
2521.035	1177.58
2524.183	1160.92
2527.331	1146.18
2530.479	1120.47
2533.627	1151.85
