Data from C_2_hir_wi_4n_078_Splice17_01.txt Node
Date: Sat Feb 29 14:19:48 EST 2020
User: sa697716
Spectrometer: FLMS03696
Trigger mode: 0
Integration Time (sec): 3.180400E-1
Scans to average: 20
Electric dark correction enabled: true
Nonlinearity correction enabled: true
Boxcar width: 5
XAxis mode: Wavelengths
Number of Pixels in Spectrum: 2048
>>>>>Begin Spectral Data<<<<<
187.83	43.18
188.298	35.38
188.766	39.36
189.233	41.27
189.701	42.24
190.169	42.77
190.636	49.99
191.104	22.42
191.571	216.5
192.039	357.42
192.506	-126.23
192.974	4841.63
193.441	-121.06
193.908	78.44
194.375	80.01
194.842	161.46
195.31	112.76
195.777	96.48
196.244	43.64
196.711	46.57
197.177	45.4
197.644	43.2
198.111	42.23
198.578	42.06
199.045	42.08
199.511	42.8
199.978	42.61
200.445	41.44
200.911	41.39
201.378	40.89
201.844	41.12
202.31	40.5
202.777	40.21
203.243	40.5
203.709	40.67
204.176	39.87
204.642	38.97
205.108	38.31
205.574	38.99
206.04	38.66
206.506	38.4
206.972	37.9
207.438	37.71
207.903	37.58
208.369	36.3
208.835	35.61
209.301	35.13
209.766	34.52
210.232	33.77
210.697	32.5
211.163	31.99
211.628	31.21
212.094	30.09
212.559	28.98
213.024	28.04
213.49	27.56
213.955	26.69
214.42	25.78
214.885	24.5
215.35	23.29
215.815	21.63
216.28	19.64
216.745	17.87
217.21	15.86
217.675	14.08
218.14	12.3
218.604	10.64
219.069	9.32
219.534	8.18
219.998	7.28
220.463	6.49
220.927	5.91
221.392	5.41
221.856	4.92
222.32	4.56
222.785	4.21
223.249	3.92
223.713	3.72
224.177	3.47
224.642	3.32
225.106	3.14
225.57	2.96
226.034	2.82
226.497	2.67
226.961	2.5
227.425	2.37
227.889	2.26
228.353	2.17
228.816	2.06
229.28	1.94
229.744	1.86
230.207	1.81
230.671	1.75
231.134	1.67
231.597	1.61
232.061	1.57
232.524	1.54
232.987	1.5
233.45	1.46
233.914	1.44
234.377	1.42
234.84	1.38
235.303	1.35
235.766	1.33
236.229	1.31
236.691	1.29
237.154	1.28
237.617	1.25
238.08	1.22
238.542	1.2
239.005	1.18
239.468	1.16
239.93	1.15
240.393	1.12
240.855	1.09
241.317	1.09
241.78	1.08
242.242	1.05
242.704	1.03
243.166	1.03
243.629	1.02
244.091	1
244.553	0.99
245.015	0.99
245.477	0.97
245.939	0.95
246.4	0.94
246.862	0.92
247.324	0.94
247.786	0.93
248.247	0.91
248.709	0.9
249.17	0.88
249.632	0.86
250.093	0.83
250.555	0.83
251.016	0.83
251.477	0.82
251.939	0.79
252.4	0.77
252.861	0.77
253.322	0.75
253.783	0.75
254.244	0.74
254.705	0.73
255.166	0.74
255.627	0.73
256.088	0.71
256.549	0.71
257.009	0.71
257.47	0.7
257.931	0.68
258.391	0.65
258.852	0.63
259.312	0.62
259.773	0.6
260.233	0.58
260.694	0.57
261.154	0.56
261.614	0.54
262.074	0.53
262.534	0.5
262.994	0.5
263.455	0.5
263.915	0.48
264.374	0.47
264.834	0.46
265.294	0.46
265.754	0.44
266.214	0.44
266.673	0.43
267.133	0.42
267.593	0.42
268.052	0.41
268.512	0.4
268.971	0.4
269.431	0.4
269.89	0.39
270.349	0.39
270.809	0.39
271.268	0.39
271.727	0.39
272.186	0.39
272.645	0.39
273.104	0.4
273.563	0.4
274.022	0.4
274.481	0.4
274.94	0.4
275.399	0.41
275.857	0.41
276.316	0.41
276.775	0.41
277.233	0.41
277.692	0.41
278.15	0.4
278.609	0.4
279.067	0.4
279.525	0.4
279.984	0.41
280.442	0.41
280.9	0.41
281.358	0.42
281.816	0.43
282.274	0.43
282.732	0.44
283.19	0.46
283.648	0.46
284.106	0.46
284.564	0.47
285.021	0.48
285.479	0.49
285.937	0.49
286.394	0.49
286.852	0.49
287.309	0.49
287.767	0.49
288.224	0.48
288.682	0.48
289.139	0.48
289.596	0.47
290.053	0.46
290.511	0.44
290.968	0.45
291.425	0.45
291.882	0.44
292.339	0.43
292.796	0.43
293.252	0.42
293.709	0.42
294.166	0.41
294.623	0.41
295.079	0.42
295.536	0.42
295.992	0.42
296.449	0.42
296.905	0.41
297.362	0.41
297.818	0.41
298.274	0.41
298.731	0.41
299.187	0.42
299.643	0.41
300.099	0.42
300.555	0.42
301.011	0.42
301.467	0.42
301.923	0.42
302.379	0.43
302.835	0.44
303.291	0.44
303.746	0.43
304.202	0.43
304.658	0.44
305.113	0.44
305.569	0.43
306.024	0.43
306.479	0.43
306.935	0.43
307.39	0.43
307.845	0.44
308.301	0.44
308.756	0.45
309.211	0.46
309.666	0.46
310.121	0.46
310.576	0.47
311.031	0.48
311.486	0.5
311.94	0.5
312.395	0.51
312.85	0.51
313.305	0.52
313.759	0.51
314.214	0.51
314.668	0.51
315.123	0.52
315.577	0.51
316.032	0.51
316.486	0.51
316.94	0.51
317.394	0.51
317.849	0.51
318.303	0.51
318.757	0.5
319.211	0.5
319.665	0.49
320.119	0.5
320.572	0.51
321.026	0.51
321.48	0.5
321.934	0.51
322.387	0.51
322.841	0.51
323.295	0.51
323.748	0.52
324.202	0.52
324.655	0.52
325.108	0.52
325.562	0.51
326.015	0.51
326.468	0.51
326.921	0.5
327.374	0.51
327.827	0.52
328.28	0.51
328.733	0.51
329.186	0.52
329.639	0.51
330.092	0.51
330.545	0.52
330.997	0.53
331.45	0.53
331.903	0.53
332.355	0.54
332.808	0.54
333.26	0.55
333.713	0.56
334.165	0.56
334.617	0.57
335.069	0.58
335.522	0.58
335.974	0.58
336.426	0.6
336.878	0.61
337.33	0.61
337.782	0.61
338.234	0.61
338.686	0.6
339.137	0.59
339.589	0.59
340.041	0.59
340.493	0.58
340.944	0.57
341.396	0.57
341.847	0.56
342.299	0.54
342.75	0.54
343.201	0.53
343.653	0.53
344.104	0.54
344.555	0.53
345.006	0.53
345.457	0.53
345.908	0.54
346.359	0.53
346.81	0.54
347.261	0.54
347.712	0.55
348.163	0.54
348.613	0.54
349.064	0.53
349.515	0.53
349.965	0.53
350.416	0.53
350.866	0.53
351.317	0.53
351.767	0.53
352.217	0.53
352.668	0.54
353.118	0.54
353.568	0.55
354.018	0.56
354.468	0.55
354.918	0.56
355.368	0.57
355.818	0.57
356.268	0.58
356.718	0.58
357.168	0.57
357.617	0.57
358.067	0.56
358.517	0.56
358.966	0.57
359.416	0.59
359.865	0.57
360.315	0.58
360.764	0.58
361.213	0.57
361.663	0.58
362.112	0.58
362.561	0.58
363.01	0.6
363.459	0.6
363.908	0.6
364.357	0.6
364.806	0.6
365.255	0.61
365.703	0.61
366.152	0.62
366.601	0.63
367.05	0.64
367.498	0.64
367.947	0.63
368.395	0.64
368.844	0.64
369.292	0.64
369.74	0.64
370.189	0.64
370.637	0.65
371.085	0.65
371.533	0.65
371.981	0.65
372.429	0.65
372.877	0.65
373.325	0.65
373.773	0.65
374.221	0.65
374.669	0.65
375.116	0.64
375.564	0.63
376.012	0.64
376.459	0.64
376.907	0.65
377.354	0.65
377.801	0.66
378.249	0.68
378.696	0.69
379.143	0.7
379.591	0.72
380.038	0.74
380.485	0.78
380.932	0.81
381.379	0.82
381.826	0.85
382.273	0.88
382.72	0.93
383.166	0.97
383.613	1.03
384.06	1.1
384.506	1.18
384.953	1.28
385.4	1.4
385.846	1.53
386.292	1.71
386.739	1.89
387.185	2.1
387.631	2.28
388.078	2.43
388.524	2.55
388.97	2.69
389.416	2.86
389.862	3.1
390.308	3.39
390.754	3.73
391.2	4.05
391.645	4.32
392.091	4.52
392.537	4.8
392.983	5.24
393.428	5.86
393.874	6.61
394.319	7.43
394.765	8.28
395.21	9.1
395.655	9.98
396.101	10.95
396.546	12.06
396.991	13.31
397.436	14.6
397.881	15.88
398.326	17.1
398.771	18.24
399.216	19.33
399.661	20.33
400.106	21.27
400.551	22.09
400.995	22.79
401.44	23.42
401.885	24.03
402.329	24.67
402.774	25.35
403.218	26.12
403.663	26.98
404.107	27.92
404.551	28.87
404.995	29.76
405.44	30.59
405.884	31.51
406.328	32.61
406.772	33.88
407.216	35.16
407.66	36.35
408.104	37.41
408.547	38.31
408.991	39.13
409.435	40.06
409.879	41.12
410.322	42.35
410.766	43.59
411.209	44.75
411.653	45.77
412.096	46.71
412.54	47.56
412.983	48.45
413.426	49.47
413.869	50.55
414.312	51.59
414.756	52.56
415.199	53.41
415.642	54.19
416.085	54.9
416.527	55.51
416.97	55.9
417.413	56.12
417.856	56.16
418.298	56.14
418.741	56.19
419.184	56.37
419.626	56.69
420.069	57.08
420.511	57.45
420.953	57.82
421.396	58.29
421.838	59.01
422.28	59.97
422.722	61.02
423.164	62.01
423.606	62.87
424.048	63.48
424.49	63.7
424.932	63.39
425.374	62.49
425.816	61.16
426.258	59.81
426.699	58.97
427.141	58.89
427.582	59.52
428.024	60.57
428.465	61.71
428.907	62.81
429.348	63.86
429.789	65.27
430.231	67.56
430.672	70.7
431.113	74.2
431.554	77.51
431.995	80.08
432.436	81.88
432.877	83.22
433.318	84.27
433.759	85.49
434.2	87.08
434.64	89.08
435.081	90.98
435.522	92.57
435.962	93.87
436.403	95.01
436.843	95.99
437.284	97.13
437.724	98.3
438.164	99.83
438.604	101.47
439.045	103.17
439.485	104.69
439.925	105.94
440.365	106.97
440.805	107.71
441.245	108.22
441.685	108.84
442.125	109.61
442.564	110.68
443.004	111.73
443.444	112.88
443.883	114.09
444.323	115.33
444.762	116.58
445.202	118.06
445.641	119.85
446.081	122.02
446.52	124.13
446.959	126.03
447.398	127.41
447.837	128.35
448.276	128.73
448.716	129.01
449.154	129.32
449.593	129.65
450.032	129.79
450.471	129.58
450.91	129.07
451.349	128.52
451.787	128.21
452.226	128
452.664	127.98
453.103	128.09
453.541	128.06
453.98	127.71
454.418	127.17
454.856	126.51
455.295	126.02
455.733	125.55
456.171	125.16
456.609	124.79
457.047	124.42
457.485	124.29
457.923	124.35
458.361	124.6
458.798	125.04
459.236	125.51
459.674	125.98
460.111	126.38
460.549	126.86
460.987	127.45
461.424	127.93
461.862	128.5
462.299	128.93
462.736	129.42
463.173	130.12
463.611	130.95
464.048	132.09
464.485	133.39
464.922	134.83
465.359	136.14
465.796	137.27
466.233	138.52
466.67	139.99
467.106	141.8
467.543	143.72
467.98	145.47
468.416	147.05
468.853	148.35
469.29	149.71
469.726	151.02
470.162	152.53
470.599	154.05
471.035	155.31
471.471	156.12
471.907	156.55
472.344	156.84
472.78	157.05
473.216	157.4
473.652	157.68
474.088	157.77
474.523	157.73
474.959	157.49
475.395	157.24
475.831	156.97
476.266	156.8
476.702	156.58
477.138	156.22
477.573	155.73
478.008	154.89
478.444	154.01
478.879	152.95
479.314	151.75
479.75	150.47
480.185	149
480.62	147.21
481.055	144.86
481.49	141.88
481.925	138.65
482.36	135.75
482.795	133.34
483.229	131.46
483.664	129.83
484.099	128.39
484.534	127.13
484.968	126.13
485.403	125.56
485.837	125.58
486.271	126.12
486.706	126.75
487.14	127.09
487.574	127.03
488.009	126.74
488.443	126.46
488.877	126.2
489.311	125.95
489.745	125.8
490.179	125.68
490.613	125.54
491.046	125.47
491.48	125.57
491.914	125.87
492.348	126.35
492.781	126.77
493.215	127.11
493.648	127.34
494.082	127.49
494.515	127.61
494.948	127.66
495.382	127.71
495.815	127.64
496.248	127.53
496.681	127.3
497.114	127.09
497.547	126.88
497.98	126.88
498.413	127.12
498.846	127.44
499.279	127.67
499.711	127.85
500.144	128.18
500.577	128.78
501.009	129.67
501.442	130.72
501.874	131.8
502.306	132.87
502.739	133.67
503.171	134.44
503.603	135.1
504.036	135.85
504.468	136.78
504.9	137.71
505.332	138.46
505.764	139.13
506.196	139.69
506.627	140.38
507.059	141.15
507.491	141.99
507.923	142.77
508.354	143.59
508.786	144.29
509.217	144.79
509.649	145.27
510.08	145.78
510.512	146.36
510.943	147.01
511.374	147.47
511.805	147.55
512.237	147.33
512.668	146.93
513.099	146.7
513.53	146.56
513.961	146.56
514.391	146.73
514.822	147.14
515.253	147.64
515.684	148.18
516.114	148.93
516.545	149.98
516.975	151.62
517.406	153.46
517.836	155.09
518.267	156.6
518.697	158.04
519.127	159.48
519.558	160.76
519.988	161.94
520.418	163.03
520.848	163.95
521.278	164.7
521.708	164.9
522.138	164.8
522.567	164.76
522.997	164.87
523.427	165.24
523.857	165.55
524.286	166.08
524.716	166.6
525.145	167.03
525.575	167.51
526.004	168.25
526.433	169.44
526.863	170.92
527.292	172.3
527.721	173.3
528.15	173.83
528.579	174.13
529.008	174.13
529.437	174.05
529.866	174.01
530.295	174.1
530.724	174.29
531.152	174.37
531.581	174.44
532.01	174.39
532.438	174.46
532.867	174.75
533.295	175.11
533.723	175.51
534.152	175.77
534.58	175.93
535.008	175.79
535.436	175.37
535.865	174.77
536.293	174.2
536.721	173.95
537.149	173.97
537.576	174.07
538.004	174.2
538.432	174.26
538.86	174.46
539.287	174.85
539.715	175.48
540.143	176.18
540.57	177.13
540.998	178.17
541.425	179.1
541.852	179.98
542.28	180.75
542.707	181.48
543.134	182.14
543.561	182.67
543.988	183.23
544.415	183.84
544.842	184.49
545.269	185.12
545.696	185.64
546.123	186.28
546.549	186.83
546.976	187.37
547.403	187.94
547.829	188.67
548.256	189.3
548.682	189.79
549.108	190.28
549.535	190.78
549.961	191.21
550.387	191.7
550.813	192.14
551.24	192.54
551.666	192.83
552.092	192.92
552.518	192.84
552.943	192.87
553.369	192.89
553.795	192.69
554.221	192.19
554.646	191.58
555.072	190.84
555.498	190.12
555.923	189.52
556.349	189.03
556.774	188.71
557.199	188.43
557.625	188.08
558.05	187.65
558.475	187.34
558.9	187.21
559.325	187.07
559.75	186.89
560.175	186.61
560.6	186.11
561.025	185.36
561.449	184.48
561.874	183.61
562.299	182.84
562.723	182.13
563.148	181.36
563.572	180.49
563.997	179.54
564.421	178.49
564.846	177.48
565.27	176.57
565.694	175.61
566.118	174.58
566.542	173.54
566.966	172.42
567.39	171.37
567.814	170.5
568.238	169.75
568.662	169.21
569.086	168.8
569.509	168.44
569.933	168.05
570.357	167.77
570.78	167.54
571.204	167.32
571.627	167.24
572.05	167.21
572.474	166.99
572.897	166.83
573.32	166.55
573.743	166.25
574.166	165.87
574.589	165.59
575.012	165.55
575.435	165.65
575.858	165.88
576.281	166.09
576.704	166.22
577.126	166.44
577.549	166.74
577.972	167.24
578.394	167.72
578.817	168.25
579.239	168.84
579.661	169.28
580.084	169.67
580.506	169.92
580.928	169.99
581.35	170.04
581.772	169.99
582.194	169.86
582.616	169.66
583.038	169.52
583.46	169.32
583.882	168.75
584.303	167.83
584.725	166.56
585.147	165.25
585.568	164.2
585.99	163.39
586.411	162.77
586.833	162.2
587.254	161.62
587.675	161.05
588.096	160.65
588.518	160.42
588.939	160.57
589.36	161.03
589.781	161.52
590.202	161.8
590.623	161.83
591.043	161.68
591.464	161.41
591.885	161.13
592.305	160.79
592.726	160.34
593.147	159.91
593.567	159.33
593.987	158.76
594.408	158.18
594.828	157.63
595.248	157.08
595.669	156.44
596.089	155.72
596.509	154.91
596.929	154.04
597.349	153.05
597.769	152.11
598.189	151.3
598.608	150.58
599.028	149.93
599.448	149.39
599.867	148.82
600.287	148.35
600.706	147.83
601.126	147.33
601.545	146.89
601.965	146.57
602.384	146.24
602.803	145.89
603.222	145.4
603.641	144.9
604.061	144.25
604.48	143.55
604.898	142.83
605.317	142.2
605.736	141.49
606.155	140.81
606.574	140.16
606.992	139.53
607.411	138.88
607.829	138.29
608.248	137.69
608.666	137.09
609.085	136.51
609.503	135.89
609.921	135.34
610.339	134.89
610.758	134.45
611.176	133.85
611.594	133.16
612.012	132.43
612.43	131.71
612.847	131.08
613.265	130.6
613.683	130.24
614.101	129.89
614.518	129.58
614.936	129.29
615.353	129.02
615.771	128.88
616.188	128.89
616.606	128.9
617.023	128.91
617.44	128.84
617.857	128.6
618.274	128.27
618.691	127.89
619.108	127.43
619.525	126.91
619.942	126.31
620.359	125.63
620.776	124.89
621.192	124.12
621.609	123.43
622.026	122.83
622.442	122.35
622.859	121.79
623.275	121.26
623.691	120.68
624.108	120.17
624.524	119.71
624.94	119.3
625.356	118.88
625.772	118.56
626.188	118.21
626.604	117.82
627.02	117.34
627.436	116.98
627.852	116.72
628.268	116.6
628.683	116.48
629.099	116.4
629.514	116.29
629.93	116.23
630.345	116.2
630.761	116.21
631.176	116.16
631.591	116.16
632.007	116.15
632.422	116.16
632.837	116.14
633.252	116.09
633.667	116.05
634.082	116.08
634.497	116.11
634.911	116.01
635.326	115.79
635.741	115.58
636.155	115.34
636.57	115.06
636.984	114.68
637.399	114.28
637.813	113.92
638.228	113.54
638.642	113.16
639.056	112.74
639.47	112.41
639.884	112.19
640.298	111.97
640.712	111.76
641.126	111.52
641.54	111.29
641.954	111.03
642.368	110.65
642.781	110.28
643.195	109.9
643.609	109.56
644.022	109.17
644.436	108.67
644.849	108.07
645.262	107.45
645.676	106.94
646.089	106.6
646.502	106.32
646.915	106.1
647.328	105.82
647.741	105.59
648.154	105.35
648.567	105.15
648.98	105.04
649.393	105.08
649.805	105.09
650.218	105.01
650.631	104.63
651.043	103.97
651.456	102.82
651.868	101.44
652.28	99.9
652.693	98.57
653.105	97.56
653.517	96.77
653.929	96.19
654.341	95.76
654.753	95.47
655.165	95.34
655.577	95.46
655.989	96.13
656.401	97.06
656.813	98.15
657.224	99.06
657.636	99.66
658.047	100.03
658.459	100.13
658.87	100.09
659.282	99.98
659.693	99.82
660.104	99.64
660.515	99.41
660.926	99.27
661.338	99.01
661.749	98.73
662.159	98.42
662.57	98.08
662.981	97.77
663.392	97.43
663.803	97.13
664.213	96.88
664.624	96.65
665.035	96.31
665.445	95.95
665.855	95.56
666.266	95.18
666.676	94.79
667.086	94.39
667.497	93.95
667.907	93.6
668.317	93.22
668.727	92.83
669.137	92.43
669.547	92.1
669.956	91.75
670.366	91.49
670.776	91.17
671.186	90.91
671.595	90.67
672.005	90.5
672.414	90.27
672.824	90.07
673.233	89.93
673.642	89.73
674.052	89.57
674.461	89.4
674.87	89.23
675.279	89.12
675.688	88.93
676.097	88.8
676.506	88.69
676.915	88.61
677.323	88.55
677.732	88.46
678.141	88.41
678.549	88.39
678.958	88.34
679.366	88.29
679.775	88.18
680.183	88.11
680.592	88.04
681	87.96
681.408	87.84
681.816	87.46
682.224	86.61
682.632	85.32
683.04	83.66
683.448	82.11
683.856	80.72
684.264	79.48
684.671	78.34
685.079	77.23
685.487	76.23
685.894	75.42
686.302	74.94
686.709	75.04
687.116	75.72
687.524	76.9
687.931	78.09
688.338	79.26
688.745	80.4
689.152	81.52
689.559	82.55
689.966	83.5
690.373	84.38
690.78	85.18
691.187	85.92
691.593	86.6
692	87.23
692.407	87.82
692.813	88.35
693.22	88.8
693.626	89.22
694.032	89.65
694.439	90.04
694.845	90.38
695.251	90.67
695.657	90.93
696.063	91.13
696.469	91.2
696.875	91.21
697.281	91.15
697.687	91.14
698.093	91.12
698.498	91.11
698.904	91.19
699.31	91.29
699.715	91.49
700.12	91.69
700.526	91.96
700.931	92.26
701.337	92.59
701.742	92.89
702.147	93.24
702.552	93.57
702.957	93.93
703.362	94.25
703.767	94.48
704.172	94.69
704.577	94.86
704.981	95
705.386	95.11
705.791	95.28
706.195	95.44
706.6	95.52
707.004	95.65
707.408	95.7
707.813	95.74
708.217	95.75
708.621	95.78
709.025	95.85
709.43	95.89
709.834	95.95
710.237	95.92
710.641	95.92
711.045	95.91
711.449	95.79
711.853	95.66
712.256	95.38
712.66	94.94
713.064	94.27
713.467	93.41
713.87	92.4
714.274	91.26
714.677	90.03
715.08	88.8
715.484	87.59
715.887	86.49
716.29	85.57
716.693	84.95
717.096	84.82
717.499	85.06
717.901	85.51
718.304	86.15
718.707	86.87
719.109	87.63
719.512	88.23
719.915	88.78
720.317	89.25
720.719	89.58
721.122	89.77
721.524	89.7
721.926	89.48
722.328	89.24
722.731	88.98
723.133	88.74
723.535	88.58
723.937	88.53
724.338	88.48
724.74	88.42
725.142	88.32
725.544	88.33
725.945	88.33
726.347	88.36
726.748	88.27
727.15	88.27
727.551	88.43
727.952	88.59
728.354	88.94
728.755	89.35
729.156	89.88
729.557	90.54
729.958	91.06
730.359	91.56
730.76	91.92
731.161	92.35
731.562	92.64
731.962	92.85
732.363	93
732.763	93.05
733.164	93.1
733.564	93.04
733.965	92.86
734.365	92.61
734.766	92.33
735.166	92.1
735.566	91.95
735.966	91.8
736.366	91.61
736.766	91.47
737.166	91.28
737.566	91.03
737.966	90.86
738.365	90.77
738.765	90.77
739.165	90.82
739.564	90.92
739.964	90.9
740.363	90.9
740.763	90.94
741.162	90.96
741.561	91.07
741.96	91.21
742.36	91.33
742.759	91.36
743.158	91.36
743.557	91.35
743.955	91.34
744.354	91.35
744.753	91.37
745.152	91.31
745.55	91.24
745.949	91.12
746.348	91
746.746	90.86
747.144	90.79
747.543	90.73
747.941	90.66
748.339	90.58
748.737	90.56
749.136	90.53
749.534	90.59
749.932	90.7
750.33	90.75
750.727	90.78
751.125	90.82
751.523	90.79
751.921	90.77
752.318	90.73
752.716	90.7
753.113	90.66
753.511	90.57
753.908	90.4
754.305	90.03
754.703	89.12
755.1	87.26
755.497	84.07
755.894	79.62
756.291	74.35
756.688	68.89
757.085	63.73
757.482	59
757.878	54.57
758.275	50.17
758.672	45.76
759.068	41.91
759.465	39.17
759.861	38.07
760.258	38.55
760.654	40.25
761.05	42.59
761.447	44.96
761.843	47.25
762.239	49.7
762.635	52.56
763.031	56
763.427	59.74
763.822	63.61
764.218	67.43
764.614	71
765.01	74.39
765.405	77.43
765.801	80.24
766.196	82.73
766.592	84.89
766.987	86.63
767.382	88
767.778	89.14
768.173	90.01
768.568	90.73
768.963	91.36
769.358	91.87
769.753	92.31
770.148	92.61
770.542	92.77
770.937	92.85
771.332	93.01
771.726	93.14
772.121	93.23
772.515	93.34
772.91	93.41
773.304	93.41
773.699	93.35
774.093	93.29
774.487	93.32
774.881	93.42
775.275	93.5
775.669	93.46
776.063	93.36
776.457	93.19
776.851	93.05
777.245	92.93
777.638	92.92
778.032	92.89
778.425	92.83
778.819	92.64
779.212	92.39
779.606	92.13
779.999	91.93
780.392	91.77
780.786	91.67
781.179	91.52
781.572	91.33
781.965	91.04
782.358	90.72
782.751	90.47
783.143	90.24
783.536	90.06
783.929	89.87
784.322	89.61
784.714	89.3
785.107	88.97
785.499	88.62
785.891	88.22
786.284	87.82
786.676	87.47
787.068	87.03
787.46	86.6
787.852	86.14
788.245	85.71
788.636	85.2
789.028	84.63
789.42	84.07
789.812	83.53
790.204	82.97
790.595	82.49
790.987	82.08
791.378	81.67
791.77	81.3
792.161	80.89
792.553	80.55
792.944	80.31
793.335	80.12
793.726	79.88
794.117	79.6
794.508	79.42
794.899	79.15
795.29	78.78
795.681	78.38
796.072	77.95
796.463	77.52
796.853	77.06
797.244	76.59
797.634	76.14
798.025	75.69
798.415	75.2
798.806	74.67
799.196	74.19
799.586	73.71
799.976	73.24
800.366	72.78
800.756	72.32
801.146	71.82
801.536	71.34
801.926	70.85
802.316	70.41
802.706	70.01
803.095	69.59
803.485	69.15
803.874	68.68
804.264	68.24
804.653	67.72
805.043	67.2
805.432	66.63
805.821	66.03
806.21	65.44
806.599	64.87
806.988	64.26
807.377	63.65
807.766	63.03
808.155	62.42
808.544	61.69
808.933	61.01
809.321	60.28
809.71	59.53
810.098	58.7
810.487	57.78
810.875	56.8
811.264	55.79
811.652	54.73
812.04	53.65
812.428	52.56
812.816	51.58
813.204	50.63
813.592	49.76
813.98	48.91
814.368	48.14
814.756	47.47
815.144	46.83
815.531	46.29
815.919	45.89
816.306	45.63
816.694	45.44
817.081	45.21
817.469	44.97
817.856	44.65
818.243	44.19
818.63	43.65
819.017	43.12
819.404	42.66
819.791	42.29
820.178	41.93
820.565	41.52
820.952	41.08
821.339	40.7
821.725	40.37
822.112	40.14
822.498	40.06
822.885	40.06
823.271	40
823.657	39.82
824.044	39.52
824.43	39.17
824.816	38.75
825.202	38.35
825.588	37.96
825.974	37.56
826.36	37.13
826.746	36.7
827.132	36.28
827.517	35.91
827.903	35.58
828.289	35.29
828.674	34.96
829.06	34.71
829.445	34.42
829.83	34.13
830.216	33.89
830.601	33.68
830.986	33.47
831.371	33.31
831.756	33.11
832.141	32.95
832.526	32.79
832.911	32.69
833.295	32.54
833.68	32.39
834.065	32.25
834.449	32.08
834.834	31.88
835.218	31.7
835.603	31.5
835.987	31.32
836.371	31.16
836.755	30.96
837.139	30.76
837.524	30.58
837.908	30.42
838.291	30.22
838.675	30.01
839.059	29.83
839.443	29.63
839.827	29.43
840.21	29.26
840.594	29.06
840.977	28.87
841.361	28.67
841.744	28.51
842.127	28.33
842.511	28.18
842.894	28.02
843.277	27.89
843.66	27.76
844.043	27.63
844.426	27.44
844.809	27.24
845.191	27
845.574	26.72
845.957	26.4
846.339	26.14
846.722	25.9
847.104	25.68
847.487	25.43
847.869	25.19
848.252	24.97
848.634	24.78
849.016	24.57
849.398	24.33
849.78	24.05
850.162	23.77
850.544	23.49
850.926	23.22
851.307	23
851.689	22.79
852.071	22.62
852.452	22.45
852.834	22.3
853.215	22.23
853.597	22.23
853.978	22.28
854.359	22.39
854.741	22.47
855.122	22.51
855.503	22.5
855.884	22.48
856.265	22.41
856.646	22.33
857.026	22.24
857.407	22.11
857.788	22.02
858.169	21.91
858.549	21.8
858.93	21.67
859.31	21.54
859.69	21.42
860.071	21.3
860.451	21.15
860.831	21
861.211	20.81
861.591	20.59
861.971	20.32
862.351	20.05
862.731	19.77
863.111	19.55
863.491	19.33
863.87	19.11
864.25	18.91
864.629	18.74
865.009	18.6
865.388	18.5
865.768	18.47
866.147	18.47
866.526	18.51
866.905	18.53
867.284	18.53
867.663	18.52
868.042	18.5
868.421	18.45
868.8	18.42
869.179	18.39
869.558	18.34
869.936	18.27
870.315	18.19
870.693	18.12
871.072	18.04
871.45	17.96
871.828	17.88
872.207	17.81
872.585	17.74
872.963	17.68
873.341	17.59
873.719	17.55
874.097	17.49
874.475	17.44
874.853	17.38
875.23	17.34
875.608	17.25
875.986	17.18
876.363	17.11
876.741	17.04
877.118	16.95
877.495	16.87
877.873	16.76
878.25	16.68
878.627	16.58
879.004	16.51
879.381	16.45
879.758	16.38
880.135	16.32
880.512	16.26
880.889	16.21
881.265	16.17
881.642	16.11
882.019	16.05
882.395	15.98
882.772	15.91
883.148	15.83
883.524	15.73
883.901	15.67
884.277	15.62
884.653	15.57
885.029	15.5
885.405	15.42
885.781	15.35
886.157	15.31
886.532	15.26
886.908	15.22
887.284	15.16
887.659	15.12
888.035	15.06
888.411	14.99
888.786	14.92
889.161	14.83
889.537	14.75
889.912	14.66
890.287	14.56
890.662	14.45
891.037	14.31
891.412	14.17
891.787	14.02
892.162	13.86
892.536	13.68
892.911	13.5
893.286	13.33
893.66	13.16
894.035	12.98
894.409	12.79
894.784	12.58
895.158	12.39
895.532	12.2
895.906	12
896.281	11.83
896.655	11.67
897.029	11.51
897.402	11.37
897.776	11.23
898.15	11.11
898.524	11.03
898.898	11
899.271	11.01
899.645	11.05
900.018	11.08
900.392	11.14
900.765	11.22
901.138	11.32
901.511	11.4
901.884	11.48
902.258	11.56
902.631	11.63
903.003	11.64
903.376	11.63
903.749	11.6
904.122	11.55
904.495	11.46
904.867	11.35
905.24	11.23
905.612	11.1
905.985	10.98
906.357	10.84
906.729	10.74
907.102	10.66
907.474	10.57
907.846	10.5
908.218	10.45
908.59	10.43
908.962	10.4
909.334	10.36
909.705	10.33
910.077	10.3
910.449	10.31
910.82	10.29
911.192	10.27
911.563	10.24
911.935	10.18
912.306	10.15
912.677	10.13
913.048	10.1
913.419	10.05
913.79	10.02
914.161	9.99
914.532	9.96
914.903	9.95
915.274	9.91
915.645	9.96
916.015	9.99
916.386	10
916.756	9.99
917.127	10.02
917.497	10.1
917.868	10.16
918.238	10.2
918.608	10.23
918.978	10.24
919.348	10.27
919.718	10.24
920.088	10.23
920.458	10.23
920.828	10.21
921.198	10.17
921.567	10.15
921.937	10.12
922.306	10.09
922.676	10.04
923.045	10.01
923.415	9.96
923.784	9.93
924.153	9.9
924.522	9.84
924.891	9.77
925.26	9.71
925.629	9.62
925.998	9.52
926.367	9.39
926.736	9.25
927.104	9.11
927.473	8.97
927.842	8.76
928.21	8.56
928.578	8.33
928.947	8.11
929.315	7.85
929.683	7.58
930.051	7.31
930.42	7.02
930.788	6.77
931.156	6.53
931.523	6.27
931.891	6.08
932.259	5.93
932.627	5.8
932.994	5.7
933.362	5.61
933.729	5.53
934.097	5.51
934.464	5.57
934.831	5.63
935.199	5.71
935.566	5.91
935.933	6.09
936.3	6.24
936.667	6.45
937.034	6.65
937.401	6.91
937.767	7.22
938.134	7.53
938.501	7.8
938.867	8.1
939.234	8.35
939.6	8.51
939.967	8.62
940.333	8.73
940.699	8.85
941.065	8.92
941.431	8.9
941.798	8.88
942.163	8.82
942.529	8.8
942.895	8.76
943.261	8.72
943.627	8.66
943.992	8.7
944.358	8.66
944.723	8.55
945.089	8.58
945.454	8.64
945.82	8.65
946.185	8.66
946.55	8.67
946.915	8.63
947.28	8.52
947.645	8.54
948.01	8.46
948.375	8.42
948.74	8.37
949.104	8.33
949.469	8.26
949.834	8.21
950.198	8.18
950.562	8.16
950.927	8.07
951.291	8.1
951.655	8
952.02	7.94
952.384	7.9
952.748	7.82
953.112	7.68
953.476	7.6
953.839	7.58
954.203	7.5
954.567	7.4
954.931	7.44
955.294	7.39
955.658	7.35
956.021	7.39
956.385	7.44
956.748	7.46
957.111	7.52
957.474	7.58
957.837	7.56
958.2	7.62
958.563	7.68
958.926	7.66
959.289	7.62
959.652	7.66
960.015	7.65
960.377	7.64
960.74	7.7
961.102	7.7
961.465	7.67
961.827	7.59
962.189	7.57
962.552	7.55
962.914	7.51
963.276	7.51
963.638	7.53
964	7.53
964.362	7.56
964.724	7.6
965.085	7.64
965.447	7.75
965.809	7.9
966.17	8.01
966.532	8.12
966.893	8.27
967.255	8.38
967.616	8.44
967.977	8.53
968.338	8.57
968.699	8.57
969.061	8.58
969.421	8.61
969.782	8.6
970.143	8.58
970.504	8.53
970.865	8.44
971.225	8.41
971.586	8.42
971.946	8.4
972.307	8.37
972.667	8.37
973.027	8.44
973.388	8.37
973.748	8.38
974.108	8.37
974.468	8.37
974.828	8.45
975.188	8.44
975.548	8.39
975.907	8.48
976.267	8.57
976.627	8.6
976.986	8.55
977.346	8.62
977.705	8.68
978.064	8.76
978.424	8.81
978.783	8.83
979.142	8.92
979.501	9.02
979.86	8.97
980.219	8.87
980.578	8.89
980.937	8.93
981.296	8.94
981.654	8.92
982.013	8.9
982.371	8.9
982.73	8.91
983.088	8.88
983.447	8.92
983.805	9.02
984.163	9.18
984.521	9.28
984.879	9.36
985.237	9.44
985.595	9.58
985.953	9.59
986.311	9.61
986.669	9.61
987.026	9.66
987.384	9.67
987.741	9.66
988.099	9.6
988.456	9.63
988.814	9.71
989.171	9.81
989.528	9.76
989.885	9.79
990.242	9.81
990.599	9.87
990.956	10.03
991.313	10.02
991.67	10.14
992.027	10.16
992.383	10.13
992.74	10.07
993.096	9.94
993.453	10.07
993.809	10.15
994.165	10.33
994.522	10.35
994.878	10.44
995.234	10.56
995.59	10.44
995.946	10.56
996.302	10.6
996.658	10.65
997.013	10.8
997.369	10.76
997.725	10.76
998.08	10.68
998.436	10.88
998.791	10.74
999.147	10.77
999.502	10.85
999.857	10.97
1000.212	10.98
1000.567	10.91
1000.922	10.88
1001.277	10.83
1001.632	10.9
1001.987	10.89
1002.342	10.9
1002.696	10.96
1003.051	10.71
1003.406	10.61
1003.76	10.61
1004.114	10.73
1004.469	10.78
1004.823	10.97
1005.177	11.13
1005.531	11.21
1005.885	11.24
1006.239	11.09
1006.593	11.13
1006.947	11.5
1007.301	11.85
1007.655	11.9
1008.008	11.94
1008.362	12.03
1008.715	11.95
1009.069	12.06
1009.422	12.01
1009.776	12.21
1010.129	12.3
1010.482	12.46
1010.835	12.44
1011.188	12.29
1011.541	12.18
1011.894	12.24
1012.247	12.62
1012.6	12.78
1012.952	12.69
1013.305	12.78
1013.657	12.85
1014.01	12.93
1014.362	12.91
1014.715	12.71
1015.067	12.82
1015.419	13.02
1015.771	13.24
1016.123	12.93
1016.475	13.07
1016.827	13.18
1017.179	13.32
1017.531	13.42
1017.883	13.74
1018.234	13.8
1018.586	14.04
1018.938	14.19
1019.289	14.15
1019.64	14.23
1019.992	14.45
1020.343	14.52
1020.694	14.72
1021.045	14.67
1021.396	14.59
1021.747	14.67
1022.098	15.03
1022.449	15.18
1022.8	15.18
1023.151	15.09
1023.501	14.91
1023.852	15.27
1024.202	15.31
1024.553	15.46
1024.903	15.68
1025.253	15.88
1025.604	15.84
1025.954	15.83
1026.304	16.36
1026.654	16.73
1027.004	17.28
1027.354	17.76
1027.703	17.57
1028.053	17.46
1028.403	17.08
1028.753	17.2
1029.102	17.75
1029.452	18.23
1029.801	18.5
1030.15	18.39
1030.499	18.34
897.758	210.98
901.051	209.83
904.343	216.55
907.636	214.9
910.928	213.28
914.22	217.13
917.511	210.09
920.803	207.27
924.094	196.93
927.384	202.88
930.675	196.03
933.965	193.32
937.255	194.83
940.544	184.42
943.834	178.29
947.123	174.91
950.411	168.13
953.7	165.78
956.988	165.61
960.276	159.42
963.563	159.22
966.851	154.92
970.138	152.62
973.424	146.49
976.711	146.72
979.997	144.05
983.283	140.46
986.568	137.01
989.853	136.25
993.138	130.93
996.423	132.79
999.708	129.4
1002.992	129.44
1006.275	125.91
1009.559	124.54
1012.842	121.6
1016.125	117.75
1019.408	116.86
1022.69	118.6
1025.972	116.65
1029.254	114.33
1032.536	112.13
1035.817	109.05
1039.098	108.52
1042.379	109.51
1045.659	109.02
1048.939	107.86
1052.219	107.54
1055.498	106.68
1058.778	103.87
1062.057	102.11
1065.335	103.44
1068.614	101.46
1071.892	101.74
1075.17	100.19
1078.447	97.91
1081.724	98.12
1085.001	96.69
1088.278	96.12
1091.554	96.93
1094.83	96.46
1098.106	96.79
1101.382	95.21
1104.657	95.49
1107.932	95.28
1111.206	95.37
1114.481	95.53
1117.755	92.36
1121.029	92.9
1124.302	92.49
1127.575	91.61
1130.848	91.11
1134.121	89.65
1137.393	90.65
1140.665	89.61
1143.937	88.59
1147.208	87.43
1150.48	86.58
1153.75	87.74
1157.021	86.56
1160.291	87.02
1163.561	85.45
1166.831	86.13
1170.101	85.92
1173.37	84.57
1176.639	84.46
1179.907	84.11
1183.176	83.44
1186.444	82.9
1189.711	83.31
1192.979	83.25
1196.246	82.79
1199.513	83.12
1202.78	82.28
1206.046	82.65
1209.312	83.3
1212.578	83.45
1215.843	85.12
1219.108	84.98
1222.373	86.86
1225.638	86.77
1228.902	88.75
1232.166	90
1235.43	90.52
1238.693	91.88
1241.956	93.6
1245.219	94.54
1248.482	95.51
1251.744	94.18
1255.006	95.98
1258.268	92.3
1261.529	92.4
1264.79	91.18
1268.051	90.39
1271.312	90.59
1274.572	88.79
1277.832	87.53
1281.092	87.21
1284.351	86.27
1287.61	86.43
1290.869	85.41
1294.128	86.63
1297.386	86.53
1300.644	85.7
1303.902	84.56
1307.159	83.57
1310.416	84.26
1313.673	84.94
1316.93	84.9
1320.186	85.64
1323.442	85.33
1326.697	86.24
1329.953	84.68
1333.208	85.7
1336.463	88.08
1339.717	89.62
1342.972	90.73
1346.226	92.1
1349.479	91.37
1352.733	93.12
1355.986	92.42
1359.238	93.84
1362.491	93.66
1365.743	96.81
1368.995	97.5
1372.247	94.34
1375.498	93.17
1378.749	95.13
1382	95.26
1385.251	93.76
1388.501	93.77
1391.751	94.55
1395	92.73
1398.25	92.79
1401.499	92.19
1404.748	89.43
1407.996	88.4
1411.244	88.06
1414.492	86.35
1417.74	81.78
1420.987	80.96
1424.234	77.65
1427.481	74.71
1430.728	73.58
1433.974	70.2
1437.22	68.88
1440.465	66.7
1443.711	65.21
1446.956	63.45
1450.201	60.36
1453.445	58.73
1456.689	57.26
1459.933	56.71
1463.177	54.65
1466.42	53.81
1469.663	53.6
1472.906	51.67
1476.148	50.12
1479.391	50.24
1482.633	49.95
1485.874	50.67
1489.115	50.91
1492.356	50.26
1495.597	49.88
1498.838	50.63
1502.078	50.86
1505.318	50.97
1508.557	50.42
1511.797	51.81
1515.036	51.55
1518.274	51.75
1521.513	51.57
1524.751	51.46
1527.989	52.22
1531.227	52.15
1534.464	53.18
1537.701	53.02
1540.938	52.56
1544.174	53.66
1547.41	53.61
1550.646	54.56
1553.882	54.48
1557.117	55.75
1560.352	55.53
1563.587	55.89
1566.821	55.99
1570.055	55.31
1573.289	55.87
1576.523	56.45
1579.756	56.3
1582.989	56.86
1586.222	56.51
1589.454	57.23
1592.686	56.9
1595.918	56.65
1599.15	56.7
1602.381	57.38
1605.612	58.01
1608.843	57.66
1612.073	58.14
1615.303	59.03
1618.533	58.91
1621.762	58.78
1624.992	58.43
1628.221	58.43
1631.449	59.69
1634.678	59.91
1637.906	59.05
1641.134	59.4
1644.361	59.79
1647.588	59.41
1650.815	59.25
1654.042	59.3
1657.269	59.39
1660.495	59.99
1663.72	59.51
1666.946	59.22
1670.171	59.4
1673.396	60.21
1676.621	59.59
1679.845	60.32
1683.069	59.81
1686.293	59.58
1689.517	60.06
1692.74	60.17
1695.963	59.7
1699.185	60.56
1702.408	60.14
1705.63	60.15
1708.852	60.51
1712.073	60.13
1715.294	59.68
1718.515	60.61
1721.736	60.63
1724.956	59.68
1728.176	59.69
1731.396	59.9
1734.616	59.72
1737.835	60.06
1741.054	59.38
1744.272	58.72
1747.491	59.42
1750.709	59.13
1753.927	58.83
1757.144	59.03
1760.361	59.37
1763.578	58.92
1766.795	59.37
1770.011	58.84
1773.227	58.82
1776.443	59.35
1779.658	59.33
1782.874	59.39
1786.089	58.32
1789.303	58.23
1792.518	59
1795.732	59.36
1798.945	60.18
1802.159	59.55
1805.372	60.19
1808.585	60.83
1811.797	60.11
1815.01	61.11
1818.222	61.23
1821.434	62.3
1824.645	62.04
1827.856	61.65
1831.067	61.42
1834.278	61.15
1837.488	62.3
1840.698	61.92
1843.908	61.46
1847.117	62.35
1850.326	61.51
1853.535	61.41
1856.744	61.36
1859.952	61.63
1863.16	60.55
1866.368	59.62
1869.575	59.25
1872.782	56.76
1875.989	55.12
1879.196	53.77
1882.402	51.9
1885.608	51.92
1888.814	50.17
1892.019	49.41
1895.224	47.63
1898.429	47.07
1901.634	46.08
1904.838	45.41
1908.042	45.22
1911.246	45.48
1914.449	45.59
1917.652	45.57
1920.855	45.3
1924.058	43.97
1927.26	42.71
1930.462	43.87
1933.664	43.4
1936.865	44.52
1940.066	43.31
1943.267	43.68
1946.467	43.29
1949.668	43.23
1952.868	43.65
1956.067	43.37
1959.267	44.68
1962.466	45.15
1965.665	45.14
1968.863	46.6
1972.061	46.36
1975.259	47.18
1978.457	47.36
1981.654	48.05
1984.852	48.71
1988.048	48.9
1991.245	49.28
1994.441	50.57
1997.637	51.77
2000.833	52.28
2004.028	52.42
2007.223	52.69
2010.418	54.46
2013.613	57.46
2016.807	59.48
2020.001	61
2023.194	63.73
2026.388	66.33
2029.581	68.84
2032.774	69.61
2035.966	71.69
2039.158	73.87
2042.35	76.01
2045.542	78.63
2048.733	80.63
2051.924	80.02
2055.115	81.5
2058.306	80.85
2061.496	80.03
2064.686	82.66
2067.875	82.48
2071.065	85.21
2074.254	84.34
2077.442	86.06
2080.631	84.94
2083.819	85
2087.007	88.85
2090.195	89.12
2093.382	89.34
2096.569	91.05
2099.756	90.76
2102.942	93.9
2106.128	93.62
2109.314	98.47
2112.5	99.26
2115.685	96.63
2118.87	97.56
2122.055	98.94
2125.239	99.64
2128.424	103.68
2131.608	100.55
2134.791	101.03
2137.974	101.25
2141.157	103.73
2144.34	101.12
2147.523	105.07
2150.705	111.12
2153.887	110.28
2157.068	110.74
2160.25	111.12
2163.431	109.44
2166.611	115.13
2169.792	116.62
2172.972	119.44
2176.152	119.61
2179.331	122.13
2182.511	120.92
2185.69	123.82
2188.868	125.35
2192.047	128.52
2195.225	133.47
2198.403	132.65
2201.58	130.37
2204.758	133.65
2207.935	131.53
2211.111	132.91
2214.288	133.07
2217.464	133.83
2220.64	134.13
2223.815	135.53
2226.991	131.22
2230.166	132.07
2233.34	138.09
2236.515	138.8
2239.689	136.85
2242.863	140.62
2246.036	141.04
2249.209	140.31
2252.382	139.49
2255.555	143.5
2258.727	146.08
2261.9	149.93
2265.071	151.67
2268.243	149.7
2271.414	155.72
2274.585	157.94
2277.756	157.46
2280.926	160.86
2284.096	167.48
2287.266	168.29
2290.436	166.42
2293.605	168.37
2296.774	177.17
2299.942	176.31
2303.111	180.44
2306.279	187.07
2309.447	187.78
2312.614	187.69
2315.781	188.11
2318.948	188.24
2322.115	195.31
2325.281	197.88
2328.447	199.02
2331.613	199.24
2334.779	202.33
2337.944	200.33
2341.109	200.68
2344.274	205.85
2347.438	208.88
2350.602	218.17
2353.766	229.61
2356.929	228.89
2360.092	237.41
2363.255	234.1
2366.418	234.66
2369.58	238.19
2372.742	251.28
2375.904	250.16
2379.066	254.72
2382.227	267.8
2385.388	258.75
2388.548	249.7
2391.709	245.23
2394.869	246.31
2398.029	250.73
2401.188	248.95
2404.347	252.48
2407.506	256.17
2410.665	251.79
2413.823	257.23
2416.981	260.43
2420.139	251.79
2423.296	265.03
2426.453	288.59
2429.61	273.6
2432.767	290.66
2435.923	307.01
2439.079	298.18
2442.235	301.89
2445.391	308.46
2448.546	298.91
2451.701	313.32
2454.855	333.87
2458.009	307.14
2461.163	306.81
2464.317	311.92
2467.471	308.39
2470.624	312.76
2473.777	307.85
2476.929	304.38
2480.082	310
2483.234	329.21
2486.385	333.41
2489.537	339.48
2492.688	358.23
2495.839	356.88
2498.989	369.48
2502.14	364.75
2505.29	356.62
2508.439	388.01
2511.589	389.27
2514.738	386.67
2517.887	380.57
2521.035	361.31
2524.183	352.66
2527.331	359.34
2530.479	344.98
2533.627	353.09
