Data from C_2_dec_ct_2n_074_Splice17_01.txt Node
Date: Sat Feb 29 14:22:01 EST 2020
User: sa697716
Spectrometer: FLMS03696
Trigger mode: 0
Integration Time (sec): 3.180400E-1
Scans to average: 20
Electric dark correction enabled: true
Nonlinearity correction enabled: true
Boxcar width: 5
XAxis mode: Wavelengths
Number of Pixels in Spectrum: 2048
>>>>>Begin Spectral Data<<<<<
187.83	47.78
188.298	29.18
188.766	43.61
189.233	30.86
189.701	25.56
190.169	34.98
190.636	36.55
191.104	15.94
191.571	-85.59
192.039	158.28
192.506	284
192.974	11113.17
193.441	-708.18
193.908	134.52
194.375	100.88
194.842	35.98
195.31	46.21
195.777	60.18
196.244	11.47
196.711	18.95
197.177	16.89
197.644	17.92
198.111	17.87
198.578	18.12
199.045	18.73
199.511	19.44
199.978	20.17
200.445	20.1
200.911	20.38
201.378	21.12
201.844	21.04
202.31	22.02
202.777	22.47
203.243	23.18
203.709	23.58
204.176	23.59
204.642	23.46
205.108	23.06
205.574	23.39
206.04	23.51
206.506	23.16
206.972	23.22
207.438	22.44
207.903	22.4
208.369	21.61
208.835	21.54
209.301	21.64
209.766	21.59
210.232	21.44
210.697	21.26
211.163	21.01
211.628	20.61
212.094	20.65
212.559	20.46
213.024	20.16
213.49	19.78
213.955	19.5
214.42	19.17
214.885	18.54
215.35	18.11
215.815	17.27
216.28	16.48
216.745	16.02
217.21	15.19
217.675	14.43
218.14	13.61
218.604	12.93
219.069	12.34
219.534	11.69
219.998	11.38
220.463	11.05
220.927	10.74
221.392	10.39
221.856	10.05
222.32	9.82
222.785	9.6
223.249	9.39
223.713	9.24
224.177	9.05
224.642	8.97
225.106	8.8
225.57	8.62
226.034	8.5
226.497	8.39
226.961	8.26
227.425	8.08
227.889	7.96
228.353	7.84
228.816	7.75
229.28	7.64
229.744	7.52
230.207	7.42
230.671	7.34
231.134	7.26
231.597	7.15
232.061	7.07
232.524	7.02
232.987	6.95
233.45	6.88
233.914	6.79
234.377	6.72
234.84	6.65
235.303	6.58
235.766	6.52
236.229	6.44
236.691	6.39
237.154	6.34
237.617	6.28
238.08	6.22
238.542	6.17
239.005	6.12
239.468	6.06
239.93	6.03
240.393	5.96
240.855	5.9
241.317	5.86
241.78	5.81
242.242	5.75
242.704	5.68
243.166	5.64
243.629	5.59
244.091	5.56
244.553	5.52
245.015	5.47
245.477	5.43
245.939	5.39
246.4	5.35
246.862	5.33
247.324	5.31
247.786	5.29
248.247	5.26
248.709	5.22
249.17	5.18
249.632	5.15
250.093	5.11
250.555	5.08
251.016	5.06
251.477	5.03
251.939	5
252.4	4.97
252.861	4.95
253.322	4.92
253.783	4.91
254.244	4.89
254.705	4.87
255.166	4.86
255.627	4.85
256.088	4.82
256.549	4.8
257.009	4.78
257.47	4.77
257.931	4.74
258.391	4.72
258.852	4.7
259.312	4.67
259.773	4.65
260.233	4.62
260.694	4.6
261.154	4.58
261.614	4.56
262.074	4.54
262.534	4.51
262.994	4.5
263.455	4.49
263.915	4.47
264.374	4.46
264.834	4.45
265.294	4.43
265.754	4.41
266.214	4.4
266.673	4.4
267.133	4.38
267.593	4.38
268.052	4.35
268.512	4.34
268.971	4.32
269.431	4.31
269.89	4.3
270.349	4.29
270.809	4.28
271.268	4.27
271.727	4.26
272.186	4.25
272.645	4.24
273.104	4.23
273.563	4.22
274.022	4.22
274.481	4.2
274.94	4.19
275.399	4.18
275.857	4.17
276.316	4.16
276.775	4.14
277.233	4.11
277.692	4.1
278.15	4.08
278.609	4.06
279.067	4.05
279.525	4.03
279.984	4.02
280.442	4.02
280.9	4
281.358	3.99
281.816	3.98
282.274	3.98
282.732	3.97
283.19	3.96
283.648	3.95
284.106	3.94
284.564	3.92
285.021	3.91
285.479	3.9
285.937	3.89
286.394	3.87
286.852	3.87
287.309	3.86
287.767	3.86
288.224	3.86
288.682	3.85
289.139	3.85
289.596	3.84
290.053	3.83
290.511	3.82
290.968	3.81
291.425	3.81
291.882	3.79
292.339	3.78
292.796	3.76
293.252	3.75
293.709	3.73
294.166	3.72
294.623	3.72
295.079	3.71
295.536	3.7
295.992	3.68
296.449	3.67
296.905	3.66
297.362	3.64
297.818	3.64
298.274	3.63
298.731	3.62
299.187	3.61
299.643	3.59
300.099	3.58
300.555	3.57
301.011	3.56
301.467	3.56
301.923	3.56
302.379	3.55
302.835	3.55
303.291	3.54
303.746	3.53
304.202	3.51
304.658	3.51
305.113	3.5
305.569	3.5
306.024	3.5
306.479	3.49
306.935	3.48
307.39	3.48
307.845	3.47
308.301	3.47
308.756	3.47
309.211	3.47
309.666	3.47
310.121	3.46
310.576	3.45
311.031	3.44
311.486	3.44
311.94	3.44
312.395	3.43
312.85	3.42
313.305	3.42
313.759	3.41
314.214	3.41
314.668	3.4
315.123	3.41
315.577	3.42
316.032	3.42
316.486	3.41
316.94	3.41
317.394	3.4
317.849	3.4
318.303	3.4
318.757	3.39
319.211	3.36
319.665	3.36
320.119	3.35
320.572	3.34
321.026	3.34
321.48	3.33
321.934	3.33
322.387	3.33
322.841	3.32
323.295	3.31
323.748	3.31
324.202	3.31
324.655	3.3
325.108	3.29
325.562	3.29
326.015	3.28
326.468	3.27
326.921	3.25
327.374	3.25
327.827	3.24
328.28	3.23
328.733	3.21
329.186	3.2
329.639	3.2
330.092	3.2
330.545	3.18
330.997	3.18
331.45	3.18
331.903	3.17
332.355	3.18
332.808	3.18
333.26	3.18
333.713	3.19
334.165	3.18
334.617	3.19
335.069	3.19
335.522	3.2
335.974	3.19
336.426	3.19
336.878	3.19
337.33	3.19
337.782	3.18
338.234	3.18
338.686	3.18
339.137	3.19
339.589	3.18
340.041	3.17
340.493	3.16
340.944	3.15
341.396	3.16
341.847	3.14
342.299	3.13
342.75	3.13
343.201	3.12
343.653	3.1
344.104	3.09
344.555	3.09
345.006	3.08
345.457	3.09
345.908	3.08
346.359	3.08
346.81	3.08
347.261	3.07
347.712	3.07
348.163	3.07
348.613	3.06
349.064	3.05
349.515	3.03
349.965	3.02
350.416	3.01
350.866	3
351.317	2.99
351.767	2.98
352.217	2.98
352.668	2.97
353.118	2.96
353.568	2.98
354.018	2.99
354.468	2.98
354.918	2.99
355.368	2.99
355.818	2.99
356.268	2.99
356.718	2.99
357.168	2.99
357.617	2.98
358.067	2.98
358.517	2.97
358.966	2.96
359.416	2.97
359.865	2.97
360.315	2.97
360.764	2.97
361.213	2.96
361.663	2.97
362.112	2.98
362.561	2.98
363.01	2.97
363.459	2.96
363.908	2.96
364.357	2.96
364.806	2.96
365.255	2.96
365.703	2.95
366.152	2.95
366.601	2.94
367.05	2.93
367.498	2.93
367.947	2.93
368.395	2.94
368.844	2.94
369.292	2.93
369.74	2.93
370.189	2.93
370.637	2.94
371.085	2.95
371.533	2.95
371.981	2.95
372.429	2.94
372.877	2.95
373.325	2.94
373.773	2.94
374.221	2.93
374.669	2.93
375.116	2.92
375.564	2.9
376.012	2.89
376.459	2.88
376.907	2.88
377.354	2.88
377.801	2.88
378.249	2.88
378.696	2.88
379.143	2.88
379.591	2.88
380.038	2.88
380.485	2.9
380.932	2.9
381.379	2.9
381.826	2.9
382.273	2.91
382.72	2.91
383.166	2.92
383.613	2.92
384.06	2.93
384.506	2.95
384.953	2.95
385.4	2.95
385.846	2.95
386.292	2.98
386.739	2.99
387.185	3.02
387.631	3.03
388.078	3.05
388.524	3.05
388.97	3.06
389.416	3.06
389.862	3.08
390.308	3.1
390.754	3.12
391.2	3.15
391.645	3.17
392.091	3.17
392.537	3.19
392.983	3.23
393.428	3.27
393.874	3.32
394.319	3.38
394.765	3.43
395.21	3.49
395.655	3.55
396.101	3.6
396.546	3.66
396.991	3.73
397.436	3.8
397.881	3.87
398.326	3.96
398.771	4.02
399.216	4.08
399.661	4.15
400.106	4.22
400.551	4.25
400.995	4.31
401.44	4.34
401.885	4.38
402.329	4.43
402.774	4.44
403.218	4.48
403.663	4.53
404.107	4.58
404.551	4.64
404.995	4.68
405.44	4.75
405.884	4.79
406.328	4.85
406.772	4.93
407.216	5.01
407.66	5.09
408.104	5.17
408.547	5.23
408.991	5.27
409.435	5.32
409.879	5.39
410.322	5.46
410.766	5.54
411.209	5.61
411.653	5.67
412.096	5.71
412.54	5.77
412.983	5.81
413.426	5.87
413.869	5.95
414.312	6.05
414.756	6.12
415.199	6.17
415.642	6.25
416.085	6.31
416.527	6.38
416.97	6.45
417.413	6.47
417.856	6.48
418.298	6.47
418.741	6.49
419.184	6.5
419.626	6.5
420.069	6.54
420.511	6.55
420.953	6.54
421.396	6.57
421.838	6.6
422.28	6.68
422.722	6.75
423.164	6.82
423.606	6.87
424.048	6.89
424.49	6.92
424.932	6.9
425.374	6.85
425.816	6.8
426.258	6.73
426.699	6.67
427.141	6.65
427.582	6.67
428.024	6.72
428.465	6.79
428.907	6.86
429.348	6.92
429.789	7
430.231	7.11
430.672	7.27
431.113	7.44
431.554	7.62
431.995	7.77
432.436	7.86
432.877	7.92
433.318	7.95
433.759	8.01
434.2	8.08
434.64	8.17
435.081	8.26
435.522	8.34
435.962	8.43
436.403	8.51
436.843	8.56
437.284	8.62
437.724	8.71
438.164	8.81
438.604	8.91
439.045	9
439.485	9.07
439.925	9.16
440.365	9.21
440.805	9.25
441.245	9.25
441.685	9.29
442.125	9.34
442.564	9.42
443.004	9.47
443.444	9.53
443.883	9.61
444.323	9.69
444.762	9.78
445.202	9.89
445.641	10.01
446.081	10.15
446.52	10.25
446.959	10.37
447.398	10.46
447.837	10.54
448.276	10.56
448.716	10.6
449.154	10.66
449.593	10.7
450.032	10.7
450.471	10.72
450.91	10.71
451.349	10.72
451.787	10.71
452.226	10.68
452.664	10.68
453.103	10.7
453.541	10.7
453.98	10.67
454.418	10.62
454.856	10.57
455.295	10.53
455.733	10.51
456.171	10.48
456.609	10.47
457.047	10.47
457.485	10.45
457.923	10.45
458.361	10.45
458.798	10.47
459.236	10.5
459.674	10.52
460.111	10.55
460.549	10.53
460.987	10.55
461.424	10.57
461.862	10.58
462.299	10.6
462.736	10.62
463.173	10.66
463.611	10.69
464.048	10.76
464.485	10.83
464.922	10.89
465.359	11
465.796	11.04
466.233	11.1
466.67	11.18
467.106	11.28
467.543	11.4
467.98	11.5
468.416	11.61
468.853	11.69
469.29	11.78
469.726	11.88
470.162	11.96
470.599	12.08
471.035	12.16
471.471	12.21
471.907	12.25
472.344	12.28
472.78	12.3
473.216	12.34
473.652	12.38
474.088	12.42
474.523	12.45
474.959	12.47
475.395	12.49
475.831	12.5
476.266	12.52
476.702	12.55
477.138	12.56
477.573	12.56
478.008	12.53
478.444	12.48
478.879	12.43
479.314	12.35
479.75	12.31
480.185	12.24
480.62	12.15
481.055	12.02
481.49	11.83
481.925	11.62
482.36	11.44
482.795	11.29
483.229	11.19
483.664	11.11
484.099	11.05
484.534	10.98
484.968	10.94
485.403	10.94
485.837	10.97
486.271	11.05
486.706	11.14
487.14	11.22
487.574	11.26
488.009	11.28
488.443	11.3
488.877	11.33
489.311	11.35
489.745	11.38
490.179	11.41
490.613	11.44
491.046	11.48
491.48	11.53
491.914	11.6
492.348	11.69
492.781	11.76
493.215	11.83
493.648	11.89
494.082	11.96
494.515	12.02
494.948	12.09
495.382	12.15
495.815	12.23
496.248	12.29
496.681	12.33
497.114	12.39
497.547	12.46
497.98	12.56
498.413	12.68
498.846	12.79
499.279	12.92
499.711	13.03
500.144	13.16
500.577	13.31
501.009	13.51
501.442	13.72
501.874	13.94
502.306	14.17
502.739	14.37
503.171	14.58
503.603	14.79
504.036	15.02
504.468	15.27
504.9	15.55
505.332	15.8
505.764	16.06
506.196	16.32
506.627	16.59
507.059	16.88
507.491	17.18
507.923	17.49
508.354	17.81
508.786	18.1
509.217	18.39
509.649	18.66
510.08	18.97
510.512	19.25
510.943	19.58
511.374	19.88
511.805	20.15
512.237	20.37
512.668	20.59
513.099	20.84
513.53	21.09
513.961	21.36
514.391	21.67
514.822	21.99
515.253	22.36
515.684	22.71
516.114	23.13
516.545	23.57
516.975	24.1
517.406	24.65
517.836	25.18
518.267	25.69
518.697	26.21
519.127	26.72
519.558	27.22
519.988	27.7
520.418	28.15
520.848	28.57
521.278	28.99
521.708	29.24
522.138	29.49
522.567	29.73
522.997	30
523.427	30.31
523.857	30.6
524.286	30.93
524.716	31.24
525.145	31.56
525.575	31.86
526.004	32.18
526.433	32.62
526.863	33.04
527.292	33.45
527.721	33.78
528.15	33.99
528.579	34.18
529.008	34.32
529.437	34.45
529.866	34.55
530.295	34.69
530.724	34.85
531.152	34.97
531.581	35.09
532.01	35.18
532.438	35.29
532.867	35.44
533.295	35.6
533.723	35.76
534.152	35.89
534.58	35.99
535.008	36.03
535.436	36
535.865	35.97
536.293	35.94
536.721	35.94
537.149	36
537.576	36.04
538.004	36.07
538.432	36.07
538.86	36.09
539.287	36.15
539.715	36.26
540.143	36.38
540.57	36.51
540.998	36.66
541.425	36.8
541.852	36.91
542.28	37.04
542.707	37.16
543.134	37.25
543.561	37.34
543.988	37.43
544.415	37.51
544.842	37.61
545.269	37.73
545.696	37.81
546.123	37.9
546.549	37.99
546.976	38.07
547.403	38.15
547.829	38.25
548.256	38.33
548.682	38.36
549.108	38.45
549.535	38.47
549.961	38.5
550.387	38.54
550.813	38.56
551.24	38.57
551.666	38.58
552.092	38.56
552.518	38.51
552.943	38.48
553.369	38.44
553.795	38.37
554.221	38.25
554.646	38.09
555.072	37.94
555.498	37.78
555.923	37.63
556.349	37.49
556.774	37.38
557.199	37.28
557.625	37.16
558.05	37.03
558.475	36.89
558.9	36.8
559.325	36.7
559.75	36.6
560.175	36.49
560.6	36.32
561.025	36.13
561.449	35.89
561.874	35.67
562.299	35.45
562.723	35.24
563.148	35.03
563.572	34.82
563.997	34.59
564.421	34.33
564.846	34.04
565.27	33.79
565.694	33.53
566.118	33.27
566.542	33
566.966	32.71
567.39	32.42
567.814	32.16
568.238	31.91
568.662	31.69
569.086	31.46
569.509	31.28
569.933	31.06
570.357	30.85
570.78	30.67
571.204	30.48
571.627	30.3
572.05	30.13
572.474	29.92
572.897	29.71
573.32	29.5
573.743	29.29
574.166	29.07
574.589	28.89
575.012	28.74
575.435	28.58
575.858	28.46
576.281	28.32
576.704	28.2
577.126	28.09
577.549	28
577.972	27.91
578.394	27.84
578.817	27.77
579.239	27.7
579.661	27.62
580.084	27.54
580.506	27.45
580.928	27.35
581.35	27.25
581.772	27.14
582.194	27.02
582.616	26.89
583.038	26.77
583.46	26.67
583.882	26.5
584.303	26.31
584.725	26.08
585.147	25.82
585.568	25.6
585.99	25.43
586.411	25.28
586.833	25.17
587.254	25.03
587.675	24.91
588.096	24.78
588.518	24.69
588.939	24.64
589.36	24.63
589.781	24.65
590.202	24.65
590.623	24.59
591.043	24.53
591.464	24.43
591.885	24.36
592.305	24.31
592.726	24.21
593.147	24.16
593.567	24.08
593.987	24.01
594.408	23.94
594.828	23.86
595.248	23.8
595.669	23.72
596.089	23.63
596.509	23.53
596.929	23.42
597.349	23.29
597.769	23.17
598.189	23.07
598.608	22.97
599.028	22.89
599.448	22.82
599.867	22.72
600.287	22.64
600.706	22.57
601.126	22.49
601.545	22.4
601.965	22.35
602.384	22.29
602.803	22.19
603.222	22.08
603.641	21.96
604.061	21.82
604.48	21.7
604.898	21.57
605.317	21.43
605.736	21.29
606.155	21.14
606.574	20.99
606.992	20.83
607.411	20.69
607.829	20.53
608.248	20.4
608.666	20.28
609.085	20.13
609.503	19.99
609.921	19.83
610.339	19.71
610.758	19.6
611.176	19.46
611.594	19.31
612.012	19.16
612.43	19.05
612.847	18.9
613.265	18.76
613.683	18.65
614.101	18.53
614.518	18.44
614.936	18.33
615.353	18.23
615.771	18.14
616.188	18.08
616.606	18
617.023	17.94
617.44	17.87
617.857	17.79
618.274	17.71
618.691	17.64
619.108	17.56
619.525	17.48
619.942	17.37
620.359	17.28
620.776	17.18
621.192	17.09
621.609	17
622.026	16.91
622.442	16.85
622.859	16.78
623.275	16.71
623.691	16.65
624.108	16.59
624.524	16.54
624.94	16.49
625.356	16.45
625.772	16.41
626.188	16.38
626.604	16.33
627.02	16.29
627.436	16.25
627.852	16.21
628.268	16.19
628.683	16.15
629.099	16.14
629.514	16.12
629.93	16.08
630.345	16.05
630.761	16.01
631.176	15.99
631.591	15.94
632.007	15.88
632.422	15.84
632.837	15.78
633.252	15.74
633.667	15.65
634.082	15.59
634.497	15.52
634.911	15.42
635.326	15.33
635.741	15.21
636.155	15.11
636.57	15.01
636.984	14.85
637.399	14.72
637.813	14.55
638.228	14.4
638.642	14.25
639.056	14.12
639.47	13.98
639.884	13.82
640.298	13.68
640.712	13.53
641.126	13.38
641.54	13.26
641.954	13.13
642.368	12.99
642.781	12.85
643.195	12.69
643.609	12.54
644.022	12.42
644.436	12.29
644.849	12.17
645.262	12.05
645.676	11.9
646.089	11.79
646.502	11.66
646.915	11.57
647.328	11.49
647.741	11.4
648.154	11.34
648.567	11.26
648.98	11.19
649.393	11.13
649.805	11.07
650.218	11.03
650.631	10.97
651.043	10.91
651.456	10.81
651.868	10.7
652.28	10.58
652.693	10.44
653.105	10.34
653.517	10.23
653.929	10.15
654.341	10.08
654.753	9.99
655.165	9.91
655.577	9.85
655.989	9.81
656.401	9.77
656.813	9.75
657.224	9.72
657.636	9.68
658.047	9.62
658.459	9.53
658.87	9.44
659.282	9.37
659.693	9.27
660.104	9.18
660.515	9.06
660.926	8.98
661.338	8.89
661.749	8.8
662.159	8.69
662.57	8.61
662.981	8.53
663.392	8.43
663.803	8.34
664.213	8.27
664.624	8.2
665.035	8.13
665.445	8.06
665.855	7.98
666.266	7.92
666.676	7.86
667.086	7.79
667.497	7.73
667.907	7.68
668.317	7.64
668.727	7.58
669.137	7.54
669.547	7.51
669.956	7.47
670.366	7.46
670.776	7.42
671.186	7.4
671.595	7.4
672.005	7.39
672.414	7.38
672.824	7.38
673.233	7.39
673.642	7.39
674.052	7.38
674.461	7.38
674.87	7.38
675.279	7.4
675.688	7.41
676.097	7.42
676.506	7.43
676.915	7.46
677.323	7.48
677.732	7.5
678.141	7.53
678.549	7.59
678.958	7.63
679.366	7.67
679.775	7.72
680.183	7.77
680.592	7.84
681	7.92
681.408	8
681.816	8.08
682.224	8.15
682.632	8.21
683.04	8.25
683.448	8.33
683.856	8.43
684.264	8.56
684.671	8.71
685.079	8.87
685.487	9.07
685.894	9.29
686.302	9.53
686.709	9.83
687.116	10.19
687.524	10.58
687.931	10.99
688.338	11.43
688.745	11.89
689.152	12.35
689.559	12.83
689.966	13.32
690.373	13.84
690.78	14.36
691.187	14.89
691.593	15.4
692	15.95
692.407	16.5
692.813	17.04
693.22	17.57
693.626	18.11
694.032	18.65
694.439	19.2
694.845	19.72
695.251	20.24
695.657	20.75
696.063	21.25
696.469	21.74
696.875	22.21
697.281	22.67
697.687	23.16
698.093	23.61
698.498	24.07
698.904	24.51
699.31	24.95
699.715	25.41
700.12	25.82
700.526	26.25
700.931	26.69
701.337	27.12
701.742	27.53
702.147	27.93
702.552	28.32
702.957	28.72
703.362	29.1
703.767	29.46
704.172	29.81
704.577	30.16
704.981	30.5
705.386	30.81
705.791	31.15
706.195	31.46
706.6	31.78
707.004	32.07
707.408	32.33
707.813	32.61
708.217	32.89
708.621	33.17
709.025	33.43
709.43	33.7
709.834	33.98
710.237	34.2
710.641	34.45
711.045	34.65
711.449	34.9
711.853	35.13
712.256	35.3
712.66	35.44
713.064	35.57
713.467	35.69
713.87	35.76
714.274	35.8
714.677	35.83
715.08	35.82
715.484	35.86
715.887	35.86
716.29	35.91
716.693	35.99
717.096	36.16
717.499	36.36
717.901	36.56
718.304	36.82
718.707	37.07
719.109	37.34
719.512	37.61
719.915	37.82
720.317	38.06
720.719	38.24
721.122	38.41
721.524	38.54
721.926	38.64
722.328	38.75
722.731	38.83
723.133	38.95
723.535	39.04
723.937	39.13
724.338	39.25
724.74	39.32
725.142	39.29
725.544	39.38
725.945	39.43
726.347	39.53
726.748	39.57
727.15	39.65
727.551	39.72
727.952	39.8
728.354	39.94
728.755	40.08
729.156	40.23
729.557	40.52
729.958	40.72
730.359	40.87
730.76	41
731.161	41.14
731.562	41.26
731.962	41.36
732.363	41.47
732.763	41.53
733.164	41.59
733.564	41.62
733.965	41.63
734.365	41.59
734.766	41.6
735.166	41.57
735.566	41.56
735.966	41.55
736.366	41.55
736.766	41.51
737.166	41.52
737.566	41.48
737.966	41.48
738.365	41.5
738.765	41.54
739.165	41.58
739.564	41.62
739.964	41.65
740.363	41.68
740.763	41.69
741.162	41.73
741.561	41.73
741.96	41.77
742.36	41.81
742.759	41.79
743.158	41.78
743.557	41.79
743.955	41.79
744.354	41.8
744.753	41.82
745.152	41.83
745.55	41.83
745.949	41.83
746.348	41.81
746.746	41.78
747.144	41.79
747.543	41.78
747.941	41.78
748.339	41.78
748.737	41.78
749.136	41.74
749.534	41.74
749.932	41.75
750.33	41.73
750.727	41.72
751.125	41.71
751.523	41.68
751.921	41.66
752.318	41.61
752.716	41.55
753.113	41.51
753.511	41.47
753.908	41.39
754.305	41.26
754.703	41.08
755.1	40.76
755.497	40.25
755.894	39.54
756.291	38.72
756.688	37.86
757.085	37.06
757.482	36.31
757.878	35.61
758.275	34.9
758.672	34.25
759.068	33.65
759.465	33.22
759.861	33.04
760.258	33.07
760.654	33.29
761.05	33.61
761.447	33.93
761.843	34.23
762.239	34.53
762.635	34.93
763.031	35.39
763.427	35.86
763.822	36.36
764.218	36.84
764.614	37.3
765.01	37.73
765.405	38.11
765.801	38.46
766.196	38.77
766.592	39.04
766.987	39.23
767.382	39.37
767.778	39.46
768.173	39.55
768.568	39.59
768.963	39.65
769.358	39.67
769.753	39.71
770.148	39.71
770.542	39.69
770.937	39.7
771.332	39.68
771.726	39.64
772.121	39.61
772.515	39.59
772.91	39.58
773.304	39.52
773.699	39.5
774.093	39.42
774.487	39.38
774.881	39.34
775.275	39.29
775.669	39.27
776.063	39.22
776.457	39.2
776.851	39.13
777.245	39.1
777.638	39.07
778.032	39.03
778.425	39.04
778.819	39.02
779.212	38.98
779.606	38.93
779.999	38.89
780.392	38.85
780.786	38.83
781.179	38.82
781.572	38.8
781.965	38.75
782.358	38.68
782.751	38.62
783.143	38.57
783.536	38.54
783.929	38.51
784.322	38.46
784.714	38.42
785.107	38.38
785.499	38.32
785.891	38.24
786.284	38.19
786.676	38.15
787.068	38.09
787.46	38.02
787.852	37.97
788.245	37.9
788.636	37.83
789.028	37.75
789.42	37.66
789.812	37.6
790.204	37.54
790.595	37.49
790.987	37.41
791.378	37.36
791.77	37.3
792.161	37.23
792.553	37.18
792.944	37.16
793.335	37.16
793.726	37.11
794.117	37.09
794.508	37.04
794.899	36.99
795.29	36.98
795.681	36.93
796.072	36.89
796.463	36.81
796.853	36.75
797.244	36.68
797.634	36.6
798.025	36.56
798.415	36.46
798.806	36.44
799.196	36.39
799.586	36.33
799.976	36.27
800.366	36.22
800.756	36.21
801.146	36.18
801.536	36.09
801.926	36.06
802.316	36.04
802.706	36.01
803.095	35.92
803.485	35.89
803.874	35.85
804.264	35.84
804.653	35.75
805.043	35.69
805.432	35.58
805.821	35.51
806.21	35.47
806.599	35.41
806.988	35.31
807.377	35.25
807.766	35.18
808.155	35.1
808.544	34.98
808.933	34.9
809.321	34.82
809.71	34.78
810.098	34.69
810.487	34.57
810.875	34.41
811.264	34.31
811.652	34.18
812.04	34.04
812.428	33.91
812.816	33.82
813.204	33.73
813.592	33.64
813.98	33.51
814.368	33.42
814.756	33.32
815.144	33.27
815.531	33.22
815.919	33.17
816.306	33.15
816.694	33.13
817.081	33.1
817.469	33.07
817.856	33.03
818.243	32.98
818.63	32.96
819.017	32.91
819.404	32.85
819.791	32.8
820.178	32.78
820.565	32.73
820.952	32.66
821.339	32.61
821.725	32.59
822.112	32.56
822.498	32.58
822.885	32.55
823.271	32.54
823.657	32.51
824.044	32.47
824.43	32.42
824.816	32.34
825.202	32.3
825.588	32.27
825.974	32.21
826.36	32.14
826.746	32.09
827.132	32.05
827.517	32.01
827.903	31.98
828.289	31.96
828.674	31.91
829.06	31.9
829.445	31.88
829.83	31.82
830.216	31.8
830.601	31.77
830.986	31.75
831.371	31.74
831.756	31.7
832.141	31.68
832.526	31.65
832.911	31.65
833.295	31.64
833.68	31.62
834.065	31.63
834.449	31.57
834.834	31.55
835.218	31.51
835.603	31.47
835.987	31.43
836.371	31.4
836.755	31.37
837.139	31.33
837.524	31.3
837.908	31.26
838.291	31.23
838.675	31.23
839.059	31.22
839.443	31.17
839.827	31.16
840.21	31.17
840.594	31.14
840.977	31.12
841.361	31.11
841.744	31.11
842.127	31.1
842.511	31.07
842.894	31.04
843.277	31
843.66	31.01
844.043	30.98
844.426	30.94
844.809	30.92
845.191	30.9
845.574	30.87
845.957	30.8
846.339	30.77
846.722	30.74
847.104	30.72
847.487	30.73
847.869	30.68
848.252	30.65
848.634	30.63
849.016	30.62
849.398	30.58
849.78	30.53
850.162	30.5
850.544	30.46
850.926	30.42
851.307	30.39
851.689	30.35
852.071	30.33
852.452	30.33
852.834	30.32
853.215	30.3
853.597	30.3
853.978	30.3
854.359	30.29
854.741	30.31
855.122	30.31
855.503	30.31
855.884	30.3
856.265	30.31
856.646	30.29
857.026	30.28
857.407	30.26
857.788	30.25
858.169	30.24
858.549	30.28
858.93	30.25
859.31	30.24
859.69	30.2
860.071	30.19
860.451	30.17
860.831	30.14
861.211	30.1
861.591	30.09
861.971	30.03
862.351	30.02
862.731	29.95
863.111	29.93
863.491	29.9
863.87	29.87
864.25	29.85
864.629	29.81
865.009	29.81
865.388	29.81
865.768	29.78
866.147	29.78
866.526	29.77
866.905	29.78
867.284	29.81
867.663	29.8
868.042	29.8
868.421	29.76
868.8	29.76
869.179	29.76
869.558	29.74
869.936	29.74
870.315	29.75
870.693	29.75
871.072	29.74
871.45	29.7
871.828	29.7
872.207	29.71
872.585	29.74
872.963	29.72
873.341	29.71
873.719	29.72
874.097	29.71
874.475	29.68
874.853	29.67
875.23	29.68
875.608	29.68
875.986	29.66
876.363	29.64
876.741	29.62
877.118	29.61
877.495	29.61
877.873	29.58
878.25	29.56
878.627	29.56
879.004	29.57
879.381	29.56
879.758	29.54
880.135	29.55
880.512	29.57
880.889	29.58
881.265	29.59
881.642	29.59
882.019	29.6
882.395	29.6
882.772	29.6
883.148	29.59
883.524	29.58
883.901	29.59
884.277	29.58
884.653	29.57
885.029	29.57
885.405	29.54
885.781	29.53
886.157	29.52
886.532	29.5
886.908	29.5
887.284	29.48
887.659	29.47
888.035	29.47
888.411	29.44
888.786	29.4
889.161	29.37
889.537	29.37
889.912	29.35
890.287	29.31
890.662	29.31
891.037	29.27
891.412	29.23
891.787	29.2
892.162	29.14
892.536	29.12
892.911	29.11
893.286	29.08
893.66	29.06
894.035	29.04
894.409	29.03
894.784	28.98
895.158	28.95
895.532	28.93
895.906	28.9
896.281	28.88
896.655	28.85
897.029	28.8
897.402	28.79
897.776	28.76
898.15	28.73
898.524	28.71
898.898	28.73
899.271	28.71
899.645	28.71
900.018	28.69
900.392	28.7
900.765	28.71
901.138	28.73
901.511	28.74
901.884	28.74
902.258	28.75
902.631	28.77
903.003	28.78
903.376	28.77
903.749	28.78
904.122	28.8
904.495	28.79
904.867	28.77
905.24	28.78
905.612	28.74
905.985	28.73
906.357	28.71
906.729	28.66
907.102	28.63
907.474	28.64
907.846	28.63
908.218	28.62
908.59	28.61
908.962	28.63
909.334	28.61
909.705	28.59
910.077	28.57
910.449	28.57
910.82	28.57
911.192	28.58
911.563	28.54
911.935	28.53
912.306	28.52
912.677	28.53
913.048	28.49
913.419	28.47
913.79	28.47
914.161	28.46
914.532	28.43
914.903	28.44
915.274	28.4
915.645	28.44
916.015	28.43
916.386	28.43
916.756	28.38
917.127	28.39
917.497	28.39
917.868	28.41
918.238	28.43
918.608	28.44
918.978	28.44
919.348	28.47
919.718	28.45
920.088	28.44
920.458	28.45
920.828	28.49
921.198	28.49
921.567	28.51
921.937	28.51
922.306	28.46
922.676	28.45
923.045	28.39
923.415	28.36
923.784	28.36
924.153	28.34
924.522	28.33
924.891	28.3
925.26	28.3
925.629	28.27
925.998	28.26
926.367	28.25
926.736	28.2
927.104	28.23
927.473	28.2
927.842	28.14
928.21	28.13
928.578	28.08
928.947	28.07
929.315	28.04
929.683	28.01
930.051	27.95
930.42	27.88
930.788	27.9
931.156	27.85
931.523	27.8
931.891	27.8
932.259	27.74
932.627	27.66
932.994	27.62
933.362	27.54
933.729	27.46
934.097	27.43
934.464	27.44
934.831	27.36
935.199	27.35
935.566	27.34
935.933	27.31
936.3	27.32
936.667	27.37
937.034	27.3
937.401	27.26
937.767	27.31
938.134	27.27
938.501	27.24
938.867	27.29
939.234	27.32
939.6	27.32
939.967	27.33
940.333	27.38
940.699	27.44
941.065	27.58
941.431	27.66
941.798	27.68
942.163	27.78
942.529	27.91
942.895	27.96
943.261	27.97
943.627	28.05
943.992	28.09
944.358	28.07
944.723	28.05
945.089	28.04
945.454	28.2
945.82	28.18
946.185	28.24
946.55	28.21
946.915	28.2
947.28	28.16
947.645	28.09
948.01	28.03
948.375	28.02
948.74	27.99
949.104	27.96
949.469	27.82
949.834	27.83
950.198	27.75
950.562	27.76
950.927	27.75
951.291	27.75
951.655	27.82
952.02	27.86
952.384	27.93
952.748	27.92
953.112	27.85
953.476	27.86
953.839	27.86
954.203	27.81
954.567	27.81
954.931	27.86
955.294	27.85
955.658	27.79
956.021	27.77
956.385	27.7
956.748	27.72
957.111	27.73
957.474	27.71
957.837	27.74
958.2	27.74
958.563	27.68
958.926	27.63
959.289	27.65
959.652	27.63
960.015	27.63
960.377	27.69
960.74	27.64
961.102	27.63
961.465	27.61
961.827	27.42
962.189	27.44
962.552	27.39
962.914	27.33
963.276	27.31
963.638	27.37
964	27.32
964.362	27.29
964.724	27.31
965.085	27.36
965.447	27.41
965.809	27.5
966.17	27.57
966.532	27.61
966.893	27.69
967.255	27.66
967.616	27.65
967.977	27.7
968.338	27.67
968.699	27.66
969.061	27.59
969.421	27.54
969.782	27.58
970.143	27.5
970.504	27.46
970.865	27.37
971.225	27.4
971.586	27.42
971.946	27.41
972.307	27.41
972.667	27.39
973.027	27.46
973.388	27.41
973.748	27.39
974.108	27.42
974.468	27.43
974.828	27.4
975.188	27.38
975.548	27.38
975.907	27.37
976.267	27.38
976.627	27.35
976.986	27.32
977.346	27.4
977.705	27.44
978.064	27.47
978.424	27.5
978.783	27.55
979.142	27.5
979.501	27.42
979.86	27.36
980.219	27.29
980.578	27.34
980.937	27.33
981.296	27.28
981.654	27.27
982.013	27.16
982.371	27.15
982.73	27.21
983.088	27.21
983.447	27.25
983.805	27.39
984.163	27.42
984.521	27.38
984.879	27.46
985.237	27.49
985.595	27.47
985.953	27.53
986.311	27.56
986.669	27.52
987.026	27.51
987.384	27.55
987.741	27.49
988.099	27.5
988.456	27.58
988.814	27.52
989.171	27.48
989.528	27.44
989.885	27.39
990.242	27.33
990.599	27.35
990.956	27.4
991.313	27.31
991.67	27.37
992.027	27.26
992.383	27.16
992.74	27.07
993.096	27.04
993.453	27.18
993.809	27.16
994.165	27.17
994.522	27.06
994.878	26.94
995.234	26.97
995.59	26.87
995.946	27.08
996.302	27.11
996.658	27.2
997.013	27.3
997.369	27.15
997.725	27.22
998.08	27.19
998.436	27.33
998.791	27.39
999.147	27.36
999.502	27.44
999.857	27.34
1000.212	27.24
1000.567	27.22
1000.922	27.15
1001.277	27.23
1001.632	27.29
1001.987	27.27
1002.342	27.31
1002.696	27.31
1003.051	27.22
1003.406	27.1
1003.76	27.04
1004.114	27.23
1004.469	27.25
1004.823	27.35
1005.177	27.44
1005.531	27.35
1005.885	27.36
1006.239	27.32
1006.593	27.38
1006.947	27.45
1007.301	27.52
1007.655	27.7
1008.008	27.51
1008.362	27.44
1008.715	27.39
1009.069	27.17
1009.422	26.97
1009.776	27.12
1010.129	27.03
1010.482	26.96
1010.835	26.94
1011.188	26.87
1011.541	26.7
1011.894	26.79
1012.247	26.54
1012.6	26.47
1012.952	26.51
1013.305	26.79
1013.657	26.69
1014.01	26.82
1014.362	26.91
1014.715	26.83
1015.067	26.95
1015.419	26.99
1015.771	27.22
1016.123	27.5
1016.475	27.68
1016.827	27.83
1017.179	27.72
1017.531	27.77
1017.883	27.72
1018.234	27.53
1018.586	27.61
1018.938	27.16
1019.289	27.04
1019.64	26.97
1019.992	27
1020.343	26.85
1020.694	26.67
1021.045	26.64
1021.396	26.4
1021.747	26.41
1022.098	26.58
1022.449	26.56
1022.8	26.72
1023.151	26.94
1023.501	26.71
1023.852	26.54
1024.202	26.55
1024.553	26.96
1024.903	27.28
1025.253	27.36
1025.604	27.3
1025.954	27.03
1026.304	27.55
1026.654	27.85
1027.004	27.74
1027.354	27.79
1027.703	27.86
1028.053	27.86
1028.403	27.19
1028.753	26.93
1029.102	26.93
1029.452	26.81
1029.801	26.95
1030.15	26.49
1030.499	26.38
897.758	199.16
901.051	207.1
904.343	212.89
907.636	206.27
910.928	208.23
914.22	208.68
917.511	197.59
920.803	198.74
924.094	189.93
927.384	192.15
930.675	186.5
933.965	186.17
937.255	182.43
940.544	173.15
943.834	172.25
947.123	165.79
950.411	162.22
953.7	163
956.988	156.7
960.276	154.13
963.563	156.42
966.851	152.4
970.138	150.22
973.424	143.34
976.711	144.39
979.997	141.07
983.283	137.98
986.568	134.09
989.853	133.99
993.138	130.68
996.423	130.22
999.708	125.28
1002.992	125.33
1006.275	125.29
1009.559	125.19
1012.842	121.91
1016.125	117.58
1019.408	117.7
1022.69	119.08
1025.972	116.5
1029.254	115.22
1032.536	113.9
1035.817	112.16
1039.098	111.47
1042.379	109.62
1045.659	109.14
1048.939	108.62
1052.219	109.87
1055.498	109.05
1058.778	106.33
1062.057	106.21
1065.335	106.28
1068.614	105.31
1071.892	104.87
1075.17	103.28
1078.447	102.76
1081.724	102.1
1085.001	100.49
1088.278	100.71
1091.554	100.1
1094.83	100.53
1098.106	99.9
1101.382	99.45
1104.657	98.87
1107.932	98.92
1111.206	98.67
1114.481	98.34
1117.755	97.62
1121.029	97.74
1124.302	95.76
1127.575	95.95
1130.848	95.11
1134.121	94.11
1137.393	93.91
1140.665	94.09
1143.937	92.68
1147.208	93.16
1150.48	92.1
1153.75	91.99
1157.021	91.58
1160.291	92.24
1163.561	91.42
1166.831	91.36
1170.101	91.04
1173.37	90.69
1176.639	89.93
1179.907	89.76
1183.176	88.92
1186.444	88.63
1189.711	88.31
1192.979	88.88
1196.246	88.57
1199.513	88.59
1202.78	88.15
1206.046	88.43
1209.312	88.68
1212.578	88.77
1215.843	89.91
1219.108	90.01
1222.373	91.34
1225.638	92.27
1228.902	92.75
1232.166	94.03
1235.43	93.82
1238.693	95.99
1241.956	96.91
1245.219	98.09
1248.482	99.35
1251.744	99.06
1255.006	99.65
1258.268	97.1
1261.529	96.76
1264.79	95.97
1268.051	95.12
1271.312	95.81
1274.572	93.93
1277.832	93.19
1281.092	92.67
1284.351	90.88
1287.61	90.85
1290.869	91.05
1294.128	91.7
1297.386	91.31
1300.644	90.13
1303.902	89.66
1307.159	88.86
1310.416	89.26
1313.673	89.89
1316.93	89.64
1320.186	90.55
1323.442	90.9
1326.697	90.51
1329.953	89.48
1333.208	90.6
1336.463	93.18
1339.717	93.78
1342.972	95.02
1346.226	96.58
1349.479	95.61
1352.733	97.37
1355.986	97.43
1359.238	98.27
1362.491	97.02
1365.743	102
1368.995	103.11
1372.247	97.87
1375.498	96.51
1378.749	97.95
1382	97.57
1385.251	96.59
1388.501	96.43
1391.751	96.69
1395	95.18
1398.25	97.18
1401.499	93
1404.748	90.02
1407.996	91.58
1411.244	92.13
1414.492	90.05
1417.74	86.93
1420.987	85.17
1424.234	83.59
1427.481	81.8
1430.728	80.01
1433.974	76.7
1437.22	76.24
1440.465	74.69
1443.711	73.58
1446.956	72.01
1450.201	70.35
1453.445	67.24
1456.689	66.71
1459.933	65.97
1463.177	63.45
1466.42	63.2
1469.663	63.21
1472.906	61.98
1476.148	60.4
1479.391	60.67
1482.633	60.02
1485.874	60.28
1489.115	61.34
1492.356	60.86
1495.597	60.1
1498.838	61.38
1502.078	61.34
1505.318	61.26
1508.557	60.35
1511.797	61.62
1515.036	61.4
1518.274	62
1521.513	62.23
1524.751	62.17
1527.989	62.75
1531.227	62.91
1534.464	63.04
1537.701	63.64
1540.938	63.15
1544.174	64.37
1547.41	64.86
1550.646	65.22
1553.882	65.09
1557.117	65.59
1560.352	65.79
1563.587	66.1
1566.821	66.33
1570.055	66.19
1573.289	66.41
1576.523	66.81
1579.756	67.16
1582.989	67.24
1586.222	67.25
1589.454	67.58
1592.686	67.85
1595.918	67.26
1599.15	67.25
1602.381	67.76
1605.612	68.38
1608.843	67.59
1612.073	68.44
1615.303	68.19
1618.533	68.2
1621.762	67.92
1624.992	68.07
1628.221	67.3
1631.449	68.3
1634.678	68.79
1637.906	68.52
1641.134	68.37
1644.361	68.95
1647.588	68.01
1650.815	68.57
1654.042	68.39
1657.269	68.25
1660.495	68.68
1663.72	68.88
1666.946	68.74
1670.171	68.67
1673.396	69.01
1676.621	68.72
1679.845	69.54
1683.069	69.58
1686.293	69.5
1689.517	69.14
1692.74	69.85
1695.963	69.01
1699.185	69.17
1702.408	68.82
1705.63	68.63
1708.852	68.51
1712.073	68.64
1715.294	67.74
1718.515	69.02
1721.736	68.48
1724.956	69.21
1728.176	68.87
1731.396	69.1
1734.616	68.86
1737.835	69.21
1741.054	69.19
1744.272	68.55
1747.491	68.53
1750.709	68.61
1753.927	67.52
1757.144	68.22
1760.361	67.38
1763.578	67.64
1766.795	68.01
1770.011	68.16
1773.227	67.95
1776.443	68.39
1779.658	67.96
1782.874	68.97
1786.089	68.22
1789.303	68.36
1792.518	67.94
1795.732	68.57
1798.945	69.4
1802.159	69.01
1805.372	68.87
1808.585	69.26
1811.797	68.5
1815.01	69.84
1818.222	68.81
1821.434	69.68
1824.645	69.62
1827.856	69.83
1831.067	69.52
1834.278	68.99
1837.488	69.1
1840.698	69.63
1843.908	69.25
1847.117	69.66
1850.326	68.96
1853.535	69.31
1856.744	68.95
1859.952	69.1
1863.16	67.93
1866.368	67.02
1869.575	66.05
1872.782	64.61
1875.989	61.79
1879.196	60.56
1882.402	58.55
1885.608	57.66
1888.814	54.88
1892.019	53.06
1895.224	50.69
1898.429	50.03
1901.634	48.38
1904.838	47.04
1908.042	46.54
1911.246	46.16
1914.449	45.49
1917.652	44.68
1920.855	44.37
1924.058	43.98
1927.26	42.62
1930.462	43.62
1933.664	42.98
1936.865	43.66
1940.066	42.28
1943.267	41.5
1946.467	42.37
1949.668	42.03
1952.868	42.53
1956.067	42.3
1959.267	43.92
1962.466	44.45
1965.665	44.59
1968.863	46.15
1972.061	46.33
1975.259	47.95
1978.457	49.08
1981.654	49.07
1984.852	50.3
1988.048	50.83
1991.245	52.18
1994.441	53.5
1997.637	53.97
2000.833	55.8
2004.028	55.24
2007.223	56.58
2010.418	58.16
2013.613	61.2
2016.807	62.98
2020.001	64.06
2023.194	67.39
2026.388	68.96
2029.581	71.39
2032.774	73.82
2035.966	74.83
2039.158	77.96
2042.35	78.2
2045.542	80.74
2048.733	83.56
2051.924	83.06
2055.115	84.31
2058.306	83.45
2061.496	84.1
2064.686	83.8
2067.875	86.44
2071.065	88.1
2074.254	86.61
2077.442	90.84
2080.631	90.24
2083.819	89.25
2087.007	94.3
2090.195	95.53
2093.382	95.34
2096.569	96.17
2099.756	96.8
2102.942	96.28
2106.128	96.09
2109.314	101.78
2112.5	99.96
2115.685	97.3
2118.87	97.2
2122.055	97.44
2125.239	97.97
2128.424	102.29
2131.608	100.84
2134.791	100.98
2137.974	102.09
2141.157	103.51
2144.34	99.4
2147.523	105.14
2150.705	109.32
2153.887	109.2
2157.068	109.25
2160.25	110.22
2163.431	110.12
2166.611	111.6
2169.792	113.65
2172.972	116.87
2176.152	116.11
2179.331	119.21
2182.511	117.26
2185.69	120.63
2188.868	123.35
2192.047	125.33
2195.225	128.25
2198.403	125.23
2201.58	125.21
2204.758	129.3
2207.935	125.38
2211.111	128.01
2214.288	128.24
2217.464	129.07
2220.64	129.91
2223.815	128
2226.991	127.38
2230.166	128.79
2233.34	132.76
2236.515	133.67
2239.689	130.51
2242.863	134.08
2246.036	133.69
2249.209	134.14
2252.382	131.23
2255.555	131.1
2258.727	135.09
2261.9	136.23
2265.071	136.29
2268.243	136.1
2271.414	140.39
2274.585	142.62
2277.756	143.14
2280.926	150.2
2284.096	152.05
2287.266	156.62
2290.436	156.2
2293.605	158.96
2296.774	164.07
2299.942	167.9
2303.111	174.23
2306.279	178.6
2309.447	180.1
2312.614	177.44
2315.781	175.76
2318.948	180.81
2322.115	184.26
2325.281	188.67
2328.447	189.54
2331.613	188.72
2334.779	187.85
2337.944	185.57
2341.109	188.98
2344.274	189.48
2347.438	194.44
2350.602	198.71
2353.766	209.65
2356.929	209.05
2360.092	213.29
2363.255	211.18
2366.418	215.46
2369.58	221.58
2372.742	227.23
2375.904	225.58
2379.066	230.8
2382.227	243.49
2385.388	240.63
2388.548	219.53
2391.709	216.79
2394.869	222
2398.029	229.88
2401.188	227.15
2404.347	231.14
2407.506	237.31
2410.665	229.8
2413.823	237.29
2416.981	238.33
2420.139	229.45
2423.296	252.34
2426.453	263
2429.61	260.09
2432.767	268.52
2435.923	283.39
2439.079	274.07
2442.235	272.34
2445.391	285.21
2448.546	276.38
2451.701	287.51
2454.855	304.99
2458.009	279.97
2461.163	291.1
2464.317	282.9
2467.471	277.16
2470.624	283.26
2473.777	275.05
2476.929	272.12
2480.082	274.41
2483.234	290.11
2486.385	298.3
2489.537	307.51
2492.688	326.22
2495.839	323.36
2498.989	335.54
2502.14	331.81
2505.29	318.83
2508.439	349.2
2511.589	353.18
2514.738	352.59
2517.887	345.99
2521.035	316.54
2524.183	320.68
2527.331	321.01
2530.479	307.48
2533.627	311.73
