Data from C_2_dec_oh_4n_046_Splice17_16.txt Node
Date: Sat Feb 29 14:36:04 EST 2020
User: sa697716
Spectrometer: FLMS03696
Trigger mode: 0
Integration Time (sec): 3.180400E-1
Scans to average: 20
Electric dark correction enabled: true
Nonlinearity correction enabled: true
Boxcar width: 5
XAxis mode: Wavelengths
Number of Pixels in Spectrum: 2048
>>>>>Begin Spectral Data<<<<<
187.83	81.82
188.298	72.34
188.766	69.19
189.233	53.47
189.701	53.71
190.169	58.91
190.636	41.58
191.104	-4.19
191.571	-168.76
192.039	17.27
192.506	677.01
192.974	11449.99
193.441	-353.98
193.908	109.07
194.375	32.28
194.842	-89.77
195.31	-20.27
195.777	-61.21
196.244	0.88
196.711	30.9
197.177	33.39
197.644	32.9
198.111	31.96
198.578	33.83
199.045	34.3
199.511	35.13
199.978	36.2
200.445	36.12
200.911	36.3
201.378	36.62
201.844	36.88
202.31	37.71
202.777	38.43
203.243	39.61
203.709	39.92
204.176	40.25
204.642	40.74
205.108	40.95
205.574	41.7
206.04	41.95
206.506	41.98
206.972	42.03
207.438	41.99
207.903	42.31
208.369	41.93
208.835	41.89
209.301	41.86
209.766	41.56
210.232	41.69
210.697	41.61
211.163	41.46
211.628	41.46
212.094	41.69
212.559	41.41
213.024	40.96
213.49	40.88
213.955	40.69
214.42	40.61
214.885	40.45
215.35	40.17
215.815	40.05
216.28	40.02
216.745	39.98
217.21	39.35
217.675	39.03
218.14	38.33
218.604	37.81
219.069	37.43
219.534	36.91
219.998	36.46
220.463	36.06
220.927	35.65
221.392	35.17
221.856	34.64
222.32	34.28
222.785	33.82
223.249	33.46
223.713	33.08
224.177	32.68
224.642	32.3
225.106	31.87
225.57	31.48
226.034	31.1
226.497	30.7
226.961	30.31
227.425	29.91
227.889	29.58
228.353	29.24
228.816	28.87
229.28	28.5
229.744	28.16
230.207	27.83
230.671	27.47
231.134	27.13
231.597	26.8
232.061	26.52
232.524	26.2
232.987	25.86
233.45	25.53
233.914	25.21
234.377	24.96
234.84	24.68
235.303	24.4
235.766	24.13
236.229	23.85
236.691	23.6
237.154	23.33
237.617	23.1
238.08	22.87
238.542	22.63
239.005	22.43
239.468	22.16
239.93	21.92
240.393	21.72
240.855	21.5
241.317	21.3
241.78	21.11
242.242	20.92
242.704	20.73
243.166	20.55
243.629	20.4
244.091	20.22
244.553	20.05
245.015	19.91
245.477	19.74
245.939	19.61
246.4	19.46
246.862	19.3
247.324	19.15
247.786	18.99
248.247	18.86
248.709	18.71
249.17	18.57
249.632	18.43
250.093	18.27
250.555	18.14
251.016	18.02
251.477	17.89
251.939	17.79
252.4	17.68
252.861	17.57
253.322	17.46
253.783	17.36
254.244	17.25
254.705	17.17
255.166	17.1
255.627	17.02
256.088	16.92
256.549	16.84
257.009	16.75
257.47	16.68
257.931	16.59
258.391	16.49
258.852	16.4
259.312	16.32
259.773	16.25
260.233	16.16
260.694	16.07
261.154	15.99
261.614	15.91
262.074	15.83
262.534	15.74
262.994	15.67
263.455	15.6
263.915	15.53
264.374	15.45
264.834	15.38
265.294	15.3
265.754	15.23
266.214	15.18
266.673	15.12
267.133	15.05
267.593	15
268.052	14.93
268.512	14.89
268.971	14.83
269.431	14.78
269.89	14.72
270.349	14.69
270.809	14.65
271.268	14.59
271.727	14.54
272.186	14.49
272.645	14.44
273.104	14.39
273.563	14.34
274.022	14.28
274.481	14.23
274.94	14.18
275.399	14.12
275.857	14.06
276.316	14
276.775	13.93
277.233	13.88
277.692	13.82
278.15	13.77
278.609	13.71
279.067	13.66
279.525	13.59
279.984	13.54
280.442	13.49
280.9	13.44
281.358	13.39
281.816	13.34
282.274	13.28
282.732	13.24
283.19	13.19
283.648	13.16
284.106	13.11
284.564	13.08
285.021	13.04
285.479	13.01
285.937	12.97
286.394	12.93
286.852	12.89
287.309	12.86
287.767	12.82
288.224	12.77
288.682	12.73
289.139	12.69
289.596	12.64
290.053	12.59
290.511	12.53
290.968	12.47
291.425	12.43
291.882	12.39
292.339	12.33
292.796	12.28
293.252	12.23
293.709	12.18
294.166	12.13
294.623	12.08
295.079	12.05
295.536	12
295.992	11.96
296.449	11.92
296.905	11.87
297.362	11.83
297.818	11.79
298.274	11.75
298.731	11.72
299.187	11.7
299.643	11.67
300.099	11.64
300.555	11.6
301.011	11.56
301.467	11.52
301.923	11.49
302.379	11.45
302.835	11.43
303.291	11.38
303.746	11.35
304.202	11.31
304.658	11.27
305.113	11.23
305.569	11.21
306.024	11.18
306.479	11.16
306.935	11.13
307.39	11.12
307.845	11.08
308.301	11.09
308.756	11.06
309.211	11.04
309.666	11.02
310.121	10.99
310.576	10.97
311.031	10.95
311.486	10.93
311.94	10.91
312.395	10.88
312.85	10.88
313.305	10.85
313.759	10.82
314.214	10.8
314.668	10.77
315.123	10.76
315.577	10.74
316.032	10.73
316.486	10.7
316.94	10.68
317.394	10.65
317.849	10.61
318.303	10.59
318.757	10.57
319.211	10.54
319.665	10.52
320.119	10.5
320.572	10.47
321.026	10.44
321.48	10.43
321.934	10.41
322.387	10.39
322.841	10.36
323.295	10.33
323.748	10.3
324.202	10.28
324.655	10.24
325.108	10.21
325.562	10.18
326.015	10.14
326.468	10.09
326.921	10.05
327.374	10.03
327.827	10
328.28	9.97
328.733	9.94
329.186	9.92
329.639	9.9
330.092	9.89
330.545	9.87
330.997	9.86
331.45	9.85
331.903	9.83
332.355	9.82
332.808	9.81
333.26	9.81
333.713	9.81
334.165	9.79
334.617	9.8
335.069	9.79
335.522	9.79
335.974	9.78
336.426	9.77
336.878	9.77
337.33	9.76
337.782	9.76
338.234	9.74
338.686	9.73
339.137	9.71
339.589	9.69
340.041	9.69
340.493	9.66
340.944	9.63
341.396	9.62
341.847	9.59
342.299	9.57
342.75	9.53
343.201	9.51
343.653	9.48
344.104	9.45
344.555	9.43
345.006	9.39
345.457	9.36
345.908	9.35
346.359	9.33
346.81	9.31
347.261	9.28
347.712	9.27
348.163	9.24
348.613	9.23
349.064	9.2
349.515	9.18
349.965	9.17
350.416	9.17
350.866	9.15
351.317	9.13
351.767	9.13
352.217	9.13
352.668	9.11
353.118	9.12
353.568	9.12
354.018	9.12
354.468	9.11
354.918	9.11
355.368	9.11
355.818	9.1
356.268	9.09
356.718	9.08
357.168	9.07
357.617	9.05
358.067	9.04
358.517	9.03
358.966	9.03
359.416	9.03
359.865	9.01
360.315	8.98
360.764	8.98
361.213	8.96
361.663	8.96
362.112	8.97
362.561	8.97
363.01	8.97
363.459	8.96
363.908	8.94
364.357	8.92
364.806	8.92
365.255	8.92
365.703	8.91
366.152	8.9
366.601	8.89
367.05	8.88
367.498	8.87
367.947	8.86
368.395	8.85
368.844	8.84
369.292	8.85
369.74	8.85
370.189	8.83
370.637	8.83
371.085	8.83
371.533	8.82
371.981	8.8
372.429	8.77
372.877	8.76
373.325	8.75
373.773	8.74
374.221	8.71
374.669	8.69
375.116	8.66
375.564	8.65
376.012	8.64
376.459	8.64
376.907	8.64
377.354	8.64
377.801	8.62
378.249	8.62
378.696	8.61
379.143	8.63
379.591	8.63
380.038	8.63
380.485	8.63
380.932	8.63
381.379	8.6
381.826	8.6
382.273	8.6
382.72	8.61
383.166	8.6
383.613	8.61
384.06	8.6
384.506	8.59
384.953	8.59
385.4	8.59
385.846	8.58
386.292	8.61
386.739	8.61
387.185	8.62
387.631	8.63
388.078	8.65
388.524	8.64
388.97	8.65
389.416	8.65
389.862	8.65
390.308	8.66
390.754	8.68
391.2	8.68
391.645	8.69
392.091	8.7
392.537	8.72
392.983	8.73
393.428	8.76
393.874	8.78
394.319	8.8
394.765	8.81
395.21	8.83
395.655	8.84
396.101	8.85
396.546	8.86
396.991	8.88
397.436	8.86
397.881	8.87
398.326	8.89
398.771	8.91
399.216	8.94
399.661	8.97
400.106	9
400.551	9.02
400.995	9.02
401.44	9.03
401.885	9.03
402.329	9.04
402.774	9.05
403.218	9.04
403.663	9.05
404.107	9.07
404.551	9.07
404.995	9.08
405.44	9.07
405.884	9.1
406.328	9.1
406.772	9.12
407.216	9.14
407.66	9.15
408.104	9.17
408.547	9.17
408.991	9.17
409.435	9.15
409.879	9.15
410.322	9.17
410.766	9.17
411.209	9.2
411.653	9.18
412.096	9.18
412.54	9.18
412.983	9.19
413.426	9.22
413.869	9.24
414.312	9.27
414.756	9.31
415.199	9.32
415.642	9.36
416.085	9.36
416.527	9.4
416.97	9.42
417.413	9.42
417.856	9.4
418.298	9.36
418.741	9.36
419.184	9.34
419.626	9.32
420.069	9.31
420.511	9.3
420.953	9.3
421.396	9.29
421.838	9.3
422.28	9.33
422.722	9.36
423.164	9.38
423.606	9.41
424.048	9.42
424.49	9.45
424.932	9.44
425.374	9.44
425.816	9.43
426.258	9.43
426.699	9.4
427.141	9.36
427.582	9.33
428.024	9.33
428.465	9.32
428.907	9.33
429.348	9.33
429.789	9.33
430.231	9.32
430.672	9.34
431.113	9.36
431.554	9.38
431.995	9.41
432.436	9.42
432.877	9.4
433.318	9.4
433.759	9.38
434.2	9.39
434.64	9.39
435.081	9.41
435.522	9.42
435.962	9.42
436.403	9.46
436.843	9.48
437.284	9.51
437.724	9.54
438.164	9.56
438.604	9.58
439.045	9.57
439.485	9.6
439.925	9.59
440.365	9.6
440.805	9.6
441.245	9.59
441.685	9.61
442.125	9.6
442.564	9.62
443.004	9.64
443.444	9.66
443.883	9.68
444.323	9.68
444.762	9.73
445.202	9.76
445.641	9.77
446.081	9.82
446.52	9.82
446.959	9.83
447.398	9.87
447.837	9.9
448.276	9.92
448.716	9.95
449.154	10.02
449.593	10.01
450.032	10.02
450.471	10.05
450.91	10.03
451.349	10.04
451.787	10.05
452.226	10.02
452.664	10
453.103	9.99
453.541	9.95
453.98	9.91
454.418	9.89
454.856	9.85
455.295	9.83
455.733	9.81
456.171	9.8
456.609	9.79
457.047	9.77
457.485	9.76
457.923	9.72
458.361	9.72
458.798	9.74
459.236	9.74
459.674	9.74
460.111	9.75
460.549	9.73
460.987	9.73
461.424	9.72
461.862	9.7
462.299	9.69
462.736	9.71
463.173	9.71
463.611	9.69
464.048	9.68
464.485	9.67
464.922	9.65
465.359	9.63
465.796	9.61
466.233	9.61
466.67	9.64
467.106	9.64
467.543	9.65
467.98	9.66
468.416	9.67
468.853	9.69
469.29	9.69
469.726	9.71
470.162	9.73
470.599	9.76
471.035	9.78
471.471	9.76
471.907	9.77
472.344	9.77
472.78	9.75
473.216	9.75
473.652	9.72
474.088	9.75
474.523	9.76
474.959	9.76
475.395	9.74
475.831	9.74
476.266	9.75
476.702	9.74
477.138	9.74
477.573	9.73
478.008	9.75
478.444	9.76
478.879	9.74
479.314	9.72
479.75	9.71
480.185	9.7
480.62	9.7
481.055	9.69
481.49	9.68
481.925	9.66
482.36	9.66
482.795	9.63
483.229	9.61
483.664	9.61
484.099	9.6
484.534	9.6
484.968	9.61
485.403	9.6
485.837	9.59
486.271	9.59
486.706	9.6
487.14	9.61
487.574	9.62
488.009	9.63
488.443	9.65
488.877	9.66
489.311	9.66
489.745	9.68
490.179	9.7
490.613	9.71
491.046	9.75
491.48	9.76
491.914	9.78
492.348	9.83
492.781	9.85
493.215	9.89
493.648	9.93
494.082	9.97
494.515	10.01
494.948	10.05
495.382	10.09
495.815	10.12
496.248	10.18
496.681	10.23
497.114	10.29
497.547	10.35
497.98	10.41
498.413	10.48
498.846	10.55
499.279	10.64
499.711	10.73
500.144	10.83
500.577	10.94
501.009	11.05
501.442	11.18
501.874	11.29
502.306	11.42
502.739	11.55
503.171	11.7
503.603	11.86
504.036	12.02
504.468	12.19
504.9	12.38
505.332	12.57
505.764	12.78
506.196	12.98
506.627	13.21
507.059	13.44
507.491	13.7
507.923	13.96
508.354	14.24
508.786	14.53
509.217	14.8
509.649	15.1
510.08	15.41
510.512	15.71
510.943	16.05
511.374	16.37
511.805	16.72
512.237	17.07
512.668	17.42
513.099	17.79
513.53	18.16
513.961	18.55
514.391	18.93
514.822	19.31
515.253	19.74
515.684	20.11
516.114	20.54
516.545	20.95
516.975	21.37
517.406	21.8
517.836	22.19
518.267	22.61
518.697	23.05
519.127	23.49
519.558	23.94
519.988	24.36
520.418	24.81
520.848	25.21
521.278	25.63
521.708	26
522.138	26.39
522.567	26.8
522.997	27.19
523.427	27.57
523.857	27.92
524.286	28.28
524.716	28.62
525.145	28.96
525.575	29.31
526.004	29.64
526.433	29.99
526.863	30.31
527.292	30.61
527.721	30.89
528.15	31.16
528.579	31.43
529.008	31.67
529.437	31.91
529.866	32.14
530.295	32.36
530.724	32.58
531.152	32.79
531.581	32.98
532.01	33.15
532.438	33.33
532.867	33.47
533.295	33.63
533.723	33.79
534.152	33.93
534.58	34.04
535.008	34.13
535.436	34.22
535.865	34.32
536.293	34.4
536.721	34.48
537.149	34.54
537.576	34.63
538.004	34.71
538.432	34.76
538.86	34.8
539.287	34.85
539.715	34.93
540.143	34.95
540.57	35
540.998	35.04
541.425	35.1
541.852	35.16
542.28	35.18
542.707	35.21
543.134	35.25
543.561	35.28
543.988	35.32
544.415	35.35
544.842	35.41
545.269	35.47
545.696	35.52
546.123	35.57
546.549	35.62
546.976	35.68
547.403	35.71
547.829	35.74
548.256	35.79
548.682	35.81
549.108	35.84
549.535	35.85
549.961	35.85
550.387	35.85
550.813	35.83
551.24	35.8
551.666	35.81
552.092	35.8
552.518	35.77
552.943	35.77
553.369	35.74
553.795	35.69
554.221	35.65
554.646	35.61
555.072	35.55
555.498	35.5
555.923	35.44
556.349	35.31
556.774	35.21
557.199	35.12
557.625	34.97
558.05	34.84
558.475	34.7
558.9	34.58
559.325	34.43
559.75	34.27
560.175	34.09
560.6	33.92
561.025	33.73
561.449	33.57
561.874	33.37
562.299	33.22
562.723	33.04
563.148	32.82
563.572	32.6
563.997	32.37
564.421	32.15
564.846	31.93
565.27	31.71
565.694	31.48
566.118	31.22
566.542	30.96
566.966	30.68
567.39	30.43
567.814	30.17
568.238	29.9
568.662	29.64
569.086	29.35
569.509	29.09
569.933	28.79
570.357	28.53
570.78	28.27
571.204	28
571.627	27.75
572.05	27.5
572.474	27.27
572.897	27.02
573.32	26.8
573.743	26.59
574.166	26.37
574.589	26.17
575.012	25.99
575.435	25.78
575.858	25.62
576.281	25.44
576.704	25.28
577.126	25.11
577.549	24.98
577.972	24.84
578.394	24.69
578.817	24.57
579.239	24.45
579.661	24.31
580.084	24.21
580.506	24.07
580.928	23.96
581.35	23.82
581.772	23.71
582.194	23.6
582.616	23.46
583.038	23.36
583.46	23.24
583.882	23.14
584.303	23.04
584.725	22.94
585.147	22.83
585.568	22.72
585.99	22.64
586.411	22.55
586.833	22.45
587.254	22.38
587.675	22.29
588.096	22.22
588.518	22.15
588.939	22.07
589.36	21.98
589.781	21.93
590.202	21.87
590.623	21.81
591.043	21.73
591.464	21.66
591.885	21.61
592.305	21.57
592.726	21.53
593.147	21.48
593.567	21.42
593.987	21.41
594.408	21.37
594.828	21.32
595.248	21.27
595.669	21.25
596.089	21.2
596.509	21.15
596.929	21.09
597.349	21.02
597.769	20.98
598.189	20.95
598.608	20.87
599.028	20.8
599.448	20.75
599.867	20.69
600.287	20.61
600.706	20.55
601.126	20.49
601.545	20.43
601.965	20.36
602.384	20.26
602.803	20.15
603.222	20.08
603.641	19.99
604.061	19.91
604.48	19.82
604.898	19.71
605.317	19.62
605.736	19.52
606.155	19.41
606.574	19.31
606.992	19.21
607.411	19.12
607.829	18.99
608.248	18.88
608.666	18.77
609.085	18.65
609.503	18.55
609.921	18.44
610.339	18.34
610.758	18.23
611.176	18.11
611.594	18.02
612.012	17.91
612.43	17.86
612.847	17.78
613.265	17.67
613.683	17.57
614.101	17.48
614.518	17.38
614.936	17.3
615.353	17.21
615.771	17.12
616.188	17.03
616.606	16.95
617.023	16.86
617.44	16.77
617.857	16.7
618.274	16.64
618.691	16.57
619.108	16.53
619.525	16.47
619.942	16.43
620.359	16.41
620.776	16.39
621.192	16.35
621.609	16.31
622.026	16.29
622.442	16.26
622.859	16.24
623.275	16.23
623.691	16.21
624.108	16.19
624.524	16.18
624.94	16.16
625.356	16.13
625.772	16.12
626.188	16.11
626.604	16.1
627.02	16.1
627.436	16.1
627.852	16.08
628.268	16.05
628.683	16.02
629.099	16
629.514	15.97
629.93	15.93
630.345	15.9
630.761	15.86
631.176	15.82
631.591	15.78
632.007	15.72
632.422	15.66
632.837	15.6
633.252	15.54
633.667	15.45
634.082	15.37
634.497	15.3
634.911	15.19
635.326	15.08
635.741	14.98
636.155	14.85
636.57	14.74
636.984	14.6
637.399	14.47
637.813	14.33
638.228	14.21
638.642	14.09
639.056	13.95
639.47	13.84
639.884	13.72
640.298	13.59
640.712	13.46
641.126	13.32
641.54	13.2
641.954	13.09
642.368	12.95
642.781	12.83
643.195	12.7
643.609	12.59
644.022	12.46
644.436	12.35
644.849	12.25
645.262	12.16
645.676	12.04
646.089	11.96
646.502	11.87
646.915	11.81
647.328	11.74
647.741	11.66
648.154	11.6
648.567	11.54
648.98	11.5
649.393	11.46
649.805	11.41
650.218	11.39
650.631	11.35
651.043	11.3
651.456	11.26
651.868	11.21
652.28	11.18
652.693	11.13
653.105	11.09
653.517	11.05
653.929	11.01
654.341	10.98
654.753	10.92
655.165	10.88
655.577	10.83
655.989	10.77
656.401	10.72
656.813	10.66
657.224	10.61
657.636	10.56
658.047	10.5
658.459	10.43
658.87	10.35
659.282	10.32
659.693	10.27
660.104	10.22
660.515	10.17
660.926	10.13
661.338	10.08
661.749	10.02
662.159	9.98
662.57	9.94
662.981	9.9
663.392	9.87
663.803	9.83
664.213	9.78
664.624	9.76
665.035	9.72
665.445	9.71
665.855	9.7
666.266	9.7
666.676	9.7
667.086	9.69
667.497	9.68
667.907	9.68
668.317	9.66
668.727	9.65
669.137	9.65
669.547	9.67
669.956	9.66
670.366	9.69
670.776	9.68
671.186	9.67
671.595	9.68
672.005	9.69
672.414	9.7
672.824	9.74
673.233	9.77
673.642	9.78
674.052	9.79
674.461	9.81
674.87	9.82
675.279	9.85
675.688	9.88
676.097	9.91
676.506	9.93
676.915	9.97
677.323	10.01
677.732	10.03
678.141	10.09
678.549	10.15
678.958	10.2
679.366	10.25
679.775	10.3
680.183	10.36
680.592	10.42
681	10.48
681.408	10.55
681.816	10.6
682.224	10.7
682.632	10.78
683.04	10.87
683.448	11
683.856	11.13
684.264	11.29
684.671	11.46
685.079	11.65
685.487	11.89
685.894	12.15
686.302	12.42
686.709	12.72
687.116	13.06
687.524	13.44
687.931	13.85
688.338	14.31
688.745	14.82
689.152	15.37
689.559	15.95
689.966	16.57
690.373	17.25
690.78	17.96
691.187	18.72
691.593	19.49
692	20.32
692.407	21.15
692.813	22.03
693.22	22.91
693.626	23.81
694.032	24.74
694.439	25.72
694.845	26.66
695.251	27.65
695.657	28.61
696.063	29.61
696.469	30.6
696.875	31.59
697.281	32.54
697.687	33.54
698.093	34.53
698.498	35.49
698.904	36.45
699.31	37.4
699.715	38.38
700.12	39.32
700.526	40.28
700.931	41.19
701.337	42.13
701.742	43.04
702.147	43.94
702.552	44.83
702.957	45.73
703.362	46.6
703.767	47.45
704.172	48.28
704.577	49.12
704.981	49.91
705.386	50.71
705.791	51.5
706.195	52.29
706.6	53.07
707.004	53.8
707.408	54.52
707.813	55.25
708.217	55.96
708.621	56.66
709.025	57.38
709.43	58.02
709.834	58.72
710.237	59.36
710.641	60.04
711.045	60.66
711.449	61.29
711.853	61.9
712.256	62.53
712.66	63.15
713.064	63.76
713.467	64.33
713.87	64.94
714.274	65.51
714.677	66.09
715.08	66.62
715.484	67.21
715.887	67.74
716.29	68.3
716.693	68.8
717.096	69.32
717.499	69.8
717.901	70.28
718.304	70.77
718.707	71.19
719.109	71.66
719.512	72.14
719.915	72.58
720.317	73.02
720.719	73.41
721.122	73.82
721.524	74.24
721.926	74.64
722.328	75.03
722.731	75.37
723.133	75.81
723.535	76.16
723.937	76.48
724.338	76.79
724.74	77.12
725.142	77.38
725.544	77.68
725.945	77.92
726.347	78.21
726.748	78.5
727.15	78.79
727.551	79.03
727.952	79.28
728.354	79.51
728.755	79.77
729.156	80.01
729.557	80.32
729.958	80.59
730.359	80.83
730.76	81.01
731.161	81.18
731.562	81.38
731.962	81.53
732.363	81.7
732.763	81.9
733.164	82.01
733.564	82.15
733.965	82.29
734.365	82.37
734.766	82.52
735.166	82.61
735.566	82.72
735.966	82.8
736.366	82.88
736.766	82.95
737.166	83.06
737.566	83.15
737.966	83.27
738.365	83.35
738.765	83.44
739.165	83.48
739.564	83.58
739.964	83.67
740.363	83.81
740.763	83.91
741.162	83.97
741.561	84.05
741.96	84.14
742.36	84.2
742.759	84.26
743.158	84.33
743.557	84.4
743.955	84.52
744.354	84.59
744.753	84.61
745.152	84.64
745.55	84.77
745.949	84.84
746.348	84.9
746.746	84.96
747.144	85.03
747.543	85.11
747.941	85.22
748.339	85.27
748.737	85.4
749.136	85.51
749.534	85.65
749.932	85.65
750.33	85.66
750.727	85.73
751.125	85.79
751.523	85.8
751.921	85.81
752.318	85.8
752.716	85.79
753.113	85.75
753.511	85.69
753.908	85.62
754.305	85.59
754.703	85.59
755.1	85.5
755.497	85.47
755.894	85.48
756.291	85.48
756.688	85.46
757.085	85.43
757.482	85.4
757.878	85.38
758.275	85.38
758.672	85.42
759.068	85.41
759.465	85.43
759.861	85.42
760.258	85.35
760.654	85.34
761.05	85.32
761.447	85.28
761.843	85.23
762.239	85.19
762.635	85.2
763.031	85.17
763.427	85.12
763.822	85.06
764.218	85.04
764.614	85.04
765.01	85.01
765.405	84.97
765.801	84.96
766.196	84.97
766.592	84.98
766.987	84.97
767.382	84.99
767.778	85.01
768.173	85.04
768.568	85.04
768.963	85.04
769.358	85.04
769.753	85.08
770.148	85.11
770.542	85.15
770.937	85.12
771.332	85.1
771.726	85.04
772.121	85
772.515	85.03
772.91	85.03
773.304	85.03
773.699	85
774.093	84.98
774.487	84.99
774.881	85.01
775.275	85.05
775.669	85.07
776.063	85.1
776.457	85.11
776.851	85.05
777.245	85.07
777.638	85.07
778.032	85.09
778.425	85.08
778.819	85.09
779.212	85.05
779.606	85.05
779.999	85.05
780.392	85.06
780.786	85.08
781.179	85.11
781.572	85.08
781.965	85.09
782.358	85.06
782.751	85.06
783.143	85.06
783.536	85.13
783.929	85.17
784.322	85.21
784.714	85.21
785.107	85.25
785.499	85.29
785.891	85.33
786.284	85.3
786.676	85.38
787.068	85.39
787.46	85.4
787.852	85.38
788.245	85.42
788.636	85.39
789.028	85.41
789.42	85.38
789.812	85.39
790.204	85.37
790.595	85.43
790.987	85.42
791.378	85.44
791.77	85.49
792.161	85.51
792.553	85.46
792.944	85.48
793.335	85.51
793.726	85.5
794.117	85.51
794.508	85.53
794.899	85.49
795.29	85.52
795.681	85.58
796.072	85.56
796.463	85.53
796.853	85.54
797.244	85.54
797.634	85.52
798.025	85.56
798.415	85.59
798.806	85.62
799.196	85.69
799.586	85.7
799.976	85.69
800.366	85.71
800.756	85.76
801.146	85.81
801.536	85.84
801.926	85.93
802.316	85.98
802.706	86.02
803.095	86.07
803.485	86.07
803.874	86.09
804.264	86.12
804.653	86.1
805.043	86.11
805.432	86.09
805.821	86.09
806.21	86.07
806.599	86.12
806.988	86.1
807.377	86.12
807.766	86.13
808.155	86.17
808.544	86.17
808.933	86.2
809.321	86.24
809.71	86.33
810.098	86.37
810.487	86.41
810.875	86.36
811.264	86.37
811.652	86.38
812.04	86.4
812.428	86.44
812.816	86.49
813.204	86.54
813.592	86.56
813.98	86.56
814.368	86.57
814.756	86.64
815.144	86.71
815.531	86.75
815.919	86.75
816.306	86.78
816.694	86.75
817.081	86.75
817.469	86.79
817.856	86.84
818.243	86.87
818.63	86.91
819.017	86.9
819.404	86.89
819.791	86.91
820.178	86.97
820.565	86.99
820.952	87.03
821.339	87.13
821.725	87.14
822.112	87.16
822.498	87.19
822.885	87.2
823.271	87.25
823.657	87.26
824.044	87.26
824.43	87.28
824.816	87.29
825.202	87.3
825.588	87.25
825.974	87.23
826.36	87.19
826.746	87.16
827.132	87.14
827.517	87.13
827.903	87.09
828.289	87.07
828.674	87.03
829.06	87
829.445	86.99
829.83	87
830.216	86.98
830.601	86.97
830.986	86.99
831.371	87.02
831.756	86.93
832.141	86.99
832.526	86.98
832.911	87
833.295	87.01
833.68	87
834.065	86.98
834.449	86.98
834.834	86.94
835.218	86.9
835.603	86.84
835.987	86.85
836.371	86.8
836.755	86.77
837.139	86.71
837.524	86.69
837.908	86.65
838.291	86.65
838.675	86.65
839.059	86.67
839.443	86.67
839.827	86.69
840.21	86.72
840.594	86.71
840.977	86.7
841.361	86.73
841.744	86.73
842.127	86.75
842.511	86.72
842.894	86.68
843.277	86.67
843.66	86.66
844.043	86.65
844.426	86.61
844.809	86.59
845.191	86.55
845.574	86.52
845.957	86.49
846.339	86.46
846.722	86.45
847.104	86.43
847.487	86.44
847.869	86.42
848.252	86.43
848.634	86.46
849.016	86.51
849.398	86.56
849.78	86.58
850.162	86.6
850.544	86.61
850.926	86.63
851.307	86.64
851.689	86.63
852.071	86.62
852.452	86.59
852.834	86.55
853.215	86.51
853.597	86.5
853.978	86.46
854.359	86.44
854.741	86.47
855.122	86.44
855.503	86.48
855.884	86.48
856.265	86.47
856.646	86.45
857.026	86.47
857.407	86.43
857.788	86.44
858.169	86.44
858.549	86.46
858.93	86.41
859.31	86.4
859.69	86.36
860.071	86.35
860.451	86.35
860.831	86.4
861.211	86.37
861.591	86.43
861.971	86.41
862.351	86.44
862.731	86.41
863.111	86.42
863.491	86.4
863.87	86.39
864.25	86.41
864.629	86.41
865.009	86.38
865.388	86.4
865.768	86.4
866.147	86.41
866.526	86.37
866.905	86.38
867.284	86.38
867.663	86.39
868.042	86.43
868.421	86.39
868.8	86.4
869.179	86.37
869.558	86.34
869.936	86.32
870.315	86.26
870.693	86.28
871.072	86.25
871.45	86.24
871.828	86.25
872.207	86.25
872.585	86.28
872.963	86.23
873.341	86.25
873.719	86.22
874.097	86.21
874.475	86.27
874.853	86.28
875.23	86.27
875.608	86.27
875.986	86.24
876.363	86.25
876.741	86.22
877.118	86.22
877.495	86.24
877.873	86.28
878.25	86.3
878.627	86.28
879.004	86.29
879.381	86.33
879.758	86.35
880.135	86.38
880.512	86.35
880.889	86.38
881.265	86.46
881.642	86.44
882.019	86.46
882.395	86.46
882.772	86.47
883.148	86.43
883.524	86.42
883.901	86.4
884.277	86.39
884.653	86.4
885.029	86.33
885.405	86.23
885.781	86.21
886.157	86.18
886.532	86.16
886.908	86.17
887.284	86.2
887.659	86.19
888.035	86.16
888.411	86.14
888.786	86.11
889.161	86.14
889.537	86.17
889.912	86.15
890.287	86.15
890.662	86.12
891.037	86.02
891.412	86
891.787	85.96
892.162	85.97
892.536	85.98
892.911	85.95
893.286	85.92
893.66	85.89
894.035	85.86
894.409	85.81
894.784	85.8
895.158	85.81
895.532	85.76
895.906	85.73
896.281	85.67
896.655	85.62
897.029	85.6
897.402	85.58
897.776	85.57
898.15	85.57
898.524	85.58
898.898	85.53
899.271	85.54
899.645	85.56
900.018	85.55
900.392	85.59
900.765	85.6
901.138	85.6
901.511	85.58
901.884	85.58
902.258	85.6
902.631	85.63
903.003	85.67
903.376	85.64
903.749	85.62
904.122	85.62
904.495	85.55
904.867	85.54
905.24	85.5
905.612	85.51
905.985	85.49
906.357	85.42
906.729	85.37
907.102	85.34
907.474	85.34
907.846	85.3
908.218	85.29
908.59	85.27
908.962	85.25
909.334	85.25
909.705	85.24
910.077	85.22
910.449	85.26
910.82	85.24
911.192	85.23
911.563	85.19
911.935	85.19
912.306	85.17
912.677	85.18
913.048	85.13
913.419	85.15
913.79	85.12
914.161	85.09
914.532	85.03
914.903	85.01
915.274	85.01
915.645	85.05
916.015	85.03
916.386	85
916.756	84.99
917.127	85.02
917.497	84.97
917.868	84.92
918.238	84.94
918.608	84.97
918.978	84.96
919.348	84.91
919.718	84.85
920.088	84.84
920.458	84.92
920.828	84.9
921.198	84.94
921.567	84.86
921.937	84.95
922.306	84.9
922.676	84.91
923.045	84.85
923.415	84.82
923.784	84.85
924.153	84.84
924.522	84.73
924.891	84.73
925.26	84.64
925.629	84.68
925.998	84.59
926.367	84.55
926.736	84.43
927.104	84.41
927.473	84.42
927.842	84.33
928.21	84.31
928.578	84.22
928.947	84.15
929.315	84.12
929.683	84.11
930.051	84.05
930.42	83.98
930.788	83.98
931.156	83.89
931.523	83.81
931.891	83.67
932.259	83.54
932.627	83.46
932.994	83.38
933.362	83.22
933.729	83.07
934.097	82.94
934.464	82.86
934.831	82.66
935.199	82.59
935.566	82.42
935.933	82.36
936.3	82.24
936.667	82.14
937.034	81.95
937.401	81.84
937.767	81.71
938.134	81.66
938.501	81.54
938.867	81.58
939.234	81.54
939.6	81.58
939.967	81.63
940.333	81.7
940.699	81.81
941.065	81.99
941.431	82.12
941.798	82.3
942.163	82.48
942.529	82.66
942.895	82.74
943.261	82.9
943.627	83.04
943.992	83.18
944.358	83.21
944.723	83.25
945.089	83.43
945.454	83.54
945.82	83.51
946.185	83.5
946.55	83.63
946.915	83.62
947.28	83.6
947.645	83.63
948.01	83.64
948.375	83.7
948.74	83.63
949.104	83.49
949.469	83.37
949.834	83.3
950.198	83.24
950.562	83.1
950.927	83.12
951.291	83.02
951.655	83.05
952.02	82.98
952.384	83.06
952.748	83.08
953.112	83.05
953.476	83.01
953.839	82.94
954.203	82.84
954.567	82.74
954.931	82.68
955.294	82.71
955.658	82.54
956.021	82.51
956.385	82.38
956.748	82.38
957.111	82.25
957.474	82.31
957.837	82.36
958.2	82.27
958.563	82.27
958.926	82.18
959.289	82.16
959.652	82.18
960.015	82.08
960.377	81.96
960.74	81.81
961.102	81.84
961.465	81.68
961.827	81.48
962.189	81.5
962.552	81.42
962.914	81.34
963.276	81.29
963.638	81.18
964	81.14
964.362	81.14
964.724	81.19
965.085	81.18
965.447	81.1
965.809	81.09
966.17	81.07
966.532	81.04
966.893	81.06
967.255	80.95
967.616	80.99
967.977	80.95
968.338	80.92
968.699	80.82
969.061	80.65
969.421	80.68
969.782	80.72
970.143	80.7
970.504	80.71
970.865	80.57
971.225	80.56
971.586	80.51
971.946	80.54
972.307	80.55
972.667	80.58
973.027	80.62
973.388	80.57
973.748	80.61
974.108	80.59
974.468	80.53
974.828	80.55
975.188	80.56
975.548	80.53
975.907	80.45
976.267	80.36
976.627	80.29
976.986	80.25
977.346	80.23
977.705	80.15
978.064	80.09
978.424	80.07
978.783	80.1
979.142	79.92
979.501	79.84
979.86	79.79
980.219	79.74
980.578	79.75
980.937	79.82
981.296	79.74
981.654	79.8
982.013	79.84
982.371	79.82
982.73	79.76
983.088	79.79
983.447	79.87
983.805	79.78
984.163	79.84
984.521	79.68
984.879	79.62
985.237	79.77
985.595	79.72
985.953	79.67
986.311	79.68
986.669	79.67
987.026	79.81
987.384	79.72
987.741	79.79
988.099	79.79
988.456	79.83
988.814	79.91
989.171	79.77
989.528	79.63
989.885	79.65
990.242	79.63
990.599	79.57
990.956	79.47
991.313	79.42
991.67	79.42
992.027	79.19
992.383	79.18
992.74	79.03
993.096	79.02
993.453	78.99
993.809	79
994.165	79.05
994.522	79.06
994.878	78.85
995.234	78.85
995.59	78.89
995.946	79.08
996.302	79.04
996.658	78.95
997.013	78.95
997.369	78.87
997.725	78.83
998.08	78.7
998.436	78.75
998.791	78.84
999.147	78.81
999.502	78.67
999.857	78.65
1000.212	78.7
1000.567	78.78
1000.922	78.82
1001.277	78.93
1001.632	78.97
1001.987	78.92
1002.342	78.92
1002.696	79.07
1003.051	78.91
1003.406	78.74
1003.76	78.65
1004.114	78.65
1004.469	78.34
1004.823	78.26
1005.177	78.19
1005.531	77.82
1005.885	77.94
1006.239	77.81
1006.593	77.55
1006.947	77.52
1007.301	77.56
1007.655	77.38
1008.008	77.04
1008.362	77.1
1008.715	76.82
1009.069	76.69
1009.422	76.61
1009.776	76.2
1010.129	76.08
1010.482	76.17
1010.835	76.47
1011.188	76.4
1011.541	76.25
1011.894	76.48
1012.247	76.3
1012.6	76.44
1012.952	76.49
1013.305	76.53
1013.657	76.65
1014.01	76.53
1014.362	76.33
1014.715	75.67
1015.067	75.75
1015.419	75.87
1015.771	75.92
1016.123	76.2
1016.475	76.27
1016.827	76.19
1017.179	76.28
1017.531	76.05
1017.883	76.17
1018.234	76.16
1018.586	76.26
1018.938	75.98
1019.289	75.93
1019.64	76.09
1019.992	75.79
1020.343	75.55
1020.694	75.47
1021.045	75.36
1021.396	75.42
1021.747	75.16
1022.098	75.38
1022.449	75.36
1022.8	75.2
1023.151	75.01
1023.501	74.41
1023.852	74.67
1024.202	74.56
1024.553	74.28
1024.903	74.25
1025.253	74.44
1025.604	74.4
1025.954	74.13
1026.304	74.75
1026.654	75.11
1027.004	74.86
1027.354	74.69
1027.703	74.22
1028.053	73.91
1028.403	73.59
1028.753	73.61
1029.102	73.14
1029.452	73.01
1029.801	72.69
1030.15	71.85
1030.499	71.34
897.758	485.69
901.051	488.61
904.343	496.97
907.636	491.59
910.928	482.2
914.22	494
917.511	482
920.803	469.3
924.094	448.69
927.384	452.75
930.675	440.14
933.965	434.89
937.255	438.13
940.544	418.62
943.834	398.53
947.123	394.31
950.411	371.87
953.7	367.62
956.988	354.68
960.276	341.12
963.563	338.11
966.851	320.32
970.138	316.37
973.424	296.25
976.711	291.32
979.997	284
983.283	278.35
986.568	270.31
989.853	263.46
993.138	254.21
996.423	252.25
999.708	244.62
1002.992	246.95
1006.275	237.96
1009.559	237.5
1012.842	231.46
1016.125	225.38
1019.408	221.41
1022.69	220.41
1025.972	217.7
1029.254	213.99
1032.536	210.06
1035.817	204.24
1039.098	200.72
1042.379	199.44
1045.659	196.11
1048.939	196.66
1052.219	193.21
1055.498	190.63
1058.778	186.99
1062.057	186.1
1065.335	184.8
1068.614	182.88
1071.892	181.09
1075.17	178.34
1078.447	175.43
1081.724	174.81
1085.001	169.19
1088.278	170.49
1091.554	169.81
1094.83	169.2
1098.106	166.02
1101.382	165.36
1104.657	164.56
1107.932	163.95
1111.206	163.12
1114.481	161.78
1117.755	160.82
1121.029	162.4
1124.302	159.27
1127.575	156.46
1130.848	156.2
1134.121	154.29
1137.393	153.99
1140.665	153.19
1143.937	151.87
1147.208	150.31
1150.48	149.83
1153.75	148.16
1157.021	146.87
1160.291	146.46
1163.561	146.46
1166.831	146.08
1170.101	145.86
1173.37	144.93
1176.639	143.43
1179.907	143.03
1183.176	142.39
1186.444	143.26
1189.711	142.52
1192.979	142.58
1196.246	143.08
1199.513	142.7
1202.78	142.07
1206.046	142.23
1209.312	143.06
1212.578	143.78
1215.843	145.96
1219.108	147.19
1222.373	147.84
1225.638	150.45
1228.902	153.26
1232.166	157.42
1235.43	159.73
1238.693	163.02
1241.956	166.21
1245.219	169.46
1248.482	170.66
1251.744	170.37
1255.006	170.77
1258.268	167.4
1261.529	165.63
1264.79	162.45
1268.051	158.66
1271.312	157.65
1274.572	154.8
1277.832	151.36
1281.092	149.33
1284.351	146.87
1287.61	146.34
1290.869	145.87
1294.128	145.57
1297.386	146.02
1300.644	145.01
1303.902	144.36
1307.159	142.95
1310.416	144.22
1313.673	146.07
1316.93	147.53
1320.186	149.06
1323.442	150.37
1326.697	152.85
1329.953	153.24
1333.208	156.32
1336.463	162.08
1339.717	165.13
1342.972	171.88
1346.226	174.27
1349.479	175.31
1352.733	180.65
1355.986	184.69
1359.238	188.84
1362.491	189.4
1365.743	194.35
1368.995	195.41
1372.247	193.64
1375.498	192.08
1378.749	197.34
1382	198.06
1385.251	196.7
1388.501	195.69
1391.751	196.51
1395	193.8
1398.25	194.47
1401.499	193.54
1404.748	191.73
1407.996	188.28
1411.244	188.2
1414.492	184.52
1417.74	180.22
1420.987	176.99
1424.234	173.52
1427.481	167.52
1430.728	164.14
1433.974	160
1437.22	156.17
1440.465	151.85
1443.711	148.56
1446.956	144.59
1450.201	139.67
1453.445	133.62
1456.689	130.02
1459.933	126.24
1463.177	121.41
1466.42	119.56
1469.663	116.5
1472.906	113.48
1476.148	110.19
1479.391	108.6
1482.633	107.01
1485.874	105.73
1489.115	105.16
1492.356	103.24
1495.597	101.96
1498.838	102.71
1502.078	101.79
1505.318	101.3
1508.557	100.68
1511.797	100.94
1515.036	100.45
1518.274	99.97
1521.513	98.83
1524.751	98.27
1527.989	100.37
1531.227	100.39
1534.464	100.18
1537.701	99.27
1540.938	99.12
1544.174	99.58
1547.41	99.87
1550.646	99.87
1553.882	100.17
1557.117	100.56
1560.352	101.03
1563.587	99.8
1566.821	99.99
1570.055	99.16
1573.289	100.09
1576.523	99.96
1579.756	99.93
1582.989	99.51
1586.222	99.49
1589.454	100.01
1592.686	100.03
1595.918	99.36
1599.15	99.51
1602.381	99.67
1605.612	100.19
1608.843	99.62
1612.073	100.6
1615.303	100.31
1618.533	100.36
1621.762	100.77
1624.992	100.13
1628.221	99.95
1631.449	100.88
1634.678	100.8
1637.906	100.71
1641.134	101.13
1644.361	101.28
1647.588	100.67
1650.815	101.38
1654.042	101.71
1657.269	101.49
1660.495	102.31
1663.72	102.03
1666.946	102.16
1670.171	102.83
1673.396	103.38
1676.621	103.35
1679.845	103.88
1683.069	103.74
1686.293	103.61
1689.517	103.54
1692.74	103.62
1695.963	103.29
1699.185	104.53
1702.408	103.91
1705.63	103.58
1708.852	104.27
1712.073	103.76
1715.294	103.51
1718.515	104.35
1721.736	104.14
1724.956	104.78
1728.176	104.42
1731.396	105.15
1734.616	104.41
1737.835	104.8
1741.054	104.91
1744.272	104.16
1747.491	104.36
1750.709	104.95
1753.927	104.66
1757.144	105.16
1760.361	104.55
1763.578	105.52
1766.795	105.5
1770.011	106.35
1773.227	106.94
1776.443	107.44
1779.658	107.36
1782.874	108.09
1786.089	107.58
1789.303	107.5
1792.518	108.09
1795.732	108.85
1798.945	109.71
1802.159	109.61
1805.372	110.16
1808.585	110.94
1811.797	111.38
1815.01	111.92
1818.222	112.39
1821.434	113.48
1824.645	114.6
1827.856	115.19
1831.067	115.17
1834.278	115.84
1837.488	116.67
1840.698	117.57
1843.908	117
1847.117	118.22
1850.326	119.6
1853.535	120.93
1856.744	120.81
1859.952	121.56
1863.16	121.15
1866.368	120.69
1869.575	120.01
1872.782	119.41
1875.989	118.16
1879.196	118.26
1882.402	116.31
1885.608	116.21
1888.814	114.01
1892.019	114.3
1895.224	111.94
1898.429	112.94
1901.634	113.24
1904.838	113.68
1908.042	114.32
1911.246	112.67
1914.449	112.31
1917.652	112.62
1920.855	112.24
1924.058	111.85
1927.26	111.37
1930.462	112.26
1933.664	111.85
1936.865	112.31
1940.066	109.9
1943.267	108.96
1946.467	111.01
1949.668	110.81
1952.868	111.68
1956.067	112.12
1959.267	112.3
1962.466	112.88
1965.665	114.53
1968.863	114.67
1972.061	114.94
1975.259	118.64
1978.457	119.39
1981.654	120.03
1984.852	121.6
1988.048	122.39
1991.245	123.21
1994.441	126.21
1997.637	128.31
2000.833	130.29
2004.028	131.52
2007.223	134.96
2010.418	136.9
2013.613	142.79
2016.807	145.42
2020.001	147.83
2023.194	152.62
2026.388	157.98
2029.581	166.62
2032.774	170.67
2035.966	174.97
2039.158	180.02
2042.35	182.96
2045.542	185.03
2048.733	192.65
2051.924	193.38
2055.115	197.71
2058.306	198.44
2061.496	200.35
2064.686	199.5
2067.875	200.42
2071.065	201.62
2074.254	202.37
2077.442	207.63
2080.631	209.14
2083.819	208.35
2087.007	214
2090.195	215.87
2093.382	216.52
2096.569	217.93
2099.756	220.56
2102.942	224.4
2106.128	228.97
2109.314	230.24
2112.5	231.64
2115.685	229.51
2118.87	230.41
2122.055	231.63
2125.239	235.07
2128.424	240.96
2131.608	239.01
2134.791	240.1
2137.974	239.82
2141.157	242.34
2144.34	243.95
2147.523	247.14
2150.705	255.24
2153.887	251.53
2157.068	254.85
2160.25	256.67
2163.431	255.52
2166.611	260.99
2169.792	263.41
2172.972	267.3
2176.152	266.58
2179.331	272.53
2182.511	273.3
2185.69	277.68
2188.868	286.83
2192.047	293.14
2195.225	299.05
2198.403	300.69
2201.58	296.07
2204.758	306.41
2207.935	308.14
2211.111	313.91
2214.288	317.02
2217.464	319.33
2220.64	317.62
2223.815	319.06
2226.991	314.32
2230.166	315.48
2233.34	326.43
2236.515	335.19
2239.689	326.87
2242.863	334.26
2246.036	330.31
2249.209	337.19
2252.382	336.82
2255.555	349.76
2258.727	353.25
2261.9	364.4
2265.071	369.83
2268.243	365.26
2271.414	375.15
2274.585	384.16
2277.756	384.44
2280.926	400.09
2284.096	395.35
2287.266	395.9
2290.436	389.21
2293.605	398.77
2296.774	410.45
2299.942	412.27
2303.111	423.18
2306.279	436.38
2309.447	436.99
2312.614	438.32
2315.781	443.85
2318.948	458.14
2322.115	467.08
2325.281	492.96
2328.447	485.62
2331.613	492.21
2334.779	496.16
2337.944	502.52
2341.109	505.7
2344.274	509.9
2347.438	522.1
2350.602	533.54
2353.766	563.93
2356.929	567.77
2360.092	572.65
2363.255	576.79
2366.418	580.53
2369.58	589.6
2372.742	602.99
2375.904	600.21
2379.066	619.36
2382.227	654.4
2385.388	649.68
2388.548	612.27
2391.709	603.23
2394.869	616.04
2398.029	625.41
2401.188	621.01
2404.347	645.72
2407.506	656.26
2410.665	636.04
2413.823	639.65
2416.981	638.46
2420.139	614.98
2423.296	660.84
2426.453	705.95
2429.61	678.6
2432.767	716.58
2435.923	743.97
2439.079	714.59
2442.235	729.06
2445.391	749.11
2448.546	739.84
2451.701	781.97
2454.855	826.03
2458.009	732.42
2461.163	747.65
2464.317	753.32
2467.471	739.19
2470.624	761.14
2473.777	748.33
2476.929	725.89
2480.082	764.82
2483.234	807.75
2486.385	819.05
2489.537	843.75
2492.688	933.61
2495.839	918.1
2498.989	945.15
2502.14	944.1
2505.29	902.69
2508.439	1003.52
2511.589	1027.29
2514.738	991.83
2517.887	983.25
2521.035	921.13
2524.183	906.23
2527.331	894.6
2530.479	867.82
2533.627	885.75
