Data from C_2_div_pa_2n_086_Splice17_12.txt Node
Date: Sat Feb 29 14:16:19 EST 2020
User: sa697716
Spectrometer: FLMS03696
Trigger mode: 0
Integration Time (sec): 3.180400E-1
Scans to average: 20
Electric dark correction enabled: true
Nonlinearity correction enabled: true
Boxcar width: 5
XAxis mode: Wavelengths
Number of Pixels in Spectrum: 2048
>>>>>Begin Spectral Data<<<<<
187.83	102.32
188.298	113.23
188.766	103.47
189.233	96.89
189.701	101.84
190.169	116.1
190.636	116.43
191.104	107.51
191.571	296.14
192.039	237.48
192.506	-223.35
192.974	2524.79
193.441	56.12
193.908	57.02
194.375	97.97
194.842	135.94
195.31	121.77
195.777	103.59
196.244	44.84
196.711	46.64
197.177	42.91
197.644	44.12
198.111	42.96
198.578	43.82
199.045	44.51
199.511	44.43
199.978	44.82
200.445	45.04
200.911	44.83
201.378	45.23
201.844	45.71
202.31	46.53
202.777	46.88
203.243	47.62
203.709	47.62
204.176	47.24
204.642	47.3
205.108	47.07
205.574	47.53
206.04	47.72
206.506	47.54
206.972	46.72
207.438	46.11
207.903	45.68
208.369	44.58
208.835	44.56
209.301	44.48
209.766	44.03
210.232	43.95
210.697	43.29
211.163	43
211.628	42.21
212.094	42.01
212.559	41.78
213.024	41.06
213.49	40.93
213.955	40.44
214.42	39.64
214.885	38.6
215.35	37.74
215.815	36.51
216.28	35.31
216.745	34.24
217.21	32.88
217.675	31.51
218.14	30.12
218.604	28.83
219.069	27.79
219.534	26.82
219.998	26.01
220.463	25.25
220.927	24.63
221.392	24.04
221.856	23.46
222.32	22.95
222.785	22.5
223.249	22.12
223.713	21.8
224.177	21.42
224.642	21.15
225.106	20.86
225.57	20.54
226.034	20.28
226.497	19.98
226.961	19.68
227.425	19.39
227.889	19.13
228.353	18.88
228.816	18.65
229.28	18.39
229.744	18.15
230.207	17.95
230.671	17.72
231.134	17.49
231.597	17.27
232.061	17.08
232.524	16.91
232.987	16.71
233.45	16.5
233.914	16.29
234.377	16.12
234.84	15.92
235.303	15.72
235.766	15.57
236.229	15.39
236.691	15.24
237.154	15.1
237.617	14.93
238.08	14.8
238.542	14.68
239.005	14.54
239.468	14.42
239.93	14.3
240.393	14.18
240.855	14.04
241.317	13.94
241.78	13.84
242.242	13.71
242.704	13.61
243.166	13.49
243.629	13.36
244.091	13.26
244.553	13.16
245.015	13.05
245.477	12.95
245.939	12.87
246.4	12.76
246.862	12.66
247.324	12.6
247.786	12.51
248.247	12.44
248.709	12.37
249.17	12.29
249.632	12.2
250.093	12.11
250.555	12.03
251.016	11.97
251.477	11.89
251.939	11.81
252.4	11.72
252.861	11.65
253.322	11.58
253.783	11.52
254.244	11.45
254.705	11.39
255.166	11.34
255.627	11.29
256.088	11.23
256.549	11.18
257.009	11.14
257.47	11.08
257.931	11.02
258.391	10.95
258.852	10.89
259.312	10.82
259.773	10.76
260.233	10.69
260.694	10.63
261.154	10.57
261.614	10.51
262.074	10.46
262.534	10.4
262.994	10.34
263.455	10.3
263.915	10.25
264.374	10.2
264.834	10.17
265.294	10.12
265.754	10.07
266.214	10.02
266.673	9.97
267.133	9.92
267.593	9.89
268.052	9.85
268.512	9.8
268.971	9.74
269.431	9.71
269.89	9.66
270.349	9.63
270.809	9.6
271.268	9.57
271.727	9.54
272.186	9.5
272.645	9.46
273.104	9.43
273.563	9.41
274.022	9.39
274.481	9.35
274.94	9.31
275.399	9.27
275.857	9.23
276.316	9.19
276.775	9.16
277.233	9.12
277.692	9.09
278.15	9.05
278.609	9.01
279.067	8.97
279.525	8.93
279.984	8.89
280.442	8.85
280.9	8.83
281.358	8.8
281.816	8.77
282.274	8.73
282.732	8.7
283.19	8.67
283.648	8.64
284.106	8.61
284.564	8.59
285.021	8.57
285.479	8.55
285.937	8.53
286.394	8.51
286.852	8.48
287.309	8.46
287.767	8.44
288.224	8.42
288.682	8.41
289.139	8.4
289.596	8.36
290.053	8.33
290.511	8.29
290.968	8.26
291.425	8.23
291.882	8.19
292.339	8.15
292.796	8.11
293.252	8.07
293.709	8.03
294.166	7.99
294.623	7.97
295.079	7.94
295.536	7.91
295.992	7.88
296.449	7.86
296.905	7.84
297.362	7.82
297.818	7.8
298.274	7.79
298.731	7.76
299.187	7.75
299.643	7.72
300.099	7.7
300.555	7.68
301.011	7.66
301.467	7.63
301.923	7.6
302.379	7.59
302.835	7.57
303.291	7.54
303.746	7.52
304.202	7.49
304.658	7.47
305.113	7.46
305.569	7.45
306.024	7.44
306.479	7.42
306.935	7.41
307.39	7.4
307.845	7.39
308.301	7.39
308.756	7.39
309.211	7.38
309.666	7.37
310.121	7.35
310.576	7.34
311.031	7.33
311.486	7.33
311.94	7.32
312.395	7.31
312.85	7.3
313.305	7.29
313.759	7.28
314.214	7.28
314.668	7.28
315.123	7.29
315.577	7.29
316.032	7.28
316.486	7.26
316.94	7.25
317.394	7.23
317.849	7.22
318.303	7.2
318.757	7.19
319.211	7.16
319.665	7.15
320.119	7.12
320.572	7.1
321.026	7.08
321.48	7.06
321.934	7.05
322.387	7.04
322.841	7.02
323.295	6.99
323.748	6.98
324.202	6.96
324.655	6.94
325.108	6.93
325.562	6.9
326.015	6.89
326.468	6.87
326.921	6.85
327.374	6.84
327.827	6.82
328.28	6.8
328.733	6.78
329.186	6.78
329.639	6.78
330.092	6.77
330.545	6.77
330.997	6.77
331.45	6.77
331.903	6.76
332.355	6.75
332.808	6.76
333.26	6.77
333.713	6.77
334.165	6.76
334.617	6.75
335.069	6.74
335.522	6.73
335.974	6.74
336.426	6.74
336.878	6.74
337.33	6.73
337.782	6.72
338.234	6.72
338.686	6.72
339.137	6.72
339.589	6.71
340.041	6.7
340.493	6.7
340.944	6.68
341.396	6.66
341.847	6.65
342.299	6.62
342.75	6.59
343.201	6.56
343.653	6.53
344.104	6.51
344.555	6.49
345.006	6.47
345.457	6.46
345.908	6.45
346.359	6.44
346.81	6.44
347.261	6.43
347.712	6.43
348.163	6.42
348.613	6.42
349.064	6.4
349.515	6.37
349.965	6.36
350.416	6.35
350.866	6.33
351.317	6.31
351.767	6.3
352.217	6.29
352.668	6.28
353.118	6.29
353.568	6.29
354.018	6.29
354.468	6.3
354.918	6.3
355.368	6.29
355.818	6.28
356.268	6.28
356.718	6.28
357.168	6.27
357.617	6.26
358.067	6.24
358.517	6.23
358.966	6.23
359.416	6.22
359.865	6.21
360.315	6.22
360.764	6.21
361.213	6.2
361.663	6.2
362.112	6.21
362.561	6.22
363.01	6.22
363.459	6.21
363.908	6.21
364.357	6.2
364.806	6.19
365.255	6.19
365.703	6.19
366.152	6.19
366.601	6.18
367.05	6.17
367.498	6.16
367.947	6.16
368.395	6.17
368.844	6.16
369.292	6.15
369.74	6.16
370.189	6.15
370.637	6.15
371.085	6.16
371.533	6.16
371.981	6.17
372.429	6.16
372.877	6.15
373.325	6.15
373.773	6.14
374.221	6.15
374.669	6.14
375.116	6.13
375.564	6.12
376.012	6.12
376.459	6.11
376.907	6.1
377.354	6.11
377.801	6.11
378.249	6.12
378.696	6.13
379.143	6.13
379.591	6.14
380.038	6.15
380.485	6.17
380.932	6.16
381.379	6.16
381.826	6.17
382.273	6.17
382.72	6.17
383.166	6.17
383.613	6.16
384.06	6.17
384.506	6.16
384.953	6.16
385.4	6.17
385.846	6.17
386.292	6.19
386.739	6.2
387.185	6.21
387.631	6.23
388.078	6.25
388.524	6.24
388.97	6.24
389.416	6.24
389.862	6.25
390.308	6.26
390.754	6.26
391.2	6.28
391.645	6.3
392.091	6.3
392.537	6.31
392.983	6.34
393.428	6.36
393.874	6.39
394.319	6.41
394.765	6.41
395.21	6.43
395.655	6.45
396.101	6.46
396.546	6.48
396.991	6.5
397.436	6.5
397.881	6.51
398.326	6.55
398.771	6.57
399.216	6.61
399.661	6.65
400.106	6.69
400.551	6.71
400.995	6.71
401.44	6.71
401.885	6.73
402.329	6.76
402.774	6.78
403.218	6.78
403.663	6.8
404.107	6.82
404.551	6.84
404.995	6.86
405.44	6.88
405.884	6.9
406.328	6.93
406.772	6.95
407.216	7
407.66	7.02
408.104	7.05
408.547	7.08
408.991	7.09
409.435	7.1
409.879	7.12
410.322	7.15
410.766	7.18
411.209	7.22
411.653	7.23
412.096	7.24
412.54	7.24
412.983	7.26
413.426	7.28
413.869	7.31
414.312	7.34
414.756	7.37
415.199	7.42
415.642	7.44
416.085	7.46
416.527	7.52
416.97	7.56
417.413	7.58
417.856	7.58
418.298	7.58
418.741	7.58
419.184	7.58
419.626	7.59
420.069	7.59
420.511	7.61
420.953	7.6
421.396	7.59
421.838	7.61
422.28	7.65
422.722	7.7
423.164	7.73
423.606	7.76
424.048	7.77
424.49	7.8
424.932	7.82
425.374	7.82
425.816	7.84
426.258	7.84
426.699	7.81
427.141	7.77
427.582	7.75
428.024	7.75
428.465	7.77
428.907	7.8
429.348	7.8
429.789	7.8
430.231	7.78
430.672	7.8
431.113	7.83
431.554	7.86
431.995	7.91
432.436	7.94
432.877	7.95
433.318	7.95
433.759	7.95
434.2	7.97
434.64	7.99
435.081	8
435.522	8.02
435.962	8.04
436.403	8.08
436.843	8.09
437.284	8.1
437.724	8.13
438.164	8.15
438.604	8.16
439.045	8.17
439.485	8.17
439.925	8.17
440.365	8.18
440.805	8.18
441.245	8.17
441.685	8.2
442.125	8.19
442.564	8.2
443.004	8.2
443.444	8.22
443.883	8.23
444.323	8.24
444.762	8.28
445.202	8.32
445.641	8.32
446.081	8.36
446.52	8.38
446.959	8.39
447.398	8.4
447.837	8.43
448.276	8.44
448.716	8.47
449.154	8.5
449.593	8.51
450.032	8.53
450.471	8.54
450.91	8.54
451.349	8.52
451.787	8.54
452.226	8.52
452.664	8.5
453.103	8.49
453.541	8.47
453.98	8.44
454.418	8.44
454.856	8.4
455.295	8.38
455.733	8.37
456.171	8.36
456.609	8.35
457.047	8.33
457.485	8.32
457.923	8.3
458.361	8.3
458.798	8.31
459.236	8.29
459.674	8.3
460.111	8.29
460.549	8.27
460.987	8.28
461.424	8.26
461.862	8.28
462.299	8.28
462.736	8.28
463.173	8.27
463.611	8.26
464.048	8.26
464.485	8.27
464.922	8.28
465.359	8.3
465.796	8.27
466.233	8.29
466.67	8.29
467.106	8.3
467.543	8.31
467.98	8.32
468.416	8.34
468.853	8.33
469.29	8.34
469.726	8.33
470.162	8.32
470.599	8.33
471.035	8.33
471.471	8.33
471.907	8.33
472.344	8.34
472.78	8.35
473.216	8.34
473.652	8.33
474.088	8.33
474.523	8.33
474.959	8.32
475.395	8.31
475.831	8.3
476.266	8.28
476.702	8.26
477.138	8.23
477.573	8.21
478.008	8.19
478.444	8.17
478.879	8.15
479.314	8.13
479.75	8.13
480.185	8.11
480.62	8.1
481.055	8.09
481.49	8.09
481.925	8.07
482.36	8.05
482.795	8.04
483.229	8.04
483.664	8.03
484.099	8.02
484.534	8
484.968	7.99
485.403	7.98
485.837	7.98
486.271	7.97
486.706	7.96
487.14	7.96
487.574	7.96
488.009	7.95
488.443	7.93
488.877	7.93
489.311	7.94
489.745	7.93
490.179	7.94
490.613	7.93
491.046	7.93
491.48	7.93
491.914	7.94
492.348	7.95
492.781	7.95
493.215	7.96
493.648	7.97
494.082	7.98
494.515	7.99
494.948	7.99
495.382	8
495.815	8.03
496.248	8.04
496.681	8.04
497.114	8.05
497.547	8.07
497.98	8.09
498.413	8.11
498.846	8.12
499.279	8.16
499.711	8.18
500.144	8.21
500.577	8.23
501.009	8.26
501.442	8.31
501.874	8.35
502.306	8.39
502.739	8.42
503.171	8.47
503.603	8.52
504.036	8.58
504.468	8.63
504.9	8.7
505.332	8.77
505.764	8.84
506.196	8.92
506.627	8.99
507.059	9.07
507.491	9.16
507.923	9.25
508.354	9.35
508.786	9.44
509.217	9.54
509.649	9.64
510.08	9.76
510.512	9.87
510.943	10
511.374	10.14
511.805	10.27
512.237	10.42
512.668	10.57
513.099	10.73
513.53	10.9
513.961	11.09
514.391	11.24
514.822	11.41
515.253	11.6
515.684	11.79
516.114	11.97
516.545	12.17
516.975	12.38
517.406	12.59
517.836	12.79
518.267	13
518.697	13.22
519.127	13.47
519.558	13.71
519.988	13.93
520.418	14.16
520.848	14.4
521.278	14.65
521.708	14.8
522.138	15.02
522.567	15.23
522.997	15.45
523.427	15.67
523.857	15.87
524.286	16.08
524.716	16.29
525.145	16.5
525.575	16.7
526.004	16.9
526.433	17.17
526.863	17.37
527.292	17.58
527.721	17.76
528.15	17.91
528.579	18.08
529.008	18.25
529.437	18.41
529.866	18.55
530.295	18.69
530.724	18.84
531.152	18.97
531.581	19.08
532.01	19.19
532.438	19.3
532.867	19.42
533.295	19.5
533.723	19.6
534.152	19.69
534.58	19.77
535.008	19.84
535.436	19.89
535.865	19.95
536.293	20.01
536.721	20.08
537.149	20.14
537.576	20.19
538.004	20.26
538.432	20.29
538.86	20.34
539.287	20.38
539.715	20.43
540.143	20.46
540.57	20.51
540.998	20.54
541.425	20.56
541.852	20.59
542.28	20.62
542.707	20.66
543.134	20.7
543.561	20.72
543.988	20.75
544.415	20.77
544.842	20.81
545.269	20.84
545.696	20.86
546.123	20.9
546.549	20.92
546.976	20.95
547.403	20.97
547.829	21
548.256	21.03
548.682	21.04
549.108	21.06
549.535	21.07
549.961	21.08
550.387	21.1
550.813	21.08
551.24	21.07
551.666	21.09
552.092	21.06
552.518	21.04
552.943	21.02
553.369	21
553.795	20.96
554.221	20.93
554.646	20.9
555.072	20.85
555.498	20.8
555.923	20.76
556.349	20.67
556.774	20.62
557.199	20.56
557.625	20.49
558.05	20.4
558.475	20.32
558.9	20.23
559.325	20.14
559.75	20.04
560.175	19.93
560.6	19.82
561.025	19.72
561.449	19.6
561.874	19.47
562.299	19.36
562.723	19.24
563.148	19.12
563.572	19
563.997	18.86
564.421	18.7
564.846	18.57
565.27	18.41
565.694	18.27
566.118	18.12
566.542	17.98
566.966	17.81
567.39	17.63
567.814	17.46
568.238	17.29
568.662	17.13
569.086	16.98
569.509	16.83
569.933	16.65
570.357	16.49
570.78	16.33
571.204	16.16
571.627	16.01
572.05	15.87
572.474	15.75
572.897	15.62
573.32	15.48
573.743	15.36
574.166	15.24
574.589	15.14
575.012	15.03
575.435	14.91
575.858	14.83
576.281	14.73
576.704	14.66
577.126	14.56
577.549	14.48
577.972	14.39
578.394	14.3
578.817	14.21
579.239	14.12
579.661	14.05
580.084	13.99
580.506	13.9
580.928	13.85
581.35	13.78
581.772	13.72
582.194	13.67
582.616	13.63
583.038	13.58
583.46	13.53
583.882	13.49
584.303	13.44
584.725	13.38
585.147	13.32
585.568	13.25
585.99	13.2
586.411	13.15
586.833	13.09
587.254	13.04
587.675	13
588.096	12.96
588.518	12.93
588.939	12.9
589.36	12.86
589.781	12.86
590.202	12.85
590.623	12.83
591.043	12.8
591.464	12.77
591.885	12.74
592.305	12.73
592.726	12.69
593.147	12.68
593.567	12.65
593.987	12.64
594.408	12.61
594.828	12.58
595.248	12.56
595.669	12.54
596.089	12.53
596.509	12.51
596.929	12.48
597.349	12.46
597.769	12.42
598.189	12.4
598.608	12.36
599.028	12.34
599.448	12.33
599.867	12.29
600.287	12.25
600.706	12.21
601.126	12.17
601.545	12.14
601.965	12.09
602.384	12.05
602.803	12.01
603.222	11.96
603.641	11.92
604.061	11.86
604.48	11.81
604.898	11.76
605.317	11.71
605.736	11.67
606.155	11.61
606.574	11.58
606.992	11.52
607.411	11.47
607.829	11.39
608.248	11.33
608.666	11.28
609.085	11.22
609.503	11.17
609.921	11.11
610.339	11.05
610.758	11
611.176	10.95
611.594	10.91
612.012	10.85
612.43	10.85
612.847	10.8
613.265	10.74
613.683	10.7
614.101	10.64
614.518	10.6
614.936	10.57
615.353	10.54
615.771	10.48
616.188	10.45
616.606	10.4
617.023	10.36
617.44	10.33
617.857	10.3
618.274	10.27
618.691	10.25
619.108	10.23
619.525	10.2
619.942	10.18
620.359	10.17
620.776	10.15
621.192	10.13
621.609	10.12
622.026	10.1
622.442	10.09
622.859	10.07
623.275	10.06
623.691	10.05
624.108	10.04
624.524	10.01
624.94	10
625.356	9.99
625.772	9.99
626.188	10
626.604	9.99
627.02	9.99
627.436	9.98
627.852	9.97
628.268	9.96
628.683	9.95
629.099	9.97
629.514	9.96
629.93	9.94
630.345	9.92
630.761	9.89
631.176	9.89
631.591	9.86
632.007	9.86
632.422	9.84
632.837	9.82
633.252	9.8
633.667	9.75
634.082	9.73
634.497	9.7
634.911	9.67
635.326	9.64
635.741	9.6
636.155	9.58
636.57	9.54
636.984	9.49
637.399	9.43
637.813	9.38
638.228	9.35
638.642	9.3
639.056	9.27
639.47	9.23
639.884	9.18
640.298	9.13
640.712	9.08
641.126	9.03
641.54	9.01
641.954	8.99
642.368	8.96
642.781	8.9
643.195	8.85
643.609	8.8
644.022	8.77
644.436	8.75
644.849	8.71
645.262	8.68
645.676	8.63
646.089	8.6
646.502	8.56
646.915	8.53
647.328	8.52
647.741	8.48
648.154	8.47
648.567	8.45
648.98	8.43
649.393	8.4
649.805	8.39
650.218	8.37
650.631	8.35
651.043	8.35
651.456	8.35
651.868	8.34
652.28	8.34
652.693	8.3
653.105	8.29
653.517	8.26
653.929	8.26
654.341	8.25
654.753	8.24
655.165	8.22
655.577	8.19
655.989	8.15
656.401	8.13
656.813	8.09
657.224	8.08
657.636	8.07
658.047	8.05
658.459	8.02
658.87	8
659.282	7.99
659.693	7.97
660.104	7.95
660.515	7.94
660.926	7.93
661.338	7.92
661.749	7.89
662.159	7.86
662.57	7.85
662.981	7.83
663.392	7.81
663.803	7.79
664.213	7.78
664.624	7.78
665.035	7.78
665.445	7.79
665.855	7.79
666.266	7.8
666.676	7.79
667.086	7.79
667.497	7.79
667.907	7.78
668.317	7.78
668.727	7.78
669.137	7.77
669.547	7.77
669.956	7.77
670.366	7.78
670.776	7.79
671.186	7.8
671.595	7.82
672.005	7.85
672.414	7.88
672.824	7.9
673.233	7.93
673.642	7.95
674.052	7.96
674.461	7.97
674.87	7.99
675.279	8.02
675.688	8.04
676.097	8.06
676.506	8.07
676.915	8.08
677.323	8.11
677.732	8.14
678.141	8.17
678.549	8.18
678.958	8.23
679.366	8.24
679.775	8.27
680.183	8.28
680.592	8.32
681	8.33
681.408	8.37
681.816	8.38
682.224	8.41
682.632	8.45
683.04	8.49
683.448	8.52
683.856	8.57
684.264	8.62
684.671	8.7
685.079	8.76
685.487	8.85
685.894	8.93
686.302	9.03
686.709	9.13
687.116	9.24
687.524	9.37
687.931	9.5
688.338	9.67
688.745	9.83
689.152	10.02
689.559	10.24
689.966	10.48
690.373	10.77
690.78	11.06
691.187	11.37
691.593	11.68
692	12.07
692.407	12.46
692.813	12.85
693.22	13.28
693.626	13.74
694.032	14.2
694.439	14.72
694.845	15.21
695.251	15.75
695.657	16.31
696.063	16.89
696.469	17.47
696.875	18.06
697.281	18.68
697.687	19.35
698.093	19.98
698.498	20.65
698.904	21.29
699.31	21.96
699.715	22.63
700.12	23.3
700.526	23.98
700.931	24.66
701.337	25.34
701.742	26.01
702.147	26.68
702.552	27.39
702.957	28.06
703.362	28.77
703.767	29.44
704.172	30.09
704.577	30.79
704.981	31.46
705.386	32.16
705.791	32.86
706.195	33.57
706.6	34.24
707.004	34.9
707.408	35.57
707.813	36.23
708.217	36.91
708.621	37.59
709.025	38.24
709.43	38.87
709.834	39.52
710.237	40.16
710.641	40.82
711.045	41.47
711.449	42.11
711.853	42.75
712.256	43.41
712.66	44.07
713.064	44.7
713.467	45.32
713.87	45.96
714.274	46.59
714.677	47.19
715.08	47.75
715.484	48.35
715.887	48.94
716.29	49.52
716.693	50.05
717.096	50.61
717.499	51.18
717.901	51.75
718.304	52.32
718.707	52.86
719.109	53.42
719.512	53.99
719.915	54.51
720.317	55.01
720.719	55.51
721.122	56.05
721.524	56.52
721.926	56.99
722.328	57.48
722.731	57.93
723.133	58.36
723.535	58.81
723.937	59.23
724.338	59.62
724.74	60.07
725.142	60.36
725.544	60.68
725.945	61.04
726.347	61.42
726.748	61.73
727.15	62.06
727.551	62.41
727.952	62.73
728.354	63.05
728.755	63.39
729.156	63.66
729.557	64.08
729.958	64.43
730.359	64.75
730.76	65
731.161	65.29
731.562	65.56
731.962	65.84
732.363	66.03
732.763	66.27
733.164	66.49
733.564	66.69
733.965	66.85
734.365	67
734.766	67.15
735.166	67.3
735.566	67.46
735.966	67.59
736.366	67.68
736.766	67.88
737.166	68.04
737.566	68.15
737.966	68.31
738.365	68.47
738.765	68.62
739.165	68.75
739.564	68.89
739.964	69
740.363	69.14
740.763	69.29
741.162	69.32
741.561	69.41
741.96	69.55
742.36	69.65
742.759	69.75
743.158	69.82
743.557	69.93
743.955	70.07
744.354	70.19
744.753	70.33
745.152	70.38
745.55	70.53
745.949	70.61
746.348	70.69
746.746	70.8
747.144	70.92
747.543	71.06
747.941	71.19
748.339	71.3
748.737	71.41
749.136	71.46
749.534	71.58
749.932	71.66
750.33	71.7
750.727	71.76
751.125	71.79
751.523	71.81
751.921	71.84
752.318	71.85
752.716	71.83
753.113	71.85
753.511	71.82
753.908	71.81
754.305	71.76
754.703	71.78
755.1	71.76
755.497	71.73
755.894	71.7
756.291	71.62
756.688	71.57
757.085	71.57
757.482	71.53
757.878	71.54
758.275	71.52
758.672	71.55
759.068	71.57
759.465	71.59
759.861	71.6
760.258	71.59
760.654	71.63
761.05	71.66
761.447	71.64
761.843	71.6
762.239	71.6
762.635	71.63
763.031	71.62
763.427	71.56
763.822	71.52
764.218	71.52
764.614	71.53
765.01	71.53
765.405	71.5
765.801	71.5
766.196	71.5
766.592	71.5
766.987	71.5
767.382	71.5
767.778	71.55
768.173	71.56
768.568	71.53
768.963	71.54
769.358	71.51
769.753	71.54
770.148	71.57
770.542	71.58
770.937	71.56
771.332	71.55
771.726	71.55
772.121	71.51
772.515	71.57
772.91	71.62
773.304	71.64
773.699	71.68
774.093	71.64
774.487	71.65
774.881	71.7
775.275	71.75
775.669	71.82
776.063	71.81
776.457	71.83
776.851	71.8
777.245	71.82
777.638	71.83
778.032	71.85
778.425	71.9
778.819	71.9
779.212	71.85
779.606	71.85
779.999	71.86
780.392	71.89
780.786	71.91
781.179	71.95
781.572	71.96
781.965	71.97
782.358	71.93
782.751	71.96
783.143	71.95
783.536	72.01
783.929	72.04
784.322	71.97
784.714	72
785.107	72.02
785.499	72.02
785.891	71.99
786.284	72
786.676	72.09
787.068	72.08
787.46	72.11
787.852	72.12
788.245	72.1
788.636	72.14
789.028	72.15
789.42	72.16
789.812	72.17
790.204	72.14
790.595	72.11
790.987	72.1
791.378	72.07
791.77	72.09
792.161	72.06
792.553	72.06
792.944	72.09
793.335	72.09
793.726	72.1
794.117	72.07
794.508	72.15
794.899	72.18
795.29	72.17
795.681	72.2
796.072	72.19
796.463	72.16
796.853	72.18
797.244	72.14
797.634	72.12
798.025	72.11
798.415	72.13
798.806	72.13
799.196	72.14
799.586	72.14
799.976	72.13
800.366	72.15
800.756	72.19
801.146	72.2
801.536	72.24
801.926	72.28
802.316	72.28
802.706	72.32
803.095	72.35
803.485	72.38
803.874	72.43
804.264	72.47
804.653	72.47
805.043	72.51
805.432	72.52
805.821	72.52
806.21	72.56
806.599	72.64
806.988	72.66
807.377	72.69
807.766	72.72
808.155	72.73
808.544	72.75
808.933	72.77
809.321	72.82
809.71	72.86
810.098	72.87
810.487	72.88
810.875	72.85
811.264	72.88
811.652	72.87
812.04	72.86
812.428	72.88
812.816	72.89
813.204	72.9
813.592	72.9
813.98	72.9
814.368	72.95
814.756	72.96
815.144	72.99
815.531	72.98
815.919	72.97
816.306	72.96
816.694	72.98
817.081	72.96
817.469	72.99
817.856	73.05
818.243	73.08
818.63	73.09
819.017	73.09
819.404	73.07
819.791	73.07
820.178	73.11
820.565	73.15
820.952	73.13
821.339	73.19
821.725	73.23
822.112	73.22
822.498	73.23
822.885	73.23
823.271	73.26
823.657	73.29
824.044	73.31
824.43	73.33
824.816	73.33
825.202	73.32
825.588	73.31
825.974	73.24
826.36	73.23
826.746	73.25
827.132	73.22
827.517	73.21
827.903	73.2
828.289	73.17
828.674	73.15
829.06	73.15
829.445	73.19
829.83	73.21
830.216	73.22
830.601	73.22
830.986	73.19
831.371	73.24
831.756	73.21
832.141	73.22
832.526	73.2
832.911	73.22
833.295	73.25
833.68	73.25
834.065	73.26
834.449	73.25
834.834	73.22
835.218	73.2
835.603	73.17
835.987	73.19
836.371	73.19
836.755	73.19
837.139	73.17
837.524	73.15
837.908	73.08
838.291	73.04
838.675	73.07
839.059	73.07
839.443	73.05
839.827	73.07
840.21	73.12
840.594	73.08
840.977	73.1
841.361	73.08
841.744	73.09
842.127	73.12
842.511	73.12
842.894	73.1
843.277	73.09
843.66	73.13
844.043	73.11
844.426	73.05
844.809	73.04
845.191	73.02
845.574	73.05
845.957	72.99
846.339	72.98
846.722	73
847.104	73.01
847.487	73.04
847.869	73
848.252	73
848.634	73.02
849.016	73.07
849.398	73.08
849.78	73.08
850.162	73.11
850.544	73.15
850.926	73.15
851.307	73.15
851.689	73.14
852.071	73.12
852.452	73.15
852.834	73.11
853.215	73.1
853.597	73.12
853.978	73.1
854.359	73.08
854.741	73.06
855.122	73.05
855.503	73.08
855.884	73.08
856.265	73.12
856.646	73.1
857.026	73.14
857.407	73.1
857.788	73.08
858.169	73.08
858.549	73.09
858.93	73.12
859.31	73.09
859.69	73.07
860.071	73.06
860.451	73.04
860.831	73.03
861.211	73.01
861.591	73.03
861.971	73
862.351	73.02
862.731	73.01
863.111	73
863.491	73.03
863.87	73
864.25	73.02
864.629	73.02
865.009	73.01
865.388	73.01
865.768	73.03
866.147	73.05
866.526	73.04
866.905	73.04
867.284	73.06
867.663	73.06
868.042	73.07
868.421	73.04
868.8	73.04
869.179	73.03
869.558	73
869.936	72.95
870.315	72.93
870.693	72.92
871.072	72.9
871.45	72.85
871.828	72.81
872.207	72.82
872.585	72.81
872.963	72.75
873.341	72.79
873.719	72.8
874.097	72.8
874.475	72.83
874.853	72.81
875.23	72.83
875.608	72.85
875.986	72.86
876.363	72.87
876.741	72.89
877.118	72.95
877.495	72.95
877.873	72.95
878.25	72.94
878.627	72.97
879.004	72.99
879.381	72.99
879.758	72.96
880.135	72.98
880.512	73
880.889	73.02
881.265	73.01
881.642	72.98
882.019	73.03
882.395	73.04
882.772	73.01
883.148	73.04
883.524	73.07
883.901	73.1
884.277	73.09
884.653	73.07
885.029	73.04
885.405	73.04
885.781	73.02
886.157	73.01
886.532	73.01
886.908	73.04
887.284	73.05
887.659	73.04
888.035	73.04
888.411	73.01
888.786	73.02
889.161	73.02
889.537	73.05
889.912	73.04
890.287	72.97
890.662	72.93
891.037	72.88
891.412	72.8
891.787	72.78
892.162	72.72
892.536	72.72
892.911	72.66
893.286	72.61
893.66	72.56
894.035	72.52
894.409	72.56
894.784	72.57
895.158	72.56
895.532	72.56
895.906	72.5
896.281	72.47
896.655	72.46
897.029	72.46
897.402	72.48
897.776	72.46
898.15	72.48
898.524	72.45
898.898	72.39
899.271	72.38
899.645	72.37
900.018	72.37
900.392	72.4
900.765	72.38
901.138	72.36
901.511	72.32
901.884	72.31
902.258	72.29
902.631	72.31
903.003	72.35
903.376	72.35
903.749	72.34
904.122	72.33
904.495	72.34
904.867	72.35
905.24	72.36
905.612	72.35
905.985	72.33
906.357	72.31
906.729	72.28
907.102	72.28
907.474	72.27
907.846	72.25
908.218	72.28
908.59	72.29
908.962	72.24
909.334	72.25
909.705	72.26
910.077	72.23
910.449	72.26
910.82	72.25
911.192	72.23
911.563	72.19
911.935	72.19
912.306	72.17
912.677	72.13
913.048	72.11
913.419	72.07
913.79	72.04
914.161	72.05
914.532	72.02
914.903	72.02
915.274	71.99
915.645	72.02
916.015	72.01
916.386	71.96
916.756	71.97
917.127	71.96
917.497	71.96
917.868	71.97
918.238	71.98
918.608	71.96
918.978	71.9
919.348	71.86
919.718	71.83
920.088	71.83
920.458	71.86
920.828	71.86
921.198	71.85
921.567	71.81
921.937	71.78
922.306	71.76
922.676	71.79
923.045	71.73
923.415	71.72
923.784	71.72
924.153	71.71
924.522	71.66
924.891	71.62
925.26	71.58
925.629	71.59
925.998	71.62
926.367	71.55
926.736	71.51
927.104	71.54
927.473	71.52
927.842	71.43
928.21	71.42
928.578	71.38
928.947	71.37
929.315	71.36
929.683	71.38
930.051	71.29
930.42	71.26
930.788	71.2
931.156	71.14
931.523	71.07
931.891	71.03
932.259	70.91
932.627	70.8
932.994	70.65
933.362	70.53
933.729	70.31
934.097	70.14
934.464	70.02
934.831	69.87
935.199	69.78
935.566	69.68
935.933	69.6
936.3	69.44
936.667	69.44
937.034	69.34
937.401	69.24
937.767	69.19
938.134	69.21
938.501	69.19
938.867	69.26
939.234	69.32
939.6	69.39
939.967	69.49
940.333	69.7
940.699	69.81
941.065	70.1
941.431	70.3
941.798	70.51
942.163	70.75
942.529	70.92
942.895	71.05
943.261	71.18
943.627	71.21
943.992	71.28
944.358	71.26
944.723	71.23
945.089	71.23
945.454	71.31
945.82	71.32
946.185	71.38
946.55	71.58
946.915	71.62
947.28	71.56
947.645	71.65
948.01	71.65
948.375	71.64
948.74	71.58
949.104	71.61
949.469	71.48
949.834	71.42
950.198	71.36
950.562	71.21
950.927	71.14
951.291	71.03
951.655	70.95
952.02	70.87
952.384	70.94
952.748	70.93
953.112	70.8
953.476	70.86
953.839	70.76
954.203	70.64
954.567	70.6
954.931	70.52
955.294	70.52
955.658	70.46
956.021	70.4
956.385	70.33
956.748	70.27
957.111	70.24
957.474	70.17
957.837	70.27
958.2	70.23
958.563	70.15
958.926	70.08
959.289	70.09
959.652	70.01
960.015	70.04
960.377	69.98
960.74	69.93
961.102	69.87
961.465	69.85
961.827	69.65
962.189	69.62
962.552	69.52
962.914	69.5
963.276	69.4
963.638	69.35
964	69.18
964.362	69.15
964.724	69.11
965.085	69.14
965.447	69.02
965.809	69
966.17	69.07
966.532	69.1
966.893	69.07
967.255	69
967.616	69.04
967.977	69.03
968.338	68.95
968.699	68.84
969.061	68.69
969.421	68.63
969.782	68.66
970.143	68.52
970.504	68.39
970.865	68.27
971.225	68.23
971.586	68.23
971.946	68.27
972.307	68.31
972.667	68.45
973.027	68.53
973.388	68.56
973.748	68.56
974.108	68.55
974.468	68.61
974.828	68.67
975.188	68.71
975.548	68.78
975.907	68.8
976.267	68.73
976.627	68.63
976.986	68.61
977.346	68.6
977.705	68.6
978.064	68.56
978.424	68.51
978.783	68.53
979.142	68.48
979.501	68.28
979.86	68.23
980.219	68.15
980.578	68.13
980.937	68.13
981.296	68.14
981.654	68.19
982.013	68.26
982.371	68.28
982.73	68.17
983.088	68.19
983.447	68.23
983.805	68.2
984.163	68.32
984.521	68.24
984.879	68.25
985.237	68.18
985.595	68.04
985.953	68.01
986.311	68.18
986.669	68.3
987.026	68.31
987.384	68.26
987.741	68.27
988.099	68.21
988.456	68.26
988.814	68.21
989.171	68.23
989.528	68.19
989.885	68.07
990.242	67.96
990.599	67.96
990.956	68
991.313	68.06
991.67	68.05
992.027	67.94
992.383	67.88
992.74	67.88
993.096	67.78
993.453	67.79
993.809	67.97
994.165	67.92
994.522	67.72
994.878	67.67
995.234	67.56
995.59	67.53
995.946	67.61
996.302	67.59
996.658	67.58
997.013	67.67
997.369	67.67
997.725	67.58
998.08	67.45
998.436	67.62
998.791	67.64
999.147	67.72
999.502	67.71
999.857	67.78
1000.212	67.96
1000.567	68.1
1000.922	68.04
1001.277	68.08
1001.632	68.16
1001.987	68.26
1002.342	68.37
1002.696	68.38
1003.051	68.26
1003.406	68.19
1003.76	68
1004.114	67.95
1004.469	67.69
1004.823	67.8
1005.177	67.88
1005.531	67.73
1005.885	67.78
1006.239	67.48
1006.593	67.44
1006.947	67.32
1007.301	67.42
1007.655	67.39
1008.008	67.19
1008.362	67.21
1008.715	67.08
1009.069	66.81
1009.422	66.67
1009.776	66.54
1010.129	66.52
1010.482	66.42
1010.835	66.65
1011.188	66.48
1011.541	66.45
1011.894	66.41
1012.247	66.34
1012.6	66.41
1012.952	66.58
1013.305	66.63
1013.657	66.62
1014.01	67.07
1014.362	67.24
1014.715	67.13
1015.067	67.13
1015.419	67.24
1015.771	67.53
1016.123	67.56
1016.475	67.62
1016.827	67.78
1017.179	67.96
1017.531	68.07
1017.883	67.86
1018.234	67.81
1018.586	67.77
1018.938	67.65
1019.289	67.89
1019.64	67.98
1019.992	68.05
1020.343	68.04
1020.694	67.76
1021.045	67.68
1021.396	67.58
1021.747	67.47
1022.098	67.6
1022.449	67.58
1022.8	67.84
1023.151	67.86
1023.501	67.67
1023.852	68.01
1024.202	67.62
1024.553	67.72
1024.903	67.55
1025.253	67.69
1025.604	67.63
1025.954	67.09
1026.304	67.75
1026.654	67.96
1027.004	67.73
1027.354	67.86
1027.703	67.53
1028.053	67.81
1028.403	67.32
1028.753	68.04
1029.102	67.75
1029.452	67.68
1029.801	67.83
1030.15	67.33
1030.499	67.09
897.758	268.07
901.051	267.88
904.343	274.17
907.636	269.18
910.928	264.81
914.22	270.62
917.511	259.62
920.803	252.56
924.094	240.6
927.384	243.36
930.675	237.77
933.965	234.74
937.255	239.2
940.544	228.65
943.834	219.12
947.123	215.86
950.411	205.68
953.7	203.5
956.988	199.96
960.276	194.65
963.563	192.69
966.851	185.94
970.138	183.84
973.424	172.54
976.711	170.53
979.997	168.79
983.283	166.72
986.568	161.81
989.853	159.84
993.138	154.13
996.423	154.36
999.708	149.8
1002.992	149.26
1006.275	146.55
1009.559	146.15
1012.842	143.19
1016.125	138.86
1019.408	136.55
1022.69	137.6
1025.972	134.8
1029.254	133.08
1032.536	130.33
1035.817	127.78
1039.098	126.82
1042.379	124.51
1045.659	123.72
1048.939	121.27
1052.219	120.16
1055.498	118.24
1058.778	115.34
1062.057	115.1
1065.335	114.94
1068.614	113.85
1071.892	113.24
1075.17	110.58
1078.447	110.19
1081.724	108.86
1085.001	107.8
1088.278	107.33
1091.554	108.54
1094.83	107.55
1098.106	107.54
1101.382	106.26
1104.657	106.2
1107.932	105.85
1111.206	105.79
1114.481	105.18
1117.755	103.06
1121.029	103.63
1124.302	102.57
1127.575	100.93
1130.848	100.92
1134.121	99.56
1137.393	99.72
1140.665	98.69
1143.937	97.44
1147.208	96.88
1150.48	95.65
1153.75	96.72
1157.021	95.31
1160.291	96.06
1163.561	95.2
1166.831	95.16
1170.101	94.76
1173.37	93.23
1176.639	92.44
1179.907	92.61
1183.176	92.38
1186.444	92.23
1189.711	91.57
1192.979	93.07
1196.246	92.52
1199.513	92.29
1202.78	91.99
1206.046	91.64
1209.312	93.6
1212.578	93.89
1215.843	95.02
1219.108	95.16
1222.373	96.53
1225.638	97.43
1228.902	97.94
1232.166	99.88
1235.43	100.44
1238.693	101.93
1241.956	103.64
1245.219	105.57
1248.482	106.9
1251.744	105.88
1255.006	106.37
1258.268	104.15
1261.529	104.29
1264.79	102.41
1268.051	101
1271.312	100.75
1274.572	100.23
1277.832	98.5
1281.092	96.66
1284.351	95
1287.61	95.24
1290.869	95.41
1294.128	95.24
1297.386	94.81
1300.644	94.99
1303.902	93.96
1307.159	93.36
1310.416	93.15
1313.673	94.31
1316.93	94.63
1320.186	96.13
1323.442	96.04
1326.697	96.39
1329.953	96.66
1333.208	98.34
1336.463	100.02
1339.717	102.26
1342.972	105.1
1346.226	106.79
1349.479	106.72
1352.733	109.9
1355.986	108.96
1359.238	111.81
1362.491	110.47
1365.743	113.42
1368.995	114.82
1372.247	112.9
1375.498	110.75
1378.749	113.04
1382	111.56
1385.251	111.45
1388.501	109.62
1391.751	110.77
1395	109.92
1398.25	111.9
1401.499	110.37
1404.748	107.71
1407.996	105.46
1411.244	106.17
1414.492	104.06
1417.74	100.84
1420.987	99.36
1424.234	97.94
1427.481	93.66
1430.728	91.01
1433.974	88.21
1437.22	85.13
1440.465	82.62
1443.711	81.2
1446.956	79.11
1450.201	76.07
1453.445	72.7
1456.689	69.95
1459.933	69.5
1463.177	67.29
1466.42	66.09
1469.663	64.61
1472.906	63.35
1476.148	61.99
1479.391	61.34
1482.633	60.56
1485.874	60.81
1489.115	61.74
1492.356	60.81
1495.597	59.3
1498.838	60.28
1502.078	60.09
1505.318	60.31
1508.557	59.84
1511.797	60.05
1515.036	60.18
1518.274	59.92
1521.513	59.88
1524.751	59.2
1527.989	60.17
1531.227	60.27
1534.464	60.51
1537.701	60.6
1540.938	60.09
1544.174	60.89
1547.41	60.93
1550.646	61.46
1553.882	61.5
1557.117	62.11
1560.352	62.52
1563.587	62.27
1566.821	62.54
1570.055	62.32
1573.289	62.61
1576.523	63.12
1579.756	63.22
1582.989	63.43
1586.222	63.18
1589.454	63.52
1592.686	63.27
1595.918	63.03
1599.15	63.3
1602.381	63.63
1605.612	63.78
1608.843	63.73
1612.073	63.99
1615.303	64.49
1618.533	64.51
1621.762	64.26
1624.992	64.3
1628.221	64.14
1631.449	64.57
1634.678	64.61
1637.906	64.2
1641.134	64.24
1644.361	64.36
1647.588	64.22
1650.815	63.75
1654.042	64.62
1657.269	64.77
1660.495	65.14
1663.72	64.92
1666.946	65.27
1670.171	65.62
1673.396	66.22
1676.621	65.92
1679.845	66.63
1683.069	66.23
1686.293	66.24
1689.517	65.66
1692.74	65.9
1695.963	65.62
1699.185	65.93
1702.408	65.51
1705.63	65.43
1708.852	65.12
1712.073	65.24
1715.294	64.48
1718.515	65.47
1721.736	65.31
1724.956	65.29
1728.176	65.09
1731.396	65.28
1734.616	65.59
1737.835	65.68
1741.054	65.67
1744.272	65.71
1747.491	65.54
1750.709	65.64
1753.927	65.26
1757.144	65.41
1760.361	65.54
1763.578	65.61
1766.795	65.95
1770.011	65.58
1773.227	65.5
1776.443	65.89
1779.658	65.7
1782.874	66.77
1786.089	66.05
1789.303	65.88
1792.518	66.75
1795.732	67.29
1798.945	67.87
1802.159	67.29
1805.372	67.8
1808.585	68.83
1811.797	68.04
1815.01	69.05
1818.222	68.86
1821.434	70.09
1824.645	69.74
1827.856	69.44
1831.067	69.1
1834.278	69.36
1837.488	69.93
1840.698	70.32
1843.908	69.79
1847.117	70.84
1850.326	70.11
1853.535	70.06
1856.744	69.28
1859.952	70.77
1863.16	70.1
1866.368	68.81
1869.575	68.51
1872.782	67.93
1875.989	65.68
1879.196	64.81
1882.402	63.47
1885.608	63.76
1888.814	62.33
1892.019	62.38
1895.224	59.96
1898.429	60.02
1901.634	60.41
1904.838	59.62
1908.042	59.46
1911.246	60.03
1914.449	60.52
1917.652	58.45
1920.855	58.05
1924.058	57.42
1927.26	56.47
1930.462	57.59
1933.664	56.72
1936.865	57.03
1940.066	55.86
1943.267	55.5
1946.467	55.58
1949.668	55.25
1952.868	56.47
1956.067	56.17
1959.267	57.63
1962.466	57.81
1965.665	58.03
1968.863	59.42
1972.061	59.41
1975.259	61.75
1978.457	61.69
1981.654	62.04
1984.852	62.84
1988.048	64.1
1991.245	65.72
1994.441	66.86
1997.637	67.68
2000.833	69.22
2004.028	68.74
2007.223	70.52
2010.418	71.8
2013.613	75.22
2016.807	77.49
2020.001	78.98
2023.194	82.75
2026.388	83.9
2029.581	87.79
2032.774	90.81
2035.966	92.99
2039.158	97.36
2042.35	97.95
2045.542	98.99
2048.733	102.19
2051.924	103.29
2055.115	103.66
2058.306	103.11
2061.496	104.02
2064.686	104.12
2067.875	104.82
2071.065	105.34
2074.254	105.06
2077.442	108.02
2080.631	109.25
2083.819	110.43
2087.007	112.63
2090.195	115.82
2093.382	114.22
2096.569	115.58
2099.756	117.9
2102.942	119.29
2106.128	121.63
2109.314	124.99
2112.5	126.61
2115.685	123.42
2118.87	123.78
2122.055	124.99
2125.239	127.43
2128.424	130.95
2131.608	129.73
2134.791	128.75
2137.974	129.35
2141.157	131.73
2144.34	129.38
2147.523	132.53
2150.705	137.8
2153.887	136.86
2157.068	137.14
2160.25	137.34
2163.431	139.54
2166.611	143.77
2169.792	143.89
2172.972	148.39
2176.152	147.46
2179.331	151.25
2182.511	151.28
2185.69	153.23
2188.868	156.52
2192.047	161.79
2195.225	165.93
2198.403	162.43
2201.58	158.4
2204.758	167.16
2207.935	164.96
2211.111	167.31
2214.288	168.1
2217.464	168.95
2220.64	173.51
2223.815	173.61
2226.991	170.43
2230.166	172.06
2233.34	181.28
2236.515	183.05
2239.689	181.5
2242.863	182.34
2246.036	181.9
2249.209	183.15
2252.382	181.34
2255.555	181.4
2258.727	184.11
2261.9	188.96
2265.071	189.58
2268.243	184.97
2271.414	194.62
2274.585	194.8
2277.756	194.52
2280.926	203.71
2284.096	208.95
2287.266	210.05
2290.436	210.46
2293.605	214.94
2296.774	222.92
2299.942	223.05
2303.111	234.21
2306.279	238.44
2309.447	240.75
2312.614	244.41
2315.781	244.08
2318.948	247.67
2322.115	255.42
2325.281	265.19
2328.447	264.01
2331.613	260.58
2334.779	266.23
2337.944	263.23
2341.109	266.63
2344.274	268.98
2347.438	275.12
2350.602	283.22
2353.766	292.95
2356.929	292.59
2360.092	300.12
2363.255	302.05
2366.418	308.13
2369.58	313.53
2372.742	318.14
2375.904	318.95
2379.066	327.77
2382.227	335.85
2385.388	334.36
2388.548	323.47
2391.709	320.56
2394.869	319.05
2398.029	325.25
2401.188	324.87
2404.347	330.3
2407.506	342.04
2410.665	327.16
2413.823	331.48
2416.981	341.06
2420.139	323.85
2423.296	350.18
2426.453	369.43
2429.61	357.69
2432.767	374.08
2435.923	392.29
2439.079	377.8
2442.235	385.48
2445.391	397.54
2448.546	391.68
2451.701	412.47
2454.855	438.71
2458.009	391.35
2461.163	397.87
2464.317	401.66
2467.471	396.66
2470.624	406.16
2473.777	400.82
2476.929	387.59
2480.082	404.73
2483.234	425.7
2486.385	427.28
2489.537	440.27
2492.688	477.72
2495.839	470.03
2498.989	488.17
2502.14	489.72
2505.29	471.06
2508.439	512.5
2511.589	522.95
2514.738	521.88
2517.887	513.83
2521.035	486.44
2524.183	474.14
2527.331	469.11
2530.479	461.69
2533.627	465.66
