Data from C_2_dec_oh_4n_046_Splice17_04.txt Node
Date: Sat Feb 29 14:35:40 EST 2020
User: sa697716
Spectrometer: FLMS03696
Trigger mode: 0
Integration Time (sec): 3.180400E-1
Scans to average: 20
Electric dark correction enabled: true
Nonlinearity correction enabled: true
Boxcar width: 5
XAxis mode: Wavelengths
Number of Pixels in Spectrum: 2048
>>>>>Begin Spectral Data<<<<<
187.83	81.9
188.298	69.25
188.766	72.93
189.233	65.41
189.701	68.99
190.169	68.69
190.636	67.77
191.104	46.5
191.571	23.67
192.039	162.98
192.506	-251.6
192.974	-2456.12
193.441	879
193.908	20.17
194.375	-79.54
194.842	0.46
195.31	-12.74
195.777	1.1
196.244	26.49
196.711	31.3
197.177	30.45
197.644	33.04
198.111	33
198.578	33.44
199.045	33.66
199.511	34.43
199.978	35.15
200.445	35.33
200.911	35.27
201.378	35.54
201.844	36.03
202.31	36.94
202.777	36.73
203.243	37.55
203.709	37.97
204.176	37.59
204.642	37.59
205.108	36.89
205.574	37.55
206.04	38.01
206.506	37.71
206.972	38
207.438	37.91
207.903	38.18
208.369	37.68
208.835	37.83
209.301	38.26
209.766	38.63
210.232	39.23
210.697	39.11
211.163	38.84
211.628	38.92
212.094	38.82
212.559	38.57
213.024	38.4
213.49	38.14
213.955	37.77
214.42	37.54
214.885	37.22
215.35	36.95
215.815	36.34
216.28	36.11
216.745	35.84
217.21	35.5
217.675	35.28
218.14	34.89
218.604	34.42
219.069	33.99
219.534	33.45
219.998	32.93
220.463	32.48
220.927	32.16
221.392	31.73
221.856	31.28
222.32	30.91
222.785	30.52
223.249	30.14
223.713	29.86
224.177	29.5
224.642	29.16
225.106	28.86
225.57	28.52
226.034	28.18
226.497	27.85
226.961	27.52
227.425	27.15
227.889	26.78
228.353	26.4
228.816	26.03
229.28	25.67
229.744	25.37
230.207	25.02
230.671	24.69
231.134	24.38
231.597	24.06
232.061	23.79
232.524	23.51
232.987	23.22
233.45	22.94
233.914	22.67
234.377	22.41
234.84	22.14
235.303	21.92
235.766	21.68
236.229	21.46
236.691	21.25
237.154	21
237.617	20.77
238.08	20.57
238.542	20.37
239.005	20.17
239.468	19.97
239.93	19.8
240.393	19.57
240.855	19.37
241.317	19.19
241.78	19.03
242.242	18.87
242.704	18.73
243.166	18.58
243.629	18.42
244.091	18.28
244.553	18.13
245.015	17.98
245.477	17.86
245.939	17.72
246.4	17.57
246.862	17.41
247.324	17.28
247.786	17.16
248.247	17.02
248.709	16.9
249.17	16.78
249.632	16.66
250.093	16.53
250.555	16.41
251.016	16.3
251.477	16.2
251.939	16.11
252.4	16
252.861	15.89
253.322	15.8
253.783	15.72
254.244	15.65
254.705	15.56
255.166	15.51
255.627	15.44
256.088	15.37
256.549	15.3
257.009	15.24
257.47	15.17
257.931	15.1
258.391	15.02
258.852	14.94
259.312	14.86
259.773	14.79
260.233	14.69
260.694	14.62
261.154	14.53
261.614	14.46
262.074	14.38
262.534	14.31
262.994	14.24
263.455	14.18
263.915	14.12
264.374	14.05
264.834	14
265.294	13.94
265.754	13.88
266.214	13.83
266.673	13.78
267.133	13.73
267.593	13.69
268.052	13.63
268.512	13.58
268.971	13.53
269.431	13.48
269.89	13.45
270.349	13.4
270.809	13.36
271.268	13.33
271.727	13.28
272.186	13.23
272.645	13.18
273.104	13.13
273.563	13.09
274.022	13.04
274.481	13
274.94	12.94
275.399	12.9
275.857	12.84
276.316	12.79
276.775	12.75
277.233	12.7
277.692	12.66
278.15	12.62
278.609	12.57
279.067	12.52
279.525	12.47
279.984	12.42
280.442	12.37
280.9	12.33
281.358	12.28
281.816	12.24
282.274	12.18
282.732	12.14
283.19	12.1
283.648	12.06
284.106	12.02
284.564	11.98
285.021	11.94
285.479	11.91
285.937	11.89
286.394	11.85
286.852	11.81
287.309	11.78
287.767	11.75
288.224	11.71
288.682	11.67
289.139	11.64
289.596	11.61
290.053	11.56
290.511	11.51
290.968	11.44
291.425	11.4
291.882	11.36
292.339	11.32
292.796	11.27
293.252	11.23
293.709	11.19
294.166	11.14
294.623	11.1
295.079	11.07
295.536	11.03
295.992	11
296.449	10.96
296.905	10.92
297.362	10.89
297.818	10.85
298.274	10.82
298.731	10.78
299.187	10.75
299.643	10.72
300.099	10.7
300.555	10.67
301.011	10.62
301.467	10.6
301.923	10.57
302.379	10.54
302.835	10.52
303.291	10.48
303.746	10.45
304.202	10.41
304.658	10.38
305.113	10.35
305.569	10.33
306.024	10.31
306.479	10.28
306.935	10.25
307.39	10.23
307.845	10.21
308.301	10.2
308.756	10.19
309.211	10.18
309.666	10.17
310.121	10.14
310.576	10.12
311.031	10.11
311.486	10.09
311.94	10.07
312.395	10.06
312.85	10.04
313.305	10.02
313.759	9.99
314.214	9.97
314.668	9.95
315.123	9.94
315.577	9.92
316.032	9.9
316.486	9.88
316.94	9.86
317.394	9.83
317.849	9.8
318.303	9.77
318.757	9.73
319.211	9.7
319.665	9.67
320.119	9.64
320.572	9.62
321.026	9.59
321.48	9.57
321.934	9.54
322.387	9.51
322.841	9.5
323.295	9.48
323.748	9.46
324.202	9.45
324.655	9.43
325.108	9.4
325.562	9.37
326.015	9.35
326.468	9.32
326.921	9.3
327.374	9.28
327.827	9.25
328.28	9.22
328.733	9.2
329.186	9.18
329.639	9.16
330.092	9.13
330.545	9.12
330.997	9.1
331.45	9.08
331.903	9.06
332.355	9.05
332.808	9.04
333.26	9.03
333.713	9.03
334.165	9.02
334.617	9.03
335.069	9.03
335.522	9.03
335.974	9.02
336.426	9.03
336.878	9.03
337.33	9.03
337.782	9.03
338.234	9.03
338.686	9.02
339.137	9.01
339.589	8.99
340.041	8.98
340.493	8.95
340.944	8.94
341.396	8.92
341.847	8.9
342.299	8.88
342.75	8.84
343.201	8.82
343.653	8.79
344.104	8.76
344.555	8.73
345.006	8.7
345.457	8.68
345.908	8.66
346.359	8.65
346.81	8.63
347.261	8.6
347.712	8.6
348.163	8.57
348.613	8.55
349.064	8.53
349.515	8.52
349.965	8.5
350.416	8.48
350.866	8.46
351.317	8.44
351.767	8.44
352.217	8.43
352.668	8.41
353.118	8.41
353.568	8.42
354.018	8.41
354.468	8.41
354.918	8.42
355.368	8.41
355.818	8.41
356.268	8.41
356.718	8.4
357.168	8.39
357.617	8.37
358.067	8.35
358.517	8.34
358.966	8.34
359.416	8.34
359.865	8.33
360.315	8.31
360.764	8.3
361.213	8.28
361.663	8.28
362.112	8.28
362.561	8.29
363.01	8.29
363.459	8.27
363.908	8.26
364.357	8.25
364.806	8.24
365.255	8.23
365.703	8.23
366.152	8.23
366.601	8.21
367.05	8.22
367.498	8.2
367.947	8.19
368.395	8.2
368.844	8.19
369.292	8.18
369.74	8.17
370.189	8.16
370.637	8.14
371.085	8.13
371.533	8.12
371.981	8.1
372.429	8.08
372.877	8.08
373.325	8.07
373.773	8.05
374.221	8.04
374.669	8.04
375.116	8.03
375.564	8.03
376.012	8.02
376.459	8.02
376.907	8.01
377.354	8.02
377.801	8.02
378.249	8.02
378.696	8.02
379.143	8.02
379.591	8.01
380.038	8.03
380.485	8.03
380.932	8.04
381.379	8.03
381.826	8.04
382.273	8.04
382.72	8.03
383.166	8.03
383.613	8.02
384.06	8.01
384.506	8.02
384.953	8.01
385.4	8.01
385.846	8
386.292	8.02
386.739	8.03
387.185	8.04
387.631	8.04
388.078	8.05
388.524	8.05
388.97	8.06
389.416	8.06
389.862	8.06
390.308	8.07
390.754	8.07
391.2	8.08
391.645	8.09
392.091	8.09
392.537	8.1
392.983	8.12
393.428	8.14
393.874	8.17
394.319	8.18
394.765	8.19
395.21	8.19
395.655	8.22
396.101	8.23
396.546	8.24
396.991	8.25
397.436	8.24
397.881	8.25
398.326	8.3
398.771	8.3
399.216	8.33
399.661	8.36
400.106	8.39
400.551	8.39
400.995	8.4
401.44	8.39
401.885	8.41
402.329	8.43
402.774	8.42
403.218	8.41
403.663	8.41
404.107	8.43
404.551	8.42
404.995	8.43
405.44	8.44
405.884	8.45
406.328	8.46
406.772	8.47
407.216	8.49
407.66	8.52
408.104	8.54
408.547	8.55
408.991	8.55
409.435	8.55
409.879	8.57
410.322	8.57
410.766	8.59
411.209	8.59
411.653	8.59
412.096	8.57
412.54	8.56
412.983	8.58
413.426	8.6
413.869	8.61
414.312	8.65
414.756	8.67
415.199	8.69
415.642	8.72
416.085	8.75
416.527	8.79
416.97	8.83
417.413	8.84
417.856	8.82
418.298	8.82
418.741	8.82
419.184	8.8
419.626	8.78
420.069	8.77
420.511	8.75
420.953	8.73
421.396	8.71
421.838	8.71
422.28	8.72
422.722	8.74
423.164	8.76
423.606	8.77
424.048	8.79
424.49	8.81
424.932	8.82
425.374	8.82
425.816	8.82
426.258	8.82
426.699	8.79
427.141	8.76
427.582	8.74
428.024	8.74
428.465	8.75
428.907	8.76
429.348	8.75
429.789	8.74
430.231	8.72
430.672	8.74
431.113	8.76
431.554	8.79
431.995	8.81
432.436	8.8
432.877	8.79
433.318	8.77
433.759	8.75
434.2	8.75
434.64	8.75
435.081	8.76
435.522	8.77
435.962	8.8
436.403	8.81
436.843	8.83
437.284	8.86
437.724	8.89
438.164	8.9
438.604	8.93
439.045	8.95
439.485	8.95
439.925	8.96
440.365	8.95
440.805	8.92
441.245	8.9
441.685	8.91
442.125	8.91
442.564	8.92
443.004	8.92
443.444	8.92
443.883	8.93
444.323	8.93
444.762	8.96
445.202	9
445.641	9.03
446.081	9.06
446.52	9.08
446.959	9.08
447.398	9.11
447.837	9.15
448.276	9.15
448.716	9.17
449.154	9.22
449.593	9.22
450.032	9.22
450.471	9.24
450.91	9.24
451.349	9.25
451.787	9.26
452.226	9.23
452.664	9.2
453.103	9.2
453.541	9.18
453.98	9.16
454.418	9.15
454.856	9.11
455.295	9.1
455.733	9.08
456.171	9.06
456.609	9.05
457.047	9.04
457.485	9.02
457.923	9.02
458.361	9.01
458.798	9
459.236	9
459.674	8.98
460.111	8.97
460.549	8.94
460.987	8.94
461.424	8.93
461.862	8.93
462.299	8.93
462.736	8.92
463.173	8.9
463.611	8.91
464.048	8.91
464.485	8.91
464.922	8.91
465.359	8.92
465.796	8.92
466.233	8.92
466.67	8.91
467.106	8.91
467.543	8.93
467.98	8.95
468.416	8.96
468.853	8.95
469.29	8.96
469.726	8.98
470.162	8.97
470.599	9
471.035	8.99
471.471	8.99
471.907	8.99
472.344	8.98
472.78	8.98
473.216	8.97
473.652	8.96
474.088	8.96
474.523	8.95
474.959	8.96
475.395	8.94
475.831	8.94
476.266	8.95
476.702	8.94
477.138	8.93
477.573	8.94
478.008	8.93
478.444	8.93
478.879	8.92
479.314	8.92
479.75	8.91
480.185	8.91
480.62	8.92
481.055	8.91
481.49	8.9
481.925	8.88
482.36	8.86
482.795	8.85
483.229	8.85
483.664	8.85
484.099	8.85
484.534	8.86
484.968	8.84
485.403	8.83
485.837	8.83
486.271	8.84
486.706	8.84
487.14	8.85
487.574	8.86
488.009	8.87
488.443	8.88
488.877	8.88
489.311	8.88
489.745	8.91
490.179	8.92
490.613	8.93
491.046	8.94
491.48	8.96
491.914	8.99
492.348	9
492.781	9.01
493.215	9.03
493.648	9.06
494.082	9.09
494.515	9.12
494.948	9.15
495.382	9.2
495.815	9.25
496.248	9.3
496.681	9.35
497.114	9.41
497.547	9.47
497.98	9.54
498.413	9.61
498.846	9.69
499.279	9.78
499.711	9.86
500.144	9.95
500.577	10.03
501.009	10.13
501.442	10.23
501.874	10.34
502.306	10.46
502.739	10.58
503.171	10.72
503.603	10.86
504.036	11.01
504.468	11.17
504.9	11.36
505.332	11.55
505.764	11.75
506.196	11.97
506.627	12.18
507.059	12.4
507.491	12.64
507.923	12.88
508.354	13.14
508.786	13.39
509.217	13.66
509.649	13.92
510.08	14.21
510.512	14.48
510.943	14.79
511.374	15.1
511.805	15.43
512.237	15.77
512.668	16.11
513.099	16.48
513.53	16.86
513.961	17.21
514.391	17.58
514.822	17.95
515.253	18.35
515.684	18.74
516.114	19.15
516.545	19.56
516.975	19.97
517.406	20.37
517.836	20.77
518.267	21.17
518.697	21.62
519.127	22.03
519.558	22.46
519.988	22.87
520.418	23.27
520.848	23.68
521.278	24.07
521.708	24.44
522.138	24.83
522.567	25.21
522.997	25.58
523.427	25.94
523.857	26.28
524.286	26.64
524.716	26.99
525.145	27.33
525.575	27.66
526.004	27.97
526.433	28.33
526.863	28.64
527.292	28.92
527.721	29.2
528.15	29.46
528.579	29.72
529.008	29.98
529.437	30.23
529.866	30.43
530.295	30.65
530.724	30.88
531.152	31.06
531.581	31.25
532.01	31.43
532.438	31.61
532.867	31.75
533.295	31.89
533.723	32.02
534.152	32.13
534.58	32.25
535.008	32.33
535.436	32.4
535.865	32.48
536.293	32.56
536.721	32.64
537.149	32.7
537.576	32.79
538.004	32.85
538.432	32.88
538.86	32.95
539.287	33.03
539.715	33.1
540.143	33.15
540.57	33.19
540.998	33.23
541.425	33.26
541.852	33.31
542.28	33.33
542.707	33.4
543.134	33.46
543.561	33.47
543.988	33.51
544.415	33.55
544.842	33.6
545.269	33.66
545.696	33.7
546.123	33.75
546.549	33.8
546.976	33.84
547.403	33.86
547.829	33.9
548.256	33.95
548.682	33.96
549.108	33.95
549.535	33.97
549.961	33.98
550.387	33.98
550.813	33.98
551.24	33.98
551.666	33.99
552.092	33.99
552.518	33.95
552.943	33.93
553.369	33.9
553.795	33.89
554.221	33.84
554.646	33.78
555.072	33.73
555.498	33.66
555.923	33.57
556.349	33.47
556.774	33.36
557.199	33.28
557.625	33.16
558.05	33.06
558.475	32.92
558.9	32.8
559.325	32.65
559.75	32.5
560.175	32.34
560.6	32.18
561.025	32.02
561.449	31.83
561.874	31.63
562.299	31.44
562.723	31.25
563.148	31.06
563.572	30.86
563.997	30.66
564.421	30.42
564.846	30.2
565.27	29.96
565.694	29.7
566.118	29.47
566.542	29.23
566.966	28.99
567.39	28.73
567.814	28.47
568.238	28.2
568.662	27.94
569.086	27.69
569.509	27.44
569.933	27.18
570.357	26.94
570.78	26.68
571.204	26.43
571.627	26.19
572.05	25.97
572.474	25.74
572.897	25.51
573.32	25.3
573.743	25.08
574.166	24.86
574.589	24.67
575.012	24.48
575.435	24.3
575.858	24.12
576.281	23.95
576.704	23.79
577.126	23.63
577.549	23.5
577.972	23.35
578.394	23.22
578.817	23.08
579.239	22.96
579.661	22.85
580.084	22.72
580.506	22.61
580.928	22.48
581.35	22.35
581.772	22.25
582.194	22.13
582.616	22.03
583.038	21.94
583.46	21.87
583.882	21.77
584.303	21.65
584.725	21.57
585.147	21.45
585.568	21.36
585.99	21.28
586.411	21.2
586.833	21.11
587.254	21.02
587.675	20.92
588.096	20.85
588.518	20.77
588.939	20.71
589.36	20.64
589.781	20.6
590.202	20.55
590.623	20.49
591.043	20.43
591.464	20.35
591.885	20.31
592.305	20.25
592.726	20.18
593.147	20.15
593.567	20.1
593.987	20.06
594.408	20.03
594.828	19.98
595.248	19.93
595.669	19.89
596.089	19.87
596.509	19.81
596.929	19.78
597.349	19.74
597.769	19.69
598.189	19.64
598.608	19.57
599.028	19.49
599.448	19.44
599.867	19.37
600.287	19.31
600.706	19.24
601.126	19.18
601.545	19.1
601.965	19.01
602.384	18.93
602.803	18.86
603.222	18.78
603.641	18.7
604.061	18.61
604.48	18.53
604.898	18.42
605.317	18.33
605.736	18.22
606.155	18.12
606.574	18.03
606.992	17.92
607.411	17.81
607.829	17.68
608.248	17.58
608.666	17.48
609.085	17.37
609.503	17.26
609.921	17.16
610.339	17.06
610.758	16.96
611.176	16.85
611.594	16.75
612.012	16.65
612.43	16.59
612.847	16.49
613.265	16.41
613.683	16.29
614.101	16.21
614.518	16.12
614.936	16.03
615.353	15.95
615.771	15.87
616.188	15.79
616.606	15.71
617.023	15.63
617.44	15.56
617.857	15.48
618.274	15.44
618.691	15.39
619.108	15.33
619.525	15.28
619.942	15.22
620.359	15.19
620.776	15.15
621.192	15.12
621.609	15.09
622.026	15.04
622.442	15.02
622.859	14.98
623.275	14.96
623.691	14.94
624.108	14.93
624.524	14.92
624.94	14.89
625.356	14.86
625.772	14.85
626.188	14.86
626.604	14.86
627.02	14.85
627.436	14.85
627.852	14.84
628.268	14.82
628.683	14.8
629.099	14.79
629.514	14.77
629.93	14.75
630.345	14.73
630.761	14.69
631.176	14.65
631.591	14.61
632.007	14.54
632.422	14.5
632.837	14.44
633.252	14.39
633.667	14.31
634.082	14.24
634.497	14.16
634.911	14.06
635.326	13.96
635.741	13.86
636.155	13.74
636.57	13.64
636.984	13.52
637.399	13.4
637.813	13.27
638.228	13.15
638.642	13.03
639.056	12.91
639.47	12.79
639.884	12.66
640.298	12.53
640.712	12.41
641.126	12.28
641.54	12.15
641.954	12.05
642.368	11.93
642.781	11.81
643.195	11.68
643.609	11.57
644.022	11.45
644.436	11.35
644.849	11.27
645.262	11.18
645.676	11.08
646.089	11.01
646.502	10.92
646.915	10.85
647.328	10.78
647.741	10.71
648.154	10.66
648.567	10.62
648.98	10.58
649.393	10.53
649.805	10.48
650.218	10.44
650.631	10.39
651.043	10.37
651.456	10.33
651.868	10.3
652.28	10.27
652.693	10.23
653.105	10.18
653.517	10.13
653.929	10.08
654.341	10.04
654.753	10.01
655.165	9.95
655.577	9.87
655.989	9.79
656.401	9.73
656.813	9.66
657.224	9.62
657.636	9.58
658.047	9.53
658.459	9.46
658.87	9.41
659.282	9.37
659.693	9.33
660.104	9.3
660.515	9.27
660.926	9.23
661.338	9.19
661.749	9.13
662.159	9.07
662.57	9.03
662.981	9
663.392	8.96
663.803	8.92
664.213	8.89
664.624	8.87
665.035	8.84
665.445	8.82
665.855	8.81
666.266	8.8
666.676	8.79
667.086	8.78
667.497	8.78
667.907	8.77
668.317	8.76
668.727	8.77
669.137	8.77
669.547	8.78
669.956	8.77
670.366	8.79
670.776	8.81
671.186	8.82
671.595	8.83
672.005	8.84
672.414	8.88
672.824	8.92
673.233	8.94
673.642	8.96
674.052	8.99
674.461	9.01
674.87	9.04
675.279	9.05
675.688	9.08
676.097	9.11
676.506	9.15
676.915	9.18
677.323	9.21
677.732	9.23
678.141	9.28
678.549	9.33
678.958	9.39
679.366	9.43
679.775	9.5
680.183	9.54
680.592	9.61
681	9.68
681.408	9.74
681.816	9.8
682.224	9.89
682.632	9.98
683.04	10.08
683.448	10.18
683.856	10.32
684.264	10.46
684.671	10.64
685.079	10.82
685.487	11.02
685.894	11.27
686.302	11.54
686.709	11.83
687.116	12.16
687.524	12.52
687.931	12.92
688.338	13.36
688.745	13.84
689.152	14.37
689.559	14.93
689.966	15.54
690.373	16.2
690.78	16.88
691.187	17.62
691.593	18.37
692	19.15
692.407	19.97
692.813	20.8
693.22	21.66
693.626	22.54
694.032	23.45
694.439	24.36
694.845	25.27
695.251	26.2
695.657	27.12
696.063	28.07
696.469	29.02
696.875	29.98
697.281	30.93
697.687	31.9
698.093	32.85
698.498	33.79
698.904	34.75
699.31	35.66
699.715	36.63
700.12	37.59
700.526	38.53
700.931	39.42
701.337	40.33
701.742	41.21
702.147	42.08
702.552	42.95
702.957	43.79
703.362	44.64
703.767	45.47
704.172	46.25
704.577	47.04
704.981	47.82
705.386	48.61
705.791	49.38
706.195	50.13
706.6	50.85
707.004	51.58
707.408	52.28
707.813	52.98
708.217	53.68
708.621	54.39
709.025	55.04
709.43	55.68
709.834	56.36
710.237	56.98
710.641	57.66
711.045	58.3
711.449	58.9
711.853	59.54
712.256	60.15
712.66	60.76
713.064	61.33
713.467	61.9
713.87	62.49
714.274	63.06
714.677	63.63
715.08	64.12
715.484	64.7
715.887	65.23
716.29	65.73
716.693	66.23
717.096	66.74
717.499	67.26
717.901	67.76
718.304	68.23
718.707	68.66
719.109	69.14
719.512	69.65
719.915	70.06
720.317	70.5
720.719	70.92
721.122	71.33
721.524	71.73
721.926	72.15
722.328	72.55
722.731	72.94
723.133	73.29
723.535	73.64
723.937	73.96
724.338	74.28
724.74	74.6
725.142	74.87
725.544	75.17
725.945	75.48
726.347	75.73
726.748	75.96
727.15	76.22
727.551	76.51
727.952	76.78
728.354	77.05
728.755	77.3
729.156	77.57
729.557	77.87
729.958	78.12
730.359	78.3
730.76	78.5
731.161	78.73
731.562	78.93
731.962	79.1
732.363	79.25
732.763	79.41
733.164	79.53
733.564	79.65
733.965	79.73
734.365	79.83
734.766	79.94
735.166	80.08
735.566	80.15
735.966	80.24
736.366	80.32
736.766	80.41
737.166	80.52
737.566	80.65
737.966	80.77
738.365	80.91
738.765	81.01
739.165	81.06
739.564	81.14
739.964	81.21
740.363	81.31
740.763	81.4
741.162	81.48
741.561	81.57
741.96	81.66
742.36	81.72
742.759	81.79
743.158	81.84
743.557	81.96
743.955	82.05
744.354	82.17
744.753	82.25
745.152	82.3
745.55	82.37
745.949	82.42
746.348	82.47
746.746	82.52
747.144	82.59
747.543	82.66
747.941	82.75
748.339	82.83
748.737	82.89
749.136	82.96
749.534	83.05
749.932	83.11
750.33	83.12
750.727	83.16
751.125	83.21
751.523	83.22
751.921	83.24
752.318	83.25
752.716	83.21
753.113	83.21
753.511	83.16
753.908	83.12
754.305	83.07
754.703	83.07
755.1	83.04
755.497	83
755.894	82.96
756.291	82.93
756.688	82.89
757.085	82.88
757.482	82.89
757.878	82.89
758.275	82.88
758.672	82.88
759.068	82.87
759.465	82.84
759.861	82.88
760.258	82.84
760.654	82.88
761.05	82.9
761.447	82.87
761.843	82.82
762.239	82.79
762.635	82.79
763.031	82.79
763.427	82.76
763.822	82.75
764.218	82.68
764.614	82.71
765.01	82.62
765.405	82.55
765.801	82.51
766.196	82.5
766.592	82.46
766.987	82.45
767.382	82.43
767.778	82.43
768.173	82.49
768.568	82.5
768.963	82.5
769.358	82.54
769.753	82.58
770.148	82.62
770.542	82.6
770.937	82.62
771.332	82.63
771.726	82.61
772.121	82.59
772.515	82.56
772.91	82.59
773.304	82.59
773.699	82.59
774.093	82.58
774.487	82.62
774.881	82.62
775.275	82.63
775.669	82.6
776.063	82.6
776.457	82.57
776.851	82.53
777.245	82.53
777.638	82.54
778.032	82.53
778.425	82.53
778.819	82.56
779.212	82.55
779.606	82.56
779.999	82.55
780.392	82.55
780.786	82.6
781.179	82.67
781.572	82.64
781.965	82.62
782.358	82.6
782.751	82.63
783.143	82.59
783.536	82.64
783.929	82.71
784.322	82.75
784.714	82.78
785.107	82.79
785.499	82.81
785.891	82.86
786.284	82.84
786.676	82.91
787.068	82.85
787.46	82.85
787.852	82.81
788.245	82.81
788.636	82.82
789.028	82.85
789.42	82.86
789.812	82.82
790.204	82.78
790.595	82.83
790.987	82.81
791.378	82.89
791.77	82.9
792.161	82.95
792.553	82.95
792.944	82.95
793.335	82.98
793.726	82.93
794.117	82.92
794.508	82.96
794.899	82.96
795.29	82.95
795.681	82.92
796.072	82.93
796.463	82.89
796.853	82.9
797.244	82.88
797.634	82.88
798.025	82.96
798.415	82.99
798.806	83.02
799.196	83.06
799.586	83.13
799.976	83.14
800.366	83.2
800.756	83.22
801.146	83.24
801.536	83.28
801.926	83.25
802.316	83.27
802.706	83.28
803.095	83.3
803.485	83.32
803.874	83.29
804.264	83.37
804.653	83.31
805.043	83.34
805.432	83.28
805.821	83.29
806.21	83.37
806.599	83.43
806.988	83.46
807.377	83.47
807.766	83.5
808.155	83.56
808.544	83.53
808.933	83.61
809.321	83.67
809.71	83.8
810.098	83.84
810.487	83.84
810.875	83.81
811.264	83.82
811.652	83.83
812.04	83.81
812.428	83.89
812.816	83.93
813.204	83.93
813.592	83.95
813.98	83.98
814.368	83.98
814.756	84.04
815.144	84.07
815.531	84.1
815.919	84.11
816.306	84.13
816.694	84.1
817.081	84.08
817.469	84.14
817.856	84.19
818.243	84.18
818.63	84.23
819.017	84.26
819.404	84.25
819.791	84.28
820.178	84.32
820.565	84.32
820.952	84.36
821.339	84.42
821.725	84.44
822.112	84.45
822.498	84.47
822.885	84.5
823.271	84.47
823.657	84.51
824.044	84.51
824.43	84.53
824.816	84.6
825.202	84.59
825.588	84.58
825.974	84.57
826.36	84.5
826.746	84.5
827.132	84.43
827.517	84.43
827.903	84.43
828.289	84.45
828.674	84.41
829.06	84.38
829.445	84.38
829.83	84.34
830.216	84.33
830.601	84.34
830.986	84.31
831.371	84.34
831.756	84.29
832.141	84.3
832.526	84.24
832.911	84.28
833.295	84.26
833.68	84.24
834.065	84.26
834.449	84.23
834.834	84.23
835.218	84.21
835.603	84.22
835.987	84.22
836.371	84.22
836.755	84.19
837.139	84.13
837.524	84.08
837.908	84.01
838.291	84
838.675	83.99
839.059	83.95
839.443	83.96
839.827	83.91
840.21	83.91
840.594	83.9
840.977	83.91
841.361	83.95
841.744	83.99
842.127	84.03
842.511	83.97
842.894	83.94
843.277	83.95
843.66	83.93
844.043	83.93
844.426	83.95
844.809	83.92
845.191	83.88
845.574	83.81
845.957	83.77
846.339	83.77
846.722	83.8
847.104	83.78
847.487	83.8
847.869	83.8
848.252	83.77
848.634	83.8
849.016	83.85
849.398	83.87
849.78	83.88
850.162	83.89
850.544	83.91
850.926	83.93
851.307	83.96
851.689	83.92
852.071	83.9
852.452	83.94
852.834	83.85
853.215	83.81
853.597	83.83
853.978	83.81
854.359	83.82
854.741	83.82
855.122	83.81
855.503	83.78
855.884	83.79
856.265	83.77
856.646	83.75
857.026	83.82
857.407	83.79
857.788	83.81
858.169	83.83
858.549	83.84
858.93	83.84
859.31	83.8
859.69	83.82
860.071	83.83
860.451	83.85
860.831	83.86
861.211	83.81
861.591	83.83
861.971	83.77
862.351	83.79
862.731	83.75
863.111	83.74
863.491	83.79
863.87	83.77
864.25	83.77
864.629	83.79
865.009	83.75
865.388	83.77
865.768	83.78
866.147	83.81
866.526	83.79
866.905	83.78
867.284	83.77
867.663	83.76
868.042	83.77
868.421	83.77
868.8	83.77
869.179	83.78
869.558	83.78
869.936	83.71
870.315	83.69
870.693	83.69
871.072	83.72
871.45	83.73
871.828	83.71
872.207	83.73
872.585	83.73
872.963	83.7
873.341	83.69
873.719	83.65
874.097	83.69
874.475	83.72
874.853	83.7
875.23	83.67
875.608	83.62
875.986	83.6
876.363	83.57
876.741	83.56
877.118	83.56
877.495	83.56
877.873	83.6
878.25	83.57
878.627	83.58
879.004	83.62
879.381	83.65
879.758	83.66
880.135	83.68
880.512	83.71
880.889	83.73
881.265	83.75
881.642	83.77
882.019	83.75
882.395	83.76
882.772	83.73
883.148	83.7
883.524	83.7
883.901	83.69
884.277	83.65
884.653	83.63
885.029	83.59
885.405	83.52
885.781	83.45
886.157	83.42
886.532	83.41
886.908	83.44
887.284	83.45
887.659	83.43
888.035	83.46
888.411	83.45
888.786	83.42
889.161	83.42
889.537	83.44
889.912	83.45
890.287	83.48
890.662	83.49
891.037	83.43
891.412	83.38
891.787	83.35
892.162	83.31
892.536	83.29
892.911	83.28
893.286	83.23
893.66	83.19
894.035	83.18
894.409	83.13
894.784	83.08
895.158	83.08
895.532	83.03
895.906	82.96
896.281	82.93
896.655	82.89
897.029	82.88
897.402	82.87
897.776	82.87
898.15	82.84
898.524	82.83
898.898	82.8
899.271	82.8
899.645	82.83
900.018	82.88
900.392	82.9
900.765	82.93
901.138	82.93
901.511	82.94
901.884	82.93
902.258	82.93
902.631	82.96
903.003	82.98
903.376	82.95
903.749	82.94
904.122	82.91
904.495	82.92
904.867	82.92
905.24	82.88
905.612	82.84
905.985	82.81
906.357	82.78
906.729	82.73
907.102	82.74
907.474	82.75
907.846	82.72
908.218	82.69
908.59	82.63
908.962	82.59
909.334	82.6
909.705	82.64
910.077	82.64
910.449	82.64
910.82	82.61
911.192	82.6
911.563	82.58
911.935	82.56
912.306	82.58
912.677	82.63
913.048	82.61
913.419	82.63
913.79	82.62
914.161	82.59
914.532	82.62
914.903	82.62
915.274	82.61
915.645	82.6
916.015	82.66
916.386	82.63
916.756	82.55
917.127	82.55
917.497	82.46
917.868	82.44
918.238	82.47
918.608	82.45
918.978	82.46
919.348	82.4
919.718	82.4
920.088	82.36
920.458	82.38
920.828	82.41
921.198	82.43
921.567	82.46
921.937	82.45
922.306	82.45
922.676	82.46
923.045	82.41
923.415	82.35
923.784	82.36
924.153	82.31
924.522	82.28
924.891	82.23
925.26	82.13
925.629	82.04
925.998	81.98
926.367	81.89
926.736	81.76
927.104	81.75
927.473	81.81
927.842	81.69
928.21	81.67
928.578	81.57
928.947	81.52
929.315	81.51
929.683	81.51
930.051	81.52
930.42	81.51
930.788	81.54
931.156	81.42
931.523	81.3
931.891	81.21
932.259	81.06
932.627	80.97
932.994	80.91
933.362	80.76
933.729	80.67
934.097	80.45
934.464	80.29
934.831	80.09
935.199	79.98
935.566	79.88
935.933	79.83
936.3	79.73
936.667	79.61
937.034	79.45
937.401	79.38
937.767	79.25
938.134	79.21
938.501	79.05
938.867	79.11
939.234	79.16
939.6	79.12
939.967	79.13
940.333	79.27
940.699	79.45
941.065	79.61
941.431	79.84
941.798	80.06
942.163	80.31
942.529	80.57
942.895	80.6
943.261	80.64
943.627	80.82
943.992	80.92
944.358	80.94
944.723	80.94
945.089	80.99
945.454	81
945.82	80.88
946.185	80.98
946.55	81.03
946.915	81.07
947.28	81.07
947.645	81.01
948.01	81.01
948.375	81.05
948.74	80.98
949.104	80.94
949.469	80.78
949.834	80.81
950.198	80.62
950.562	80.51
950.927	80.45
951.291	80.45
951.655	80.46
952.02	80.46
952.384	80.41
952.748	80.49
953.112	80.47
953.476	80.48
953.839	80.43
954.203	80.34
954.567	80.31
954.931	80.29
955.294	80.27
955.658	80.22
956.021	80.13
956.385	80.13
956.748	80.05
957.111	79.94
957.474	79.99
957.837	80
958.2	79.97
958.563	79.86
958.926	79.75
959.289	79.75
959.652	79.67
960.015	79.58
960.377	79.48
960.74	79.39
961.102	79.35
961.465	79.28
961.827	79.11
962.189	79.05
962.552	79.04
962.914	79.1
963.276	79
963.638	78.91
964	78.9
964.362	78.87
964.724	78.83
965.085	78.79
965.447	78.67
965.809	78.59
966.17	78.64
966.532	78.67
966.893	78.59
967.255	78.47
967.616	78.56
967.977	78.52
968.338	78.42
968.699	78.34
969.061	78.25
969.421	78.25
969.782	78.36
970.143	78.27
970.504	78.19
970.865	78.08
971.225	78
971.586	77.97
971.946	77.96
972.307	77.95
972.667	78
973.027	78.05
973.388	78.01
973.748	77.99
974.108	77.93
974.468	77.91
974.828	77.93
975.188	78
975.548	77.91
975.907	77.87
976.267	77.84
976.627	77.78
976.986	77.72
977.346	77.61
977.705	77.57
978.064	77.52
978.424	77.44
978.783	77.44
979.142	77.36
979.501	77.28
979.86	77.26
980.219	77.23
980.578	77.19
980.937	77.11
981.296	77.15
981.654	77.25
982.013	77.28
982.371	77.34
982.73	77.27
983.088	77.27
983.447	77.31
983.805	77.2
984.163	77.18
984.521	77.05
984.879	77.07
985.237	77.11
985.595	77.03
985.953	77.05
986.311	77.11
986.669	77.12
987.026	77.15
987.384	77.12
987.741	77.12
988.099	77.09
988.456	77.24
988.814	77.31
989.171	77.18
989.528	77.05
989.885	76.96
990.242	76.85
990.599	76.84
990.956	76.73
991.313	76.75
991.67	76.76
992.027	76.67
992.383	76.61
992.74	76.41
993.096	76.44
993.453	76.34
993.809	76.44
994.165	76.42
994.522	76.38
994.878	76.4
995.234	76.28
995.59	76.28
995.946	76.46
996.302	76.29
996.658	76.42
997.013	76.42
997.369	76.6
997.725	76.43
998.08	76.36
998.436	76.32
998.791	76.25
999.147	76.31
999.502	76.15
999.857	75.98
1000.212	76.17
1000.567	76.03
1000.922	75.98
1001.277	75.63
1001.632	75.73
1001.987	75.6
1002.342	75.64
1002.696	75.72
1003.051	75.51
1003.406	75.61
1003.76	75.63
1004.114	75.44
1004.469	75.28
1004.823	75.3
1005.177	75.55
1005.531	75.42
1005.885	75.44
1006.239	75.17
1006.593	74.9
1006.947	74.82
1007.301	74.8
1007.655	74.6
1008.008	74.72
1008.362	74.89
1008.715	74.85
1009.069	74.73
1009.422	74.52
1009.776	74.56
1010.129	74.76
1010.482	75.11
1010.835	75.22
1011.188	74.94
1011.541	74.88
1011.894	74.86
1012.247	74.65
1012.6	74.5
1012.952	74.48
1013.305	74.52
1013.657	74.43
1014.01	74.43
1014.362	74.16
1014.715	73.87
1015.067	73.97
1015.419	74.21
1015.771	74.39
1016.123	74.41
1016.475	74.47
1016.827	74.67
1017.179	74.75
1017.531	74.65
1017.883	74.32
1018.234	73.94
1018.586	74.16
1018.938	73.82
1019.289	73.49
1019.64	73.49
1019.992	73.41
1020.343	73.23
1020.694	72.58
1021.045	72.35
1021.396	72.53
1021.747	72.51
1022.098	72.84
1022.449	72.28
1022.8	72.48
1023.151	72.51
1023.501	72.15
1023.852	72.22
1024.202	72.03
1024.553	72.11
1024.903	72.01
1025.253	71.77
1025.604	71.53
1025.954	71.25
1026.304	71.94
1026.654	71.98
1027.004	71.93
1027.354	71.54
1027.703	71.18
1028.053	70.93
1028.403	70.86
1028.753	70.8
1029.102	70.58
1029.452	70.78
1029.801	70.78
1030.15	70.34
1030.499	70.24
897.758	488.44
901.051	491.41
904.343	500.37
907.636	492.05
910.928	486.1
914.22	495.02
917.511	480.46
920.803	465.81
924.094	444.47
927.384	451.61
930.675	437.95
933.965	430.74
937.255	434.17
940.544	414.13
943.834	396.89
947.123	389.01
950.411	369.76
953.7	366.19
956.988	356.94
960.276	341.83
963.563	340.03
966.851	319.83
970.138	316.56
973.424	295.28
976.711	291.81
979.997	286.39
983.283	279.79
986.568	271.38
989.853	264.1
993.138	254.55
996.423	253.97
999.708	244.39
1002.992	247.08
1006.275	238.37
1009.559	237.13
1012.842	230.42
1016.125	222.56
1019.408	219.14
1022.69	218.97
1025.972	215.98
1029.254	211.83
1032.536	207.83
1035.817	202
1039.098	199.46
1042.379	197.66
1045.659	195.21
1048.939	195.21
1052.219	192.64
1055.498	190.26
1058.778	186.78
1062.057	185.18
1065.335	183.37
1068.614	181.56
1071.892	180.9
1075.17	177.73
1078.447	175.15
1081.724	174.16
1085.001	169.46
1088.278	169.49
1091.554	168.46
1094.83	166.66
1098.106	164.96
1101.382	164.36
1104.657	163.98
1107.932	163.06
1111.206	162.42
1114.481	160.5
1117.755	159.65
1121.029	161.17
1124.302	158.48
1127.575	156.38
1130.848	156.31
1134.121	154.13
1137.393	154.28
1140.665	152.79
1143.937	151.58
1147.208	150.35
1150.48	150.39
1153.75	149.42
1157.021	147.42
1160.291	147.28
1163.561	146.67
1166.831	146.57
1170.101	146
1173.37	144.43
1176.639	143.27
1179.907	143.41
1183.176	143.02
1186.444	142.77
1189.711	141.79
1192.979	142.01
1196.246	142.19
1199.513	142.66
1202.78	142.08
1206.046	142.38
1209.312	143.52
1212.578	144.34
1215.843	145.68
1219.108	146.03
1222.373	148
1225.638	150.7
1228.902	153.33
1232.166	157.88
1235.43	159.53
1238.693	162.13
1241.956	165.69
1245.219	168.56
1248.482	170.13
1251.744	169.86
1255.006	170.91
1258.268	167.17
1261.529	165.25
1264.79	161.71
1268.051	158.24
1271.312	157.05
1274.572	154.82
1277.832	151.31
1281.092	149.93
1284.351	147.11
1287.61	146.77
1290.869	146.17
1294.128	145.78
1297.386	146.04
1300.644	145.69
1303.902	143.9
1307.159	143.19
1310.416	144.04
1313.673	146.31
1316.93	146.5
1320.186	147.88
1323.442	149.68
1326.697	151.26
1329.953	152.09
1333.208	154.63
1336.463	160.11
1339.717	163.7
1342.972	170.79
1346.226	174
1349.479	174.09
1352.733	180.59
1355.986	185.62
1359.238	188.09
1362.491	190.11
1365.743	195.27
1368.995	198.06
1372.247	196.38
1375.498	195.12
1378.749	198.47
1382	199.89
1385.251	197.67
1388.501	197.41
1391.751	197.37
1395	194.75
1398.25	195.79
1401.499	194.2
1404.748	191.65
1407.996	186.98
1411.244	187.53
1414.492	184.97
1417.74	178.51
1420.987	175.34
1424.234	171.96
1427.481	165.72
1430.728	162.7
1433.974	156.47
1437.22	153.09
1440.465	148.02
1443.711	145.48
1446.956	141.23
1450.201	136.68
1453.445	131.39
1456.689	128.13
1459.933	123.68
1463.177	119.17
1466.42	117.57
1469.663	115.27
1472.906	112.14
1476.148	109.73
1479.391	107.12
1482.633	105.72
1485.874	104.2
1489.115	103.59
1492.356	102.58
1495.597	101.08
1498.838	102.13
1502.078	101.17
1505.318	101.08
1508.557	100.46
1511.797	100.07
1515.036	100.61
1518.274	99.81
1521.513	98.84
1524.751	98.41
1527.989	100.1
1531.227	100.46
1534.464	100
1537.701	99.03
1540.938	98.71
1544.174	99.69
1547.41	99.72
1550.646	99.94
1553.882	100.27
1557.117	100.42
1560.352	100.58
1563.587	99.36
1566.821	99.54
1570.055	98.84
1573.289	99.75
1576.523	99.98
1579.756	99.24
1582.989	99.73
1586.222	99.26
1589.454	100.15
1592.686	100.47
1595.918	99.91
1599.15	100.27
1602.381	100.22
1605.612	100.61
1608.843	100.29
1612.073	100.96
1615.303	101.24
1618.533	101.09
1621.762	101.59
1624.992	100.6
1628.221	100.39
1631.449	101.38
1634.678	101.04
1637.906	101.26
1641.134	101.67
1644.361	101.7
1647.588	101.32
1650.815	101.84
1654.042	101.67
1657.269	101.05
1660.495	101.84
1663.72	101.97
1666.946	101.91
1670.171	102.63
1673.396	103.22
1676.621	103.26
1679.845	103.49
1683.069	103.4
1686.293	103.07
1689.517	103.66
1692.74	104.39
1695.963	103.94
1699.185	104.63
1702.408	103.99
1705.63	103.88
1708.852	104.34
1712.073	103.85
1715.294	104.07
1718.515	104.1
1721.736	104
1724.956	104.55
1728.176	104.12
1731.396	104.9
1734.616	104.68
1737.835	105.24
1741.054	105.24
1744.272	104.61
1747.491	104.78
1750.709	105.43
1753.927	105.68
1757.144	106.09
1760.361	105.63
1763.578	106.6
1766.795	106.29
1770.011	106.54
1773.227	107.12
1776.443	107.59
1779.658	107.37
1782.874	108.12
1786.089	107.18
1789.303	107.24
1792.518	108.27
1795.732	108.85
1798.945	109.53
1802.159	109.47
1805.372	110.46
1808.585	111.12
1811.797	111.71
1815.01	112.85
1818.222	113.31
1821.434	114.56
1824.645	115.39
1827.856	115.86
1831.067	115.86
1834.278	116.5
1837.488	117.71
1840.698	118.64
1843.908	118.31
1847.117	118.73
1850.326	119.4
1853.535	120.63
1856.744	120.7
1859.952	121.69
1863.16	120.98
1866.368	120.98
1869.575	119.84
1872.782	119.67
1875.989	117.27
1879.196	118.03
1882.402	116.54
1885.608	116.25
1888.814	114.24
1892.019	115.1
1895.224	112.47
1898.429	112.92
1901.634	112.87
1904.838	113.51
1908.042	113.04
1911.246	113.42
1914.449	112.49
1917.652	111.92
1920.855	112.15
1924.058	111.92
1927.26	110.55
1930.462	112.23
1933.664	111.89
1936.865	112.2
1940.066	110.32
1943.267	110.4
1946.467	111.07
1949.668	110.38
1952.868	111.64
1956.067	111.92
1959.267	111.25
1962.466	112.19
1965.665	112.68
1968.863	113.87
1972.061	113.61
1975.259	117.04
1978.457	118.38
1981.654	118.1
1984.852	119.81
1988.048	121.04
1991.245	121.5
1994.441	125.22
1997.637	126.72
2000.833	128.48
2004.028	129.22
2007.223	133.8
2010.418	135.54
2013.613	139.26
2016.807	143.55
2020.001	146.37
2023.194	150.29
2026.388	155.63
2029.581	162.86
2032.774	167.57
2035.966	172.2
2039.158	176.85
2042.35	177.59
2045.542	180.42
2048.733	187.09
2051.924	189.73
2055.115	191.66
2058.306	193.55
2061.496	196.07
2064.686	195.63
2067.875	195.36
2071.065	198.02
2074.254	198.53
2077.442	204.93
2080.631	205.25
2083.819	206.29
2087.007	210.43
2090.195	214.24
2093.382	214.97
2096.569	215.8
2099.756	220.1
2102.942	224.31
2106.128	228.2
2109.314	229.6
2112.5	230.28
2115.685	227.84
2118.87	228.08
2122.055	228.28
2125.239	232.12
2128.424	237.22
2131.608	234.14
2134.791	234.89
2137.974	236.16
2141.157	237.83
2144.34	238.78
2147.523	243.88
2150.705	252.67
2153.887	251.94
2157.068	254.73
2160.25	257.09
2163.431	254.96
2166.611	262.33
2169.792	264.95
2172.972	267.82
2176.152	266.47
2179.331	272.97
2182.511	272.94
2185.69	275.94
2188.868	283.06
2192.047	289.28
2195.225	294.76
2198.403	296.76
2201.58	294.87
2204.758	302.25
2207.935	305.05
2211.111	312.81
2214.288	314.58
2217.464	317.39
2220.64	317.4
2223.815	318.27
2226.991	312.38
2230.166	313.92
2233.34	325.16
2236.515	332.49
2239.689	327.46
2242.863	333.26
2246.036	329.38
2249.209	333.08
2252.382	335.11
2255.555	346.62
2258.727	349.98
2261.9	363.03
2265.071	367.41
2268.243	364.93
2271.414	373.25
2274.585	381.41
2277.756	382.4
2280.926	397.61
2284.096	398.57
2287.266	395.58
2290.436	388.34
2293.605	398.73
2296.774	411.47
2299.942	413.73
2303.111	424.66
2306.279	436.36
2309.447	436.82
2312.614	439.44
2315.781	445.53
2318.948	453.33
2322.115	463.02
2325.281	488.57
2328.447	478.97
2331.613	484.11
2334.779	487.72
2337.944	491.9
2341.109	496.02
2344.274	501.66
2347.438	509.45
2350.602	519.6
2353.766	553.56
2356.929	556.17
2360.092	560.92
2363.255	568.05
2366.418	571.31
2369.58	581.96
2372.742	594.33
2375.904	590.96
2379.066	607.67
2382.227	637.9
2385.388	635.47
2388.548	601.71
2391.709	592.48
2394.869	609.85
2398.029	615.95
2401.188	613.06
2404.347	631.66
2407.506	644.31
2410.665	623.41
2413.823	626.01
2416.981	631.55
2420.139	605.06
2423.296	653.1
2426.453	705.96
2429.61	674.08
2432.767	712.33
2435.923	743.02
2439.079	714.97
2442.235	730.13
2445.391	751.03
2448.546	744.8
2451.701	783.88
2454.855	835.21
2458.009	735.52
2461.163	744.5
2464.317	751.87
2467.471	735.12
2470.624	755
2473.777	748.04
2476.929	720.4
2480.082	755.45
2483.234	798.59
2486.385	806.88
2489.537	825.41
2492.688	912.47
2495.839	892.92
2498.989	921.27
2502.14	926.78
2505.29	888.32
2508.439	979.66
2511.589	1000.89
2514.738	976.46
2517.887	966.86
2521.035	905.39
2524.183	894.17
2527.331	884.92
2530.479	859.81
2533.627	877.39
