Data from C_2_hir_il_4n_054_Splice17_03.txt Node
Date: Sat Feb 29 14:32:19 EST 2020
User: sa697716
Spectrometer: FLMS03696
Trigger mode: 0
Integration Time (sec): 3.180400E-1
Scans to average: 20
Electric dark correction enabled: true
Nonlinearity correction enabled: true
Boxcar width: 5
XAxis mode: Wavelengths
Number of Pixels in Spectrum: 2048
>>>>>Begin Spectral Data<<<<<
187.83	76.27
188.298	56.73
188.766	62.48
189.233	53.55
189.701	69.58
190.169	67.65
190.636	66.94
191.104	57.18
191.571	146.61
192.039	157.68
192.506	63.29
192.974	5087
193.441	198.32
193.908	28.82
194.375	-0.59
194.842	108.24
195.31	96.89
195.777	105.03
196.244	22.49
196.711	19.66
197.177	15.13
197.644	15.87
198.111	15.02
198.578	14.44
199.045	15.17
199.511	15.34
199.978	15.82
200.445	15.26
200.911	15.52
201.378	16.34
201.844	16.33
202.31	17.03
202.777	17.02
203.243	17.76
203.709	18.29
204.176	18.18
204.642	18.09
205.108	18.29
205.574	19.02
206.04	18.96
206.506	18.6
206.972	18.84
207.438	18.57
207.903	19.08
208.369	18.7
208.835	18.97
209.301	19.13
209.766	19.5
210.232	19.04
210.697	18.79
211.163	18.94
211.628	18.67
212.094	18.36
212.559	18.11
213.024	17.86
213.49	17.98
213.955	17.89
214.42	17.56
214.885	17.11
215.35	17.1
215.815	16.49
216.28	16.06
216.745	15.85
217.21	15.53
217.675	15.25
218.14	14.66
218.604	14.14
219.069	13.78
219.534	13.41
219.998	13.15
220.463	12.89
220.927	12.76
221.392	12.56
221.856	12.3
222.32	12.13
222.785	11.98
223.249	11.86
223.713	11.77
224.177	11.56
224.642	11.49
225.106	11.38
225.57	11.22
226.034	11.12
226.497	10.97
226.961	10.86
227.425	10.69
227.889	10.54
228.353	10.39
228.816	10.25
229.28	10.12
229.744	10
230.207	9.87
230.671	9.76
231.134	9.63
231.597	9.53
232.061	9.43
232.524	9.36
232.987	9.26
233.45	9.18
233.914	9.09
234.377	9.03
234.84	8.93
235.303	8.84
235.766	8.78
236.229	8.7
236.691	8.62
237.154	8.55
237.617	8.47
238.08	8.4
238.542	8.32
239.005	8.25
239.468	8.17
239.93	8.12
240.393	8.05
240.855	7.98
241.317	7.91
241.78	7.85
242.242	7.78
242.704	7.72
243.166	7.66
243.629	7.61
244.091	7.56
244.553	7.51
245.015	7.45
245.477	7.4
245.939	7.34
246.4	7.28
246.862	7.24
247.324	7.22
247.786	7.17
248.247	7.14
248.709	7.09
249.17	7.05
249.632	7.01
250.093	6.95
250.555	6.91
251.016	6.88
251.477	6.85
251.939	6.81
252.4	6.77
252.861	6.74
253.322	6.7
253.783	6.68
254.244	6.65
254.705	6.62
255.166	6.61
255.627	6.6
256.088	6.57
256.549	6.56
257.009	6.54
257.47	6.52
257.931	6.49
258.391	6.46
258.852	6.42
259.312	6.4
259.773	6.39
260.233	6.37
260.694	6.34
261.154	6.32
261.614	6.29
262.074	6.27
262.534	6.24
262.994	6.22
263.455	6.2
263.915	6.18
264.374	6.16
264.834	6.14
265.294	6.11
265.754	6.09
266.214	6.07
266.673	6.06
267.133	6.05
267.593	6.04
268.052	6.02
268.512	6.01
268.971	6
269.431	5.99
269.89	5.98
270.349	5.96
270.809	5.96
271.268	5.96
271.727	5.94
272.186	5.93
272.645	5.91
273.104	5.9
273.563	5.89
274.022	5.89
274.481	5.87
274.94	5.86
275.399	5.85
275.857	5.85
276.316	5.83
276.775	5.81
277.233	5.8
277.692	5.79
278.15	5.77
278.609	5.74
279.067	5.71
279.525	5.7
279.984	5.68
280.442	5.67
280.9	5.65
281.358	5.63
281.816	5.61
282.274	5.6
282.732	5.59
283.19	5.59
283.648	5.58
284.106	5.57
284.564	5.57
285.021	5.57
285.479	5.56
285.937	5.55
286.394	5.55
286.852	5.55
287.309	5.54
287.767	5.53
288.224	5.52
288.682	5.52
289.139	5.52
289.596	5.51
290.053	5.49
290.511	5.48
290.968	5.47
291.425	5.46
291.882	5.45
292.339	5.44
292.796	5.42
293.252	5.4
293.709	5.39
294.166	5.37
294.623	5.36
295.079	5.35
295.536	5.33
295.992	5.32
296.449	5.31
296.905	5.29
297.362	5.27
297.818	5.27
298.274	5.26
298.731	5.24
299.187	5.23
299.643	5.22
300.099	5.22
300.555	5.2
301.011	5.19
301.467	5.18
301.923	5.17
302.379	5.17
302.835	5.17
303.291	5.16
303.746	5.15
304.202	5.15
304.658	5.14
305.113	5.12
305.569	5.12
306.024	5.12
306.479	5.11
306.935	5.1
307.39	5.09
307.845	5.08
308.301	5.07
308.756	5.07
309.211	5.08
309.666	5.07
310.121	5.07
310.576	5.07
311.031	5.06
311.486	5.07
311.94	5.06
312.395	5.07
312.85	5.06
313.305	5.06
313.759	5.05
314.214	5.04
314.668	5.04
315.123	5.05
315.577	5.04
316.032	5.03
316.486	5.04
316.94	5.04
317.394	5.04
317.849	5.04
318.303	5.04
318.757	5.04
319.211	5.02
319.665	5.02
320.119	5.01
320.572	5.01
321.026	5
321.48	4.99
321.934	4.98
322.387	4.97
322.841	4.95
323.295	4.95
323.748	4.94
324.202	4.94
324.655	4.94
325.108	4.93
325.562	4.9
326.015	4.9
326.468	4.89
326.921	4.88
327.374	4.86
327.827	4.86
328.28	4.85
328.733	4.83
329.186	4.82
329.639	4.8
330.092	4.79
330.545	4.79
330.997	4.8
331.45	4.8
331.903	4.79
332.355	4.8
332.808	4.8
333.26	4.81
333.713	4.82
334.165	4.83
334.617	4.84
335.069	4.85
335.522	4.85
335.974	4.86
336.426	4.86
336.878	4.85
337.33	4.84
337.782	4.84
338.234	4.84
338.686	4.84
339.137	4.85
339.589	4.84
340.041	4.84
340.493	4.83
340.944	4.82
341.396	4.81
341.847	4.8
342.299	4.79
342.75	4.77
343.201	4.77
343.653	4.76
344.104	4.75
344.555	4.75
345.006	4.74
345.457	4.74
345.908	4.73
346.359	4.73
346.81	4.73
347.261	4.74
347.712	4.74
348.163	4.74
348.613	4.73
349.064	4.71
349.515	4.69
349.965	4.69
350.416	4.68
350.866	4.67
351.317	4.66
351.767	4.66
352.217	4.65
352.668	4.65
353.118	4.65
353.568	4.66
354.018	4.68
354.468	4.68
354.918	4.7
355.368	4.71
355.818	4.7
356.268	4.71
356.718	4.71
357.168	4.71
357.617	4.71
358.067	4.71
358.517	4.7
358.966	4.71
359.416	4.72
359.865	4.73
360.315	4.74
360.764	4.76
361.213	4.77
361.663	4.78
362.112	4.81
362.561	4.84
363.01	4.87
363.459	4.88
363.908	4.9
364.357	4.92
364.806	4.95
365.255	4.98
365.703	4.99
366.152	5.02
366.601	5.05
367.05	5.08
367.498	5.11
367.947	5.14
368.395	5.19
368.844	5.23
369.292	5.26
369.74	5.31
370.189	5.34
370.637	5.41
371.085	5.46
371.533	5.52
371.981	5.58
372.429	5.64
372.877	5.71
373.325	5.78
373.773	5.85
374.221	5.92
374.669	5.99
375.116	6.06
375.564	6.13
376.012	6.2
376.459	6.28
376.907	6.36
377.354	6.44
377.801	6.51
378.249	6.58
378.696	6.66
379.143	6.75
379.591	6.83
380.038	6.91
380.485	7
380.932	7.08
381.379	7.15
381.826	7.22
382.273	7.29
382.72	7.36
383.166	7.44
383.613	7.51
384.06	7.56
384.506	7.63
384.953	7.68
385.4	7.73
385.846	7.78
386.292	7.84
386.739	7.9
387.185	7.96
387.631	8
388.078	8.04
388.524	8.07
388.97	8.11
389.416	8.13
389.862	8.17
390.308	8.2
390.754	8.23
391.2	8.26
391.645	8.29
392.091	8.31
392.537	8.33
392.983	8.37
393.428	8.39
393.874	8.43
394.319	8.46
394.765	8.46
395.21	8.45
395.655	8.46
396.101	8.47
396.546	8.46
396.991	8.46
397.436	8.43
397.881	8.42
398.326	8.44
398.771	8.43
399.216	8.43
399.661	8.45
400.106	8.46
400.551	8.44
400.995	8.41
401.44	8.4
401.885	8.38
402.329	8.36
402.774	8.35
403.218	8.29
403.663	8.27
404.107	8.26
404.551	8.22
404.995	8.19
405.44	8.17
405.884	8.15
406.328	8.13
406.772	8.11
407.216	8.11
407.66	8.09
408.104	8.09
408.547	8.07
408.991	8.02
409.435	8.01
409.879	8
410.322	7.97
410.766	7.94
411.209	7.92
411.653	7.9
412.096	7.86
412.54	7.84
412.983	7.81
413.426	7.8
413.869	7.8
414.312	7.79
414.756	7.79
415.199	7.8
415.642	7.81
416.085	7.83
416.527	7.85
416.97	7.87
417.413	7.86
417.856	7.85
418.298	7.84
418.741	7.81
419.184	7.8
419.626	7.77
420.069	7.74
420.511	7.72
420.953	7.68
421.396	7.65
421.838	7.64
422.28	7.64
422.722	7.65
423.164	7.64
423.606	7.65
424.048	7.63
424.49	7.65
424.932	7.64
425.374	7.63
425.816	7.61
426.258	7.6
426.699	7.54
427.141	7.5
427.582	7.47
428.024	7.46
428.465	7.45
428.907	7.46
429.348	7.43
429.789	7.42
430.231	7.41
430.672	7.4
431.113	7.39
431.554	7.42
431.995	7.44
432.436	7.43
432.877	7.42
433.318	7.4
433.759	7.38
434.2	7.37
434.64	7.37
435.081	7.37
435.522	7.4
435.962	7.42
436.403	7.42
436.843	7.43
437.284	7.47
437.724	7.5
438.164	7.52
438.604	7.54
439.045	7.55
439.485	7.58
439.925	7.61
440.365	7.59
440.805	7.59
441.245	7.6
441.685	7.61
442.125	7.62
442.564	7.62
443.004	7.64
443.444	7.68
443.883	7.72
444.323	7.73
444.762	7.75
445.202	7.81
445.641	7.84
446.081	7.9
446.52	7.91
446.959	7.95
447.398	8.01
447.837	8.04
448.276	8.05
448.716	8.08
449.154	8.14
449.593	8.2
450.032	8.21
450.471	8.24
450.91	8.25
451.349	8.28
451.787	8.3
452.226	8.29
452.664	8.29
453.103	8.32
453.541	8.34
453.98	8.33
454.418	8.31
454.856	8.32
455.295	8.31
455.733	8.3
456.171	8.31
456.609	8.31
457.047	8.32
457.485	8.34
457.923	8.33
458.361	8.33
458.798	8.34
459.236	8.34
459.674	8.35
460.111	8.38
460.549	8.39
460.987	8.39
461.424	8.39
461.862	8.4
462.299	8.4
462.736	8.42
463.173	8.4
463.611	8.39
464.048	8.4
464.485	8.41
464.922	8.4
465.359	8.4
465.796	8.39
466.233	8.42
466.67	8.41
467.106	8.4
467.543	8.41
467.98	8.44
468.416	8.47
468.853	8.48
469.29	8.48
469.726	8.49
470.162	8.5
470.599	8.5
471.035	8.5
471.471	8.5
471.907	8.51
472.344	8.5
472.78	8.5
473.216	8.49
473.652	8.48
474.088	8.5
474.523	8.51
474.959	8.51
475.395	8.52
475.831	8.52
476.266	8.53
476.702	8.54
477.138	8.54
477.573	8.54
478.008	8.54
478.444	8.53
478.879	8.53
479.314	8.53
479.75	8.54
480.185	8.55
480.62	8.57
481.055	8.58
481.49	8.58
481.925	8.59
482.36	8.59
482.795	8.6
483.229	8.62
483.664	8.63
484.099	8.66
484.534	8.67
484.968	8.7
485.403	8.72
485.837	8.74
486.271	8.78
486.706	8.81
487.14	8.87
487.574	8.9
488.009	8.96
488.443	9.01
488.877	9.06
489.311	9.1
489.745	9.15
490.179	9.19
490.613	9.25
491.046	9.32
491.48	9.4
491.914	9.46
492.348	9.55
492.781	9.62
493.215	9.7
493.648	9.81
494.082	9.92
494.515	10.03
494.948	10.14
495.382	10.26
495.815	10.38
496.248	10.5
496.681	10.62
497.114	10.75
497.547	10.87
497.98	11
498.413	11.15
498.846	11.3
499.279	11.46
499.711	11.63
500.144	11.81
500.577	11.98
501.009	12.15
501.442	12.34
501.874	12.55
502.306	12.77
502.739	12.98
503.171	13.21
503.603	13.43
504.036	13.67
504.468	13.92
504.9	14.18
505.332	14.46
505.764	14.75
506.196	15.04
506.627	15.33
507.059	15.63
507.491	15.93
507.923	16.23
508.354	16.54
508.786	16.86
509.217	17.15
509.649	17.48
510.08	17.81
510.512	18.13
510.943	18.46
511.374	18.8
511.805	19.14
512.237	19.5
512.668	19.85
513.099	20.2
513.53	20.56
513.961	20.94
514.391	21.29
514.822	21.65
515.253	22
515.684	22.36
516.114	22.71
516.545	23.05
516.975	23.41
517.406	23.77
517.836	24.11
518.267	24.44
518.697	24.77
519.127	25.09
519.558	25.41
519.988	25.74
520.418	26.06
520.848	26.37
521.278	26.69
521.708	26.96
522.138	27.22
522.567	27.49
522.997	27.75
523.427	28.02
523.857	28.28
524.286	28.55
524.716	28.78
525.145	29.01
525.575	29.23
526.004	29.43
526.433	29.69
526.863	29.91
527.292	30.13
527.721	30.33
528.15	30.5
528.579	30.68
529.008	30.83
529.437	31
529.866	31.16
530.295	31.32
530.724	31.49
531.152	31.62
531.581	31.73
532.01	31.85
532.438	31.96
532.867	32.07
533.295	32.16
533.723	32.27
534.152	32.36
534.58	32.45
535.008	32.5
535.436	32.57
535.865	32.62
536.293	32.7
536.721	32.76
537.149	32.81
537.576	32.89
538.004	32.94
538.432	32.98
538.86	33.02
539.287	33.07
539.715	33.11
540.143	33.13
540.57	33.16
540.998	33.21
541.425	33.26
541.852	33.28
542.28	33.27
542.707	33.31
543.134	33.33
543.561	33.34
543.988	33.36
544.415	33.41
544.842	33.45
545.269	33.47
545.696	33.46
546.123	33.48
546.549	33.52
546.976	33.55
547.403	33.57
547.829	33.62
548.256	33.64
548.682	33.67
549.108	33.66
549.535	33.69
549.961	33.7
550.387	33.71
550.813	33.71
551.24	33.72
551.666	33.75
552.092	33.74
552.518	33.72
552.943	33.72
553.369	33.72
553.795	33.72
554.221	33.69
554.646	33.68
555.072	33.66
555.498	33.65
555.923	33.61
556.349	33.56
556.774	33.54
557.199	33.51
557.625	33.46
558.05	33.4
558.475	33.35
558.9	33.3
559.325	33.24
559.75	33.16
560.175	33.08
560.6	33.01
561.025	32.95
561.449	32.86
561.874	32.76
562.299	32.66
562.723	32.59
563.148	32.48
563.572	32.39
563.997	32.29
564.421	32.17
564.846	32.06
565.27	31.93
565.694	31.77
566.118	31.64
566.542	31.49
566.966	31.36
567.39	31.21
567.814	31.05
568.238	30.87
568.662	30.73
569.086	30.59
569.509	30.44
569.933	30.27
570.357	30.1
570.78	29.94
571.204	29.76
571.627	29.61
572.05	29.46
572.474	29.31
572.897	29.17
573.32	29
573.743	28.84
574.166	28.69
574.589	28.57
575.012	28.46
575.435	28.36
575.858	28.27
576.281	28.16
576.704	28.04
577.126	27.94
577.549	27.84
577.972	27.76
578.394	27.66
578.817	27.56
579.239	27.49
579.661	27.38
580.084	27.28
580.506	27.2
580.928	27.1
581.35	27.03
581.772	26.95
582.194	26.87
582.616	26.8
583.038	26.74
583.46	26.69
583.882	26.62
584.303	26.57
584.725	26.51
585.147	26.41
585.568	26.33
585.99	26.28
586.411	26.23
586.833	26.16
587.254	26.09
587.675	26.03
588.096	25.98
588.518	25.91
588.939	25.87
589.36	25.81
589.781	25.77
590.202	25.72
590.623	25.67
591.043	25.59
591.464	25.56
591.885	25.53
592.305	25.5
592.726	25.45
593.147	25.42
593.567	25.38
593.987	25.35
594.408	25.3
594.828	25.28
595.248	25.25
595.669	25.24
596.089	25.22
596.509	25.17
596.929	25.12
597.349	25.1
597.769	25.05
598.189	25.01
598.608	24.96
599.028	24.93
599.448	24.89
599.867	24.86
600.287	24.79
600.706	24.72
601.126	24.68
601.545	24.62
601.965	24.55
602.384	24.49
602.803	24.42
603.222	24.35
603.641	24.28
604.061	24.21
604.48	24.13
604.898	24.05
605.317	23.98
605.736	23.89
606.155	23.8
606.574	23.73
606.992	23.63
607.411	23.54
607.829	23.42
608.248	23.34
608.666	23.24
609.085	23.15
609.503	23.06
609.921	22.95
610.339	22.87
610.758	22.79
611.176	22.69
611.594	22.62
612.012	22.54
612.43	22.5
612.847	22.41
613.265	22.32
613.683	22.22
614.101	22.14
614.518	22.07
614.936	21.99
615.353	21.9
615.771	21.82
616.188	21.74
616.606	21.66
617.023	21.59
617.44	21.51
617.857	21.45
618.274	21.39
618.691	21.34
619.108	21.28
619.525	21.23
619.942	21.18
620.359	21.14
620.776	21.11
621.192	21.07
621.609	21.03
622.026	20.99
622.442	20.95
622.859	20.93
623.275	20.91
623.691	20.88
624.108	20.85
624.524	20.84
624.94	20.81
625.356	20.76
625.772	20.76
626.188	20.74
626.604	20.71
627.02	20.7
627.436	20.69
627.852	20.67
628.268	20.65
628.683	20.62
629.099	20.61
629.514	20.58
629.93	20.56
630.345	20.49
630.761	20.45
631.176	20.4
631.591	20.33
632.007	20.27
632.422	20.21
632.837	20.14
633.252	20.06
633.667	19.96
634.082	19.87
634.497	19.76
634.911	19.65
635.326	19.53
635.741	19.43
636.155	19.3
636.57	19.17
636.984	19.01
637.399	18.86
637.813	18.7
638.228	18.54
638.642	18.39
639.056	18.22
639.47	18.06
639.884	17.87
640.298	17.68
640.712	17.5
641.126	17.31
641.54	17.11
641.954	16.92
642.368	16.73
642.781	16.55
643.195	16.36
643.609	16.18
644.022	16.02
644.436	15.86
644.849	15.7
645.262	15.55
645.676	15.39
646.089	15.24
646.502	15.1
646.915	14.98
647.328	14.85
647.741	14.74
648.154	14.65
648.567	14.57
648.98	14.48
649.393	14.41
649.805	14.32
650.218	14.26
650.631	14.2
651.043	14.14
651.456	14.1
651.868	14.04
652.28	14
652.693	13.9
653.105	13.82
653.517	13.75
653.929	13.68
654.341	13.62
654.753	13.54
655.165	13.44
655.577	13.34
655.989	13.23
656.401	13.11
656.813	12.98
657.224	12.86
657.636	12.73
658.047	12.58
658.459	12.43
658.87	12.29
659.282	12.15
659.693	12
660.104	11.83
660.515	11.69
660.926	11.56
661.338	11.41
661.749	11.26
662.159	11.13
662.57	11
662.981	10.85
663.392	10.71
663.803	10.58
664.213	10.45
664.624	10.36
665.035	10.23
665.445	10.12
665.855	10.02
666.266	9.93
666.676	9.83
667.086	9.76
667.497	9.69
667.907	9.62
668.317	9.56
668.727	9.51
669.137	9.47
669.547	9.44
669.956	9.39
670.366	9.37
670.776	9.35
671.186	9.34
671.595	9.33
672.005	9.33
672.414	9.32
672.824	9.32
673.233	9.33
673.642	9.33
674.052	9.34
674.461	9.36
674.87	9.39
675.279	9.42
675.688	9.45
676.097	9.51
676.506	9.55
676.915	9.6
677.323	9.65
677.732	9.74
678.141	9.83
678.549	9.93
678.958	10.05
679.366	10.14
679.775	10.28
680.183	10.41
680.592	10.56
681	10.72
681.408	10.92
681.816	11.12
682.224	11.33
682.632	11.58
683.04	11.84
683.448	12.13
683.856	12.47
684.264	12.81
684.671	13.2
685.079	13.6
685.487	14.04
685.894	14.49
686.302	14.98
686.709	15.49
687.116	16.04
687.524	16.6
687.931	17.15
688.338	17.75
688.745	18.35
689.152	18.99
689.559	19.63
689.966	20.28
690.373	20.95
690.78	21.62
691.187	22.29
691.593	22.95
692	23.61
692.407	24.28
692.813	24.95
693.22	25.61
693.626	26.26
694.032	26.93
694.439	27.57
694.845	28.2
695.251	28.82
695.657	29.42
696.063	30.03
696.469	30.62
696.875	31.2
697.281	31.74
697.687	32.3
698.093	32.84
698.498	33.36
698.904	33.87
699.31	34.35
699.715	34.84
700.12	35.3
700.526	35.76
700.931	36.21
701.337	36.62
701.742	37.03
702.147	37.44
702.552	37.83
702.957	38.21
703.362	38.59
703.767	38.98
704.172	39.35
704.577	39.7
704.981	40.05
705.386	40.41
705.791	40.76
706.195	41.11
706.6	41.39
707.004	41.69
707.408	41.99
707.813	42.26
708.217	42.5
708.621	42.77
709.025	43.04
709.43	43.29
709.834	43.54
710.237	43.77
710.641	44.01
711.045	44.25
711.449	44.47
711.853	44.7
712.256	44.93
712.66	45.17
713.064	45.37
713.467	45.58
713.87	45.79
714.274	46
714.677	46.2
715.08	46.38
715.484	46.58
715.887	46.74
716.29	46.91
716.693	47.04
717.096	47.2
717.499	47.37
717.901	47.49
718.304	47.62
718.707	47.73
719.109	47.87
719.512	48.02
719.915	48.18
720.317	48.32
720.719	48.44
721.122	48.57
721.524	48.71
721.926	48.84
722.328	48.98
722.731	49.09
723.133	49.21
723.535	49.32
723.937	49.43
724.338	49.49
724.74	49.6
725.142	49.61
725.544	49.7
725.945	49.76
726.347	49.85
726.748	49.9
727.15	49.98
727.551	50.04
727.952	50.11
728.354	50.18
728.755	50.24
729.156	50.32
729.557	50.5
729.958	50.59
730.359	50.65
730.76	50.69
731.161	50.76
731.562	50.84
731.962	50.88
732.363	50.91
732.763	50.99
733.164	51.01
733.564	51.03
733.965	51.05
734.365	51.06
734.766	51.12
735.166	51.13
735.566	51.13
735.966	51.14
736.366	51.17
736.766	51.18
737.166	51.17
737.566	51.2
737.966	51.23
738.365	51.21
738.765	51.25
739.165	51.21
739.564	51.23
739.964	51.26
740.363	51.27
740.763	51.29
741.162	51.27
741.561	51.3
741.96	51.32
742.36	51.32
742.759	51.32
743.158	51.32
743.557	51.33
743.955	51.37
744.354	51.41
744.753	51.42
745.152	51.41
745.55	51.46
745.949	51.43
746.348	51.45
746.746	51.45
747.144	51.52
747.543	51.55
747.941	51.6
748.339	51.62
748.737	51.65
749.136	51.68
749.534	51.73
749.932	51.74
750.33	51.79
750.727	51.81
751.125	51.84
751.523	51.83
751.921	51.86
752.318	51.84
752.716	51.81
753.113	51.8
753.511	51.74
753.908	51.71
754.305	51.67
754.703	51.62
755.1	51.57
755.497	51.59
755.894	51.59
756.291	51.53
756.688	51.53
757.085	51.53
757.482	51.5
757.878	51.53
758.275	51.51
758.672	51.54
759.068	51.57
759.465	51.58
759.861	51.53
760.258	51.45
760.654	51.45
761.05	51.43
761.447	51.41
761.843	51.34
762.239	51.32
762.635	51.31
763.031	51.29
763.427	51.24
763.822	51.2
764.218	51.21
764.614	51.22
765.01	51.18
765.405	51.15
765.801	51.12
766.196	51.14
766.592	51.14
766.987	51.12
767.382	51.11
767.778	51.1
768.173	51.09
768.568	51.04
768.963	51.02
769.358	51.01
769.753	51.03
770.148	51.04
770.542	51.05
770.937	51.01
771.332	50.99
771.726	50.96
772.121	50.95
772.515	50.97
772.91	50.98
773.304	51
773.699	51.02
774.093	50.97
774.487	50.96
774.881	50.98
775.275	50.98
775.669	51
776.063	50.97
776.457	50.98
776.851	50.94
777.245	50.93
777.638	50.89
778.032	50.88
778.425	50.9
778.819	50.88
779.212	50.82
779.606	50.84
779.999	50.83
780.392	50.86
780.786	50.86
781.179	50.91
781.572	50.89
781.965	50.93
782.358	50.9
782.751	50.91
783.143	50.94
783.536	51
783.929	51.02
784.322	51.01
784.714	51.01
785.107	51.01
785.499	51.01
785.891	51.04
786.284	51.01
786.676	51.06
787.068	51.06
787.46	51.07
787.852	51.07
788.245	51.07
788.636	51.08
789.028	51.07
789.42	51.06
789.812	51.05
790.204	51.06
790.595	51.1
790.987	51.1
791.378	51.1
791.77	51.11
792.161	51.09
792.553	51.11
792.944	51.13
793.335	51.18
793.726	51.15
794.117	51.16
794.508	51.14
794.899	51.11
795.29	51.11
795.681	51.1
796.072	51.1
796.463	51.09
796.853	51.06
797.244	51.01
797.634	50.98
798.025	51.01
798.415	51.05
798.806	51.08
799.196	51.08
799.586	51.07
799.976	51.08
800.366	51.08
800.756	51.1
801.146	51.08
801.536	51.1
801.926	51.11
802.316	51.13
802.706	51.1
803.095	51.11
803.485	51.19
803.874	51.22
804.264	51.25
804.653	51.23
805.043	51.24
805.432	51.25
805.821	51.29
806.21	51.35
806.599	51.4
806.988	51.41
807.377	51.43
807.766	51.39
808.155	51.39
808.544	51.37
808.933	51.41
809.321	51.44
809.71	51.5
810.098	51.5
810.487	51.49
810.875	51.45
811.264	51.51
811.652	51.52
812.04	51.56
812.428	51.59
812.816	51.6
813.204	51.61
813.592	51.61
813.98	51.58
814.368	51.58
814.756	51.59
815.144	51.62
815.531	51.59
815.919	51.54
816.306	51.51
816.694	51.5
817.081	51.5
817.469	51.52
817.856	51.56
818.243	51.57
818.63	51.61
819.017	51.62
819.404	51.63
819.791	51.62
820.178	51.65
820.565	51.73
820.952	51.74
821.339	51.81
821.725	51.85
822.112	51.82
822.498	51.86
822.885	51.84
823.271	51.87
823.657	51.9
824.044	51.96
824.43	52
824.816	51.96
825.202	51.95
825.588	51.94
825.974	51.9
826.36	51.93
826.746	51.92
827.132	51.93
827.517	51.91
827.903	51.91
828.289	51.91
828.674	51.88
829.06	51.9
829.445	51.92
829.83	51.9
830.216	51.92
830.601	51.9
830.986	51.87
831.371	51.88
831.756	51.86
832.141	51.85
832.526	51.79
832.911	51.8
833.295	51.79
833.68	51.76
834.065	51.78
834.449	51.74
834.834	51.73
835.218	51.73
835.603	51.7
835.987	51.7
836.371	51.67
836.755	51.68
837.139	51.65
837.524	51.66
837.908	51.65
838.291	51.64
838.675	51.66
839.059	51.63
839.443	51.63
839.827	51.61
840.21	51.64
840.594	51.66
840.977	51.66
841.361	51.7
841.744	51.68
842.127	51.68
842.511	51.68
842.894	51.66
843.277	51.69
843.66	51.71
844.043	51.74
844.426	51.68
844.809	51.67
845.191	51.64
845.574	51.62
845.957	51.6
846.339	51.59
846.722	51.56
847.104	51.57
847.487	51.57
847.869	51.52
848.252	51.51
848.634	51.54
849.016	51.55
849.398	51.58
849.78	51.57
850.162	51.61
850.544	51.63
850.926	51.62
851.307	51.64
851.689	51.6
852.071	51.61
852.452	51.6
852.834	51.57
853.215	51.56
853.597	51.56
853.978	51.55
854.359	51.54
854.741	51.54
855.122	51.55
855.503	51.52
855.884	51.52
856.265	51.52
856.646	51.51
857.026	51.52
857.407	51.49
857.788	51.48
858.169	51.49
858.549	51.46
858.93	51.45
859.31	51.44
859.69	51.45
860.071	51.46
860.451	51.48
860.831	51.48
861.211	51.46
861.591	51.48
861.971	51.47
862.351	51.46
862.731	51.48
863.111	51.48
863.491	51.47
863.87	51.45
864.25	51.44
864.629	51.43
865.009	51.46
865.388	51.47
865.768	51.44
866.147	51.47
866.526	51.46
866.905	51.46
867.284	51.46
867.663	51.46
868.042	51.47
868.421	51.5
868.8	51.5
869.179	51.48
869.558	51.47
869.936	51.45
870.315	51.44
870.693	51.46
871.072	51.45
871.45	51.44
871.828	51.43
872.207	51.44
872.585	51.43
872.963	51.41
873.341	51.4
873.719	51.4
874.097	51.43
874.475	51.42
874.853	51.41
875.23	51.4
875.608	51.4
875.986	51.39
876.363	51.36
876.741	51.34
877.118	51.35
877.495	51.35
877.873	51.32
878.25	51.29
878.627	51.3
879.004	51.29
879.381	51.29
879.758	51.26
880.135	51.29
880.512	51.3
880.889	51.31
881.265	51.31
881.642	51.3
882.019	51.35
882.395	51.38
882.772	51.38
883.148	51.4
883.524	51.43
883.901	51.43
884.277	51.4
884.653	51.41
885.029	51.4
885.405	51.4
885.781	51.39
886.157	51.37
886.532	51.38
886.908	51.42
887.284	51.42
887.659	51.42
888.035	51.46
888.411	51.48
888.786	51.47
889.161	51.48
889.537	51.49
889.912	51.5
890.287	51.47
890.662	51.43
891.037	51.36
891.412	51.33
891.787	51.29
892.162	51.26
892.536	51.25
892.911	51.22
893.286	51.16
893.66	51.11
894.035	51.06
894.409	51.07
894.784	51.05
895.158	51.05
895.532	51.03
895.906	51.02
896.281	51.01
896.655	50.98
897.029	50.96
897.402	50.99
897.776	50.99
898.15	51.02
898.524	51
898.898	50.98
899.271	50.99
899.645	50.99
900.018	50.95
900.392	50.92
900.765	50.91
901.138	50.9
901.511	50.89
901.884	50.91
902.258	50.88
902.631	50.88
903.003	50.89
903.376	50.87
903.749	50.87
904.122	50.88
904.495	50.88
904.867	50.86
905.24	50.83
905.612	50.8
905.985	50.73
906.357	50.71
906.729	50.68
907.102	50.66
907.474	50.65
907.846	50.65
908.218	50.62
908.59	50.58
908.962	50.59
909.334	50.62
909.705	50.63
910.077	50.64
910.449	50.66
910.82	50.63
911.192	50.64
911.563	50.62
911.935	50.6
912.306	50.61
912.677	50.64
913.048	50.63
913.419	50.58
913.79	50.55
914.161	50.53
914.532	50.5
914.903	50.51
915.274	50.5
915.645	50.53
916.015	50.54
916.386	50.52
916.756	50.5
917.127	50.51
917.497	50.5
917.868	50.51
918.238	50.55
918.608	50.55
918.978	50.53
919.348	50.51
919.718	50.49
920.088	50.47
920.458	50.51
920.828	50.49
921.198	50.48
921.567	50.49
921.937	50.51
922.306	50.49
922.676	50.49
923.045	50.49
923.415	50.49
923.784	50.52
924.153	50.48
924.522	50.46
924.891	50.44
925.26	50.45
925.629	50.45
925.998	50.42
926.367	50.4
926.736	50.35
927.104	50.35
927.473	50.34
927.842	50.27
928.21	50.3
928.578	50.27
928.947	50.28
929.315	50.23
929.683	50.22
930.051	50.22
930.42	50.2
930.788	50.23
931.156	50.21
931.523	50.19
931.891	50.11
932.259	50.04
932.627	49.97
932.994	49.88
933.362	49.84
933.729	49.75
934.097	49.65
934.464	49.56
934.831	49.45
935.199	49.38
935.566	49.26
935.933	49.23
936.3	49.12
936.667	49.06
937.034	49.01
937.401	48.86
937.767	48.82
938.134	48.76
938.501	48.73
938.867	48.7
939.234	48.68
939.6	48.72
939.967	48.76
940.333	48.81
940.699	48.9
941.065	48.98
941.431	49.1
941.798	49.17
942.163	49.37
942.529	49.41
942.895	49.5
943.261	49.58
943.627	49.67
943.992	49.74
944.358	49.78
944.723	49.72
945.089	49.79
945.454	49.86
945.82	49.84
946.185	49.88
946.55	49.97
946.915	49.96
947.28	49.95
947.645	49.94
948.01	49.89
948.375	49.97
948.74	49.98
949.104	49.95
949.469	49.87
949.834	49.91
950.198	49.82
950.562	49.76
950.927	49.76
951.291	49.75
951.655	49.69
952.02	49.68
952.384	49.66
952.748	49.65
953.112	49.53
953.476	49.54
953.839	49.43
954.203	49.4
954.567	49.37
954.931	49.37
955.294	49.3
955.658	49.29
956.021	49.28
956.385	49.22
956.748	49.23
957.111	49.25
957.474	49.24
957.837	49.31
958.2	49.24
958.563	49.23
958.926	49.12
959.289	49.18
959.652	49.23
960.015	49.2
960.377	49.15
960.74	49.08
961.102	49.01
961.465	48.99
961.827	48.86
962.189	48.81
962.552	48.7
962.914	48.72
963.276	48.61
963.638	48.52
964	48.5
964.362	48.51
964.724	48.5
965.085	48.53
965.447	48.48
965.809	48.49
966.17	48.56
966.532	48.66
966.893	48.69
967.255	48.73
967.616	48.68
967.977	48.67
968.338	48.6
968.699	48.55
969.061	48.57
969.421	48.56
969.782	48.61
970.143	48.52
970.504	48.41
970.865	48.3
971.225	48.27
971.586	48.36
971.946	48.32
972.307	48.33
972.667	48.34
973.027	48.32
973.388	48.32
973.748	48.34
974.108	48.33
974.468	48.4
974.828	48.45
975.188	48.36
975.548	48.31
975.907	48.38
976.267	48.38
976.627	48.37
976.986	48.3
977.346	48.27
977.705	48.23
978.064	48.32
978.424	48.19
978.783	48.18
979.142	48.2
979.501	48.14
979.86	48.03
980.219	47.96
980.578	47.96
980.937	48.02
981.296	48
981.654	48
982.013	47.88
982.371	47.91
982.73	47.86
983.088	47.8
983.447	47.78
983.805	47.84
984.163	47.89
984.521	47.76
984.879	47.76
985.237	47.8
985.595	47.78
985.953	47.75
986.311	47.82
986.669	47.85
987.026	48
987.384	47.99
987.741	48.06
988.099	48
988.456	48.11
988.814	48.09
989.171	48.01
989.528	47.9
989.885	47.9
990.242	47.86
990.599	47.87
990.956	47.72
991.313	47.71
991.67	47.6
992.027	47.62
992.383	47.64
992.74	47.47
993.096	47.35
993.453	47.42
993.809	47.45
994.165	47.4
994.522	47.27
994.878	47.31
995.234	47.23
995.59	47.09
995.946	47.09
996.302	47.02
996.658	47.11
997.013	47.26
997.369	47.16
997.725	47.16
998.08	47.16
998.436	47.22
998.791	47.14
999.147	47.18
999.502	47.15
999.857	47.07
1000.212	47.01
1000.567	46.97
1000.922	47.01
1001.277	46.98
1001.632	47.03
1001.987	46.97
1002.342	47.09
1002.696	47.12
1003.051	46.96
1003.406	46.87
1003.76	46.85
1004.114	46.78
1004.469	46.73
1004.823	46.7
1005.177	46.97
1005.531	46.93
1005.885	46.94
1006.239	46.79
1006.593	46.78
1006.947	46.97
1007.301	47.13
1007.655	47.22
1008.008	47.29
1008.362	47.2
1008.715	47.08
1009.069	46.76
1009.422	46.57
1009.776	46.44
1010.129	46.23
1010.482	46.42
1010.835	46.43
1011.188	46.23
1011.541	46.02
1011.894	46.02
1012.247	45.96
1012.6	45.9
1012.952	45.76
1013.305	45.74
1013.657	45.69
1014.01	45.77
1014.362	45.71
1014.715	45.43
1015.067	45.83
1015.419	45.82
1015.771	45.89
1016.123	45.96
1016.475	46.11
1016.827	46.46
1017.179	46.56
1017.531	46.83
1017.883	47.06
1018.234	46.82
1018.586	46.7
1018.938	46.19
1019.289	46.2
1019.64	46.31
1019.992	46.54
1020.343	46.41
1020.694	45.94
1021.045	45.57
1021.396	45.32
1021.747	44.91
1022.098	44.81
1022.449	44.84
1022.8	44.93
1023.151	44.99
1023.501	44.81
1023.852	44.39
1024.202	44.25
1024.553	44.14
1024.903	44.33
1025.253	44.06
1025.604	44.18
1025.954	44.12
1026.304	44.61
1026.654	44.82
1027.004	44.66
1027.354	44.4
1027.703	44.53
1028.053	44.5
1028.403	44.48
1028.753	44.71
1029.102	44.79
1029.452	44.67
1029.801	44.64
1030.15	44.23
1030.499	43.96
897.758	450.75
901.051	453.02
904.343	458.66
907.636	453.22
910.928	448.07
914.22	452.04
917.511	442.77
920.803	422.24
924.094	407.74
927.384	415.19
930.675	399.52
933.965	394.47
937.255	397.25
940.544	379.93
943.834	360.84
947.123	355.18
950.411	339.21
953.7	333.91
956.988	325.36
960.276	311.47
963.563	308.05
966.851	291.32
970.138	285.63
973.424	266.21
976.711	261.34
979.997	255.48
983.283	249.93
986.568	242.38
989.853	232.13
993.138	224.75
996.423	222.3
999.708	215.52
1002.992	216.34
1006.275	209.27
1009.559	208.42
1012.842	204.05
1016.125	196.48
1019.408	192.33
1022.69	192.25
1025.972	191.75
1029.254	188.4
1032.536	184.2
1035.817	178.34
1039.098	175.59
1042.379	174.48
1045.659	172.31
1048.939	171.46
1052.219	168.36
1055.498	165.82
1058.778	162.5
1062.057	160.74
1065.335	159.61
1068.614	156.52
1071.892	155.59
1075.17	153.17
1078.447	150.57
1081.724	149.19
1085.001	145.56
1088.278	145.77
1091.554	144.05
1094.83	142.99
1098.106	140.95
1101.382	139.42
1104.657	139.68
1107.932	139.11
1111.206	138.72
1114.481	136.5
1117.755	135.67
1121.029	134.84
1124.302	133.36
1127.575	132.33
1130.848	131.46
1134.121	130.16
1137.393	129.67
1140.665	128.62
1143.937	127.4
1147.208	125.79
1150.48	125.5
1153.75	123.58
1157.021	123.2
1160.291	123.04
1163.561	122.69
1166.831	122.54
1170.101	121.85
1173.37	120.71
1176.639	119.59
1179.907	119.52
1183.176	119.19
1186.444	118.69
1189.711	118.88
1192.979	119.33
1196.246	119.46
1199.513	118.76
1202.78	117.76
1206.046	118.23
1209.312	118.91
1212.578	120.02
1215.843	120.49
1219.108	122.41
1222.373	124.37
1225.638	126.1
1228.902	128.92
1232.166	131.62
1235.43	133.35
1238.693	136.92
1241.956	140.11
1245.219	143.4
1248.482	143.65
1251.744	144.34
1255.006	144.03
1258.268	140.94
1261.529	139.8
1264.79	135.88
1268.051	134.61
1271.312	134.05
1274.572	131.66
1277.832	128.24
1281.092	126.26
1284.351	124.06
1287.61	123.77
1290.869	122.51
1294.128	122.25
1297.386	121.23
1300.644	121.29
1303.902	119.54
1307.159	118.34
1310.416	119.34
1313.673	120.47
1316.93	122.08
1320.186	124.11
1323.442	124.92
1326.697	127.84
1329.953	128.4
1333.208	132.15
1336.463	137.06
1339.717	140.05
1342.972	146.11
1346.226	148.62
1349.479	149.96
1352.733	155.41
1355.986	158.23
1359.238	162.19
1362.491	161.89
1365.743	168.17
1368.995	169.84
1372.247	167.93
1375.498	166.23
1378.749	170.87
1382	171.75
1385.251	170.06
1388.501	169.75
1391.751	170.6
1395	168.95
1398.25	170.12
1401.499	168.59
1404.748	167.38
1407.996	163.31
1411.244	164.23
1414.492	162.03
1417.74	156.02
1420.987	152.65
1424.234	148.96
1427.481	143.09
1430.728	138.99
1433.974	134.05
1437.22	129.9
1440.465	124.8
1443.711	121.85
1446.956	118.66
1450.201	113
1453.445	108.94
1456.689	106.43
1459.933	103.56
1463.177	98.51
1466.42	97.21
1469.663	94.15
1472.906	91.27
1476.148	89.22
1479.391	87.24
1482.633	85.16
1485.874	84.49
1489.115	83.61
1492.356	82.11
1495.597	80.61
1498.838	81.16
1502.078	80.19
1505.318	79.85
1508.557	79.27
1511.797	78.89
1515.036	79.21
1518.274	79.01
1521.513	78.14
1524.751	77.52
1527.989	78.38
1531.227	78.34
1534.464	78.36
1537.701	77.95
1540.938	77.72
1544.174	78.39
1547.41	78.96
1550.646	78.62
1553.882	78.87
1557.117	78.41
1560.352	79
1563.587	78.03
1566.821	78.01
1570.055	77.79
1573.289	78.02
1576.523	77.9
1579.756	77.47
1582.989	77.55
1586.222	76.97
1589.454	77.54
1592.686	78.39
1595.918	77.44
1599.15	77.63
1602.381	77.82
1605.612	78
1608.843	77.6
1612.073	78.19
1615.303	78.19
1618.533	77.81
1621.762	78.12
1624.992	77.79
1628.221	77.13
1631.449	78.2
1634.678	78.48
1637.906	78.49
1641.134	78.43
1644.361	78.72
1647.588	78.92
1650.815	79.35
1654.042	78.94
1657.269	79.39
1660.495	79.75
1663.72	80.09
1666.946	79.87
1670.171	80.28
1673.396	80.55
1676.621	80.69
1679.845	80.63
1683.069	80.48
1686.293	80.15
1689.517	80.53
1692.74	80.58
1695.963	80.59
1699.185	80.76
1702.408	80.71
1705.63	80.64
1708.852	80.7
1712.073	80.94
1715.294	81.07
1718.515	81.33
1721.736	81.33
1724.956	82.17
1728.176	81.7
1731.396	81.49
1734.616	81.69
1737.835	81.94
1741.054	81.78
1744.272	81.96
1747.491	81.74
1750.709	82.23
1753.927	82.11
1757.144	82.55
1760.361	81.85
1763.578	82.62
1766.795	82.86
1770.011	83.02
1773.227	83.24
1776.443	83.73
1779.658	83.11
1782.874	84.29
1786.089	84
1789.303	84.3
1792.518	84.56
1795.732	85.68
1798.945	86.18
1802.159	86.39
1805.372	87.04
1808.585	87.75
1811.797	88.45
1815.01	89.58
1818.222	89.52
1821.434	90.41
1824.645	90.45
1827.856	92.27
1831.067	92.15
1834.278	93
1837.488	93.51
1840.698	94.46
1843.908	94.31
1847.117	94.84
1850.326	95.42
1853.535	96.68
1856.744	97.06
1859.952	98.35
1863.16	97.58
1866.368	96.47
1869.575	96.78
1872.782	96.43
1875.989	94.57
1879.196	94.61
1882.402	93.73
1885.608	93.99
1888.814	92.57
1892.019	92.75
1895.224	91.29
1898.429	91.89
1901.634	92.74
1904.838	92.93
1908.042	93.82
1911.246	93.89
1914.449	94.32
1917.652	93.37
1920.855	93.77
1924.058	92.82
1927.26	92.7
1930.462	94.03
1933.664	93.18
1936.865	94.49
1940.066	92.57
1943.267	91.17
1946.467	92.21
1949.668	92.21
1952.868	93.7
1956.067	93.51
1959.267	93.4
1962.466	93.86
1965.665	93.79
1968.863	95.38
1972.061	94.46
1975.259	97.59
1978.457	98.91
1981.654	99.71
1984.852	100.4
1988.048	101
1991.245	102.25
1994.441	105.61
1997.637	106.73
2000.833	109.85
2004.028	110.12
2007.223	113.95
2010.418	115.51
2013.613	121.11
2016.807	123.87
2020.001	126.21
2023.194	130.03
2026.388	134.37
2029.581	140.3
2032.774	146.16
2035.966	149.53
2039.158	153.55
2042.35	155.7
2045.542	157.98
2048.733	163.51
2051.924	164.17
2055.115	167.75
2058.306	169.03
2061.496	170.92
2064.686	172.05
2067.875	170.33
2071.065	173
2074.254	172.65
2077.442	180.02
2080.631	180.62
2083.819	180.73
2087.007	188.21
2090.195	189.39
2093.382	188.88
2096.569	190.66
2099.756	194.31
2102.942	198.5
2106.128	201.56
2109.314	207.4
2112.5	205.23
2115.685	203.55
2118.87	204.47
2122.055	204.4
2125.239	209.54
2128.424	216.02
2131.608	212.4
2134.791	211.14
2137.974	213.09
2141.157	215.28
2144.34	213.27
2147.523	218.47
2150.705	226.29
2153.887	222.96
2157.068	224.25
2160.25	225.97
2163.431	225.06
2166.611	231.63
2169.792	236.38
2172.972	239.06
2176.152	237.06
2179.331	244.12
2182.511	242.86
2185.69	246.56
2188.868	255.53
2192.047	261.67
2195.225	266.57
2198.403	268.62
2201.58	263.15
2204.758	269.68
2207.935	272.02
2211.111	281
2214.288	281.18
2217.464	284.6
2220.64	285.25
2223.815	286.71
2226.991	282.7
2230.166	284.18
2233.34	293.53
2236.515	301.45
2239.689	299.4
2242.863	303.56
2246.036	298.63
2249.209	307.03
2252.382	304.27
2255.555	315.1
2258.727	317.5
2261.9	328.69
2265.071	332.97
2268.243	330.63
2271.414	342.92
2274.585	349.44
2277.756	349.29
2280.926	363.68
2284.096	359.75
2287.266	364.02
2290.436	359.16
2293.605	367.3
2296.774	378.46
2299.942	379.29
2303.111	393.33
2306.279	404.14
2309.447	402.88
2312.614	406.03
2315.781	413.36
2318.948	423.69
2322.115	432.84
2325.281	450.01
2328.447	446.21
2331.613	448.57
2334.779	455.36
2337.944	459.24
2341.109	463.15
2344.274	472.18
2347.438	486.07
2350.602	490.52
2353.766	525.88
2356.929	524.57
2360.092	538.95
2363.255	544.13
2366.418	549.6
2369.58	558.94
2372.742	557.55
2375.904	556.76
2379.066	572.54
2382.227	591.28
2385.388	593.72
2388.548	564.18
2391.709	561.07
2394.869	569.93
2398.029	570.72
2401.188	576.18
2404.347	593.11
2407.506	613.65
2410.665	587.87
2413.823	595.56
2416.981	604.93
2420.139	575.08
2423.296	610.22
2426.453	653.41
2429.61	621.02
2432.767	663.27
2435.923	682.45
2439.079	658.43
2442.235	670.53
2445.391	688.05
2448.546	675.06
2451.701	712.65
2454.855	759.57
2458.009	681.64
2461.163	687.19
2464.317	703.41
2467.471	686.05
2470.624	706.59
2473.777	699.33
2476.929	679.42
2480.082	727
2483.234	760.59
2486.385	773.89
2489.537	795.55
2492.688	873.11
2495.839	867.31
2498.989	890.8
2502.14	902.22
2505.29	864.75
2508.439	950.68
2511.589	977.33
2514.738	947.45
2517.887	936.08
2521.035	871.73
2524.183	866.95
2527.331	852.26
2530.479	828.49
2533.627	845.52
