Data from C_2_hir_wi_4n_078_Splice17_04.txt Node
Date: Sat Feb 29 14:19:54 EST 2020
User: sa697716
Spectrometer: FLMS03696
Trigger mode: 0
Integration Time (sec): 3.180400E-1
Scans to average: 20
Electric dark correction enabled: true
Nonlinearity correction enabled: true
Boxcar width: 5
XAxis mode: Wavelengths
Number of Pixels in Spectrum: 2048
>>>>>Begin Spectral Data<<<<<
187.83	66.2
188.298	64.38
188.766	63.27
189.233	64.57
189.701	64.45
190.169	62.16
190.636	62.41
191.104	37.27
191.571	93.65
192.039	216.71
192.506	-233.29
192.974	856.73
193.441	20.83
193.908	67.37
194.375	65.18
194.842	59.66
195.31	14.68
195.777	-36.93
196.244	13.33
196.711	36.65
197.177	40.85
197.644	41.18
198.111	40.55
198.578	41.03
199.045	40.83
199.511	40.87
199.978	41.66
200.445	42.04
200.911	42.96
201.378	43.13
201.844	43.65
202.31	43.66
202.777	44.2
203.243	44.54
203.709	44.6
204.176	44.58
204.642	44.84
205.108	44.47
205.574	44.56
206.04	44.17
206.506	43.75
206.972	43.28
207.438	42.91
207.903	42.24
208.369	41.42
208.835	40.82
209.301	40.36
209.766	39.75
210.232	39.27
210.697	38.48
211.163	37.97
211.628	37.29
212.094	36.93
212.559	36.08
213.024	35.67
213.49	34.88
213.955	34.2
214.42	33.47
214.885	32.63
215.35	31.48
215.815	30.02
216.28	28.45
216.745	26.97
217.21	25.08
217.675	23.37
218.14	21.64
218.604	20.3
219.069	19.23
219.534	18.19
219.998	17.31
220.463	16.56
220.927	15.93
221.392	15.38
221.856	14.79
222.32	14.37
222.785	14.01
223.249	13.66
223.713	13.4
224.177	13.06
224.642	12.79
225.106	12.54
225.57	12.27
226.034	12.07
226.497	11.83
226.961	11.62
227.425	11.43
227.889	11.26
228.353	11.09
228.816	10.93
229.28	10.75
229.744	10.63
230.207	10.49
230.671	10.38
231.134	10.24
231.597	10.08
232.061	9.98
232.524	9.88
232.987	9.76
233.45	9.64
233.914	9.51
234.377	9.42
234.84	9.32
235.303	9.19
235.766	9.08
236.229	8.99
236.691	8.92
237.154	8.84
237.617	8.74
238.08	8.64
238.542	8.56
239.005	8.48
239.468	8.38
239.93	8.3
240.393	8.24
240.855	8.16
241.317	8.09
241.78	8.03
242.242	7.95
242.704	7.88
243.166	7.82
243.629	7.75
244.091	7.7
244.553	7.65
245.015	7.6
245.477	7.53
245.939	7.49
246.4	7.42
246.862	7.37
247.324	7.33
247.786	7.29
248.247	7.24
248.709	7.19
249.17	7.15
249.632	7.08
250.093	7
250.555	6.95
251.016	6.91
251.477	6.87
251.939	6.82
252.4	6.76
252.861	6.71
253.322	6.66
253.783	6.64
254.244	6.6
254.705	6.57
255.166	6.56
255.627	6.52
256.088	6.48
256.549	6.45
257.009	6.41
257.47	6.39
257.931	6.35
258.391	6.31
258.852	6.27
259.312	6.24
259.773	6.2
260.233	6.15
260.694	6.12
261.154	6.09
261.614	6.05
262.074	6.03
262.534	5.98
262.994	5.95
263.455	5.92
263.915	5.89
264.374	5.85
264.834	5.83
265.294	5.8
265.754	5.77
266.214	5.74
266.673	5.72
267.133	5.68
267.593	5.66
268.052	5.63
268.512	5.61
268.971	5.58
269.431	5.56
269.89	5.54
270.349	5.53
270.809	5.51
271.268	5.49
271.727	5.47
272.186	5.46
272.645	5.43
273.104	5.43
273.563	5.41
274.022	5.4
274.481	5.38
274.94	5.36
275.399	5.34
275.857	5.33
276.316	5.32
276.775	5.3
277.233	5.27
277.692	5.26
278.15	5.23
278.609	5.21
279.067	5.19
279.525	5.17
279.984	5.16
280.442	5.14
280.9	5.13
281.358	5.11
281.816	5.1
282.274	5.09
282.732	5.08
283.19	5.08
283.648	5.07
284.106	5.06
284.564	5.06
285.021	5.04
285.479	5.04
285.937	5.02
286.394	5.01
286.852	5.01
287.309	5
287.767	4.99
288.224	4.97
288.682	4.96
289.139	4.96
289.596	4.95
290.053	4.93
290.511	4.91
290.968	4.89
291.425	4.88
291.882	4.86
292.339	4.84
292.796	4.82
293.252	4.8
293.709	4.78
294.166	4.77
294.623	4.75
295.079	4.73
295.536	4.72
295.992	4.69
296.449	4.68
296.905	4.67
297.362	4.66
297.818	4.66
298.274	4.64
298.731	4.62
299.187	4.62
299.643	4.6
300.099	4.6
300.555	4.59
301.011	4.59
301.467	4.58
301.923	4.56
302.379	4.56
302.835	4.55
303.291	4.54
303.746	4.53
304.202	4.51
304.658	4.5
305.113	4.49
305.569	4.49
306.024	4.48
306.479	4.48
306.935	4.48
307.39	4.47
307.845	4.47
308.301	4.47
308.756	4.48
309.211	4.48
309.666	4.48
310.121	4.48
310.576	4.49
311.031	4.49
311.486	4.48
311.94	4.47
312.395	4.48
312.85	4.47
313.305	4.47
313.759	4.47
314.214	4.47
314.668	4.46
315.123	4.46
315.577	4.45
316.032	4.44
316.486	4.43
316.94	4.43
317.394	4.41
317.849	4.4
318.303	4.39
318.757	4.38
319.211	4.36
319.665	4.35
320.119	4.34
320.572	4.35
321.026	4.33
321.48	4.33
321.934	4.32
322.387	4.32
322.841	4.31
323.295	4.29
323.748	4.28
324.202	4.28
324.655	4.27
325.108	4.26
325.562	4.24
326.015	4.23
326.468	4.22
326.921	4.22
327.374	4.21
327.827	4.21
328.28	4.2
328.733	4.19
329.186	4.19
329.639	4.18
330.092	4.17
330.545	4.17
330.997	4.17
331.45	4.16
331.903	4.15
332.355	4.15
332.808	4.15
333.26	4.15
333.713	4.16
334.165	4.15
334.617	4.15
335.069	4.16
335.522	4.16
335.974	4.16
336.426	4.17
336.878	4.17
337.33	4.17
337.782	4.17
338.234	4.17
338.686	4.16
339.137	4.17
339.589	4.16
340.041	4.15
340.493	4.14
340.944	4.14
341.396	4.12
341.847	4.11
342.299	4.09
342.75	4.07
343.201	4.06
343.653	4.05
344.104	4.03
344.555	4.02
345.006	4.01
345.457	3.99
345.908	3.98
346.359	3.97
346.81	3.96
347.261	3.96
347.712	3.96
348.163	3.96
348.613	3.95
349.064	3.94
349.515	3.93
349.965	3.93
350.416	3.93
350.866	3.93
351.317	3.92
351.767	3.92
352.217	3.93
352.668	3.93
353.118	3.94
353.568	3.94
354.018	3.96
354.468	3.95
354.918	3.97
355.368	3.97
355.818	3.97
356.268	3.97
356.718	3.98
357.168	3.96
357.617	3.96
358.067	3.96
358.517	3.96
358.966	3.96
359.416	3.97
359.865	3.96
360.315	3.96
360.764	3.97
361.213	3.96
361.663	3.97
362.112	3.98
362.561	3.98
363.01	3.98
363.459	3.98
363.908	3.97
364.357	3.97
364.806	3.99
365.255	4
365.703	4.01
366.152	4.03
366.601	4.03
367.05	4.03
367.498	4.04
367.947	4.06
368.395	4.07
368.844	4.09
369.292	4.1
369.74	4.12
370.189	4.13
370.637	4.14
371.085	4.15
371.533	4.15
371.981	4.17
372.429	4.17
372.877	4.18
373.325	4.19
373.773	4.2
374.221	4.22
374.669	4.22
375.116	4.23
375.564	4.25
376.012	4.26
376.459	4.28
376.907	4.3
377.354	4.33
377.801	4.35
378.249	4.38
378.696	4.41
379.143	4.43
379.591	4.47
380.038	4.5
380.485	4.54
380.932	4.57
381.379	4.6
381.826	4.65
382.273	4.68
382.72	4.72
383.166	4.76
383.613	4.81
384.06	4.87
384.506	4.92
384.953	4.98
385.4	5.05
385.846	5.14
386.292	5.23
386.739	5.32
387.185	5.44
387.631	5.54
388.078	5.63
388.524	5.69
388.97	5.77
389.416	5.86
389.862	5.97
390.308	6.1
390.754	6.27
391.2	6.42
391.645	6.54
392.091	6.65
392.537	6.78
392.983	6.99
393.428	7.26
393.874	7.57
394.319	7.91
394.765	8.26
395.21	8.59
395.655	8.94
396.101	9.33
396.546	9.76
396.991	10.23
397.436	10.72
397.881	11.22
398.326	11.7
398.771	12.15
399.216	12.58
399.661	12.98
400.106	13.36
400.551	13.67
400.995	13.92
401.44	14.15
401.885	14.39
402.329	14.61
402.774	14.85
403.218	15.12
403.663	15.42
404.107	15.75
404.551	16.09
404.995	16.39
405.44	16.68
405.884	17.01
406.328	17.39
406.772	17.85
407.216	18.33
407.66	18.74
408.104	19.1
408.547	19.43
408.991	19.7
409.435	20
409.879	20.39
410.322	20.81
410.766	21.26
411.209	21.7
411.653	22.05
412.096	22.37
412.54	22.69
412.983	23.03
413.426	23.38
413.869	23.79
414.312	24.19
414.756	24.55
415.199	24.88
415.642	25.17
416.085	25.41
416.527	25.65
416.97	25.8
417.413	25.87
417.856	25.84
418.298	25.82
418.741	25.83
419.184	25.87
419.626	25.94
420.069	26.07
420.511	26.18
420.953	26.31
421.396	26.46
421.838	26.71
422.28	27.05
422.722	27.44
423.164	27.79
423.606	28.11
424.048	28.3
424.49	28.4
424.932	28.29
425.374	27.96
425.816	27.44
426.258	26.92
426.699	26.55
427.141	26.48
427.582	26.66
428.024	27.02
428.465	27.42
428.907	27.83
429.348	28.16
429.789	28.66
430.231	29.44
430.672	30.58
431.113	31.84
431.554	33.06
431.995	33.98
432.436	34.63
432.877	35.11
433.318	35.45
433.759	35.86
434.2	36.43
434.64	37.09
435.081	37.78
435.522	38.35
435.962	38.83
436.403	39.21
436.843	39.59
437.284	40.04
437.724	40.48
438.164	41.04
438.604	41.64
439.045	42.27
439.485	42.83
439.925	43.29
440.365	43.7
440.805	43.96
441.245	44.15
441.685	44.41
442.125	44.69
442.564	45.07
443.004	45.49
443.444	45.93
443.883	46.36
444.323	46.85
444.762	47.32
445.202	47.89
445.641	48.52
446.081	49.35
446.52	50.1
446.959	50.79
447.398	51.32
447.837	51.67
448.276	51.83
448.716	52.01
449.154	52.13
449.593	52.27
450.032	52.33
450.471	52.29
450.91	52.11
451.349	51.96
451.787	51.86
452.226	51.77
452.664	51.75
453.103	51.78
453.541	51.71
453.98	51.57
454.418	51.35
454.856	51.07
455.295	50.87
455.733	50.65
456.171	50.45
456.609	50.31
457.047	50.14
457.485	50.06
457.923	50.04
458.361	50.12
458.798	50.23
459.236	50.4
459.674	50.54
460.111	50.67
460.549	50.82
460.987	50.99
461.424	51.1
461.862	51.29
462.299	51.42
462.736	51.58
463.173	51.8
463.611	52.09
464.048	52.45
464.485	52.87
464.922	53.36
465.359	53.84
465.796	54.22
466.233	54.66
466.67	55.17
467.106	55.77
467.543	56.41
467.98	57.02
468.416	57.53
468.853	57.96
469.29	58.41
469.726	58.84
470.162	59.26
470.599	59.73
471.035	60.13
471.471	60.33
471.907	60.44
472.344	60.5
472.78	60.52
473.216	60.59
473.652	60.64
474.088	60.61
474.523	60.49
474.959	60.38
475.395	60.22
475.831	60.07
476.266	59.94
476.702	59.79
477.138	59.55
477.573	59.27
478.008	58.85
478.444	58.41
478.879	57.95
479.314	57.47
479.75	56.94
480.185	56.38
480.62	55.69
481.055	54.89
481.49	53.88
481.925	52.84
482.36	51.89
482.795	51.09
483.229	50.45
483.664	49.89
484.099	49.36
484.534	48.88
484.968	48.5
485.403	48.24
485.837	48.17
486.271	48.25
486.706	48.33
487.14	48.36
487.574	48.28
488.009	48.16
488.443	48.03
488.877	47.93
489.311	47.85
489.745	47.79
490.179	47.75
490.613	47.7
491.046	47.7
491.48	47.77
491.914	47.87
492.348	48.05
492.781	48.19
493.215	48.35
493.648	48.49
494.082	48.6
494.515	48.71
494.948	48.82
495.382	48.92
495.815	49
496.248	49.07
496.681	49.12
497.114	49.2
497.547	49.29
497.98	49.41
498.413	49.62
498.846	49.84
499.279	50.07
499.711	50.26
500.144	50.5
500.577	50.82
501.009	51.26
501.442	51.76
501.874	52.22
502.306	52.73
502.739	53.15
503.171	53.6
503.603	54.02
504.036	54.47
504.468	55
504.9	55.55
505.332	56.04
505.764	56.52
506.196	56.98
506.627	57.49
507.059	58.02
507.491	58.6
507.923	59.12
508.354	59.7
508.786	60.27
509.217	60.76
509.649	61.28
510.08	61.81
510.512	62.34
510.943	62.9
511.374	63.45
511.805	63.91
512.237	64.3
512.668	64.65
513.099	65.05
513.53	65.45
513.961	65.94
514.391	66.42
514.822	66.97
515.253	67.57
515.684	68.15
516.114	68.79
516.545	69.47
516.975	70.29
517.406	71.15
517.836	71.96
518.267	72.72
518.697	73.44
519.127	74.13
519.558	74.78
519.988	75.36
520.418	75.94
520.848	76.43
521.278	76.92
521.708	77.18
522.138	77.49
522.567	77.79
522.997	78.12
523.427	78.52
523.857	78.88
524.286	79.28
524.716	79.67
525.145	80.04
525.575	80.44
526.004	80.85
526.433	81.44
526.863	82.03
527.292	82.56
527.721	83
528.15	83.33
528.579	83.61
529.008	83.85
529.437	84.07
529.866	84.28
530.295	84.48
530.724	84.7
531.152	84.88
531.581	85.04
532.01	85.18
532.438	85.31
532.867	85.52
533.295	85.76
533.723	85.96
534.152	86.11
534.58	86.23
535.008	86.29
535.436	86.32
535.865	86.31
536.293	86.29
536.721	86.36
537.149	86.46
537.576	86.58
538.004	86.68
538.432	86.78
538.86	86.92
539.287	87.1
539.715	87.31
540.143	87.53
540.57	87.82
540.998	88.15
541.425	88.41
541.852	88.72
542.28	88.95
542.707	89.25
543.134	89.51
543.561	89.72
543.988	89.94
544.415	90.2
544.842	90.47
545.269	90.71
545.696	90.94
546.123	91.22
546.549	91.42
546.976	91.65
547.403	91.81
547.829	92.03
548.256	92.24
548.682	92.42
549.108	92.61
549.535	92.8
549.961	92.93
550.387	93.06
550.813	93.17
551.24	93.31
551.666	93.4
552.092	93.47
552.518	93.48
552.943	93.53
553.369	93.59
553.795	93.58
554.221	93.47
554.646	93.34
555.072	93.15
555.498	92.95
555.923	92.77
556.349	92.59
556.774	92.42
557.199	92.25
557.625	92.08
558.05	91.82
558.475	91.57
558.9	91.35
559.325	91.14
559.75	90.92
560.175	90.67
560.6	90.34
561.025	89.95
561.449	89.52
561.874	89.09
562.299	88.64
562.723	88.21
563.148	87.72
563.572	87.22
563.997	86.7
564.421	86.09
564.846	85.52
565.27	84.96
565.694	84.39
566.118	83.77
566.542	83.16
566.966	82.56
567.39	81.92
567.814	81.38
568.238	80.83
568.662	80.36
569.086	79.96
569.509	79.61
569.933	79.24
570.357	78.92
570.78	78.66
571.204	78.4
571.627	78.18
572.05	78.06
572.474	77.88
572.897	77.78
573.32	77.64
573.743	77.52
574.166	77.32
574.589	77.18
575.012	77.11
575.435	77.08
575.858	77.07
576.281	77.08
576.704	77.02
577.126	77
577.549	76.99
577.972	77.04
578.394	77.06
578.817	77.11
579.239	77.22
579.661	77.25
580.084	77.26
580.506	77.28
580.928	77.21
581.35	77.19
581.772	77.14
582.194	77.05
582.616	76.95
583.038	76.9
583.46	76.81
583.882	76.61
584.303	76.37
584.725	76.05
585.147	75.65
585.568	75.36
585.99	75.08
586.411	74.9
586.833	74.72
587.254	74.51
587.675	74.32
588.096	74.17
588.518	74.08
588.939	74.02
589.36	74.04
589.781	74.09
590.202	74.07
590.623	74.01
591.043	73.84
591.464	73.67
591.885	73.52
592.305	73.34
592.726	73.1
593.147	72.87
593.567	72.61
593.987	72.34
594.408	72.06
594.828	71.79
595.248	71.5
595.669	71.18
596.089	70.82
596.509	70.42
596.929	70
597.349	69.57
597.769	69.14
598.189	68.74
598.608	68.36
599.028	68.02
599.448	67.7
599.867	67.38
600.287	67.12
600.706	66.82
601.126	66.52
601.545	66.25
601.965	66.01
602.384	65.8
602.803	65.56
603.222	65.32
603.641	65.07
604.061	64.8
604.48	64.49
604.898	64.21
605.317	63.95
605.736	63.69
606.155	63.43
606.574	63.18
606.992	62.93
607.411	62.67
607.829	62.42
608.248	62.18
608.666	61.95
609.085	61.73
609.503	61.46
609.921	61.23
610.339	61.02
610.758	60.81
611.176	60.56
611.594	60.26
612.012	59.97
612.43	59.69
612.847	59.42
613.265	59.18
613.683	58.97
614.101	58.77
614.518	58.59
614.936	58.41
615.353	58.24
615.771	58.1
616.188	58.02
616.606	57.91
617.023	57.81
617.44	57.67
617.857	57.51
618.274	57.35
618.691	57.17
619.108	56.97
619.525	56.77
619.942	56.54
620.359	56.3
620.776	56.02
621.192	55.78
621.609	55.56
622.026	55.36
622.442	55.2
622.859	55
623.275	54.81
623.691	54.63
624.108	54.45
624.524	54.3
624.94	54.15
625.356	53.99
625.772	53.9
626.188	53.78
626.604	53.63
627.02	53.48
627.436	53.35
627.852	53.26
628.268	53.19
628.683	53.15
629.099	53.1
629.514	53.03
629.93	52.99
630.345	52.93
630.761	52.88
631.176	52.85
631.591	52.77
632.007	52.71
632.422	52.68
632.837	52.59
633.252	52.49
633.667	52.38
634.082	52.31
634.497	52.2
634.911	52.04
635.326	51.84
635.741	51.63
636.155	51.42
636.57	51.17
636.984	50.87
637.399	50.58
637.813	50.3
638.228	49.99
638.642	49.69
639.056	49.39
639.47	49.12
639.884	48.84
640.298	48.56
640.712	48.3
641.126	48.02
641.54	47.76
641.954	47.49
642.368	47.18
642.781	46.88
643.195	46.55
643.609	46.25
644.022	45.93
644.436	45.62
644.849	45.29
645.262	44.94
645.676	44.65
646.089	44.39
646.502	44.15
646.915	43.95
647.328	43.72
647.741	43.5
648.154	43.33
648.567	43.17
648.98	43.04
649.393	42.93
649.805	42.83
650.218	42.69
650.631	42.5
651.043	42.21
651.456	41.77
651.868	41.25
652.28	40.73
652.693	40.21
653.105	39.8
653.517	39.46
653.929	39.17
654.341	38.93
654.753	38.72
655.165	38.53
655.577	38.42
655.989	38.48
656.401	38.62
656.813	38.8
657.224	38.95
657.636	38.99
658.047	38.94
658.459	38.81
658.87	38.63
659.282	38.45
659.693	38.25
660.104	38.07
660.515	37.85
660.926	37.64
661.338	37.41
661.749	37.16
662.159	36.9
662.57	36.64
662.981	36.42
663.392	36.19
663.803	35.96
664.213	35.75
664.624	35.54
665.035	35.33
665.445	35.13
665.855	34.92
666.266	34.72
666.676	34.53
667.086	34.34
667.497	34.14
667.907	33.96
668.317	33.79
668.727	33.63
669.137	33.46
669.547	33.31
669.956	33.17
670.366	33.08
670.776	32.93
671.186	32.81
671.595	32.71
672.005	32.63
672.414	32.54
672.824	32.48
673.233	32.4
673.642	32.33
674.052	32.26
674.461	32.22
674.87	32.13
675.279	32.1
675.688	32.1
676.097	32.08
676.506	32.04
676.915	32.06
677.323	32.05
677.732	32.07
678.141	32.1
678.549	32.16
678.958	32.21
679.366	32.26
679.775	32.31
680.183	32.36
680.592	32.44
681	32.55
681.408	32.63
681.816	32.66
682.224	32.59
682.632	32.41
683.04	32.13
683.448	31.88
683.856	31.74
684.264	31.69
684.671	31.67
685.079	31.68
685.487	31.78
685.894	31.96
686.302	32.27
686.709	32.78
687.116	33.54
687.524	34.46
687.931	35.43
688.338	36.42
688.745	37.41
689.152	38.44
689.559	39.49
689.966	40.52
690.373	41.57
690.78	42.6
691.187	43.61
691.593	44.6
692	45.59
692.407	46.58
692.813	47.55
693.22	48.47
693.626	49.39
694.032	50.3
694.439	51.23
694.845	52.09
695.251	52.95
695.657	53.78
696.063	54.6
696.469	55.36
696.875	56.04
697.281	56.71
697.687	57.41
698.093	58.06
698.498	58.73
698.904	59.38
699.31	60.06
699.715	60.74
700.12	61.41
700.526	62.07
700.931	62.74
701.337	63.46
701.742	64.13
702.147	64.79
702.552	65.44
702.957	66.04
703.362	66.67
703.767	67.23
704.172	67.81
704.577	68.36
704.981	68.86
705.386	69.34
705.791	69.81
706.195	70.27
706.6	70.72
707.004	71.18
707.408	71.61
707.813	71.98
708.217	72.36
708.621	72.71
709.025	73.04
709.43	73.35
709.834	73.72
710.237	74.03
710.641	74.36
711.045	74.65
711.449	74.89
711.853	75.12
712.256	75.31
712.66	75.41
713.064	75.42
713.467	75.36
713.87	75.25
714.274	75.03
714.677	74.77
715.08	74.52
715.484	74.29
715.887	74.09
716.29	73.99
716.693	73.96
717.096	74.12
717.499	74.43
717.901	74.81
718.304	75.26
718.707	75.72
719.109	76.22
719.512	76.68
719.915	77.05
720.317	77.39
720.719	77.67
721.122	77.88
721.524	78.02
721.926	78.1
722.328	78.12
722.731	78.16
723.133	78.25
723.535	78.34
723.937	78.41
724.338	78.51
724.74	78.62
725.142	78.66
725.544	78.8
725.945	78.87
726.347	78.97
726.748	79.06
727.15	79.16
727.551	79.29
727.952	79.48
728.354	79.74
728.755	79.99
729.156	80.26
729.557	80.64
729.958	80.91
730.359	81.15
730.76	81.36
731.161	81.6
731.562	81.77
731.962	81.92
732.363	81.96
732.763	82.01
733.164	82.06
733.564	82.09
733.965	82.05
734.365	81.95
734.766	81.91
735.166	81.84
735.566	81.75
735.966	81.7
736.366	81.59
736.766	81.52
737.166	81.46
737.566	81.35
737.966	81.29
738.365	81.3
738.765	81.31
739.165	81.3
739.564	81.35
739.964	81.32
740.363	81.33
740.763	81.33
741.162	81.36
741.561	81.35
741.96	81.38
742.36	81.41
742.759	81.36
743.158	81.34
743.557	81.32
743.955	81.26
744.354	81.27
744.753	81.25
745.152	81.22
745.55	81.18
745.949	81.11
746.348	81.07
746.746	80.94
747.144	80.9
747.543	80.82
747.941	80.82
748.339	80.82
748.737	80.81
749.136	80.76
749.534	80.75
749.932	80.7
750.33	80.68
750.727	80.65
751.125	80.63
751.523	80.52
751.921	80.47
752.318	80.35
752.716	80.19
753.113	80.01
753.511	79.87
753.908	79.71
754.305	79.46
754.703	79
755.1	78.16
755.497	76.83
755.894	75.07
756.291	72.97
756.688	70.83
757.085	68.82
757.482	67.01
757.878	65.3
758.275	63.56
758.672	61.91
759.068	60.45
759.465	59.39
759.861	58.93
760.258	59.02
760.654	59.62
761.05	60.4
761.447	61.2
761.843	61.95
762.239	62.71
762.635	63.69
763.031	64.79
763.427	65.98
763.822	67.24
764.218	68.43
764.614	69.63
765.01	70.7
765.405	71.67
765.801	72.51
766.196	73.29
766.592	73.92
766.987	74.36
767.382	74.73
767.778	75.03
768.173	75.21
768.568	75.37
768.963	75.44
769.358	75.48
769.753	75.51
770.148	75.49
770.542	75.41
770.937	75.36
771.332	75.35
771.726	75.29
772.121	75.2
772.515	75.15
772.91	75.11
773.304	75.03
773.699	74.95
774.093	74.84
774.487	74.82
774.881	74.79
775.275	74.71
775.669	74.58
776.063	74.49
776.457	74.38
776.851	74.26
777.245	74.14
777.638	74.07
778.032	73.99
778.425	73.94
778.819	73.84
779.212	73.68
779.606	73.55
779.999	73.46
780.392	73.33
780.786	73.25
781.179	73.18
781.572	73.09
781.965	72.99
782.358	72.84
782.751	72.7
783.143	72.59
783.536	72.53
783.929	72.46
784.322	72.36
784.714	72.26
785.107	72.18
785.499	72.02
785.891	71.87
786.284	71.68
786.676	71.56
787.068	71.4
787.46	71.22
787.852	71.04
788.245	70.87
788.636	70.64
789.028	70.48
789.42	70.24
789.812	70.06
790.204	69.87
790.595	69.73
790.987	69.6
791.378	69.47
791.77	69.36
792.161	69.25
792.553	69.12
792.944	69.09
793.335	69
793.726	68.93
794.117	68.87
794.508	68.83
794.899	68.73
795.29	68.59
795.681	68.46
796.072	68.35
796.463	68.19
796.853	68.05
797.244	67.87
797.634	67.72
798.025	67.58
798.415	67.44
798.806	67.26
799.196	67.17
799.586	67.02
799.976	66.91
800.366	66.75
800.756	66.66
801.146	66.5
801.536	66.35
801.926	66.21
802.316	66.09
802.706	65.95
803.095	65.85
803.485	65.68
803.874	65.57
804.264	65.43
804.653	65.26
805.043	65.11
805.432	64.94
805.821	64.79
806.21	64.62
806.599	64.47
806.988	64.32
807.377	64.15
807.766	63.96
808.155	63.76
808.544	63.52
808.933	63.32
809.321	63.08
809.71	62.93
810.098	62.66
810.487	62.4
810.875	62.1
811.264	61.77
811.652	61.43
812.04	61.14
812.428	60.83
812.816	60.54
813.204	60.27
813.592	60.03
813.98	59.78
814.368	59.59
814.756	59.4
815.144	59.25
815.531	59.14
815.919	59.02
816.306	58.93
816.694	58.92
817.081	58.87
817.469	58.85
817.856	58.78
818.243	58.62
818.63	58.5
819.017	58.36
819.404	58.2
819.791	58.07
820.178	58.01
820.565	57.91
820.952	57.78
821.339	57.7
821.725	57.59
822.112	57.53
822.498	57.5
822.885	57.46
823.271	57.45
823.657	57.4
824.044	57.33
824.43	57.24
824.816	57.09
825.202	56.96
825.588	56.86
825.974	56.75
826.36	56.59
826.746	56.52
827.132	56.41
827.517	56.28
827.903	56.15
828.289	56.05
828.674	55.93
829.06	55.87
829.445	55.81
829.83	55.73
830.216	55.64
830.601	55.58
830.986	55.48
831.371	55.45
831.756	55.36
832.141	55.32
832.526	55.26
832.911	55.25
833.295	55.2
833.68	55.12
834.065	55.07
834.449	54.99
834.834	54.94
835.218	54.88
835.603	54.82
835.987	54.81
836.371	54.78
836.755	54.72
837.139	54.64
837.524	54.58
837.908	54.49
838.291	54.39
838.675	54.37
839.059	54.32
839.443	54.28
839.827	54.21
840.21	54.15
840.594	54.1
840.977	54.05
841.361	54
841.744	53.97
842.127	53.93
842.511	53.9
842.894	53.81
843.277	53.76
843.66	53.7
844.043	53.65
844.426	53.6
844.809	53.53
845.191	53.43
845.574	53.35
845.957	53.21
846.339	53.13
846.722	53.06
847.104	53
847.487	52.96
847.869	52.87
848.252	52.79
848.634	52.72
849.016	52.69
849.398	52.62
849.78	52.54
850.162	52.48
850.544	52.42
850.926	52.34
851.307	52.31
851.689	52.22
852.071	52.19
852.452	52.16
852.834	52.11
853.215	52.06
853.597	52.09
853.978	52.09
854.359	52.12
854.741	52.14
855.122	52.15
855.503	52.12
855.884	52.11
856.265	52.08
856.646	52.04
857.026	52
857.407	51.95
857.788	51.93
858.169	51.89
858.549	51.89
858.93	51.85
859.31	51.79
859.69	51.74
860.071	51.72
860.451	51.68
860.831	51.64
861.211	51.6
861.591	51.55
861.971	51.44
862.351	51.38
862.731	51.28
863.111	51.21
863.491	51.19
863.87	51.15
864.25	51.09
864.629	51.05
865.009	51.03
865.388	51.03
865.768	51.01
866.147	51.04
866.526	51.03
866.905	51.03
867.284	51.03
867.663	50.99
868.042	50.98
868.421	50.95
868.8	50.91
869.179	50.89
869.558	50.86
869.936	50.84
870.315	50.8
870.693	50.78
871.072	50.75
871.45	50.72
871.828	50.72
872.207	50.71
872.585	50.72
872.963	50.7
873.341	50.7
873.719	50.69
874.097	50.67
874.475	50.65
874.853	50.63
875.23	50.62
875.608	50.6
875.986	50.56
876.363	50.54
876.741	50.49
877.118	50.46
877.495	50.4
877.873	50.39
878.25	50.35
878.627	50.34
879.004	50.32
879.381	50.32
879.758	50.29
880.135	50.3
880.512	50.26
880.889	50.28
881.265	50.31
881.642	50.3
882.019	50.29
882.395	50.29
882.772	50.26
883.148	50.25
883.524	50.22
883.901	50.2
884.277	50.19
884.653	50.19
885.029	50.15
885.405	50.1
885.781	50.08
886.157	50.05
886.532	50.03
886.908	50.03
887.284	50.03
887.659	50
888.035	49.98
888.411	49.94
888.786	49.89
889.161	49.88
889.537	49.85
889.912	49.82
890.287	49.77
890.662	49.72
891.037	49.64
891.412	49.56
891.787	49.52
892.162	49.45
892.536	49.37
892.911	49.31
893.286	49.21
893.66	49.14
894.035	49.06
894.409	48.99
894.784	48.91
895.158	48.85
895.532	48.78
895.906	48.71
896.281	48.64
896.655	48.58
897.029	48.51
897.402	48.48
897.776	48.42
898.15	48.41
898.524	48.38
898.898	48.34
899.271	48.34
899.645	48.34
900.018	48.34
900.392	48.38
900.765	48.42
901.138	48.46
901.511	48.46
901.884	48.5
902.258	48.48
902.631	48.49
903.003	48.51
903.376	48.5
903.749	48.51
904.122	48.49
904.495	48.5
904.867	48.44
905.24	48.42
905.612	48.39
905.985	48.35
906.357	48.33
906.729	48.31
907.102	48.31
907.474	48.29
907.846	48.28
908.218	48.26
908.59	48.2
908.962	48.21
909.334	48.19
909.705	48.15
910.077	48.15
910.449	48.12
910.82	48.11
911.192	48.08
911.563	48.04
911.935	47.97
912.306	47.95
912.677	47.94
913.048	47.93
913.419	47.89
913.79	47.9
914.161	47.91
914.532	47.92
914.903	47.89
915.274	47.89
915.645	47.92
916.015	47.95
916.386	47.92
916.756	47.89
917.127	47.86
917.497	47.89
917.868	47.91
918.238	47.88
918.608	47.88
918.978	47.86
919.348	47.81
919.718	47.79
920.088	47.79
920.458	47.84
920.828	47.85
921.198	47.83
921.567	47.76
921.937	47.74
922.306	47.72
922.676	47.73
923.045	47.7
923.415	47.71
923.784	47.69
924.153	47.66
924.522	47.57
924.891	47.55
925.26	47.56
925.629	47.58
925.998	47.53
926.367	47.49
926.736	47.41
927.104	47.42
927.473	47.36
927.842	47.29
928.21	47.24
928.578	47.18
928.947	47.1
929.315	46.98
929.683	46.88
930.051	46.81
930.42	46.72
930.788	46.65
931.156	46.54
931.523	46.49
931.891	46.37
932.259	46.26
932.627	46.13
932.994	46.02
933.362	45.96
933.729	45.84
934.097	45.78
934.464	45.73
934.831	45.61
935.199	45.54
935.566	45.47
935.933	45.46
936.3	45.39
936.667	45.45
937.034	45.45
937.401	45.48
937.767	45.53
938.134	45.48
938.501	45.5
938.867	45.58
939.234	45.68
939.6	45.78
939.967	45.91
940.333	46.13
940.699	46.28
941.065	46.45
941.431	46.52
941.798	46.63
942.163	46.8
942.529	46.84
942.895	46.94
943.261	46.99
943.627	47.02
943.992	47.11
944.358	47.12
944.723	47.08
945.089	47.12
945.454	47.2
945.82	47.16
946.185	47.26
946.55	47.34
946.915	47.38
947.28	47.37
947.645	47.36
948.01	47.26
948.375	47.25
948.74	47.15
949.104	47.1
949.469	47
949.834	46.98
950.198	46.87
950.562	46.87
950.927	46.8
951.291	46.76
951.655	46.68
952.02	46.64
952.384	46.65
952.748	46.66
953.112	46.61
953.476	46.6
953.839	46.58
954.203	46.51
954.567	46.47
954.931	46.48
955.294	46.41
955.658	46.41
956.021	46.41
956.385	46.32
956.748	46.33
957.111	46.27
957.474	46.29
957.837	46.28
958.2	46.26
958.563	46.22
958.926	46.15
959.289	46.17
959.652	46.16
960.015	46.13
960.377	46.06
960.74	46
961.102	46.02
961.465	45.93
961.827	45.83
962.189	45.82
962.552	45.77
962.914	45.75
963.276	45.67
963.638	45.61
964	45.56
964.362	45.55
964.724	45.62
965.085	45.58
965.447	45.59
965.809	45.61
966.17	45.62
966.532	45.63
966.893	45.59
967.255	45.59
967.616	45.65
967.977	45.7
968.338	45.71
968.699	45.65
969.061	45.67
969.421	45.69
969.782	45.67
970.143	45.66
970.504	45.61
970.865	45.61
971.225	45.66
971.586	45.68
971.946	45.59
972.307	45.58
972.667	45.6
973.027	45.59
973.388	45.52
973.748	45.54
974.108	45.52
974.468	45.57
974.828	45.6
975.188	45.57
975.548	45.49
975.907	45.53
976.267	45.52
976.627	45.5
976.986	45.44
977.346	45.45
977.705	45.45
978.064	45.44
978.424	45.4
978.783	45.46
979.142	45.43
979.501	45.41
979.86	45.37
980.219	45.3
980.578	45.29
980.937	45.38
981.296	45.4
981.654	45.48
982.013	45.54
982.371	45.55
982.73	45.42
983.088	45.4
983.447	45.47
983.805	45.46
984.163	45.57
984.521	45.49
984.879	45.49
985.237	45.58
985.595	45.53
985.953	45.46
986.311	45.54
986.669	45.61
987.026	45.64
987.384	45.62
987.741	45.66
988.099	45.58
988.456	45.56
988.814	45.46
989.171	45.4
989.528	45.44
989.885	45.35
990.242	45.36
990.599	45.42
990.956	45.5
991.313	45.51
991.67	45.6
992.027	45.61
992.383	45.79
992.74	45.81
993.096	45.76
993.453	45.8
993.809	45.96
994.165	45.95
994.522	45.81
994.878	45.75
995.234	45.75
995.59	45.59
995.946	45.67
996.302	45.58
996.658	45.48
997.013	45.5
997.369	45.33
997.725	45.35
998.08	45.33
998.436	45.47
998.791	45.54
999.147	45.53
999.502	45.57
999.857	45.67
1000.212	45.73
1000.567	45.92
1000.922	46.02
1001.277	46.19
1001.632	46.17
1001.987	46.12
1002.342	46.06
1002.696	46
1003.051	45.91
1003.406	45.85
1003.76	45.83
1004.114	45.81
1004.469	45.76
1004.823	45.77
1005.177	45.79
1005.531	45.73
1005.885	45.81
1006.239	45.85
1006.593	45.73
1006.947	45.77
1007.301	45.99
1007.655	45.87
1008.008	45.88
1008.362	45.99
1008.715	45.95
1009.069	45.76
1009.422	45.73
1009.776	45.78
1010.129	45.73
1010.482	46.06
1010.835	46.27
1011.188	46.19
1011.541	46.11
1011.894	46.17
1012.247	46.09
1012.6	46.06
1012.952	46.27
1013.305	46.27
1013.657	46.24
1014.01	46.41
1014.362	46.4
1014.715	46.31
1015.067	46.29
1015.419	46.59
1015.771	46.67
1016.123	46.69
1016.475	47.01
1016.827	47.21
1017.179	47.33
1017.531	47.33
1017.883	47.24
1018.234	47.17
1018.586	47.18
1018.938	47.04
1019.289	46.81
1019.64	46.88
1019.992	46.97
1020.343	46.63
1020.694	46.24
1021.045	46.25
1021.396	46.09
1021.747	46.16
1022.098	46.32
1022.449	46.36
1022.8	46.51
1023.151	46.67
1023.501	46.81
1023.852	46.81
1024.202	46.56
1024.553	46.59
1024.903	46.68
1025.253	46.92
1025.604	47.01
1025.954	46.8
1026.304	47.08
1026.654	47.07
1027.004	47.2
1027.354	46.96
1027.703	46.84
1028.053	46.98
1028.403	46.81
1028.753	46.78
1029.102	46.84
1029.452	46.75
1029.801	46.86
1030.15	46.59
1030.499	46.83
897.758	217.28
901.051	214.43
904.343	221.74
907.636	219.41
910.928	217.67
914.22	223.96
917.511	216.86
920.803	211.91
924.094	201.17
927.384	207.64
930.675	199.63
933.965	196.68
937.255	199.23
940.544	188.74
943.834	179.84
947.123	177.88
950.411	168.72
953.7	166.84
956.988	165.9
960.276	161.63
963.563	162.49
966.851	155.78
970.138	153.97
973.424	145.94
976.711	146.3
979.997	147.3
983.283	142.05
986.568	138.61
989.853	137.4
993.138	132.86
996.423	134.14
999.708	130.21
1002.992	131.52
1006.275	128.23
1009.559	127.97
1012.842	125.5
1016.125	119.52
1019.408	118.67
1022.69	119.77
1025.972	118.34
1029.254	116.67
1032.536	113.67
1035.817	110.76
1039.098	110.04
1042.379	110.26
1045.659	109.4
1048.939	107.85
1052.219	107.99
1055.498	108.04
1058.778	105.9
1062.057	104.53
1065.335	104.61
1068.614	103.78
1071.892	103.94
1075.17	102.42
1078.447	100.5
1081.724	100.67
1085.001	99.08
1088.278	98.23
1091.554	98.48
1094.83	98.13
1098.106	97.16
1101.382	96.77
1104.657	96.5
1107.932	95.8
1111.206	95.97
1114.481	95.83
1117.755	93.23
1121.029	93.95
1124.302	93.56
1127.575	92.56
1130.848	91.99
1134.121	91.58
1137.393	91.34
1140.665	90.15
1143.937	89.53
1147.208	88.33
1150.48	87.57
1153.75	88.13
1157.021	86.57
1160.291	86.7
1163.561	85.34
1166.831	86.66
1170.101	85.9
1173.37	84.91
1176.639	84.75
1179.907	84.06
1183.176	83.89
1186.444	83.22
1189.711	83.36
1192.979	83.87
1196.246	83.77
1199.513	84.53
1202.78	82.81
1206.046	83.21
1209.312	84.11
1212.578	84.27
1215.843	86.17
1219.108	86.01
1222.373	88.02
1225.638	88.55
1228.902	90.07
1232.166	91.84
1235.43	91.63
1238.693	93.71
1241.956	95.26
1245.219	96.78
1248.482	97.37
1251.744	96.12
1255.006	96.87
1258.268	94.33
1261.529	94.21
1264.79	92.7
1268.051	91.07
1271.312	91.58
1274.572	89.81
1277.832	88.29
1281.092	88.14
1284.351	87.41
1287.61	87.4
1290.869	87.18
1294.128	87.27
1297.386	87.44
1300.644	86.68
1303.902	86.3
1307.159	85.3
1310.416	85.68
1313.673	86.86
1316.93	85.87
1320.186	86.98
1323.442	87.16
1326.697	87.03
1329.953	86
1333.208	87.12
1336.463	89.76
1339.717	90.87
1342.972	92.03
1346.226	93.23
1349.479	92.52
1352.733	94.16
1355.986	93.97
1359.238	94.67
1362.491	95.69
1365.743	99.08
1368.995	99.21
1372.247	94.48
1375.498	92.85
1378.749	94.52
1382	95.64
1385.251	93.53
1388.501	93.91
1391.751	93.74
1395	92.46
1398.25	92.44
1401.499	91.03
1404.748	88
1407.996	89.37
1411.244	89.68
1414.492	87.44
1417.74	82.42
1420.987	82.23
1424.234	79.17
1427.481	76.04
1430.728	74.49
1433.974	70.58
1437.22	69.15
1440.465	67
1443.711	64.95
1446.956	63.23
1450.201	60.6
1453.445	58.81
1456.689	57.34
1459.933	56.99
1463.177	54.79
1466.42	53.73
1469.663	53.59
1472.906	51.88
1476.148	50.99
1479.391	50.64
1482.633	50.53
1485.874	50.81
1489.115	50.93
1492.356	50.32
1495.597	49.82
1498.838	50.26
1502.078	50.7
1505.318	50.89
1508.557	50.38
1511.797	51.25
1515.036	51.15
1518.274	51.54
1521.513	51.76
1524.751	51.55
1527.989	52.39
1531.227	52.34
1534.464	53.55
1537.701	53.32
1540.938	52.85
1544.174	53.6
1547.41	53.99
1550.646	54.67
1553.882	54.38
1557.117	55.47
1560.352	55.37
1563.587	55.74
1566.821	55.89
1570.055	55.33
1573.289	55.92
1576.523	56.4
1579.756	56.47
1582.989	56.8
1586.222	56.9
1589.454	57.22
1592.686	56.84
1595.918	56.78
1599.15	56.74
1602.381	56.89
1605.612	57.47
1608.843	57.37
1612.073	57.61
1615.303	58.7
1618.533	58.59
1621.762	58.27
1624.992	58.33
1628.221	58.11
1631.449	58.87
1634.678	59.3
1637.906	58.95
1641.134	59.37
1644.361	59.48
1647.588	59.57
1650.815	59.24
1654.042	59.3
1657.269	59.4
1660.495	59.86
1663.72	59.54
1666.946	59.73
1670.171	59.74
1673.396	60.74
1676.621	60.01
1679.845	60.67
1683.069	60.32
1686.293	60.18
1689.517	60.36
1692.74	60.63
1695.963	60.08
1699.185	60.9
1702.408	60.09
1705.63	59.88
1708.852	60
1712.073	59.74
1715.294	59.23
1718.515	60.04
1721.736	59.9
1724.956	59.72
1728.176	59.69
1731.396	59.74
1734.616	59.78
1737.835	60.28
1741.054	59.83
1744.272	59.34
1747.491	59.61
1750.709	59.53
1753.927	58.9
1757.144	58.84
1760.361	58.48
1763.578	58.15
1766.795	58.75
1770.011	58.08
1773.227	58.19
1776.443	58.54
1779.658	58.04
1782.874	58.29
1786.089	57.85
1789.303	57.89
1792.518	58.13
1795.732	58.75
1798.945	59.68
1802.159	59.19
1805.372	59.7
1808.585	60.06
1811.797	59.52
1815.01	60.34
1818.222	60.62
1821.434	61.12
1824.645	60.83
1827.856	61.29
1831.067	60.85
1834.278	60.57
1837.488	60.85
1840.698	60.59
1843.908	60.13
1847.117	61.34
1850.326	60.79
1853.535	60.98
1856.744	60.57
1859.952	60.48
1863.16	59.36
1866.368	57.89
1869.575	57.43
1872.782	56.21
1875.989	54.52
1879.196	53.67
1882.402	51.35
1885.608	51.17
1888.814	48.95
1892.019	48.25
1895.224	47.15
1898.429	46.74
1901.634	46.48
1904.838	45.34
1908.042	44.93
1911.246	45.07
1914.449	44.96
1917.652	44.92
1920.855	44.89
1924.058	43.71
1927.26	42.38
1930.462	43.21
1933.664	42.96
1936.865	43.59
1940.066	42.14
1943.267	42.75
1946.467	42.48
1949.668	42.35
1952.868	43.02
1956.067	42.76
1959.267	44.75
1962.466	44.98
1965.665	45.41
1968.863	46.02
1972.061	46.82
1975.259	48.02
1978.457	47.96
1981.654	48.84
1984.852	49.74
1988.048	49.89
1991.245	50.74
1994.441	51.18
1997.637	53.01
2000.833	53.65
2004.028	53.77
2007.223	53.43
2010.418	56.11
2013.613	58.99
2016.807	60.88
2020.001	61.83
2023.194	64.1
2026.388	66.82
2029.581	70.26
2032.774	70.43
2035.966	72.36
2039.158	75.03
2042.35	76.91
2045.542	78.49
2048.733	80.53
2051.924	80.81
2055.115	81.6
2058.306	81.13
2061.496	80.18
2064.686	80.36
2067.875	82.5
2071.065	83.44
2074.254	83.25
2077.442	85.55
2080.631	84.18
2083.819	84.56
2087.007	87.72
2090.195	88.91
2093.382	90.06
2096.569	91.6
2099.756	93.44
2102.942	94.25
2106.128	95.64
2109.314	99.26
2112.5	99.82
2115.685	97.47
2118.87	97.88
2122.055	100.33
2125.239	100.47
2128.424	104.52
2131.608	102.18
2134.791	101.4
2137.974	102.22
2141.157	104.49
2144.34	103.25
2147.523	107.16
2150.705	113.22
2153.887	111.42
2157.068	110.43
2160.25	112.78
2163.431	110.76
2166.611	114.29
2169.792	116.51
2172.972	119.68
2176.152	119.69
2179.331	122.29
2182.511	120.78
2185.69	122.97
2188.868	126.22
2192.047	129.27
2195.225	133.03
2198.403	132.85
2201.58	130.66
2204.758	134.73
2207.935	132.93
2211.111	134.68
2214.288	134.52
2217.464	134.49
2220.64	136.64
2223.815	137.12
2226.991	133.79
2230.166	135.07
2233.34	139.81
2236.515	141.14
2239.689	138.41
2242.863	140.69
2246.036	140.9
2249.209	139.06
2252.382	139.22
2255.555	143.1
2258.727	145.67
2261.9	148.93
2265.071	149.61
2268.243	149.45
2271.414	156.92
2274.585	160.2
2277.756	159.63
2280.926	163.86
2284.096	172.03
2287.266	172.03
2290.436	169.56
2293.605	173.06
2296.774	179.89
2299.942	178.32
2303.111	180.41
2306.279	184.06
2309.447	186.7
2312.614	186.59
2315.781	187.09
2318.948	186.36
2322.115	193.21
2325.281	195.09
2328.447	195.61
2331.613	198.87
2334.779	203.12
2337.944	203.77
2341.109	206.24
2344.274	206.63
2347.438	212.52
2350.602	221.25
2353.766	231.92
2356.929	230.83
2360.092	242.88
2363.255	238.14
2366.418	237.96
2369.58	243.28
2372.742	256.28
2375.904	254.54
2379.066	261.81
2382.227	273.94
2385.388	264.86
2388.548	257.51
2391.709	254.52
2394.869	251.67
2398.029	257.86
2401.188	257.39
2404.347	262.26
2407.506	264.09
2410.665	257.04
2413.823	263.99
2416.981	264.76
2420.139	257.64
2423.296	271.35
2426.453	292.89
2429.61	281.39
2432.767	298.07
2435.923	311.83
2439.079	303.99
2442.235	307.99
2445.391	317.54
2448.546	303.83
2451.701	321.98
2454.855	338.1
2458.009	310.88
2461.163	314.41
2464.317	315.49
2467.471	312.75
2470.624	316.49
2473.777	306.87
2476.929	301.75
2480.082	308.73
2483.234	328.32
2486.385	331.85
2489.537	341.47
2492.688	366.49
2495.839	359.68
2498.989	376.2
2502.14	371.59
2505.29	365.1
2508.439	397.23
2511.589	400.5
2514.738	395.93
2517.887	388.49
2521.035	363.16
2524.183	364.33
2527.331	366.36
2530.479	355.6
2533.627	361.36
