Data from C_2_div_il_4n_082_Splice17_05.txt Node
Date: Sat Feb 29 14:18:13 EST 2020
User: sa697716
Spectrometer: FLMS03696
Trigger mode: 0
Integration Time (sec): 3.180400E-1
Scans to average: 20
Electric dark correction enabled: true
Nonlinearity correction enabled: true
Boxcar width: 5
XAxis mode: Wavelengths
Number of Pixels in Spectrum: 2048
>>>>>Begin Spectral Data<<<<<
187.83	96.77
188.298	103.08
188.766	83.93
189.233	81.39
189.701	84.04
190.169	77.77
190.636	76.76
191.104	35.6
191.571	46
192.039	165.91
192.506	508.03
192.974	7689.2
193.441	-324.52
193.908	77.22
194.375	101.83
194.842	75.26
195.31	9.81
195.777	7.34
196.244	13.27
196.711	34.72
197.177	36.36
197.644	37.16
198.111	37.69
198.578	38.61
199.045	39.32
199.511	39.56
199.978	40.27
200.445	40.23
200.911	40.31
201.378	40.07
201.844	40.8
202.31	41.25
202.777	41.47
203.243	42.03
203.709	42.66
204.176	42.22
204.642	42
205.108	42.06
205.574	42.17
206.04	42.01
206.506	42.2
206.972	41.73
207.438	41.29
207.903	41
208.369	39.97
208.835	39.27
209.301	38.86
209.766	38.3
210.232	37.31
210.697	36.75
211.163	36.12
211.628	35.48
212.094	34.58
212.559	33.9
213.024	33.22
213.49	32.59
213.955	31.84
214.42	31.03
214.885	30.27
215.35	29.37
215.815	27.77
216.28	26.41
216.745	24.89
217.21	23.34
217.675	21.78
218.14	20.14
218.604	18.84
219.069	17.78
219.534	16.78
219.998	15.94
220.463	15.23
220.927	14.7
221.392	14.11
221.856	13.58
222.32	13.2
222.785	12.86
223.249	12.57
223.713	12.31
224.177	11.97
224.642	11.73
225.106	11.47
225.57	11.23
226.034	11.03
226.497	10.83
226.961	10.63
227.425	10.43
227.889	10.26
228.353	10.07
228.816	9.92
229.28	9.76
229.744	9.59
230.207	9.48
230.671	9.33
231.134	9.19
231.597	9.06
232.061	8.93
232.524	8.83
232.987	8.72
233.45	8.62
233.914	8.5
234.377	8.4
234.84	8.32
235.303	8.2
235.766	8.12
236.229	8.04
236.691	7.97
237.154	7.9
237.617	7.8
238.08	7.7
238.542	7.61
239.005	7.53
239.468	7.46
239.93	7.39
240.393	7.33
240.855	7.24
241.317	7.16
241.78	7.1
242.242	7.03
242.704	6.97
243.166	6.92
243.629	6.86
244.091	6.79
244.553	6.74
245.015	6.68
245.477	6.62
245.939	6.57
246.4	6.51
246.862	6.46
247.324	6.42
247.786	6.37
248.247	6.31
248.709	6.27
249.17	6.23
249.632	6.19
250.093	6.13
250.555	6.09
251.016	6.05
251.477	6.01
251.939	5.96
252.4	5.92
252.861	5.88
253.322	5.84
253.783	5.81
254.244	5.78
254.705	5.75
255.166	5.73
255.627	5.71
256.088	5.66
256.549	5.64
257.009	5.6
257.47	5.57
257.931	5.55
258.391	5.51
258.852	5.47
259.312	5.44
259.773	5.4
260.233	5.36
260.694	5.32
261.154	5.29
261.614	5.25
262.074	5.23
262.534	5.18
262.994	5.15
263.455	5.13
263.915	5.1
264.374	5.07
264.834	5.04
265.294	5.01
265.754	4.98
266.214	4.95
266.673	4.93
267.133	4.91
267.593	4.9
268.052	4.86
268.512	4.84
268.971	4.82
269.431	4.8
269.89	4.78
270.349	4.77
270.809	4.76
271.268	4.75
271.727	4.74
272.186	4.72
272.645	4.7
273.104	4.7
273.563	4.69
274.022	4.67
274.481	4.66
274.94	4.64
275.399	4.64
275.857	4.62
276.316	4.61
276.775	4.58
277.233	4.57
277.692	4.56
278.15	4.54
278.609	4.52
279.067	4.5
279.525	4.48
279.984	4.47
280.442	4.45
280.9	4.44
281.358	4.43
281.816	4.42
282.274	4.4
282.732	4.38
283.19	4.38
283.648	4.37
284.106	4.36
284.564	4.37
285.021	4.37
285.479	4.37
285.937	4.36
286.394	4.35
286.852	4.34
287.309	4.34
287.767	4.33
288.224	4.32
288.682	4.3
289.139	4.29
289.596	4.27
290.053	4.24
290.511	4.22
290.968	4.21
291.425	4.19
291.882	4.17
292.339	4.15
292.796	4.13
293.252	4.11
293.709	4.1
294.166	4.09
294.623	4.07
295.079	4.06
295.536	4.05
295.992	4.03
296.449	4.03
296.905	4.01
297.362	4
297.818	3.99
298.274	3.97
298.731	3.96
299.187	3.95
299.643	3.94
300.099	3.94
300.555	3.92
301.011	3.92
301.467	3.91
301.923	3.91
302.379	3.9
302.835	3.9
303.291	3.89
303.746	3.88
304.202	3.87
304.658	3.86
305.113	3.85
305.569	3.85
306.024	3.84
306.479	3.84
306.935	3.83
307.39	3.83
307.845	3.83
308.301	3.83
308.756	3.84
309.211	3.84
309.666	3.84
310.121	3.84
310.576	3.83
311.031	3.82
311.486	3.82
311.94	3.82
312.395	3.82
312.85	3.81
313.305	3.82
313.759	3.81
314.214	3.8
314.668	3.8
315.123	3.8
315.577	3.81
316.032	3.8
316.486	3.79
316.94	3.8
317.394	3.79
317.849	3.79
318.303	3.78
318.757	3.76
319.211	3.75
319.665	3.75
320.119	3.74
320.572	3.72
321.026	3.71
321.48	3.7
321.934	3.69
322.387	3.69
322.841	3.68
323.295	3.66
323.748	3.66
324.202	3.66
324.655	3.65
325.108	3.64
325.562	3.63
326.015	3.63
326.468	3.62
326.921	3.61
327.374	3.6
327.827	3.59
328.28	3.58
328.733	3.58
329.186	3.58
329.639	3.58
330.092	3.57
330.545	3.57
330.997	3.58
331.45	3.58
331.903	3.58
332.355	3.59
332.808	3.59
333.26	3.6
333.713	3.6
334.165	3.59
334.617	3.6
335.069	3.61
335.522	3.61
335.974	3.61
336.426	3.61
336.878	3.61
337.33	3.61
337.782	3.62
338.234	3.61
338.686	3.61
339.137	3.61
339.589	3.61
340.041	3.6
340.493	3.58
340.944	3.57
341.396	3.56
341.847	3.55
342.299	3.53
342.75	3.5
343.201	3.5
343.653	3.49
344.104	3.48
344.555	3.47
345.006	3.46
345.457	3.46
345.908	3.44
346.359	3.44
346.81	3.45
347.261	3.44
347.712	3.45
348.163	3.46
348.613	3.45
349.064	3.44
349.515	3.43
349.965	3.43
350.416	3.43
350.866	3.43
351.317	3.41
351.767	3.41
352.217	3.41
352.668	3.4
353.118	3.39
353.568	3.41
354.018	3.42
354.468	3.41
354.918	3.42
355.368	3.42
355.818	3.42
356.268	3.43
356.718	3.44
357.168	3.44
357.617	3.45
358.067	3.45
358.517	3.44
358.966	3.45
359.416	3.46
359.865	3.45
360.315	3.45
360.764	3.47
361.213	3.46
361.663	3.46
362.112	3.46
362.561	3.47
363.01	3.48
363.459	3.47
363.908	3.48
364.357	3.48
364.806	3.49
365.255	3.51
365.703	3.51
366.152	3.52
366.601	3.53
367.05	3.54
367.498	3.54
367.947	3.54
368.395	3.57
368.844	3.57
369.292	3.59
369.74	3.6
370.189	3.6
370.637	3.62
371.085	3.64
371.533	3.65
371.981	3.68
372.429	3.69
372.877	3.71
373.325	3.72
373.773	3.74
374.221	3.76
374.669	3.79
375.116	3.81
375.564	3.84
376.012	3.85
376.459	3.89
376.907	3.93
377.354	3.96
377.801	4
378.249	4.05
378.696	4.1
379.143	4.13
379.591	4.17
380.038	4.21
380.485	4.25
380.932	4.3
381.379	4.32
381.826	4.36
382.273	4.41
382.72	4.45
383.166	4.48
383.613	4.53
384.06	4.59
384.506	4.63
384.953	4.68
385.4	4.73
385.846	4.77
386.292	4.84
386.739	4.88
387.185	4.93
387.631	4.99
388.078	5.04
388.524	5.08
388.97	5.14
389.416	5.19
389.862	5.25
390.308	5.29
390.754	5.35
391.2	5.39
391.645	5.46
392.091	5.51
392.537	5.56
392.983	5.63
393.428	5.7
393.874	5.76
394.319	5.82
394.765	5.87
395.21	5.91
395.655	5.97
396.101	6.02
396.546	6.07
396.991	6.12
397.436	6.15
397.881	6.19
398.326	6.25
398.771	6.3
399.216	6.35
399.661	6.41
400.106	6.47
400.551	6.49
400.995	6.52
401.44	6.54
401.885	6.58
402.329	6.62
402.774	6.63
403.218	6.64
403.663	6.65
404.107	6.68
404.551	6.7
404.995	6.71
405.44	6.74
405.884	6.77
406.328	6.78
406.772	6.81
407.216	6.84
407.66	6.87
408.104	6.89
408.547	6.92
408.991	6.93
409.435	6.95
409.879	6.97
410.322	7
410.766	7.01
411.209	7.03
411.653	7.04
412.096	7.05
412.54	7.07
412.983	7.09
413.426	7.11
413.869	7.12
414.312	7.15
414.756	7.18
415.199	7.19
415.642	7.23
416.085	7.27
416.527	7.29
416.97	7.33
417.413	7.33
417.856	7.32
418.298	7.32
418.741	7.33
419.184	7.35
419.626	7.35
420.069	7.35
420.511	7.34
420.953	7.31
421.396	7.32
421.838	7.34
422.28	7.36
422.722	7.38
423.164	7.38
423.606	7.4
424.048	7.39
424.49	7.41
424.932	7.42
425.374	7.42
425.816	7.42
426.258	7.4
426.699	7.36
427.141	7.32
427.582	7.32
428.024	7.32
428.465	7.3
428.907	7.33
429.348	7.3
429.789	7.3
430.231	7.29
430.672	7.29
431.113	7.3
431.554	7.32
431.995	7.35
432.436	7.34
432.877	7.33
433.318	7.33
433.759	7.31
434.2	7.32
434.64	7.32
435.081	7.33
435.522	7.36
435.962	7.38
436.403	7.4
436.843	7.42
437.284	7.44
437.724	7.49
438.164	7.52
438.604	7.55
439.045	7.57
439.485	7.59
439.925	7.6
440.365	7.61
440.805	7.62
441.245	7.63
441.685	7.66
442.125	7.67
442.564	7.68
443.004	7.72
443.444	7.72
443.883	7.75
444.323	7.78
444.762	7.84
445.202	7.9
445.641	7.95
446.081	8
446.52	8.01
446.959	8.05
447.398	8.1
447.837	8.15
448.276	8.22
448.716	8.28
449.154	8.35
449.593	8.38
450.032	8.42
450.471	8.47
450.91	8.48
451.349	8.54
451.787	8.57
452.226	8.58
452.664	8.58
453.103	8.57
453.541	8.56
453.98	8.55
454.418	8.54
454.856	8.5
455.295	8.48
455.733	8.47
456.171	8.45
456.609	8.43
457.047	8.4
457.485	8.4
457.923	8.39
458.361	8.37
458.798	8.38
459.236	8.37
459.674	8.38
460.111	8.39
460.549	8.39
460.987	8.39
461.424	8.39
461.862	8.4
462.299	8.4
462.736	8.39
463.173	8.4
463.611	8.39
464.048	8.4
464.485	8.39
464.922	8.38
465.359	8.38
465.796	8.37
466.233	8.39
466.67	8.4
467.106	8.39
467.543	8.41
467.98	8.43
468.416	8.44
468.853	8.44
469.29	8.45
469.726	8.47
470.162	8.47
470.599	8.5
471.035	8.51
471.471	8.5
471.907	8.54
472.344	8.54
472.78	8.55
473.216	8.55
473.652	8.57
474.088	8.59
474.523	8.58
474.959	8.59
475.395	8.59
475.831	8.59
476.266	8.61
476.702	8.61
477.138	8.61
477.573	8.6
478.008	8.6
478.444	8.58
478.879	8.58
479.314	8.58
479.75	8.58
480.185	8.57
480.62	8.58
481.055	8.57
481.49	8.54
481.925	8.53
482.36	8.53
482.795	8.52
483.229	8.52
483.664	8.53
484.099	8.54
484.534	8.55
484.968	8.56
485.403	8.56
485.837	8.58
486.271	8.6
486.706	8.62
487.14	8.65
487.574	8.67
488.009	8.71
488.443	8.73
488.877	8.76
489.311	8.82
489.745	8.87
490.179	8.91
490.613	8.96
491.046	9.02
491.48	9.08
491.914	9.13
492.348	9.2
492.781	9.26
493.215	9.33
493.648	9.4
494.082	9.48
494.515	9.55
494.948	9.63
495.382	9.72
495.815	9.82
496.248	9.92
496.681	10.01
497.114	10.12
497.547	10.23
497.98	10.35
498.413	10.48
498.846	10.6
499.279	10.73
499.711	10.88
500.144	11.02
500.577	11.16
501.009	11.31
501.442	11.48
501.874	11.65
502.306	11.84
502.739	12.02
503.171	12.21
503.603	12.42
504.036	12.64
504.468	12.86
504.9	13.1
505.332	13.33
505.764	13.57
506.196	13.83
506.627	14.11
507.059	14.38
507.491	14.65
507.923	14.92
508.354	15.21
508.786	15.5
509.217	15.79
509.649	16.1
510.08	16.42
510.512	16.72
510.943	17.04
511.374	17.37
511.805	17.68
512.237	18.04
512.668	18.39
513.099	18.74
513.53	19.09
513.961	19.46
514.391	19.81
514.822	20.16
515.253	20.54
515.684	20.9
516.114	21.26
516.545	21.63
516.975	21.98
517.406	22.36
517.836	22.71
518.267	23.07
518.697	23.41
519.127	23.76
519.558	24.1
519.988	24.43
520.418	24.76
520.848	25.09
521.278	25.42
521.708	25.69
522.138	25.97
522.567	26.3
522.997	26.58
523.427	26.88
523.857	27.15
524.286	27.43
524.716	27.68
525.145	27.95
525.575	28.2
526.004	28.44
526.433	28.72
526.863	28.96
527.292	29.17
527.721	29.4
528.15	29.6
528.579	29.81
529.008	30.01
529.437	30.2
529.866	30.36
530.295	30.52
530.724	30.68
531.152	30.84
531.581	30.98
532.01	31.1
532.438	31.25
532.867	31.38
533.295	31.48
533.723	31.59
534.152	31.69
534.58	31.78
535.008	31.88
535.436	31.94
535.865	32.01
536.293	32.08
536.721	32.17
537.149	32.22
537.576	32.28
538.004	32.32
538.432	32.36
538.86	32.42
539.287	32.49
539.715	32.54
540.143	32.59
540.57	32.63
540.998	32.68
541.425	32.72
541.852	32.74
542.28	32.77
542.707	32.84
543.134	32.87
543.561	32.89
543.988	32.91
544.415	32.92
544.842	32.97
545.269	33.02
545.696	33.04
546.123	33.06
546.549	33.1
546.976	33.15
547.403	33.16
547.829	33.19
548.256	33.23
548.682	33.23
549.108	33.25
549.535	33.27
549.961	33.27
550.387	33.27
550.813	33.27
551.24	33.27
551.666	33.27
552.092	33.27
552.518	33.27
552.943	33.27
553.369	33.28
553.795	33.26
554.221	33.25
554.646	33.23
555.072	33.21
555.498	33.18
555.923	33.13
556.349	33.07
556.774	33.03
557.199	32.98
557.625	32.93
558.05	32.84
558.475	32.78
558.9	32.72
559.325	32.64
559.75	32.56
560.175	32.47
560.6	32.37
561.025	32.3
561.449	32.18
561.874	32.07
562.299	31.95
562.723	31.84
563.148	31.72
563.572	31.59
563.997	31.46
564.421	31.3
564.846	31.16
565.27	31.03
565.694	30.86
566.118	30.71
566.542	30.56
566.966	30.4
567.39	30.23
567.814	30.06
568.238	29.87
568.662	29.71
569.086	29.53
569.509	29.36
569.933	29.17
570.357	28.97
570.78	28.8
571.204	28.6
571.627	28.41
572.05	28.26
572.474	28.08
572.897	27.91
573.32	27.72
573.743	27.59
574.166	27.43
574.589	27.29
575.012	27.17
575.435	27
575.858	26.87
576.281	26.75
576.704	26.65
577.126	26.52
577.549	26.42
577.972	26.33
578.394	26.19
578.817	26.08
579.239	25.96
579.661	25.88
580.084	25.79
580.506	25.69
580.928	25.57
581.35	25.48
581.772	25.39
582.194	25.29
582.616	25.21
583.038	25.14
583.46	25.06
583.882	25
584.303	24.91
584.725	24.84
585.147	24.76
585.568	24.69
585.99	24.6
586.411	24.53
586.833	24.47
587.254	24.41
587.675	24.35
588.096	24.3
588.518	24.24
588.939	24.19
589.36	24.13
589.781	24.08
590.202	24.05
590.623	23.99
591.043	23.94
591.464	23.88
591.885	23.82
592.305	23.78
592.726	23.72
593.147	23.68
593.567	23.63
593.987	23.61
594.408	23.58
594.828	23.54
595.248	23.53
595.669	23.49
596.089	23.46
596.509	23.4
596.929	23.35
597.349	23.3
597.769	23.26
598.189	23.22
598.608	23.15
599.028	23.09
599.448	23.04
599.867	22.96
600.287	22.9
600.706	22.84
601.126	22.8
601.545	22.75
601.965	22.69
602.384	22.64
602.803	22.55
603.222	22.48
603.641	22.42
604.061	22.33
604.48	22.26
604.898	22.17
605.317	22.1
605.736	22.01
606.155	21.92
606.574	21.84
606.992	21.72
607.411	21.65
607.829	21.53
608.248	21.42
608.666	21.33
609.085	21.24
609.503	21.14
609.921	21.04
610.339	20.96
610.758	20.85
611.176	20.75
611.594	20.67
612.012	20.57
612.43	20.49
612.847	20.4
613.265	20.31
613.683	20.22
614.101	20.13
614.518	20.04
614.936	19.93
615.353	19.85
615.771	19.77
616.188	19.69
616.606	19.61
617.023	19.54
617.44	19.47
617.857	19.4
618.274	19.35
618.691	19.29
619.108	19.24
619.525	19.19
619.942	19.15
620.359	19.1
620.776	19.06
621.192	19.02
621.609	18.98
622.026	18.96
622.442	18.92
622.859	18.88
623.275	18.86
623.691	18.84
624.108	18.83
624.524	18.8
624.94	18.77
625.356	18.76
625.772	18.75
626.188	18.74
626.604	18.7
627.02	18.69
627.436	18.67
627.852	18.65
628.268	18.63
628.683	18.61
629.099	18.58
629.514	18.56
629.93	18.53
630.345	18.49
630.761	18.45
631.176	18.42
631.591	18.36
632.007	18.3
632.422	18.25
632.837	18.17
633.252	18.09
633.667	18.01
634.082	17.92
634.497	17.8
634.911	17.7
635.326	17.55
635.741	17.43
636.155	17.31
636.57	17.18
636.984	17.01
637.399	16.85
637.813	16.7
638.228	16.55
638.642	16.4
639.056	16.24
639.47	16.06
639.884	15.92
640.298	15.75
640.712	15.58
641.126	15.39
641.54	15.23
641.954	15.08
642.368	14.9
642.781	14.7
643.195	14.5
643.609	14.33
644.022	14.17
644.436	14.02
644.849	13.86
645.262	13.73
645.676	13.59
646.089	13.46
646.502	13.33
646.915	13.23
647.328	13.13
647.741	13.04
648.154	12.95
648.567	12.87
648.98	12.78
649.393	12.72
649.805	12.65
650.218	12.59
650.631	12.51
651.043	12.45
651.456	12.38
651.868	12.31
652.28	12.27
652.693	12.18
653.105	12.12
653.517	12.04
653.929	11.96
654.341	11.88
654.753	11.79
655.165	11.71
655.577	11.6
655.989	11.49
656.401	11.4
656.813	11.26
657.224	11.17
657.636	11.06
658.047	10.93
658.459	10.79
658.87	10.66
659.282	10.56
659.693	10.42
660.104	10.28
660.515	10.17
660.926	10.05
661.338	9.93
661.749	9.79
662.159	9.68
662.57	9.56
662.981	9.45
663.392	9.33
663.803	9.22
664.213	9.12
664.624	9.02
665.035	8.92
665.445	8.83
665.855	8.74
666.266	8.67
666.676	8.6
667.086	8.54
667.497	8.47
667.907	8.41
668.317	8.36
668.727	8.31
669.137	8.29
669.547	8.28
669.956	8.25
670.366	8.25
670.776	8.23
671.186	8.23
671.595	8.22
672.005	8.23
672.414	8.21
672.824	8.22
673.233	8.23
673.642	8.22
674.052	8.22
674.461	8.23
674.87	8.24
675.279	8.26
675.688	8.28
676.097	8.32
676.506	8.36
676.915	8.41
677.323	8.46
677.732	8.53
678.141	8.6
678.549	8.7
678.958	8.78
679.366	8.87
679.775	8.98
680.183	9.11
680.592	9.23
681	9.37
681.408	9.54
681.816	9.71
682.224	9.91
682.632	10.12
683.04	10.36
683.448	10.63
683.856	10.91
684.264	11.23
684.671	11.58
685.079	11.96
685.487	12.36
685.894	12.8
686.302	13.25
686.709	13.73
687.116	14.24
687.524	14.76
687.931	15.32
688.338	15.9
688.745	16.52
689.152	17.16
689.559	17.82
689.966	18.48
690.373	19.19
690.78	19.89
691.187	20.61
691.593	21.34
692	22.09
692.407	22.81
692.813	23.56
693.22	24.28
693.626	24.99
694.032	25.71
694.439	26.44
694.845	27.11
695.251	27.82
695.657	28.49
696.063	29.17
696.469	29.85
696.875	30.5
697.281	31.12
697.687	31.77
698.093	32.39
698.498	32.99
698.904	33.57
699.31	34.14
699.715	34.71
700.12	35.26
700.526	35.8
700.931	36.29
701.337	36.82
701.742	37.31
702.147	37.8
702.552	38.29
702.957	38.76
703.362	39.23
703.767	39.69
704.172	40.12
704.577	40.58
704.981	41
705.386	41.41
705.791	41.8
706.195	42.2
706.6	42.56
707.004	42.94
707.408	43.3
707.813	43.65
708.217	44.01
708.621	44.37
709.025	44.68
709.43	45
709.834	45.36
710.237	45.65
710.641	45.99
711.045	46.28
711.449	46.55
711.853	46.85
712.256	47.14
712.66	47.38
713.064	47.66
713.467	47.92
713.87	48.19
714.274	48.45
714.677	48.7
715.08	48.89
715.484	49.15
715.887	49.39
716.29	49.6
716.693	49.81
717.096	50.06
717.499	50.26
717.901	50.43
718.304	50.63
718.707	50.78
719.109	51.01
719.512	51.26
719.915	51.44
720.317	51.62
720.719	51.8
721.122	51.97
721.524	52.13
721.926	52.3
722.328	52.5
722.731	52.64
723.133	52.81
723.535	52.97
723.937	53.08
724.338	53.21
724.74	53.36
725.142	53.36
725.544	53.48
725.945	53.6
726.347	53.73
726.748	53.81
727.15	53.89
727.551	53.98
727.952	54.04
728.354	54.17
728.755	54.28
729.156	54.36
729.557	54.55
729.958	54.63
730.359	54.7
730.76	54.74
731.161	54.82
731.562	54.9
731.962	54.97
732.363	55.05
732.763	55.12
733.164	55.13
733.564	55.18
733.965	55.21
734.365	55.28
734.766	55.32
735.166	55.36
735.566	55.38
735.966	55.41
736.366	55.45
736.766	55.46
737.166	55.5
737.566	55.54
737.966	55.59
738.365	55.63
738.765	55.66
739.165	55.68
739.564	55.72
739.964	55.78
740.363	55.8
740.763	55.82
741.162	55.82
741.561	55.81
741.96	55.86
742.36	55.86
742.759	55.87
743.158	55.88
743.557	55.93
743.955	55.96
744.354	56.02
744.753	56.07
745.152	56.07
745.55	56.1
745.949	56.14
746.348	56.15
746.746	56.19
747.144	56.23
747.543	56.31
747.941	56.32
748.339	56.39
748.737	56.45
749.136	56.46
749.534	56.56
749.932	56.59
750.33	56.59
750.727	56.6
751.125	56.59
751.523	56.6
751.921	56.58
752.318	56.57
752.716	56.5
753.113	56.43
753.511	56.41
753.908	56.34
754.305	56.3
754.703	56.29
755.1	56.25
755.497	56.23
755.894	56.22
756.291	56.18
756.688	56.18
757.085	56.18
757.482	56.19
757.878	56.18
758.275	56.19
758.672	56.23
759.068	56.24
759.465	56.26
759.861	56.28
760.258	56.23
760.654	56.23
761.05	56.21
761.447	56.19
761.843	56.11
762.239	56.08
762.635	56.06
763.031	56.02
763.427	55.97
763.822	55.94
764.218	55.92
764.614	55.95
765.01	55.92
765.405	55.91
765.801	55.89
766.196	55.94
766.592	55.95
766.987	55.95
767.382	55.94
767.778	55.95
768.173	55.92
768.568	55.9
768.963	55.9
769.358	55.87
769.753	55.91
770.148	55.91
770.542	55.9
770.937	55.9
771.332	55.89
771.726	55.87
772.121	55.88
772.515	55.88
772.91	55.9
773.304	55.86
773.699	55.91
774.093	55.84
774.487	55.85
774.881	55.87
775.275	55.89
775.669	55.9
776.063	55.88
776.457	55.88
776.851	55.87
777.245	55.88
777.638	55.88
778.032	55.89
778.425	55.93
778.819	55.97
779.212	55.94
779.606	55.88
779.999	55.88
780.392	55.89
780.786	55.91
781.179	55.94
781.572	55.92
781.965	55.92
782.358	55.87
782.751	55.89
783.143	55.87
783.536	55.92
783.929	56
784.322	56
784.714	56
785.107	56.02
785.499	56.02
785.891	56.03
786.284	56.04
786.676	56.1
787.068	56.11
787.46	56.11
787.852	56.12
788.245	56.08
788.636	56.09
789.028	56.12
789.42	56.1
789.812	56.11
790.204	56.12
790.595	56.11
790.987	56.08
791.378	56.1
791.77	56.13
792.161	56.12
792.553	56.14
792.944	56.19
793.335	56.2
793.726	56.2
794.117	56.17
794.508	56.21
794.899	56.23
795.29	56.22
795.681	56.21
796.072	56.19
796.463	56.14
796.853	56.13
797.244	56.11
797.634	56.12
798.025	56.12
798.415	56.14
798.806	56.13
799.196	56.15
799.586	56.18
799.976	56.18
800.366	56.18
800.756	56.23
801.146	56.24
801.536	56.23
801.926	56.21
802.316	56.26
802.706	56.28
803.095	56.29
803.485	56.33
803.874	56.33
804.264	56.36
804.653	56.38
805.043	56.38
805.432	56.36
805.821	56.37
806.21	56.42
806.599	56.43
806.988	56.44
807.377	56.49
807.766	56.48
808.155	56.47
808.544	56.48
808.933	56.51
809.321	56.54
809.71	56.63
810.098	56.65
810.487	56.66
810.875	56.65
811.264	56.66
811.652	56.64
812.04	56.61
812.428	56.63
812.816	56.62
813.204	56.61
813.592	56.6
813.98	56.58
814.368	56.59
814.756	56.59
815.144	56.6
815.531	56.62
815.919	56.65
816.306	56.7
816.694	56.74
817.081	56.77
817.469	56.81
817.856	56.89
818.243	56.87
818.63	56.94
819.017	56.97
819.404	56.97
819.791	56.99
820.178	56.98
820.565	56.99
820.952	56.98
821.339	57.01
821.725	57.03
822.112	57.01
822.498	57.03
822.885	57
823.271	57
823.657	57
824.044	56.97
824.43	57
824.816	56.99
825.202	56.97
825.588	56.98
825.974	56.98
826.36	56.96
826.746	56.99
827.132	56.97
827.517	56.97
827.903	56.99
828.289	56.99
828.674	56.96
829.06	56.97
829.445	56.98
829.83	56.97
830.216	56.94
830.601	56.92
830.986	56.9
831.371	56.93
831.756	56.9
832.141	56.9
832.526	56.9
832.911	56.93
833.295	56.94
833.68	56.92
834.065	56.95
834.449	56.93
834.834	56.93
835.218	56.93
835.603	56.91
835.987	56.91
836.371	56.9
836.755	56.88
837.139	56.88
837.524	56.87
837.908	56.86
838.291	56.81
838.675	56.83
839.059	56.79
839.443	56.78
839.827	56.77
840.21	56.8
840.594	56.8
840.977	56.79
841.361	56.75
841.744	56.8
842.127	56.79
842.511	56.79
842.894	56.78
843.277	56.83
843.66	56.84
844.043	56.85
844.426	56.81
844.809	56.82
845.191	56.84
845.574	56.85
845.957	56.79
846.339	56.79
846.722	56.81
847.104	56.81
847.487	56.8
847.869	56.76
848.252	56.75
848.634	56.75
849.016	56.76
849.398	56.76
849.78	56.76
850.162	56.76
850.544	56.79
850.926	56.76
851.307	56.77
851.689	56.75
852.071	56.77
852.452	56.78
852.834	56.75
853.215	56.73
853.597	56.71
853.978	56.71
854.359	56.71
854.741	56.7
855.122	56.69
855.503	56.68
855.884	56.69
856.265	56.68
856.646	56.66
857.026	56.7
857.407	56.68
857.788	56.7
858.169	56.67
858.549	56.7
858.93	56.72
859.31	56.7
859.69	56.7
860.071	56.69
860.451	56.71
860.831	56.74
861.211	56.74
861.591	56.77
861.971	56.78
862.351	56.82
862.731	56.8
863.111	56.76
863.491	56.79
863.87	56.78
864.25	56.8
864.629	56.76
865.009	56.73
865.388	56.73
865.768	56.73
866.147	56.7
866.526	56.66
866.905	56.66
867.284	56.66
867.663	56.67
868.042	56.68
868.421	56.65
868.8	56.7
869.179	56.74
869.558	56.7
869.936	56.68
870.315	56.69
870.693	56.7
871.072	56.67
871.45	56.66
871.828	56.65
872.207	56.64
872.585	56.64
872.963	56.59
873.341	56.58
873.719	56.6
874.097	56.59
874.475	56.62
874.853	56.63
875.23	56.67
875.608	56.7
875.986	56.7
876.363	56.71
876.741	56.7
877.118	56.72
877.495	56.72
877.873	56.71
878.25	56.73
878.627	56.7
879.004	56.72
879.381	56.73
879.758	56.74
880.135	56.74
880.512	56.75
880.889	56.77
881.265	56.81
881.642	56.81
882.019	56.82
882.395	56.84
882.772	56.86
883.148	56.88
883.524	56.88
883.901	56.86
884.277	56.85
884.653	56.84
885.029	56.83
885.405	56.84
885.781	56.82
886.157	56.81
886.532	56.77
886.908	56.76
887.284	56.74
887.659	56.72
888.035	56.73
888.411	56.71
888.786	56.7
889.161	56.7
889.537	56.67
889.912	56.63
890.287	56.6
890.662	56.6
891.037	56.56
891.412	56.51
891.787	56.49
892.162	56.44
892.536	56.41
892.911	56.39
893.286	56.33
893.66	56.31
894.035	56.31
894.409	56.31
894.784	56.28
895.158	56.29
895.532	56.27
895.906	56.26
896.281	56.27
896.655	56.24
897.029	56.21
897.402	56.21
897.776	56.2
898.15	56.21
898.524	56.2
898.898	56.18
899.271	56.16
899.645	56.14
900.018	56.1
900.392	56.09
900.765	56.13
901.138	56.16
901.511	56.17
901.884	56.15
902.258	56.1
902.631	56.11
903.003	56.13
903.376	56.13
903.749	56.14
904.122	56.19
904.495	56.19
904.867	56.15
905.24	56.13
905.612	56.13
905.985	56.12
906.357	56.11
906.729	56.07
907.102	56.04
907.474	56.04
907.846	56
908.218	55.97
908.59	55.95
908.962	55.99
909.334	55.97
909.705	55.95
910.077	55.96
910.449	55.94
910.82	55.97
911.192	55.99
911.563	56
911.935	56.01
912.306	56.04
912.677	56.04
913.048	55.98
913.419	55.98
913.79	55.96
914.161	55.93
914.532	55.94
914.903	55.95
915.274	55.92
915.645	55.92
916.015	55.92
916.386	55.84
916.756	55.83
917.127	55.81
917.497	55.79
917.868	55.8
918.238	55.82
918.608	55.84
918.978	55.78
919.348	55.76
919.718	55.72
920.088	55.74
920.458	55.79
920.828	55.79
921.198	55.82
921.567	55.81
921.937	55.83
922.306	55.79
922.676	55.78
923.045	55.76
923.415	55.75
923.784	55.75
924.153	55.71
924.522	55.67
924.891	55.66
925.26	55.65
925.629	55.65
925.998	55.61
926.367	55.58
926.736	55.57
927.104	55.6
927.473	55.59
927.842	55.54
928.21	55.58
928.578	55.54
928.947	55.55
929.315	55.54
929.683	55.53
930.051	55.52
930.42	55.53
930.788	55.48
931.156	55.44
931.523	55.41
931.891	55.39
932.259	55.28
932.627	55.21
932.994	55.15
933.362	55.01
933.729	54.87
934.097	54.76
934.464	54.69
934.831	54.61
935.199	54.53
935.566	54.45
935.933	54.38
936.3	54.34
936.667	54.3
937.034	54.17
937.401	54.18
937.767	54.23
938.134	54.21
938.501	54.12
938.867	54.22
939.234	54.31
939.6	54.4
939.967	54.44
940.333	54.58
940.699	54.69
941.065	54.88
941.431	54.96
941.798	55
942.163	55.14
942.529	55.29
942.895	55.28
943.261	55.22
943.627	55.29
943.992	55.31
944.358	55.22
944.723	55.28
945.089	55.27
945.454	55.34
945.82	55.37
946.185	55.47
946.55	55.55
946.915	55.64
947.28	55.67
947.645	55.66
948.01	55.68
948.375	55.7
948.74	55.65
949.104	55.67
949.469	55.58
949.834	55.58
950.198	55.47
950.562	55.43
950.927	55.35
951.291	55.32
951.655	55.22
952.02	55.2
952.384	55.22
952.748	55.21
953.112	55.12
953.476	55.11
953.839	54.97
954.203	54.93
954.567	54.91
954.931	54.86
955.294	54.8
955.658	54.83
956.021	54.81
956.385	54.83
956.748	54.82
957.111	54.8
957.474	54.84
957.837	54.93
958.2	54.91
958.563	54.85
958.926	54.84
959.289	54.86
959.652	54.75
960.015	54.75
960.377	54.64
960.74	54.53
961.102	54.52
961.465	54.41
961.827	54.21
962.189	54.15
962.552	54.11
962.914	54.08
963.276	54.01
963.638	54.02
964	53.95
964.362	53.99
964.724	54.05
965.085	54.1
965.447	54.08
965.809	54.14
966.17	54.16
966.532	54.15
966.893	54.11
967.255	54.16
967.616	54.16
967.977	54.15
968.338	54.09
968.699	54.03
969.061	53.99
969.421	54.06
969.782	54.12
970.143	54.07
970.504	54.06
970.865	54.02
971.225	53.95
971.586	53.93
971.946	53.92
972.307	53.86
972.667	53.84
973.027	53.84
973.388	53.75
973.748	53.7
974.108	53.63
974.468	53.64
974.828	53.66
975.188	53.66
975.548	53.68
975.907	53.7
976.267	53.73
976.627	53.67
976.986	53.66
977.346	53.65
977.705	53.64
978.064	53.74
978.424	53.62
978.783	53.58
979.142	53.52
979.501	53.47
979.86	53.48
980.219	53.39
980.578	53.36
980.937	53.26
981.296	53.31
981.654	53.33
982.013	53.34
982.371	53.44
982.73	53.44
983.088	53.42
983.447	53.4
983.805	53.41
984.163	53.46
984.521	53.44
984.879	53.42
985.237	53.44
985.595	53.48
985.953	53.44
986.311	53.54
986.669	53.52
987.026	53.6
987.384	53.66
987.741	53.67
988.099	53.62
988.456	53.7
988.814	53.83
989.171	53.79
989.528	53.79
989.885	53.68
990.242	53.66
990.599	53.78
990.956	53.79
991.313	53.91
991.67	53.98
992.027	53.92
992.383	53.99
992.74	53.9
993.096	53.81
993.453	53.68
993.809	53.81
994.165	53.68
994.522	53.49
994.878	53.49
995.234	53.31
995.59	53.14
995.946	53.27
996.302	53.24
996.658	53.26
997.013	53.4
997.369	53.4
997.725	53.46
998.08	53.37
998.436	53.65
998.791	53.63
999.147	53.64
999.502	53.65
999.857	53.78
1000.212	53.72
1000.567	53.86
1000.922	53.72
1001.277	53.75
1001.632	53.78
1001.987	53.86
1002.342	53.73
1002.696	53.86
1003.051	53.76
1003.406	53.76
1003.76	53.73
1004.114	53.85
1004.469	53.62
1004.823	53.77
1005.177	53.95
1005.531	53.73
1005.885	53.89
1006.239	53.9
1006.593	53.77
1006.947	53.77
1007.301	53.86
1007.655	53.72
1008.008	53.58
1008.362	53.6
1008.715	53.3
1009.069	53.13
1009.422	53.25
1009.776	53.25
1010.129	53.03
1010.482	53.13
1010.835	53.34
1011.188	53.19
1011.541	53.06
1011.894	53.05
1012.247	53.12
1012.6	53.21
1012.952	53.36
1013.305	53.2
1013.657	53.12
1014.01	53.45
1014.362	53.48
1014.715	53.21
1015.067	53.34
1015.419	53.51
1015.771	53.59
1016.123	53.58
1016.475	53.83
1016.827	53.69
1017.179	53.85
1017.531	53.64
1017.883	53.54
1018.234	53.61
1018.586	53.74
1018.938	53.47
1019.289	53.81
1019.64	53.99
1019.992	54.22
1020.343	54.21
1020.694	53.88
1021.045	53.86
1021.396	54.09
1021.747	53.85
1022.098	53.69
1022.449	53.76
1022.8	53.93
1023.151	53.71
1023.501	53.97
1023.852	53.93
1024.202	53.59
1024.553	53.89
1024.903	53.89
1025.253	53.83
1025.604	53.96
1025.954	53.63
1026.304	54.15
1026.654	54.61
1027.004	54.69
1027.354	54.07
1027.703	53.97
1028.053	54.37
1028.403	54.81
1028.753	55.14
1029.102	55.23
1029.452	55.38
1029.801	55.77
1030.15	55.39
1030.499	55.11
897.758	233.28
901.051	230.53
904.343	238.3
907.636	231.94
910.928	232.34
914.22	234.69
917.511	225.19
920.803	219.66
924.094	209.13
927.384	210.44
930.675	204
933.965	201.7
937.255	205.12
940.544	194.37
943.834	189.85
947.123	185.58
950.411	176.59
953.7	176.22
956.988	173.9
960.276	169.23
963.563	167.97
966.851	162.27
970.138	158.29
973.424	149.23
976.711	150.69
979.997	144.54
983.283	142.27
986.568	139.38
989.853	135.98
993.138	131.46
996.423	132.7
999.708	129.65
1002.992	129.29
1006.275	128.21
1009.559	126.91
1012.842	123.53
1016.125	121.36
1019.408	118.83
1022.69	119.46
1025.972	116.81
1029.254	115.51
1032.536	111.8
1035.817	108.99
1039.098	108.02
1042.379	107.09
1045.659	107.25
1048.939	104.02
1052.219	104.96
1055.498	103.81
1058.778	102.21
1062.057	101.83
1065.335	101.94
1068.614	101.2
1071.892	101.73
1075.17	100.41
1078.447	98.91
1081.724	98.01
1085.001	96.09
1088.278	95.57
1091.554	96.95
1094.83	95.88
1098.106	96.09
1101.382	95.17
1104.657	95.43
1107.932	94.91
1111.206	94.3
1114.481	93.43
1117.755	91.94
1121.029	93.36
1124.302	92.03
1127.575	91.03
1130.848	90.39
1134.121	88.93
1137.393	88.62
1140.665	87.39
1143.937	86.01
1147.208	84.98
1150.48	84.47
1153.75	84.46
1157.021	83.58
1160.291	83.63
1163.561	81.77
1166.831	83.45
1170.101	83.49
1173.37	81.58
1176.639	81.37
1179.907	81.25
1183.176	80.74
1186.444	80.36
1189.711	80.23
1192.979	80.33
1196.246	80.53
1199.513	81.26
1202.78	79.35
1206.046	79.65
1209.312	81.11
1212.578	81.12
1215.843	82.47
1219.108	82.8
1222.373	84.61
1225.638	85.51
1228.902	87.3
1232.166	87.92
1235.43	87.46
1238.693	89.79
1241.956	90.85
1245.219	93.22
1248.482	94.28
1251.744	93.23
1255.006	94.13
1258.268	91.2
1261.529	91.17
1264.79	89.34
1268.051	88.99
1271.312	88.33
1274.572	87.07
1277.832	85.99
1281.092	84.63
1284.351	82.98
1287.61	82.98
1290.869	83.31
1294.128	83.73
1297.386	82.93
1300.644	82.15
1303.902	80.73
1307.159	80.81
1310.416	80.78
1313.673	81.67
1316.93	81.98
1320.186	83.72
1323.442	83.54
1326.697	83.12
1329.953	82.94
1333.208	84.49
1336.463	87.1
1339.717	88.75
1342.972	92.24
1346.226	92.99
1349.479	92.4
1352.733	95.16
1355.986	93.42
1359.238	95.13
1362.491	95.55
1365.743	98.22
1368.995	98.62
1372.247	94.56
1375.498	93.95
1378.749	93.57
1382	93.21
1385.251	92.4
1388.501	91.57
1391.751	92.65
1395	91.56
1398.25	91.52
1401.499	89.73
1404.748	87.84
1407.996	88.43
1411.244	88.13
1414.492	87.1
1417.74	83.98
1420.987	83.42
1424.234	81.11
1427.481	77.21
1430.728	76.12
1433.974	74.05
1437.22	72.37
1440.465	68.5
1443.711	67.1
1446.956	65.83
1450.201	61.81
1453.445	59.22
1456.689	57.06
1459.933	56.08
1463.177	53.83
1466.42	52.19
1469.663	51.04
1472.906	49.22
1476.148	48.38
1479.391	48.33
1482.633	46.96
1485.874	47.76
1489.115	48.13
1492.356	47.39
1495.597	46.71
1498.838	47.84
1502.078	48.06
1505.318	48.15
1508.557	47.54
1511.797	48.7
1515.036	48.41
1518.274	49.21
1521.513	48.42
1524.751	48.45
1527.989	49.19
1531.227	49.51
1534.464	49.72
1537.701	50.11
1540.938	49.61
1544.174	50.01
1547.41	50.64
1550.646	51.23
1553.882	50.85
1557.117	51.95
1560.352	52.07
1563.587	51.74
1566.821	51.85
1570.055	52.08
1573.289	52.23
1576.523	52.57
1579.756	53.3
1582.989	53.09
1586.222	53.02
1589.454	53.69
1592.686	53.1
1595.918	53.06
1599.15	53.54
1602.381	53.76
1605.612	54.02
1608.843	53.62
1612.073	54.32
1615.303	54.97
1618.533	54.59
1621.762	54.54
1624.992	54.48
1628.221	55.22
1631.449	55.48
1634.678	55.74
1637.906	55.31
1641.134	55.31
1644.361	55.91
1647.588	55.48
1650.815	55.08
1654.042	55.64
1657.269	55.83
1660.495	56.09
1663.72	55.7
1666.946	55.55
1670.171	55.85
1673.396	56.36
1676.621	56.34
1679.845	56.93
1683.069	56.63
1686.293	56.47
1689.517	56.55
1692.74	56.56
1695.963	56.42
1699.185	56.91
1702.408	56.91
1705.63	56.54
1708.852	56.91
1712.073	56.76
1715.294	55.96
1718.515	57.2
1721.736	57.15
1724.956	57.07
1728.176	56.77
1731.396	56.55
1734.616	56.81
1737.835	56.8
1741.054	56.36
1744.272	56.21
1747.491	55.57
1750.709	56.11
1753.927	55.32
1757.144	55.27
1760.361	55.04
1763.578	54.82
1766.795	55.28
1770.011	55.16
1773.227	55.01
1776.443	55.73
1779.658	55.03
1782.874	56.31
1786.089	55.17
1789.303	55.29
1792.518	55.42
1795.732	55.81
1798.945	57.08
1802.159	56.58
1805.372	56.43
1808.585	57.21
1811.797	56.41
1815.01	57.7
1818.222	57.33
1821.434	57.93
1824.645	57.79
1827.856	58.18
1831.067	57.9
1834.278	57.31
1837.488	57.88
1840.698	58.01
1843.908	57.83
1847.117	58.91
1850.326	57.99
1853.535	57.56
1856.744	57.81
1859.952	57.83
1863.16	57.24
1866.368	56.82
1869.575	56.7
1872.782	55.24
1875.989	53.1
1879.196	52.57
1882.402	50.94
1885.608	50.85
1888.814	50.04
1892.019	49.12
1895.224	47.94
1898.429	48.37
1901.634	47.3
1904.838	46.97
1908.042	47.46
1911.246	48.06
1914.449	48.47
1917.652	47.06
1920.855	46.65
1924.058	46.29
1927.26	45.46
1930.462	46.36
1933.664	45.9
1936.865	46.34
1940.066	44.59
1943.267	45.32
1946.467	45.29
1949.668	45.05
1952.868	46.66
1956.067	47.18
1959.267	47.91
1962.466	48.36
1965.665	48.52
1968.863	49.23
1972.061	49.15
1975.259	51.81
1978.457	50.46
1981.654	51.52
1984.852	52.01
1988.048	52.35
1991.245	53.06
1994.441	53.86
1997.637	54.91
2000.833	57.87
2004.028	56.61
2007.223	58.23
2010.418	58.77
2013.613	62.51
2016.807	64.4
2020.001	64.85
2023.194	67.68
2026.388	69.61
2029.581	72.66
2032.774	74.13
2035.966	73.68
2039.158	78.33
2042.35	78.72
2045.542	81.11
2048.733	81.73
2051.924	81.55
2055.115	82.09
2058.306	81.36
2061.496	81.7
2064.686	83.09
2067.875	84.24
2071.065	84.89
2074.254	83.9
2077.442	87.27
2080.631	86.58
2083.819	89.24
2087.007	91.7
2090.195	95.93
2093.382	94.47
2096.569	95.73
2099.756	97.05
2102.942	98.95
2106.128	101.19
2109.314	104.04
2112.5	105.36
2115.685	102.23
2118.87	102.31
2122.055	103.92
2125.239	103.41
2128.424	108.35
2131.608	104.91
2134.791	104.15
2137.974	105.22
2141.157	106.63
2144.34	105.43
2147.523	109.48
2150.705	114.95
2153.887	115.26
2157.068	116.84
2160.25	117.94
2163.431	117.32
2166.611	122.05
2169.792	123.16
2172.972	126.55
2176.152	125.28
2179.331	127.86
2182.511	127.19
2185.69	129.19
2188.868	128.71
2192.047	133.65
2195.225	137.91
2198.403	139
2201.58	137.51
2204.758	142.57
2207.935	141.26
2211.111	143.99
2214.288	144.95
2217.464	145.6
2220.64	145.47
2223.815	148.04
2226.991	143.12
2230.166	143.37
2233.34	147.37
2236.515	150.74
2239.689	147.44
2242.863	149.01
2246.036	148.76
2249.209	153.21
2252.382	149.53
2255.555	153.47
2258.727	156.24
2261.9	159.71
2265.071	161.4
2268.243	160.21
2271.414	165.74
2274.585	169.42
2277.756	171.25
2280.926	176.75
2284.096	177.9
2287.266	181.95
2290.436	181.21
2293.605	184.71
2296.774	190.03
2299.942	193.06
2303.111	197.52
2306.279	203.74
2309.447	204.9
2312.614	201.58
2315.781	204.54
2318.948	205.74
2322.115	213.28
2325.281	222.82
2328.447	216.49
2331.613	218.66
2334.779	217.21
2337.944	219.94
2341.109	218.74
2344.274	222.04
2347.438	231.84
2350.602	239.18
2353.766	249.18
2356.929	245.44
2360.092	249.45
2363.255	256.9
2366.418	261.8
2369.58	262.6
2372.742	270.44
2375.904	271.17
2379.066	278.14
2382.227	281.9
2385.388	275.11
2388.548	262.8
2391.709	263.2
2394.869	263.69
2398.029	266.59
2401.188	262.06
2404.347	269.85
2407.506	273.63
2410.665	265.14
2413.823	272.98
2416.981	278.61
2420.139	273.85
2423.296	294.01
2426.453	312.5
2429.61	300.7
2432.767	315.85
2435.923	334.84
2439.079	327.49
2442.235	332.07
2445.391	342.54
2448.546	333.86
2451.701	347.44
2454.855	358.21
2458.009	330.16
2461.163	333.12
2464.317	337.74
2467.471	333.68
2470.624	343.95
2473.777	338.68
2476.929	330.7
2480.082	341.96
2483.234	359.45
2486.385	374.78
2489.537	385.19
2492.688	414.61
2495.839	409.92
2498.989	427.56
2502.14	430.02
2505.29	409.18
2508.439	441.14
2511.589	446.55
2514.738	449.27
2517.887	442.84
2521.035	407.11
2524.183	398.63
2527.331	402.82
2530.479	393
2533.627	396.17
