Data from C_2_dec_va_2n_050_Splice17_01.txt Node
Date: Sat Feb 29 14:34:05 EST 2020
User: sa697716
Spectrometer: FLMS03696
Trigger mode: 0
Integration Time (sec): 3.180400E-1
Scans to average: 20
Electric dark correction enabled: true
Nonlinearity correction enabled: true
Boxcar width: 5
XAxis mode: Wavelengths
Number of Pixels in Spectrum: 2048
>>>>>Begin Spectral Data<<<<<
187.83	82.67
188.298	88.93
188.766	79.99
189.233	74.91
189.701	76.74
190.169	68.54
190.636	80.27
191.104	102.4
191.571	407.13
192.039	347.1
192.506	-774.69
192.974	-1128.99
193.441	-6.65
193.908	91.83
194.375	127.15
194.842	145.41
195.31	34.47
195.777	84.97
196.244	36.76
196.711	23.67
197.177	19.98
197.644	19.34
198.111	17.02
198.578	16.58
199.045	16.32
199.511	16.61
199.978	16.93
200.445	17.01
200.911	17.01
201.378	17.32
201.844	17.57
202.31	18.22
202.777	18.44
203.243	18.83
203.709	19.16
204.176	18.63
204.642	18.87
205.108	18.92
205.574	19.21
206.04	19.09
206.506	18.91
206.972	18.75
207.438	18.28
207.903	18.92
208.369	18.72
208.835	18.63
209.301	19.21
209.766	18.92
210.232	19.12
210.697	19.29
211.163	19.3
211.628	19.26
212.094	19.34
212.559	19.2
213.024	18.69
213.49	18.78
213.955	18.87
214.42	18.53
214.885	18.18
215.35	17.77
215.815	17.3
216.28	16.93
216.745	16.53
217.21	16.03
217.675	15.59
218.14	15.05
218.604	14.61
219.069	14.14
219.534	13.78
219.998	13.49
220.463	13.24
220.927	13.09
221.392	12.87
221.856	12.73
222.32	12.55
222.785	12.43
223.249	12.33
223.713	12.22
224.177	12.11
224.642	12.05
225.106	11.99
225.57	11.89
226.034	11.77
226.497	11.67
226.961	11.53
227.425	11.42
227.889	11.33
228.353	11.23
228.816	11.13
229.28	10.99
229.744	10.87
230.207	10.74
230.671	10.65
231.134	10.52
231.597	10.4
232.061	10.3
232.524	10.22
232.987	10.1
233.45	9.99
233.914	9.89
234.377	9.82
234.84	9.73
235.303	9.64
235.766	9.55
236.229	9.46
236.691	9.39
237.154	9.31
237.617	9.21
238.08	9.13
238.542	9.04
239.005	8.95
239.468	8.85
239.93	8.77
240.393	8.7
240.855	8.61
241.317	8.55
241.78	8.47
242.242	8.39
242.704	8.32
243.166	8.25
243.629	8.18
244.091	8.12
244.553	8.07
245.015	8
245.477	7.93
245.939	7.87
246.4	7.81
246.862	7.76
247.324	7.7
247.786	7.66
248.247	7.61
248.709	7.55
249.17	7.5
249.632	7.46
250.093	7.4
250.555	7.36
251.016	7.32
251.477	7.27
251.939	7.23
252.4	7.19
252.861	7.16
253.322	7.11
253.783	7.09
254.244	7.06
254.705	7.02
255.166	7.02
255.627	6.98
256.088	6.94
256.549	6.91
257.009	6.88
257.47	6.86
257.931	6.82
258.391	6.8
258.852	6.77
259.312	6.74
259.773	6.71
260.233	6.68
260.694	6.66
261.154	6.64
261.614	6.62
262.074	6.6
262.534	6.57
262.994	6.55
263.455	6.54
263.915	6.52
264.374	6.5
264.834	6.48
265.294	6.46
265.754	6.43
266.214	6.41
266.673	6.39
267.133	6.36
267.593	6.35
268.052	6.33
268.512	6.3
268.971	6.28
269.431	6.26
269.89	6.24
270.349	6.22
270.809	6.22
271.268	6.21
271.727	6.2
272.186	6.18
272.645	6.17
273.104	6.16
273.563	6.16
274.022	6.15
274.481	6.13
274.94	6.12
275.399	6.12
275.857	6.1
276.316	6.09
276.775	6.07
277.233	6.05
277.692	6.03
278.15	6
278.609	5.98
279.067	5.95
279.525	5.93
279.984	5.91
280.442	5.87
280.9	5.85
281.358	5.84
281.816	5.81
282.274	5.8
282.732	5.78
283.19	5.78
283.648	5.77
284.106	5.76
284.564	5.75
285.021	5.74
285.479	5.74
285.937	5.74
286.394	5.71
286.852	5.71
287.309	5.71
287.767	5.7
288.224	5.68
288.682	5.67
289.139	5.66
289.596	5.64
290.053	5.62
290.511	5.6
290.968	5.58
291.425	5.57
291.882	5.54
292.339	5.52
292.796	5.5
293.252	5.48
293.709	5.46
294.166	5.45
294.623	5.43
295.079	5.42
295.536	5.41
295.992	5.4
296.449	5.39
296.905	5.37
297.362	5.36
297.818	5.35
298.274	5.33
298.731	5.32
299.187	5.32
299.643	5.3
300.099	5.29
300.555	5.27
301.011	5.26
301.467	5.25
301.923	5.24
302.379	5.23
302.835	5.22
303.291	5.21
303.746	5.19
304.202	5.17
304.658	5.17
305.113	5.14
305.569	5.14
306.024	5.12
306.479	5.11
306.935	5.1
307.39	5.1
307.845	5.08
308.301	5.07
308.756	5.07
309.211	5.06
309.666	5.06
310.121	5.06
310.576	5.05
311.031	5.05
311.486	5.05
311.94	5.04
312.395	5.04
312.85	5.04
313.305	5.04
313.759	5.03
314.214	5.03
314.668	5.02
315.123	5.01
315.577	5.01
316.032	5
316.486	4.99
316.94	4.98
317.394	4.97
317.849	4.95
318.303	4.94
318.757	4.94
319.211	4.92
319.665	4.93
320.119	4.92
320.572	4.91
321.026	4.91
321.48	4.9
321.934	4.9
322.387	4.89
322.841	4.89
323.295	4.88
323.748	4.87
324.202	4.87
324.655	4.86
325.108	4.84
325.562	4.82
326.015	4.81
326.468	4.8
326.921	4.79
327.374	4.79
327.827	4.78
328.28	4.76
328.733	4.75
329.186	4.74
329.639	4.73
330.092	4.73
330.545	4.72
330.997	4.72
331.45	4.71
331.903	4.71
332.355	4.7
332.808	4.69
333.26	4.69
333.713	4.7
334.165	4.69
334.617	4.7
335.069	4.7
335.522	4.71
335.974	4.7
336.426	4.71
336.878	4.7
337.33	4.7
337.782	4.71
338.234	4.71
338.686	4.7
339.137	4.71
339.589	4.69
340.041	4.69
340.493	4.67
340.944	4.67
341.396	4.66
341.847	4.65
342.299	4.63
342.75	4.61
343.201	4.59
343.653	4.57
344.104	4.56
344.555	4.55
345.006	4.54
345.457	4.54
345.908	4.54
346.359	4.54
346.81	4.54
347.261	4.53
347.712	4.53
348.163	4.53
348.613	4.53
349.064	4.51
349.515	4.5
349.965	4.48
350.416	4.47
350.866	4.47
351.317	4.46
351.767	4.46
352.217	4.45
352.668	4.44
353.118	4.44
353.568	4.45
354.018	4.46
354.468	4.46
354.918	4.46
355.368	4.45
355.818	4.44
356.268	4.44
356.718	4.44
357.168	4.43
357.617	4.43
358.067	4.42
358.517	4.42
358.966	4.42
359.416	4.42
359.865	4.42
360.315	4.42
360.764	4.43
361.213	4.43
361.663	4.43
362.112	4.44
362.561	4.43
363.01	4.43
363.459	4.43
363.908	4.42
364.357	4.42
364.806	4.42
365.255	4.43
365.703	4.42
366.152	4.42
366.601	4.42
367.05	4.43
367.498	4.42
367.947	4.42
368.395	4.43
368.844	4.43
369.292	4.43
369.74	4.44
370.189	4.43
370.637	4.44
371.085	4.45
371.533	4.45
371.981	4.46
372.429	4.47
372.877	4.48
373.325	4.5
373.773	4.52
374.221	4.53
374.669	4.55
375.116	4.57
375.564	4.59
376.012	4.62
376.459	4.64
376.907	4.66
377.354	4.67
377.801	4.71
378.249	4.73
378.696	4.75
379.143	4.78
379.591	4.81
380.038	4.83
380.485	4.86
380.932	4.88
381.379	4.9
381.826	4.93
382.273	4.96
382.72	4.98
383.166	5
383.613	5.03
384.06	5.06
384.506	5.07
384.953	5.09
385.4	5.12
385.846	5.14
386.292	5.17
386.739	5.18
387.185	5.22
387.631	5.24
388.078	5.27
388.524	5.28
388.97	5.29
389.416	5.3
389.862	5.31
390.308	5.34
390.754	5.36
391.2	5.39
391.645	5.41
392.091	5.41
392.537	5.42
392.983	5.43
393.428	5.45
393.874	5.48
394.319	5.49
394.765	5.5
395.21	5.51
395.655	5.5
396.101	5.48
396.546	5.48
396.991	5.48
397.436	5.46
397.881	5.46
398.326	5.48
398.771	5.48
399.216	5.49
399.661	5.49
400.106	5.49
400.551	5.48
400.995	5.47
401.44	5.47
401.885	5.45
402.329	5.45
402.774	5.43
403.218	5.4
403.663	5.38
404.107	5.37
404.551	5.36
404.995	5.34
405.44	5.33
405.884	5.32
406.328	5.32
406.772	5.31
407.216	5.31
407.66	5.3
408.104	5.3
408.547	5.3
408.991	5.27
409.435	5.24
409.879	5.24
410.322	5.24
410.766	5.23
411.209	5.22
411.653	5.21
412.096	5.19
412.54	5.18
412.983	5.18
413.426	5.17
413.869	5.17
414.312	5.18
414.756	5.19
415.199	5.21
415.642	5.22
416.085	5.22
416.527	5.24
416.97	5.26
417.413	5.25
417.856	5.25
418.298	5.23
418.741	5.24
419.184	5.22
419.626	5.19
420.069	5.17
420.511	5.15
420.953	5.14
421.396	5.12
421.838	5.11
422.28	5.13
422.722	5.13
423.164	5.13
423.606	5.12
424.048	5.13
424.49	5.14
424.932	5.12
425.374	5.12
425.816	5.11
426.258	5.09
426.699	5.05
427.141	5.01
427.582	4.99
428.024	4.98
428.465	4.97
428.907	4.96
429.348	4.96
429.789	4.95
430.231	4.94
430.672	4.94
431.113	4.94
431.554	4.96
431.995	4.97
432.436	4.97
432.877	4.95
433.318	4.94
433.759	4.95
434.2	4.94
434.64	4.95
435.081	4.94
435.522	4.94
435.962	4.96
436.403	4.96
436.843	4.96
437.284	4.98
437.724	5.02
438.164	5.03
438.604	5.05
439.045	5.06
439.485	5.06
439.925	5.06
440.365	5.06
440.805	5.03
441.245	5.02
441.685	5.03
442.125	5.01
442.564	5.01
443.004	5.02
443.444	5.03
443.883	5.02
444.323	5.03
444.762	5.06
445.202	5.09
445.641	5.13
446.081	5.18
446.52	5.17
446.959	5.19
447.398	5.21
447.837	5.25
448.276	5.25
448.716	5.27
449.154	5.28
449.593	5.3
450.032	5.3
450.471	5.33
450.91	5.32
451.349	5.34
451.787	5.35
452.226	5.33
452.664	5.31
453.103	5.31
453.541	5.32
453.98	5.3
454.418	5.28
454.856	5.26
455.295	5.24
455.733	5.23
456.171	5.23
456.609	5.23
457.047	5.22
457.485	5.22
457.923	5.21
458.361	5.19
458.798	5.19
459.236	5.2
459.674	5.21
460.111	5.2
460.549	5.19
460.987	5.17
461.424	5.15
461.862	5.16
462.299	5.15
462.736	5.15
463.173	5.15
463.611	5.15
464.048	5.15
464.485	5.14
464.922	5.14
465.359	5.15
465.796	5.13
466.233	5.15
466.67	5.16
467.106	5.15
467.543	5.17
467.98	5.17
468.416	5.19
468.853	5.19
469.29	5.2
469.726	5.21
470.162	5.2
470.599	5.22
471.035	5.21
471.471	5.18
471.907	5.19
472.344	5.18
472.78	5.18
473.216	5.16
473.652	5.16
474.088	5.16
474.523	5.16
474.959	5.16
475.395	5.15
475.831	5.14
476.266	5.14
476.702	5.13
477.138	5.14
477.573	5.13
478.008	5.13
478.444	5.13
478.879	5.13
479.314	5.13
479.75	5.15
480.185	5.14
480.62	5.15
481.055	5.15
481.49	5.14
481.925	5.13
482.36	5.14
482.795	5.13
483.229	5.13
483.664	5.12
484.099	5.12
484.534	5.09
484.968	5.1
485.403	5.1
485.837	5.1
486.271	5.11
486.706	5.11
487.14	5.12
487.574	5.12
488.009	5.13
488.443	5.15
488.877	5.16
489.311	5.18
489.745	5.2
490.179	5.22
490.613	5.24
491.046	5.26
491.48	5.29
491.914	5.31
492.348	5.33
492.781	5.36
493.215	5.38
493.648	5.42
494.082	5.46
494.515	5.48
494.948	5.52
495.382	5.57
495.815	5.6
496.248	5.66
496.681	5.7
497.114	5.75
497.547	5.8
497.98	5.86
498.413	5.92
498.846	5.98
499.279	6.06
499.711	6.12
500.144	6.19
500.577	6.27
501.009	6.35
501.442	6.43
501.874	6.53
502.306	6.62
502.739	6.71
503.171	6.82
503.603	6.93
504.036	7.04
504.468	7.17
504.9	7.3
505.332	7.44
505.764	7.58
506.196	7.73
506.627	7.87
507.059	8.03
507.491	8.18
507.923	8.35
508.354	8.53
508.786	8.71
509.217	8.89
509.649	9.09
510.08	9.29
510.512	9.49
510.943	9.69
511.374	9.92
511.805	10.13
512.237	10.38
512.668	10.61
513.099	10.86
513.53	11.12
513.961	11.38
514.391	11.62
514.822	11.88
515.253	12.15
515.684	12.41
516.114	12.69
516.545	12.98
516.975	13.26
517.406	13.53
517.836	13.8
518.267	14.08
518.697	14.37
519.127	14.67
519.558	14.96
519.988	15.23
520.418	15.53
520.848	15.82
521.278	16.12
521.708	16.34
522.138	16.62
522.567	16.9
522.997	17.17
523.427	17.43
523.857	17.67
524.286	17.94
524.716	18.19
525.145	18.43
525.575	18.67
526.004	18.89
526.433	19.16
526.863	19.38
527.292	19.6
527.721	19.8
528.15	19.99
528.579	20.19
529.008	20.36
529.437	20.53
529.866	20.69
530.295	20.85
530.724	21.01
531.152	21.16
531.581	21.31
532.01	21.42
532.438	21.57
532.867	21.69
533.295	21.79
533.723	21.91
534.152	22.02
534.58	22.12
535.008	22.19
535.436	22.28
535.865	22.36
536.293	22.43
536.721	22.49
537.149	22.53
537.576	22.6
538.004	22.67
538.432	22.71
538.86	22.77
539.287	22.82
539.715	22.88
540.143	22.91
540.57	22.96
540.998	23.02
541.425	23.07
541.852	23.12
542.28	23.14
542.707	23.17
543.134	23.2
543.561	23.23
543.988	23.28
544.415	23.32
544.842	23.35
545.269	23.38
545.696	23.4
546.123	23.44
546.549	23.46
546.976	23.51
547.403	23.53
547.829	23.57
548.256	23.59
548.682	23.6
549.108	23.62
549.535	23.62
549.961	23.63
550.387	23.64
550.813	23.64
551.24	23.66
551.666	23.69
552.092	23.71
552.518	23.69
552.943	23.69
553.369	23.68
553.795	23.65
554.221	23.65
554.646	23.64
555.072	23.62
555.498	23.59
555.923	23.55
556.349	23.47
556.774	23.4
557.199	23.37
557.625	23.31
558.05	23.23
558.475	23.15
558.9	23.07
559.325	22.97
559.75	22.87
560.175	22.77
560.6	22.65
561.025	22.56
561.449	22.44
561.874	22.31
562.299	22.18
562.723	22.07
563.148	21.93
563.572	21.81
563.997	21.68
564.421	21.55
564.846	21.41
565.27	21.27
565.694	21.1
566.118	20.94
566.542	20.77
566.966	20.63
567.39	20.47
567.814	20.33
568.238	20.15
568.662	19.97
569.086	19.79
569.509	19.61
569.933	19.45
570.357	19.29
570.78	19.13
571.204	18.96
571.627	18.78
572.05	18.63
572.474	18.47
572.897	18.32
573.32	18.17
573.743	18.04
574.166	17.91
574.589	17.77
575.012	17.64
575.435	17.53
575.858	17.42
576.281	17.32
576.704	17.2
577.126	17.09
577.549	16.99
577.972	16.9
578.394	16.79
578.817	16.68
579.239	16.58
579.661	16.5
580.084	16.39
580.506	16.3
580.928	16.21
581.35	16.13
581.772	16.07
582.194	15.98
582.616	15.91
583.038	15.84
583.46	15.77
583.882	15.69
584.303	15.62
584.725	15.54
585.147	15.46
585.568	15.38
585.99	15.31
586.411	15.22
586.833	15.15
587.254	15.1
587.675	15.04
588.096	14.98
588.518	14.93
588.939	14.87
589.36	14.83
589.781	14.8
590.202	14.76
590.623	14.71
591.043	14.66
591.464	14.62
591.885	14.57
592.305	14.53
592.726	14.49
593.147	14.45
593.567	14.41
593.987	14.38
594.408	14.34
594.828	14.31
595.248	14.28
595.669	14.26
596.089	14.24
596.509	14.2
596.929	14.16
597.349	14.12
597.769	14.09
598.189	14.05
598.608	14.01
599.028	13.98
599.448	13.95
599.867	13.9
600.287	13.84
600.706	13.78
601.126	13.73
601.545	13.68
601.965	13.64
602.384	13.58
602.803	13.53
603.222	13.47
603.641	13.41
604.061	13.34
604.48	13.28
604.898	13.23
605.317	13.17
605.736	13.11
606.155	13.04
606.574	12.97
606.992	12.89
607.411	12.83
607.829	12.71
608.248	12.64
608.666	12.55
609.085	12.5
609.503	12.41
609.921	12.33
610.339	12.26
610.758	12.18
611.176	12.12
611.594	12.06
612.012	11.97
612.43	11.97
612.847	11.9
613.265	11.85
613.683	11.76
614.101	11.69
614.518	11.63
614.936	11.56
615.353	11.49
615.771	11.44
616.188	11.39
616.606	11.34
617.023	11.27
617.44	11.22
617.857	11.16
618.274	11.12
618.691	11.07
619.108	11.02
619.525	10.97
619.942	10.93
620.359	10.9
620.776	10.84
621.192	10.81
621.609	10.77
622.026	10.74
622.442	10.71
622.859	10.69
623.275	10.7
623.691	10.69
624.108	10.69
624.524	10.68
624.94	10.66
625.356	10.66
625.772	10.65
626.188	10.65
626.604	10.64
627.02	10.63
627.436	10.62
627.852	10.59
628.268	10.57
628.683	10.56
629.099	10.55
629.514	10.52
629.93	10.49
630.345	10.46
630.761	10.42
631.176	10.38
631.591	10.32
632.007	10.28
632.422	10.26
632.837	10.2
633.252	10.14
633.667	10.08
634.082	10.02
634.497	9.94
634.911	9.84
635.326	9.77
635.741	9.68
636.155	9.61
636.57	9.51
636.984	9.38
637.399	9.27
637.813	9.16
638.228	9.05
638.642	8.93
639.056	8.82
639.47	8.72
639.884	8.6
640.298	8.48
640.712	8.36
641.126	8.25
641.54	8.15
641.954	8.06
642.368	7.93
642.781	7.82
643.195	7.71
643.609	7.61
644.022	7.52
644.436	7.43
644.849	7.34
645.262	7.26
645.676	7.17
646.089	7.08
646.502	6.99
646.915	6.92
647.328	6.88
647.741	6.82
648.154	6.77
648.567	6.71
648.98	6.68
649.393	6.65
649.805	6.61
650.218	6.58
650.631	6.56
651.043	6.54
651.456	6.52
651.868	6.48
652.28	6.47
652.693	6.43
653.105	6.39
653.517	6.35
653.929	6.31
654.341	6.29
654.753	6.24
655.165	6.2
655.577	6.15
655.989	6.09
656.401	6.03
656.813	5.95
657.224	5.89
657.636	5.85
658.047	5.79
658.459	5.72
658.87	5.65
659.282	5.59
659.693	5.53
660.104	5.47
660.515	5.42
660.926	5.37
661.338	5.33
661.749	5.28
662.159	5.23
662.57	5.17
662.981	5.13
663.392	5.08
663.803	5.04
664.213	5.01
664.624	4.96
665.035	4.92
665.445	4.9
665.855	4.86
666.266	4.83
666.676	4.8
667.086	4.78
667.497	4.75
667.907	4.73
668.317	4.71
668.727	4.68
669.137	4.68
669.547	4.69
669.956	4.66
670.366	4.67
670.776	4.67
671.186	4.66
671.595	4.67
672.005	4.68
672.414	4.68
672.824	4.7
673.233	4.74
673.642	4.74
674.052	4.74
674.461	4.76
674.87	4.77
675.279	4.79
675.688	4.81
676.097	4.83
676.506	4.85
676.915	4.88
677.323	4.91
677.732	4.94
678.141	4.99
678.549	5.04
678.958	5.08
679.366	5.13
679.775	5.2
680.183	5.27
680.592	5.35
681	5.42
681.408	5.5
681.816	5.58
682.224	5.68
682.632	5.8
683.04	5.9
683.448	6.03
683.856	6.17
684.264	6.33
684.671	6.49
685.079	6.67
685.487	6.88
685.894	7.1
686.302	7.34
686.709	7.6
687.116	7.89
687.524	8.22
687.931	8.55
688.338	8.91
688.745	9.28
689.152	9.69
689.559	10.12
689.966	10.56
690.373	11.05
690.78	11.54
691.187	12.05
691.593	12.57
692	13.11
692.407	13.69
692.813	14.25
693.22	14.85
693.626	15.42
694.032	16.03
694.439	16.66
694.845	17.29
695.251	17.91
695.657	18.53
696.063	19.18
696.469	19.8
696.875	20.41
697.281	21.03
697.687	21.65
698.093	22.3
698.498	22.91
698.904	23.51
699.31	24.08
699.715	24.68
700.12	25.24
700.526	25.81
700.931	26.38
701.337	26.95
701.742	27.5
702.147	28.04
702.552	28.56
702.957	29.07
703.362	29.59
703.767	30.12
704.172	30.62
704.577	31.1
704.981	31.59
705.386	32.04
705.791	32.52
706.195	32.94
706.6	33.38
707.004	33.84
707.408	34.29
707.813	34.71
708.217	35.12
708.621	35.54
709.025	36
709.43	36.38
709.834	36.83
710.237	37.21
710.641	37.64
711.045	38.03
711.449	38.4
711.853	38.76
712.256	39.12
712.66	39.49
713.064	39.86
713.467	40.2
713.87	40.56
714.274	40.9
714.677	41.21
715.08	41.53
715.484	41.88
715.887	42.19
716.29	42.5
716.693	42.79
717.096	43.09
717.499	43.37
717.901	43.66
718.304	43.95
718.707	44.2
719.109	44.49
719.512	44.78
719.915	45
720.317	45.26
720.719	45.53
721.122	45.79
721.524	46.04
721.926	46.27
722.328	46.5
722.731	46.71
723.133	46.93
723.535	47.16
723.937	47.36
724.338	47.57
724.74	47.78
725.142	47.9
725.544	48.07
725.945	48.24
726.347	48.44
726.748	48.6
727.15	48.74
727.551	48.88
727.952	48.99
728.354	49.14
728.755	49.3
729.156	49.44
729.557	49.65
729.958	49.82
730.359	49.92
730.76	50.03
731.161	50.14
731.562	50.26
731.962	50.36
732.363	50.48
732.763	50.58
733.164	50.66
733.564	50.71
733.965	50.78
734.365	50.82
734.766	50.91
735.166	50.94
735.566	50.96
735.966	51.01
736.366	51.06
736.766	51.11
737.166	51.14
737.566	51.19
737.966	51.28
738.365	51.32
738.765	51.4
739.165	51.43
739.564	51.48
739.964	51.57
740.363	51.63
740.763	51.67
741.162	51.68
741.561	51.76
741.96	51.81
742.36	51.82
742.759	51.84
743.158	51.87
743.557	51.9
743.955	51.96
744.354	52
744.753	52.06
745.152	52.09
745.55	52.16
745.949	52.17
746.348	52.2
746.746	52.24
747.144	52.33
747.543	52.37
747.941	52.46
748.339	52.53
748.737	52.59
749.136	52.63
749.534	52.66
749.932	52.7
750.33	52.69
750.727	52.74
751.125	52.76
751.523	52.75
751.921	52.75
752.318	52.71
752.716	52.67
753.113	52.66
753.511	52.61
753.908	52.59
754.305	52.57
754.703	52.58
755.1	52.53
755.497	52.51
755.894	52.48
756.291	52.47
756.688	52.48
757.085	52.47
757.482	52.45
757.878	52.47
758.275	52.47
758.672	52.46
759.068	52.48
759.465	52.5
759.861	52.47
760.258	52.45
760.654	52.43
761.05	52.43
761.447	52.4
761.843	52.35
762.239	52.32
762.635	52.33
763.031	52.31
763.427	52.28
763.822	52.23
764.218	52.2
764.614	52.21
765.01	52.19
765.405	52.14
765.801	52.12
766.196	52.12
766.592	52.11
766.987	52.11
767.382	52.11
767.778	52.12
768.173	52.16
768.568	52.15
768.963	52.16
769.358	52.16
769.753	52.2
770.148	52.2
770.542	52.19
770.937	52.17
771.332	52.18
771.726	52.18
772.121	52.15
772.515	52.11
772.91	52.11
773.304	52.07
773.699	52.06
774.093	52.02
774.487	52.05
774.881	52.09
775.275	52.13
775.669	52.09
776.063	52.07
776.457	52.07
776.851	52.04
777.245	52.06
777.638	52.07
778.032	52.08
778.425	52.1
778.819	52.1
779.212	52.1
779.606	52.06
779.999	52.07
780.392	52.1
780.786	52.12
781.179	52.13
781.572	52.13
781.965	52.15
782.358	52.15
782.751	52.15
783.143	52.14
783.536	52.12
783.929	52.15
784.322	52.18
784.714	52.17
785.107	52.18
785.499	52.21
785.891	52.19
786.284	52.14
786.676	52.16
787.068	52.13
787.46	52.14
787.852	52.18
788.245	52.18
788.636	52.21
789.028	52.17
789.42	52.17
789.812	52.19
790.204	52.17
790.595	52.19
790.987	52.18
791.378	52.21
791.77	52.21
792.161	52.19
792.553	52.19
792.944	52.17
793.335	52.24
793.726	52.24
794.117	52.23
794.508	52.26
794.899	52.28
795.29	52.24
795.681	52.25
796.072	52.27
796.463	52.25
796.853	52.25
797.244	52.22
797.634	52.19
798.025	52.2
798.415	52.23
798.806	52.26
799.196	52.31
799.586	52.34
799.976	52.35
800.366	52.31
800.756	52.32
801.146	52.33
801.536	52.31
801.926	52.33
802.316	52.37
802.706	52.35
803.095	52.37
803.485	52.36
803.874	52.38
804.264	52.4
804.653	52.43
805.043	52.49
805.432	52.48
805.821	52.51
806.21	52.56
806.599	52.57
806.988	52.59
807.377	52.58
807.766	52.59
808.155	52.58
808.544	52.54
808.933	52.57
809.321	52.6
809.71	52.64
810.098	52.66
810.487	52.68
810.875	52.68
811.264	52.7
811.652	52.69
812.04	52.72
812.428	52.76
812.816	52.84
813.204	52.84
813.592	52.82
813.98	52.78
814.368	52.8
814.756	52.8
815.144	52.83
815.531	52.84
815.919	52.84
816.306	52.83
816.694	52.85
817.081	52.84
817.469	52.87
817.856	52.92
818.243	53
818.63	53.02
819.017	53.04
819.404	53
819.791	53.03
820.178	53.06
820.565	53.11
820.952	53.1
821.339	53.13
821.725	53.13
822.112	53.12
822.498	53.11
822.885	53.11
823.271	53.11
823.657	53.15
824.044	53.15
824.43	53.19
824.816	53.16
825.202	53.14
825.588	53.14
825.974	53.15
826.36	53.17
826.746	53.17
827.132	53.17
827.517	53.17
827.903	53.16
828.289	53.15
828.674	53.13
829.06	53.15
829.445	53.19
829.83	53.18
830.216	53.16
830.601	53.15
830.986	53.14
831.371	53.17
831.756	53.13
832.141	53.17
832.526	53.15
832.911	53.15
833.295	53.15
833.68	53.13
834.065	53.16
834.449	53.13
834.834	53.1
835.218	53.11
835.603	53.07
835.987	53.08
836.371	53.05
836.755	53.03
837.139	53.03
837.524	53.02
837.908	53
838.291	52.97
838.675	53
839.059	52.98
839.443	52.97
839.827	52.95
840.21	52.95
840.594	52.91
840.977	52.92
841.361	52.9
841.744	52.88
842.127	52.9
842.511	52.87
842.894	52.84
843.277	52.88
843.66	52.87
844.043	52.88
844.426	52.88
844.809	52.9
845.191	52.88
845.574	52.88
845.957	52.85
846.339	52.82
846.722	52.86
847.104	52.88
847.487	52.84
847.869	52.85
848.252	52.84
848.634	52.85
849.016	52.88
849.398	52.88
849.78	52.88
850.162	52.9
850.544	52.91
850.926	52.88
851.307	52.87
851.689	52.86
852.071	52.85
852.452	52.85
852.834	52.82
853.215	52.81
853.597	52.82
853.978	52.82
854.359	52.82
854.741	52.83
855.122	52.85
855.503	52.85
855.884	52.85
856.265	52.88
856.646	52.88
857.026	52.89
857.407	52.86
857.788	52.86
858.169	52.87
858.549	52.87
858.93	52.87
859.31	52.86
859.69	52.85
860.071	52.86
860.451	52.85
860.831	52.84
861.211	52.86
861.591	52.88
861.971	52.87
862.351	52.89
862.731	52.9
863.111	52.88
863.491	52.88
863.87	52.9
864.25	52.91
864.629	52.89
865.009	52.9
865.388	52.89
865.768	52.89
866.147	52.9
866.526	52.87
866.905	52.87
867.284	52.89
867.663	52.88
868.042	52.86
868.421	52.86
868.8	52.88
869.179	52.9
869.558	52.87
869.936	52.85
870.315	52.82
870.693	52.84
871.072	52.84
871.45	52.81
871.828	52.81
872.207	52.84
872.585	52.83
872.963	52.81
873.341	52.78
873.719	52.79
874.097	52.78
874.475	52.81
874.853	52.8
875.23	52.8
875.608	52.79
875.986	52.77
876.363	52.75
876.741	52.74
877.118	52.72
877.495	52.73
877.873	52.71
878.25	52.7
878.627	52.68
879.004	52.65
879.381	52.62
879.758	52.62
880.135	52.64
880.512	52.64
880.889	52.66
881.265	52.7
881.642	52.7
882.019	52.73
882.395	52.75
882.772	52.75
883.148	52.78
883.524	52.8
883.901	52.83
884.277	52.83
884.653	52.84
885.029	52.83
885.405	52.78
885.781	52.77
886.157	52.76
886.532	52.76
886.908	52.78
887.284	52.78
887.659	52.78
888.035	52.73
888.411	52.72
888.786	52.7
889.161	52.7
889.537	52.74
889.912	52.74
890.287	52.73
890.662	52.73
891.037	52.69
891.412	52.66
891.787	52.64
892.162	52.65
892.536	52.65
892.911	52.62
893.286	52.59
893.66	52.55
894.035	52.5
894.409	52.47
894.784	52.44
895.158	52.42
895.532	52.42
895.906	52.4
896.281	52.37
896.655	52.35
897.029	52.35
897.402	52.32
897.776	52.31
898.15	52.35
898.524	52.33
898.898	52.32
899.271	52.32
899.645	52.32
900.018	52.31
900.392	52.31
900.765	52.29
901.138	52.29
901.511	52.3
901.884	52.28
902.258	52.26
902.631	52.28
903.003	52.27
903.376	52.23
903.749	52.22
904.122	52.23
904.495	52.23
904.867	52.21
905.24	52.2
905.612	52.2
905.985	52.19
906.357	52.17
906.729	52.15
907.102	52.13
907.474	52.14
907.846	52.09
908.218	52.07
908.59	52.03
908.962	52.03
909.334	52.01
909.705	51.99
910.077	51.96
910.449	51.96
910.82	51.93
911.192	51.94
911.563	51.96
911.935	51.94
912.306	51.92
912.677	51.94
913.048	51.92
913.419	51.9
913.79	51.9
914.161	51.89
914.532	51.86
914.903	51.88
915.274	51.86
915.645	51.84
916.015	51.9
916.386	51.9
916.756	51.87
917.127	51.88
917.497	51.9
917.868	51.88
918.238	51.94
918.608	51.97
918.978	51.96
919.348	51.94
919.718	51.95
920.088	51.93
920.458	51.92
920.828	51.96
921.198	51.97
921.567	51.96
921.937	51.98
922.306	51.96
922.676	51.95
923.045	51.93
923.415	51.98
923.784	51.96
924.153	51.91
924.522	51.94
924.891	51.89
925.26	51.85
925.629	51.83
925.998	51.81
926.367	51.76
926.736	51.69
927.104	51.73
927.473	51.73
927.842	51.69
928.21	51.72
928.578	51.68
928.947	51.68
929.315	51.7
929.683	51.7
930.051	51.68
930.42	51.65
930.788	51.66
931.156	51.61
931.523	51.54
931.891	51.47
932.259	51.37
932.627	51.28
932.994	51.22
933.362	51.12
933.729	51.02
934.097	50.93
934.464	50.88
934.831	50.8
935.199	50.74
935.566	50.61
935.933	50.59
936.3	50.52
936.667	50.45
937.034	50.35
937.401	50.27
937.767	50.2
938.134	50.18
938.501	50.12
938.867	50.14
939.234	50.12
939.6	50.15
939.967	50.2
940.333	50.34
940.699	50.43
941.065	50.55
941.431	50.63
941.798	50.8
942.163	50.86
942.529	50.91
942.895	50.96
943.261	51.04
943.627	51.15
943.992	51.14
944.358	51.12
944.723	51.12
945.089	51.21
945.454	51.29
945.82	51.24
946.185	51.3
946.55	51.38
946.915	51.36
947.28	51.38
947.645	51.4
948.01	51.49
948.375	51.48
948.74	51.48
949.104	51.43
949.469	51.37
949.834	51.43
950.198	51.41
950.562	51.4
950.927	51.34
951.291	51.29
951.655	51.22
952.02	51.17
952.384	51.18
952.748	51.23
953.112	51.15
953.476	51.14
953.839	51.12
954.203	51.06
954.567	51
954.931	50.99
955.294	51.01
955.658	50.98
956.021	50.97
956.385	51
956.748	50.98
957.111	50.99
957.474	51.01
957.837	51.01
958.2	51.07
958.563	51.1
958.926	51.06
959.289	51.01
959.652	51.05
960.015	50.97
960.377	50.9
960.74	50.78
961.102	50.73
961.465	50.73
961.827	50.54
962.189	50.46
962.552	50.37
962.914	50.36
963.276	50.41
963.638	50.36
964	50.33
964.362	50.33
964.724	50.36
965.085	50.33
965.447	50.24
965.809	50.31
966.17	50.3
966.532	50.31
966.893	50.29
967.255	50.22
967.616	50.25
967.977	50.26
968.338	50.24
968.699	50.21
969.061	50.22
969.421	50.2
969.782	50.16
970.143	50.11
970.504	50.09
970.865	50.09
971.225	50.06
971.586	50.01
971.946	50.01
972.307	49.97
972.667	49.97
973.027	50.01
973.388	49.98
973.748	49.97
974.108	49.96
974.468	49.98
974.828	49.98
975.188	49.99
975.548	50
975.907	49.97
976.267	49.95
976.627	49.9
976.986	49.8
977.346	49.78
977.705	49.87
978.064	49.92
978.424	49.94
978.783	49.96
979.142	49.89
979.501	49.85
979.86	49.81
980.219	49.8
980.578	49.85
980.937	49.96
981.296	49.95
981.654	49.99
982.013	49.97
982.371	49.91
982.73	49.9
983.088	49.9
983.447	49.86
983.805	49.84
984.163	49.84
984.521	49.72
984.879	49.68
985.237	49.73
985.595	49.64
985.953	49.63
986.311	49.68
986.669	49.62
987.026	49.58
987.384	49.53
987.741	49.69
988.099	49.74
988.456	49.75
988.814	49.72
989.171	49.65
989.528	49.56
989.885	49.48
990.242	49.43
990.599	49.47
990.956	49.55
991.313	49.61
991.67	49.47
992.027	49.29
992.383	49.38
992.74	49.31
993.096	49.27
993.453	49.28
993.809	49.31
994.165	49.23
994.522	49
994.878	48.93
995.234	48.89
995.59	48.86
995.946	48.96
996.302	48.95
996.658	48.94
997.013	49.01
997.369	48.92
997.725	49
998.08	49
998.436	49.16
998.791	49.08
999.147	49.12
999.502	49.09
999.857	49.12
1000.212	49.01
1000.567	48.95
1000.922	48.91
1001.277	48.93
1001.632	48.86
1001.987	48.79
1002.342	48.76
1002.696	48.74
1003.051	48.51
1003.406	48.38
1003.76	48.24
1004.114	48.23
1004.469	48.14
1004.823	48.28
1005.177	48.55
1005.531	48.49
1005.885	48.44
1006.239	48.37
1006.593	48.31
1006.947	48.37
1007.301	48.4
1007.655	48.49
1008.008	48.49
1008.362	48.62
1008.715	48.32
1009.069	47.97
1009.422	47.77
1009.776	47.94
1010.129	47.74
1010.482	48.03
1010.835	48.05
1011.188	47.96
1011.541	47.71
1011.894	47.62
1012.247	47.44
1012.6	47.52
1012.952	47.54
1013.305	47.63
1013.657	47.43
1014.01	47.54
1014.362	47.35
1014.715	47.23
1015.067	47.27
1015.419	47.44
1015.771	47.62
1016.123	47.58
1016.475	47.66
1016.827	47.8
1017.179	47.6
1017.531	47.68
1017.883	47.84
1018.234	47.81
1018.586	47.97
1018.938	47.95
1019.289	47.99
1019.64	48.06
1019.992	48.03
1020.343	47.83
1020.694	47.35
1021.045	47.44
1021.396	47.24
1021.747	47.21
1022.098	47.18
1022.449	46.85
1022.8	46.68
1023.151	46.53
1023.501	46.31
1023.852	46.23
1024.202	45.98
1024.553	46.12
1024.903	46.13
1025.253	45.75
1025.604	45.46
1025.954	45.08
1026.304	45.46
1026.654	45.71
1027.004	45.99
1027.354	45.91
1027.703	45.87
1028.053	45.65
1028.403	45.23
1028.753	45.18
1029.102	45.68
1029.452	45.68
1029.801	45.84
1030.15	45.64
1030.499	45.44
897.758	477.83
901.051	478.01
904.343	485.92
907.636	481
910.928	473.96
914.22	482.09
917.511	468.8
920.803	452.08
924.094	435.26
927.384	439.92
930.675	424.83
933.965	418.84
937.255	425.05
940.544	405.2
943.834	383.04
947.123	378.01
950.411	359.27
953.7	355.97
956.988	345.12
960.276	326.93
963.563	329.37
966.851	313.81
970.138	307.62
973.424	286.55
976.711	283.9
979.997	278.58
983.283	271.43
986.568	263.22
989.853	254.94
993.138	246.79
996.423	245.94
999.708	235.26
1002.992	236.63
1006.275	228.57
1009.559	227.32
1012.842	220.47
1016.125	212.82
1019.408	209.3
1022.69	210.05
1025.972	207.03
1029.254	203.5
1032.536	199.18
1035.817	193.26
1039.098	190.76
1042.379	189.46
1045.659	186.26
1048.939	185.85
1052.219	183.59
1055.498	180.56
1058.778	176.41
1062.057	174.87
1065.335	173.53
1068.614	171.53
1071.892	170.29
1075.17	166.7
1078.447	164.18
1081.724	163.69
1085.001	159.82
1088.278	159.74
1091.554	159.58
1094.83	157.69
1098.106	156.04
1101.382	154.56
1104.657	154.16
1107.932	153.64
1111.206	153.53
1114.481	151.63
1117.755	150.17
1121.029	150.24
1124.302	148.64
1127.575	146.14
1130.848	146.03
1134.121	144.17
1137.393	144.28
1140.665	142.94
1143.937	141.35
1147.208	139.12
1150.48	138.73
1153.75	138.2
1157.021	137.07
1160.291	136.1
1163.561	135.69
1166.831	135.14
1170.101	134.61
1173.37	134.01
1176.639	133.04
1179.907	132.92
1183.176	132.87
1186.444	133.28
1189.711	132.07
1192.979	132.74
1196.246	133.1
1199.513	133.38
1202.78	133.26
1206.046	133.24
1209.312	133.46
1212.578	134.3
1215.843	135.78
1219.108	136.84
1222.373	138.36
1225.638	140.84
1228.902	143.63
1232.166	147.06
1235.43	147.95
1238.693	151.25
1241.956	154.45
1245.219	157.84
1248.482	158.83
1251.744	159.02
1255.006	160.04
1258.268	156.56
1261.529	155.08
1264.79	150.55
1268.051	148.7
1271.312	148.28
1274.572	145.76
1277.832	142.14
1281.092	140.62
1284.351	138.14
1287.61	137.51
1290.869	136.5
1294.128	135.81
1297.386	135.17
1300.644	135.55
1303.902	134.88
1307.159	132.69
1310.416	133.7
1313.673	135.24
1316.93	136.32
1320.186	138.09
1323.442	140.49
1326.697	142.61
1329.953	144.04
1333.208	147.82
1336.463	152.5
1339.717	154.81
1342.972	162.88
1346.226	165.83
1349.479	167.58
1352.733	172.98
1355.986	177.21
1359.238	179.27
1362.491	180.95
1365.743	186.48
1368.995	188.52
1372.247	188.58
1375.498	187.32
1378.749	192.47
1382	193.57
1385.251	191.78
1388.501	192.99
1391.751	193.88
1395	191.44
1398.25	192.24
1401.499	190.8
1404.748	189.43
1407.996	185.3
1411.244	185.61
1414.492	183.39
1417.74	177.09
1420.987	173.95
1424.234	169.31
1427.481	163.14
1430.728	159.48
1433.974	153.4
1437.22	149.5
1440.465	144.69
1443.711	140.63
1446.956	136.76
1450.201	130.66
1453.445	126.19
1456.689	122.91
1459.933	119.63
1463.177	114.93
1466.42	113.49
1469.663	111.3
1472.906	108.23
1476.148	105.44
1479.391	103.59
1482.633	101.83
1485.874	101.35
1489.115	100.3
1492.356	99.3
1495.597	97.71
1498.838	97.9
1502.078	96.87
1505.318	96.62
1508.557	96.01
1511.797	96.1
1515.036	95.91
1518.274	96.06
1521.513	94.64
1524.751	94.27
1527.989	95.13
1531.227	94.87
1534.464	95.15
1537.701	94.69
1540.938	94.34
1544.174	94.69
1547.41	95.22
1550.646	95.45
1553.882	94.75
1557.117	94.63
1560.352	95.02
1563.587	93.92
1566.821	94.25
1570.055	93.26
1573.289	93.41
1576.523	93.26
1579.756	92.69
1582.989	92.45
1586.222	92.18
1589.454	93.06
1592.686	93.65
1595.918	92.79
1599.15	92.92
1602.381	92.71
1605.612	93.34
1608.843	93
1612.073	93.87
1615.303	93.8
1618.533	93.41
1621.762	93.46
1624.992	92.55
1628.221	92.03
1631.449	92.84
1634.678	92.87
1637.906	93
1641.134	93.1
1644.361	93.22
1647.588	92.79
1650.815	93.41
1654.042	93.3
1657.269	92.86
1660.495	93.73
1663.72	93.57
1666.946	93.54
1670.171	93.87
1673.396	94.58
1676.621	94.59
1679.845	94.57
1683.069	94.34
1686.293	93.95
1689.517	94.4
1692.74	94.96
1695.963	94.52
1699.185	95.18
1702.408	95.08
1705.63	94.86
1708.852	95.06
1712.073	94.57
1715.294	94.59
1718.515	95.54
1721.736	95.77
1724.956	95.87
1728.176	95.39
1731.396	95.9
1734.616	96.12
1737.835	96.27
1741.054	95.96
1744.272	95.26
1747.491	95.78
1750.709	96.87
1753.927	96.45
1757.144	96.53
1760.361	96.36
1763.578	96.74
1766.795	96.96
1770.011	97.05
1773.227	97.26
1776.443	98.45
1779.658	98.42
1782.874	99.04
1786.089	98.75
1789.303	98.77
1792.518	99.09
1795.732	99.72
1798.945	101.17
1802.159	101
1805.372	101.64
1808.585	102.82
1811.797	103
1815.01	103.74
1818.222	104.19
1821.434	104.51
1824.645	104.76
1827.856	106.18
1831.067	106.66
1834.278	107.13
1837.488	107.83
1840.698	109.05
1843.908	108.58
1847.117	109.13
1850.326	110.37
1853.535	111.14
1856.744	111.67
1859.952	113.18
1863.16	112.94
1866.368	111.97
1869.575	111.34
1872.782	110.45
1875.989	108.94
1879.196	108.89
1882.402	107.69
1885.608	107.07
1888.814	105.83
1892.019	105.05
1895.224	102.6
1898.429	102.63
1901.634	102.77
1904.838	103.46
1908.042	103.77
1911.246	103.11
1914.449	102.27
1917.652	101.86
1920.855	102.67
1924.058	101.6
1927.26	101.25
1930.462	102.44
1933.664	101.59
1936.865	103.03
1940.066	100.01
1943.267	99.47
1946.467	100.3
1949.668	100.16
1952.868	101.39
1956.067	100.8
1959.267	100.43
1962.466	101.21
1965.665	102.65
1968.863	103.93
1972.061	103.62
1975.259	107.55
1978.457	109.31
1981.654	109.58
1984.852	110.9
1988.048	111.99
1991.245	113.68
1994.441	117.2
1997.637	120.21
2000.833	121.48
2004.028	122.28
2007.223	124.22
2010.418	126.39
2013.613	131.04
2016.807	134.54
2020.001	136.73
2023.194	140.16
2026.388	145.33
2029.581	154.34
2032.774	156.08
2035.966	160.21
2039.158	165.34
2042.35	170.16
2045.542	172.5
2048.733	179.74
2051.924	180.23
2055.115	183.81
2058.306	186.17
2061.496	188.48
2064.686	187.51
2067.875	187.21
2071.065	190.5
2074.254	191.43
2077.442	195.87
2080.631	196.92
2083.819	196.86
2087.007	203.07
2090.195	206.58
2093.382	206.7
2096.569	206.91
2099.756	209.74
2102.942	215.32
2106.128	217.74
2109.314	220.72
2112.5	221.05
2115.685	218.89
2118.87	218.61
2122.055	219.44
2125.239	223.8
2128.424	228.92
2131.608	226.11
2134.791	225.74
2137.974	227.01
2141.157	228.98
2144.34	228.74
2147.523	232.31
2150.705	239.88
2153.887	239.02
2157.068	241.37
2160.25	242.91
2163.431	242.5
2166.611	247.52
2169.792	249.74
2172.972	253.87
2176.152	253.79
2179.331	259.95
2182.511	261.64
2185.69	262.51
2188.868	269.9
2192.047	276.77
2195.225	281.43
2198.403	281.57
2201.58	278.32
2204.758	290.85
2207.935	290.49
2211.111	298.19
2214.288	299.7
2217.464	302.83
2220.64	305.65
2223.815	308.01
2226.991	301.51
2230.166	303.1
2233.34	315.19
2236.515	325.71
2239.689	318.53
2242.863	324.78
2246.036	318.99
2249.209	326.95
2252.382	325.06
2255.555	338.09
2258.727	339.62
2261.9	354.3
2265.071	358.92
2268.243	355.3
2271.414	361.11
2274.585	370.02
2277.756	369.91
2280.926	388.23
2284.096	382.59
2287.266	385.5
2290.436	377.53
2293.605	386.23
2296.774	395.24
2299.942	398.69
2303.111	412.86
2306.279	426.21
2309.447	421.56
2312.614	427.45
2315.781	433.42
2318.948	445.2
2322.115	453.82
2325.281	477.33
2328.447	468.18
2331.613	472.67
2334.779	476.5
2337.944	480.32
2341.109	483.78
2344.274	495.65
2347.438	503.29
2350.602	511.41
2353.766	542.71
2356.929	544.51
2360.092	546.4
2363.255	558.34
2366.418	564.06
2369.58	574.77
2372.742	581.26
2375.904	580.71
2379.066	594.15
2382.227	626.23
2385.388	624.54
2388.548	593.96
2391.709	586.02
2394.869	608.08
2398.029	604.54
2401.188	606.21
2404.347	622.93
2407.506	636.8
2410.665	613.47
2413.823	616.67
2416.981	619.31
2420.139	587.45
2423.296	634.34
2426.453	681.6
2429.61	640.35
2432.767	685.29
2435.923	706.4
2439.079	682.26
2442.235	697.83
2445.391	714.87
2448.546	705.95
2451.701	747.74
2454.855	802.58
2458.009	700.21
2461.163	710.26
2464.317	736.27
2467.471	722.96
2470.624	742.87
2473.777	732.77
2476.929	712.83
2480.082	756.24
2483.234	797.08
2486.385	804.99
2489.537	826.16
2492.688	920.76
2495.839	897.78
2498.989	922.35
2502.14	917.54
2505.29	887.85
2508.439	972.59
2511.589	989.77
2514.738	973.24
2517.887	963.2
2521.035	892.61
2524.183	881.49
2527.331	868.9
2530.479	851.84
2533.627	864.7
