Data from C_2_dec_va_2n_050_Splice17_16.txt Node
Date: Sat Feb 29 14:34:35 EST 2020
User: sa697716
Spectrometer: FLMS03696
Trigger mode: 0
Integration Time (sec): 3.180400E-1
Scans to average: 20
Electric dark correction enabled: true
Nonlinearity correction enabled: true
Boxcar width: 5
XAxis mode: Wavelengths
Number of Pixels in Spectrum: 2048
>>>>>Begin Spectral Data<<<<<
187.83	72.36
188.298	80.28
188.766	70.11
189.233	74.63
189.701	84.25
190.169	78.24
190.636	88.37
191.104	83.25
191.571	275.75
192.039	234.23
192.506	-204.04
192.974	3580.94
193.441	-465.18
193.908	101.15
194.375	218.04
194.842	287.03
195.31	93.32
195.777	113.19
196.244	27.84
196.711	20.97
197.177	18.07
197.644	19.15
198.111	18.9
198.578	18.96
199.045	19.46
199.511	19.92
199.978	20.51
200.445	20.78
200.911	20.97
201.378	21.35
201.844	21.96
202.31	22.97
202.777	23.43
203.243	23.94
203.709	24.06
204.176	24.03
204.642	23.69
205.108	23.32
205.574	23.73
206.04	23.45
206.506	23.39
206.972	23.11
207.438	22.36
207.903	22.61
208.369	22.3
208.835	22.55
209.301	22.43
209.766	22.53
210.232	22.75
210.697	22.44
211.163	22.35
211.628	21.95
212.094	21.83
212.559	21.38
213.024	20.67
213.49	20.5
213.955	20.19
214.42	19.72
214.885	19.11
215.35	18.47
215.815	18.01
216.28	17.35
216.745	16.76
217.21	15.95
217.675	15.24
218.14	14.51
218.604	13.69
219.069	13.05
219.534	12.52
219.998	12.13
220.463	11.83
220.927	11.48
221.392	11.21
221.856	10.93
222.32	10.67
222.785	10.46
223.249	10.29
223.713	10.16
224.177	10
224.642	9.87
225.106	9.74
225.57	9.55
226.034	9.41
226.497	9.23
226.961	9.09
227.425	8.96
227.889	8.83
228.353	8.69
228.816	8.58
229.28	8.44
229.744	8.33
230.207	8.22
230.671	8.1
231.134	7.99
231.597	7.88
232.061	7.78
232.524	7.69
232.987	7.62
233.45	7.52
233.914	7.41
234.377	7.33
234.84	7.24
235.303	7.15
235.766	7.09
236.229	7.03
236.691	6.95
237.154	6.89
237.617	6.81
238.08	6.73
238.542	6.65
239.005	6.6
239.468	6.52
239.93	6.45
240.393	6.39
240.855	6.31
241.317	6.24
241.78	6.2
242.242	6.13
242.704	6.07
243.166	6.01
243.629	5.97
244.091	5.9
244.553	5.86
245.015	5.81
245.477	5.73
245.939	5.69
246.4	5.62
246.862	5.58
247.324	5.54
247.786	5.5
248.247	5.45
248.709	5.4
249.17	5.36
249.632	5.31
250.093	5.24
250.555	5.22
251.016	5.19
251.477	5.15
251.939	5.09
252.4	5.05
252.861	5.01
253.322	4.97
253.783	4.95
254.244	4.91
254.705	4.88
255.166	4.87
255.627	4.84
256.088	4.8
256.549	4.78
257.009	4.76
257.47	4.72
257.931	4.69
258.391	4.65
258.852	4.61
259.312	4.58
259.773	4.55
260.233	4.52
260.694	4.49
261.154	4.46
261.614	4.42
262.074	4.4
262.534	4.36
262.994	4.33
263.455	4.32
263.915	4.29
264.374	4.26
264.834	4.25
265.294	4.22
265.754	4.19
266.214	4.18
266.673	4.16
267.133	4.13
267.593	4.12
268.052	4.1
268.512	4.08
268.971	4.06
269.431	4.05
269.89	4.03
270.349	4.02
270.809	4.01
271.268	4
271.727	3.98
272.186	3.97
272.645	3.96
273.104	3.95
273.563	3.94
274.022	3.93
274.481	3.91
274.94	3.89
275.399	3.88
275.857	3.86
276.316	3.84
276.775	3.82
277.233	3.8
277.692	3.79
278.15	3.77
278.609	3.75
279.067	3.73
279.525	3.71
279.984	3.7
280.442	3.68
280.9	3.67
281.358	3.67
281.816	3.66
282.274	3.65
282.732	3.63
283.19	3.63
283.648	3.63
284.106	3.62
284.564	3.63
285.021	3.62
285.479	3.62
285.937	3.61
286.394	3.6
286.852	3.59
287.309	3.58
287.767	3.58
288.224	3.56
288.682	3.55
289.139	3.55
289.596	3.53
290.053	3.5
290.511	3.48
290.968	3.46
291.425	3.44
291.882	3.42
292.339	3.4
292.796	3.38
293.252	3.37
293.709	3.35
294.166	3.34
294.623	3.32
295.079	3.31
295.536	3.3
295.992	3.29
296.449	3.28
296.905	3.26
297.362	3.25
297.818	3.23
298.274	3.22
298.731	3.2
299.187	3.19
299.643	3.18
300.099	3.18
300.555	3.17
301.011	3.16
301.467	3.15
301.923	3.15
302.379	3.14
302.835	3.14
303.291	3.12
303.746	3.12
304.202	3.11
304.658	3.1
305.113	3.09
305.569	3.09
306.024	3.08
306.479	3.07
306.935	3.07
307.39	3.07
307.845	3.06
308.301	3.07
308.756	3.06
309.211	3.06
309.666	3.05
310.121	3.05
310.576	3.05
311.031	3.04
311.486	3.04
311.94	3.03
312.395	3.03
312.85	3.02
313.305	3.01
313.759	3.01
314.214	3
314.668	3
315.123	3
315.577	2.99
316.032	2.98
316.486	2.98
316.94	2.97
317.394	2.96
317.849	2.95
318.303	2.95
318.757	2.94
319.211	2.92
319.665	2.92
320.119	2.91
320.572	2.91
321.026	2.9
321.48	2.89
321.934	2.89
322.387	2.89
322.841	2.88
323.295	2.88
323.748	2.87
324.202	2.87
324.655	2.86
325.108	2.86
325.562	2.85
326.015	2.83
326.468	2.82
326.921	2.81
327.374	2.79
327.827	2.79
328.28	2.78
328.733	2.77
329.186	2.76
329.639	2.75
330.092	2.74
330.545	2.75
330.997	2.75
331.45	2.75
331.903	2.74
332.355	2.75
332.808	2.74
333.26	2.74
333.713	2.75
334.165	2.74
334.617	2.75
335.069	2.75
335.522	2.76
335.974	2.75
336.426	2.75
336.878	2.75
337.33	2.74
337.782	2.74
338.234	2.74
338.686	2.74
339.137	2.74
339.589	2.73
340.041	2.72
340.493	2.7
340.944	2.7
341.396	2.7
341.847	2.69
342.299	2.69
342.75	2.67
343.201	2.68
343.653	2.66
344.104	2.65
344.555	2.66
345.006	2.65
345.457	2.64
345.908	2.63
346.359	2.62
346.81	2.62
347.261	2.62
347.712	2.6
348.163	2.59
348.613	2.59
349.064	2.57
349.515	2.56
349.965	2.55
350.416	2.55
350.866	2.55
351.317	2.54
351.767	2.54
352.217	2.53
352.668	2.53
353.118	2.53
353.568	2.54
354.018	2.56
354.468	2.55
354.918	2.56
355.368	2.56
355.818	2.56
356.268	2.56
356.718	2.56
357.168	2.55
357.617	2.55
358.067	2.55
358.517	2.55
358.966	2.55
359.416	2.56
359.865	2.56
360.315	2.56
360.764	2.56
361.213	2.54
361.663	2.54
362.112	2.54
362.561	2.54
363.01	2.54
363.459	2.53
363.908	2.53
364.357	2.53
364.806	2.52
365.255	2.52
365.703	2.53
366.152	2.55
366.601	2.56
367.05	2.57
367.498	2.57
367.947	2.59
368.395	2.6
368.844	2.61
369.292	2.61
369.74	2.63
370.189	2.64
370.637	2.64
371.085	2.65
371.533	2.65
371.981	2.66
372.429	2.68
372.877	2.69
373.325	2.69
373.773	2.71
374.221	2.72
374.669	2.75
375.116	2.76
375.564	2.78
376.012	2.81
376.459	2.84
376.907	2.86
377.354	2.88
377.801	2.91
378.249	2.94
378.696	2.97
379.143	3.01
379.591	3.03
380.038	3.08
380.485	3.12
380.932	3.15
381.379	3.18
381.826	3.22
382.273	3.26
382.72	3.3
383.166	3.33
383.613	3.36
384.06	3.39
384.506	3.42
384.953	3.45
385.4	3.47
385.846	3.5
386.292	3.54
386.739	3.55
387.185	3.6
387.631	3.62
388.078	3.66
388.524	3.66
388.97	3.69
389.416	3.72
389.862	3.72
390.308	3.74
390.754	3.76
391.2	3.79
391.645	3.82
392.091	3.83
392.537	3.83
392.983	3.85
393.428	3.88
393.874	3.9
394.319	3.92
394.765	3.94
395.21	3.94
395.655	3.96
396.101	3.97
396.546	3.98
396.991	3.98
397.436	3.97
397.881	3.98
398.326	4
398.771	3.99
399.216	3.99
399.661	4
400.106	4.01
400.551	4
400.995	3.97
401.44	3.96
401.885	3.96
402.329	3.95
402.774	3.93
403.218	3.92
403.663	3.91
404.107	3.9
404.551	3.9
404.995	3.88
405.44	3.86
405.884	3.86
406.328	3.84
406.772	3.84
407.216	3.84
407.66	3.84
408.104	3.82
408.547	3.82
408.991	3.81
409.435	3.78
409.879	3.79
410.322	3.79
410.766	3.79
411.209	3.8
411.653	3.78
412.096	3.77
412.54	3.76
412.983	3.77
413.426	3.78
413.869	3.78
414.312	3.8
414.756	3.82
415.199	3.82
415.642	3.83
416.085	3.85
416.527	3.88
416.97	3.89
417.413	3.88
417.856	3.86
418.298	3.83
418.741	3.83
419.184	3.81
419.626	3.79
420.069	3.79
420.511	3.77
420.953	3.76
421.396	3.76
421.838	3.77
422.28	3.79
422.722	3.82
423.164	3.84
423.606	3.85
424.048	3.85
424.49	3.87
424.932	3.86
425.374	3.87
425.816	3.87
426.258	3.84
426.699	3.83
427.141	3.81
427.582	3.8
428.024	3.79
428.465	3.79
428.907	3.79
429.348	3.78
429.789	3.79
430.231	3.79
430.672	3.8
431.113	3.82
431.554	3.83
431.995	3.86
432.436	3.85
432.877	3.84
433.318	3.84
433.759	3.85
434.2	3.87
434.64	3.88
435.081	3.89
435.522	3.89
435.962	3.92
436.403	3.95
436.843	3.96
437.284	4
437.724	4.05
438.164	4.07
438.604	4.08
439.045	4.09
439.485	4.11
439.925	4.12
440.365	4.12
440.805	4.1
441.245	4.07
441.685	4.09
442.125	4.09
442.564	4.09
443.004	4.11
443.444	4.15
443.883	4.18
444.323	4.19
444.762	4.22
445.202	4.29
445.641	4.32
446.081	4.37
446.52	4.37
446.959	4.39
447.398	4.45
447.837	4.49
448.276	4.5
448.716	4.51
449.154	4.54
449.593	4.57
450.032	4.57
450.471	4.59
450.91	4.59
451.349	4.61
451.787	4.63
452.226	4.61
452.664	4.6
453.103	4.61
453.541	4.62
453.98	4.62
454.418	4.58
454.856	4.57
455.295	4.57
455.733	4.57
456.171	4.58
456.609	4.58
457.047	4.57
457.485	4.55
457.923	4.55
458.361	4.54
458.798	4.56
459.236	4.58
459.674	4.58
460.111	4.58
460.549	4.56
460.987	4.57
461.424	4.56
461.862	4.57
462.299	4.57
462.736	4.56
463.173	4.55
463.611	4.54
464.048	4.55
464.485	4.54
464.922	4.52
465.359	4.54
465.796	4.51
466.233	4.51
466.67	4.52
467.106	4.52
467.543	4.52
467.98	4.55
468.416	4.56
468.853	4.55
469.29	4.55
469.726	4.56
470.162	4.56
470.599	4.58
471.035	4.59
471.471	4.58
471.907	4.58
472.344	4.58
472.78	4.58
473.216	4.57
473.652	4.58
474.088	4.59
474.523	4.59
474.959	4.59
475.395	4.6
475.831	4.59
476.266	4.59
476.702	4.6
477.138	4.61
477.573	4.59
478.008	4.6
478.444	4.6
478.879	4.6
479.314	4.6
479.75	4.61
480.185	4.61
480.62	4.61
481.055	4.61
481.49	4.6
481.925	4.6
482.36	4.59
482.795	4.58
483.229	4.58
483.664	4.57
484.099	4.57
484.534	4.58
484.968	4.58
485.403	4.58
485.837	4.58
486.271	4.59
486.706	4.59
487.14	4.6
487.574	4.6
488.009	4.61
488.443	4.64
488.877	4.65
489.311	4.66
489.745	4.67
490.179	4.7
490.613	4.72
491.046	4.75
491.48	4.79
491.914	4.82
492.348	4.86
492.781	4.89
493.215	4.91
493.648	4.96
494.082	5.01
494.515	5.05
494.948	5.09
495.382	5.15
495.815	5.2
496.248	5.26
496.681	5.33
497.114	5.39
497.547	5.46
497.98	5.54
498.413	5.61
498.846	5.68
499.279	5.77
499.711	5.86
500.144	5.95
500.577	6.03
501.009	6.13
501.442	6.23
501.874	6.33
502.306	6.45
502.739	6.57
503.171	6.7
503.603	6.82
504.036	6.95
504.468	7.11
504.9	7.27
505.332	7.44
505.764	7.59
506.196	7.78
506.627	7.96
507.059	8.15
507.491	8.35
507.923	8.55
508.354	8.76
508.786	8.98
509.217	9.2
509.649	9.44
510.08	9.7
510.512	9.94
510.943	10.18
511.374	10.44
511.805	10.69
512.237	10.97
512.668	11.25
513.099	11.55
513.53	11.85
513.961	12.15
514.391	12.46
514.822	12.75
515.253	13.07
515.684	13.39
516.114	13.72
516.545	14.06
516.975	14.4
517.406	14.73
517.836	15.04
518.267	15.37
518.697	15.72
519.127	16.05
519.558	16.39
519.988	16.74
520.418	17.09
520.848	17.43
521.278	17.76
521.708	18.04
522.138	18.37
522.567	18.72
522.997	19.04
523.427	19.35
523.857	19.66
524.286	19.96
524.716	20.25
525.145	20.53
525.575	20.82
526.004	21.1
526.433	21.41
526.863	21.69
527.292	21.93
527.721	22.17
528.15	22.39
528.579	22.6
529.008	22.81
529.437	23.01
529.866	23.19
530.295	23.38
530.724	23.57
531.152	23.74
531.581	23.88
532.01	24.03
532.438	24.17
532.867	24.33
533.295	24.47
533.723	24.61
534.152	24.72
534.58	24.85
535.008	24.93
535.436	25.02
535.865	25.11
536.293	25.21
536.721	25.3
537.149	25.38
537.576	25.45
538.004	25.52
538.432	25.59
538.86	25.65
539.287	25.7
539.715	25.78
540.143	25.83
540.57	25.88
540.998	25.94
541.425	25.98
541.852	26.03
542.28	26.04
542.707	26.08
543.134	26.1
543.561	26.12
543.988	26.17
544.415	26.2
544.842	26.25
545.269	26.28
545.696	26.3
546.123	26.33
546.549	26.38
546.976	26.46
547.403	26.5
547.829	26.56
548.256	26.63
548.682	26.66
549.108	26.69
549.535	26.7
549.961	26.73
550.387	26.75
550.813	26.76
551.24	26.76
551.666	26.75
552.092	26.75
552.518	26.73
552.943	26.72
553.369	26.7
553.795	26.68
554.221	26.66
554.646	26.63
555.072	26.62
555.498	26.59
555.923	26.53
556.349	26.47
556.774	26.4
557.199	26.34
557.625	26.24
558.05	26.15
558.475	26.04
558.9	25.94
559.325	25.82
559.75	25.69
560.175	25.58
560.6	25.47
561.025	25.35
561.449	25.21
561.874	25.07
562.299	24.93
562.723	24.8
563.148	24.65
563.572	24.51
563.997	24.36
564.421	24.17
564.846	24.01
565.27	23.82
565.694	23.65
566.118	23.48
566.542	23.31
566.966	23.13
567.39	22.93
567.814	22.72
568.238	22.51
568.662	22.3
569.086	22.12
569.509	21.92
569.933	21.71
570.357	21.5
570.78	21.31
571.204	21.09
571.627	20.88
572.05	20.71
572.474	20.55
572.897	20.39
573.32	20.23
573.743	20.06
574.166	19.89
574.589	19.74
575.012	19.61
575.435	19.46
575.858	19.33
576.281	19.22
576.704	19.1
577.126	18.96
577.549	18.84
577.972	18.73
578.394	18.61
578.817	18.49
579.239	18.4
579.661	18.29
580.084	18.19
580.506	18.09
580.928	17.99
581.35	17.9
581.772	17.82
582.194	17.73
582.616	17.64
583.038	17.55
583.46	17.48
583.882	17.38
584.303	17.3
584.725	17.21
585.147	17.12
585.568	17.02
585.99	16.92
586.411	16.84
586.833	16.76
587.254	16.7
587.675	16.64
588.096	16.56
588.518	16.49
588.939	16.44
589.36	16.37
589.781	16.34
590.202	16.28
590.623	16.23
591.043	16.18
591.464	16.12
591.885	16.07
592.305	16.04
592.726	16
593.147	15.98
593.567	15.93
593.987	15.91
594.408	15.86
594.828	15.83
595.248	15.8
595.669	15.77
596.089	15.74
596.509	15.68
596.929	15.62
597.349	15.56
597.769	15.5
598.189	15.47
598.608	15.42
599.028	15.35
599.448	15.32
599.867	15.26
600.287	15.2
600.706	15.16
601.126	15.11
601.545	15.06
601.965	15.02
602.384	14.97
602.803	14.9
603.222	14.83
603.641	14.78
604.061	14.7
604.48	14.62
604.898	14.55
605.317	14.46
605.736	14.38
606.155	14.31
606.574	14.23
606.992	14.15
607.411	14.07
607.829	13.95
608.248	13.87
608.666	13.79
609.085	13.71
609.503	13.62
609.921	13.55
610.339	13.48
610.758	13.39
611.176	13.3
611.594	13.2
612.012	13.11
612.43	13.07
612.847	12.99
613.265	12.91
613.683	12.82
614.101	12.73
614.518	12.64
614.936	12.56
615.353	12.5
615.771	12.41
616.188	12.36
616.606	12.29
617.023	12.21
617.44	12.15
617.857	12.08
618.274	12.02
618.691	11.97
619.108	11.93
619.525	11.88
619.942	11.84
620.359	11.81
620.776	11.78
621.192	11.75
621.609	11.72
622.026	11.69
622.442	11.67
622.859	11.65
623.275	11.64
623.691	11.61
624.108	11.59
624.524	11.58
624.94	11.55
625.356	11.52
625.772	11.51
626.188	11.5
626.604	11.48
627.02	11.46
627.436	11.45
627.852	11.43
628.268	11.4
628.683	11.36
629.099	11.34
629.514	11.32
629.93	11.29
630.345	11.24
630.761	11.2
631.176	11.17
631.591	11.14
632.007	11.07
632.422	11.03
632.837	10.98
633.252	10.93
633.667	10.84
634.082	10.78
634.497	10.68
634.911	10.58
635.326	10.47
635.741	10.35
636.155	10.24
636.57	10.13
636.984	9.99
637.399	9.85
637.813	9.71
638.228	9.58
638.642	9.45
639.056	9.33
639.47	9.2
639.884	9.06
640.298	8.92
640.712	8.79
641.126	8.64
641.54	8.51
641.954	8.4
642.368	8.28
642.781	8.15
643.195	8
643.609	7.87
644.022	7.75
644.436	7.65
644.849	7.55
645.262	7.45
645.676	7.36
646.089	7.28
646.502	7.17
646.915	7.1
647.328	7.04
647.741	6.95
648.154	6.91
648.567	6.87
648.98	6.82
649.393	6.78
649.805	6.73
650.218	6.68
650.631	6.64
651.043	6.61
651.456	6.58
651.868	6.54
652.28	6.52
652.693	6.47
653.105	6.42
653.517	6.38
653.929	6.34
654.341	6.3
654.753	6.26
655.165	6.21
655.577	6.15
655.989	6.09
656.401	6.01
656.813	5.94
657.224	5.89
657.636	5.83
658.047	5.76
658.459	5.67
658.87	5.61
659.282	5.53
659.693	5.46
660.104	5.39
660.515	5.33
660.926	5.27
661.338	5.22
661.749	5.14
662.159	5.06
662.57	5.01
662.981	4.96
663.392	4.91
663.803	4.86
664.213	4.82
664.624	4.78
665.035	4.74
665.445	4.71
665.855	4.68
666.266	4.65
666.676	4.63
667.086	4.61
667.497	4.58
667.907	4.54
668.317	4.52
668.727	4.51
669.137	4.5
669.547	4.49
669.956	4.49
670.366	4.5
670.776	4.5
671.186	4.51
671.595	4.52
672.005	4.54
672.414	4.57
672.824	4.6
673.233	4.62
673.642	4.64
674.052	4.66
674.461	4.67
674.87	4.69
675.279	4.71
675.688	4.74
676.097	4.77
676.506	4.82
676.915	4.85
677.323	4.89
677.732	4.93
678.141	4.99
678.549	5.04
678.958	5.11
679.366	5.17
679.775	5.24
680.183	5.32
680.592	5.39
681	5.46
681.408	5.55
681.816	5.65
682.224	5.76
682.632	5.88
683.04	6.01
683.448	6.17
683.856	6.33
684.264	6.52
684.671	6.72
685.079	6.94
685.487	7.19
685.894	7.48
686.302	7.76
686.709	8.05
687.116	8.4
687.524	8.76
687.931	9.15
688.338	9.57
688.745	10.01
689.152	10.5
689.559	11.02
689.966	11.53
690.373	12.09
690.78	12.68
691.187	13.29
691.593	13.91
692	14.55
692.407	15.22
692.813	15.91
693.22	16.62
693.626	17.32
694.032	18.03
694.439	18.78
694.845	19.51
695.251	20.24
695.657	20.97
696.063	21.72
696.469	22.45
696.875	23.17
697.281	23.89
697.687	24.61
698.093	25.33
698.498	26.05
698.904	26.75
699.31	27.43
699.715	28.14
700.12	28.83
700.526	29.5
700.931	30.16
701.337	30.84
701.742	31.47
702.147	32.08
702.552	32.7
702.957	33.31
703.362	33.93
703.767	34.51
704.172	35.1
704.577	35.66
704.981	36.22
705.386	36.79
705.791	37.35
706.195	37.89
706.6	38.44
707.004	38.97
707.408	39.46
707.813	39.95
708.217	40.42
708.621	40.91
709.025	41.42
709.43	41.89
709.834	42.37
710.237	42.81
710.641	43.29
711.045	43.73
711.449	44.16
711.853	44.62
712.256	45.06
712.66	45.51
713.064	45.92
713.467	46.32
713.87	46.71
714.274	47.12
714.677	47.51
715.08	47.86
715.484	48.26
715.887	48.61
716.29	48.99
716.693	49.32
717.096	49.67
717.499	50.01
717.901	50.31
718.304	50.65
718.707	50.92
719.109	51.27
719.512	51.65
719.915	51.95
720.317	52.25
720.719	52.52
721.122	52.83
721.524	53.12
721.926	53.41
722.328	53.71
722.731	53.97
723.133	54.25
723.535	54.5
723.937	54.68
724.338	54.88
724.74	55.12
725.142	55.25
725.544	55.43
725.945	55.61
726.347	55.8
726.748	55.94
727.15	56.09
727.551	56.27
727.952	56.41
728.354	56.58
728.755	56.74
729.156	56.89
729.557	57.13
729.958	57.3
730.359	57.46
730.76	57.61
731.161	57.77
731.562	57.92
731.962	58.04
732.363	58.14
732.763	58.26
733.164	58.37
733.564	58.46
733.965	58.52
734.365	58.58
734.766	58.65
735.166	58.67
735.566	58.71
735.966	58.76
736.366	58.8
736.766	58.87
737.166	58.94
737.566	59.01
737.966	59.09
738.365	59.18
738.765	59.26
739.165	59.28
739.564	59.37
739.964	59.45
740.363	59.51
740.763	59.58
741.162	59.61
741.561	59.64
741.96	59.67
742.36	59.72
742.759	59.71
743.158	59.72
743.557	59.79
743.955	59.86
744.354	59.89
744.753	59.94
745.152	59.97
745.55	60.03
745.949	60.07
746.348	60.12
746.746	60.13
747.144	60.22
747.543	60.27
747.941	60.36
748.339	60.41
748.737	60.49
749.136	60.54
749.534	60.62
749.932	60.64
750.33	60.69
750.727	60.71
751.125	60.73
751.523	60.68
751.921	60.7
752.318	60.67
752.716	60.64
753.113	60.59
753.511	60.53
753.908	60.48
754.305	60.46
754.703	60.41
755.1	60.37
755.497	60.37
755.894	60.38
756.291	60.36
756.688	60.32
757.085	60.3
757.482	60.29
757.878	60.31
758.275	60.29
758.672	60.28
759.068	60.27
759.465	60.3
759.861	60.3
760.258	60.28
760.654	60.29
761.05	60.29
761.447	60.3
761.843	60.28
762.239	60.26
762.635	60.26
763.031	60.27
763.427	60.26
763.822	60.19
764.218	60.14
764.614	60.14
765.01	60.14
765.405	60.11
765.801	60.07
766.196	60.06
766.592	60.04
766.987	60.02
767.382	60.01
767.778	60.05
768.173	60.08
768.568	60.05
768.963	60.03
769.358	60.02
769.753	60.02
770.148	60.01
770.542	60.01
770.937	60.02
771.332	60.01
771.726	59.98
772.121	59.93
772.515	59.89
772.91	59.88
773.304	59.89
773.699	59.9
774.093	59.85
774.487	59.85
774.881	59.87
775.275	59.85
775.669	59.86
776.063	59.85
776.457	59.84
776.851	59.82
777.245	59.88
777.638	59.88
778.032	59.85
778.425	59.91
778.819	59.93
779.212	59.89
779.606	59.88
779.999	59.84
780.392	59.84
780.786	59.81
781.179	59.85
781.572	59.78
781.965	59.77
782.358	59.73
782.751	59.72
783.143	59.72
783.536	59.73
783.929	59.74
784.322	59.77
784.714	59.78
785.107	59.83
785.499	59.83
785.891	59.88
786.284	59.85
786.676	59.9
787.068	59.86
787.46	59.84
787.852	59.86
788.245	59.87
788.636	59.87
789.028	59.88
789.42	59.85
789.812	59.87
790.204	59.84
790.595	59.85
790.987	59.83
791.378	59.85
791.77	59.88
792.161	59.87
792.553	59.9
792.944	59.9
793.335	59.88
793.726	59.87
794.117	59.83
794.508	59.87
794.899	59.84
795.29	59.84
795.681	59.87
796.072	59.82
796.463	59.81
796.853	59.77
797.244	59.75
797.634	59.78
798.025	59.82
798.415	59.87
798.806	59.9
799.196	60
799.586	60.04
799.976	60.05
800.366	60.1
800.756	60.15
801.146	60.15
801.536	60.18
801.926	60.2
802.316	60.21
802.706	60.22
803.095	60.2
803.485	60.21
803.874	60.22
804.264	60.25
804.653	60.19
805.043	60.17
805.432	60.17
805.821	60.17
806.21	60.19
806.599	60.24
806.988	60.28
807.377	60.3
807.766	60.26
808.155	60.34
808.544	60.32
808.933	60.43
809.321	60.49
809.71	60.56
810.098	60.59
810.487	60.62
810.875	60.6
811.264	60.62
811.652	60.63
812.04	60.67
812.428	60.62
812.816	60.69
813.204	60.66
813.592	60.67
813.98	60.69
814.368	60.69
814.756	60.71
815.144	60.77
815.531	60.78
815.919	60.79
816.306	60.8
816.694	60.84
817.081	60.81
817.469	60.82
817.856	60.89
818.243	60.88
818.63	60.95
819.017	60.94
819.404	60.9
819.791	60.91
820.178	60.9
820.565	60.91
820.952	60.93
821.339	60.98
821.725	60.99
822.112	60.95
822.498	60.97
822.885	60.96
823.271	60.98
823.657	61.02
824.044	61.04
824.43	61.07
824.816	61.06
825.202	61.04
825.588	61.02
825.974	61.01
826.36	61
826.746	61.04
827.132	61.02
827.517	60.99
827.903	60.97
828.289	60.98
828.674	60.94
829.06	60.97
829.445	61
829.83	60.99
830.216	61.01
830.601	61
830.986	60.95
831.371	60.98
831.756	60.94
832.141	60.95
832.526	60.92
832.911	60.95
833.295	60.93
833.68	60.9
834.065	60.89
834.449	60.86
834.834	60.84
835.218	60.82
835.603	60.77
835.987	60.8
836.371	60.79
836.755	60.77
837.139	60.75
837.524	60.73
837.908	60.71
838.291	60.69
838.675	60.68
839.059	60.68
839.443	60.68
839.827	60.69
840.21	60.7
840.594	60.7
840.977	60.64
841.361	60.63
841.744	60.62
842.127	60.62
842.511	60.61
842.894	60.63
843.277	60.64
843.66	60.66
844.043	60.63
844.426	60.58
844.809	60.56
845.191	60.59
845.574	60.6
845.957	60.58
846.339	60.55
846.722	60.55
847.104	60.52
847.487	60.51
847.869	60.48
848.252	60.46
848.634	60.48
849.016	60.48
849.398	60.48
849.78	60.5
850.162	60.51
850.544	60.55
850.926	60.54
851.307	60.54
851.689	60.52
852.071	60.51
852.452	60.53
852.834	60.53
853.215	60.52
853.597	60.5
853.978	60.47
854.359	60.47
854.741	60.45
855.122	60.48
855.503	60.5
855.884	60.5
856.265	60.5
856.646	60.5
857.026	60.5
857.407	60.49
857.788	60.53
858.169	60.53
858.549	60.56
858.93	60.55
859.31	60.53
859.69	60.51
860.071	60.53
860.451	60.54
860.831	60.55
861.211	60.54
861.591	60.53
861.971	60.52
862.351	60.55
862.731	60.53
863.111	60.55
863.491	60.59
863.87	60.61
864.25	60.63
864.629	60.62
865.009	60.6
865.388	60.59
865.768	60.61
866.147	60.63
866.526	60.62
866.905	60.61
867.284	60.59
867.663	60.55
868.042	60.55
868.421	60.52
868.8	60.54
869.179	60.56
869.558	60.54
869.936	60.51
870.315	60.47
870.693	60.48
871.072	60.49
871.45	60.49
871.828	60.51
872.207	60.5
872.585	60.5
872.963	60.48
873.341	60.46
873.719	60.47
874.097	60.49
874.475	60.5
874.853	60.47
875.23	60.46
875.608	60.46
875.986	60.44
876.363	60.43
876.741	60.43
877.118	60.44
877.495	60.45
877.873	60.46
878.25	60.46
878.627	60.5
879.004	60.48
879.381	60.46
879.758	60.47
880.135	60.48
880.512	60.47
880.889	60.51
881.265	60.54
881.642	60.53
882.019	60.56
882.395	60.59
882.772	60.56
883.148	60.58
883.524	60.6
883.901	60.58
884.277	60.58
884.653	60.59
885.029	60.57
885.405	60.56
885.781	60.55
886.157	60.54
886.532	60.52
886.908	60.54
887.284	60.54
887.659	60.54
888.035	60.53
888.411	60.53
888.786	60.51
889.161	60.52
889.537	60.5
889.912	60.51
890.287	60.49
890.662	60.48
891.037	60.42
891.412	60.38
891.787	60.37
892.162	60.35
892.536	60.32
892.911	60.3
893.286	60.26
893.66	60.22
894.035	60.19
894.409	60.16
894.784	60.13
895.158	60.12
895.532	60.11
895.906	60.06
896.281	60.03
896.655	60.02
897.029	59.99
897.402	59.94
897.776	59.95
898.15	59.92
898.524	59.91
898.898	59.89
899.271	59.87
899.645	59.88
900.018	59.87
900.392	59.87
900.765	59.85
901.138	59.86
901.511	59.86
901.884	59.88
902.258	59.87
902.631	59.89
903.003	59.9
903.376	59.91
903.749	59.9
904.122	59.95
904.495	59.95
904.867	59.95
905.24	59.94
905.612	59.94
905.985	59.9
906.357	59.89
906.729	59.85
907.102	59.86
907.474	59.86
907.846	59.88
908.218	59.84
908.59	59.84
908.962	59.83
909.334	59.78
909.705	59.79
910.077	59.76
910.449	59.78
910.82	59.79
911.192	59.77
911.563	59.71
911.935	59.64
912.306	59.66
912.677	59.63
913.048	59.6
913.419	59.63
913.79	59.61
914.161	59.61
914.532	59.57
914.903	59.55
915.274	59.55
915.645	59.61
916.015	59.61
916.386	59.55
916.756	59.51
917.127	59.52
917.497	59.5
917.868	59.5
918.238	59.5
918.608	59.49
918.978	59.46
919.348	59.44
919.718	59.38
920.088	59.41
920.458	59.44
920.828	59.46
921.198	59.52
921.567	59.5
921.937	59.54
922.306	59.5
922.676	59.55
923.045	59.56
923.415	59.58
923.784	59.63
924.153	59.6
924.522	59.6
924.891	59.63
925.26	59.63
925.629	59.67
925.998	59.65
926.367	59.7
926.736	59.62
927.104	59.6
927.473	59.57
927.842	59.5
928.21	59.54
928.578	59.5
928.947	59.46
929.315	59.41
929.683	59.38
930.051	59.26
930.42	59.2
930.788	59.22
931.156	59.24
931.523	59.22
931.891	59.16
932.259	59.04
932.627	58.95
932.994	58.9
933.362	58.86
933.729	58.76
934.097	58.76
934.464	58.68
934.831	58.57
935.199	58.46
935.566	58.35
935.933	58.32
936.3	58.27
936.667	58.19
937.034	58.12
937.401	57.99
937.767	57.94
938.134	57.87
938.501	57.81
938.867	57.91
939.234	57.91
939.6	57.86
939.967	57.86
940.333	57.97
940.699	58.1
941.065	58.2
941.431	58.37
941.798	58.5
942.163	58.64
942.529	58.77
942.895	58.75
943.261	58.82
943.627	58.99
943.992	59.04
944.358	59.03
944.723	59.02
945.089	59.04
945.454	59.07
945.82	59.08
946.185	59
946.55	59.13
946.915	59.14
947.28	59.12
947.645	59.18
948.01	59.16
948.375	59.15
948.74	59.06
949.104	58.99
949.469	58.86
949.834	58.74
950.198	58.79
950.562	58.67
950.927	58.63
951.291	58.59
951.655	58.57
952.02	58.58
952.384	58.6
952.748	58.67
953.112	58.68
953.476	58.74
953.839	58.76
954.203	58.65
954.567	58.63
954.931	58.63
955.294	58.69
955.658	58.59
956.021	58.58
956.385	58.58
956.748	58.6
957.111	58.58
957.474	58.65
957.837	58.68
958.2	58.72
958.563	58.74
958.926	58.69
959.289	58.65
959.652	58.7
960.015	58.66
960.377	58.61
960.74	58.47
961.102	58.49
961.465	58.39
961.827	58.25
962.189	58.22
962.552	58.11
962.914	58.08
963.276	58.08
963.638	57.96
964	57.94
964.362	57.93
964.724	58
965.085	57.98
965.447	57.95
965.809	57.97
966.17	57.97
966.532	58.03
966.893	58.04
967.255	57.98
967.616	58.03
967.977	58
968.338	57.96
968.699	57.9
969.061	57.78
969.421	57.77
969.782	57.8
970.143	57.75
970.504	57.69
970.865	57.59
971.225	57.6
971.586	57.59
971.946	57.57
972.307	57.52
972.667	57.59
973.027	57.62
973.388	57.51
973.748	57.56
974.108	57.57
974.468	57.59
974.828	57.66
975.188	57.77
975.548	57.81
975.907	57.83
976.267	57.95
976.627	57.89
976.986	57.9
977.346	57.94
977.705	57.89
978.064	57.83
978.424	57.84
978.783	57.8
979.142	57.67
979.501	57.66
979.86	57.63
980.219	57.44
980.578	57.42
980.937	57.48
981.296	57.55
981.654	57.65
982.013	57.72
982.371	57.62
982.73	57.67
983.088	57.62
983.447	57.6
983.805	57.56
984.163	57.71
984.521	57.58
984.879	57.54
985.237	57.57
985.595	57.47
985.953	57.48
986.311	57.63
986.669	57.61
987.026	57.66
987.384	57.66
987.741	57.8
988.099	57.69
988.456	57.81
988.814	57.78
989.171	57.55
989.528	57.5
989.885	57.3
990.242	57.22
990.599	57.2
990.956	57.07
991.313	56.93
991.67	56.87
992.027	56.84
992.383	56.82
992.74	56.74
993.096	56.85
993.453	56.84
993.809	57.01
994.165	56.95
994.522	56.89
994.878	56.9
995.234	56.92
995.59	56.85
995.946	57
996.302	56.96
996.658	57.09
997.013	57.15
997.369	57.1
997.725	57.04
998.08	57.14
998.436	57.17
998.791	57.29
999.147	57.19
999.502	57.11
999.857	56.99
1000.212	56.94
1000.567	56.84
1000.922	56.79
1001.277	56.81
1001.632	56.82
1001.987	56.64
1002.342	56.66
1002.696	56.64
1003.051	56.55
1003.406	56.63
1003.76	56.53
1004.114	56.6
1004.469	56.45
1004.823	56.53
1005.177	56.66
1005.531	56.52
1005.885	56.61
1006.239	56.41
1006.593	56.18
1006.947	56.23
1007.301	56.17
1007.655	56.22
1008.008	56.11
1008.362	56.16
1008.715	55.87
1009.069	55.49
1009.422	55.4
1009.776	55.28
1010.129	55.29
1010.482	55.39
1010.835	55.69
1011.188	55.43
1011.541	55.35
1011.894	55.32
1012.247	55.39
1012.6	55.35
1012.952	55.61
1013.305	55.73
1013.657	55.95
1014.01	56.19
1014.362	56.1
1014.715	55.8
1015.067	55.76
1015.419	55.64
1015.771	55.8
1016.123	55.67
1016.475	55.76
1016.827	55.71
1017.179	55.68
1017.531	55.15
1017.883	54.93
1018.234	55.1
1018.586	55.03
1018.938	54.89
1019.289	54.97
1019.64	55
1019.992	54.91
1020.343	54.79
1020.694	54.68
1021.045	54.72
1021.396	54.83
1021.747	54.57
1022.098	54.3
1022.449	54.2
1022.8	54.5
1023.151	54.47
1023.501	54.12
1023.852	53.93
1024.202	53.97
1024.553	53.83
1024.903	53.52
1025.253	53.72
1025.604	53.93
1025.954	53.75
1026.304	54.27
1026.654	54.55
1027.004	54.34
1027.354	54.15
1027.703	54.17
1028.053	54.04
1028.403	53.69
1028.753	53.9
1029.102	53.71
1029.452	53.58
1029.801	53.75
1030.15	53.19
1030.499	52.73
897.758	480.46
901.051	483.49
904.343	497.68
907.636	491.23
910.928	481.42
914.22	490.35
917.511	479
920.803	456.19
924.094	437.93
927.384	442.03
930.675	430.29
933.965	427.09
937.255	427.61
940.544	405.53
943.834	384.22
947.123	380.19
950.411	361.17
953.7	356.11
956.988	350.82
960.276	334.61
963.563	333.49
966.851	313.77
970.138	308.22
973.424	289.79
976.711	286.71
979.997	279.4
983.283	272.92
986.568	264.35
989.853	256.87
993.138	246.26
996.423	246.88
999.708	236.94
1002.992	239.72
1006.275	231.22
1009.559	230.06
1012.842	223.78
1016.125	217.3
1019.408	213.57
1022.69	213.24
1025.972	211.61
1029.254	207.4
1032.536	201.72
1035.817	195.49
1039.098	191.93
1042.379	191.48
1045.659	187.85
1048.939	187.48
1052.219	184.55
1055.498	181.91
1058.778	178.16
1062.057	176
1065.335	174.75
1068.614	173.04
1071.892	172.35
1075.17	168.87
1078.447	165.38
1081.724	164.7
1085.001	159.98
1088.278	161.35
1091.554	159.93
1094.83	158.44
1098.106	156.17
1101.382	155.78
1104.657	154.74
1107.932	154.18
1111.206	153.96
1114.481	152.51
1117.755	151.61
1121.029	151.57
1124.302	149.14
1127.575	148.06
1130.848	147.82
1134.121	145.79
1137.393	145.33
1140.665	144.27
1143.937	142.81
1147.208	141.57
1150.48	141.11
1153.75	139.94
1157.021	138.68
1160.291	137.82
1163.561	136.83
1166.831	136.49
1170.101	136.14
1173.37	135.55
1176.639	134.7
1179.907	134.52
1183.176	134.03
1186.444	134.49
1189.711	133.67
1192.979	134.42
1196.246	134.65
1199.513	135.1
1202.78	134.36
1206.046	134.84
1209.312	134.26
1212.578	135.16
1215.843	136.97
1219.108	138.39
1222.373	139.89
1225.638	142.52
1228.902	145.34
1232.166	148.9
1235.43	149.58
1238.693	154.24
1241.956	157.25
1245.219	161.66
1248.482	163.23
1251.744	163.16
1255.006	162.09
1258.268	158.67
1261.529	157.05
1264.79	153.26
1268.051	151.43
1271.312	150.07
1274.572	146.88
1277.832	143.97
1281.092	141.79
1284.351	138.86
1287.61	138.22
1290.869	138.5
1294.128	137.71
1297.386	137.68
1300.644	137.4
1303.902	135.83
1307.159	134.75
1310.416	135.65
1313.673	136.63
1316.93	137.8
1320.186	140.16
1323.442	141.79
1326.697	143.67
1329.953	144.93
1333.208	148.29
1336.463	153.6
1339.717	156.62
1342.972	164.23
1346.226	167.97
1349.479	169.62
1352.733	176.25
1355.986	178.42
1359.238	181.8
1362.491	182.91
1365.743	188.52
1368.995	191.17
1372.247	190.16
1375.498	189.19
1378.749	195.3
1382	194.3
1385.251	192.44
1388.501	193.67
1391.751	195.98
1395	192.82
1398.25	194.32
1401.499	193.43
1404.748	191.06
1407.996	185.56
1411.244	186.39
1414.492	182.35
1417.74	177.16
1420.987	173.83
1424.234	169.23
1427.481	161.9
1430.728	159.26
1433.974	153.24
1437.22	150.01
1440.465	144.87
1443.711	142.25
1446.956	137.98
1450.201	133.41
1453.445	127.67
1456.689	125.11
1459.933	121.04
1463.177	116.93
1466.42	115.03
1469.663	112.55
1472.906	108.75
1476.148	106.65
1479.391	104.46
1482.633	102.79
1485.874	101.75
1489.115	101.31
1492.356	99.82
1495.597	98.29
1498.838	99.1
1502.078	97.88
1505.318	97.8
1508.557	97.34
1511.797	96.7
1515.036	96.6
1518.274	96.4
1521.513	95.16
1524.751	94.64
1527.989	96.1
1531.227	96.2
1534.464	95.52
1537.701	95.65
1540.938	95.04
1544.174	95.03
1547.41	95.61
1550.646	95.82
1553.882	95.58
1557.117	94.88
1560.352	95.39
1563.587	93.81
1566.821	94.05
1570.055	93.66
1573.289	93.44
1576.523	93.38
1579.756	93.23
1582.989	93.06
1586.222	92.65
1589.454	93.38
1592.686	94.34
1595.918	93.52
1599.15	93.57
1602.381	93.31
1605.612	93.54
1608.843	93.26
1612.073	94.21
1615.303	94.22
1618.533	93.75
1621.762	93.76
1624.992	92.95
1628.221	92.2
1631.449	93.19
1634.678	93.22
1637.906	93.37
1641.134	93.4
1644.361	93.47
1647.588	92.88
1650.815	93.24
1654.042	93.61
1657.269	93.43
1660.495	94.06
1663.72	94.55
1666.946	93.97
1670.171	94.53
1673.396	95.24
1676.621	95.42
1679.845	95.27
1683.069	95.34
1686.293	94.86
1689.517	94.86
1692.74	95.39
1695.963	95
1699.185	95.47
1702.408	95.7
1705.63	95.38
1708.852	95.54
1712.073	95.31
1715.294	95.62
1718.515	96.21
1721.736	96.38
1724.956	96.36
1728.176	95.99
1731.396	96.46
1734.616	96.49
1737.835	96.81
1741.054	96.87
1744.272	96.06
1747.491	96.23
1750.709	97.01
1753.927	96.79
1757.144	96.93
1760.361	97
1763.578	97.84
1766.795	98.07
1770.011	98
1773.227	98.2
1776.443	99.06
1779.658	98.98
1782.874	99.76
1786.089	99.27
1789.303	99.3
1792.518	99.52
1795.732	100.61
1798.945	101.52
1802.159	101.38
1805.372	101.96
1808.585	102.96
1811.797	103.4
1815.01	104.54
1818.222	104.9
1821.434	105.26
1824.645	105.93
1827.856	107.54
1831.067	107.52
1834.278	107.88
1837.488	109.05
1840.698	110.15
1843.908	109.9
1847.117	110.37
1850.326	110.97
1853.535	112.1
1856.744	112.57
1859.952	114.07
1863.16	113.67
1866.368	113.21
1869.575	112.15
1872.782	111.36
1875.989	109.85
1879.196	109.84
1882.402	108.46
1885.608	108.43
1888.814	106.44
1892.019	107.06
1895.224	104.18
1898.429	105.04
1901.634	104.41
1904.838	105.22
1908.042	105.09
1911.246	103.85
1914.449	103.42
1917.652	102.71
1920.855	102.46
1924.058	102.1
1927.26	100.98
1930.462	102.33
1933.664	101.06
1936.865	101.98
1940.066	100.12
1943.267	98.97
1946.467	101.35
1949.668	101.21
1952.868	102.49
1956.067	102.7
1959.267	102.68
1962.466	103.24
1965.665	104.24
1968.863	105.32
1972.061	106.27
1975.259	109.13
1978.457	111.53
1981.654	110.82
1984.852	112.06
1988.048	113.05
1991.245	115.25
1994.441	118.79
1997.637	120.9
2000.833	122.57
2004.028	122.86
2007.223	126.62
2010.418	128.83
2013.613	134.05
2016.807	138.25
2020.001	139.46
2023.194	143.91
2026.388	148.4
2029.581	156.15
2032.774	160.16
2035.966	164.47
2039.158	170.35
2042.35	171.81
2045.542	174.36
2048.733	181.79
2051.924	183.04
2055.115	188.1
2058.306	189.43
2061.496	191.55
2064.686	191.5
2067.875	189.88
2071.065	192.79
2074.254	194
2077.442	198.35
2080.631	199.4
2083.819	197.88
2087.007	204.79
2090.195	207.45
2093.382	207.72
2096.569	208.63
2099.756	212.05
2102.942	217.87
2106.128	221.32
2109.314	222.79
2112.5	224.71
2115.685	222.53
2118.87	223.82
2122.055	220.38
2125.239	224.66
2128.424	230.78
2131.608	228.02
2134.791	226.67
2137.974	227.61
2141.157	229.21
2144.34	229.76
2147.523	232.89
2150.705	240.3
2153.887	239.18
2157.068	243.65
2160.25	244.85
2163.431	245.28
2166.611	249.58
2169.792	254.27
2172.972	259.07
2176.152	258.41
2179.331	263.93
2182.511	266.64
2185.69	268.68
2188.868	275.66
2192.047	282.8
2195.225	287.67
2198.403	285.88
2201.58	283.85
2204.758	293.35
2207.935	293.28
2211.111	301.75
2214.288	304.28
2217.464	304.57
2220.64	308.67
2223.815	310.24
2226.991	304.61
2230.166	306.8
2233.34	320.63
2236.515	330.35
2239.689	320.76
2242.863	329.01
2246.036	324.69
2249.209	330.83
2252.382	329.06
2255.555	341.63
2258.727	345.01
2261.9	355.83
2265.071	360.99
2268.243	353.63
2271.414	364.82
2274.585	374.84
2277.756	371.8
2280.926	390.18
2284.096	388.6
2287.266	394.28
2290.436	385.13
2293.605	395.8
2296.774	405.88
2299.942	408.64
2303.111	422.73
2306.279	431.52
2309.447	430.62
2312.614	436.57
2315.781	439.48
2318.948	448.39
2322.115	457.75
2325.281	479.46
2328.447	470.76
2331.613	476.11
2334.779	480.03
2337.944	484.73
2341.109	489.09
2344.274	496.56
2347.438	504.67
2350.602	514.92
2353.766	546.4
2356.929	547.61
2360.092	553.5
2363.255	563.14
2366.418	572.63
2369.58	581.42
2372.742	589.04
2375.904	584.48
2379.066	603.02
2382.227	635.44
2385.388	635.77
2388.548	605.01
2391.709	596.78
2394.869	613.22
2398.029	609.89
2401.188	611.06
2404.347	630.91
2407.506	645.53
2410.665	624.85
2413.823	633.1
2416.981	633.48
2420.139	602.84
2423.296	650.48
2426.453	693.41
2429.61	657.79
2432.767	701.32
2435.923	722.01
2439.079	696.7
2442.235	715.47
2445.391	735.04
2448.546	718.74
2451.701	765.82
2454.855	814.66
2458.009	724.09
2461.163	732.78
2464.317	750.07
2467.471	736.18
2470.624	758.58
2473.777	743.3
2476.929	718.84
2480.082	763.69
2483.234	804.88
2486.385	806.99
2489.537	830.97
2492.688	911.06
2495.839	905.84
2498.989	932.77
2502.14	931.85
2505.29	896.07
2508.439	992.13
2511.589	1013.98
2514.738	984.99
2517.887	969.94
2521.035	910.07
2524.183	897.1
2527.331	884.32
2530.479	855.76
2533.627	872.83
