Data from C_2_div_pa_2n_086_Splice17_03.txt Node
Date: Sat Feb 29 14:16:00 EST 2020
User: sa697716
Spectrometer: FLMS03696
Trigger mode: 0
Integration Time (sec): 3.180400E-1
Scans to average: 20
Electric dark correction enabled: true
Nonlinearity correction enabled: true
Boxcar width: 5
XAxis mode: Wavelengths
Number of Pixels in Spectrum: 2048
>>>>>Begin Spectral Data<<<<<
187.83	84.6
188.298	88.6
188.766	86.11
189.233	72.32
189.701	83.27
190.169	80.11
190.636	90.25
191.104	87.78
191.571	252.69
192.039	335.92
192.506	-544.51
192.974	-944.56
193.441	-1.37
193.908	123.84
194.375	105.08
194.842	162.7
195.31	88.89
195.777	138.97
196.244	53.66
196.711	43.86
197.177	40.57
197.644	40.41
198.111	40.05
198.578	39.66
199.045	39.96
199.511	40.81
199.978	41.39
200.445	41.1
200.911	41.26
201.378	41.91
201.844	42.28
202.31	43.2
202.777	43.69
203.243	44.44
203.709	45.2
204.176	44.86
204.642	44.45
205.108	44.46
205.574	45.01
206.04	45.09
206.506	44.8
206.972	45.04
207.438	44.53
207.903	44.35
208.369	43.73
208.835	43.08
209.301	42.76
209.766	42.59
210.232	42.44
210.697	42.03
211.163	41.31
211.628	40.58
212.094	39.95
212.559	39.48
213.024	38.84
213.49	38.27
213.955	37.98
214.42	37.41
214.885	36.7
215.35	35.79
215.815	34.64
216.28	33.63
216.745	32.61
217.21	31.44
217.675	30.19
218.14	29.01
218.604	27.84
219.069	26.83
219.534	25.87
219.998	25.13
220.463	24.49
220.927	23.9
221.392	23.4
221.856	22.92
222.32	22.42
222.785	22.02
223.249	21.65
223.713	21.37
224.177	21.03
224.642	20.79
225.106	20.45
225.57	20.16
226.034	19.9
226.497	19.62
226.961	19.33
227.425	19.07
227.889	18.82
228.353	18.58
228.816	18.32
229.28	18.04
229.744	17.82
230.207	17.65
230.671	17.42
231.134	17.2
231.597	16.97
232.061	16.77
232.524	16.6
232.987	16.42
233.45	16.19
233.914	16
234.377	15.85
234.84	15.68
235.303	15.49
235.766	15.31
236.229	15.16
236.691	15.03
237.154	14.89
237.617	14.72
238.08	14.57
238.542	14.46
239.005	14.33
239.468	14.19
239.93	14.07
240.393	13.95
240.855	13.84
241.317	13.73
241.78	13.61
242.242	13.5
242.704	13.41
243.166	13.31
243.629	13.2
244.091	13.11
244.553	13.02
245.015	12.9
245.477	12.78
245.939	12.69
246.4	12.58
246.862	12.48
247.324	12.39
247.786	12.3
248.247	12.2
248.709	12.1
249.17	12.02
249.632	11.93
250.093	11.83
250.555	11.77
251.016	11.7
251.477	11.62
251.939	11.55
252.4	11.48
252.861	11.4
253.322	11.35
253.783	11.31
254.244	11.25
254.705	11.2
255.166	11.16
255.627	11.1
256.088	11.05
256.549	11.01
257.009	10.94
257.47	10.89
257.931	10.84
258.391	10.77
258.852	10.7
259.312	10.64
259.773	10.57
260.233	10.51
260.694	10.46
261.154	10.4
261.614	10.34
262.074	10.3
262.534	10.23
262.994	10.18
263.455	10.14
263.915	10.1
264.374	10.05
264.834	10.01
265.294	9.96
265.754	9.9
266.214	9.86
266.673	9.81
267.133	9.76
267.593	9.73
268.052	9.68
268.512	9.63
268.971	9.59
269.431	9.55
269.89	9.51
270.349	9.48
270.809	9.46
271.268	9.43
271.727	9.4
272.186	9.37
272.645	9.33
273.104	9.3
273.563	9.27
274.022	9.24
274.481	9.21
274.94	9.16
275.399	9.12
275.857	9.09
276.316	9.05
276.775	9
277.233	8.96
277.692	8.93
278.15	8.89
278.609	8.85
279.067	8.82
279.525	8.78
279.984	8.75
280.442	8.73
280.9	8.69
281.358	8.65
281.816	8.63
282.274	8.6
282.732	8.57
283.19	8.55
283.648	8.52
284.106	8.48
284.564	8.46
285.021	8.44
285.479	8.42
285.937	8.4
286.394	8.38
286.852	8.36
287.309	8.33
287.767	8.31
288.224	8.29
288.682	8.27
289.139	8.26
289.596	8.23
290.053	8.19
290.511	8.15
290.968	8.12
291.425	8.1
291.882	8.06
292.339	8.03
292.796	7.99
293.252	7.95
293.709	7.91
294.166	7.87
294.623	7.85
295.079	7.84
295.536	7.81
295.992	7.78
296.449	7.76
296.905	7.74
297.362	7.72
297.818	7.7
298.274	7.68
298.731	7.66
299.187	7.64
299.643	7.62
300.099	7.6
300.555	7.56
301.011	7.54
301.467	7.51
301.923	7.49
302.379	7.46
302.835	7.45
303.291	7.42
303.746	7.4
304.202	7.37
304.658	7.36
305.113	7.33
305.569	7.33
306.024	7.31
306.479	7.3
306.935	7.29
307.39	7.28
307.845	7.26
308.301	7.26
308.756	7.26
309.211	7.25
309.666	7.25
310.121	7.24
310.576	7.23
311.031	7.23
311.486	7.22
311.94	7.21
312.395	7.2
312.85	7.2
313.305	7.2
313.759	7.19
314.214	7.19
314.668	7.18
315.123	7.17
315.577	7.17
316.032	7.16
316.486	7.15
316.94	7.14
317.394	7.13
317.849	7.11
318.303	7.09
318.757	7.07
319.211	7.04
319.665	7.03
320.119	7.01
320.572	6.99
321.026	6.97
321.48	6.96
321.934	6.94
322.387	6.93
322.841	6.91
323.295	6.89
323.748	6.89
324.202	6.88
324.655	6.87
325.108	6.84
325.562	6.82
326.015	6.81
326.468	6.78
326.921	6.77
327.374	6.76
327.827	6.74
328.28	6.73
328.733	6.71
329.186	6.7
329.639	6.69
330.092	6.69
330.545	6.68
330.997	6.68
331.45	6.67
331.903	6.66
332.355	6.65
332.808	6.66
333.26	6.65
333.713	6.65
334.165	6.64
334.617	6.64
335.069	6.64
335.522	6.64
335.974	6.63
336.426	6.64
336.878	6.64
337.33	6.65
337.782	6.64
338.234	6.64
338.686	6.64
339.137	6.64
339.589	6.63
340.041	6.63
340.493	6.61
340.944	6.61
341.396	6.6
341.847	6.59
342.299	6.57
342.75	6.54
343.201	6.52
343.653	6.5
344.104	6.48
344.555	6.47
345.006	6.44
345.457	6.44
345.908	6.42
346.359	6.4
346.81	6.38
347.261	6.36
347.712	6.35
348.163	6.34
348.613	6.32
349.064	6.3
349.515	6.28
349.965	6.26
350.416	6.25
350.866	6.23
351.317	6.22
351.767	6.21
352.217	6.2
352.668	6.2
353.118	6.19
353.568	6.2
354.018	6.21
354.468	6.2
354.918	6.22
355.368	6.22
355.818	6.21
356.268	6.22
356.718	6.21
357.168	6.21
357.617	6.2
358.067	6.19
358.517	6.18
358.966	6.17
359.416	6.18
359.865	6.16
360.315	6.16
360.764	6.15
361.213	6.14
361.663	6.15
362.112	6.16
362.561	6.16
363.01	6.16
363.459	6.16
363.908	6.16
364.357	6.15
364.806	6.14
365.255	6.14
365.703	6.14
366.152	6.14
366.601	6.13
367.05	6.12
367.498	6.12
367.947	6.1
368.395	6.11
368.844	6.1
369.292	6.09
369.74	6.1
370.189	6.09
370.637	6.09
371.085	6.09
371.533	6.09
371.981	6.08
372.429	6.07
372.877	6.09
373.325	6.07
373.773	6.06
374.221	6.05
374.669	6.04
375.116	6.03
375.564	6.02
376.012	6.02
376.459	6.02
376.907	6.03
377.354	6.03
377.801	6.03
378.249	6.04
378.696	6.05
379.143	6.04
379.591	6.05
380.038	6.06
380.485	6.06
380.932	6.07
381.379	6.06
381.826	6.06
382.273	6.06
382.72	6.06
383.166	6.07
383.613	6.09
384.06	6.1
384.506	6.1
384.953	6.1
385.4	6.11
385.846	6.12
386.292	6.15
386.739	6.15
387.185	6.17
387.631	6.19
388.078	6.2
388.524	6.19
388.97	6.2
389.416	6.21
389.862	6.21
390.308	6.23
390.754	6.23
391.2	6.24
391.645	6.26
392.091	6.27
392.537	6.27
392.983	6.29
393.428	6.31
393.874	6.35
394.319	6.38
394.765	6.4
395.21	6.4
395.655	6.43
396.101	6.45
396.546	6.46
396.991	6.48
397.436	6.49
397.881	6.51
398.326	6.53
398.771	6.55
399.216	6.57
399.661	6.6
400.106	6.64
400.551	6.65
400.995	6.67
401.44	6.68
401.885	6.68
402.329	6.7
402.774	6.71
403.218	6.74
403.663	6.76
404.107	6.77
404.551	6.8
404.995	6.81
405.44	6.82
405.884	6.83
406.328	6.86
406.772	6.89
407.216	6.92
407.66	6.95
408.104	6.96
408.547	6.98
408.991	7
409.435	7
409.879	7.03
410.322	7.07
410.766	7.11
411.209	7.14
411.653	7.14
412.096	7.16
412.54	7.18
412.983	7.22
413.426	7.24
413.869	7.26
414.312	7.31
414.756	7.34
415.199	7.37
415.642	7.41
416.085	7.44
416.527	7.49
416.97	7.53
417.413	7.53
417.856	7.54
418.298	7.54
418.741	7.55
419.184	7.55
419.626	7.55
420.069	7.55
420.511	7.55
420.953	7.55
421.396	7.55
421.838	7.57
422.28	7.63
422.722	7.66
423.164	7.69
423.606	7.72
424.048	7.73
424.49	7.77
424.932	7.8
425.374	7.82
425.816	7.83
426.258	7.83
426.699	7.79
427.141	7.75
427.582	7.75
428.024	7.75
428.465	7.75
428.907	7.78
429.348	7.79
429.789	7.77
430.231	7.76
430.672	7.76
431.113	7.79
431.554	7.83
431.995	7.87
432.436	7.86
432.877	7.85
433.318	7.85
433.759	7.85
434.2	7.85
434.64	7.88
435.081	7.89
435.522	7.92
435.962	7.94
436.403	7.97
436.843	7.99
437.284	8.03
437.724	8.08
438.164	8.1
438.604	8.12
439.045	8.14
439.485	8.15
439.925	8.16
440.365	8.15
440.805	8.16
441.245	8.15
441.685	8.17
442.125	8.17
442.564	8.21
443.004	8.22
443.444	8.23
443.883	8.23
444.323	8.23
444.762	8.26
445.202	8.29
445.641	8.3
446.081	8.35
446.52	8.34
446.959	8.36
447.398	8.37
447.837	8.41
448.276	8.42
448.716	8.44
449.154	8.49
449.593	8.49
450.032	8.48
450.471	8.48
450.91	8.45
451.349	8.47
451.787	8.47
452.226	8.44
452.664	8.41
453.103	8.4
453.541	8.4
453.98	8.37
454.418	8.35
454.856	8.35
455.295	8.35
455.733	8.35
456.171	8.31
456.609	8.31
457.047	8.3
457.485	8.3
457.923	8.28
458.361	8.27
458.798	8.28
459.236	8.29
459.674	8.28
460.111	8.27
460.549	8.26
460.987	8.27
461.424	8.25
461.862	8.25
462.299	8.25
462.736	8.26
463.173	8.25
463.611	8.22
464.048	8.22
464.485	8.22
464.922	8.2
465.359	8.23
465.796	8.21
466.233	8.22
466.67	8.21
467.106	8.2
467.543	8.2
467.98	8.21
468.416	8.24
468.853	8.24
469.29	8.25
469.726	8.26
470.162	8.26
470.599	8.28
471.035	8.28
471.471	8.28
471.907	8.28
472.344	8.28
472.78	8.29
473.216	8.29
473.652	8.28
474.088	8.29
474.523	8.27
474.959	8.25
475.395	8.24
475.831	8.24
476.266	8.25
476.702	8.24
477.138	8.22
477.573	8.2
478.008	8.19
478.444	8.17
478.879	8.15
479.314	8.13
479.75	8.13
480.185	8.12
480.62	8.1
481.055	8.09
481.49	8.07
481.925	8.05
482.36	8.02
482.795	7.99
483.229	7.99
483.664	7.99
484.099	7.98
484.534	7.96
484.968	7.96
485.403	7.94
485.837	7.93
486.271	7.93
486.706	7.93
487.14	7.94
487.574	7.93
488.009	7.92
488.443	7.91
488.877	7.89
489.311	7.89
489.745	7.89
490.179	7.88
490.613	7.87
491.046	7.87
491.48	7.86
491.914	7.86
492.348	7.86
492.781	7.88
493.215	7.87
493.648	7.89
494.082	7.9
494.515	7.91
494.948	7.91
495.382	7.94
495.815	7.96
496.248	7.98
496.681	7.98
497.114	8
497.547	8
497.98	8.04
498.413	8.05
498.846	8.08
499.279	8.1
499.711	8.14
500.144	8.16
500.577	8.17
501.009	8.19
501.442	8.23
501.874	8.27
502.306	8.32
502.739	8.36
503.171	8.41
503.603	8.45
504.036	8.51
504.468	8.57
504.9	8.64
505.332	8.72
505.764	8.81
506.196	8.89
506.627	8.98
507.059	9.05
507.491	9.15
507.923	9.23
508.354	9.35
508.786	9.44
509.217	9.54
509.649	9.64
510.08	9.75
510.512	9.86
510.943	10
511.374	10.11
511.805	10.26
512.237	10.41
512.668	10.56
513.099	10.71
513.53	10.87
513.961	11.04
514.391	11.21
514.822	11.39
515.253	11.57
515.684	11.75
516.114	11.96
516.545	12.14
516.975	12.34
517.406	12.55
517.836	12.75
518.267	12.97
518.697	13.19
519.127	13.43
519.558	13.63
519.988	13.86
520.418	14.09
520.848	14.31
521.278	14.55
521.708	14.73
522.138	14.95
522.567	15.18
522.997	15.4
523.427	15.62
523.857	15.82
524.286	16.05
524.716	16.26
525.145	16.47
525.575	16.65
526.004	16.87
526.433	17.11
526.863	17.31
527.292	17.51
527.721	17.68
528.15	17.84
528.579	18.01
529.008	18.18
529.437	18.34
529.866	18.48
530.295	18.61
530.724	18.74
531.152	18.87
531.581	18.99
532.01	19.1
532.438	19.2
532.867	19.33
533.295	19.43
533.723	19.52
534.152	19.63
534.58	19.71
535.008	19.78
535.436	19.83
535.865	19.89
536.293	19.96
536.721	20.03
537.149	20.09
537.576	20.14
538.004	20.18
538.432	20.22
538.86	20.25
539.287	20.28
539.715	20.36
540.143	20.4
540.57	20.43
540.998	20.46
541.425	20.49
541.852	20.53
542.28	20.56
542.707	20.6
543.134	20.62
543.561	20.65
543.988	20.7
544.415	20.71
544.842	20.74
545.269	20.8
545.696	20.82
546.123	20.83
546.549	20.86
546.976	20.89
547.403	20.91
547.829	20.96
548.256	20.99
548.682	21
549.108	21.03
549.535	21.07
549.961	21.06
550.387	21.07
550.813	21.08
551.24	21.07
551.666	21.09
552.092	21.07
552.518	21.05
552.943	21.01
553.369	20.99
553.795	20.95
554.221	20.9
554.646	20.85
555.072	20.8
555.498	20.75
555.923	20.69
556.349	20.61
556.774	20.55
557.199	20.47
557.625	20.39
558.05	20.29
558.475	20.19
558.9	20.11
559.325	20.02
559.75	19.93
560.175	19.84
560.6	19.73
561.025	19.63
561.449	19.5
561.874	19.38
562.299	19.28
562.723	19.17
563.148	19.04
563.572	18.93
563.997	18.78
564.421	18.64
564.846	18.49
565.27	18.33
565.694	18.18
566.118	18.03
566.542	17.88
566.966	17.73
567.39	17.56
567.814	17.41
568.238	17.21
568.662	17.06
569.086	16.9
569.509	16.74
569.933	16.58
570.357	16.42
570.78	16.27
571.204	16.11
571.627	15.95
572.05	15.82
572.474	15.7
572.897	15.59
573.32	15.45
573.743	15.31
574.166	15.18
574.589	15.06
575.012	14.95
575.435	14.84
575.858	14.75
576.281	14.66
576.704	14.55
577.126	14.44
577.549	14.36
577.972	14.27
578.394	14.2
578.817	14.13
579.239	14.05
579.661	13.98
580.084	13.9
580.506	13.84
580.928	13.77
581.35	13.7
581.772	13.65
582.194	13.58
582.616	13.54
583.038	13.5
583.46	13.45
583.882	13.4
584.303	13.36
584.725	13.32
585.147	13.24
585.568	13.18
585.99	13.15
586.411	13.12
586.833	13.07
587.254	13.03
587.675	12.97
588.096	12.94
588.518	12.9
588.939	12.87
589.36	12.84
589.781	12.83
590.202	12.8
590.623	12.76
591.043	12.72
591.464	12.7
591.885	12.68
592.305	12.67
592.726	12.64
593.147	12.62
593.567	12.59
593.987	12.58
594.408	12.56
594.828	12.55
595.248	12.55
595.669	12.54
596.089	12.52
596.509	12.48
596.929	12.45
597.349	12.41
597.769	12.39
598.189	12.36
598.608	12.32
599.028	12.28
599.448	12.25
599.867	12.2
600.287	12.16
600.706	12.12
601.126	12.09
601.545	12.06
601.965	12.03
602.384	12
602.803	11.94
603.222	11.9
603.641	11.87
604.061	11.82
604.48	11.79
604.898	11.73
605.317	11.68
605.736	11.62
606.155	11.56
606.574	11.5
606.992	11.43
607.411	11.39
607.829	11.29
608.248	11.25
608.666	11.19
609.085	11.13
609.503	11.08
609.921	11.03
610.339	10.99
610.758	10.95
611.176	10.89
611.594	10.84
612.012	10.79
612.43	10.8
612.847	10.76
613.265	10.73
613.683	10.68
614.101	10.63
614.518	10.59
614.936	10.55
615.353	10.5
615.771	10.46
616.188	10.43
616.606	10.38
617.023	10.34
617.44	10.28
617.857	10.23
618.274	10.2
618.691	10.18
619.108	10.16
619.525	10.14
619.942	10.1
620.359	10.08
620.776	10.06
621.192	10.05
621.609	10.03
622.026	10.01
622.442	10
622.859	9.99
623.275	9.98
623.691	9.98
624.108	9.96
624.524	9.97
624.94	9.96
625.356	9.95
625.772	9.95
626.188	9.97
626.604	9.96
627.02	9.96
627.436	9.95
627.852	9.93
628.268	9.92
628.683	9.91
629.099	9.91
629.514	9.91
629.93	9.91
630.345	9.89
630.761	9.86
631.176	9.86
631.591	9.86
632.007	9.84
632.422	9.84
632.837	9.82
633.252	9.81
633.667	9.79
634.082	9.77
634.497	9.73
634.911	9.69
635.326	9.66
635.741	9.62
636.155	9.58
636.57	9.54
636.984	9.48
637.399	9.41
637.813	9.34
638.228	9.28
638.642	9.25
639.056	9.2
639.47	9.18
639.884	9.13
640.298	9.08
640.712	9.03
641.126	8.99
641.54	8.96
641.954	8.95
642.368	8.92
642.781	8.88
643.195	8.82
643.609	8.78
644.022	8.73
644.436	8.7
644.849	8.67
645.262	8.64
645.676	8.61
646.089	8.57
646.502	8.54
646.915	8.52
647.328	8.49
647.741	8.46
648.154	8.45
648.567	8.42
648.98	8.4
649.393	8.38
649.805	8.35
650.218	8.32
650.631	8.31
651.043	8.29
651.456	8.28
651.868	8.26
652.28	8.26
652.693	8.23
653.105	8.22
653.517	8.2
653.929	8.19
654.341	8.19
654.753	8.17
655.165	8.15
655.577	8.12
655.989	8.09
656.401	8.06
656.813	8.03
657.224	8.02
657.636	8
658.047	7.98
658.459	7.94
658.87	7.92
659.282	7.92
659.693	7.88
660.104	7.87
660.515	7.86
660.926	7.86
661.338	7.85
661.749	7.83
662.159	7.81
662.57	7.79
662.981	7.78
663.392	7.76
663.803	7.74
664.213	7.74
664.624	7.73
665.035	7.7
665.445	7.7
665.855	7.7
666.266	7.71
666.676	7.72
667.086	7.71
667.497	7.71
667.907	7.7
668.317	7.69
668.727	7.7
669.137	7.72
669.547	7.73
669.956	7.72
670.366	7.73
670.776	7.73
671.186	7.73
671.595	7.75
672.005	7.76
672.414	7.77
672.824	7.8
673.233	7.83
673.642	7.82
674.052	7.84
674.461	7.85
674.87	7.87
675.279	7.88
675.688	7.89
676.097	7.91
676.506	7.92
676.915	7.96
677.323	7.98
677.732	8
678.141	8.04
678.549	8.08
678.958	8.12
679.366	8.14
679.775	8.17
680.183	8.2
680.592	8.25
681	8.28
681.408	8.3
681.816	8.32
682.224	8.35
682.632	8.39
683.04	8.42
683.448	8.45
683.856	8.51
684.264	8.57
684.671	8.62
685.079	8.67
685.487	8.76
685.894	8.85
686.302	8.95
686.709	9.05
687.116	9.15
687.524	9.26
687.931	9.4
688.338	9.56
688.745	9.75
689.152	9.96
689.559	10.18
689.966	10.41
690.373	10.69
690.78	10.96
691.187	11.28
691.593	11.6
692	11.97
692.407	12.36
692.813	12.77
693.22	13.19
693.626	13.63
694.032	14.1
694.439	14.63
694.845	15.13
695.251	15.67
695.657	16.24
696.063	16.84
696.469	17.44
696.875	18.03
697.281	18.63
697.687	19.27
698.093	19.93
698.498	20.59
698.904	21.23
699.31	21.89
699.715	22.57
700.12	23.25
700.526	23.93
700.931	24.6
701.337	25.3
701.742	25.98
702.147	26.66
702.552	27.36
702.957	28.04
703.362	28.72
703.767	29.4
704.172	30.1
704.577	30.76
704.981	31.44
705.386	32.13
705.791	32.82
706.195	33.52
706.6	34.2
707.004	34.87
707.408	35.53
707.813	36.21
708.217	36.89
708.621	37.58
709.025	38.23
709.43	38.89
709.834	39.56
710.237	40.17
710.641	40.82
711.045	41.45
711.449	42.06
711.853	42.67
712.256	43.29
712.66	43.95
713.064	44.54
713.467	45.17
713.87	45.81
714.274	46.42
714.677	47.05
715.08	47.67
715.484	48.32
715.887	48.94
716.29	49.57
716.693	50.16
717.096	50.75
717.499	51.34
717.901	51.88
718.304	52.44
718.707	52.95
719.109	53.52
719.512	54.08
719.915	54.57
720.317	55.1
720.719	55.6
721.122	56.07
721.524	56.55
721.926	57.05
722.328	57.52
722.731	58.02
723.133	58.51
723.535	58.95
723.937	59.38
724.338	59.82
724.74	60.22
725.142	60.5
725.544	60.92
725.945	61.27
726.347	61.64
726.748	61.97
727.15	62.28
727.551	62.63
727.952	62.93
728.354	63.25
728.755	63.55
729.156	63.87
729.557	64.31
729.958	64.65
730.359	64.95
730.76	65.21
731.161	65.51
731.562	65.77
731.962	66.03
732.363	66.3
732.763	66.52
733.164	66.73
733.564	66.93
733.965	67.09
734.365	67.25
734.766	67.41
735.166	67.55
735.566	67.72
735.966	67.85
736.366	67.96
736.766	68.1
737.166	68.26
737.566	68.38
737.966	68.53
738.365	68.66
738.765	68.81
739.165	68.94
739.564	69.09
739.964	69.19
740.363	69.34
740.763	69.49
741.162	69.58
741.561	69.65
741.96	69.78
742.36	69.88
742.759	69.99
743.158	70.05
743.557	70.12
743.955	70.23
744.354	70.39
744.753	70.5
745.152	70.58
745.55	70.68
745.949	70.79
746.348	70.91
746.746	70.98
747.144	71.1
747.543	71.21
747.941	71.36
748.339	71.47
748.737	71.56
749.136	71.63
749.534	71.72
749.932	71.81
750.33	71.9
750.727	71.91
751.125	71.97
751.523	72
751.921	72.04
752.318	72.07
752.716	72.07
753.113	72.05
753.511	72.03
753.908	72.02
754.305	71.99
754.703	71.95
755.1	71.95
755.497	71.94
755.894	71.93
756.291	71.9
756.688	71.85
757.085	71.83
757.482	71.81
757.878	71.86
758.275	71.82
758.672	71.86
759.068	71.86
759.465	71.86
759.861	71.82
760.258	71.77
760.654	71.78
761.05	71.79
761.447	71.79
761.843	71.8
762.239	71.73
762.635	71.76
763.031	71.75
763.427	71.73
763.822	71.7
764.218	71.73
764.614	71.77
765.01	71.76
765.405	71.72
765.801	71.66
766.196	71.66
766.592	71.7
766.987	71.73
767.382	71.71
767.778	71.72
768.173	71.75
768.568	71.74
768.963	71.75
769.358	71.74
769.753	71.79
770.148	71.82
770.542	71.82
770.937	71.81
771.332	71.79
771.726	71.78
772.121	71.76
772.515	71.79
772.91	71.8
773.304	71.82
773.699	71.87
774.093	71.84
774.487	71.9
774.881	71.93
775.275	71.97
775.669	72.03
776.063	72.06
776.457	72.11
776.851	72.09
777.245	72.1
777.638	72.1
778.032	72.09
778.425	72.14
778.819	72.12
779.212	72.08
779.606	72.08
779.999	72.03
780.392	72.03
780.786	72.03
781.179	72.07
781.572	72.06
781.965	72.1
782.358	72.1
782.751	72.13
783.143	72.17
783.536	72.24
783.929	72.25
784.322	72.27
784.714	72.28
785.107	72.3
785.499	72.33
785.891	72.35
786.284	72.29
786.676	72.35
787.068	72.31
787.46	72.3
787.852	72.3
788.245	72.32
788.636	72.32
789.028	72.33
789.42	72.28
789.812	72.27
790.204	72.24
790.595	72.26
790.987	72.19
791.378	72.2
791.77	72.22
792.161	72.2
792.553	72.18
792.944	72.24
793.335	72.23
793.726	72.24
794.117	72.23
794.508	72.27
794.899	72.29
795.29	72.29
795.681	72.31
796.072	72.3
796.463	72.28
796.853	72.3
797.244	72.24
797.634	72.21
798.025	72.27
798.415	72.3
798.806	72.31
799.196	72.34
799.586	72.35
799.976	72.36
800.366	72.37
800.756	72.4
801.146	72.37
801.536	72.45
801.926	72.48
802.316	72.47
802.706	72.48
803.095	72.54
803.485	72.56
803.874	72.61
804.264	72.64
804.653	72.63
805.043	72.65
805.432	72.67
805.821	72.62
806.21	72.68
806.599	72.75
806.988	72.8
807.377	72.79
807.766	72.78
808.155	72.79
808.544	72.81
808.933	72.85
809.321	72.87
809.71	72.96
810.098	73.01
810.487	73.04
810.875	73
811.264	73.01
811.652	73.02
812.04	73.04
812.428	73.09
812.816	73.11
813.204	73.13
813.592	73.13
813.98	73.11
814.368	73.07
814.756	73.1
815.144	73.12
815.531	73.11
815.919	73.09
816.306	73.15
816.694	73.15
817.081	73.11
817.469	73.12
817.856	73.18
818.243	73.18
818.63	73.27
819.017	73.26
819.404	73.27
819.791	73.29
820.178	73.37
820.565	73.35
820.952	73.33
821.339	73.39
821.725	73.46
822.112	73.47
822.498	73.53
822.885	73.52
823.271	73.54
823.657	73.55
824.044	73.52
824.43	73.5
824.816	73.5
825.202	73.53
825.588	73.51
825.974	73.49
826.36	73.45
826.746	73.47
827.132	73.43
827.517	73.42
827.903	73.4
828.289	73.43
828.674	73.41
829.06	73.4
829.445	73.42
829.83	73.4
830.216	73.36
830.601	73.35
830.986	73.3
831.371	73.35
831.756	73.3
832.141	73.32
832.526	73.3
832.911	73.35
833.295	73.33
833.68	73.32
834.065	73.35
834.449	73.33
834.834	73.33
835.218	73.32
835.603	73.3
835.987	73.29
836.371	73.27
836.755	73.26
837.139	73.22
837.524	73.23
837.908	73.2
838.291	73.2
838.675	73.22
839.059	73.22
839.443	73.23
839.827	73.22
840.21	73.28
840.594	73.28
840.977	73.27
841.361	73.3
841.744	73.31
842.127	73.31
842.511	73.27
842.894	73.26
843.277	73.28
843.66	73.28
844.043	73.3
844.426	73.26
844.809	73.26
845.191	73.26
845.574	73.21
845.957	73.19
846.339	73.17
846.722	73.21
847.104	73.19
847.487	73.2
847.869	73.2
848.252	73.14
848.634	73.16
849.016	73.2
849.398	73.19
849.78	73.22
850.162	73.22
850.544	73.24
850.926	73.24
851.307	73.28
851.689	73.24
852.071	73.24
852.452	73.25
852.834	73.24
853.215	73.23
853.597	73.23
853.978	73.19
854.359	73.17
854.741	73.18
855.122	73.18
855.503	73.17
855.884	73.18
856.265	73.15
856.646	73.14
857.026	73.15
857.407	73.11
857.788	73.13
858.169	73.16
858.549	73.2
858.93	73.2
859.31	73.15
859.69	73.12
860.071	73.12
860.451	73.14
860.831	73.16
861.211	73.15
861.591	73.18
861.971	73.15
862.351	73.15
862.731	73.16
863.111	73.15
863.491	73.19
863.87	73.21
864.25	73.27
864.629	73.26
865.009	73.25
865.388	73.23
865.768	73.21
866.147	73.25
866.526	73.23
866.905	73.2
867.284	73.23
867.663	73.22
868.042	73.19
868.421	73.12
868.8	73.1
869.179	73.1
869.558	73.12
869.936	73.09
870.315	73.08
870.693	73.09
871.072	73.09
871.45	73.02
871.828	72.99
872.207	73.01
872.585	73.04
872.963	73.02
873.341	73.02
873.719	72.99
874.097	73.01
874.475	73.01
874.853	72.99
875.23	73
875.608	73.04
875.986	73.05
876.363	73.05
876.741	73.05
877.118	73.07
877.495	73.06
877.873	73.05
878.25	73.04
878.627	73.06
879.004	73.07
879.381	73.06
879.758	73.05
880.135	73.05
880.512	73.05
880.889	73.03
881.265	73.05
881.642	73.05
882.019	73.06
882.395	73.11
882.772	73.1
883.148	73.11
883.524	73.13
883.901	73.11
884.277	73.1
884.653	73.1
885.029	73.09
885.405	73.07
885.781	73.03
886.157	73.04
886.532	73.04
886.908	73.05
887.284	73.06
887.659	73.03
888.035	73.07
888.411	73.03
888.786	73.03
889.161	73.04
889.537	73.04
889.912	73.05
890.287	73
890.662	72.97
891.037	72.91
891.412	72.84
891.787	72.81
892.162	72.78
892.536	72.79
892.911	72.73
893.286	72.67
893.66	72.63
894.035	72.6
894.409	72.61
894.784	72.61
895.158	72.62
895.532	72.59
895.906	72.59
896.281	72.58
896.655	72.55
897.029	72.55
897.402	72.55
897.776	72.57
898.15	72.58
898.524	72.56
898.898	72.5
899.271	72.5
899.645	72.52
900.018	72.51
900.392	72.51
900.765	72.51
901.138	72.51
901.511	72.53
901.884	72.55
902.258	72.53
902.631	72.55
903.003	72.58
903.376	72.57
903.749	72.55
904.122	72.55
904.495	72.55
904.867	72.56
905.24	72.56
905.612	72.52
905.985	72.48
906.357	72.45
906.729	72.42
907.102	72.4
907.474	72.42
907.846	72.39
908.218	72.33
908.59	72.3
908.962	72.31
909.334	72.31
909.705	72.31
910.077	72.26
910.449	72.31
910.82	72.29
911.192	72.3
911.563	72.26
911.935	72.26
912.306	72.27
912.677	72.26
913.048	72.23
913.419	72.2
913.79	72.2
914.161	72.17
914.532	72.13
914.903	72.15
915.274	72.14
915.645	72.15
916.015	72.17
916.386	72.16
916.756	72.11
917.127	72.11
917.497	72.12
917.868	72.09
918.238	72.14
918.608	72.15
918.978	72.09
919.348	72.03
919.718	72.03
920.088	72
920.458	72.04
920.828	72.05
921.198	72.03
921.567	71.95
921.937	71.97
922.306	71.96
922.676	71.92
923.045	71.91
923.415	71.91
923.784	71.86
924.153	71.82
924.522	71.76
924.891	71.73
925.26	71.68
925.629	71.7
925.998	71.66
926.367	71.58
926.736	71.53
927.104	71.49
927.473	71.48
927.842	71.43
928.21	71.44
928.578	71.42
928.947	71.39
929.315	71.4
929.683	71.38
930.051	71.29
930.42	71.28
930.788	71.22
931.156	71.17
931.523	71.15
931.891	71.09
932.259	70.97
932.627	70.85
932.994	70.78
933.362	70.65
933.729	70.51
934.097	70.45
934.464	70.36
934.831	70.25
935.199	70.17
935.566	69.98
935.933	69.89
936.3	69.78
936.667	69.7
937.034	69.58
937.401	69.49
937.767	69.44
938.134	69.36
938.501	69.3
938.867	69.35
939.234	69.42
939.6	69.54
939.967	69.59
940.333	69.74
940.699	69.92
941.065	70.06
941.431	70.21
941.798	70.41
942.163	70.65
942.529	70.68
942.895	70.75
943.261	70.82
943.627	70.94
943.992	71.07
944.358	71.16
944.723	71.15
945.089	71.26
945.454	71.27
945.82	71.25
946.185	71.27
946.55	71.51
946.915	71.55
947.28	71.48
947.645	71.52
948.01	71.52
948.375	71.51
948.74	71.46
949.104	71.45
949.469	71.42
949.834	71.41
950.198	71.24
950.562	71.03
950.927	71
951.291	70.95
951.655	70.86
952.02	70.83
952.384	70.76
952.748	70.76
953.112	70.65
953.476	70.62
953.839	70.51
954.203	70.45
954.567	70.45
954.931	70.48
955.294	70.45
955.658	70.41
956.021	70.31
956.385	70.31
956.748	70.29
957.111	70.25
957.474	70.26
957.837	70.29
958.2	70.28
958.563	70.21
958.926	70.08
959.289	70.06
959.652	69.97
960.015	69.98
960.377	69.95
960.74	69.88
961.102	69.86
961.465	69.82
961.827	69.6
962.189	69.56
962.552	69.49
962.914	69.39
963.276	69.35
963.638	69.34
964	69.23
964.362	69.12
964.724	69.05
965.085	69.01
965.447	68.88
965.809	68.96
966.17	68.95
966.532	69
966.893	68.99
967.255	68.92
967.616	68.92
967.977	68.9
968.338	68.9
968.699	68.91
969.061	68.94
969.421	68.94
969.782	68.93
970.143	68.92
970.504	68.85
970.865	68.75
971.225	68.68
971.586	68.68
971.946	68.71
972.307	68.69
972.667	68.68
973.027	68.64
973.388	68.62
973.748	68.62
974.108	68.6
974.468	68.59
974.828	68.62
975.188	68.75
975.548	68.69
975.907	68.62
976.267	68.57
976.627	68.6
976.986	68.58
977.346	68.6
977.705	68.6
978.064	68.6
978.424	68.64
978.783	68.65
979.142	68.53
979.501	68.48
979.86	68.59
980.219	68.56
980.578	68.46
980.937	68.41
981.296	68.39
981.654	68.49
982.013	68.48
982.371	68.34
982.73	68.31
983.088	68.32
983.447	68.39
983.805	68.23
984.163	68.2
984.521	68.02
984.879	68.06
985.237	68.08
985.595	68.01
985.953	68.02
986.311	68.06
986.669	68.17
987.026	68.16
987.384	68.08
987.741	68.25
988.099	68.24
988.456	68.34
988.814	68.28
989.171	68.23
989.528	68.14
989.885	68.06
990.242	68.18
990.599	68.16
990.956	68.18
991.313	68.31
991.67	68.14
992.027	68.11
992.383	68.15
992.74	68.05
993.096	67.96
993.453	67.87
993.809	67.88
994.165	67.85
994.522	67.65
994.878	67.52
995.234	67.31
995.59	67.15
995.946	67.33
996.302	67.26
996.658	67.42
997.013	67.49
997.369	67.6
997.725	67.67
998.08	67.61
998.436	67.66
998.791	67.59
999.147	67.74
999.502	67.86
999.857	67.75
1000.212	67.72
1000.567	67.7
1000.922	67.72
1001.277	67.66
1001.632	67.56
1001.987	67.46
1002.342	67.54
1002.696	67.77
1003.051	67.6
1003.406	67.49
1003.76	67.5
1004.114	67.56
1004.469	67.45
1004.823	67.56
1005.177	67.71
1005.531	67.62
1005.885	67.69
1006.239	67.66
1006.593	67.43
1006.947	67.42
1007.301	67.6
1007.655	67.56
1008.008	67.36
1008.362	67.32
1008.715	67.08
1009.069	66.71
1009.422	66.7
1009.776	66.66
1010.129	66.45
1010.482	66.68
1010.835	66.69
1011.188	66.5
1011.541	66.28
1011.894	66.42
1012.247	66.23
1012.6	66.15
1012.952	66.21
1013.305	66.23
1013.657	66.08
1014.01	66.28
1014.362	66.22
1014.715	66.14
1015.067	66.26
1015.419	66.55
1015.771	66.86
1016.123	66.88
1016.475	67.06
1016.827	67.32
1017.179	67.28
1017.531	67.25
1017.883	67.27
1018.234	66.95
1018.586	67.02
1018.938	66.73
1019.289	66.51
1019.64	66.55
1019.992	66.78
1020.343	66.49
1020.694	66.26
1021.045	66.08
1021.396	66.18
1021.747	65.92
1022.098	66.13
1022.449	65.99
1022.8	66.09
1023.151	65.97
1023.501	65.41
1023.852	65.39
1024.202	65.42
1024.553	65.42
1024.903	65.83
1025.253	66.1
1025.604	66.39
1025.954	66.07
1026.304	66.61
1026.654	67.06
1027.004	67.3
1027.354	67.67
1027.703	67.54
1028.053	67.59
1028.403	67.37
1028.753	67.45
1029.102	67.13
1029.452	66.89
1029.801	67.02
1030.15	66.65
1030.499	66.28
897.758	289.51
901.051	290.87
904.343	296.45
907.636	289.92
910.928	284.84
914.22	292.1
917.511	284.72
920.803	271.95
924.094	262.79
927.384	263.08
930.675	255.15
933.965	250.56
937.255	255.63
940.544	243.19
943.834	234.16
947.123	231.02
950.411	219.43
953.7	217.31
956.988	213.63
960.276	206.09
963.563	204.96
966.851	197.47
970.138	195.84
973.424	181.93
976.711	181.09
979.997	177.9
983.283	174.55
986.568	168.9
989.853	166.25
993.138	160.18
996.423	159.63
999.708	155.41
1002.992	154.96
1006.275	153.67
1009.559	152.42
1012.842	149.4
1016.125	144.79
1019.408	142.6
1022.69	143.97
1025.972	141.35
1029.254	140.02
1032.536	137.08
1035.817	133.37
1039.098	133.01
1042.379	129.07
1045.659	128.74
1048.939	126.3
1052.219	126.42
1055.498	124.96
1058.778	121.21
1062.057	120.56
1065.335	120.3
1068.614	119.1
1071.892	118.52
1075.17	115.83
1078.447	115.67
1081.724	114.39
1085.001	112.61
1088.278	111.23
1091.554	111.19
1094.83	111.88
1098.106	111.16
1101.382	109.73
1104.657	109.76
1107.932	109.48
1111.206	109
1114.481	107.95
1117.755	106.77
1121.029	107.19
1124.302	106.65
1127.575	106.03
1130.848	104.9
1134.121	103.35
1137.393	103.72
1140.665	102.51
1143.937	101.29
1147.208	101.21
1150.48	100.19
1153.75	100.52
1157.021	98.82
1160.291	98.93
1163.561	97.63
1166.831	98.26
1170.101	98.19
1173.37	96.99
1176.639	96.19
1179.907	96.7
1183.176	95.83
1186.444	95.73
1189.711	94.48
1192.979	95.89
1196.246	95.39
1199.513	95.92
1202.78	95.49
1206.046	95.19
1209.312	96.29
1212.578	96.7
1215.843	97.71
1219.108	98.04
1222.373	99.56
1225.638	101.42
1228.902	102.84
1232.166	104.75
1235.43	104.67
1238.693	105.43
1241.956	107.5
1245.219	110.06
1248.482	110.82
1251.744	109.49
1255.006	110.63
1258.268	107.8
1261.529	107.14
1264.79	105.52
1268.051	104.43
1271.312	104.11
1274.572	103.73
1277.832	101.14
1281.092	99.53
1284.351	98.16
1287.61	98.08
1290.869	97.99
1294.128	97.9
1297.386	98.23
1300.644	97.14
1303.902	95.96
1307.159	96.13
1310.416	95.75
1313.673	97.69
1316.93	97.73
1320.186	99.01
1323.442	99.23
1326.697	99.55
1329.953	99.88
1333.208	100.66
1336.463	104.47
1339.717	106.67
1342.972	107.39
1346.226	110.27
1349.479	110.37
1352.733	113.88
1355.986	114.7
1359.238	117.13
1362.491	116.05
1365.743	119.66
1368.995	121.49
1372.247	118.32
1375.498	116.06
1378.749	120.84
1382	118.94
1385.251	118.39
1388.501	116.49
1391.751	116.18
1395	114.95
1398.25	116.53
1401.499	115.34
1404.748	113.22
1407.996	110.91
1411.244	112.23
1414.492	108.87
1417.74	105.53
1420.987	104.32
1424.234	103.07
1427.481	98.5
1430.728	96.64
1433.974	93.74
1437.22	90.98
1440.465	86.73
1443.711	85.35
1446.956	83
1450.201	80.35
1453.445	76.95
1456.689	73.9
1459.933	72.64
1463.177	70.55
1466.42	69.23
1469.663	67.58
1472.906	65.69
1476.148	64.46
1479.391	64.21
1482.633	63.45
1485.874	63.02
1489.115	63.1
1492.356	62.87
1495.597	61.71
1498.838	62.11
1502.078	61.65
1505.318	61.75
1508.557	61.04
1511.797	62.07
1515.036	61.28
1518.274	61.18
1521.513	61.76
1524.751	61.09
1527.989	61.53
1531.227	61.6
1534.464	62.35
1537.701	62.66
1540.938	62.06
1544.174	63.04
1547.41	63.33
1550.646	63.65
1553.882	63.59
1557.117	64.01
1560.352	64.62
1563.587	64.15
1566.821	64.33
1570.055	64.05
1573.289	64.25
1576.523	64.67
1579.756	64.74
1582.989	64.42
1586.222	64.86
1589.454	65
1592.686	64.67
1595.918	64.39
1599.15	64.68
1602.381	65.32
1605.612	65.51
1608.843	65.46
1612.073	65.84
1615.303	65.99
1618.533	66.27
1621.762	65.87
1624.992	66.23
1628.221	65.88
1631.449	66.43
1634.678	66.63
1637.906	66.36
1641.134	66.4
1644.361	66.4
1647.588	66.54
1650.815	66.51
1654.042	66.94
1657.269	67.14
1660.495	67.46
1663.72	67.81
1666.946	67.71
1670.171	67.97
1673.396	68.79
1676.621	68.52
1679.845	68.9
1683.069	68.48
1686.293	68.59
1689.517	68.22
1692.74	68.44
1695.963	68.1
1699.185	68.02
1702.408	68.16
1705.63	68.12
1708.852	67.46
1712.073	67.87
1715.294	67.59
1718.515	68.28
1721.736	67.96
1724.956	68.19
1728.176	67.82
1731.396	68.16
1734.616	67.98
1737.835	68.04
1741.054	67.72
1744.272	67.68
1747.491	67.18
1750.709	67.49
1753.927	67.07
1757.144	67.4
1760.361	67.29
1763.578	67.24
1766.795	67.56
1770.011	67.49
1773.227	67.36
1776.443	68.09
1779.658	67.6
1782.874	68.89
1786.089	68.22
1789.303	68.22
1792.518	69.02
1795.732	69.11
1798.945	70.01
1802.159	69.37
1805.372	70.17
1808.585	70.83
1811.797	69.99
1815.01	71.95
1818.222	71.38
1821.434	72.5
1824.645	72.21
1827.856	72.16
1831.067	72.24
1834.278	72.68
1837.488	73.1
1840.698	73.51
1843.908	73.55
1847.117	74.74
1850.326	73.46
1853.535	73.09
1856.744	73.32
1859.952	74.53
1863.16	73.83
1866.368	72.62
1869.575	72.67
1872.782	72.16
1875.989	69.8
1879.196	69.24
1882.402	67.92
1885.608	68
1888.814	67.24
1892.019	66.65
1895.224	64.66
1898.429	64.02
1901.634	63.99
1904.838	62.7
1908.042	62.22
1911.246	62.97
1914.449	63.07
1917.652	60.81
1920.855	60.66
1924.058	59.88
1927.26	58.15
1930.462	59.29
1933.664	58.79
1936.865	59.45
1940.066	58.11
1943.267	58.54
1946.467	58.64
1949.668	57.46
1952.868	59.3
1956.067	58.56
1959.267	61.2
1962.466	61.32
1965.665	61.51
1968.863	62.47
1972.061	63.69
1975.259	66.08
1978.457	65.67
1981.654	66.65
1984.852	67.96
1988.048	69.2
1991.245	71.18
1994.441	71.26
1997.637	72.91
2000.833	75.29
2004.028	74.7
2007.223	76.16
2010.418	77.14
2013.613	81.11
2016.807	82.81
2020.001	83.92
2023.194	87.46
2026.388	89.09
2029.581	94.16
2032.774	96.58
2035.966	97.96
2039.158	102.61
2042.35	102.47
2045.542	104.71
2048.733	110.02
2051.924	109.45
2055.115	113.04
2058.306	112.83
2061.496	112.66
2064.686	112.26
2067.875	112.67
2071.065	113.7
2074.254	113.21
2077.442	117.2
2080.631	117.67
2083.819	116.54
2087.007	120.95
2090.195	122.85
2093.382	120.73
2096.569	122.42
2099.756	125.3
2102.942	127
2106.128	129.29
2109.314	133.21
2112.5	133.95
2115.685	131.38
2118.87	130.96
2122.055	132.43
2125.239	133.63
2128.424	137.91
2131.608	137.31
2134.791	136.31
2137.974	136.49
2141.157	137.29
2144.34	135.58
2147.523	139.42
2150.705	145.69
2153.887	144.1
2157.068	143.99
2160.25	146.09
2163.431	148.59
2166.611	151.01
2169.792	152.76
2172.972	157.62
2176.152	158.66
2179.331	161.49
2182.511	161.06
2185.69	161.76
2188.868	165.88
2192.047	171.52
2195.225	173.14
2198.403	171.66
2201.58	168.61
2204.758	175.92
2207.935	173.8
2211.111	176.55
2214.288	178.39
2217.464	179.01
2220.64	183.97
2223.815	185.02
2226.991	180.84
2230.166	183.26
2233.34	187.92
2236.515	192.02
2239.689	187.53
2242.863	190.91
2246.036	190.14
2249.209	193.11
2252.382	192.47
2255.555	192.67
2258.727	196.42
2261.9	203.16
2265.071	203.38
2268.243	200.82
2271.414	211.89
2274.585	214.56
2277.756	213.23
2280.926	222.66
2284.096	224.84
2287.266	224.93
2290.436	225.41
2293.605	230
2296.774	235.92
2299.942	239.23
2303.111	250.79
2306.279	251.63
2309.447	250.15
2312.614	253.52
2315.781	253.58
2318.948	258.18
2322.115	266.61
2325.281	277.61
2328.447	273.8
2331.613	274.12
2334.779	275.34
2337.944	270.93
2341.109	274.33
2344.274	278.89
2347.438	289.04
2350.602	292.9
2353.766	306.15
2356.929	307.49
2360.092	319.05
2363.255	322.33
2366.418	325.88
2369.58	330.13
2372.742	339.26
2375.904	338.77
2379.066	351.78
2382.227	362.83
2385.388	362.09
2388.548	348.25
2391.709	346.71
2394.869	343.08
2398.029	349.24
2401.188	349.39
2404.347	356.7
2407.506	366.22
2410.665	354.81
2413.823	358.83
2416.981	358.82
2420.139	346.62
2423.296	373.99
2426.453	391.03
2429.61	372.8
2432.767	391.28
2435.923	409.07
2439.079	400.27
2442.235	410.75
2445.391	420.1
2448.546	414.11
2451.701	436.83
2454.855	461.41
2458.009	411.12
2461.163	417.5
2464.317	427.93
2467.471	418.16
2470.624	430.36
2473.777	419.61
2476.929	405.56
2480.082	423.49
2483.234	445.17
2486.385	455.84
2489.537	467.51
2492.688	509.48
2495.839	506.84
2498.989	524.55
2502.14	527.85
2505.29	501.85
2508.439	546.16
2511.589	558.42
2514.738	562.9
2517.887	550.91
2521.035	512.98
2524.183	505
2527.331	499.84
2530.479	485.28
2533.627	489.82
