Data from C_2_dec_on_6n_058_Splice17_03.txt Node
Date: Sat Feb 29 14:30:26 EST 2020
User: sa697716
Spectrometer: FLMS03696
Trigger mode: 0
Integration Time (sec): 3.180400E-1
Scans to average: 20
Electric dark correction enabled: true
Nonlinearity correction enabled: true
Boxcar width: 5
XAxis mode: Wavelengths
Number of Pixels in Spectrum: 2048
>>>>>Begin Spectral Data<<<<<
187.83	102.92
188.298	102.88
188.766	96.09
189.233	92.65
189.701	93.29
190.169	100.02
190.636	91.46
191.104	53.71
191.571	13.09
192.039	194.27
192.506	-294.02
192.974	-458.87
193.441	277.09
193.908	38.97
194.375	13.25
194.842	64.38
195.31	49.98
195.777	-2.88
196.244	-15.72
196.711	6.98
197.177	7.97
197.644	9.86
198.111	10.24
198.578	11.17
199.045	11.82
199.511	12.24
199.978	12.85
200.445	13.72
200.911	14.1
201.378	14.65
201.844	15.16
202.31	16.11
202.777	16.68
203.243	17.24
203.709	17.7
204.176	17.51
204.642	17.72
205.108	17.72
205.574	17.91
206.04	18.46
206.506	18.51
206.972	19.16
207.438	18.97
207.903	19.35
208.369	19.3
208.835	19.38
209.301	19.54
209.766	19.82
210.232	20.13
210.697	20.06
211.163	19.87
211.628	19.91
212.094	19.93
212.559	19.91
213.024	19.58
213.49	19.49
213.955	19.51
214.42	19.59
214.885	19.51
215.35	19.31
215.815	19.23
216.28	19.48
216.745	19.88
217.21	19.71
217.675	19.81
218.14	19.76
218.604	19.63
219.069	19.57
219.534	19.4
219.998	19.22
220.463	19.13
220.927	19.01
221.392	18.81
221.856	18.56
222.32	18.41
222.785	18.25
223.249	18.11
223.713	18.04
224.177	17.88
224.642	17.8
225.106	17.69
225.57	17.57
226.034	17.44
226.497	17.28
226.961	17.17
227.425	17.04
227.889	16.9
228.353	16.75
228.816	16.6
229.28	16.43
229.744	16.26
230.207	16.13
230.671	15.95
231.134	15.8
231.597	15.66
232.061	15.51
232.524	15.37
232.987	15.24
233.45	15.1
233.914	14.97
234.377	14.86
234.84	14.72
235.303	14.57
235.766	14.44
236.229	14.3
236.691	14.2
237.154	14.07
237.617	13.94
238.08	13.82
238.542	13.7
239.005	13.56
239.468	13.42
239.93	13.31
240.393	13.21
240.855	13.09
241.317	13
241.78	12.89
242.242	12.8
242.704	12.68
243.166	12.58
243.629	12.5
244.091	12.42
244.553	12.34
245.015	12.26
245.477	12.18
245.939	12.11
246.4	12.03
246.862	11.97
247.324	11.9
247.786	11.86
248.247	11.79
248.709	11.72
249.17	11.65
249.632	11.57
250.093	11.48
250.555	11.43
251.016	11.37
251.477	11.3
251.939	11.24
252.4	11.18
252.861	11.12
253.322	11.06
253.783	11.01
254.244	10.97
254.705	10.94
255.166	10.92
255.627	10.87
256.088	10.81
256.549	10.78
257.009	10.73
257.47	10.69
257.931	10.65
258.391	10.6
258.852	10.56
259.312	10.52
259.773	10.47
260.233	10.42
260.694	10.38
261.154	10.35
261.614	10.3
262.074	10.27
262.534	10.22
262.994	10.18
263.455	10.15
263.915	10.11
264.374	10.08
264.834	10.04
265.294	10
265.754	9.96
266.214	9.93
266.673	9.91
267.133	9.87
267.593	9.84
268.052	9.81
268.512	9.78
268.971	9.75
269.431	9.73
269.89	9.71
270.349	9.68
270.809	9.67
271.268	9.65
271.727	9.61
272.186	9.59
272.645	9.55
273.104	9.53
273.563	9.51
274.022	9.49
274.481	9.45
274.94	9.43
275.399	9.4
275.857	9.37
276.316	9.34
276.775	9.3
277.233	9.27
277.692	9.24
278.15	9.2
278.609	9.17
279.067	9.13
279.525	9.1
279.984	9.06
280.442	9.03
280.9	8.99
281.358	8.96
281.816	8.93
282.274	8.91
282.732	8.89
283.19	8.87
283.648	8.86
284.106	8.83
284.564	8.81
285.021	8.79
285.479	8.78
285.937	8.75
286.394	8.73
286.852	8.72
287.309	8.7
287.767	8.69
288.224	8.67
288.682	8.65
289.139	8.65
289.596	8.61
290.053	8.58
290.511	8.55
290.968	8.53
291.425	8.51
291.882	8.49
292.339	8.46
292.796	8.44
293.252	8.4
293.709	8.38
294.166	8.35
294.623	8.34
295.079	8.32
295.536	8.31
295.992	8.28
296.449	8.27
296.905	8.24
297.362	8.22
297.818	8.2
298.274	8.2
298.731	8.18
299.187	8.15
299.643	8.14
300.099	8.13
300.555	8.1
301.011	8.09
301.467	8.07
301.923	8.06
302.379	8.04
302.835	8.03
303.291	8.01
303.746	7.99
304.202	7.97
304.658	7.95
305.113	7.93
305.569	7.92
306.024	7.91
306.479	7.89
306.935	7.87
307.39	7.86
307.845	7.85
308.301	7.84
308.756	7.83
309.211	7.82
309.666	7.82
310.121	7.8
310.576	7.79
311.031	7.78
311.486	7.77
311.94	7.76
312.395	7.75
312.85	7.74
313.305	7.73
313.759	7.72
314.214	7.71
314.668	7.7
315.123	7.69
315.577	7.69
316.032	7.69
316.486	7.67
316.94	7.66
317.394	7.65
317.849	7.64
318.303	7.64
318.757	7.62
319.211	7.6
319.665	7.59
320.119	7.58
320.572	7.56
321.026	7.54
321.48	7.52
321.934	7.52
322.387	7.5
322.841	7.48
323.295	7.46
323.748	7.45
324.202	7.43
324.655	7.4
325.108	7.38
325.562	7.35
326.015	7.34
326.468	7.32
326.921	7.29
327.374	7.28
327.827	7.26
328.28	7.24
328.733	7.22
329.186	7.2
329.639	7.18
330.092	7.18
330.545	7.18
330.997	7.17
331.45	7.15
331.903	7.14
332.355	7.13
332.808	7.12
333.26	7.11
333.713	7.11
334.165	7.11
334.617	7.11
335.069	7.12
335.522	7.11
335.974	7.11
336.426	7.11
336.878	7.1
337.33	7.09
337.782	7.1
338.234	7.08
338.686	7.07
339.137	7.07
339.589	7.06
340.041	7.04
340.493	7.02
340.944	7
341.396	6.99
341.847	6.98
342.299	6.96
342.75	6.94
343.201	6.93
343.653	6.9
344.104	6.89
344.555	6.87
345.006	6.85
345.457	6.85
345.908	6.84
346.359	6.83
346.81	6.83
347.261	6.81
347.712	6.8
348.163	6.8
348.613	6.79
349.064	6.77
349.515	6.75
349.965	6.73
350.416	6.72
350.866	6.71
351.317	6.7
351.767	6.68
352.217	6.67
352.668	6.67
353.118	6.67
353.568	6.68
354.018	6.71
354.468	6.71
354.918	6.73
355.368	6.74
355.818	6.73
356.268	6.74
356.718	6.74
357.168	6.73
357.617	6.73
358.067	6.73
358.517	6.71
358.966	6.7
359.416	6.7
359.865	6.69
360.315	6.69
360.764	6.7
361.213	6.69
361.663	6.7
362.112	6.72
362.561	6.73
363.01	6.74
363.459	6.75
363.908	6.76
364.357	6.76
364.806	6.77
365.255	6.78
365.703	6.78
366.152	6.79
366.601	6.78
367.05	6.77
367.498	6.78
367.947	6.79
368.395	6.81
368.844	6.82
369.292	6.83
369.74	6.84
370.189	6.85
370.637	6.85
371.085	6.87
371.533	6.89
371.981	6.91
372.429	6.91
372.877	6.92
373.325	6.93
373.773	6.94
374.221	6.95
374.669	6.97
375.116	6.98
375.564	6.99
376.012	7
376.459	7.01
376.907	7.03
377.354	7.05
377.801	7.06
378.249	7.08
378.696	7.1
379.143	7.12
379.591	7.14
380.038	7.16
380.485	7.18
380.932	7.2
381.379	7.21
381.826	7.23
382.273	7.26
382.72	7.29
383.166	7.3
383.613	7.32
384.06	7.33
384.506	7.35
384.953	7.37
385.4	7.39
385.846	7.4
386.292	7.43
386.739	7.45
387.185	7.48
387.631	7.49
388.078	7.52
388.524	7.52
388.97	7.54
389.416	7.55
389.862	7.56
390.308	7.56
390.754	7.59
391.2	7.61
391.645	7.62
392.091	7.63
392.537	7.64
392.983	7.66
393.428	7.68
393.874	7.71
394.319	7.73
394.765	7.74
395.21	7.75
395.655	7.76
396.101	7.77
396.546	7.78
396.991	7.78
397.436	7.77
397.881	7.78
398.326	7.8
398.771	7.8
399.216	7.83
399.661	7.85
400.106	7.89
400.551	7.9
400.995	7.9
401.44	7.9
401.885	7.9
402.329	7.9
402.774	7.89
403.218	7.88
403.663	7.87
404.107	7.86
404.551	7.86
404.995	7.84
405.44	7.83
405.884	7.84
406.328	7.84
406.772	7.84
407.216	7.85
407.66	7.86
408.104	7.88
408.547	7.87
408.991	7.84
409.435	7.83
409.879	7.82
410.322	7.81
410.766	7.8
411.209	7.8
411.653	7.79
412.096	7.77
412.54	7.77
412.983	7.75
413.426	7.77
413.869	7.77
414.312	7.79
414.756	7.8
415.199	7.81
415.642	7.83
416.085	7.84
416.527	7.86
416.97	7.88
417.413	7.88
417.856	7.86
418.298	7.85
418.741	7.84
419.184	7.83
419.626	7.82
420.069	7.82
420.511	7.79
420.953	7.78
421.396	7.76
421.838	7.76
422.28	7.77
422.722	7.79
423.164	7.79
423.606	7.79
424.048	7.76
424.49	7.77
424.932	7.76
425.374	7.77
425.816	7.76
426.258	7.73
426.699	7.7
427.141	7.63
427.582	7.6
428.024	7.58
428.465	7.57
428.907	7.6
429.348	7.59
429.789	7.61
430.231	7.58
430.672	7.58
431.113	7.58
431.554	7.58
431.995	7.61
432.436	7.61
432.877	7.61
433.318	7.61
433.759	7.58
434.2	7.56
434.64	7.53
435.081	7.52
435.522	7.53
435.962	7.56
436.403	7.58
436.843	7.59
437.284	7.61
437.724	7.64
438.164	7.64
438.604	7.65
439.045	7.64
439.485	7.68
439.925	7.7
440.365	7.68
440.805	7.66
441.245	7.63
441.685	7.63
442.125	7.63
442.564	7.63
443.004	7.66
443.444	7.67
443.883	7.68
444.323	7.67
444.762	7.72
445.202	7.77
445.641	7.8
446.081	7.85
446.52	7.86
446.959	7.87
447.398	7.9
447.837	7.93
448.276	7.94
448.716	7.95
449.154	7.99
449.593	8.01
450.032	8.01
450.471	8.03
450.91	8.04
451.349	8.06
451.787	8.06
452.226	8.04
452.664	8.02
453.103	8.04
453.541	8.05
453.98	8.03
454.418	8.01
454.856	8
455.295	7.98
455.733	7.97
456.171	7.96
456.609	7.96
457.047	7.94
457.485	7.93
457.923	7.91
458.361	7.91
458.798	7.9
459.236	7.9
459.674	7.91
460.111	7.9
460.549	7.88
460.987	7.87
461.424	7.87
461.862	7.87
462.299	7.87
462.736	7.87
463.173	7.86
463.611	7.85
464.048	7.84
464.485	7.84
464.922	7.82
465.359	7.84
465.796	7.82
466.233	7.82
466.67	7.82
467.106	7.8
467.543	7.81
467.98	7.8
468.416	7.83
468.853	7.82
469.29	7.83
469.726	7.85
470.162	7.84
470.599	7.86
471.035	7.86
471.471	7.86
471.907	7.89
472.344	7.89
472.78	7.9
473.216	7.89
473.652	7.9
474.088	7.88
474.523	7.88
474.959	7.88
475.395	7.88
475.831	7.88
476.266	7.88
476.702	7.89
477.138	7.89
477.573	7.88
478.008	7.89
478.444	7.89
478.879	7.88
479.314	7.87
479.75	7.87
480.185	7.87
480.62	7.87
481.055	7.88
481.49	7.85
481.925	7.84
482.36	7.83
482.795	7.82
483.229	7.81
483.664	7.8
484.099	7.8
484.534	7.8
484.968	7.8
485.403	7.79
485.837	7.78
486.271	7.78
486.706	7.79
487.14	7.81
487.574	7.83
488.009	7.84
488.443	7.86
488.877	7.87
489.311	7.89
489.745	7.91
490.179	7.93
490.613	7.96
491.046	8
491.48	8.04
491.914	8.05
492.348	8.08
492.781	8.11
493.215	8.13
493.648	8.17
494.082	8.21
494.515	8.23
494.948	8.27
495.382	8.31
495.815	8.36
496.248	8.4
496.681	8.44
497.114	8.5
497.547	8.56
497.98	8.62
498.413	8.68
498.846	8.75
499.279	8.81
499.711	8.87
500.144	8.94
500.577	9
501.009	9.07
501.442	9.16
501.874	9.23
502.306	9.31
502.739	9.4
503.171	9.49
503.603	9.59
504.036	9.71
504.468	9.84
504.9	9.96
505.332	10.1
505.764	10.26
506.196	10.41
506.627	10.56
507.059	10.71
507.491	10.89
507.923	11.05
508.354	11.22
508.786	11.4
509.217	11.56
509.649	11.76
510.08	11.95
510.512	12.13
510.943	12.33
511.374	12.54
511.805	12.74
512.237	12.95
512.668	13.15
513.099	13.37
513.53	13.59
513.961	13.83
514.391	14.06
514.822	14.29
515.253	14.52
515.684	14.75
516.114	15
516.545	15.25
516.975	15.52
517.406	15.79
517.836	16.02
518.267	16.29
518.697	16.55
519.127	16.82
519.558	17.07
519.988	17.33
520.418	17.59
520.848	17.84
521.278	18.09
521.708	18.27
522.138	18.5
522.567	18.75
522.997	18.98
523.427	19.21
523.857	19.39
524.286	19.62
524.716	19.83
525.145	20.05
525.575	20.25
526.004	20.45
526.433	20.69
526.863	20.91
527.292	21.09
527.721	21.25
528.15	21.41
528.579	21.58
529.008	21.74
529.437	21.88
529.866	21.99
530.295	22.12
530.724	22.24
531.152	22.37
531.581	22.47
532.01	22.58
532.438	22.69
532.867	22.8
533.295	22.9
533.723	23
534.152	23.09
534.58	23.17
535.008	23.22
535.436	23.26
535.865	23.3
536.293	23.35
536.721	23.4
537.149	23.43
537.576	23.48
538.004	23.5
538.432	23.52
538.86	23.56
539.287	23.59
539.715	23.66
540.143	23.72
540.57	23.77
540.998	23.81
541.425	23.84
541.852	23.88
542.28	23.89
542.707	23.93
543.134	23.94
543.561	23.97
543.988	23.98
544.415	24.02
544.842	24.03
545.269	24.06
545.696	24.06
546.123	24.07
546.549	24.09
546.976	24.13
547.403	24.14
547.829	24.18
548.256	24.21
548.682	24.23
549.108	24.24
549.535	24.27
549.961	24.28
550.387	24.31
550.813	24.32
551.24	24.32
551.666	24.33
552.092	24.33
552.518	24.32
552.943	24.3
553.369	24.28
553.795	24.26
554.221	24.22
554.646	24.18
555.072	24.13
555.498	24.1
555.923	24.09
556.349	24.05
556.774	24
557.199	23.96
557.625	23.89
558.05	23.82
558.475	23.74
558.9	23.68
559.325	23.6
559.75	23.52
560.175	23.43
560.6	23.3
561.025	23.19
561.449	23.07
561.874	22.96
562.299	22.86
562.723	22.76
563.148	22.64
563.572	22.5
563.997	22.38
564.421	22.25
564.846	22.12
565.27	22
565.694	21.86
566.118	21.71
566.542	21.56
566.966	21.4
567.39	21.23
567.814	21.09
568.238	20.92
568.662	20.78
569.086	20.63
569.509	20.47
569.933	20.3
570.357	20.14
570.78	20
571.204	19.85
571.627	19.7
572.05	19.57
572.474	19.43
572.897	19.32
573.32	19.17
573.743	19.03
574.166	18.9
574.589	18.79
575.012	18.69
575.435	18.56
575.858	18.46
576.281	18.36
576.704	18.25
577.126	18.16
577.549	18.07
577.972	17.98
578.394	17.88
578.817	17.82
579.239	17.72
579.661	17.63
580.084	17.56
580.506	17.48
580.928	17.41
581.35	17.34
581.772	17.28
582.194	17.2
582.616	17.12
583.038	17.07
583.46	16.99
583.882	16.94
584.303	16.88
584.725	16.81
585.147	16.73
585.568	16.65
585.99	16.6
586.411	16.52
586.833	16.47
587.254	16.43
587.675	16.38
588.096	16.32
588.518	16.27
588.939	16.22
589.36	16.15
589.781	16.12
590.202	16.07
590.623	16.02
591.043	15.98
591.464	15.93
591.885	15.88
592.305	15.83
592.726	15.79
593.147	15.77
593.567	15.73
593.987	15.75
594.408	15.72
594.828	15.7
595.248	15.67
595.669	15.65
596.089	15.64
596.509	15.6
596.929	15.57
597.349	15.54
597.769	15.5
598.189	15.47
598.608	15.41
599.028	15.36
599.448	15.32
599.867	15.28
600.287	15.23
600.706	15.17
601.126	15.14
601.545	15.08
601.965	15.04
602.384	15
602.803	14.95
603.222	14.9
603.641	14.86
604.061	14.8
604.48	14.75
604.898	14.69
605.317	14.64
605.736	14.57
606.155	14.51
606.574	14.45
606.992	14.38
607.411	14.33
607.829	14.22
608.248	14.16
608.666	14.1
609.085	14.06
609.503	14
609.921	13.93
610.339	13.89
610.758	13.84
611.176	13.79
611.594	13.73
612.012	13.66
612.43	13.65
612.847	13.59
613.265	13.53
613.683	13.45
614.101	13.39
614.518	13.33
614.936	13.28
615.353	13.23
615.771	13.18
616.188	13.13
616.606	13.07
617.023	13.02
617.44	12.97
617.857	12.91
618.274	12.88
618.691	12.85
619.108	12.82
619.525	12.77
619.942	12.72
620.359	12.69
620.776	12.65
621.192	12.63
621.609	12.6
622.026	12.58
622.442	12.56
622.859	12.53
623.275	12.52
623.691	12.5
624.108	12.49
624.524	12.48
624.94	12.46
625.356	12.46
625.772	12.44
626.188	12.44
626.604	12.43
627.02	12.43
627.436	12.41
627.852	12.39
628.268	12.37
628.683	12.35
629.099	12.34
629.514	12.31
629.93	12.29
630.345	12.24
630.761	12.2
631.176	12.17
631.591	12.12
632.007	12.08
632.422	12.05
632.837	12
633.252	11.95
633.667	11.88
634.082	11.83
634.497	11.74
634.911	11.68
635.326	11.6
635.741	11.52
636.155	11.45
636.57	11.35
636.984	11.24
637.399	11.13
637.813	11.01
638.228	10.9
638.642	10.78
639.056	10.67
639.47	10.56
639.884	10.45
640.298	10.35
640.712	10.24
641.126	10.14
641.54	10.05
641.954	9.96
642.368	9.87
642.781	9.78
643.195	9.69
643.609	9.6
644.022	9.52
644.436	9.44
644.849	9.35
645.262	9.28
645.676	9.21
646.089	9.13
646.502	9.07
646.915	9.01
647.328	8.96
647.741	8.91
648.154	8.89
648.567	8.86
648.98	8.84
649.393	8.82
649.805	8.78
650.218	8.75
650.631	8.72
651.043	8.69
651.456	8.69
651.868	8.66
652.28	8.64
652.693	8.61
653.105	8.58
653.517	8.55
653.929	8.51
654.341	8.49
654.753	8.46
655.165	8.43
655.577	8.39
655.989	8.33
656.401	8.3
656.813	8.26
657.224	8.21
657.636	8.18
658.047	8.13
658.459	8.07
658.87	8.02
659.282	7.97
659.693	7.93
660.104	7.89
660.515	7.85
660.926	7.81
661.338	7.77
661.749	7.72
662.159	7.66
662.57	7.63
662.981	7.6
663.392	7.56
663.803	7.52
664.213	7.48
664.624	7.45
665.035	7.41
665.445	7.37
665.855	7.34
666.266	7.31
666.676	7.28
667.086	7.26
667.497	7.23
667.907	7.21
668.317	7.21
668.727	7.21
669.137	7.19
669.547	7.19
669.956	7.18
670.366	7.19
670.776	7.2
671.186	7.2
671.595	7.21
672.005	7.22
672.414	7.25
672.824	7.27
673.233	7.29
673.642	7.31
674.052	7.33
674.461	7.35
674.87	7.36
675.279	7.39
675.688	7.41
676.097	7.44
676.506	7.46
676.915	7.49
677.323	7.52
677.732	7.55
678.141	7.6
678.549	7.66
678.958	7.72
679.366	7.77
679.775	7.82
680.183	7.89
680.592	7.97
681	8.04
681.408	8.12
681.816	8.18
682.224	8.27
682.632	8.37
683.04	8.46
683.448	8.57
683.856	8.71
684.264	8.85
684.671	9.01
685.079	9.18
685.487	9.39
685.894	9.61
686.302	9.85
686.709	10.09
687.116	10.36
687.524	10.65
687.931	10.96
688.338	11.3
688.745	11.67
689.152	12.05
689.559	12.44
689.966	12.86
690.373	13.3
690.78	13.76
691.187	14.24
691.593	14.73
692	15.25
692.407	15.79
692.813	16.34
693.22	16.86
693.626	17.41
694.032	17.98
694.439	18.57
694.845	19.13
695.251	19.72
695.657	20.29
696.063	20.87
696.469	21.45
696.875	22.01
697.281	22.54
697.687	23.13
698.093	23.68
698.498	24.24
698.904	24.78
699.31	25.34
699.715	25.87
700.12	26.39
700.526	26.93
700.931	27.45
701.337	27.98
701.742	28.49
702.147	28.99
702.552	29.51
702.957	29.99
703.362	30.48
703.767	30.94
704.172	31.42
704.577	31.9
704.981	32.35
705.386	32.8
705.791	33.24
706.195	33.68
706.6	34.09
707.004	34.53
707.408	34.95
707.813	35.35
708.217	35.71
708.621	36.12
709.025	36.5
709.43	36.84
709.834	37.22
710.237	37.58
710.641	37.96
711.045	38.31
711.449	38.65
711.853	39
712.256	39.37
712.66	39.76
713.064	40.07
713.467	40.38
713.87	40.73
714.274	41.07
714.677	41.36
715.08	41.66
715.484	42
715.887	42.31
716.29	42.6
716.693	42.87
717.096	43.15
717.499	43.46
717.901	43.74
718.304	44.01
718.707	44.28
719.109	44.57
719.512	44.85
719.915	45.07
720.317	45.31
720.719	45.56
721.122	45.75
721.524	45.99
721.926	46.19
722.328	46.41
722.731	46.64
723.133	46.85
723.535	47.05
723.937	47.23
724.338	47.41
724.74	47.59
725.142	47.7
725.544	47.92
725.945	48.08
726.347	48.24
726.748	48.38
727.15	48.5
727.551	48.65
727.952	48.8
728.354	48.96
728.755	49.12
729.156	49.27
729.557	49.47
729.958	49.63
730.359	49.78
730.76	49.87
731.161	50.03
731.562	50.14
731.962	50.26
732.363	50.36
732.763	50.45
733.164	50.55
733.564	50.6
733.965	50.68
734.365	50.7
734.766	50.75
735.166	50.83
735.566	50.83
735.966	50.89
736.366	50.91
736.766	50.92
737.166	50.95
737.566	50.97
737.966	51.03
738.365	51.07
738.765	51.12
739.165	51.14
739.564	51.18
739.964	51.25
740.363	51.32
740.763	51.35
741.162	51.39
741.561	51.43
741.96	51.48
742.36	51.53
742.759	51.55
743.158	51.57
743.557	51.63
743.955	51.7
744.354	51.78
744.753	51.81
745.152	51.85
745.55	51.91
745.949	51.93
746.348	51.98
746.746	52
747.144	52.07
747.543	52.11
747.941	52.13
748.339	52.2
748.737	52.21
749.136	52.23
749.534	52.25
749.932	52.26
750.33	52.3
750.727	52.3
751.125	52.33
751.523	52.33
751.921	52.37
752.318	52.41
752.716	52.36
753.113	52.35
753.511	52.34
753.908	52.32
754.305	52.31
754.703	52.3
755.1	52.29
755.497	52.22
755.894	52.18
756.291	52.08
756.688	52
757.085	51.98
757.482	51.93
757.878	51.9
758.275	51.88
758.672	51.88
759.068	51.86
759.465	51.83
759.861	51.83
760.258	51.81
760.654	51.84
761.05	51.84
761.447	51.83
761.843	51.83
762.239	51.81
762.635	51.8
763.031	51.77
763.427	51.75
763.822	51.73
764.218	51.73
764.614	51.74
765.01	51.74
765.405	51.72
765.801	51.7
766.196	51.7
766.592	51.69
766.987	51.68
767.382	51.69
767.778	51.7
768.173	51.72
768.568	51.72
768.963	51.71
769.358	51.67
769.753	51.69
770.148	51.68
770.542	51.67
770.937	51.69
771.332	51.7
771.726	51.67
772.121	51.64
772.515	51.62
772.91	51.6
773.304	51.61
773.699	51.62
774.093	51.6
774.487	51.62
774.881	51.64
775.275	51.63
775.669	51.62
776.063	51.6
776.457	51.6
776.851	51.59
777.245	51.62
777.638	51.61
778.032	51.63
778.425	51.63
778.819	51.64
779.212	51.62
779.606	51.59
779.999	51.62
780.392	51.62
780.786	51.61
781.179	51.63
781.572	51.6
781.965	51.56
782.358	51.5
782.751	51.5
783.143	51.49
783.536	51.51
783.929	51.54
784.322	51.51
784.714	51.52
785.107	51.57
785.499	51.56
785.891	51.6
786.284	51.62
786.676	51.66
787.068	51.67
787.46	51.64
787.852	51.64
788.245	51.62
788.636	51.64
789.028	51.64
789.42	51.6
789.812	51.6
790.204	51.58
790.595	51.59
790.987	51.59
791.378	51.58
791.77	51.63
792.161	51.61
792.553	51.61
792.944	51.64
793.335	51.66
793.726	51.64
794.117	51.62
794.508	51.64
794.899	51.63
795.29	51.62
795.681	51.65
796.072	51.61
796.463	51.59
796.853	51.57
797.244	51.55
797.634	51.53
798.025	51.56
798.415	51.59
798.806	51.59
799.196	51.62
799.586	51.64
799.976	51.63
800.366	51.65
800.756	51.68
801.146	51.68
801.536	51.67
801.926	51.68
802.316	51.67
802.706	51.67
803.095	51.66
803.485	51.63
803.874	51.64
804.264	51.65
804.653	51.6
805.043	51.59
805.432	51.6
805.821	51.61
806.21	51.61
806.599	51.69
806.988	51.71
807.377	51.72
807.766	51.75
808.155	51.78
808.544	51.77
808.933	51.78
809.321	51.81
809.71	51.84
810.098	51.87
810.487	51.88
810.875	51.82
811.264	51.82
811.652	51.85
812.04	51.82
812.428	51.81
812.816	51.82
813.204	51.86
813.592	51.86
813.98	51.86
814.368	51.86
814.756	51.9
815.144	51.95
815.531	51.94
815.919	51.9
816.306	51.95
816.694	51.97
817.081	51.96
817.469	51.96
817.856	51.98
818.243	51.98
818.63	52
819.017	52
819.404	51.95
819.791	51.96
820.178	52.01
820.565	52.02
820.952	52.01
821.339	52.02
821.725	52.03
822.112	52.05
822.498	52.08
822.885	52.1
823.271	52.09
823.657	52.11
824.044	52.11
824.43	52.09
824.816	52.09
825.202	52.11
825.588	52.13
825.974	52.14
826.36	52.12
826.746	52.13
827.132	52.09
827.517	52.1
827.903	52.1
828.289	52.11
828.674	52.1
829.06	52.09
829.445	52.09
829.83	52.06
830.216	52.05
830.601	52.06
830.986	52.03
831.371	52.04
831.756	51.98
832.141	52.01
832.526	52.02
832.911	52.03
833.295	52.03
833.68	52.01
834.065	52
834.449	51.99
834.834	51.97
835.218	51.97
835.603	51.98
835.987	52
836.371	51.96
836.755	51.94
837.139	51.92
837.524	51.92
837.908	51.91
838.291	51.9
838.675	51.92
839.059	51.87
839.443	51.86
839.827	51.86
840.21	51.89
840.594	51.88
840.977	51.87
841.361	51.86
841.744	51.82
842.127	51.8
842.511	51.78
842.894	51.75
843.277	51.78
843.66	51.79
844.043	51.77
844.426	51.72
844.809	51.7
845.191	51.69
845.574	51.68
845.957	51.69
846.339	51.68
846.722	51.69
847.104	51.7
847.487	51.71
847.869	51.7
848.252	51.69
848.634	51.73
849.016	51.75
849.398	51.76
849.78	51.79
850.162	51.77
850.544	51.78
850.926	51.76
851.307	51.76
851.689	51.73
852.071	51.69
852.452	51.7
852.834	51.67
853.215	51.66
853.597	51.65
853.978	51.65
854.359	51.66
854.741	51.67
855.122	51.68
855.503	51.67
855.884	51.65
856.265	51.66
856.646	51.65
857.026	51.67
857.407	51.64
857.788	51.65
858.169	51.64
858.549	51.64
858.93	51.64
859.31	51.62
859.69	51.6
860.071	51.62
860.451	51.61
860.831	51.63
861.211	51.62
861.591	51.63
861.971	51.61
862.351	51.63
862.731	51.63
863.111	51.63
863.491	51.66
863.87	51.67
864.25	51.67
864.629	51.69
865.009	51.68
865.388	51.67
865.768	51.67
866.147	51.69
866.526	51.65
866.905	51.64
867.284	51.65
867.663	51.63
868.042	51.61
868.421	51.6
868.8	51.59
869.179	51.59
869.558	51.59
869.936	51.58
870.315	51.58
870.693	51.58
871.072	51.57
871.45	51.56
871.828	51.54
872.207	51.58
872.585	51.57
872.963	51.55
873.341	51.54
873.719	51.53
874.097	51.52
874.475	51.52
874.853	51.5
875.23	51.5
875.608	51.5
875.986	51.51
876.363	51.49
876.741	51.48
877.118	51.49
877.495	51.48
877.873	51.46
878.25	51.45
878.627	51.44
879.004	51.46
879.381	51.48
879.758	51.46
880.135	51.49
880.512	51.51
880.889	51.54
881.265	51.56
881.642	51.54
882.019	51.58
882.395	51.59
882.772	51.59
883.148	51.58
883.524	51.58
883.901	51.58
884.277	51.57
884.653	51.57
885.029	51.55
885.405	51.51
885.781	51.52
886.157	51.51
886.532	51.53
886.908	51.53
887.284	51.53
887.659	51.55
888.035	51.57
888.411	51.55
888.786	51.53
889.161	51.54
889.537	51.58
889.912	51.57
890.287	51.55
890.662	51.52
891.037	51.49
891.412	51.46
891.787	51.42
892.162	51.39
892.536	51.37
892.911	51.35
893.286	51.33
893.66	51.28
894.035	51.26
894.409	51.23
894.784	51.23
895.158	51.22
895.532	51.21
895.906	51.19
896.281	51.16
896.655	51.13
897.029	51.12
897.402	51.1
897.776	51.1
898.15	51.12
898.524	51.12
898.898	51.09
899.271	51.08
899.645	51.05
900.018	51.04
900.392	51.03
900.765	51.01
901.138	50.99
901.511	50.98
901.884	50.96
902.258	50.93
902.631	50.91
903.003	50.9
903.376	50.87
903.749	50.86
904.122	50.88
904.495	50.89
904.867	50.89
905.24	50.88
905.612	50.86
905.985	50.85
906.357	50.82
906.729	50.78
907.102	50.79
907.474	50.79
907.846	50.77
908.218	50.73
908.59	50.73
908.962	50.76
909.334	50.75
909.705	50.74
910.077	50.68
910.449	50.73
910.82	50.73
911.192	50.72
911.563	50.71
911.935	50.71
912.306	50.72
912.677	50.71
913.048	50.7
913.419	50.72
913.79	50.7
914.161	50.74
914.532	50.71
914.903	50.72
915.274	50.75
915.645	50.77
916.015	50.77
916.386	50.75
916.756	50.73
917.127	50.7
917.497	50.69
917.868	50.71
918.238	50.73
918.608	50.73
918.978	50.7
919.348	50.67
919.718	50.65
920.088	50.64
920.458	50.67
920.828	50.69
921.198	50.7
921.567	50.71
921.937	50.77
922.306	50.75
922.676	50.77
923.045	50.72
923.415	50.69
923.784	50.71
924.153	50.69
924.522	50.65
924.891	50.63
925.26	50.63
925.629	50.62
925.998	50.53
926.367	50.54
926.736	50.46
927.104	50.49
927.473	50.55
927.842	50.5
928.21	50.53
928.578	50.5
928.947	50.51
929.315	50.5
929.683	50.49
930.051	50.48
930.42	50.42
930.788	50.42
931.156	50.43
931.523	50.33
931.891	50.28
932.259	50.19
932.627	50.14
932.994	50.05
933.362	49.94
933.729	49.79
934.097	49.68
934.464	49.63
934.831	49.56
935.199	49.45
935.566	49.38
935.933	49.34
936.3	49.26
936.667	49.19
937.034	49.12
937.401	49.06
937.767	49.06
938.134	49.06
938.501	49.01
938.867	49.02
939.234	49.08
939.6	49.12
939.967	49.1
940.333	49.16
940.699	49.2
941.065	49.25
941.431	49.34
941.798	49.48
942.163	49.51
942.529	49.59
942.895	49.69
943.261	49.72
943.627	49.77
943.992	49.94
944.358	50
944.723	50.07
945.089	50.21
945.454	50.29
945.82	50.18
946.185	50.28
946.55	50.36
946.915	50.37
947.28	50.4
947.645	50.37
948.01	50.31
948.375	50.36
948.74	50.34
949.104	50.35
949.469	50.23
949.834	50.28
950.198	50.17
950.562	50.07
950.927	49.99
951.291	49.92
951.655	49.92
952.02	49.88
952.384	49.81
952.748	49.68
953.112	49.51
953.476	49.52
953.839	49.48
954.203	49.42
954.567	49.4
954.931	49.46
955.294	49.38
955.658	49.33
956.021	49.31
956.385	49.28
956.748	49.34
957.111	49.39
957.474	49.46
957.837	49.5
958.2	49.48
958.563	49.43
958.926	49.31
959.289	49.33
959.652	49.34
960.015	49.32
960.377	49.27
960.74	49.24
961.102	49.21
961.465	49.13
961.827	48.97
962.189	49.04
962.552	49
962.914	48.96
963.276	48.92
963.638	48.88
964	48.86
964.362	48.88
964.724	48.88
965.085	48.91
965.447	48.85
965.809	48.87
966.17	48.82
966.532	48.85
966.893	48.92
967.255	48.92
967.616	48.9
967.977	48.93
968.338	48.87
968.699	48.87
969.061	48.81
969.421	48.81
969.782	48.81
970.143	48.76
970.504	48.73
970.865	48.61
971.225	48.63
971.586	48.62
971.946	48.56
972.307	48.66
972.667	48.64
973.027	48.65
973.388	48.54
973.748	48.56
974.108	48.6
974.468	48.68
974.828	48.79
975.188	48.75
975.548	48.78
975.907	48.77
976.267	48.71
976.627	48.67
976.986	48.61
977.346	48.63
977.705	48.63
978.064	48.66
978.424	48.59
978.783	48.59
979.142	48.58
979.501	48.48
979.86	48.48
980.219	48.39
980.578	48.43
980.937	48.5
981.296	48.57
981.654	48.6
982.013	48.58
982.371	48.55
982.73	48.49
983.088	48.46
983.447	48.55
983.805	48.52
984.163	48.57
984.521	48.43
984.879	48.41
985.237	48.43
985.595	48.4
985.953	48.35
986.311	48.34
986.669	48.37
987.026	48.39
987.384	48.4
987.741	48.41
988.099	48.37
988.456	48.48
988.814	48.49
989.171	48.51
989.528	48.49
989.885	48.43
990.242	48.5
990.599	48.43
990.956	48.39
991.313	48.3
991.67	48.3
992.027	48.23
992.383	48.24
992.74	48.11
993.096	47.97
993.453	47.92
993.809	48.03
994.165	47.97
994.522	47.95
994.878	47.91
995.234	47.87
995.59	47.7
995.946	47.93
996.302	47.73
996.658	47.82
997.013	47.73
997.369	47.7
997.725	47.62
998.08	47.47
998.436	47.46
998.791	47.48
999.147	47.52
999.502	47.54
999.857	47.41
1000.212	47.39
1000.567	47.41
1000.922	47.51
1001.277	47.39
1001.632	47.44
1001.987	47.5
1002.342	47.44
1002.696	47.45
1003.051	47.23
1003.406	47.27
1003.76	47.19
1004.114	47.37
1004.469	47.25
1004.823	47.3
1005.177	47.45
1005.531	47.4
1005.885	47.4
1006.239	47.27
1006.593	47.19
1006.947	47.23
1007.301	47.25
1007.655	47.2
1008.008	46.99
1008.362	47.02
1008.715	46.97
1009.069	46.86
1009.422	46.55
1009.776	46.41
1010.129	46.57
1010.482	46.73
1010.835	46.87
1011.188	46.76
1011.541	46.59
1011.894	46.54
1012.247	46.3
1012.6	46.31
1012.952	46.26
1013.305	46.25
1013.657	46.32
1014.01	46.31
1014.362	46.25
1014.715	46.04
1015.067	45.97
1015.419	45.92
1015.771	46.07
1016.123	45.96
1016.475	45.67
1016.827	45.51
1017.179	45.54
1017.531	45.43
1017.883	45.5
1018.234	45.07
1018.586	45.01
1018.938	44.87
1019.289	44.67
1019.64	44.91
1019.992	45.1
1020.343	45.29
1020.694	45.32
1021.045	45.34
1021.396	45.22
1021.747	44.67
1022.098	44.85
1022.449	44.9
1022.8	45.06
1023.151	45.16
1023.501	44.67
1023.852	44.58
1024.202	44.22
1024.553	43.95
1024.903	43.77
1025.253	43.82
1025.604	44.19
1025.954	43.99
1026.304	44.14
1026.654	43.92
1027.004	44.45
1027.354	44.22
1027.703	44.32
1028.053	44.23
1028.403	44.21
1028.753	44.3
1029.102	44.07
1029.452	43.8
1029.801	43.8
1030.15	43.55
1030.499	43.51
897.758	384.88
901.051	389.9
904.343	398.29
907.636	390.09
910.928	385.95
914.22	389.24
917.511	377.99
920.803	366.43
924.094	348.51
927.384	353.29
930.675	343.56
933.965	341.64
937.255	341.39
940.544	323.63
943.834	306.05
947.123	301.79
950.411	290.14
953.7	288.21
956.988	274.22
960.276	268.32
963.563	266.21
966.851	251.6
970.138	247.65
973.424	232.85
976.711	230.68
979.997	226.94
983.283	221.72
986.568	214.39
989.853	207.19
993.138	201.18
996.423	198.03
999.708	192.28
1002.992	193.24
1006.275	186.06
1009.559	185.65
1012.842	180.81
1016.125	175.55
1019.408	172.73
1022.69	171.39
1025.972	170.74
1029.254	168.13
1032.536	165.05
1035.817	159.82
1039.098	156.77
1042.379	157.05
1045.659	154.64
1048.939	153.08
1052.219	150.73
1055.498	147.42
1058.778	146.11
1062.057	143.66
1065.335	143.04
1068.614	140.29
1071.892	139.67
1075.17	137.22
1078.447	134.05
1081.724	133.81
1085.001	130.47
1088.278	131.17
1091.554	131.15
1094.83	130.16
1098.106	128.64
1101.382	127.63
1104.657	127.47
1107.932	126.96
1111.206	127.71
1114.481	125.5
1117.755	124.14
1121.029	124.66
1124.302	122.73
1127.575	121.22
1130.848	120.16
1134.121	118.74
1137.393	118.51
1140.665	118.21
1143.937	116.65
1147.208	114.92
1150.48	115.27
1153.75	113.36
1157.021	113.3
1160.291	112.61
1163.561	111.95
1166.831	111.65
1170.101	111.38
1173.37	110.31
1176.639	109.26
1179.907	108.93
1183.176	108.31
1186.444	108.36
1189.711	108.64
1192.979	107.53
1196.246	108.72
1199.513	108.7
1202.78	107.69
1206.046	107.89
1209.312	108.77
1212.578	109.35
1215.843	110.55
1219.108	112.02
1222.373	113.86
1225.638	115.07
1228.902	118.22
1232.166	119.72
1235.43	120.98
1238.693	124.86
1241.956	126.89
1245.219	130.01
1248.482	130.3
1251.744	130.4
1255.006	130.56
1258.268	126.38
1261.529	125.86
1264.79	123.81
1268.051	121.48
1271.312	121.04
1274.572	118.6
1277.832	116.81
1281.092	114.71
1284.351	112.88
1287.61	112.53
1290.869	112.2
1294.128	112.69
1297.386	111.62
1300.644	110.75
1303.902	110.15
1307.159	109.21
1310.416	110.28
1313.673	111.23
1316.93	112.34
1320.186	114.18
1323.442	115.22
1326.697	115.97
1329.953	116.31
1333.208	120.1
1336.463	123.73
1339.717	127.02
1342.972	130.71
1346.226	133.71
1349.479	134.16
1352.733	138.45
1355.986	139.55
1359.238	142.45
1362.491	142.87
1365.743	148.47
1368.995	148.98
1372.247	149.67
1375.498	148.1
1378.749	154.54
1382	153.85
1385.251	152.72
1388.501	152.66
1391.751	155.06
1395	151.92
1398.25	154.52
1401.499	152.63
1404.748	151.43
1407.996	145.37
1411.244	145.24
1414.492	142.72
1417.74	138.28
1420.987	134.7
1424.234	131.63
1427.481	125.36
1430.728	123.06
1433.974	118.16
1437.22	116.19
1440.465	112.4
1443.711	110.53
1446.956	107.59
1450.201	102.9
1453.445	97.8
1456.689	96.11
1459.933	93.35
1463.177	90.48
1466.42	88.91
1469.663	87.2
1472.906	83.91
1476.148	81.47
1479.391	79.56
1482.633	78.03
1485.874	77.47
1489.115	77.83
1492.356	75.87
1495.597	74.76
1498.838	75.32
1502.078	74.75
1505.318	74.19
1508.557	73.78
1511.797	73.92
1515.036	74.46
1518.274	74.41
1521.513	73.66
1524.751	72.92
1527.989	74.07
1531.227	73.78
1534.464	73.62
1537.701	73.09
1540.938	72.74
1544.174	72.86
1547.41	73.34
1550.646	73.04
1553.882	72.9
1557.117	72.89
1560.352	73.25
1563.587	72.7
1566.821	72.86
1570.055	72.01
1573.289	72.51
1576.523	72.45
1579.756	72.61
1582.989	72.51
1586.222	72.75
1589.454	72.96
1592.686	73.41
1595.918	72.79
1599.15	72.82
1602.381	72.99
1605.612	73.67
1608.843	73.38
1612.073	73.91
1615.303	74.01
1618.533	73.86
1621.762	73.24
1624.992	73.62
1628.221	72.78
1631.449	73.77
1634.678	74.18
1637.906	73.94
1641.134	74.16
1644.361	74.31
1647.588	73.96
1650.815	74.18
1654.042	74.43
1657.269	74.8
1660.495	75.06
1663.72	75.36
1666.946	74.7
1670.171	75.04
1673.396	75.6
1676.621	75.56
1679.845	75.7
1683.069	76
1686.293	75.53
1689.517	75.27
1692.74	75.56
1695.963	75.28
1699.185	75.77
1702.408	75.72
1705.63	75.41
1708.852	75.9
1712.073	75.84
1715.294	75.77
1718.515	76.36
1721.736	76.62
1724.956	76.71
1728.176	76.36
1731.396	76.33
1734.616	76.49
1737.835	76.9
1741.054	76.95
1744.272	76.32
1747.491	76.32
1750.709	76.63
1753.927	76.36
1757.144	76.49
1760.361	76.63
1763.578	77.26
1766.795	77.59
1770.011	77.37
1773.227	77.65
1776.443	78.44
1779.658	78.08
1782.874	78.49
1786.089	78.47
1789.303	78.64
1792.518	78.69
1795.732	79.8
1798.945	80.2
1802.159	80.49
1805.372	80.86
1808.585	81.62
1811.797	81.59
1815.01	82.67
1818.222	83.22
1821.434	83.69
1824.645	83.66
1827.856	85.26
1831.067	84.66
1834.278	84.45
1837.488	85.27
1840.698	86.48
1843.908	86.55
1847.117	86.96
1850.326	87.33
1853.535	88.2
1856.744	88.47
1859.952	89.52
1863.16	88.78
1866.368	88.67
1869.575	89.59
1872.782	88.44
1875.989	85.83
1879.196	85.77
1882.402	84.96
1885.608	85.2
1888.814	83.93
1892.019	84.85
1895.224	83.2
1898.429	83.53
1901.634	83.34
1904.838	82.91
1908.042	83.18
1911.246	83.82
1914.449	83.64
1917.652	83.57
1920.855	83.64
1924.058	83.22
1927.26	81.84
1930.462	83.12
1933.664	83.11
1936.865	83.68
1940.066	82.47
1943.267	81.89
1946.467	83.13
1949.668	82.96
1952.868	82.58
1956.067	82.38
1959.267	83.22
1962.466	83.6
1965.665	83.39
1968.863	83.69
1972.061	84.58
1975.259	86.98
1978.457	87.4
1981.654	88.03
1984.852	89.22
1988.048	90.77
1991.245	92.81
1994.441	93.59
1997.637	95.23
2000.833	97.27
2004.028	98.18
2007.223	99.71
2010.418	101.46
2013.613	106.79
2016.807	109.12
2020.001	110.47
2023.194	113.7
2026.388	115.67
2029.581	122.77
2032.774	126.62
2035.966	129.8
2039.158	133.34
2042.35	135.51
2045.542	138.39
2048.733	142.65
2051.924	142.48
2055.115	145.81
2058.306	146.84
2061.496	150.19
2064.686	150.31
2067.875	148.55
2071.065	153.16
2074.254	152.72
2077.442	155.85
2080.631	158.93
2083.819	159.65
2087.007	164.11
2090.195	165.99
2093.382	166.44
2096.569	167
2099.756	167.75
2102.942	172.57
2106.128	172.46
2109.314	177.16
2112.5	178.65
2115.685	174.42
2118.87	175.01
2122.055	176.39
2125.239	179.3
2128.424	184.79
2131.608	181.08
2134.791	180.88
2137.974	182.59
2141.157	185.81
2144.34	185.12
2147.523	188.71
2150.705	194.47
2153.887	194.55
2157.068	196.43
2160.25	198.75
2163.431	197.27
2166.611	201.15
2169.792	205.89
2172.972	209.01
2176.152	207.63
2179.331	212.25
2182.511	214.44
2185.69	216.11
2188.868	221.11
2192.047	228.92
2195.225	233.14
2198.403	232.41
2201.58	233.71
2204.758	239.02
2207.935	237.44
2211.111	246.08
2214.288	246.63
2217.464	248.82
2220.64	249.92
2223.815	250.86
2226.991	244.62
2230.166	245.91
2233.34	257.46
2236.515	259.43
2239.689	257.86
2242.863	264.42
2246.036	258.01
2249.209	262.86
2252.382	260.66
2255.555	271.5
2258.727	274.34
2261.9	283.96
2265.071	286.92
2268.243	281.69
2271.414	293.54
2274.585	299.12
2277.756	300.16
2280.926	311.84
2284.096	312.34
2287.266	314.03
2290.436	309.35
2293.605	314.74
2296.774	326.15
2299.942	323.55
2303.111	336.75
2306.279	344.3
2309.447	345.28
2312.614	348.06
2315.781	349.68
2318.948	354.17
2322.115	362.61
2325.281	375.44
2328.447	371.44
2331.613	371.34
2334.779	379.83
2337.944	378.85
2341.109	383.4
2344.274	390.46
2347.438	398.57
2350.602	409.24
2353.766	440.83
2356.929	440.21
2360.092	451.56
2363.255	457.11
2366.418	462.99
2369.58	474.1
2372.742	477.93
2375.904	477.36
2379.066	488.54
2382.227	507.3
2385.388	508.24
2388.548	478.18
2391.709	477.07
2394.869	488.86
2398.029	488.98
2401.188	487.14
2404.347	500.42
2407.506	517.29
2410.665	494.92
2413.823	498.34
2416.981	504.73
2420.139	480.51
2423.296	522.42
2426.453	549.43
2429.61	525.64
2432.767	561.36
2435.923	584.83
2439.079	565.27
2442.235	575.45
2445.391	595.14
2448.546	589.47
2451.701	624.61
2454.855	661.85
2458.009	582.25
2461.163	602.29
2464.317	608.19
2467.471	597.12
2470.624	608.26
2473.777	598.73
2476.929	586.63
2480.082	615.16
2483.234	644.65
2486.385	651.01
2489.537	674.23
2492.688	744.52
2495.839	719.1
2498.989	742.79
2502.14	741.14
2505.29	720.23
2508.439	789.84
2511.589	802.16
2514.738	789.81
2517.887	785.04
2521.035	732.1
2524.183	723.61
2527.331	716.81
2530.479	706.98
2533.627	718.47
