Data from C_2_hir_il_4n_054_Splice17_12.txt Node
Date: Sat Feb 29 14:32:38 EST 2020
User: sa697716
Spectrometer: FLMS03696
Trigger mode: 0
Integration Time (sec): 3.180400E-1
Scans to average: 20
Electric dark correction enabled: true
Nonlinearity correction enabled: true
Boxcar width: 5
XAxis mode: Wavelengths
Number of Pixels in Spectrum: 2048
>>>>>Begin Spectral Data<<<<<
187.83	91.07
188.298	94.98
188.766	87.9
189.233	76.82
189.701	92.19
190.169	95.03
190.636	105.15
191.104	95.88
191.571	482.25
192.039	305.85
192.506	-682.1
192.974	-4274.52
193.441	17.73
193.908	67.02
194.375	26.33
194.842	113.29
195.31	99.02
195.777	61.69
196.244	12.31
196.711	24.73
197.177	19.46
197.644	20.22
198.111	17.97
198.578	17.29
199.045	17.75
199.511	18.17
199.978	18.82
200.445	18.98
200.911	19.41
201.378	19.68
201.844	19.44
202.31	19.88
202.777	20.11
203.243	21.29
203.709	21.54
204.176	21.14
204.642	21.3
205.108	21.2
205.574	21.37
206.04	21.6
206.506	21.55
206.972	21.73
207.438	22.03
207.903	22.2
208.369	21.46
208.835	21.39
209.301	21.91
209.766	21.85
210.232	22.01
210.697	21.69
211.163	21.52
211.628	21.32
212.094	21.12
212.559	20.42
213.024	20.17
213.49	19.97
213.955	19.75
214.42	19.3
214.885	18.88
215.35	18.56
215.815	17.98
216.28	17.53
216.745	17.23
217.21	16.78
217.675	16.43
218.14	15.92
218.604	15.51
219.069	15.15
219.534	14.74
219.998	14.46
220.463	14.14
220.927	14.02
221.392	13.81
221.856	13.58
222.32	13.41
222.785	13.2
223.249	13.01
223.713	12.86
224.177	12.71
224.642	12.61
225.106	12.48
225.57	12.31
226.034	12.19
226.497	12.03
226.961	11.86
227.425	11.7
227.889	11.6
228.353	11.46
228.816	11.35
229.28	11.18
229.744	11.04
230.207	10.91
230.671	10.8
231.134	10.66
231.597	10.53
232.061	10.45
232.524	10.37
232.987	10.24
233.45	10.14
233.914	10
234.377	9.91
234.84	9.82
235.303	9.72
235.766	9.62
236.229	9.54
236.691	9.46
237.154	9.36
237.617	9.24
238.08	9.17
238.542	9.09
239.005	9.02
239.468	8.93
239.93	8.85
240.393	8.77
240.855	8.68
241.317	8.61
241.78	8.54
242.242	8.46
242.704	8.42
243.166	8.35
243.629	8.3
244.091	8.25
244.553	8.19
245.015	8.15
245.477	8.08
245.939	8.04
246.4	7.97
246.862	7.93
247.324	7.89
247.786	7.82
248.247	7.76
248.709	7.71
249.17	7.66
249.632	7.62
250.093	7.54
250.555	7.51
251.016	7.48
251.477	7.44
251.939	7.4
252.4	7.35
252.861	7.32
253.322	7.29
253.783	7.27
254.244	7.22
254.705	7.19
255.166	7.18
255.627	7.15
256.088	7.12
256.549	7.11
257.009	7.09
257.47	7.06
257.931	7.04
258.391	7.02
258.852	6.99
259.312	6.97
259.773	6.94
260.233	6.92
260.694	6.9
261.154	6.86
261.614	6.83
262.074	6.81
262.534	6.79
262.994	6.76
263.455	6.75
263.915	6.72
264.374	6.7
264.834	6.68
265.294	6.66
265.754	6.64
266.214	6.63
266.673	6.62
267.133	6.6
267.593	6.6
268.052	6.58
268.512	6.56
268.971	6.55
269.431	6.54
269.89	6.52
270.349	6.51
270.809	6.5
271.268	6.49
271.727	6.48
272.186	6.46
272.645	6.45
273.104	6.43
273.563	6.43
274.022	6.43
274.481	6.42
274.94	6.41
275.399	6.4
275.857	6.39
276.316	6.37
276.775	6.36
277.233	6.34
277.692	6.33
278.15	6.3
278.609	6.28
279.067	6.25
279.525	6.23
279.984	6.22
280.442	6.2
280.9	6.18
281.358	6.17
281.816	6.16
282.274	6.14
282.732	6.13
283.19	6.13
283.648	6.12
284.106	6.11
284.564	6.11
285.021	6.09
285.479	6.08
285.937	6.08
286.394	6.07
286.852	6.07
287.309	6.06
287.767	6.05
288.224	6.05
288.682	6.04
289.139	6.04
289.596	6.03
290.053	6.02
290.511	6
290.968	5.98
291.425	5.96
291.882	5.93
292.339	5.92
292.796	5.91
293.252	5.89
293.709	5.87
294.166	5.85
294.623	5.83
295.079	5.82
295.536	5.81
295.992	5.79
296.449	5.78
296.905	5.77
297.362	5.76
297.818	5.75
298.274	5.74
298.731	5.73
299.187	5.72
299.643	5.71
300.099	5.7
300.555	5.68
301.011	5.68
301.467	5.66
301.923	5.66
302.379	5.64
302.835	5.64
303.291	5.63
303.746	5.62
304.202	5.6
304.658	5.59
305.113	5.58
305.569	5.58
306.024	5.56
306.479	5.55
306.935	5.54
307.39	5.54
307.845	5.52
308.301	5.51
308.756	5.51
309.211	5.51
309.666	5.52
310.121	5.52
310.576	5.52
311.031	5.52
311.486	5.53
311.94	5.53
312.395	5.52
312.85	5.53
313.305	5.52
313.759	5.53
314.214	5.51
314.668	5.51
315.123	5.5
315.577	5.5
316.032	5.51
316.486	5.51
316.94	5.5
317.394	5.5
317.849	5.5
318.303	5.49
318.757	5.48
319.211	5.47
319.665	5.47
320.119	5.47
320.572	5.47
321.026	5.46
321.48	5.44
321.934	5.44
322.387	5.44
322.841	5.43
323.295	5.42
323.748	5.41
324.202	5.41
324.655	5.41
325.108	5.39
325.562	5.36
326.015	5.35
326.468	5.34
326.921	5.33
327.374	5.31
327.827	5.32
328.28	5.32
328.733	5.31
329.186	5.3
329.639	5.29
330.092	5.29
330.545	5.3
330.997	5.3
331.45	5.29
331.903	5.28
332.355	5.28
332.808	5.28
333.26	5.26
333.713	5.27
334.165	5.28
334.617	5.28
335.069	5.28
335.522	5.28
335.974	5.29
336.426	5.29
336.878	5.3
337.33	5.29
337.782	5.29
338.234	5.29
338.686	5.28
339.137	5.28
339.589	5.29
340.041	5.28
340.493	5.28
340.944	5.27
341.396	5.27
341.847	5.26
342.299	5.24
342.75	5.23
343.201	5.21
343.653	5.21
344.104	5.2
344.555	5.2
345.006	5.19
345.457	5.18
345.908	5.19
346.359	5.18
346.81	5.17
347.261	5.17
347.712	5.17
348.163	5.18
348.613	5.16
349.064	5.15
349.515	5.13
349.965	5.12
350.416	5.12
350.866	5.11
351.317	5.1
351.767	5.1
352.217	5.1
352.668	5.1
353.118	5.1
353.568	5.11
354.018	5.12
354.468	5.12
354.918	5.13
355.368	5.14
355.818	5.14
356.268	5.15
356.718	5.15
357.168	5.15
357.617	5.16
358.067	5.16
358.517	5.17
358.966	5.18
359.416	5.19
359.865	5.19
360.315	5.2
360.764	5.22
361.213	5.22
361.663	5.25
362.112	5.28
362.561	5.29
363.01	5.31
363.459	5.33
363.908	5.34
364.357	5.36
364.806	5.38
365.255	5.39
365.703	5.42
366.152	5.44
366.601	5.47
367.05	5.5
367.498	5.54
367.947	5.57
368.395	5.61
368.844	5.65
369.292	5.68
369.74	5.74
370.189	5.78
370.637	5.83
371.085	5.89
371.533	5.94
371.981	5.99
372.429	6.03
372.877	6.1
373.325	6.15
373.773	6.22
374.221	6.29
374.669	6.35
375.116	6.42
375.564	6.48
376.012	6.55
376.459	6.62
376.907	6.7
377.354	6.76
377.801	6.84
378.249	6.91
378.696	6.99
379.143	7.05
379.591	7.13
380.038	7.2
380.485	7.28
380.932	7.35
381.379	7.42
381.826	7.49
382.273	7.57
382.72	7.64
383.166	7.71
383.613	7.78
384.06	7.85
384.506	7.91
384.953	7.97
385.4	8.03
385.846	8.07
386.292	8.12
386.739	8.16
387.185	8.2
387.631	8.24
388.078	8.28
388.524	8.32
388.97	8.35
389.416	8.37
389.862	8.39
390.308	8.43
390.754	8.46
391.2	8.49
391.645	8.53
392.091	8.55
392.537	8.57
392.983	8.6
393.428	8.63
393.874	8.67
394.319	8.7
394.765	8.71
395.21	8.7
395.655	8.72
396.101	8.72
396.546	8.71
396.991	8.72
397.436	8.7
397.881	8.7
398.326	8.7
398.771	8.7
399.216	8.7
399.661	8.72
400.106	8.74
400.551	8.71
400.995	8.69
401.44	8.68
401.885	8.65
402.329	8.64
402.774	8.61
403.218	8.59
403.663	8.56
404.107	8.54
404.551	8.52
404.995	8.5
405.44	8.48
405.884	8.46
406.328	8.45
406.772	8.44
407.216	8.43
407.66	8.41
408.104	8.39
408.547	8.36
408.991	8.32
409.435	8.27
409.879	8.24
410.322	8.23
410.766	8.22
411.209	8.2
411.653	8.17
412.096	8.14
412.54	8.12
412.983	8.1
413.426	8.1
413.869	8.11
414.312	8.12
414.756	8.12
415.199	8.13
415.642	8.14
416.085	8.14
416.527	8.15
416.97	8.15
417.413	8.14
417.856	8.12
418.298	8.1
418.741	8.08
419.184	8.06
419.626	8.03
420.069	8.02
420.511	7.99
420.953	7.96
421.396	7.94
421.838	7.94
422.28	7.95
422.722	7.95
423.164	7.94
423.606	7.96
424.048	7.95
424.49	7.97
424.932	7.94
425.374	7.93
425.816	7.93
426.258	7.91
426.699	7.87
427.141	7.83
427.582	7.81
428.024	7.79
428.465	7.78
428.907	7.78
429.348	7.79
429.789	7.78
430.231	7.77
430.672	7.75
431.113	7.75
431.554	7.77
431.995	7.78
432.436	7.8
432.877	7.8
433.318	7.78
433.759	7.76
434.2	7.74
434.64	7.75
435.081	7.73
435.522	7.75
435.962	7.75
436.403	7.79
436.843	7.79
437.284	7.8
437.724	7.82
438.164	7.83
438.604	7.87
439.045	7.88
439.485	7.87
439.925	7.9
440.365	7.89
440.805	7.92
441.245	7.89
441.685	7.92
442.125	7.92
442.564	7.96
443.004	7.97
443.444	7.96
443.883	7.98
444.323	8
444.762	8.05
445.202	8.1
445.641	8.13
446.081	8.17
446.52	8.17
446.959	8.21
447.398	8.24
447.837	8.29
448.276	8.33
448.716	8.38
449.154	8.43
449.593	8.46
450.032	8.48
450.471	8.51
450.91	8.53
451.349	8.55
451.787	8.58
452.226	8.58
452.664	8.58
453.103	8.6
453.541	8.58
453.98	8.59
454.418	8.57
454.856	8.57
455.295	8.55
455.733	8.55
456.171	8.57
456.609	8.56
457.047	8.57
457.485	8.57
457.923	8.58
458.361	8.58
458.798	8.58
459.236	8.59
459.674	8.6
460.111	8.61
460.549	8.61
460.987	8.62
461.424	8.62
461.862	8.63
462.299	8.62
462.736	8.61
463.173	8.6
463.611	8.6
464.048	8.61
464.485	8.61
464.922	8.61
465.359	8.61
465.796	8.59
466.233	8.59
466.67	8.59
467.106	8.6
467.543	8.6
467.98	8.61
468.416	8.63
468.853	8.62
469.29	8.64
469.726	8.65
470.162	8.66
470.599	8.69
471.035	8.69
471.471	8.68
471.907	8.7
472.344	8.71
472.78	8.71
473.216	8.71
473.652	8.73
474.088	8.74
474.523	8.73
474.959	8.73
475.395	8.73
475.831	8.74
476.266	8.76
476.702	8.77
477.138	8.76
477.573	8.76
478.008	8.77
478.444	8.75
478.879	8.74
479.314	8.76
479.75	8.76
480.185	8.77
480.62	8.77
481.055	8.77
481.49	8.76
481.925	8.77
482.36	8.77
482.795	8.78
483.229	8.79
483.664	8.8
484.099	8.8
484.534	8.81
484.968	8.82
485.403	8.84
485.837	8.87
486.271	8.9
486.706	8.92
487.14	8.96
487.574	8.98
488.009	9.03
488.443	9.08
488.877	9.13
489.311	9.18
489.745	9.23
490.179	9.28
490.613	9.33
491.046	9.39
491.48	9.46
491.914	9.54
492.348	9.62
492.781	9.7
493.215	9.77
493.648	9.86
494.082	9.97
494.515	10.07
494.948	10.18
495.382	10.27
495.815	10.4
496.248	10.52
496.681	10.64
497.114	10.76
497.547	10.89
497.98	11.02
498.413	11.16
498.846	11.29
499.279	11.44
499.711	11.6
500.144	11.76
500.577	11.91
501.009	12.09
501.442	12.28
501.874	12.48
502.306	12.69
502.739	12.89
503.171	13.11
503.603	13.35
504.036	13.58
504.468	13.84
504.9	14.09
505.332	14.36
505.764	14.63
506.196	14.89
506.627	15.17
507.059	15.46
507.491	15.77
507.923	16.07
508.354	16.36
508.786	16.66
509.217	16.96
509.649	17.29
510.08	17.62
510.512	17.94
510.943	18.28
511.374	18.61
511.805	18.94
512.237	19.28
512.668	19.62
513.099	19.97
513.53	20.35
513.961	20.7
514.391	21.04
514.822	21.39
515.253	21.73
515.684	22.08
516.114	22.43
516.545	22.78
516.975	23.16
517.406	23.51
517.836	23.84
518.267	24.16
518.697	24.51
519.127	24.84
519.558	25.17
519.988	25.51
520.418	25.82
520.848	26.13
521.278	26.44
521.708	26.69
522.138	26.98
522.567	27.28
522.997	27.56
523.427	27.83
523.857	28.08
524.286	28.32
524.716	28.56
525.145	28.81
525.575	29.05
526.004	29.27
526.433	29.52
526.863	29.75
527.292	29.94
527.721	30.13
528.15	30.3
528.579	30.5
529.008	30.69
529.437	30.85
529.866	30.99
530.295	31.13
530.724	31.27
531.152	31.4
531.581	31.54
532.01	31.67
532.438	31.78
532.867	31.91
533.295	32.01
533.723	32.11
534.152	32.19
534.58	32.28
535.008	32.34
535.436	32.43
535.865	32.48
536.293	32.53
536.721	32.59
537.149	32.64
537.576	32.68
538.004	32.71
538.432	32.75
538.86	32.8
539.287	32.84
539.715	32.89
540.143	32.9
540.57	32.96
540.998	32.98
541.425	33.01
541.852	33.04
542.28	33.07
542.707	33.13
543.134	33.16
543.561	33.18
543.988	33.22
544.415	33.23
544.842	33.26
545.269	33.27
545.696	33.32
546.123	33.35
546.549	33.36
546.976	33.4
547.403	33.42
547.829	33.45
548.256	33.46
548.682	33.48
549.108	33.52
549.535	33.54
549.961	33.56
550.387	33.55
550.813	33.56
551.24	33.58
551.666	33.59
552.092	33.58
552.518	33.56
552.943	33.58
553.369	33.58
553.795	33.57
554.221	33.53
554.646	33.5
555.072	33.5
555.498	33.45
555.923	33.42
556.349	33.37
556.774	33.33
557.199	33.31
557.625	33.24
558.05	33.16
558.475	33.09
558.9	33.04
559.325	32.99
559.75	32.91
560.175	32.84
560.6	32.78
561.025	32.69
561.449	32.6
561.874	32.49
562.299	32.41
562.723	32.32
563.148	32.2
563.572	32.11
563.997	31.99
564.421	31.86
564.846	31.73
565.27	31.59
565.694	31.45
566.118	31.31
566.542	31.19
566.966	31.05
567.39	30.89
567.814	30.75
568.238	30.58
568.662	30.42
569.086	30.26
569.509	30.09
569.933	29.94
570.357	29.77
570.78	29.62
571.204	29.44
571.627	29.27
572.05	29.13
572.474	28.99
572.897	28.85
573.32	28.7
573.743	28.57
574.166	28.42
574.589	28.28
575.012	28.15
575.435	28.02
575.858	27.9
576.281	27.79
576.704	27.68
577.126	27.55
577.549	27.46
577.972	27.36
578.394	27.24
578.817	27.15
579.239	27.06
579.661	26.98
580.084	26.86
580.506	26.77
580.928	26.66
581.35	26.56
581.772	26.48
582.194	26.39
582.616	26.32
583.038	26.24
583.46	26.19
583.882	26.1
584.303	26.03
584.725	25.98
585.147	25.9
585.568	25.84
585.99	25.78
586.411	25.71
586.833	25.64
587.254	25.57
587.675	25.5
588.096	25.42
588.518	25.36
588.939	25.3
589.36	25.24
589.781	25.2
590.202	25.14
590.623	25.09
591.043	25.04
591.464	24.99
591.885	24.95
592.305	24.93
592.726	24.9
593.147	24.89
593.567	24.84
593.987	24.83
594.408	24.79
594.828	24.77
595.248	24.73
595.669	24.7
596.089	24.68
596.509	24.63
596.929	24.58
597.349	24.54
597.769	24.49
598.189	24.45
598.608	24.38
599.028	24.31
599.448	24.25
599.867	24.2
600.287	24.15
600.706	24.1
601.126	24.05
601.545	23.99
601.965	23.92
602.384	23.86
602.803	23.8
603.222	23.74
603.641	23.69
604.061	23.63
604.48	23.55
604.898	23.48
605.317	23.4
605.736	23.33
606.155	23.25
606.574	23.16
606.992	23.06
607.411	22.98
607.829	22.86
608.248	22.78
608.666	22.68
609.085	22.61
609.503	22.5
609.921	22.4
610.339	22.32
610.758	22.22
611.176	22.12
611.594	22.04
612.012	21.96
612.43	21.91
612.847	21.83
613.265	21.75
613.683	21.65
614.101	21.57
614.518	21.49
614.936	21.39
615.353	21.32
615.771	21.25
616.188	21.18
616.606	21.09
617.023	21
617.44	20.91
617.857	20.83
618.274	20.77
618.691	20.72
619.108	20.66
619.525	20.61
619.942	20.56
620.359	20.52
620.776	20.49
621.192	20.44
621.609	20.41
622.026	20.39
622.442	20.36
622.859	20.33
623.275	20.3
623.691	20.27
624.108	20.25
624.524	20.22
624.94	20.2
625.356	20.18
625.772	20.18
626.188	20.17
626.604	20.15
627.02	20.14
627.436	20.12
627.852	20.09
628.268	20.08
628.683	20.05
629.099	20.04
629.514	20
629.93	19.95
630.345	19.9
630.761	19.84
631.176	19.79
631.591	19.75
632.007	19.69
632.422	19.64
632.837	19.56
633.252	19.47
633.667	19.38
634.082	19.3
634.497	19.21
634.911	19.1
635.326	19
635.741	18.87
636.155	18.74
636.57	18.59
636.984	18.42
637.399	18.26
637.813	18.09
638.228	17.93
638.642	17.76
639.056	17.6
639.47	17.43
639.884	17.24
640.298	17.06
640.712	16.86
641.126	16.69
641.54	16.53
641.954	16.37
642.368	16.21
642.781	16.04
643.195	15.85
643.609	15.68
644.022	15.5
644.436	15.36
644.849	15.21
645.262	15.08
645.676	14.94
646.089	14.78
646.502	14.64
646.915	14.51
647.328	14.4
647.741	14.3
648.154	14.21
648.567	14.13
648.98	14.05
649.393	13.98
649.805	13.89
650.218	13.82
650.631	13.77
651.043	13.73
651.456	13.67
651.868	13.61
652.28	13.56
652.693	13.48
653.105	13.42
653.517	13.34
653.929	13.25
654.341	13.19
654.753	13.1
655.165	13.01
655.577	12.9
655.989	12.78
656.401	12.68
656.813	12.55
657.224	12.43
657.636	12.3
658.047	12.18
658.459	12.05
658.87	11.9
659.282	11.78
659.693	11.64
660.104	11.51
660.515	11.39
660.926	11.26
661.338	11.13
661.749	10.98
662.159	10.85
662.57	10.71
662.981	10.59
663.392	10.48
663.803	10.36
664.213	10.25
664.624	10.15
665.035	10.04
665.445	9.95
665.855	9.86
666.266	9.8
666.676	9.72
667.086	9.66
667.497	9.59
667.907	9.52
668.317	9.46
668.727	9.42
669.137	9.37
669.547	9.34
669.956	9.29
670.366	9.28
670.776	9.25
671.186	9.23
671.595	9.23
672.005	9.24
672.414	9.25
672.824	9.26
673.233	9.27
673.642	9.27
674.052	9.28
674.461	9.3
674.87	9.32
675.279	9.34
675.688	9.37
676.097	9.41
676.506	9.43
676.915	9.49
677.323	9.54
677.732	9.62
678.141	9.69
678.549	9.79
678.958	9.89
679.366	9.98
679.775	10.1
680.183	10.22
680.592	10.35
681	10.51
681.408	10.67
681.816	10.85
682.224	11.04
682.632	11.29
683.04	11.53
683.448	11.81
683.856	12.11
684.264	12.44
684.671	12.8
685.079	13.19
685.487	13.6
685.894	14.05
686.302	14.51
686.709	15.01
687.116	15.52
687.524	16.04
687.931	16.58
688.338	17.16
688.745	17.76
689.152	18.38
689.559	19
689.966	19.62
690.373	20.28
690.78	20.94
691.187	21.62
691.593	22.29
692	22.97
692.407	23.65
692.813	24.33
693.22	24.98
693.626	25.65
694.032	26.31
694.439	27
694.845	27.64
695.251	28.29
695.657	28.9
696.063	29.53
696.469	30.12
696.875	30.71
697.281	31.29
697.687	31.88
698.093	32.43
698.498	33
698.904	33.53
699.31	34.03
699.715	34.52
700.12	34.99
700.526	35.46
700.931	35.94
701.337	36.4
701.742	36.82
702.147	37.25
702.552	37.68
702.957	38.1
703.362	38.5
703.767	38.89
704.172	39.3
704.577	39.67
704.981	40.06
705.386	40.42
705.791	40.77
706.195	41.13
706.6	41.46
707.004	41.76
707.408	42.07
707.813	42.36
708.217	42.66
708.621	42.92
709.025	43.22
709.43	43.48
709.834	43.75
710.237	44.01
710.641	44.27
711.045	44.5
711.449	44.77
711.853	44.99
712.256	45.21
712.66	45.44
713.064	45.68
713.467	45.87
713.87	46.08
714.274	46.3
714.677	46.5
715.08	46.69
715.484	46.91
715.887	47.08
716.29	47.26
716.693	47.45
717.096	47.65
717.499	47.81
717.901	47.98
718.304	48.14
718.707	48.28
719.109	48.44
719.512	48.6
719.915	48.76
720.317	48.91
720.719	49.07
721.122	49.17
721.524	49.33
721.926	49.5
722.328	49.65
722.731	49.76
723.133	49.88
723.535	50
723.937	50.13
724.338	50.21
724.74	50.29
725.142	50.31
725.544	50.4
725.945	50.44
726.347	50.54
726.748	50.58
727.15	50.64
727.551	50.73
727.952	50.79
728.354	50.85
728.755	50.93
729.156	51.03
729.557	51.18
729.958	51.29
730.359	51.39
730.76	51.43
731.161	51.52
731.562	51.62
731.962	51.67
732.363	51.72
732.763	51.79
733.164	51.82
733.564	51.84
733.965	51.85
734.365	51.87
734.766	51.88
735.166	51.86
735.566	51.85
735.966	51.84
736.366	51.84
736.766	51.86
737.166	51.86
737.566	51.87
737.966	51.89
738.365	51.93
738.765	51.94
739.165	51.94
739.564	51.97
739.964	52
740.363	52.02
740.763	52.03
741.162	52.06
741.561	52.08
741.96	52.12
742.36	52.13
742.759	52.08
743.158	52.06
743.557	52.1
743.955	52.14
744.354	52.17
744.753	52.19
745.152	52.2
745.55	52.2
745.949	52.23
746.348	52.27
746.746	52.28
747.144	52.38
747.543	52.46
747.941	52.47
748.339	52.51
748.737	52.54
749.136	52.56
749.534	52.6
749.932	52.64
750.33	52.64
750.727	52.61
751.125	52.66
751.523	52.64
751.921	52.63
752.318	52.65
752.716	52.62
753.113	52.6
753.511	52.6
753.908	52.56
754.305	52.51
754.703	52.49
755.1	52.5
755.497	52.45
755.894	52.41
756.291	52.39
756.688	52.38
757.085	52.37
757.482	52.37
757.878	52.38
758.275	52.38
758.672	52.4
759.068	52.42
759.465	52.39
759.861	52.39
760.258	52.34
760.654	52.33
761.05	52.31
761.447	52.28
761.843	52.21
762.239	52.16
762.635	52.13
763.031	52.12
763.427	52.05
763.822	52
764.218	51.94
764.614	51.97
765.01	51.94
765.405	51.89
765.801	51.88
766.196	51.91
766.592	51.91
766.987	51.91
767.382	51.88
767.778	51.9
768.173	51.92
768.568	51.9
768.963	51.87
769.358	51.86
769.753	51.88
770.148	51.86
770.542	51.84
770.937	51.83
771.332	51.8
771.726	51.81
772.121	51.78
772.515	51.79
772.91	51.83
773.304	51.85
773.699	51.83
774.093	51.8
774.487	51.82
774.881	51.82
775.275	51.83
775.669	51.82
776.063	51.79
776.457	51.78
776.851	51.73
777.245	51.71
777.638	51.71
778.032	51.74
778.425	51.75
778.819	51.74
779.212	51.76
779.606	51.75
779.999	51.79
780.392	51.79
780.786	51.83
781.179	51.89
781.572	51.89
781.965	51.9
782.358	51.83
782.751	51.83
783.143	51.84
783.536	51.81
783.929	51.85
784.322	51.84
784.714	51.84
785.107	51.85
785.499	51.84
785.891	51.84
786.284	51.83
786.676	51.9
787.068	51.89
787.46	51.86
787.852	51.9
788.245	51.91
788.636	51.91
789.028	51.91
789.42	51.88
789.812	51.91
790.204	51.87
790.595	51.89
790.987	51.89
791.378	51.91
791.77	51.98
792.161	51.96
792.553	51.93
792.944	51.95
793.335	51.97
793.726	51.95
794.117	51.93
794.508	51.98
794.899	51.99
795.29	51.99
795.681	51.96
796.072	51.92
796.463	51.91
796.853	51.88
797.244	51.88
797.634	51.86
798.025	51.9
798.415	51.89
798.806	51.87
799.196	51.87
799.586	51.86
799.976	51.89
800.366	51.89
800.756	51.93
801.146	51.96
801.536	51.95
801.926	51.97
802.316	51.99
802.706	52.06
803.095	52.09
803.485	52.1
803.874	52.14
804.264	52.17
804.653	52.18
805.043	52.21
805.432	52.17
805.821	52.17
806.21	52.21
806.599	52.24
806.988	52.22
807.377	52.24
807.766	52.26
808.155	52.27
808.544	52.25
808.933	52.27
809.321	52.27
809.71	52.35
810.098	52.36
810.487	52.36
810.875	52.32
811.264	52.33
811.652	52.3
812.04	52.31
812.428	52.34
812.816	52.38
813.204	52.35
813.592	52.36
813.98	52.36
814.368	52.39
814.756	52.36
815.144	52.38
815.531	52.36
815.919	52.39
816.306	52.41
816.694	52.39
817.081	52.36
817.469	52.42
817.856	52.44
818.243	52.42
818.63	52.46
819.017	52.5
819.404	52.5
819.791	52.54
820.178	52.56
820.565	52.55
820.952	52.55
821.339	52.6
821.725	52.6
822.112	52.62
822.498	52.67
822.885	52.68
823.271	52.72
823.657	52.75
824.044	52.73
824.43	52.75
824.816	52.74
825.202	52.76
825.588	52.76
825.974	52.75
826.36	52.73
826.746	52.73
827.132	52.71
827.517	52.7
827.903	52.69
828.289	52.73
828.674	52.71
829.06	52.73
829.445	52.76
829.83	52.74
830.216	52.75
830.601	52.76
830.986	52.72
831.371	52.75
831.756	52.71
832.141	52.69
832.526	52.69
832.911	52.7
833.295	52.69
833.68	52.68
834.065	52.71
834.449	52.68
834.834	52.62
835.218	52.61
835.603	52.56
835.987	52.57
836.371	52.57
836.755	52.51
837.139	52.5
837.524	52.5
837.908	52.47
838.291	52.44
838.675	52.46
839.059	52.46
839.443	52.46
839.827	52.45
840.21	52.47
840.594	52.45
840.977	52.46
841.361	52.45
841.744	52.46
842.127	52.42
842.511	52.4
842.894	52.37
843.277	52.38
843.66	52.38
844.043	52.39
844.426	52.37
844.809	52.38
845.191	52.35
845.574	52.33
845.957	52.29
846.339	52.3
846.722	52.33
847.104	52.33
847.487	52.35
847.869	52.34
848.252	52.34
848.634	52.36
849.016	52.38
849.398	52.4
849.78	52.4
850.162	52.43
850.544	52.43
850.926	52.39
851.307	52.41
851.689	52.36
852.071	52.36
852.452	52.36
852.834	52.36
853.215	52.35
853.597	52.34
853.978	52.32
854.359	52.31
854.741	52.3
855.122	52.32
855.503	52.32
855.884	52.33
856.265	52.34
856.646	52.32
857.026	52.31
857.407	52.29
857.788	52.32
858.169	52.31
858.549	52.3
858.93	52.3
859.31	52.29
859.69	52.29
860.071	52.3
860.451	52.32
860.831	52.35
861.211	52.36
861.591	52.36
861.971	52.34
862.351	52.39
862.731	52.38
863.111	52.4
863.491	52.42
863.87	52.41
864.25	52.41
864.629	52.41
865.009	52.4
865.388	52.39
865.768	52.39
866.147	52.42
866.526	52.38
866.905	52.38
867.284	52.38
867.663	52.37
868.042	52.38
868.421	52.37
868.8	52.35
869.179	52.33
869.558	52.32
869.936	52.3
870.315	52.29
870.693	52.29
871.072	52.27
871.45	52.26
871.828	52.26
872.207	52.24
872.585	52.24
872.963	52.23
873.341	52.25
873.719	52.24
874.097	52.25
874.475	52.22
874.853	52.24
875.23	52.26
875.608	52.25
875.986	52.23
876.363	52.24
876.741	52.22
877.118	52.22
877.495	52.19
877.873	52.2
878.25	52.17
878.627	52.18
879.004	52.18
879.381	52.18
879.758	52.22
880.135	52.24
880.512	52.25
880.889	52.27
881.265	52.29
881.642	52.3
882.019	52.32
882.395	52.35
882.772	52.34
883.148	52.32
883.524	52.34
883.901	52.33
884.277	52.31
884.653	52.29
885.029	52.29
885.405	52.27
885.781	52.25
886.157	52.25
886.532	52.24
886.908	52.24
887.284	52.26
887.659	52.24
888.035	52.23
888.411	52.22
888.786	52.22
889.161	52.22
889.537	52.22
889.912	52.21
890.287	52.17
890.662	52.16
891.037	52.13
891.412	52.09
891.787	52.05
892.162	52.02
892.536	52
892.911	51.97
893.286	51.93
893.66	51.91
894.035	51.91
894.409	51.92
894.784	51.89
895.158	51.89
895.532	51.88
895.906	51.87
896.281	51.86
896.655	51.84
897.029	51.81
897.402	51.8
897.776	51.79
898.15	51.77
898.524	51.75
898.898	51.73
899.271	51.7
899.645	51.69
900.018	51.69
900.392	51.71
900.765	51.71
901.138	51.73
901.511	51.71
901.884	51.7
902.258	51.66
902.631	51.66
903.003	51.69
903.376	51.69
903.749	51.68
904.122	51.68
904.495	51.64
904.867	51.66
905.24	51.66
905.612	51.67
905.985	51.66
906.357	51.63
906.729	51.6
907.102	51.58
907.474	51.57
907.846	51.56
908.218	51.51
908.59	51.51
908.962	51.46
909.334	51.44
909.705	51.42
910.077	51.39
910.449	51.44
910.82	51.42
911.192	51.39
911.563	51.38
911.935	51.36
912.306	51.4
912.677	51.41
913.048	51.42
913.419	51.44
913.79	51.42
914.161	51.43
914.532	51.41
914.903	51.46
915.274	51.46
915.645	51.48
916.015	51.5
916.386	51.47
916.756	51.4
917.127	51.38
917.497	51.35
917.868	51.37
918.238	51.38
918.608	51.38
918.978	51.31
919.348	51.29
919.718	51.26
920.088	51.25
920.458	51.29
920.828	51.37
921.198	51.38
921.567	51.4
921.937	51.42
922.306	51.42
922.676	51.43
923.045	51.43
923.415	51.47
923.784	51.51
924.153	51.47
924.522	51.45
924.891	51.37
925.26	51.31
925.629	51.29
925.998	51.29
926.367	51.26
926.736	51.2
927.104	51.19
927.473	51.17
927.842	51.08
928.21	51.1
928.578	51.05
928.947	51.04
929.315	51.09
929.683	51.1
930.051	51.07
930.42	51.05
930.788	51.04
931.156	51
931.523	50.99
931.891	51.01
932.259	50.92
932.627	50.87
932.994	50.86
933.362	50.78
933.729	50.65
934.097	50.54
934.464	50.46
934.831	50.37
935.199	50.28
935.566	50.16
935.933	50.08
936.3	50
936.667	49.95
937.034	49.76
937.401	49.64
937.767	49.6
938.134	49.57
938.501	49.52
938.867	49.54
939.234	49.62
939.6	49.61
939.967	49.62
940.333	49.71
940.699	49.79
941.065	49.97
941.431	50.07
941.798	50.23
942.163	50.32
942.529	50.34
942.895	50.4
943.261	50.45
943.627	50.58
943.992	50.62
944.358	50.64
944.723	50.6
945.089	50.68
945.454	50.77
945.82	50.71
946.185	50.64
946.55	50.79
946.915	50.76
947.28	50.77
947.645	50.77
948.01	50.73
948.375	50.79
948.74	50.81
949.104	50.82
949.469	50.73
949.834	50.68
950.198	50.68
950.562	50.62
950.927	50.59
951.291	50.57
951.655	50.45
952.02	50.46
952.384	50.48
952.748	50.46
953.112	50.36
953.476	50.31
953.839	50.28
954.203	50.26
954.567	50.22
954.931	50.22
955.294	50.14
955.658	50.2
956.021	50.2
956.385	50.13
956.748	50.12
957.111	50.11
957.474	50.17
957.837	50.21
958.2	50.18
958.563	50.15
958.926	50.09
959.289	50.12
959.652	50.02
960.015	49.96
960.377	49.87
960.74	49.82
961.102	49.75
961.465	49.66
961.827	49.5
962.189	49.46
962.552	49.43
962.914	49.43
963.276	49.36
963.638	49.35
964	49.35
964.362	49.38
964.724	49.32
965.085	49.36
965.447	49.39
965.809	49.41
966.17	49.42
966.532	49.44
966.893	49.43
967.255	49.36
967.616	49.37
967.977	49.36
968.338	49.32
968.699	49.33
969.061	49.23
969.421	49.17
969.782	49.2
970.143	49.12
970.504	49.04
970.865	48.96
971.225	49
971.586	48.93
971.946	48.93
972.307	48.92
972.667	48.83
973.027	48.95
973.388	48.99
973.748	49
974.108	49.02
974.468	49.07
974.828	49.13
975.188	49.14
975.548	49.13
975.907	49.09
976.267	49.17
976.627	49.15
976.986	49
977.346	48.96
977.705	48.94
978.064	48.95
978.424	48.86
978.783	48.87
979.142	48.77
979.501	48.79
979.86	48.8
980.219	48.67
980.578	48.74
980.937	48.85
981.296	48.88
981.654	49.03
982.013	49.02
982.371	49.04
982.73	48.94
983.088	49.01
983.447	49.01
983.805	48.96
984.163	48.99
984.521	48.96
984.879	48.89
985.237	48.86
985.595	48.72
985.953	48.72
986.311	48.82
986.669	48.94
987.026	48.88
987.384	48.81
987.741	48.8
988.099	48.79
988.456	48.85
988.814	48.88
989.171	48.9
989.528	48.89
989.885	48.83
990.242	48.75
990.599	48.7
990.956	48.7
991.313	48.72
991.67	48.86
992.027	48.82
992.383	48.83
992.74	48.75
993.096	48.67
993.453	48.65
993.809	48.66
994.165	48.78
994.522	48.68
994.878	48.7
995.234	48.73
995.59	48.61
995.946	48.75
996.302	48.58
996.658	48.62
997.013	48.63
997.369	48.65
997.725	48.61
998.08	48.38
998.436	48.48
998.791	48.38
999.147	48.3
999.502	48.31
999.857	48.2
1000.212	48.24
1000.567	48.2
1000.922	48.18
1001.277	48
1001.632	48.14
1001.987	48.19
1002.342	48.13
1002.696	48.21
1003.051	48.2
1003.406	48.14
1003.76	48.01
1004.114	48
1004.469	47.98
1004.823	47.96
1005.177	48.19
1005.531	47.99
1005.885	47.99
1006.239	47.84
1006.593	47.74
1006.947	47.77
1007.301	47.83
1007.655	47.98
1008.008	47.86
1008.362	47.8
1008.715	47.67
1009.069	47.43
1009.422	47.33
1009.776	47.34
1010.129	47.49
1010.482	47.53
1010.835	47.58
1011.188	47.25
1011.541	47.04
1011.894	47.17
1012.247	47.05
1012.6	47.18
1012.952	47.17
1013.305	47.26
1013.657	47.19
1014.01	47.14
1014.362	47.27
1014.715	47.02
1015.067	47.17
1015.419	47.46
1015.771	47.57
1016.123	47.63
1016.475	47.6
1016.827	47.6
1017.179	47.49
1017.531	47.72
1017.883	47.74
1018.234	47.68
1018.586	47.57
1018.938	47.29
1019.289	46.93
1019.64	46.89
1019.992	47.09
1020.343	46.9
1020.694	46.7
1021.045	46.59
1021.396	46.12
1021.747	46.07
1022.098	45.96
1022.449	45.97
1022.8	45.96
1023.151	45.8
1023.501	45.68
1023.852	45.62
1024.202	45.58
1024.553	45.6
1024.903	45.39
1025.253	45.62
1025.604	45.38
1025.954	44.91
1026.304	45.64
1026.654	45.88
1027.004	46.05
1027.354	45.86
1027.703	45.5
1028.053	45.41
1028.403	45.24
1028.753	45.63
1029.102	45.24
1029.452	45.15
1029.801	45.27
1030.15	44.72
1030.499	44.59
897.758	462.21
901.051	465.58
904.343	470.25
907.636	464.97
910.928	462.22
914.22	466.91
917.511	455.29
920.803	439.46
924.094	421.65
927.384	424.79
930.675	406.68
933.965	403.15
937.255	406.54
940.544	389.44
943.834	368.44
947.123	361.37
950.411	344.91
953.7	340.44
956.988	329.39
960.276	313.34
963.563	310.81
966.851	296.78
970.138	291.92
973.424	270.43
976.711	266.41
979.997	259.26
983.283	252.51
986.568	244.64
989.853	237.39
993.138	228.23
996.423	228.91
999.708	220.44
1002.992	221.48
1006.275	213.83
1009.559	213.81
1012.842	207.64
1016.125	201.53
1019.408	197.38
1022.69	197.72
1025.972	195.41
1029.254	192.54
1032.536	186.59
1035.817	181.93
1039.098	179.06
1042.379	176.85
1045.659	174.24
1048.939	174.04
1052.219	170.77
1055.498	168.67
1058.778	164.57
1062.057	162.87
1065.335	161.84
1068.614	159.61
1071.892	158.03
1075.17	155.01
1078.447	152.95
1081.724	151.2
1085.001	147.37
1088.278	148.06
1091.554	147.13
1094.83	145.73
1098.106	143.58
1101.382	142.81
1104.657	142.24
1107.932	141.67
1111.206	141.6
1114.481	139.73
1117.755	139.02
1121.029	138.57
1124.302	136.46
1127.575	134.62
1130.848	134.07
1134.121	132.62
1137.393	131.94
1140.665	130.85
1143.937	129.93
1147.208	128.07
1150.48	127.36
1153.75	126.25
1157.021	125.49
1160.291	125.47
1163.561	124.86
1166.831	124.56
1170.101	124
1173.37	122.46
1176.639	121.89
1179.907	120.94
1183.176	120.9
1186.444	121.06
1189.711	120.83
1192.979	121.12
1196.246	121.43
1199.513	121.37
1202.78	120.33
1206.046	120.62
1209.312	121.45
1212.578	122.04
1215.843	123.91
1219.108	124.96
1222.373	126.68
1225.638	127.98
1228.902	131.08
1232.166	133.85
1235.43	135.3
1238.693	139.17
1241.956	141.53
1245.219	144.88
1248.482	146.57
1251.744	146.48
1255.006	146.88
1258.268	143.19
1261.529	142.28
1264.79	138.9
1268.051	136.59
1271.312	135.33
1274.572	133.39
1277.832	130.46
1281.092	128.7
1284.351	125.57
1287.61	125.22
1290.869	124.77
1294.128	124.4
1297.386	123.99
1300.644	123.79
1303.902	122.33
1307.159	121.53
1310.416	121.98
1313.673	123.53
1316.93	124.43
1320.186	126.9
1323.442	127.78
1326.697	129.53
1329.953	130.31
1333.208	133.72
1336.463	138.71
1339.717	141.69
1342.972	147.84
1346.226	151.65
1349.479	152.73
1352.733	158.82
1355.986	161.08
1359.238	165.23
1362.491	165.1
1365.743	171.01
1368.995	173.39
1372.247	170.95
1375.498	170.35
1378.749	175.25
1382	175.26
1385.251	173.55
1388.501	173.68
1391.751	175.42
1395	171.92
1398.25	174.01
1401.499	172.22
1404.748	169.94
1407.996	165.53
1411.244	165.72
1414.492	162.88
1417.74	157.9
1420.987	153.93
1424.234	150.45
1427.481	143.89
1430.728	140.78
1433.974	135.06
1437.22	131.5
1440.465	127.46
1443.711	124.66
1446.956	121.38
1450.201	115.93
1453.445	110.34
1456.689	108.32
1459.933	104.83
1463.177	99.72
1466.42	98.49
1469.663	95.86
1472.906	92.74
1476.148	89.84
1479.391	87.93
1482.633	86.01
1485.874	85.11
1489.115	84.27
1492.356	83.03
1495.597	81.48
1498.838	82.38
1502.078	81.45
1505.318	80.9
1508.557	80.43
1511.797	80.04
1515.036	80.24
1518.274	79.91
1521.513	79.47
1524.751	78.95
1527.989	79.45
1531.227	79.53
1534.464	79.34
1537.701	79.24
1540.938	79.04
1544.174	79.49
1547.41	79.82
1550.646	79.77
1553.882	79.99
1557.117	79.19
1560.352	79.29
1563.587	78.71
1566.821	78.78
1570.055	78.42
1573.289	78.45
1576.523	78.5
1579.756	78.38
1582.989	78.44
1586.222	77.96
1589.454	78.39
1592.686	79.11
1595.918	78.92
1599.15	78.78
1602.381	78.9
1605.612	79.38
1608.843	79.06
1612.073	79.59
1615.303	79.52
1618.533	79.16
1621.762	79.48
1624.992	79.53
1628.221	79.13
1631.449	80.07
1634.678	80.38
1637.906	80.35
1641.134	80.39
1644.361	80.66
1647.588	80.42
1650.815	80.86
1654.042	81.1
1657.269	80.98
1660.495	81.16
1663.72	81.4
1666.946	81.1
1670.171	81.41
1673.396	81.89
1676.621	82.02
1679.845	81.65
1683.069	81.78
1686.293	81.55
1689.517	81.87
1692.74	82.18
1695.963	81.94
1699.185	82.22
1702.408	81.77
1705.63	81.8
1708.852	81.88
1712.073	81.47
1715.294	81.82
1718.515	82.35
1721.736	82.16
1724.956	82.64
1728.176	82.35
1731.396	82.48
1734.616	82.88
1737.835	83.04
1741.054	82.92
1744.272	82.83
1747.491	83.2
1750.709	83.51
1753.927	83.17
1757.144	83.96
1760.361	83.29
1763.578	83.99
1766.795	84.08
1770.011	83.81
1773.227	84.4
1776.443	84.87
1779.658	84.59
1782.874	85.31
1786.089	85.11
1789.303	85.42
1792.518	85.36
1795.732	86.34
1798.945	86.93
1802.159	87.4
1805.372	88.19
1808.585	89
1811.797	89.45
1815.01	90.47
1818.222	90.53
1821.434	92.2
1824.645	92.12
1827.856	93.83
1831.067	93.8
1834.278	94.1
1837.488	94.33
1840.698	95.34
1843.908	95.16
1847.117	96.26
1850.326	96.36
1853.535	97.63
1856.744	96.93
1859.952	98.83
1863.16	97.89
1866.368	97.07
1869.575	97.87
1872.782	97.88
1875.989	96
1879.196	95.9
1882.402	95.17
1885.608	95.72
1888.814	94.72
1892.019	95.35
1895.224	93.49
1898.429	94.2
1901.634	94.92
1904.838	95.01
1908.042	95.63
1911.246	96.23
1914.449	96.88
1917.652	96.19
1920.855	96.96
1924.058	96.02
1927.26	95.49
1930.462	96.48
1933.664	96.31
1936.865	97.68
1940.066	95.31
1943.267	94.45
1946.467	95.45
1949.668	95.11
1952.868	95.61
1956.067	94.94
1959.267	95.09
1962.466	95.73
1965.665	95.95
1968.863	96.84
1972.061	95.64
1975.259	99.31
1978.457	100.7
1981.654	100.25
1984.852	101.39
1988.048	102.32
1991.245	103.37
1994.441	106.34
1997.637	108.07
2000.833	110.95
2004.028	111.35
2007.223	114.95
2010.418	116.54
2013.613	121.77
2016.807	125.99
2020.001	128.34
2023.194	132.19
2026.388	137.93
2029.581	143.44
2032.774	148.32
2035.966	152.41
2039.158	156.94
2042.35	160.5
2045.542	160.79
2048.733	166.54
2051.924	167.76
2055.115	170.87
2058.306	172.38
2061.496	173.98
2064.686	176.3
2067.875	175.63
2071.065	178.01
2074.254	178.45
2077.442	183.59
2080.631	187.4
2083.819	187.18
2087.007	193.16
2090.195	195.04
2093.382	193.84
2096.569	195.43
2099.756	197.47
2102.942	201.52
2106.128	204.17
2109.314	208.64
2112.5	208.24
2115.685	206.75
2118.87	207.31
2122.055	206.57
2125.239	211.41
2128.424	219.27
2131.608	214.82
2134.791	214.71
2137.974	216.27
2141.157	218.23
2144.34	216.98
2147.523	221.55
2150.705	227.92
2153.887	225.4
2157.068	227.89
2160.25	228.26
2163.431	228.12
2166.611	233.79
2169.792	238.63
2172.972	240.28
2176.152	238.72
2179.331	244.87
2182.511	244.76
2185.69	248.07
2188.868	255.62
2192.047	263.8
2195.225	270.03
2198.403	268.69
2201.58	265.94
2204.758	273.81
2207.935	275.63
2211.111	285.88
2214.288	286.91
2217.464	290.25
2220.64	290.88
2223.815	294.19
2226.991	287.65
2230.166	289.75
2233.34	301.62
2236.515	309.27
2239.689	304.01
2242.863	310.41
2246.036	302.98
2249.209	313.11
2252.382	311.91
2255.555	322.32
2258.727	324.17
2261.9	335.08
2265.071	339.76
2268.243	336.29
2271.414	347.32
2274.585	355.24
2277.756	354.31
2280.926	372.48
2284.096	365.74
2287.266	366.93
2290.436	361.19
2293.605	371.12
2296.774	382.86
2299.942	383.8
2303.111	399.53
2306.279	408.73
2309.447	407.4
2312.614	411.9
2315.781	417.05
2318.948	425.84
2322.115	436.13
2325.281	456.12
2328.447	449.28
2331.613	452.03
2334.779	458.02
2337.944	459.88
2341.109	466.57
2344.274	475.48
2347.438	486.11
2350.602	490.43
2353.766	528.41
2356.929	529.3
2360.092	543.71
2363.255	548.67
2366.418	557.73
2369.58	563.59
2372.742	569.97
2375.904	565.54
2379.066	583.02
2382.227	607.66
2385.388	611.08
2388.548	579.77
2391.709	572.95
2394.869	584.1
2398.029	586.54
2401.188	587.61
2404.347	609.67
2407.506	623.44
2410.665	603.06
2413.823	608.37
2416.981	617.12
2420.139	587.49
2423.296	628.56
2426.453	668.69
2429.61	638.84
2432.767	679.28
2435.923	697.57
2439.079	678.66
2442.235	693.58
2445.391	708.18
2448.546	694.75
2451.701	740.17
2454.855	789.64
2458.009	697.85
2461.163	710.4
2464.317	721.67
2467.471	706.32
2470.624	737.8
2473.777	707.15
2476.929	688.89
2480.082	737.64
2483.234	774.74
2486.385	778.84
2489.537	803.38
2492.688	883.56
2495.839	873.72
2498.989	896.88
2502.14	905.53
2505.29	859.6
2508.439	961.58
2511.589	979.44
2514.738	955.74
2517.887	945.64
2521.035	880.23
2524.183	868.67
2527.331	859.26
2530.479	834.77
2533.627	852.29
