Data from C_2_div_oh_2n_066_Splice17_03.txt Node
Date: Sat Feb 29 14:25:47 EST 2020
User: sa697716
Spectrometer: FLMS03696
Trigger mode: 0
Integration Time (sec): 3.180400E-1
Scans to average: 20
Electric dark correction enabled: true
Nonlinearity correction enabled: true
Boxcar width: 5
XAxis mode: Wavelengths
Number of Pixels in Spectrum: 2048
>>>>>Begin Spectral Data<<<<<
187.83	69.27
188.298	62.35
188.766	53.13
189.233	51.14
189.701	63.37
190.169	56.52
190.636	55.92
191.104	62.04
191.571	232.47
192.039	284.76
192.506	40.79
192.974	5954.56
193.441	-328.44
193.908	123.53
194.375	87.71
194.842	134.16
195.31	47.85
195.777	-16.07
196.244	11.54
196.711	19.22
197.177	23.25
197.644	22.4
198.111	21.97
198.578	22.08
199.045	21.96
199.511	22.75
199.978	23.63
200.445	23.96
200.911	24.14
201.378	24.34
201.844	24.96
202.31	25
202.777	25.13
203.243	25.76
203.709	26.55
204.176	26.12
204.642	26.19
205.108	26.02
205.574	26.25
206.04	26.03
206.506	26.1
206.972	26.04
207.438	26.12
207.903	26.36
208.369	25.74
208.835	25.66
209.301	26.14
209.766	26.21
210.232	26.21
210.697	26.08
211.163	26.37
211.628	26.15
212.094	26.16
212.559	25.82
213.024	25.63
213.49	25.55
213.955	25.18
214.42	24.74
214.885	24.42
215.35	24.12
215.815	23.38
216.28	22.96
216.745	22.48
217.21	21.95
217.675	21.58
218.14	20.92
218.604	20.4
219.069	19.9
219.534	19.36
219.998	19.01
220.463	18.71
220.927	18.45
221.392	18.08
221.856	17.79
222.32	17.49
222.785	17.18
223.249	16.98
223.713	16.77
224.177	16.55
224.642	16.38
225.106	16.19
225.57	15.95
226.034	15.73
226.497	15.56
226.961	15.37
227.425	15.16
227.889	14.99
228.353	14.79
228.816	14.62
229.28	14.42
229.744	14.26
230.207	14.06
230.671	13.89
231.134	13.74
231.597	13.57
232.061	13.42
232.524	13.28
232.987	13.13
233.45	12.98
233.914	12.84
234.377	12.71
234.84	12.57
235.303	12.45
235.766	12.31
236.229	12.18
236.691	12.05
237.154	11.92
237.617	11.79
238.08	11.68
238.542	11.57
239.005	11.46
239.468	11.34
239.93	11.24
240.393	11.13
240.855	11.03
241.317	10.94
241.78	10.86
242.242	10.77
242.704	10.68
243.166	10.58
243.629	10.49
244.091	10.38
244.553	10.3
245.015	10.2
245.477	10.11
245.939	10.04
246.4	9.95
246.862	9.86
247.324	9.79
247.786	9.73
248.247	9.66
248.709	9.6
249.17	9.54
249.632	9.48
250.093	9.4
250.555	9.35
251.016	9.29
251.477	9.23
251.939	9.18
252.4	9.12
252.861	9.06
253.322	9
253.783	8.96
254.244	8.92
254.705	8.87
255.166	8.86
255.627	8.82
256.088	8.77
256.549	8.74
257.009	8.7
257.47	8.66
257.931	8.63
258.391	8.57
258.852	8.53
259.312	8.49
259.773	8.45
260.233	8.4
260.694	8.36
261.154	8.33
261.614	8.3
262.074	8.27
262.534	8.21
262.994	8.19
263.455	8.16
263.915	8.13
264.374	8.09
264.834	8.07
265.294	8.04
265.754	8
266.214	7.97
266.673	7.94
267.133	7.91
267.593	7.89
268.052	7.85
268.512	7.82
268.971	7.8
269.431	7.78
269.89	7.75
270.349	7.73
270.809	7.71
271.268	7.7
271.727	7.67
272.186	7.65
272.645	7.64
273.104	7.62
273.563	7.61
274.022	7.59
274.481	7.56
274.94	7.53
275.399	7.51
275.857	7.49
276.316	7.46
276.775	7.43
277.233	7.41
277.692	7.39
278.15	7.36
278.609	7.33
279.067	7.29
279.525	7.27
279.984	7.25
280.442	7.22
280.9	7.21
281.358	7.18
281.816	7.15
282.274	7.12
282.732	7.1
283.19	7.08
283.648	7.07
284.106	7.05
284.564	7.04
285.021	7.02
285.479	7.01
285.937	7
286.394	6.98
286.852	6.97
287.309	6.96
287.767	6.96
288.224	6.95
288.682	6.92
289.139	6.91
289.596	6.89
290.053	6.87
290.511	6.84
290.968	6.81
291.425	6.78
291.882	6.77
292.339	6.75
292.796	6.71
293.252	6.68
293.709	6.66
294.166	6.63
294.623	6.61
295.079	6.6
295.536	6.58
295.992	6.57
296.449	6.56
296.905	6.53
297.362	6.51
297.818	6.5
298.274	6.48
298.731	6.48
299.187	6.46
299.643	6.44
300.099	6.43
300.555	6.41
301.011	6.4
301.467	6.38
301.923	6.37
302.379	6.36
302.835	6.35
303.291	6.34
303.746	6.32
304.202	6.3
304.658	6.28
305.113	6.27
305.569	6.26
306.024	6.25
306.479	6.24
306.935	6.22
307.39	6.21
307.845	6.2
308.301	6.2
308.756	6.19
309.211	6.2
309.666	6.2
310.121	6.18
310.576	6.18
311.031	6.17
311.486	6.17
311.94	6.17
312.395	6.17
312.85	6.15
313.305	6.15
313.759	6.15
314.214	6.13
314.668	6.12
315.123	6.12
315.577	6.11
316.032	6.11
316.486	6.11
316.94	6.09
317.394	6.08
317.849	6.07
318.303	6.06
318.757	6.05
319.211	6.03
319.665	6.02
320.119	6
320.572	6
321.026	5.98
321.48	5.97
321.934	5.96
322.387	5.94
322.841	5.93
323.295	5.91
323.748	5.9
324.202	5.89
324.655	5.88
325.108	5.87
325.562	5.84
326.015	5.83
326.468	5.81
326.921	5.8
327.374	5.79
327.827	5.78
328.28	5.77
328.733	5.76
329.186	5.75
329.639	5.73
330.092	5.74
330.545	5.74
330.997	5.73
331.45	5.72
331.903	5.71
332.355	5.71
332.808	5.71
333.26	5.7
333.713	5.71
334.165	5.71
334.617	5.72
335.069	5.7
335.522	5.7
335.974	5.71
336.426	5.72
336.878	5.72
337.33	5.71
337.782	5.71
338.234	5.71
338.686	5.7
339.137	5.7
339.589	5.69
340.041	5.68
340.493	5.67
340.944	5.67
341.396	5.66
341.847	5.65
342.299	5.64
342.75	5.63
343.201	5.61
343.653	5.59
344.104	5.57
344.555	5.56
345.006	5.56
345.457	5.55
345.908	5.53
346.359	5.52
346.81	5.51
347.261	5.5
347.712	5.5
348.163	5.5
348.613	5.49
349.064	5.47
349.515	5.46
349.965	5.45
350.416	5.44
350.866	5.43
351.317	5.42
351.767	5.43
352.217	5.41
352.668	5.4
353.118	5.4
353.568	5.42
354.018	5.43
354.468	5.44
354.918	5.44
355.368	5.44
355.818	5.44
356.268	5.45
356.718	5.43
357.168	5.44
357.617	5.44
358.067	5.43
358.517	5.41
358.966	5.42
359.416	5.42
359.865	5.42
360.315	5.42
360.764	5.43
361.213	5.43
361.663	5.44
362.112	5.44
362.561	5.45
363.01	5.47
363.459	5.46
363.908	5.45
364.357	5.44
364.806	5.44
365.255	5.44
365.703	5.43
366.152	5.41
366.601	5.43
367.05	5.42
367.498	5.41
367.947	5.41
368.395	5.42
368.844	5.42
369.292	5.43
369.74	5.44
370.189	5.45
370.637	5.46
371.085	5.48
371.533	5.47
371.981	5.49
372.429	5.49
372.877	5.5
373.325	5.5
373.773	5.52
374.221	5.52
374.669	5.52
375.116	5.52
375.564	5.53
376.012	5.54
376.459	5.55
376.907	5.56
377.354	5.57
377.801	5.58
378.249	5.6
378.696	5.61
379.143	5.63
379.591	5.65
380.038	5.68
380.485	5.69
380.932	5.71
381.379	5.72
381.826	5.73
382.273	5.76
382.72	5.79
383.166	5.82
383.613	5.84
384.06	5.86
384.506	5.88
384.953	5.89
385.4	5.92
385.846	5.94
386.292	5.98
386.739	6.01
387.185	6.06
387.631	6.08
388.078	6.1
388.524	6.12
388.97	6.15
389.416	6.17
389.862	6.2
390.308	6.23
390.754	6.27
391.2	6.29
391.645	6.32
392.091	6.34
392.537	6.37
392.983	6.41
393.428	6.45
393.874	6.49
394.319	6.53
394.765	6.55
395.21	6.57
395.655	6.6
396.101	6.64
396.546	6.66
396.991	6.68
397.436	6.69
397.881	6.72
398.326	6.76
398.771	6.79
399.216	6.84
399.661	6.89
400.106	6.94
400.551	6.97
400.995	6.98
401.44	6.99
401.885	7.01
402.329	7.05
402.774	7.05
403.218	7.05
403.663	7.06
404.107	7.06
404.551	7.08
404.995	7.08
405.44	7.09
405.884	7.11
406.328	7.15
406.772	7.17
407.216	7.2
407.66	7.24
408.104	7.25
408.547	7.28
408.991	7.29
409.435	7.3
409.879	7.31
410.322	7.34
410.766	7.35
411.209	7.37
411.653	7.38
412.096	7.37
412.54	7.36
412.983	7.37
413.426	7.37
413.869	7.38
414.312	7.41
414.756	7.42
415.199	7.43
415.642	7.46
416.085	7.48
416.527	7.5
416.97	7.53
417.413	7.55
417.856	7.55
418.298	7.55
418.741	7.55
419.184	7.55
419.626	7.54
420.069	7.54
420.511	7.52
420.953	7.5
421.396	7.5
421.838	7.5
422.28	7.51
422.722	7.53
423.164	7.53
423.606	7.55
424.048	7.54
424.49	7.57
424.932	7.57
425.374	7.59
425.816	7.59
426.258	7.58
426.699	7.54
427.141	7.5
427.582	7.49
428.024	7.49
428.465	7.48
428.907	7.51
429.348	7.5
429.789	7.5
430.231	7.46
430.672	7.46
431.113	7.47
431.554	7.5
431.995	7.53
432.436	7.53
432.877	7.52
433.318	7.51
433.759	7.49
434.2	7.47
434.64	7.48
435.081	7.49
435.522	7.51
435.962	7.52
436.403	7.54
436.843	7.53
437.284	7.55
437.724	7.57
438.164	7.57
438.604	7.59
439.045	7.6
439.485	7.61
439.925	7.63
440.365	7.63
440.805	7.61
441.245	7.59
441.685	7.63
442.125	7.62
442.564	7.65
443.004	7.69
443.444	7.71
443.883	7.74
444.323	7.75
444.762	7.78
445.202	7.82
445.641	7.86
446.081	7.91
446.52	7.91
446.959	7.94
447.398	7.98
447.837	8.01
448.276	8.03
448.716	8.05
449.154	8.11
449.593	8.14
450.032	8.16
450.471	8.2
450.91	8.2
451.349	8.23
451.787	8.24
452.226	8.24
452.664	8.23
453.103	8.22
453.541	8.21
453.98	8.19
454.418	8.18
454.856	8.16
455.295	8.12
455.733	8.12
456.171	8.11
456.609	8.1
457.047	8.09
457.485	8.08
457.923	8.07
458.361	8.06
458.798	8.08
459.236	8.08
459.674	8.08
460.111	8.11
460.549	8.1
460.987	8.1
461.424	8.09
461.862	8.08
462.299	8.06
462.736	8.06
463.173	8.06
463.611	8.03
464.048	8.01
464.485	8.01
464.922	7.98
465.359	7.99
465.796	7.96
466.233	7.98
466.67	7.99
467.106	7.98
467.543	8
467.98	8.01
468.416	8.03
468.853	8.04
469.29	8.06
469.726	8.08
470.162	8.07
470.599	8.09
471.035	8.09
471.471	8.08
471.907	8.11
472.344	8.1
472.78	8.11
473.216	8.1
473.652	8.1
474.088	8.12
474.523	8.11
474.959	8.1
475.395	8.1
475.831	8.1
476.266	8.11
476.702	8.1
477.138	8.09
477.573	8.09
478.008	8.09
478.444	8.09
478.879	8.08
479.314	8.08
479.75	8.08
480.185	8.08
480.62	8.09
481.055	8.1
481.49	8.11
481.925	8.1
482.36	8.09
482.795	8.08
483.229	8.09
483.664	8.09
484.099	8.1
484.534	8.11
484.968	8.11
485.403	8.12
485.837	8.12
486.271	8.11
486.706	8.11
487.14	8.13
487.574	8.14
488.009	8.16
488.443	8.18
488.877	8.2
489.311	8.21
489.745	8.24
490.179	8.26
490.613	8.29
491.046	8.33
491.48	8.38
491.914	8.43
492.348	8.47
492.781	8.51
493.215	8.54
493.648	8.6
494.082	8.67
494.515	8.73
494.948	8.78
495.382	8.85
495.815	8.92
496.248	8.99
496.681	9.06
497.114	9.14
497.547	9.22
497.98	9.32
498.413	9.41
498.846	9.5
499.279	9.61
499.711	9.72
500.144	9.85
500.577	9.96
501.009	10.08
501.442	10.23
501.874	10.37
502.306	10.52
502.739	10.66
503.171	10.82
503.603	11
504.036	11.17
504.468	11.35
504.9	11.54
505.332	11.73
505.764	11.95
506.196	12.16
506.627	12.39
507.059	12.61
507.491	12.87
507.923	13.1
508.354	13.34
508.786	13.58
509.217	13.83
509.649	14.11
510.08	14.4
510.512	14.66
510.943	14.95
511.374	15.23
511.805	15.53
512.237	15.82
512.668	16.13
513.099	16.45
513.53	16.78
513.961	17.12
514.391	17.44
514.822	17.75
515.253	18.08
515.684	18.4
516.114	18.75
516.545	19.08
516.975	19.44
517.406	19.78
517.836	20.11
518.267	20.46
518.697	20.78
519.127	21.12
519.558	21.47
519.988	21.81
520.418	22.15
520.848	22.46
521.278	22.8
521.708	23.03
522.138	23.31
522.567	23.63
522.997	23.92
523.427	24.21
523.857	24.49
524.286	24.76
524.716	25.02
525.145	25.29
525.575	25.53
526.004	25.78
526.433	26.09
526.863	26.36
527.292	26.56
527.721	26.77
528.15	26.97
528.579	27.17
529.008	27.36
529.437	27.55
529.866	27.71
530.295	27.87
530.724	28.06
531.152	28.21
531.581	28.36
532.01	28.49
532.438	28.62
532.867	28.75
533.295	28.88
533.723	29.01
534.152	29.1
534.58	29.21
535.008	29.29
535.436	29.35
535.865	29.42
536.293	29.48
536.721	29.56
537.149	29.63
537.576	29.71
538.004	29.74
538.432	29.78
538.86	29.83
539.287	29.86
539.715	29.93
540.143	29.96
540.57	30.02
540.998	30.07
541.425	30.12
541.852	30.17
542.28	30.19
542.707	30.24
543.134	30.28
543.561	30.31
543.988	30.36
544.415	30.36
544.842	30.41
545.269	30.43
545.696	30.46
546.123	30.48
546.549	30.51
546.976	30.57
547.403	30.6
547.829	30.63
548.256	30.67
548.682	30.67
549.108	30.72
549.535	30.75
549.961	30.76
550.387	30.76
550.813	30.76
551.24	30.75
551.666	30.76
552.092	30.74
552.518	30.72
552.943	30.72
553.369	30.73
553.795	30.7
554.221	30.68
554.646	30.66
555.072	30.61
555.498	30.61
555.923	30.56
556.349	30.49
556.774	30.45
557.199	30.4
557.625	30.31
558.05	30.24
558.475	30.15
558.9	30.06
559.325	29.97
559.75	29.88
560.175	29.76
560.6	29.65
561.025	29.55
561.449	29.43
561.874	29.33
562.299	29.22
562.723	29.09
563.148	28.96
563.572	28.84
563.997	28.69
564.421	28.54
564.846	28.39
565.27	28.24
565.694	28.07
566.118	27.89
566.542	27.71
566.966	27.53
567.39	27.34
567.814	27.17
568.238	26.96
568.662	26.78
569.086	26.61
569.509	26.42
569.933	26.22
570.357	26.01
570.78	25.83
571.204	25.63
571.627	25.44
572.05	25.28
572.474	25.1
572.897	24.93
573.32	24.76
573.743	24.61
574.166	24.45
574.589	24.31
575.012	24.2
575.435	24.04
575.858	23.93
576.281	23.8
576.704	23.68
577.126	23.55
577.549	23.45
577.972	23.35
578.394	23.21
578.817	23.09
579.239	22.98
579.661	22.89
580.084	22.8
580.506	22.71
580.928	22.62
581.35	22.5
581.772	22.44
582.194	22.34
582.616	22.24
583.038	22.18
583.46	22.13
583.882	22.05
584.303	21.96
584.725	21.89
585.147	21.8
585.568	21.74
585.99	21.68
586.411	21.6
586.833	21.54
587.254	21.46
587.675	21.39
588.096	21.32
588.518	21.25
588.939	21.2
589.36	21.12
589.781	21.07
590.202	21.01
590.623	20.95
591.043	20.89
591.464	20.82
591.885	20.8
592.305	20.75
592.726	20.69
593.147	20.65
593.567	20.61
593.987	20.59
594.408	20.53
594.828	20.49
595.248	20.45
595.669	20.42
596.089	20.4
596.509	20.34
596.929	20.28
597.349	20.23
597.769	20.19
598.189	20.15
598.608	20.08
599.028	20.03
599.448	19.98
599.867	19.93
600.287	19.86
600.706	19.8
601.126	19.74
601.545	19.69
601.965	19.64
602.384	19.58
602.803	19.51
603.222	19.45
603.641	19.4
604.061	19.34
604.48	19.27
604.898	19.2
605.317	19.13
605.736	19.06
606.155	18.97
606.574	18.89
606.992	18.8
607.411	18.73
607.829	18.6
608.248	18.5
608.666	18.39
609.085	18.31
609.503	18.22
609.921	18.12
610.339	18.04
610.758	17.97
611.176	17.89
611.594	17.8
612.012	17.69
612.43	17.64
612.847	17.56
613.265	17.49
613.683	17.41
614.101	17.33
614.518	17.25
614.936	17.17
615.353	17.08
615.771	17
616.188	16.94
616.606	16.87
617.023	16.8
617.44	16.75
617.857	16.69
618.274	16.63
618.691	16.58
619.108	16.52
619.525	16.47
619.942	16.43
620.359	16.39
620.776	16.34
621.192	16.32
621.609	16.28
622.026	16.23
622.442	16.21
622.859	16.18
623.275	16.17
623.691	16.15
624.108	16.14
624.524	16.12
624.94	16.11
625.356	16.1
625.772	16.08
626.188	16.09
626.604	16.08
627.02	16.05
627.436	16.02
627.852	15.99
628.268	15.98
628.683	15.95
629.099	15.93
629.514	15.9
629.93	15.86
630.345	15.81
630.761	15.74
631.176	15.7
631.591	15.65
632.007	15.6
632.422	15.55
632.837	15.48
633.252	15.41
633.667	15.31
634.082	15.22
634.497	15.12
634.911	15.02
635.326	14.92
635.741	14.79
636.155	14.66
636.57	14.53
636.984	14.36
637.399	14.19
637.813	14.04
638.228	13.88
638.642	13.74
639.056	13.58
639.47	13.43
639.884	13.27
640.298	13.12
640.712	12.96
641.126	12.81
641.54	12.67
641.954	12.55
642.368	12.38
642.781	12.25
643.195	12.09
643.609	11.94
644.022	11.79
644.436	11.66
644.849	11.53
645.262	11.42
645.676	11.29
646.089	11.19
646.502	11.08
646.915	10.99
647.328	10.91
647.741	10.82
648.154	10.77
648.567	10.72
648.98	10.66
649.393	10.61
649.805	10.54
650.218	10.5
650.631	10.44
651.043	10.39
651.456	10.36
651.868	10.33
652.28	10.3
652.693	10.25
653.105	10.21
653.517	10.17
653.929	10.13
654.341	10.09
654.753	10.03
655.165	9.98
655.577	9.91
655.989	9.83
656.401	9.75
656.813	9.66
657.224	9.58
657.636	9.49
658.047	9.4
658.459	9.31
658.87	9.24
659.282	9.16
659.693	9.07
660.104	9
660.515	8.92
660.926	8.84
661.338	8.76
661.749	8.68
662.159	8.58
662.57	8.51
662.981	8.44
663.392	8.36
663.803	8.29
664.213	8.23
664.624	8.18
665.035	8.12
665.445	8.09
665.855	8.04
666.266	8.01
666.676	7.98
667.086	7.94
667.497	7.91
667.907	7.87
668.317	7.84
668.727	7.82
669.137	7.79
669.547	7.78
669.956	7.76
670.366	7.76
670.776	7.76
671.186	7.77
671.595	7.78
672.005	7.79
672.414	7.81
672.824	7.84
673.233	7.87
673.642	7.87
674.052	7.89
674.461	7.92
674.87	7.95
675.279	7.97
675.688	8
676.097	8.03
676.506	8.08
676.915	8.12
677.323	8.16
677.732	8.21
678.141	8.27
678.549	8.34
678.958	8.42
679.366	8.49
679.775	8.57
680.183	8.65
680.592	8.73
681	8.83
681.408	8.95
681.816	9.07
682.224	9.21
682.632	9.38
683.04	9.52
683.448	9.7
683.856	9.91
684.264	10.14
684.671	10.4
685.079	10.67
685.487	10.98
685.894	11.29
686.302	11.63
686.709	11.98
687.116	12.37
687.524	12.79
687.931	13.24
688.338	13.72
688.745	14.22
689.152	14.74
689.559	15.29
689.966	15.85
690.373	16.46
690.78	17.09
691.187	17.75
691.593	18.42
692	19.08
692.407	19.79
692.813	20.48
693.22	21.17
693.626	21.88
694.032	22.59
694.439	23.35
694.845	24.03
695.251	24.75
695.657	25.46
696.063	26.2
696.469	26.93
696.875	27.6
697.281	28.29
697.687	28.99
698.093	29.66
698.498	30.36
698.904	31
699.31	31.67
699.715	32.31
700.12	32.93
700.526	33.55
700.931	34.12
701.337	34.73
701.742	35.32
702.147	35.92
702.552	36.49
702.957	37.03
703.362	37.59
703.767	38.11
704.172	38.65
704.577	39.17
704.981	39.64
705.386	40.15
705.791	40.63
706.195	41.08
706.6	41.54
707.004	41.99
707.408	42.43
707.813	42.85
708.217	43.3
708.621	43.72
709.025	44.14
709.43	44.56
709.834	44.98
710.237	45.37
710.641	45.79
711.045	46.17
711.449	46.55
711.853	46.89
712.256	47.28
712.66	47.61
713.064	47.94
713.467	48.29
713.87	48.63
714.274	48.93
714.677	49.26
715.08	49.54
715.484	49.83
715.887	50.14
716.29	50.47
716.693	50.77
717.096	51.08
717.499	51.37
717.901	51.62
718.304	51.91
718.707	52.19
719.109	52.48
719.512	52.77
719.915	53.06
720.317	53.32
720.719	53.54
721.122	53.74
721.524	53.98
721.926	54.21
722.328	54.46
722.731	54.66
723.133	54.86
723.535	55.02
723.937	55.2
724.338	55.36
724.74	55.53
725.142	55.6
725.544	55.78
725.945	55.91
726.347	56.08
726.748	56.22
727.15	56.36
727.551	56.49
727.952	56.68
728.354	56.83
728.755	56.97
729.156	57.13
729.557	57.39
729.958	57.52
730.359	57.64
730.76	57.72
731.161	57.81
731.562	57.93
731.962	58.04
732.363	58.08
732.763	58.18
733.164	58.27
733.564	58.32
733.965	58.36
734.365	58.4
734.766	58.47
735.166	58.52
735.566	58.57
735.966	58.63
736.366	58.65
736.766	58.71
737.166	58.74
737.566	58.77
737.966	58.81
738.365	58.87
738.765	58.93
739.165	58.94
739.564	59
739.964	59.03
740.363	59.05
740.763	59.07
741.162	59.08
741.561	59.14
741.96	59.19
742.36	59.25
742.759	59.25
743.158	59.23
743.557	59.29
743.955	59.39
744.354	59.46
744.753	59.53
745.152	59.6
745.55	59.64
745.949	59.65
746.348	59.68
746.746	59.68
747.144	59.76
747.543	59.88
747.941	59.96
748.339	59.95
748.737	60
749.136	60.04
749.534	60.09
749.932	60.13
750.33	60.16
750.727	60.18
751.125	60.21
751.523	60.2
751.921	60.19
752.318	60.14
752.716	60.12
753.113	60.09
753.511	60.05
753.908	60.03
754.305	59.97
754.703	59.94
755.1	59.91
755.497	59.9
755.894	59.91
756.291	59.89
756.688	59.88
757.085	59.88
757.482	59.87
757.878	59.86
758.275	59.86
758.672	59.87
759.068	59.9
759.465	59.88
759.861	59.84
760.258	59.77
760.654	59.72
761.05	59.7
761.447	59.67
761.843	59.65
762.239	59.62
762.635	59.6
763.031	59.63
763.427	59.58
763.822	59.56
764.218	59.55
764.614	59.56
765.01	59.59
765.405	59.58
765.801	59.58
766.196	59.57
766.592	59.57
766.987	59.56
767.382	59.53
767.778	59.53
768.173	59.53
768.568	59.52
768.963	59.49
769.358	59.47
769.753	59.49
770.148	59.48
770.542	59.46
770.937	59.41
771.332	59.42
771.726	59.41
772.121	59.37
772.515	59.39
772.91	59.4
773.304	59.43
773.699	59.45
774.093	59.42
774.487	59.41
774.881	59.42
775.275	59.47
775.669	59.45
776.063	59.38
776.457	59.39
776.851	59.34
777.245	59.34
777.638	59.31
778.032	59.27
778.425	59.27
778.819	59.27
779.212	59.26
779.606	59.24
779.999	59.22
780.392	59.25
780.786	59.28
781.179	59.3
781.572	59.31
781.965	59.33
782.358	59.31
782.751	59.28
783.143	59.26
783.536	59.29
783.929	59.29
784.322	59.32
784.714	59.33
785.107	59.36
785.499	59.38
785.891	59.34
786.284	59.34
786.676	59.39
787.068	59.44
787.46	59.47
787.852	59.46
788.245	59.47
788.636	59.44
789.028	59.44
789.42	59.4
789.812	59.43
790.204	59.44
790.595	59.42
790.987	59.4
791.378	59.41
791.77	59.44
792.161	59.43
792.553	59.48
792.944	59.54
793.335	59.55
793.726	59.53
794.117	59.49
794.508	59.48
794.899	59.52
795.29	59.53
795.681	59.56
796.072	59.53
796.463	59.52
796.853	59.53
797.244	59.51
797.634	59.52
798.025	59.55
798.415	59.6
798.806	59.62
799.196	59.61
799.586	59.63
799.976	59.63
800.366	59.65
800.756	59.68
801.146	59.68
801.536	59.66
801.926	59.67
802.316	59.69
802.706	59.71
803.095	59.74
803.485	59.79
803.874	59.84
804.264	59.85
804.653	59.84
805.043	59.87
805.432	59.84
805.821	59.85
806.21	59.87
806.599	59.93
806.988	59.92
807.377	59.93
807.766	59.94
808.155	59.95
808.544	59.94
808.933	59.96
809.321	59.98
809.71	60.03
810.098	60.09
810.487	60.11
810.875	60.1
811.264	60.13
811.652	60.13
812.04	60.14
812.428	60.17
812.816	60.2
813.204	60.24
813.592	60.25
813.98	60.25
814.368	60.25
814.756	60.27
815.144	60.29
815.531	60.32
815.919	60.34
816.306	60.32
816.694	60.33
817.081	60.34
817.469	60.36
817.856	60.44
818.243	60.46
818.63	60.5
819.017	60.52
819.404	60.53
819.791	60.53
820.178	60.55
820.565	60.59
820.952	60.58
821.339	60.6
821.725	60.61
822.112	60.58
822.498	60.59
822.885	60.61
823.271	60.63
823.657	60.65
824.044	60.64
824.43	60.66
824.816	60.66
825.202	60.65
825.588	60.65
825.974	60.61
826.36	60.58
826.746	60.6
827.132	60.59
827.517	60.57
827.903	60.59
828.289	60.58
828.674	60.57
829.06	60.57
829.445	60.61
829.83	60.62
830.216	60.66
830.601	60.67
830.986	60.65
831.371	60.66
831.756	60.62
832.141	60.61
832.526	60.62
832.911	60.63
833.295	60.65
833.68	60.62
834.065	60.63
834.449	60.6
834.834	60.59
835.218	60.56
835.603	60.51
835.987	60.53
836.371	60.52
836.755	60.53
837.139	60.49
837.524	60.47
837.908	60.42
838.291	60.38
838.675	60.36
839.059	60.35
839.443	60.36
839.827	60.37
840.21	60.36
840.594	60.32
840.977	60.3
841.361	60.31
841.744	60.33
842.127	60.36
842.511	60.34
842.894	60.36
843.277	60.37
843.66	60.38
844.043	60.37
844.426	60.36
844.809	60.37
845.191	60.36
845.574	60.35
845.957	60.3
846.339	60.28
846.722	60.29
847.104	60.29
847.487	60.3
847.869	60.27
848.252	60.26
848.634	60.3
849.016	60.31
849.398	60.29
849.78	60.3
850.162	60.3
850.544	60.33
850.926	60.33
851.307	60.31
851.689	60.25
852.071	60.25
852.452	60.26
852.834	60.24
853.215	60.23
853.597	60.27
853.978	60.25
854.359	60.21
854.741	60.2
855.122	60.18
855.503	60.21
855.884	60.24
856.265	60.22
856.646	60.2
857.026	60.19
857.407	60.16
857.788	60.14
858.169	60.16
858.549	60.22
858.93	60.21
859.31	60.22
859.69	60.21
860.071	60.19
860.451	60.21
860.831	60.22
861.211	60.23
861.591	60.28
861.971	60.25
862.351	60.26
862.731	60.26
863.111	60.25
863.491	60.25
863.87	60.25
864.25	60.28
864.629	60.27
865.009	60.28
865.388	60.28
865.768	60.26
866.147	60.3
866.526	60.28
866.905	60.27
867.284	60.3
867.663	60.28
868.042	60.29
868.421	60.26
868.8	60.23
869.179	60.2
869.558	60.21
869.936	60.19
870.315	60.19
870.693	60.2
871.072	60.15
871.45	60.1
871.828	60.09
872.207	60.09
872.585	60.1
872.963	60.11
873.341	60.12
873.719	60.09
874.097	60.11
874.475	60.09
874.853	60.06
875.23	60.08
875.608	60.13
875.986	60.13
876.363	60.14
876.741	60.12
877.118	60.09
877.495	60.09
877.873	60.07
878.25	60.03
878.627	60.05
879.004	60.08
879.381	60.08
879.758	60.04
880.135	60.05
880.512	60.04
880.889	60.07
881.265	60.14
881.642	60.13
882.019	60.16
882.395	60.19
882.772	60.16
883.148	60.13
883.524	60.14
883.901	60.11
884.277	60.08
884.653	60.11
885.029	60.08
885.405	60.03
885.781	60.02
886.157	60.03
886.532	60.02
886.908	60.06
887.284	60.09
887.659	60.11
888.035	60.14
888.411	60.14
888.786	60.08
889.161	60.11
889.537	60.12
889.912	60.08
890.287	60.03
890.662	60.02
891.037	59.95
891.412	59.88
891.787	59.85
892.162	59.85
892.536	59.83
892.911	59.81
893.286	59.73
893.66	59.69
894.035	59.7
894.409	59.7
894.784	59.66
895.158	59.65
895.532	59.65
895.906	59.59
896.281	59.54
896.655	59.51
897.029	59.49
897.402	59.49
897.776	59.5
898.15	59.47
898.524	59.46
898.898	59.44
899.271	59.43
899.645	59.43
900.018	59.46
900.392	59.46
900.765	59.46
901.138	59.49
901.511	59.49
901.884	59.49
902.258	59.49
902.631	59.48
903.003	59.46
903.376	59.42
903.749	59.42
904.122	59.42
904.495	59.44
904.867	59.41
905.24	59.37
905.612	59.37
905.985	59.35
906.357	59.3
906.729	59.27
907.102	59.28
907.474	59.31
907.846	59.28
908.218	59.24
908.59	59.18
908.962	59.16
909.334	59.15
909.705	59.11
910.077	59.04
910.449	59.05
910.82	59.01
911.192	58.99
911.563	58.96
911.935	58.95
912.306	58.93
912.677	58.9
913.048	58.87
913.419	58.85
913.79	58.84
914.161	58.87
914.532	58.86
914.903	58.87
915.274	58.84
915.645	58.85
916.015	58.83
916.386	58.83
916.756	58.82
917.127	58.85
917.497	58.86
917.868	58.86
918.238	58.84
918.608	58.86
918.978	58.85
919.348	58.83
919.718	58.77
920.088	58.78
920.458	58.77
920.828	58.8
921.198	58.75
921.567	58.71
921.937	58.7
922.306	58.69
922.676	58.65
923.045	58.59
923.415	58.59
923.784	58.61
924.153	58.61
924.522	58.58
924.891	58.53
925.26	58.56
925.629	58.57
925.998	58.52
926.367	58.5
926.736	58.45
927.104	58.44
927.473	58.45
927.842	58.42
928.21	58.43
928.578	58.4
928.947	58.39
929.315	58.34
929.683	58.33
930.051	58.3
930.42	58.24
930.788	58.23
931.156	58.2
931.523	58.11
931.891	57.99
932.259	57.82
932.627	57.66
932.994	57.59
933.362	57.47
933.729	57.27
934.097	57.2
934.464	57.1
934.831	56.97
935.199	56.85
935.566	56.7
935.933	56.64
936.3	56.55
936.667	56.55
937.034	56.42
937.401	56.3
937.767	56.32
938.134	56.22
938.501	56.18
938.867	56.18
939.234	56.21
939.6	56.27
939.967	56.28
940.333	56.42
940.699	56.48
941.065	56.64
941.431	56.79
941.798	56.88
942.163	57.07
942.529	57.2
942.895	57.36
943.261	57.44
943.627	57.62
943.992	57.68
944.358	57.71
944.723	57.75
945.089	57.8
945.454	57.9
945.82	57.91
946.185	57.95
946.55	58.03
946.915	58.02
947.28	58.02
947.645	57.99
948.01	58.06
948.375	58.17
948.74	58.15
949.104	58.18
949.469	58.06
949.834	58.08
950.198	57.95
950.562	57.84
950.927	57.89
951.291	57.9
951.655	57.89
952.02	57.82
952.384	57.7
952.748	57.68
953.112	57.53
953.476	57.6
953.839	57.56
954.203	57.55
954.567	57.57
954.931	57.46
955.294	57.41
955.658	57.33
956.021	57.28
956.385	57.25
956.748	57.22
957.111	57.19
957.474	57.12
957.837	57.09
958.2	57.05
958.563	56.96
958.926	56.92
959.289	56.9
959.652	56.83
960.015	56.79
960.377	56.71
960.74	56.65
961.102	56.61
961.465	56.56
961.827	56.36
962.189	56.31
962.552	56.27
962.914	56.25
963.276	56.19
963.638	56.26
964	56.26
964.362	56.24
964.724	56.23
965.085	56.26
965.447	56.17
965.809	56.19
966.17	56.23
966.532	56.26
966.893	56.24
967.255	56.21
967.616	56.13
967.977	56.07
968.338	56
968.699	55.94
969.061	55.86
969.421	55.86
969.782	55.88
970.143	55.79
970.504	55.69
970.865	55.61
971.225	55.52
971.586	55.54
971.946	55.53
972.307	55.53
972.667	55.62
973.027	55.6
973.388	55.59
973.748	55.59
974.108	55.55
974.468	55.52
974.828	55.53
975.188	55.64
975.548	55.58
975.907	55.58
976.267	55.66
976.627	55.58
976.986	55.63
977.346	55.63
977.705	55.67
978.064	55.66
978.424	55.67
978.783	55.68
979.142	55.55
979.501	55.48
979.86	55.4
980.219	55.26
980.578	55.15
980.937	55.11
981.296	55.11
981.654	55.12
982.013	55.11
982.371	55.12
982.73	55.02
983.088	55.04
983.447	55.02
983.805	55.05
984.163	55.06
984.521	55.12
984.879	55.07
985.237	54.97
985.595	54.93
985.953	54.94
986.311	54.97
986.669	55.04
987.026	55
987.384	55.01
987.741	55.12
988.099	55.1
988.456	55.09
988.814	55.13
989.171	55.22
989.528	55.09
989.885	55.08
990.242	55.04
990.599	54.91
990.956	54.95
991.313	54.98
991.67	54.97
992.027	54.99
992.383	55.11
992.74	54.97
993.096	54.82
993.453	54.87
993.809	54.9
994.165	54.88
994.522	54.82
994.878	54.78
995.234	54.66
995.59	54.38
995.946	54.37
996.302	54.04
996.658	54.08
997.013	54.04
997.369	54.04
997.725	53.97
998.08	53.88
998.436	54.11
998.791	53.86
999.147	53.95
999.502	54.1
999.857	54.04
1000.212	54.17
1000.567	54.26
1000.922	54.46
1001.277	54.31
1001.632	54.35
1001.987	54.32
1002.342	54.15
1002.696	54.35
1003.051	54.19
1003.406	54.07
1003.76	54.12
1004.114	54.17
1004.469	53.94
1004.823	53.77
1005.177	54.03
1005.531	53.99
1005.885	53.94
1006.239	53.89
1006.593	53.78
1006.947	53.61
1007.301	53.58
1007.655	53.5
1008.008	53.21
1008.362	53.2
1008.715	53.18
1009.069	52.88
1009.422	52.71
1009.776	52.66
1010.129	52.55
1010.482	52.57
1010.835	52.62
1011.188	52.55
1011.541	52.19
1011.894	52.24
1012.247	52.29
1012.6	52.38
1012.952	52.52
1013.305	52.51
1013.657	52.52
1014.01	52.45
1014.362	52.56
1014.715	52.52
1015.067	52.64
1015.419	52.98
1015.771	53.18
1016.123	52.97
1016.475	52.85
1016.827	52.7
1017.179	52.54
1017.531	52.46
1017.883	52.48
1018.234	52.17
1018.586	52.14
1018.938	51.73
1019.289	51.39
1019.64	51.5
1019.992	51.49
1020.343	51.22
1020.694	51.04
1021.045	51.19
1021.396	51.08
1021.747	51.07
1022.098	51.16
1022.449	51.03
1022.8	51.02
1023.151	50.88
1023.501	50.47
1023.852	50.45
1024.202	50.42
1024.553	50.38
1024.903	50.37
1025.253	50.3
1025.604	50.35
1025.954	50.02
1026.304	50.64
1026.654	50.88
1027.004	51.15
1027.354	51
1027.703	51.01
1028.053	50.98
1028.403	50.58
1028.753	50.58
1029.102	50.71
1029.452	50.62
1029.801	51.05
1030.15	50.61
1030.499	50.57
897.758	190.09
901.051	191.96
904.343	195.88
907.636	190.85
910.928	190.39
914.22	191.75
917.511	187.67
920.803	184.32
924.094	175.83
927.384	180.38
930.675	176.64
933.965	172.06
937.255	173.85
940.544	165.95
943.834	156.15
947.123	153.72
950.411	149.39
953.7	149.56
956.988	145.37
960.276	141.49
963.563	141.99
966.851	135.07
970.138	133.2
973.424	125.21
976.711	123.72
979.997	126.46
983.283	122.32
986.568	119.6
989.853	116.37
993.138	112.85
996.423	113.36
999.708	110.3
1002.992	109.98
1006.275	107.07
1009.559	107.43
1012.842	106.33
1016.125	101.99
1019.408	101.44
1022.69	102.19
1025.972	102.16
1029.254	101.03
1032.536	99.47
1035.817	96.25
1039.098	96.31
1042.379	96.25
1045.659	95.44
1048.939	94.39
1052.219	94.7
1055.498	93.44
1058.778	91.61
1062.057	90.32
1065.335	90.06
1068.614	88.64
1071.892	87.98
1075.17	87.26
1078.447	86.36
1081.724	85.44
1085.001	83.22
1088.278	84.32
1091.554	83.82
1094.83	83.74
1098.106	83.67
1101.382	83.15
1104.657	82.82
1107.932	83.23
1111.206	82.64
1114.481	82.26
1117.755	80.91
1121.029	82.07
1124.302	79.91
1127.575	80.13
1130.848	79.21
1134.121	77.5
1137.393	77.3
1140.665	77.27
1143.937	76.14
1147.208	75.01
1150.48	74.45
1153.75	74.65
1157.021	74.2
1160.291	74.08
1163.561	73.38
1166.831	73.14
1170.101	73.87
1173.37	72.82
1176.639	72.28
1179.907	72.11
1183.176	72.42
1186.444	72.28
1189.711	72.2
1192.979	71.63
1196.246	72.54
1199.513	72.3
1202.78	72.19
1206.046	71.84
1209.312	72.96
1212.578	73.18
1215.843	74.37
1219.108	74.09
1222.373	74.95
1225.638	75.89
1228.902	77.55
1232.166	77.46
1235.43	78.06
1238.693	79.52
1241.956	80.42
1245.219	81.36
1248.482	82.52
1251.744	82.51
1255.006	83.16
1258.268	81.24
1261.529	81.12
1264.79	80.6
1268.051	79.78
1271.312	79.52
1274.572	78.47
1277.832	77.29
1281.092	76.34
1284.351	74.75
1287.61	74.69
1290.869	74.63
1294.128	74.78
1297.386	73.81
1300.644	73.35
1303.902	72.75
1307.159	71.88
1310.416	72.04
1313.673	73.15
1316.93	73.32
1320.186	74.39
1323.442	74.18
1326.697	74.15
1329.953	73.82
1333.208	75.63
1336.463	76.51
1339.717	78.15
1342.972	80.18
1346.226	82.34
1349.479	81.07
1352.733	83.16
1355.986	82.98
1359.238	84.48
1362.491	85
1365.743	86.74
1368.995	88.82
1372.247	88.27
1375.498	86.32
1378.749	88.23
1382	85.95
1385.251	85.47
1388.501	85.61
1391.751	86.19
1395	84.21
1398.25	84.29
1401.499	84.32
1404.748	80.23
1407.996	78.8
1411.244	78.92
1414.492	77.72
1417.74	75.68
1420.987	73.91
1424.234	72.29
1427.481	68.94
1430.728	67.28
1433.974	65.31
1437.22	64.04
1440.465	62.13
1443.711	60.59
1446.956	59.05
1450.201	56.77
1453.445	54.3
1456.689	53.79
1459.933	52.63
1463.177	50.39
1466.42	50.87
1469.663	49.36
1472.906	47.82
1476.148	46.17
1479.391	46.18
1482.633	45.57
1485.874	45.6
1489.115	46.19
1492.356	45.9
1495.597	44.68
1498.838	46.43
1502.078	45.6
1505.318	45.93
1508.557	45.67
1511.797	46.93
1515.036	47.08
1518.274	47.3
1521.513	47.8
1524.751	47.1
1527.989	47.59
1531.227	48.13
1534.464	48.11
1537.701	47.88
1540.938	47.74
1544.174	48.31
1547.41	48.38
1550.646	48.34
1553.882	48.53
1557.117	48.37
1560.352	49.08
1563.587	48.75
1566.821	48.97
1570.055	48.97
1573.289	49.75
1576.523	50.08
1579.756	49.67
1582.989	50.56
1586.222	50.19
1589.454	51.01
1592.686	51.26
1595.918	50.9
1599.15	51.38
1602.381	51.06
1605.612	51.54
1608.843	51.14
1612.073	51.36
1615.303	52.11
1618.533	51.18
1621.762	51.37
1624.992	50.75
1628.221	50.47
1631.449	50.91
1634.678	51.47
1637.906	51.83
1641.134	51.67
1644.361	51.75
1647.588	52.02
1650.815	52.09
1654.042	52.28
1657.269	52.78
1660.495	53.14
1663.72	52.79
1666.946	53.31
1670.171	53.07
1673.396	53.26
1676.621	52.97
1679.845	53.68
1683.069	52.81
1686.293	52.83
1689.517	53.26
1692.74	53.02
1695.963	53.06
1699.185	53.73
1702.408	52.28
1705.63	52.25
1708.852	52.47
1712.073	52.57
1715.294	52.02
1718.515	53.4
1721.736	53
1724.956	52.8
1728.176	52.69
1731.396	52.59
1734.616	52.34
1737.835	53.13
1741.054	52.95
1744.272	52.55
1747.491	52.75
1750.709	52.48
1753.927	51.83
1757.144	52.13
1760.361	51.76
1763.578	52.08
1766.795	52.12
1770.011	52.42
1773.227	52.52
1776.443	52.48
1779.658	52.07
1782.874	52.3
1786.089	51.78
1789.303	51.56
1792.518	52.03
1795.732	52.34
1798.945	52.61
1802.159	52.67
1805.372	52.48
1808.585	52.83
1811.797	52.88
1815.01	53.86
1818.222	53.38
1821.434	54.82
1824.645	54.33
1827.856	54.3
1831.067	54.16
1834.278	54.39
1837.488	54.33
1840.698	54.87
1843.908	54.41
1847.117	54.56
1850.326	54.5
1853.535	55.29
1856.744	54.08
1859.952	54.84
1863.16	54.3
1866.368	53.33
1869.575	52.47
1872.782	51.24
1875.989	49.38
1879.196	48.5
1882.402	47.04
1885.608	46.83
1888.814	44.66
1892.019	44.25
1895.224	42.71
1898.429	42.29
1901.634	41.83
1904.838	41.67
1908.042	41.8
1911.246	41.25
1914.449	41.39
1917.652	41.54
1920.855	40.71
1924.058	40.45
1927.26	39.72
1930.462	40.71
1933.664	39.57
1936.865	40.65
1940.066	38.76
1943.267	38.24
1946.467	39.23
1949.668	39.33
1952.868	39.4
1956.067	39.34
1959.267	40.03
1962.466	40.61
1965.665	39.35
1968.863	40.91
1972.061	40.76
1975.259	43.18
1978.457	43.61
1981.654	43.62
1984.852	44.21
1988.048	44.95
1991.245	45.17
1994.441	46.83
1997.637	47.74
2000.833	49.77
2004.028	49.57
2007.223	50.27
2010.418	50.57
2013.613	52.95
2016.807	54.39
2020.001	55.59
2023.194	57.79
2026.388	59.32
2029.581	62.31
2032.774	63.74
2035.966	65.16
2039.158	67.27
2042.35	67.93
2045.542	70.11
2048.733	73.53
2051.924	72.16
2055.115	72.46
2058.306	72.69
2061.496	73.45
2064.686	74.1
2067.875	73.24
2071.065	75.48
2074.254	75.03
2077.442	77.32
2080.631	77.25
2083.819	76.78
2087.007	83.08
2090.195	83.18
2093.382	83.05
2096.569	85.29
2099.756	83.5
2102.942	86.08
2106.128	86.19
2109.314	88.57
2112.5	88.76
2115.685	86.18
2118.87	86.36
2122.055	84.36
2125.239	86.22
2128.424	90.15
2131.608	88.08
2134.791	87.27
2137.974	88.65
2141.157	90.08
2144.34	89.92
2147.523	93.82
2150.705	96.96
2153.887	97.29
2157.068	97.88
2160.25	99.64
2163.431	98.83
2166.611	101.05
2169.792	104.3
2172.972	106.2
2176.152	105.2
2179.331	107.41
2182.511	105.7
2185.69	108.16
2188.868	107.69
2192.047	111.18
2195.225	115.15
2198.403	110.42
2201.58	110.45
2204.758	115.38
2207.935	113
2211.111	115.15
2214.288	115.67
2217.464	118.88
2220.64	119.05
2223.815	120.38
2226.991	119.38
2230.166	119.39
2233.34	125.14
2236.515	122.9
2239.689	117.04
2242.863	119.62
2246.036	118.52
2249.209	121.38
2252.382	117.93
2255.555	122.76
2258.727	125.49
2261.9	123.3
2265.071	123.12
2268.243	126.42
2271.414	135.3
2274.585	139.43
2277.756	140
2280.926	144.78
2284.096	142.75
2287.266	146.48
2290.436	143.99
2293.605	146.82
2296.774	157
2299.942	154.49
2303.111	156.14
2306.279	160.58
2309.447	162.72
2312.614	164.9
2315.781	165.36
2318.948	167.44
2322.115	169.47
2325.281	176.09
2328.447	173.46
2331.613	171.36
2334.779	177.87
2337.944	178.45
2341.109	178.13
2344.274	178.26
2347.438	178.68
2350.602	185.79
2353.766	198.35
2356.929	196.78
2360.092	205.62
2363.255	207.15
2366.418	212.66
2369.58	211.72
2372.742	212.11
2375.904	213.74
2379.066	219.58
2382.227	232.46
2385.388	224.22
2388.548	216.23
2391.709	219.28
2394.869	213.2
2398.029	218.01
2401.188	212.26
2404.347	219.36
2407.506	227.52
2410.665	217.25
2413.823	224.62
2416.981	226.69
2420.139	226.78
2423.296	234.93
2426.453	246.32
2429.61	241.39
2432.767	253.93
2435.923	270.71
2439.079	269.14
2442.235	269.43
2445.391	281.69
2448.546	266.96
2451.701	276.93
2454.855	286.83
2458.009	272.95
2461.163	275.75
2464.317	281.8
2467.471	276.05
2470.624	281.75
2473.777	264.69
2476.929	266.6
2480.082	270.13
2483.234	291.16
2486.385	292.1
2489.537	298.97
2492.688	315.37
2495.839	301.44
2498.989	301.48
2502.14	302.23
2505.29	290.78
2508.439	320.33
2511.589	322.96
2514.738	321.58
2517.887	315.77
2521.035	305.31
2524.183	304.32
2527.331	301.59
2530.479	305.49
2533.627	309.66
