Data from C_2_div_pa_2n_086_Splice17_08.txt Node
Date: Sat Feb 29 14:16:11 EST 2020
User: sa697716
Spectrometer: FLMS03696
Trigger mode: 0
Integration Time (sec): 3.180400E-1
Scans to average: 20
Electric dark correction enabled: true
Nonlinearity correction enabled: true
Boxcar width: 5
XAxis mode: Wavelengths
Number of Pixels in Spectrum: 2048
>>>>>Begin Spectral Data<<<<<
187.83	57.05
188.298	58
188.766	56.86
189.233	59.77
189.701	64.03
190.169	59.58
190.636	59.64
191.104	19.98
191.571	87.78
192.039	236.08
192.506	-293.99
192.974	6691.78
193.441	-357.35
193.908	73.76
194.375	129.49
194.842	208.48
195.31	73.53
195.777	36.74
196.244	18.33
196.711	41.38
197.177	41.08
197.644	40.97
198.111	41.12
198.578	42.92
199.045	43.74
199.511	44.55
199.978	44.54
200.445	44.72
200.911	45.02
201.378	44.99
201.844	45.54
202.31	46.16
202.777	46.87
203.243	47.09
203.709	47.17
204.176	47.26
204.642	46.89
205.108	46.84
205.574	47.29
206.04	47.48
206.506	47.62
206.972	47.32
207.438	47.18
207.903	47.04
208.369	46.19
208.835	46.04
209.301	45.81
209.766	45.29
210.232	44.74
210.697	44.15
211.163	43.57
211.628	43.1
212.094	42.29
212.559	41.45
213.024	40.81
213.49	40.47
213.955	39.77
214.42	39
214.885	38.07
215.35	37.66
215.815	36.42
216.28	35.3
216.745	34
217.21	32.67
217.675	31.37
218.14	29.98
218.604	28.73
219.069	27.69
219.534	26.61
219.998	25.79
220.463	25.03
220.927	24.43
221.392	23.74
221.856	23.2
222.32	22.75
222.785	22.35
223.249	22.04
223.713	21.71
224.177	21.31
224.642	21.05
225.106	20.74
225.57	20.42
226.034	20.14
226.497	19.91
226.961	19.62
227.425	19.31
227.889	19.06
228.353	18.78
228.816	18.54
229.28	18.31
229.744	18.1
230.207	17.91
230.671	17.68
231.134	17.44
231.597	17.21
232.061	17.03
232.524	16.86
232.987	16.67
233.45	16.47
233.914	16.24
234.377	16.07
234.84	15.88
235.303	15.7
235.766	15.54
236.229	15.38
236.691	15.23
237.154	15.07
237.617	14.93
238.08	14.77
238.542	14.64
239.005	14.51
239.468	14.35
239.93	14.21
240.393	14.08
240.855	13.94
241.317	13.83
241.78	13.72
242.242	13.61
242.704	13.48
243.166	13.37
243.629	13.27
244.091	13.16
244.553	13.08
245.015	13
245.477	12.91
245.939	12.81
246.4	12.71
246.862	12.62
247.324	12.54
247.786	12.44
248.247	12.36
248.709	12.26
249.17	12.21
249.632	12.11
250.093	12
250.555	11.93
251.016	11.88
251.477	11.81
251.939	11.72
252.4	11.65
252.861	11.59
253.322	11.52
253.783	11.47
254.244	11.4
254.705	11.36
255.166	11.31
255.627	11.24
256.088	11.17
256.549	11.13
257.009	11.07
257.47	11.02
257.931	10.97
258.391	10.9
258.852	10.83
259.312	10.78
259.773	10.71
260.233	10.65
260.694	10.58
261.154	10.53
261.614	10.48
262.074	10.43
262.534	10.38
262.994	10.32
263.455	10.27
263.915	10.23
264.374	10.18
264.834	10.13
265.294	10.08
265.754	10.04
266.214	10
266.673	9.94
267.133	9.89
267.593	9.85
268.052	9.8
268.512	9.76
268.971	9.73
269.431	9.69
269.89	9.64
270.349	9.61
270.809	9.57
271.268	9.55
271.727	9.52
272.186	9.49
272.645	9.44
273.104	9.42
273.563	9.38
274.022	9.34
274.481	9.3
274.94	9.26
275.399	9.23
275.857	9.19
276.316	9.14
276.775	9.1
277.233	9.06
277.692	9.02
278.15	8.97
278.609	8.94
279.067	8.9
279.525	8.87
279.984	8.84
280.442	8.8
280.9	8.77
281.358	8.74
281.816	8.71
282.274	8.67
282.732	8.66
283.19	8.63
283.648	8.61
284.106	8.58
284.564	8.57
285.021	8.55
285.479	8.54
285.937	8.52
286.394	8.48
286.852	8.47
287.309	8.45
287.767	8.42
288.224	8.4
288.682	8.37
289.139	8.35
289.596	8.31
290.053	8.27
290.511	8.22
290.968	8.2
291.425	8.17
291.882	8.14
292.339	8.1
292.796	8.06
293.252	8.03
293.709	7.99
294.166	7.96
294.623	7.94
295.079	7.91
295.536	7.9
295.992	7.86
296.449	7.84
296.905	7.81
297.362	7.79
297.818	7.77
298.274	7.74
298.731	7.72
299.187	7.7
299.643	7.66
300.099	7.65
300.555	7.61
301.011	7.59
301.467	7.56
301.923	7.55
302.379	7.53
302.835	7.51
303.291	7.5
303.746	7.47
304.202	7.45
304.658	7.44
305.113	7.42
305.569	7.41
306.024	7.4
306.479	7.39
306.935	7.37
307.39	7.36
307.845	7.35
308.301	7.35
308.756	7.34
309.211	7.34
309.666	7.34
310.121	7.32
310.576	7.32
311.031	7.32
311.486	7.32
311.94	7.31
312.395	7.31
312.85	7.3
313.305	7.3
313.759	7.29
314.214	7.28
314.668	7.27
315.123	7.29
315.577	7.28
316.032	7.28
316.486	7.26
316.94	7.25
317.394	7.22
317.849	7.21
318.303	7.19
318.757	7.16
319.211	7.14
319.665	7.13
320.119	7.11
320.572	7.08
321.026	7.06
321.48	7.04
321.934	7.02
322.387	7
322.841	6.97
323.295	6.96
323.748	6.96
324.202	6.95
324.655	6.94
325.108	6.91
325.562	6.88
326.015	6.87
326.468	6.85
326.921	6.84
327.374	6.83
327.827	6.83
328.28	6.81
328.733	6.78
329.186	6.77
329.639	6.75
330.092	6.75
330.545	6.75
330.997	6.75
331.45	6.75
331.903	6.74
332.355	6.74
332.808	6.73
333.26	6.73
333.713	6.73
334.165	6.72
334.617	6.72
335.069	6.72
335.522	6.71
335.974	6.71
336.426	6.71
336.878	6.71
337.33	6.71
337.782	6.69
338.234	6.69
338.686	6.68
339.137	6.68
339.589	6.68
340.041	6.67
340.493	6.65
340.944	6.64
341.396	6.63
341.847	6.62
342.299	6.59
342.75	6.57
343.201	6.56
343.653	6.54
344.104	6.51
344.555	6.49
345.006	6.47
345.457	6.46
345.908	6.43
346.359	6.42
346.81	6.41
347.261	6.4
347.712	6.4
348.163	6.4
348.613	6.39
349.064	6.38
349.515	6.36
349.965	6.36
350.416	6.34
350.866	6.34
351.317	6.32
351.767	6.31
352.217	6.31
352.668	6.3
353.118	6.29
353.568	6.29
354.018	6.3
354.468	6.3
354.918	6.3
355.368	6.3
355.818	6.29
356.268	6.29
356.718	6.28
357.168	6.26
357.617	6.25
358.067	6.24
358.517	6.24
358.966	6.23
359.416	6.23
359.865	6.22
360.315	6.21
360.764	6.21
361.213	6.2
361.663	6.21
362.112	6.21
362.561	6.22
363.01	6.22
363.459	6.21
363.908	6.21
364.357	6.2
364.806	6.21
365.255	6.2
365.703	6.19
366.152	6.19
366.601	6.18
367.05	6.18
367.498	6.18
367.947	6.18
368.395	6.18
368.844	6.18
369.292	6.17
369.74	6.17
370.189	6.17
370.637	6.17
371.085	6.17
371.533	6.16
371.981	6.15
372.429	6.14
372.877	6.14
373.325	6.12
373.773	6.11
374.221	6.11
374.669	6.1
375.116	6.08
375.564	6.09
376.012	6.09
376.459	6.09
376.907	6.09
377.354	6.09
377.801	6.1
378.249	6.1
378.696	6.11
379.143	6.11
379.591	6.13
380.038	6.14
380.485	6.14
380.932	6.15
381.379	6.15
381.826	6.15
382.273	6.15
382.72	6.16
383.166	6.18
383.613	6.18
384.06	6.19
384.506	6.19
384.953	6.21
385.4	6.21
385.846	6.2
386.292	6.22
386.739	6.22
387.185	6.24
387.631	6.25
388.078	6.25
388.524	6.24
388.97	6.24
389.416	6.25
389.862	6.24
390.308	6.26
390.754	6.27
391.2	6.29
391.645	6.31
392.091	6.31
392.537	6.33
392.983	6.36
393.428	6.4
393.874	6.43
394.319	6.43
394.765	6.44
395.21	6.45
395.655	6.47
396.101	6.48
396.546	6.48
396.991	6.49
397.436	6.49
397.881	6.51
398.326	6.53
398.771	6.56
399.216	6.61
399.661	6.67
400.106	6.71
400.551	6.72
400.995	6.74
401.44	6.76
401.885	6.78
402.329	6.82
402.774	6.82
403.218	6.84
403.663	6.84
404.107	6.86
404.551	6.88
404.995	6.88
405.44	6.9
405.884	6.93
406.328	6.94
406.772	6.97
407.216	6.99
407.66	7.01
408.104	7.04
408.547	7.07
408.991	7.07
409.435	7.08
409.879	7.1
410.322	7.13
410.766	7.16
411.209	7.19
411.653	7.21
412.096	7.23
412.54	7.24
412.983	7.25
413.426	7.29
413.869	7.33
414.312	7.38
414.756	7.43
415.199	7.46
415.642	7.5
416.085	7.54
416.527	7.58
416.97	7.6
417.413	7.61
417.856	7.62
418.298	7.61
418.741	7.62
419.184	7.63
419.626	7.62
420.069	7.64
420.511	7.62
420.953	7.62
421.396	7.62
421.838	7.65
422.28	7.69
422.722	7.72
423.164	7.76
423.606	7.78
424.048	7.77
424.49	7.81
424.932	7.81
425.374	7.85
425.816	7.85
426.258	7.84
426.699	7.82
427.141	7.79
427.582	7.78
428.024	7.79
428.465	7.8
428.907	7.83
429.348	7.82
429.789	7.83
430.231	7.82
430.672	7.84
431.113	7.9
431.554	7.93
431.995	7.98
432.436	7.98
432.877	7.98
433.318	7.99
433.759	7.98
434.2	7.99
434.64	8
435.081	8.03
435.522	8.04
435.962	8.03
436.403	8.05
436.843	8.07
437.284	8.1
437.724	8.14
438.164	8.15
438.604	8.18
439.045	8.19
439.485	8.18
439.925	8.18
440.365	8.18
440.805	8.19
441.245	8.18
441.685	8.19
442.125	8.2
442.564	8.2
443.004	8.21
443.444	8.22
443.883	8.25
444.323	8.27
444.762	8.3
445.202	8.35
445.641	8.39
446.081	8.42
446.52	8.42
446.959	8.42
447.398	8.46
447.837	8.51
448.276	8.52
448.716	8.53
449.154	8.57
449.593	8.58
450.032	8.57
450.471	8.58
450.91	8.58
451.349	8.59
451.787	8.61
452.226	8.57
452.664	8.55
453.103	8.54
453.541	8.53
453.98	8.5
454.418	8.46
454.856	8.45
455.295	8.43
455.733	8.41
456.171	8.39
456.609	8.37
457.047	8.35
457.485	8.34
457.923	8.32
458.361	8.3
458.798	8.3
459.236	8.31
459.674	8.3
460.111	8.29
460.549	8.28
460.987	8.28
461.424	8.28
461.862	8.29
462.299	8.28
462.736	8.29
463.173	8.3
463.611	8.31
464.048	8.31
464.485	8.31
464.922	8.33
465.359	8.34
465.796	8.31
466.233	8.31
466.67	8.31
467.106	8.31
467.543	8.32
467.98	8.33
468.416	8.33
468.853	8.33
469.29	8.33
469.726	8.32
470.162	8.3
470.599	8.33
471.035	8.36
471.471	8.35
471.907	8.35
472.344	8.35
472.78	8.35
473.216	8.34
473.652	8.34
474.088	8.34
474.523	8.35
474.959	8.34
475.395	8.33
475.831	8.32
476.266	8.31
476.702	8.31
477.138	8.3
477.573	8.28
478.008	8.28
478.444	8.26
478.879	8.25
479.314	8.22
479.75	8.22
480.185	8.2
480.62	8.18
481.055	8.17
481.49	8.13
481.925	8.12
482.36	8.09
482.795	8.07
483.229	8.06
483.664	8.05
484.099	8.06
484.534	8.04
484.968	8.03
485.403	8.02
485.837	8.01
486.271	8.01
486.706	7.99
487.14	8
487.574	7.99
488.009	7.99
488.443	7.98
488.877	7.96
489.311	7.97
489.745	7.96
490.179	7.96
490.613	7.95
491.046	7.96
491.48	7.97
491.914	7.97
492.348	7.98
492.781	7.97
493.215	7.98
493.648	7.99
494.082	7.99
494.515	7.99
494.948	7.99
495.382	8
495.815	8.01
496.248	8.03
496.681	8.03
497.114	8.04
497.547	8.06
497.98	8.09
498.413	8.11
498.846	8.13
499.279	8.17
499.711	8.2
500.144	8.24
500.577	8.27
501.009	8.29
501.442	8.33
501.874	8.37
502.306	8.41
502.739	8.45
503.171	8.5
503.603	8.56
504.036	8.61
504.468	8.67
504.9	8.73
505.332	8.81
505.764	8.88
506.196	8.96
506.627	9.03
507.059	9.11
507.491	9.21
507.923	9.3
508.354	9.4
508.786	9.5
509.217	9.59
509.649	9.71
510.08	9.82
510.512	9.94
510.943	10.07
511.374	10.21
511.805	10.34
512.237	10.48
512.668	10.63
513.099	10.8
513.53	10.95
513.961	11.13
514.391	11.29
514.822	11.45
515.253	11.63
515.684	11.8
516.114	11.99
516.545	12.18
516.975	12.4
517.406	12.61
517.836	12.81
518.267	13.03
518.697	13.26
519.127	13.49
519.558	13.73
519.988	13.97
520.418	14.2
520.848	14.42
521.278	14.66
521.708	14.84
522.138	15.06
522.567	15.27
522.997	15.49
523.427	15.71
523.857	15.92
524.286	16.13
524.716	16.33
525.145	16.54
525.575	16.75
526.004	16.95
526.433	17.19
526.863	17.39
527.292	17.58
527.721	17.76
528.15	17.92
528.579	18.09
529.008	18.25
529.437	18.41
529.866	18.56
530.295	18.7
530.724	18.85
531.152	18.99
531.581	19.11
532.01	19.21
532.438	19.3
532.867	19.39
533.295	19.49
533.723	19.6
534.152	19.69
534.58	19.77
535.008	19.84
535.436	19.89
535.865	19.95
536.293	20
536.721	20.05
537.149	20.12
537.576	20.2
538.004	20.26
538.432	20.27
538.86	20.31
539.287	20.35
539.715	20.41
540.143	20.44
540.57	20.47
540.998	20.51
541.425	20.56
541.852	20.59
542.28	20.6
542.707	20.65
543.134	20.69
543.561	20.71
543.988	20.74
544.415	20.76
544.842	20.8
545.269	20.85
545.696	20.89
546.123	20.92
546.549	20.95
546.976	20.99
547.403	20.99
547.829	21.02
548.256	21.06
548.682	21.08
549.108	21.1
549.535	21.14
549.961	21.15
550.387	21.14
550.813	21.13
551.24	21.12
551.666	21.13
552.092	21.12
552.518	21.11
552.943	21.1
553.369	21.06
553.795	21.02
554.221	20.97
554.646	20.93
555.072	20.87
555.498	20.83
555.923	20.77
556.349	20.68
556.774	20.61
557.199	20.55
557.625	20.46
558.05	20.39
558.475	20.31
558.9	20.22
559.325	20.13
559.75	20.04
560.175	19.95
560.6	19.85
561.025	19.75
561.449	19.64
561.874	19.52
562.299	19.39
562.723	19.26
563.148	19.13
563.572	19.01
563.997	18.87
564.421	18.72
564.846	18.56
565.27	18.41
565.694	18.26
566.118	18.11
566.542	17.95
566.966	17.8
567.39	17.65
567.814	17.48
568.238	17.3
568.662	17.14
569.086	16.98
569.509	16.82
569.933	16.66
570.357	16.5
570.78	16.35
571.204	16.18
571.627	16.05
572.05	15.91
572.474	15.78
572.897	15.64
573.32	15.51
573.743	15.39
574.166	15.27
574.589	15.16
575.012	15.05
575.435	14.94
575.858	14.86
576.281	14.75
576.704	14.65
577.126	14.55
577.549	14.47
577.972	14.38
578.394	14.29
578.817	14.21
579.239	14.14
579.661	14.08
580.084	14.01
580.506	13.92
580.928	13.85
581.35	13.78
581.772	13.74
582.194	13.68
582.616	13.64
583.038	13.59
583.46	13.55
583.882	13.5
584.303	13.43
584.725	13.39
585.147	13.31
585.568	13.25
585.99	13.21
586.411	13.15
586.833	13.11
587.254	13.07
587.675	13.02
588.096	12.96
588.518	12.93
588.939	12.9
589.36	12.87
589.781	12.87
590.202	12.86
590.623	12.84
591.043	12.81
591.464	12.78
591.885	12.75
592.305	12.74
592.726	12.72
593.147	12.69
593.567	12.66
593.987	12.66
594.408	12.63
594.828	12.6
595.248	12.59
595.669	12.59
596.089	12.57
596.509	12.55
596.929	12.5
597.349	12.47
597.769	12.43
598.189	12.42
598.608	12.38
599.028	12.35
599.448	12.33
599.867	12.28
600.287	12.23
600.706	12.19
601.126	12.14
601.545	12.12
601.965	12.08
602.384	12.05
602.803	11.98
603.222	11.93
603.641	11.89
604.061	11.85
604.48	11.8
604.898	11.74
605.317	11.71
605.736	11.66
606.155	11.6
606.574	11.55
606.992	11.49
607.411	11.46
607.829	11.37
608.248	11.31
608.666	11.25
609.085	11.21
609.503	11.16
609.921	11.1
610.339	11.06
610.758	11.02
611.176	10.97
611.594	10.9
612.012	10.86
612.43	10.86
612.847	10.82
613.265	10.78
613.683	10.72
614.101	10.68
614.518	10.63
614.936	10.58
615.353	10.54
615.771	10.5
616.188	10.47
616.606	10.43
617.023	10.39
617.44	10.36
617.857	10.33
618.274	10.31
618.691	10.29
619.108	10.27
619.525	10.24
619.942	10.22
620.359	10.21
620.776	10.19
621.192	10.18
621.609	10.17
622.026	10.15
622.442	10.12
622.859	10.09
623.275	10.07
623.691	10.06
624.108	10.04
624.524	10.04
624.94	10.03
625.356	10.02
625.772	10.01
626.188	10
626.604	9.98
627.02	9.99
627.436	9.99
627.852	9.99
628.268	9.99
628.683	9.98
629.099	9.98
629.514	9.96
629.93	9.95
630.345	9.92
630.761	9.92
631.176	9.91
631.591	9.91
632.007	9.88
632.422	9.87
632.837	9.85
633.252	9.84
633.667	9.79
634.082	9.77
634.497	9.74
634.911	9.72
635.326	9.67
635.741	9.62
636.155	9.58
636.57	9.56
636.984	9.5
637.399	9.44
637.813	9.39
638.228	9.34
638.642	9.31
639.056	9.28
639.47	9.25
639.884	9.22
640.298	9.19
640.712	9.14
641.126	9.1
641.54	9.06
641.954	9.04
642.368	9
642.781	8.96
643.195	8.9
643.609	8.84
644.022	8.8
644.436	8.75
644.849	8.73
645.262	8.7
645.676	8.67
646.089	8.64
646.502	8.59
646.915	8.57
647.328	8.56
647.741	8.54
648.154	8.53
648.567	8.51
648.98	8.5
649.393	8.48
649.805	8.44
650.218	8.44
650.631	8.42
651.043	8.41
651.456	8.4
651.868	8.37
652.28	8.35
652.693	8.32
653.105	8.31
653.517	8.29
653.929	8.28
654.341	8.28
654.753	8.25
655.165	8.23
655.577	8.21
655.989	8.18
656.401	8.16
656.813	8.11
657.224	8.1
657.636	8.08
658.047	8.06
658.459	8.02
658.87	7.97
659.282	7.97
659.693	7.95
660.104	7.94
660.515	7.92
660.926	7.91
661.338	7.92
661.749	7.9
662.159	7.87
662.57	7.85
662.981	7.85
663.392	7.83
663.803	7.8
664.213	7.79
664.624	7.79
665.035	7.79
665.445	7.79
665.855	7.77
666.266	7.77
666.676	7.77
667.086	7.78
667.497	7.77
667.907	7.76
668.317	7.76
668.727	7.75
669.137	7.75
669.547	7.76
669.956	7.75
670.366	7.76
670.776	7.76
671.186	7.77
671.595	7.79
672.005	7.8
672.414	7.82
672.824	7.86
673.233	7.88
673.642	7.89
674.052	7.89
674.461	7.91
674.87	7.94
675.279	7.95
675.688	7.96
676.097	8
676.506	8.02
676.915	8.03
677.323	8.05
677.732	8.07
678.141	8.1
678.549	8.14
678.958	8.17
679.366	8.18
679.775	8.23
680.183	8.26
680.592	8.28
681	8.3
681.408	8.33
681.816	8.35
682.224	8.39
682.632	8.45
683.04	8.47
683.448	8.5
683.856	8.54
684.264	8.59
684.671	8.66
685.079	8.71
685.487	8.8
685.894	8.89
686.302	8.99
686.709	9.08
687.116	9.18
687.524	9.32
687.931	9.46
688.338	9.63
688.745	9.82
689.152	10.03
689.559	10.26
689.966	10.49
690.373	10.76
690.78	11.04
691.187	11.36
691.593	11.7
692	12.06
692.407	12.47
692.813	12.88
693.22	13.31
693.626	13.75
694.032	14.23
694.439	14.73
694.845	15.25
695.251	15.8
695.657	16.36
696.063	16.92
696.469	17.52
696.875	18.11
697.281	18.73
697.687	19.38
698.093	20.02
698.498	20.69
698.904	21.36
699.31	22.01
699.715	22.68
700.12	23.34
700.526	24.05
700.931	24.73
701.337	25.43
701.742	26.11
702.147	26.79
702.552	27.48
702.957	28.15
703.362	28.83
703.767	29.52
704.172	30.22
704.577	30.91
704.981	31.59
705.386	32.26
705.791	32.96
706.195	33.65
706.6	34.32
707.004	34.98
707.408	35.65
707.813	36.32
708.217	37
708.621	37.66
709.025	38.32
709.43	38.93
709.834	39.61
710.237	40.22
710.641	40.87
711.045	41.49
711.449	42.13
711.853	42.77
712.256	43.41
712.66	44.04
713.064	44.66
713.467	45.27
713.87	45.91
714.274	46.53
714.677	47.14
715.08	47.72
715.484	48.35
715.887	48.95
716.29	49.53
716.693	50.11
717.096	50.71
717.499	51.28
717.901	51.84
718.304	52.4
718.707	52.93
719.109	53.5
719.512	54.08
719.915	54.59
720.317	55.11
720.719	55.61
721.122	56.11
721.524	56.6
721.926	57.11
722.328	57.59
722.731	58.05
723.133	58.52
723.535	58.98
723.937	59.4
724.338	59.81
724.74	60.22
725.142	60.52
725.544	60.88
725.945	61.24
726.347	61.6
726.748	61.92
727.15	62.26
727.551	62.59
727.952	62.86
728.354	63.21
728.755	63.54
729.156	63.86
729.557	64.24
729.958	64.57
730.359	64.85
730.76	65.1
731.161	65.38
731.562	65.64
731.962	65.89
732.363	66.14
732.763	66.36
733.164	66.56
733.564	66.72
733.965	66.92
734.365	67.06
734.766	67.26
735.166	67.42
735.566	67.56
735.966	67.67
736.366	67.79
736.766	67.91
737.166	68.06
737.566	68.2
737.966	68.4
738.365	68.55
738.765	68.72
739.165	68.82
739.564	68.97
739.964	69.11
740.363	69.29
740.763	69.4
741.162	69.53
741.561	69.62
741.96	69.77
742.36	69.86
742.759	69.95
743.158	70.02
743.557	70.12
743.955	70.28
744.354	70.38
744.753	70.49
745.152	70.6
745.55	70.74
745.949	70.82
746.348	70.93
746.746	71.02
747.144	71.14
747.543	71.26
747.941	71.4
748.339	71.48
748.737	71.57
749.136	71.65
749.534	71.77
749.932	71.79
750.33	71.86
750.727	71.9
751.125	71.94
751.523	71.96
751.921	71.98
752.318	71.97
752.716	71.95
753.113	71.95
753.511	71.94
753.908	71.91
754.305	71.9
754.703	71.89
755.1	71.86
755.497	71.83
755.894	71.81
756.291	71.75
756.688	71.73
757.085	71.71
757.482	71.72
757.878	71.71
758.275	71.7
758.672	71.72
759.068	71.71
759.465	71.7
759.861	71.72
760.258	71.72
760.654	71.75
761.05	71.76
761.447	71.75
761.843	71.69
762.239	71.68
762.635	71.69
763.031	71.69
763.427	71.69
763.822	71.66
764.218	71.65
764.614	71.62
765.01	71.64
765.405	71.64
765.801	71.65
766.196	71.69
766.592	71.72
766.987	71.73
767.382	71.73
767.778	71.78
768.173	71.8
768.568	71.8
768.963	71.84
769.358	71.84
769.753	71.9
770.148	71.9
770.542	71.91
770.937	71.9
771.332	71.92
771.726	71.91
772.121	71.89
772.515	71.94
772.91	71.96
773.304	71.95
773.699	71.94
774.093	71.86
774.487	71.87
774.881	71.91
775.275	71.93
775.669	71.93
776.063	71.92
776.457	71.9
776.851	71.88
777.245	71.89
777.638	71.92
778.032	71.96
778.425	72.04
778.819	72.1
779.212	72.05
779.606	72.05
779.999	72.02
780.392	72.02
780.786	72.09
781.179	72.12
781.572	72.13
781.965	72.14
782.358	72.08
782.751	72.07
783.143	72.05
783.536	72.11
783.929	72.14
784.322	72.18
784.714	72.22
785.107	72.21
785.499	72.26
785.891	72.28
786.284	72.28
786.676	72.33
787.068	72.31
787.46	72.33
787.852	72.32
788.245	72.32
788.636	72.32
789.028	72.3
789.42	72.26
789.812	72.24
790.204	72.22
790.595	72.24
790.987	72.28
791.378	72.28
791.77	72.3
792.161	72.3
792.553	72.32
792.944	72.33
793.335	72.38
793.726	72.4
794.117	72.39
794.508	72.4
794.899	72.38
795.29	72.34
795.681	72.38
796.072	72.39
796.463	72.37
796.853	72.35
797.244	72.35
797.634	72.31
798.025	72.32
798.415	72.34
798.806	72.37
799.196	72.42
799.586	72.46
799.976	72.44
800.366	72.39
800.756	72.42
801.146	72.47
801.536	72.53
801.926	72.54
802.316	72.55
802.706	72.6
803.095	72.61
803.485	72.64
803.874	72.62
804.264	72.68
804.653	72.72
805.043	72.74
805.432	72.67
805.821	72.67
806.21	72.75
806.599	72.83
806.988	72.82
807.377	72.84
807.766	72.82
808.155	72.88
808.544	72.85
808.933	72.88
809.321	72.95
809.71	73.05
810.098	73.05
810.487	73.05
810.875	72.99
811.264	72.99
811.652	73
812.04	73.04
812.428	73.07
812.816	73.1
813.204	73.12
813.592	73.12
813.98	73.1
814.368	73.08
814.756	73.1
815.144	73.14
815.531	73.15
815.919	73.16
816.306	73.17
816.694	73.19
817.081	73.18
817.469	73.23
817.856	73.27
818.243	73.3
818.63	73.36
819.017	73.37
819.404	73.36
819.791	73.37
820.178	73.36
820.565	73.34
820.952	73.32
821.339	73.4
821.725	73.41
822.112	73.36
822.498	73.36
822.885	73.35
823.271	73.36
823.657	73.38
824.044	73.37
824.43	73.41
824.816	73.41
825.202	73.4
825.588	73.35
825.974	73.28
826.36	73.3
826.746	73.33
827.132	73.28
827.517	73.3
827.903	73.3
828.289	73.31
828.674	73.26
829.06	73.27
829.445	73.29
829.83	73.31
830.216	73.33
830.601	73.3
830.986	73.3
831.371	73.36
831.756	73.31
832.141	73.31
832.526	73.31
832.911	73.33
833.295	73.32
833.68	73.32
834.065	73.32
834.449	73.3
834.834	73.3
835.218	73.29
835.603	73.28
835.987	73.24
836.371	73.25
836.755	73.22
837.139	73.23
837.524	73.24
837.908	73.2
838.291	73.18
838.675	73.2
839.059	73.2
839.443	73.17
839.827	73.17
840.21	73.24
840.594	73.24
840.977	73.23
841.361	73.24
841.744	73.24
842.127	73.25
842.511	73.25
842.894	73.23
843.277	73.23
843.66	73.23
844.043	73.23
844.426	73.18
844.809	73.19
845.191	73.21
845.574	73.19
845.957	73.18
846.339	73.15
846.722	73.18
847.104	73.22
847.487	73.27
847.869	73.3
848.252	73.27
848.634	73.3
849.016	73.32
849.398	73.34
849.78	73.35
850.162	73.35
850.544	73.4
850.926	73.38
851.307	73.35
851.689	73.31
852.071	73.3
852.452	73.34
852.834	73.33
853.215	73.3
853.597	73.29
853.978	73.28
854.359	73.26
854.741	73.23
855.122	73.23
855.503	73.28
855.884	73.29
856.265	73.31
856.646	73.28
857.026	73.29
857.407	73.25
857.788	73.25
858.169	73.25
858.549	73.3
858.93	73.31
859.31	73.29
859.69	73.24
860.071	73.22
860.451	73.22
860.831	73.19
861.211	73.18
861.591	73.22
861.971	73.2
862.351	73.22
862.731	73.17
863.111	73.18
863.491	73.18
863.87	73.15
864.25	73.16
864.629	73.14
865.009	73.16
865.388	73.16
865.768	73.13
866.147	73.14
866.526	73.11
866.905	73.1
867.284	73.09
867.663	73.08
868.042	73.1
868.421	73.08
868.8	73.1
869.179	73.09
869.558	73.04
869.936	73.02
870.315	73.02
870.693	73.05
871.072	73.01
871.45	73
871.828	73
872.207	73
872.585	72.94
872.963	72.88
873.341	72.86
873.719	72.9
874.097	72.92
874.475	72.93
874.853	72.91
875.23	72.94
875.608	72.98
875.986	73
876.363	72.97
876.741	73.02
877.118	73.06
877.495	73.07
877.873	73.05
878.25	73.04
878.627	73.04
879.004	73.07
879.381	73.07
879.758	73.04
880.135	73.03
880.512	73.06
880.889	73.06
881.265	73.09
881.642	73.13
882.019	73.15
882.395	73.19
882.772	73.14
883.148	73.13
883.524	73.15
883.901	73.15
884.277	73.12
884.653	73.11
885.029	73.14
885.405	73.1
885.781	73.07
886.157	73.09
886.532	73.09
886.908	73.14
887.284	73.14
887.659	73.13
888.035	73.14
888.411	73.14
888.786	73.16
889.161	73.13
889.537	73.15
889.912	73.16
890.287	73.1
890.662	73.07
891.037	73.01
891.412	72.96
891.787	72.93
892.162	72.87
892.536	72.86
892.911	72.8
893.286	72.75
893.66	72.72
894.035	72.68
894.409	72.7
894.784	72.67
895.158	72.67
895.532	72.68
895.906	72.65
896.281	72.63
896.655	72.62
897.029	72.64
897.402	72.65
897.776	72.62
898.15	72.61
898.524	72.59
898.898	72.55
899.271	72.52
899.645	72.51
900.018	72.51
900.392	72.51
900.765	72.54
901.138	72.53
901.511	72.52
901.884	72.56
902.258	72.54
902.631	72.55
903.003	72.57
903.376	72.57
903.749	72.55
904.122	72.57
904.495	72.61
904.867	72.56
905.24	72.54
905.612	72.54
905.985	72.48
906.357	72.42
906.729	72.38
907.102	72.35
907.474	72.36
907.846	72.39
908.218	72.37
908.59	72.31
908.962	72.28
909.334	72.26
909.705	72.25
910.077	72.25
910.449	72.32
910.82	72.33
911.192	72.32
911.563	72.31
911.935	72.24
912.306	72.21
912.677	72.2
913.048	72.24
913.419	72.21
913.79	72.21
914.161	72.22
914.532	72.15
914.903	72.15
915.274	72.18
915.645	72.19
916.015	72.17
916.386	72.16
916.756	72.12
917.127	72.09
917.497	72.1
917.868	72.05
918.238	72.05
918.608	72.07
918.978	72.02
919.348	71.92
919.718	71.86
920.088	71.91
920.458	71.95
920.828	72.01
921.198	71.98
921.567	71.99
921.937	72.03
922.306	71.99
922.676	71.96
923.045	71.92
923.415	71.98
923.784	71.97
924.153	71.91
924.522	71.82
924.891	71.79
925.26	71.78
925.629	71.73
925.998	71.73
926.367	71.69
926.736	71.67
927.104	71.65
927.473	71.64
927.842	71.61
928.21	71.65
928.578	71.61
928.947	71.57
929.315	71.57
929.683	71.57
930.051	71.48
930.42	71.42
930.788	71.34
931.156	71.35
931.523	71.27
931.891	71.16
932.259	71.01
932.627	70.91
932.994	70.79
933.362	70.65
933.729	70.5
934.097	70.42
934.464	70.32
934.831	70.27
935.199	70.11
935.566	70.01
935.933	70.03
936.3	69.96
936.667	69.91
937.034	69.78
937.401	69.64
937.767	69.6
938.134	69.57
938.501	69.5
938.867	69.55
939.234	69.67
939.6	69.65
939.967	69.65
940.333	69.75
940.699	69.86
941.065	70.15
941.431	70.38
941.798	70.49
942.163	70.65
942.529	70.82
942.895	70.86
943.261	70.89
943.627	71
943.992	71.07
944.358	71.13
944.723	71.21
945.089	71.21
945.454	71.25
945.82	71.35
946.185	71.36
946.55	71.47
946.915	71.53
947.28	71.57
947.645	71.56
948.01	71.61
948.375	71.61
948.74	71.55
949.104	71.55
949.469	71.49
949.834	71.47
950.198	71.36
950.562	71.27
950.927	71.25
951.291	71.13
951.655	71.16
952.02	71.07
952.384	71.11
952.748	71.04
953.112	71.02
953.476	70.98
953.839	70.83
954.203	70.78
954.567	70.72
954.931	70.68
955.294	70.59
955.658	70.51
956.021	70.42
956.385	70.25
956.748	70.25
957.111	70.09
957.474	70.11
957.837	70.17
958.2	70.16
958.563	70.08
958.926	69.98
959.289	70.04
959.652	70.04
960.015	69.97
960.377	69.96
960.74	69.89
961.102	69.92
961.465	69.81
961.827	69.59
962.189	69.53
962.552	69.44
962.914	69.38
963.276	69.33
963.638	69.21
964	69.2
964.362	69.13
964.724	69.1
965.085	69.08
965.447	69.05
965.809	69.1
966.17	69.05
966.532	69.13
966.893	69.12
967.255	69.05
967.616	69.07
967.977	69.12
968.338	69.04
968.699	68.95
969.061	68.9
969.421	68.92
969.782	68.96
970.143	68.94
970.504	68.84
970.865	68.71
971.225	68.66
971.586	68.75
971.946	68.69
972.307	68.8
972.667	68.92
973.027	68.94
973.388	68.85
973.748	68.77
974.108	68.72
974.468	68.78
974.828	68.83
975.188	68.75
975.548	68.62
975.907	68.62
976.267	68.58
976.627	68.52
976.986	68.44
977.346	68.43
977.705	68.48
978.064	68.54
978.424	68.44
978.783	68.51
979.142	68.54
979.501	68.51
979.86	68.52
980.219	68.41
980.578	68.3
980.937	68.33
981.296	68.32
981.654	68.33
982.013	68.37
982.371	68.34
982.73	68.24
983.088	68.23
983.447	68.24
983.805	68.22
984.163	68.35
984.521	68.41
984.879	68.51
985.237	68.54
985.595	68.55
985.953	68.46
986.311	68.6
986.669	68.73
987.026	68.83
987.384	68.7
987.741	68.72
988.099	68.7
988.456	68.74
988.814	68.64
989.171	68.55
989.528	68.4
989.885	68.38
990.242	68.36
990.599	68.28
990.956	68.22
991.313	68.4
991.67	68.32
992.027	68.15
992.383	68.1
992.74	68.05
993.096	68.13
993.453	68.11
993.809	68.21
994.165	68.14
994.522	68.16
994.878	68.14
995.234	68.19
995.59	68.21
995.946	68.41
996.302	68.33
996.658	68.28
997.013	68.29
997.369	68.45
997.725	68.37
998.08	68.41
998.436	68.42
998.791	68.37
999.147	68.08
999.502	68.01
999.857	68.02
1000.212	68.07
1000.567	68.2
1000.922	68.18
1001.277	68.06
1001.632	68.14
1001.987	68.03
1002.342	67.99
1002.696	68.24
1003.051	68.25
1003.406	68.32
1003.76	68.11
1004.114	68.22
1004.469	68.02
1004.823	67.92
1005.177	68.04
1005.531	67.82
1005.885	67.96
1006.239	67.82
1006.593	67.49
1006.947	67.38
1007.301	67.28
1007.655	67.38
1008.008	67.16
1008.362	67.2
1008.715	67.38
1009.069	67.25
1009.422	67.17
1009.776	66.96
1010.129	66.75
1010.482	66.93
1010.835	67.48
1011.188	67.59
1011.541	67.56
1011.894	67.77
1012.247	67.62
1012.6	67.64
1012.952	67.69
1013.305	67.81
1013.657	67.79
1014.01	68.2
1014.362	68.01
1014.715	67.5
1015.067	67.54
1015.419	67.56
1015.771	67.47
1016.123	67.52
1016.475	67.38
1016.827	67.32
1017.179	67.56
1017.531	67.69
1017.883	67.88
1018.234	68.08
1018.586	68.26
1018.938	67.9
1019.289	67.67
1019.64	67.9
1019.992	67.85
1020.343	67.73
1020.694	67.69
1021.045	67.46
1021.396	67.54
1021.747	67.09
1022.098	67.15
1022.449	67.23
1022.8	67.26
1023.151	67.14
1023.501	67.02
1023.852	67.49
1024.202	67.47
1024.553	67.47
1024.903	67.06
1025.253	66.77
1025.604	67.06
1025.954	66.72
1026.304	66.83
1026.654	67.23
1027.004	67.59
1027.354	67.38
1027.703	67.14
1028.053	67.02
1028.403	66.61
1028.753	67.38
1029.102	67.55
1029.452	67.35
1029.801	67.35
1030.15	67.16
1030.499	66.87
897.758	268.17
901.051	271.97
904.343	279.67
907.636	273.05
910.928	268.41
914.22	277.54
917.511	268.3
920.803	261.62
924.094	250.09
927.384	253.22
930.675	246.06
933.965	243.5
937.255	246.02
940.544	233.14
943.834	226.87
947.123	224.59
950.411	211.49
953.7	209.31
956.988	206
960.276	201.33
963.563	200.21
966.851	191.95
970.138	189.28
973.424	177.8
976.711	176.62
979.997	171.8
983.283	168
986.568	163.21
989.853	161.6
993.138	156.16
996.423	155.06
999.708	150.9
1002.992	151.45
1006.275	148.23
1009.559	148.51
1012.842	145.16
1016.125	140.79
1019.408	139.55
1022.69	140.19
1025.972	137.21
1029.254	135.94
1032.536	133.26
1035.817	128.81
1039.098	128.81
1042.379	126.86
1045.659	125.19
1048.939	122.61
1052.219	123.33
1055.498	120.92
1058.778	117.88
1062.057	117.56
1065.335	117.25
1068.614	115.99
1071.892	115.83
1075.17	113.48
1078.447	112.39
1081.724	111.47
1085.001	110.09
1088.278	108.82
1091.554	110.12
1094.83	109.56
1098.106	108.71
1101.382	107.53
1104.657	107.63
1107.932	107.41
1111.206	106.24
1114.481	105.99
1117.755	103.99
1121.029	105
1124.302	104.25
1127.575	102.78
1130.848	102.68
1134.121	100.94
1137.393	101.02
1140.665	99.58
1143.937	98.87
1147.208	98.41
1150.48	97.29
1153.75	97.96
1157.021	96.78
1160.291	97.04
1163.561	95.45
1166.831	95.94
1170.101	96.15
1173.37	94.98
1176.639	94.6
1179.907	93.94
1183.176	94.03
1186.444	93.96
1189.711	92.88
1192.979	94.06
1196.246	93.48
1199.513	93.62
1202.78	93.73
1206.046	93.49
1209.312	94.77
1212.578	94.79
1215.843	96.81
1219.108	96.48
1222.373	98.17
1225.638	99.88
1228.902	100.62
1232.166	102.12
1235.43	103.08
1238.693	103.62
1241.956	105.52
1245.219	107.92
1248.482	109.42
1251.744	108.02
1255.006	109.05
1258.268	106.27
1261.529	106.02
1264.79	103.86
1268.051	102.87
1271.312	102.75
1274.572	101.89
1277.832	100.1
1281.092	98.06
1284.351	96.28
1287.61	96.3
1290.869	96.38
1294.128	96.15
1297.386	95.69
1300.644	95.7
1303.902	95.33
1307.159	94.14
1310.416	94.28
1313.673	95.31
1316.93	95.48
1320.186	96.82
1323.442	96.78
1326.697	96.93
1329.953	97.73
1333.208	99.82
1336.463	101.94
1339.717	103.53
1342.972	106.97
1346.226	108.49
1349.479	108.49
1352.733	112.03
1355.986	111.99
1359.238	114.7
1362.491	113.53
1365.743	116.43
1368.995	116.99
1372.247	116.11
1375.498	114.11
1378.749	116.17
1382	115.38
1385.251	115.5
1388.501	114.12
1391.751	114.48
1395	113.19
1398.25	115.59
1401.499	113.7
1404.748	111.51
1407.996	109.51
1411.244	109.85
1414.492	108.11
1417.74	104.97
1420.987	102.62
1424.234	100.99
1427.481	96.86
1430.728	94.71
1433.974	91.1
1437.22	87.89
1440.465	85.53
1443.711	82.97
1446.956	80.92
1450.201	78.03
1453.445	74.63
1456.689	72.05
1459.933	71.09
1463.177	68.73
1466.42	67.53
1469.663	66.22
1472.906	65.02
1476.148	63.16
1479.391	62.79
1482.633	61.93
1485.874	61.67
1489.115	61.76
1492.356	61.4
1495.597	59.9
1498.838	60.99
1502.078	60.89
1505.318	60.78
1508.557	60.05
1511.797	60.63
1515.036	60.6
1518.274	60.72
1521.513	60.97
1524.751	60.4
1527.989	61.36
1531.227	61.59
1534.464	61.74
1537.701	61.45
1540.938	61.09
1544.174	62.21
1547.41	62.48
1550.646	62.44
1553.882	62.56
1557.117	62.71
1560.352	63.46
1563.587	62.71
1566.821	63.05
1570.055	62.92
1573.289	63.51
1576.523	63.77
1579.756	63.62
1582.989	63.74
1586.222	63.99
1589.454	64.12
1592.686	64.06
1595.918	63.6
1599.15	63.9
1602.381	64.24
1605.612	64.44
1608.843	64.3
1612.073	64.96
1615.303	64.99
1618.533	65.13
1621.762	65.03
1624.992	64.78
1628.221	64.7
1631.449	65.04
1634.678	65.34
1637.906	64.93
1641.134	65.15
1644.361	65.12
1647.588	65.14
1650.815	65.19
1654.042	65.66
1657.269	65.37
1660.495	65.96
1663.72	65.92
1666.946	66.15
1670.171	66.31
1673.396	67.01
1676.621	66.43
1679.845	66.92
1683.069	66.65
1686.293	66.51
1689.517	66.17
1692.74	66.55
1695.963	66.4
1699.185	66.33
1702.408	66.2
1705.63	66.11
1708.852	66.01
1712.073	66.05
1715.294	65.8
1718.515	66.24
1721.736	66.2
1724.956	66.04
1728.176	65.95
1731.396	66.12
1734.616	66.59
1737.835	66.54
1741.054	66.7
1744.272	66.19
1747.491	66.06
1750.709	66.45
1753.927	65.96
1757.144	66.61
1760.361	66.81
1763.578	66.68
1766.795	66.97
1770.011	67.12
1773.227	66.85
1776.443	67.22
1779.658	67.3
1782.874	68.3
1786.089	67.03
1789.303	67.09
1792.518	67.46
1795.732	67.65
1798.945	68.63
1802.159	67.99
1805.372	67.96
1808.585	69.01
1811.797	68.28
1815.01	69.24
1818.222	69.06
1821.434	70.35
1824.645	70.15
1827.856	70.12
1831.067	69.91
1834.278	69.79
1837.488	70.17
1840.698	70.44
1843.908	70.17
1847.117	71.27
1850.326	70.75
1853.535	70.99
1856.744	71.16
1859.952	72.16
1863.16	71.4
1866.368	70.33
1869.575	70.46
1872.782	69.76
1875.989	67.94
1879.196	67.44
1882.402	65.82
1885.608	65.79
1888.814	64.24
1892.019	63.65
1895.224	62.09
1898.429	61.48
1901.634	61.86
1904.838	60.76
1908.042	61.06
1911.246	60.89
1914.449	61
1917.652	60.25
1920.855	59.73
1924.058	59.18
1927.26	57.96
1930.462	58.66
1933.664	58.72
1936.865	59.08
1940.066	57.7
1943.267	57.69
1946.467	58.58
1949.668	57.71
1952.868	57.95
1956.067	58.13
1959.267	59.66
1962.466	59.77
1965.665	60.53
1968.863	60.87
1972.061	60.94
1975.259	63.84
1978.457	62.56
1981.654	63.13
1984.852	64.02
1988.048	65.43
1991.245	66.84
1994.441	67.55
1997.637	69.33
2000.833	70.39
2004.028	70.43
2007.223	72.74
2010.418	72.89
2013.613	77.54
2016.807	79.29
2020.001	80.65
2023.194	84.46
2026.388	86.26
2029.581	90.56
2032.774	92.94
2035.966	95.26
2039.158	99.36
2042.35	99.1
2045.542	102.09
2048.733	105.37
2051.924	106.01
2055.115	106.78
2058.306	106.39
2061.496	107.04
2064.686	105.95
2067.875	107.73
2071.065	108.11
2074.254	107.38
2077.442	111.49
2080.631	111.4
2083.819	112.77
2087.007	114.94
2090.195	118.15
2093.382	116.53
2096.569	117.9
2099.756	120.69
2102.942	120.99
2106.128	123.02
2109.314	125.76
2112.5	125.95
2115.685	124.41
2118.87	124
2122.055	125.39
2125.239	127.65
2128.424	131.46
2131.608	129.9
2134.791	128.87
2137.974	129.64
2141.157	131.68
2144.34	131.23
2147.523	135.76
2150.705	139.84
2153.887	139.45
2157.068	140.78
2160.25	141.1
2163.431	142.37
2166.611	145.05
2169.792	147.37
2172.972	151.74
2176.152	151.89
2179.331	155.11
2182.511	153.13
2185.69	155.37
2188.868	157.52
2192.047	163.08
2195.225	167.3
2198.403	165.87
2201.58	163.66
2204.758	170.96
2207.935	167.7
2211.111	168.99
2214.288	170.14
2217.464	172.36
2220.64	175.46
2223.815	177.67
2226.991	171.45
2230.166	173.32
2233.34	177.9
2236.515	182.63
2239.689	179.48
2242.863	182.68
2246.036	182.05
2249.209	186.67
2252.382	183.28
2255.555	184.13
2258.727	185.57
2261.9	193.84
2265.071	193.57
2268.243	191.84
2271.414	200.42
2274.585	201.21
2277.756	198.68
2280.926	209.58
2284.096	210.22
2287.266	212.82
2290.436	213.9
2293.605	220.62
2296.774	226.83
2299.942	227.48
2303.111	238.69
2306.279	241.54
2309.447	244.65
2312.614	247.07
2315.781	247.01
2318.948	252.5
2322.115	259.41
2325.281	270.45
2328.447	264.71
2331.613	263.76
2334.779	269.43
2337.944	264.28
2341.109	267.59
2344.274	270.05
2347.438	280.28
2350.602	286.23
2353.766	297.95
2356.929	299.65
2360.092	307.7
2363.255	311.75
2366.418	316.85
2369.58	322.75
2372.742	331.39
2375.904	329.72
2379.066	337.53
2382.227	355.21
2385.388	351.54
2388.548	334.66
2391.709	331.81
2394.869	329.13
2398.029	335.81
2401.188	333.43
2404.347	340.88
2407.506	351.2
2410.665	338.54
2413.823	345.08
2416.981	344.22
2420.139	331.61
2423.296	362.83
2426.453	380.66
2429.61	365.96
2432.767	384.06
2435.923	403.19
2439.079	390.5
2442.235	395.82
2445.391	410.12
2448.546	403.05
2451.701	423.06
2454.855	445.23
2458.009	394.02
2461.163	404.76
2464.317	413.92
2467.471	404.54
2470.624	418.29
2473.777	405.33
2476.929	394.02
2480.082	408.21
2483.234	429.68
2486.385	433.26
2489.537	447.91
2492.688	487.82
2495.839	478.45
2498.989	491.42
2502.14	497
2505.29	474.7
2508.439	522.55
2511.589	535.51
2514.738	535.57
2517.887	524.55
2521.035	492.1
2524.183	484.53
2527.331	478.89
2530.479	467.3
2533.627	475.27
