Data from C_2_dec_on_6n_058_Splice17_07.txt Node
Date: Sat Feb 29 14:30:35 EST 2020
User: sa697716
Spectrometer: FLMS03696
Trigger mode: 0
Integration Time (sec): 3.180400E-1
Scans to average: 20
Electric dark correction enabled: true
Nonlinearity correction enabled: true
Boxcar width: 5
XAxis mode: Wavelengths
Number of Pixels in Spectrum: 2048
>>>>>Begin Spectral Data<<<<<
187.83	109.6
188.298	104.85
188.766	96.98
189.233	97.56
189.701	95.43
190.169	90.15
190.636	87.42
191.104	90.46
191.571	79.54
192.039	59.79
192.506	380.37
192.974	9154.36
193.441	-376.22
193.908	100.1
194.375	116.55
194.842	124.09
195.31	122.17
195.777	73
196.244	18
196.711	13.93
197.177	11.81
197.644	12.91
198.111	13.21
198.578	13.86
199.045	14.15
199.511	14.64
199.978	15.13
200.445	14.06
200.911	14.82
201.378	14.96
201.844	15.08
202.31	15.91
202.777	16.1
203.243	16.55
203.709	16.88
204.176	16.83
204.642	17.13
205.108	16.78
205.574	17.56
206.04	17.38
206.506	17.83
206.972	17.96
207.438	17.43
207.903	17.84
208.369	17.84
208.835	17.78
209.301	18.43
209.766	18.52
210.232	18.66
210.697	18.95
211.163	19.16
211.628	19.13
212.094	19.17
212.559	19.43
213.024	19.23
213.49	19.21
213.955	19.54
214.42	19.14
214.885	19.07
215.35	19.34
215.815	19.25
216.28	19.65
216.745	19.97
217.21	20.24
217.675	20.47
218.14	20.43
218.604	20.31
219.069	20.27
219.534	20.08
219.998	20.01
220.463	19.96
220.927	19.88
221.392	19.69
221.856	19.52
222.32	19.4
222.785	19.28
223.249	19.18
223.713	19.13
224.177	19.02
224.642	18.96
225.106	18.83
225.57	18.69
226.034	18.59
226.497	18.44
226.961	18.27
227.425	18.09
227.889	17.94
228.353	17.77
228.816	17.59
229.28	17.4
229.744	17.27
230.207	17.1
230.671	16.96
231.134	16.79
231.597	16.62
232.061	16.52
232.524	16.39
232.987	16.25
233.45	16.1
233.914	15.95
234.377	15.81
234.84	15.67
235.303	15.55
235.766	15.41
236.229	15.27
236.691	15.16
237.154	15
237.617	14.87
238.08	14.72
238.542	14.59
239.005	14.45
239.468	14.32
239.93	14.21
240.393	14.08
240.855	13.96
241.317	13.85
241.78	13.74
242.242	13.62
242.704	13.52
243.166	13.44
243.629	13.35
244.091	13.29
244.553	13.21
245.015	13.12
245.477	13.04
245.939	12.96
246.4	12.87
246.862	12.79
247.324	12.75
247.786	12.67
248.247	12.58
248.709	12.51
249.17	12.43
249.632	12.35
250.093	12.27
250.555	12.2
251.016	12.14
251.477	12.07
251.939	12
252.4	11.92
252.861	11.88
253.322	11.81
253.783	11.76
254.244	11.7
254.705	11.64
255.166	11.6
255.627	11.55
256.088	11.49
256.549	11.44
257.009	11.4
257.47	11.36
257.931	11.29
258.391	11.25
258.852	11.19
259.312	11.15
259.773	11.1
260.233	11.05
260.694	11
261.154	10.96
261.614	10.91
262.074	10.88
262.534	10.83
262.994	10.79
263.455	10.76
263.915	10.72
264.374	10.68
264.834	10.66
265.294	10.63
265.754	10.58
266.214	10.54
266.673	10.51
267.133	10.47
267.593	10.44
268.052	10.41
268.512	10.37
268.971	10.35
269.431	10.32
269.89	10.28
270.349	10.25
270.809	10.23
271.268	10.21
271.727	10.18
272.186	10.15
272.645	10.13
273.104	10.1
273.563	10.07
274.022	10.03
274.481	10
274.94	9.97
275.399	9.93
275.857	9.9
276.316	9.86
276.775	9.83
277.233	9.79
277.692	9.75
278.15	9.71
278.609	9.68
279.067	9.64
279.525	9.61
279.984	9.58
280.442	9.56
280.9	9.52
281.358	9.5
281.816	9.47
282.274	9.44
282.732	9.42
283.19	9.38
283.648	9.38
284.106	9.35
284.564	9.33
285.021	9.31
285.479	9.29
285.937	9.27
286.394	9.26
286.852	9.24
287.309	9.23
287.767	9.21
288.224	9.2
288.682	9.17
289.139	9.15
289.596	9.13
290.053	9.1
290.511	9.07
290.968	9.04
291.425	9.01
291.882	8.99
292.339	8.95
292.796	8.92
293.252	8.9
293.709	8.87
294.166	8.85
294.623	8.82
295.079	8.81
295.536	8.79
295.992	8.77
296.449	8.75
296.905	8.72
297.362	8.7
297.818	8.69
298.274	8.67
298.731	8.65
299.187	8.63
299.643	8.62
300.099	8.6
300.555	8.58
301.011	8.56
301.467	8.54
301.923	8.52
302.379	8.5
302.835	8.48
303.291	8.47
303.746	8.45
304.202	8.42
304.658	8.4
305.113	8.37
305.569	8.36
306.024	8.34
306.479	8.33
306.935	8.31
307.39	8.3
307.845	8.28
308.301	8.26
308.756	8.26
309.211	8.25
309.666	8.25
310.121	8.25
310.576	8.24
311.031	8.22
311.486	8.21
311.94	8.19
312.395	8.18
312.85	8.17
313.305	8.17
313.759	8.16
314.214	8.15
314.668	8.13
315.123	8.13
315.577	8.12
316.032	8.12
316.486	8.11
316.94	8.1
317.394	8.08
317.849	8.06
318.303	8.04
318.757	8.03
319.211	8
319.665	7.99
320.119	7.96
320.572	7.95
321.026	7.93
321.48	7.91
321.934	7.9
322.387	7.9
322.841	7.88
323.295	7.86
323.748	7.84
324.202	7.82
324.655	7.79
325.108	7.77
325.562	7.74
326.015	7.72
326.468	7.7
326.921	7.68
327.374	7.66
327.827	7.65
328.28	7.63
328.733	7.61
329.186	7.6
329.639	7.59
330.092	7.58
330.545	7.58
330.997	7.57
331.45	7.55
331.903	7.53
332.355	7.52
332.808	7.51
333.26	7.5
333.713	7.49
334.165	7.49
334.617	7.49
335.069	7.48
335.522	7.47
335.974	7.46
336.426	7.46
336.878	7.47
337.33	7.47
337.782	7.48
338.234	7.48
338.686	7.47
339.137	7.47
339.589	7.44
340.041	7.43
340.493	7.41
340.944	7.4
341.396	7.39
341.847	7.37
342.299	7.34
342.75	7.31
343.201	7.29
343.653	7.27
344.104	7.25
344.555	7.24
345.006	7.21
345.457	7.2
345.908	7.18
346.359	7.17
346.81	7.16
347.261	7.16
347.712	7.15
348.163	7.14
348.613	7.13
349.064	7.11
349.515	7.08
349.965	7.08
350.416	7.07
350.866	7.07
351.317	7.06
351.767	7.05
352.217	7.04
352.668	7.04
353.118	7.03
353.568	7.03
354.018	7.03
354.468	7.04
354.918	7.04
355.368	7.03
355.818	7.01
356.268	7.01
356.718	7
357.168	7
357.617	6.99
358.067	7
358.517	7.01
358.966	7
359.416	7.02
359.865	7.02
360.315	7.01
360.764	7.02
361.213	7.02
361.663	7.03
362.112	7.04
362.561	7.05
363.01	7.05
363.459	7.05
363.908	7.05
364.357	7.05
364.806	7.05
365.255	7.06
365.703	7.05
366.152	7.06
366.601	7.07
367.05	7.07
367.498	7.06
367.947	7.07
368.395	7.08
368.844	7.08
369.292	7.09
369.74	7.1
370.189	7.12
370.637	7.14
371.085	7.15
371.533	7.16
371.981	7.17
372.429	7.18
372.877	7.18
373.325	7.19
373.773	7.22
374.221	7.21
374.669	7.22
375.116	7.23
375.564	7.24
376.012	7.24
376.459	7.25
376.907	7.27
377.354	7.28
377.801	7.3
378.249	7.32
378.696	7.33
379.143	7.35
379.591	7.37
380.038	7.38
380.485	7.4
380.932	7.42
381.379	7.44
381.826	7.44
382.273	7.47
382.72	7.5
383.166	7.53
383.613	7.54
384.06	7.57
384.506	7.58
384.953	7.61
385.4	7.62
385.846	7.63
386.292	7.66
386.739	7.68
387.185	7.7
387.631	7.72
388.078	7.73
388.524	7.74
388.97	7.75
389.416	7.75
389.862	7.76
390.308	7.78
390.754	7.8
391.2	7.82
391.645	7.82
392.091	7.83
392.537	7.84
392.983	7.86
393.428	7.87
393.874	7.91
394.319	7.93
394.765	7.93
395.21	7.94
395.655	7.95
396.101	7.97
396.546	7.98
396.991	8
397.436	7.99
397.881	7.99
398.326	8.01
398.771	8.02
399.216	8.04
399.661	8.07
400.106	8.1
400.551	8.1
400.995	8.09
401.44	8.09
401.885	8.08
402.329	8.09
402.774	8.08
403.218	8.09
403.663	8.08
404.107	8.07
404.551	8.07
404.995	8.05
405.44	8.04
405.884	8.05
406.328	8.06
406.772	8.07
407.216	8.09
407.66	8.1
408.104	8.08
408.547	8.08
408.991	8.06
409.435	8.05
409.879	8.05
410.322	8.06
410.766	8.06
411.209	8.06
411.653	8.04
412.096	8.02
412.54	8.01
412.983	8.01
413.426	8.01
413.869	8.03
414.312	8.06
414.756	8.07
415.199	8.06
415.642	8.08
416.085	8.09
416.527	8.11
416.97	8.12
417.413	8.12
417.856	8.1
418.298	8.08
418.741	8.07
419.184	8.04
419.626	8.02
420.069	8.01
420.511	8
420.953	7.98
421.396	7.97
421.838	7.95
422.28	7.98
422.722	7.99
423.164	8.01
423.606	7.99
424.048	7.99
424.49	8.01
424.932	8
425.374	7.99
425.816	7.99
426.258	7.97
426.699	7.95
427.141	7.91
427.582	7.89
428.024	7.87
428.465	7.88
428.907	7.89
429.348	7.88
429.789	7.88
430.231	7.85
430.672	7.86
431.113	7.87
431.554	7.88
431.995	7.89
432.436	7.88
432.877	7.87
433.318	7.85
433.759	7.82
434.2	7.8
434.64	7.81
435.081	7.81
435.522	7.8
435.962	7.81
436.403	7.82
436.843	7.85
437.284	7.88
437.724	7.93
438.164	7.94
438.604	7.97
439.045	8
439.485	8.01
439.925	8.03
440.365	8.05
440.805	8.05
441.245	8.03
441.685	8.04
442.125	8.03
442.564	8.01
443.004	8.02
443.444	8.03
443.883	8.03
444.323	8.03
444.762	8.06
445.202	8.09
445.641	8.12
446.081	8.16
446.52	8.17
446.959	8.19
447.398	8.24
447.837	8.27
448.276	8.29
448.716	8.31
449.154	8.36
449.593	8.38
450.032	8.39
450.471	8.4
450.91	8.41
451.349	8.42
451.787	8.44
452.226	8.41
452.664	8.41
453.103	8.41
453.541	8.43
453.98	8.42
454.418	8.38
454.856	8.36
455.295	8.34
455.733	8.33
456.171	8.33
456.609	8.32
457.047	8.32
457.485	8.31
457.923	8.31
458.361	8.28
458.798	8.29
459.236	8.29
459.674	8.29
460.111	8.3
460.549	8.3
460.987	8.27
461.424	8.26
461.862	8.26
462.299	8.25
462.736	8.23
463.173	8.22
463.611	8.19
464.048	8.19
464.485	8.2
464.922	8.18
465.359	8.18
465.796	8.18
466.233	8.17
466.67	8.17
467.106	8.16
467.543	8.17
467.98	8.18
468.416	8.19
468.853	8.18
469.29	8.17
469.726	8.19
470.162	8.18
470.599	8.19
471.035	8.19
471.471	8.19
471.907	8.21
472.344	8.2
472.78	8.2
473.216	8.21
473.652	8.22
474.088	8.23
474.523	8.21
474.959	8.23
475.395	8.22
475.831	8.22
476.266	8.23
476.702	8.22
477.138	8.23
477.573	8.22
478.008	8.22
478.444	8.21
478.879	8.2
479.314	8.22
479.75	8.2
480.185	8.2
480.62	8.22
481.055	8.21
481.49	8.21
481.925	8.2
482.36	8.19
482.795	8.19
483.229	8.18
483.664	8.17
484.099	8.16
484.534	8.17
484.968	8.18
485.403	8.17
485.837	8.17
486.271	8.19
486.706	8.19
487.14	8.22
487.574	8.23
488.009	8.24
488.443	8.26
488.877	8.27
489.311	8.28
489.745	8.29
490.179	8.31
490.613	8.32
491.046	8.34
491.48	8.37
491.914	8.38
492.348	8.41
492.781	8.44
493.215	8.46
493.648	8.5
494.082	8.53
494.515	8.56
494.948	8.6
495.382	8.64
495.815	8.69
496.248	8.74
496.681	8.78
497.114	8.83
497.547	8.88
497.98	8.95
498.413	9
498.846	9.05
499.279	9.13
499.711	9.19
500.144	9.26
500.577	9.32
501.009	9.39
501.442	9.47
501.874	9.55
502.306	9.64
502.739	9.72
503.171	9.83
503.603	9.94
504.036	10.04
504.468	10.16
504.9	10.28
505.332	10.39
505.764	10.52
506.196	10.65
506.627	10.79
507.059	10.92
507.491	11.07
507.923	11.22
508.354	11.37
508.786	11.53
509.217	11.69
509.649	11.86
510.08	12.06
510.512	12.23
510.943	12.43
511.374	12.62
511.805	12.82
512.237	13.03
512.668	13.24
513.099	13.46
513.53	13.67
513.961	13.89
514.391	14.12
514.822	14.34
515.253	14.57
515.684	14.78
516.114	15.03
516.545	15.26
516.975	15.5
517.406	15.74
517.836	15.98
518.267	16.23
518.697	16.47
519.127	16.72
519.558	16.96
519.988	17.21
520.418	17.44
520.848	17.67
521.278	17.92
521.708	18.08
522.138	18.3
522.567	18.51
522.997	18.73
523.427	18.94
523.857	19.13
524.286	19.33
524.716	19.51
525.145	19.73
525.575	19.92
526.004	20.1
526.433	20.34
526.863	20.53
527.292	20.71
527.721	20.88
528.15	21.03
528.579	21.19
529.008	21.34
529.437	21.48
529.866	21.6
530.295	21.72
530.724	21.85
531.152	21.96
531.581	22.07
532.01	22.16
532.438	22.24
532.867	22.34
533.295	22.43
533.723	22.51
534.152	22.59
534.58	22.67
535.008	22.72
535.436	22.76
535.865	22.82
536.293	22.85
536.721	22.93
537.149	22.97
537.576	23
538.004	23.04
538.432	23.08
538.86	23.11
539.287	23.13
539.715	23.18
540.143	23.21
540.57	23.25
540.998	23.3
541.425	23.29
541.852	23.32
542.28	23.33
542.707	23.34
543.134	23.36
543.561	23.38
543.988	23.41
544.415	23.43
544.842	23.47
545.269	23.49
545.696	23.5
546.123	23.53
546.549	23.54
546.976	23.58
547.403	23.6
547.829	23.62
548.256	23.65
548.682	23.65
549.108	23.67
549.535	23.67
549.961	23.66
550.387	23.67
550.813	23.67
551.24	23.68
551.666	23.68
552.092	23.67
552.518	23.66
552.943	23.66
553.369	23.65
553.795	23.65
554.221	23.63
554.646	23.62
555.072	23.59
555.498	23.55
555.923	23.5
556.349	23.45
556.774	23.4
557.199	23.37
557.625	23.3
558.05	23.24
558.475	23.16
558.9	23.09
559.325	23
559.75	22.91
560.175	22.84
560.6	22.78
561.025	22.69
561.449	22.59
561.874	22.46
562.299	22.35
562.723	22.23
563.148	22.11
563.572	22
563.997	21.87
564.421	21.74
564.846	21.61
565.27	21.47
565.694	21.33
566.118	21.19
566.542	21.06
566.966	20.93
567.39	20.79
567.814	20.64
568.238	20.48
568.662	20.33
569.086	20.21
569.509	20.07
569.933	19.91
570.357	19.76
570.78	19.62
571.204	19.47
571.627	19.33
572.05	19.19
572.474	19.05
572.897	18.95
573.32	18.83
573.743	18.7
574.166	18.58
574.589	18.47
575.012	18.39
575.435	18.28
575.858	18.19
576.281	18.08
576.704	18.01
577.126	17.92
577.549	17.84
577.972	17.76
578.394	17.66
578.817	17.57
579.239	17.49
579.661	17.4
580.084	17.33
580.506	17.24
580.928	17.17
581.35	17.1
581.772	17.03
582.194	16.95
582.616	16.88
583.038	16.82
583.46	16.76
583.882	16.7
584.303	16.64
584.725	16.58
585.147	16.51
585.568	16.45
585.99	16.38
586.411	16.32
586.833	16.26
587.254	16.2
587.675	16.16
588.096	16.13
588.518	16.09
588.939	16.04
589.36	15.99
589.781	15.97
590.202	15.93
590.623	15.89
591.043	15.84
591.464	15.82
591.885	15.78
592.305	15.75
592.726	15.7
593.147	15.67
593.567	15.65
593.987	15.63
594.408	15.59
594.828	15.55
595.248	15.52
595.669	15.51
596.089	15.49
596.509	15.44
596.929	15.4
597.349	15.37
597.769	15.32
598.189	15.29
598.608	15.24
599.028	15.2
599.448	15.2
599.867	15.15
600.287	15.12
600.706	15.07
601.126	15.05
601.545	15.02
601.965	14.98
602.384	14.95
602.803	14.9
603.222	14.85
603.641	14.8
604.061	14.74
604.48	14.69
604.898	14.63
605.317	14.57
605.736	14.51
606.155	14.46
606.574	14.4
606.992	14.33
607.411	14.28
607.829	14.17
608.248	14.1
608.666	14.04
609.085	13.99
609.503	13.91
609.921	13.85
610.339	13.79
610.758	13.73
611.176	13.67
611.594	13.6
612.012	13.55
612.43	13.55
612.847	13.5
613.265	13.45
613.683	13.4
614.101	13.35
614.518	13.29
614.936	13.23
615.353	13.17
615.771	13.12
616.188	13.09
616.606	13.04
617.023	12.98
617.44	12.93
617.857	12.89
618.274	12.85
618.691	12.82
619.108	12.79
619.525	12.76
619.942	12.73
620.359	12.71
620.776	12.69
621.192	12.67
621.609	12.63
622.026	12.61
622.442	12.57
622.859	12.55
623.275	12.53
623.691	12.52
624.108	12.51
624.524	12.5
624.94	12.48
625.356	12.47
625.772	12.46
626.188	12.47
626.604	12.47
627.02	12.46
627.436	12.45
627.852	12.44
628.268	12.42
628.683	12.39
629.099	12.37
629.514	12.35
629.93	12.32
630.345	12.3
630.761	12.24
631.176	12.2
631.591	12.16
632.007	12.11
632.422	12.08
632.837	12.04
633.252	11.98
633.667	11.9
634.082	11.85
634.497	11.78
634.911	11.69
635.326	11.62
635.741	11.54
636.155	11.46
636.57	11.37
636.984	11.26
637.399	11.14
637.813	11.06
638.228	10.97
638.642	10.88
639.056	10.77
639.47	10.68
639.884	10.58
640.298	10.48
640.712	10.36
641.126	10.27
641.54	10.18
641.954	10.11
642.368	10.02
642.781	9.92
643.195	9.82
643.609	9.73
644.022	9.65
644.436	9.57
644.849	9.5
645.262	9.42
645.676	9.36
646.089	9.29
646.502	9.21
646.915	9.14
647.328	9.1
647.741	9.06
648.154	9.02
648.567	8.97
648.98	8.95
649.393	8.92
649.805	8.9
650.218	8.87
650.631	8.84
651.043	8.82
651.456	8.81
651.868	8.78
652.28	8.78
652.693	8.75
653.105	8.73
653.517	8.69
653.929	8.67
654.341	8.64
654.753	8.61
655.165	8.59
655.577	8.54
655.989	8.5
656.401	8.46
656.813	8.43
657.224	8.39
657.636	8.35
658.047	8.3
658.459	8.24
658.87	8.19
659.282	8.16
659.693	8.11
660.104	8.07
660.515	8.01
660.926	7.98
661.338	7.92
661.749	7.86
662.159	7.81
662.57	7.77
662.981	7.73
663.392	7.69
663.803	7.64
664.213	7.61
664.624	7.59
665.035	7.57
665.445	7.53
665.855	7.51
666.266	7.5
666.676	7.48
667.086	7.46
667.497	7.45
667.907	7.43
668.317	7.43
668.727	7.41
669.137	7.4
669.547	7.4
669.956	7.4
670.366	7.41
670.776	7.4
671.186	7.42
671.595	7.42
672.005	7.44
672.414	7.46
672.824	7.48
673.233	7.51
673.642	7.52
674.052	7.54
674.461	7.55
674.87	7.58
675.279	7.6
675.688	7.62
676.097	7.66
676.506	7.69
676.915	7.72
677.323	7.75
677.732	7.78
678.141	7.84
678.549	7.89
678.958	7.95
679.366	7.98
679.775	8.05
680.183	8.12
680.592	8.18
681	8.24
681.408	8.33
681.816	8.4
682.224	8.49
682.632	8.59
683.04	8.69
683.448	8.81
683.856	8.94
684.264	9.08
684.671	9.25
685.079	9.41
685.487	9.6
685.894	9.79
686.302	10.01
686.709	10.25
687.116	10.5
687.524	10.76
687.931	11.03
688.338	11.35
688.745	11.68
689.152	12.02
689.559	12.41
689.966	12.79
690.373	13.23
690.78	13.66
691.187	14.11
691.593	14.58
692	15.07
692.407	15.58
692.813	16.09
693.22	16.62
693.626	17.14
694.032	17.67
694.439	18.24
694.845	18.77
695.251	19.34
695.657	19.87
696.063	20.43
696.469	21
696.875	21.55
697.281	22.09
697.687	22.63
698.093	23.19
698.498	23.74
698.904	24.28
699.31	24.8
699.715	25.33
700.12	25.87
700.526	26.38
700.931	26.89
701.337	27.39
701.742	27.9
702.147	28.39
702.552	28.91
702.957	29.38
703.362	29.87
703.767	30.34
704.172	30.8
704.577	31.28
704.981	31.73
705.386	32.14
705.791	32.57
706.195	32.97
706.6	33.39
707.004	33.78
707.408	34.16
707.813	34.54
708.217	34.91
708.621	35.29
709.025	35.66
709.43	36.02
709.834	36.42
710.237	36.77
710.641	37.16
711.045	37.48
711.449	37.83
711.853	38.19
712.256	38.52
712.66	38.86
713.064	39.16
713.467	39.47
713.87	39.78
714.274	40.09
714.677	40.42
715.08	40.71
715.484	41.04
715.887	41.3
716.29	41.57
716.693	41.87
717.096	42.17
717.499	42.44
717.901	42.7
718.304	42.98
718.707	43.22
719.109	43.45
719.512	43.72
719.915	43.94
720.317	44.2
720.719	44.46
721.122	44.71
721.524	44.94
721.926	45.16
722.328	45.39
722.731	45.59
723.133	45.82
723.535	46.02
723.937	46.21
724.338	46.37
724.74	46.53
725.142	46.61
725.544	46.74
725.945	46.86
726.347	47.02
726.748	47.13
727.15	47.26
727.551	47.41
727.952	47.54
728.354	47.69
728.755	47.87
729.156	48.02
729.557	48.24
729.958	48.38
730.359	48.53
730.76	48.62
731.161	48.75
731.562	48.87
731.962	48.95
732.363	49.03
732.763	49.12
733.164	49.18
733.564	49.24
733.965	49.27
734.365	49.33
734.766	49.39
735.166	49.45
735.566	49.48
735.966	49.5
736.366	49.55
736.766	49.59
737.166	49.67
737.566	49.72
737.966	49.77
738.365	49.85
738.765	49.91
739.165	49.96
739.564	50.04
739.964	50.11
740.363	50.15
740.763	50.18
741.162	50.22
741.561	50.23
741.96	50.27
742.36	50.33
742.759	50.32
743.158	50.32
743.557	50.34
743.955	50.36
744.354	50.4
744.753	50.47
745.152	50.48
745.55	50.54
745.949	50.59
746.348	50.63
746.746	50.66
747.144	50.71
747.543	50.77
747.941	50.81
748.339	50.85
748.737	50.89
749.136	50.91
749.534	50.98
749.932	50.99
750.33	50.99
750.727	51.01
751.125	51.05
751.523	51.08
751.921	51.09
752.318	51.11
752.716	51.11
753.113	51.1
753.511	51.07
753.908	51.04
754.305	51.01
754.703	50.99
755.1	50.95
755.497	50.92
755.894	50.92
756.291	50.92
756.688	50.91
757.085	50.87
757.482	50.86
757.878	50.89
758.275	50.89
758.672	50.91
759.068	50.9
759.465	50.9
759.861	50.86
760.258	50.78
760.654	50.75
761.05	50.73
761.447	50.71
761.843	50.7
762.239	50.66
762.635	50.66
763.031	50.64
763.427	50.61
763.822	50.57
764.218	50.55
764.614	50.57
765.01	50.55
765.405	50.52
765.801	50.5
766.196	50.5
766.592	50.49
766.987	50.48
767.382	50.45
767.778	50.49
768.173	50.51
768.568	50.5
768.963	50.5
769.358	50.48
769.753	50.5
770.148	50.51
770.542	50.48
770.937	50.46
771.332	50.42
771.726	50.39
772.121	50.33
772.515	50.33
772.91	50.35
773.304	50.36
773.699	50.37
774.093	50.34
774.487	50.35
774.881	50.38
775.275	50.4
775.669	50.41
776.063	50.44
776.457	50.44
776.851	50.38
777.245	50.39
777.638	50.34
778.032	50.33
778.425	50.32
778.819	50.31
779.212	50.27
779.606	50.2
779.999	50.21
780.392	50.21
780.786	50.23
781.179	50.27
781.572	50.24
781.965	50.27
782.358	50.25
782.751	50.27
783.143	50.25
783.536	50.29
783.929	50.37
784.322	50.38
784.714	50.42
785.107	50.45
785.499	50.45
785.891	50.46
786.284	50.46
786.676	50.51
787.068	50.51
787.46	50.53
787.852	50.5
788.245	50.48
788.636	50.5
789.028	50.48
789.42	50.47
789.812	50.48
790.204	50.46
790.595	50.46
790.987	50.41
791.378	50.41
791.77	50.42
792.161	50.44
792.553	50.44
792.944	50.43
793.335	50.43
793.726	50.41
794.117	50.4
794.508	50.44
794.899	50.46
795.29	50.47
795.681	50.51
796.072	50.5
796.463	50.45
796.853	50.45
797.244	50.44
797.634	50.41
798.025	50.42
798.415	50.44
798.806	50.44
799.196	50.44
799.586	50.47
799.976	50.46
800.366	50.46
800.756	50.51
801.146	50.54
801.536	50.55
801.926	50.57
802.316	50.6
802.706	50.58
803.095	50.57
803.485	50.6
803.874	50.61
804.264	50.63
804.653	50.6
805.043	50.61
805.432	50.59
805.821	50.57
806.21	50.61
806.599	50.64
806.988	50.66
807.377	50.7
807.766	50.71
808.155	50.73
808.544	50.72
808.933	50.76
809.321	50.81
809.71	50.85
810.098	50.88
810.487	50.88
810.875	50.86
811.264	50.86
811.652	50.83
812.04	50.82
812.428	50.81
812.816	50.85
813.204	50.86
813.592	50.81
813.98	50.79
814.368	50.79
814.756	50.81
815.144	50.84
815.531	50.85
815.919	50.86
816.306	50.85
816.694	50.88
817.081	50.84
817.469	50.82
817.856	50.87
818.243	50.9
818.63	50.94
819.017	50.94
819.404	50.9
819.791	50.93
820.178	50.94
820.565	50.96
820.952	50.95
821.339	50.98
821.725	51.04
822.112	51.04
822.498	51.05
822.885	51.04
823.271	51.03
823.657	51.06
824.044	51.04
824.43	51.11
824.816	51.1
825.202	51.13
825.588	51.14
825.974	51.12
826.36	51.12
826.746	51.12
827.132	51.1
827.517	51.11
827.903	51.14
828.289	51.13
828.674	51.08
829.06	51.09
829.445	51.07
829.83	51.05
830.216	51.05
830.601	51.01
830.986	51.03
831.371	51.06
831.756	51.03
832.141	51.01
832.526	51.03
832.911	51.07
833.295	51.06
833.68	51.08
834.065	51.12
834.449	51.1
834.834	51.12
835.218	51.09
835.603	51.07
835.987	51.09
836.371	51.08
836.755	51.05
837.139	51
837.524	51
837.908	50.94
838.291	50.92
838.675	50.93
839.059	50.91
839.443	50.89
839.827	50.87
840.21	50.87
840.594	50.86
840.977	50.85
841.361	50.85
841.744	50.85
842.127	50.87
842.511	50.84
842.894	50.84
843.277	50.86
843.66	50.86
844.043	50.86
844.426	50.85
844.809	50.84
845.191	50.83
845.574	50.81
845.957	50.76
846.339	50.77
846.722	50.78
847.104	50.76
847.487	50.78
847.869	50.77
848.252	50.78
848.634	50.78
849.016	50.81
849.398	50.84
849.78	50.85
850.162	50.89
850.544	50.92
850.926	50.91
851.307	50.92
851.689	50.87
852.071	50.89
852.452	50.88
852.834	50.88
853.215	50.85
853.597	50.82
853.978	50.78
854.359	50.76
854.741	50.72
855.122	50.72
855.503	50.71
855.884	50.72
856.265	50.75
856.646	50.74
857.026	50.73
857.407	50.7
857.788	50.73
858.169	50.76
858.549	50.77
858.93	50.74
859.31	50.74
859.69	50.71
860.071	50.73
860.451	50.69
860.831	50.7
861.211	50.69
861.591	50.72
861.971	50.69
862.351	50.72
862.731	50.73
863.111	50.76
863.491	50.76
863.87	50.78
864.25	50.78
864.629	50.79
865.009	50.79
865.388	50.8
865.768	50.8
866.147	50.81
866.526	50.78
866.905	50.76
867.284	50.75
867.663	50.74
868.042	50.72
868.421	50.7
868.8	50.68
869.179	50.66
869.558	50.63
869.936	50.62
870.315	50.63
870.693	50.6
871.072	50.6
871.45	50.59
871.828	50.6
872.207	50.63
872.585	50.6
872.963	50.59
873.341	50.61
873.719	50.6
874.097	50.59
874.475	50.57
874.853	50.59
875.23	50.56
875.608	50.56
875.986	50.53
876.363	50.53
876.741	50.55
877.118	50.54
877.495	50.52
877.873	50.49
878.25	50.49
878.627	50.49
879.004	50.5
879.381	50.52
879.758	50.5
880.135	50.51
880.512	50.5
880.889	50.5
881.265	50.51
881.642	50.51
882.019	50.56
882.395	50.59
882.772	50.58
883.148	50.6
883.524	50.61
883.901	50.63
884.277	50.65
884.653	50.69
885.029	50.69
885.405	50.71
885.781	50.7
886.157	50.69
886.532	50.67
886.908	50.71
887.284	50.7
887.659	50.72
888.035	50.7
888.411	50.69
888.786	50.65
889.161	50.63
889.537	50.64
889.912	50.64
890.287	50.63
890.662	50.61
891.037	50.54
891.412	50.5
891.787	50.45
892.162	50.45
892.536	50.42
892.911	50.38
893.286	50.36
893.66	50.32
894.035	50.29
894.409	50.26
894.784	50.22
895.158	50.24
895.532	50.21
895.906	50.23
896.281	50.18
896.655	50.16
897.029	50.14
897.402	50.15
897.776	50.13
898.15	50.14
898.524	50.13
898.898	50.14
899.271	50.12
899.645	50.12
900.018	50.07
900.392	50.09
900.765	50.12
901.138	50.14
901.511	50.11
901.884	50.12
902.258	50.1
902.631	50.1
903.003	50.08
903.376	50.06
903.749	50.06
904.122	50.08
904.495	50.1
904.867	50.05
905.24	50.03
905.612	50.01
905.985	49.97
906.357	49.94
906.729	49.93
907.102	49.94
907.474	49.95
907.846	49.93
908.218	49.92
908.59	49.92
908.962	49.92
909.334	49.92
909.705	49.95
910.077	49.96
910.449	50
910.82	49.98
911.192	49.98
911.563	49.94
911.935	49.96
912.306	49.95
912.677	49.95
913.048	49.92
913.419	49.91
913.79	49.9
914.161	49.88
914.532	49.86
914.903	49.88
915.274	49.86
915.645	49.95
916.015	49.98
916.386	49.95
916.756	49.93
917.127	49.94
917.497	49.96
917.868	49.94
918.238	49.97
918.608	49.96
918.978	49.95
919.348	49.94
919.718	49.85
920.088	49.8
920.458	49.82
920.828	49.82
921.198	49.84
921.567	49.82
921.937	49.82
922.306	49.81
922.676	49.84
923.045	49.8
923.415	49.76
923.784	49.79
924.153	49.8
924.522	49.78
924.891	49.77
925.26	49.73
925.629	49.73
925.998	49.73
926.367	49.7
926.736	49.63
927.104	49.68
927.473	49.74
927.842	49.7
928.21	49.69
928.578	49.67
928.947	49.66
929.315	49.66
929.683	49.64
930.051	49.63
930.42	49.62
930.788	49.64
931.156	49.6
931.523	49.56
931.891	49.51
932.259	49.44
932.627	49.37
932.994	49.36
933.362	49.26
933.729	49.17
934.097	49.07
934.464	49.03
934.831	48.95
935.199	48.89
935.566	48.77
935.933	48.75
936.3	48.7
936.667	48.65
937.034	48.56
937.401	48.53
937.767	48.5
938.134	48.45
938.501	48.36
938.867	48.37
939.234	48.36
939.6	48.4
939.967	48.39
940.333	48.48
940.699	48.54
941.065	48.57
941.431	48.65
941.798	48.74
942.163	48.82
942.529	48.93
942.895	48.98
943.261	49.04
943.627	49.12
943.992	49.22
944.358	49.21
944.723	49.23
945.089	49.22
945.454	49.27
945.82	49.27
946.185	49.35
946.55	49.38
946.915	49.39
947.28	49.37
947.645	49.34
948.01	49.28
948.375	49.28
948.74	49.26
949.104	49.31
949.469	49.2
949.834	49.16
950.198	49.09
950.562	49.04
950.927	49.01
951.291	49.02
951.655	48.95
952.02	48.98
952.384	49
952.748	48.97
953.112	48.9
953.476	48.93
953.839	48.91
954.203	48.84
954.567	48.88
954.931	48.83
955.294	48.76
955.658	48.8
956.021	48.82
956.385	48.76
956.748	48.75
957.111	48.78
957.474	48.79
957.837	48.81
958.2	48.8
958.563	48.71
958.926	48.72
959.289	48.78
959.652	48.75
960.015	48.65
960.377	48.64
960.74	48.6
961.102	48.6
961.465	48.58
961.827	48.41
962.189	48.39
962.552	48.34
962.914	48.29
963.276	48.27
963.638	48.18
964	48.16
964.362	48.17
964.724	48.21
965.085	48.19
965.447	48.2
965.809	48.27
966.17	48.33
966.532	48.4
966.893	48.36
967.255	48.33
967.616	48.37
967.977	48.32
968.338	48.23
968.699	48.15
969.061	48.1
969.421	48.03
969.782	47.99
970.143	47.93
970.504	47.86
970.865	47.81
971.225	47.75
971.586	47.8
971.946	47.88
972.307	47.93
972.667	47.98
973.027	48.04
973.388	48.09
973.748	48.16
974.108	48.17
974.468	48.19
974.828	48.23
975.188	48.3
975.548	48.25
975.907	48.28
976.267	48.21
976.627	48.12
976.986	48.05
977.346	47.96
977.705	47.95
978.064	47.93
978.424	47.89
978.783	47.95
979.142	47.8
979.501	47.72
979.86	47.63
980.219	47.56
980.578	47.61
980.937	47.6
981.296	47.57
981.654	47.55
982.013	47.6
982.371	47.59
982.73	47.49
983.088	47.53
983.447	47.58
983.805	47.57
984.163	47.63
984.521	47.58
984.879	47.59
985.237	47.62
985.595	47.54
985.953	47.44
986.311	47.53
986.669	47.53
987.026	47.58
987.384	47.54
987.741	47.5
988.099	47.49
988.456	47.48
988.814	47.49
989.171	47.46
989.528	47.48
989.885	47.5
990.242	47.36
990.599	47.38
990.956	47.41
991.313	47.39
991.67	47.48
992.027	47.4
992.383	47.43
992.74	47.33
993.096	47.3
993.453	47.33
993.809	47.34
994.165	47.44
994.522	47.4
994.878	47.26
995.234	47.22
995.59	47.06
995.946	47.16
996.302	47.04
996.658	47.06
997.013	47.12
997.369	47.14
997.725	47.1
998.08	46.87
998.436	47.06
998.791	47.18
999.147	47.24
999.502	47.23
999.857	47.1
1000.212	47.15
1000.567	47.26
1000.922	47.2
1001.277	47.1
1001.632	47.1
1001.987	47.06
1002.342	46.87
1002.696	46.74
1003.051	46.67
1003.406	46.64
1003.76	46.59
1004.114	46.61
1004.469	46.43
1004.823	46.44
1005.177	46.5
1005.531	46.43
1005.885	46.64
1006.239	46.52
1006.593	46.55
1006.947	46.42
1007.301	46.48
1007.655	46.58
1008.008	46.38
1008.362	46.39
1008.715	46.32
1009.069	46.07
1009.422	45.89
1009.776	45.72
1010.129	45.61
1010.482	45.56
1010.835	45.63
1011.188	45.59
1011.541	45.31
1011.894	45.3
1012.247	45.17
1012.6	45.07
1012.952	45.33
1013.305	45.23
1013.657	45.22
1014.01	45.49
1014.362	45.47
1014.715	45.35
1015.067	45.29
1015.419	45.41
1015.771	45.49
1016.123	45.39
1016.475	45.5
1016.827	45.19
1017.179	45.25
1017.531	45.28
1017.883	45.28
1018.234	45.08
1018.586	45.09
1018.938	44.87
1019.289	44.93
1019.64	44.96
1019.992	45.28
1020.343	44.97
1020.694	44.78
1021.045	44.63
1021.396	44.51
1021.747	44.17
1022.098	44.37
1022.449	44.31
1022.8	44.35
1023.151	44.04
1023.501	43.85
1023.852	43.51
1024.202	43.7
1024.553	44
1024.903	44.08
1025.253	44.09
1025.604	44.02
1025.954	43.68
1026.304	43.85
1026.654	44.1
1027.004	44.32
1027.354	44.41
1027.703	44.11
1028.053	43.49
1028.403	42.92
1028.753	43.12
1029.102	42.8
1029.452	42.77
1029.801	42.75
1030.15	42.48
1030.499	42.12
897.758	391.07
901.051	399.88
904.343	405.85
907.636	400.65
910.928	394.72
914.22	397.73
917.511	387.04
920.803	376.51
924.094	360.15
927.384	362.86
930.675	354.1
933.965	353.31
937.255	350.21
940.544	333.74
943.834	315.52
947.123	313.02
950.411	297.67
953.7	295.84
956.988	284.53
960.276	275.82
963.563	273.57
966.851	257.98
970.138	253.37
973.424	237.97
976.711	236.27
979.997	232.38
983.283	226.42
986.568	221.05
989.853	214.13
993.138	207.65
996.423	204.61
999.708	198.8
1002.992	199.72
1006.275	194.79
1009.559	193.85
1012.842	188.69
1016.125	182.15
1019.408	179.37
1022.69	178.52
1025.972	177.07
1029.254	173.44
1032.536	170.61
1035.817	164.43
1039.098	163.07
1042.379	161.21
1045.659	159.08
1048.939	157.88
1052.219	155.46
1055.498	153.15
1058.778	150.84
1062.057	149.79
1065.335	148.88
1068.614	145.55
1071.892	145.36
1075.17	142.11
1078.447	139.02
1081.724	138.7
1085.001	135.24
1088.278	135.82
1091.554	135.35
1094.83	134.09
1098.106	131.91
1101.382	130.62
1104.657	130.93
1107.932	130.25
1111.206	130.4
1114.481	128.89
1117.755	127.46
1121.029	127.43
1124.302	125.48
1127.575	123.61
1130.848	123.17
1134.121	121.37
1137.393	121.31
1140.665	120.68
1143.937	119.07
1147.208	117.46
1150.48	117.14
1153.75	116.3
1157.021	116.47
1160.291	116.1
1163.561	115.28
1166.831	114.97
1170.101	114.7
1173.37	113.37
1176.639	112.53
1179.907	112.51
1183.176	111.83
1186.444	111.87
1189.711	111.68
1192.979	111.15
1196.246	111.66
1199.513	111.45
1202.78	110.88
1206.046	110.91
1209.312	112.44
1212.578	113.04
1215.843	113.97
1219.108	115.43
1222.373	117.17
1225.638	118.31
1228.902	120.7
1232.166	123.74
1235.43	125.2
1238.693	128.57
1241.956	130.33
1245.219	132.69
1248.482	133.82
1251.744	134.39
1255.006	135.16
1258.268	130.83
1261.529	130.25
1264.79	128.01
1268.051	125.09
1271.312	124.43
1274.572	122.02
1277.832	120.49
1281.092	118.76
1284.351	116.21
1287.61	115.82
1290.869	115.42
1294.128	116.21
1297.386	114.91
1300.644	114.22
1303.902	113.7
1307.159	112.72
1310.416	113.54
1313.673	114.51
1316.93	115.61
1320.186	117.78
1323.442	118.35
1326.697	119.15
1329.953	119.84
1333.208	123.15
1336.463	127.51
1339.717	129.95
1342.972	135.65
1346.226	138.06
1349.479	138.46
1352.733	143.11
1355.986	145.09
1359.238	148.41
1362.491	148.36
1365.743	153.2
1368.995	154.92
1372.247	154.81
1375.498	154.08
1378.749	158.48
1382	159.32
1385.251	158.23
1388.501	158.71
1391.751	159.22
1395	156.27
1398.25	159.17
1401.499	157.55
1404.748	156.47
1407.996	150.24
1411.244	150.43
1414.492	147.76
1417.74	142.77
1420.987	140.43
1424.234	136.55
1427.481	131.44
1430.728	129.1
1433.974	123.53
1437.22	120.89
1440.465	116.96
1443.711	114.93
1446.956	111.98
1450.201	107.29
1453.445	102.34
1456.689	99.6
1459.933	97.25
1463.177	93.44
1466.42	92.63
1469.663	90.32
1472.906	86.96
1476.148	84.29
1479.391	82.76
1482.633	80.85
1485.874	80.05
1489.115	80.16
1492.356	78.79
1495.597	77.37
1498.838	77.84
1502.078	76.7
1505.318	76.59
1508.557	76.14
1511.797	76.61
1515.036	76.57
1518.274	77.01
1521.513	76.27
1524.751	75.64
1527.989	76.38
1531.227	76.11
1534.464	76.03
1537.701	75.61
1540.938	75.23
1544.174	75.94
1547.41	75.74
1550.646	75.59
1553.882	74.93
1557.117	75.09
1560.352	75.45
1563.587	75.01
1566.821	75.06
1570.055	74.67
1573.289	75.04
1576.523	74.92
1579.756	74.94
1582.989	75.22
1586.222	75.29
1589.454	75.76
1592.686	76.01
1595.918	75.3
1599.15	75.4
1602.381	75.52
1605.612	75.82
1608.843	75.83
1612.073	76.67
1615.303	76.25
1618.533	76.24
1621.762	75.55
1624.992	75.36
1628.221	74.82
1631.449	75.68
1634.678	76.01
1637.906	75.85
1641.134	76.21
1644.361	75.9
1647.588	75.49
1650.815	76.02
1654.042	75.65
1657.269	76.35
1660.495	76.82
1663.72	76.89
1666.946	76.56
1670.171	76.66
1673.396	77.75
1676.621	77.16
1679.845	77.46
1683.069	77.84
1686.293	77.61
1689.517	77.8
1692.74	78.14
1695.963	77.74
1699.185	78.22
1702.408	77.91
1705.63	77.83
1708.852	77.95
1712.073	78.31
1715.294	78.37
1718.515	78.7
1721.736	78.43
1724.956	78.95
1728.176	78.43
1731.396	78.73
1734.616	78.63
1737.835	79.12
1741.054	78.67
1744.272	78.25
1747.491	78.19
1750.709	78.77
1753.927	78.32
1757.144	78.41
1760.361	78.16
1763.578	79.18
1766.795	79.43
1770.011	79.73
1773.227	80
1776.443	81.18
1779.658	80.5
1782.874	81.14
1786.089	80.47
1789.303	80.67
1792.518	81.09
1795.732	81.75
1798.945	82.06
1802.159	82.6
1805.372	83.07
1808.585	83.62
1811.797	83.61
1815.01	84.65
1818.222	85.05
1821.434	85.97
1824.645	86.39
1827.856	87.52
1831.067	87.62
1834.278	87.63
1837.488	88.21
1840.698	88.93
1843.908	88.98
1847.117	89.28
1850.326	89.72
1853.535	91.23
1856.744	91.21
1859.952	92.32
1863.16	91.86
1866.368	91.4
1869.575	92.06
1872.782	90.59
1875.989	88.24
1879.196	88.65
1882.402	87.88
1885.608	87.98
1888.814	85.99
1892.019	87.18
1895.224	85.09
1898.429	85.66
1901.634	85.8
1904.838	85.5
1908.042	86.17
1911.246	86.86
1914.449	86.33
1917.652	86.34
1920.855	86.97
1924.058	86.28
1927.26	85
1930.462	86.07
1933.664	86.01
1936.865	86.06
1940.066	84.53
1943.267	84.18
1946.467	86.57
1949.668	85.94
1952.868	86.1
1956.067	85.37
1959.267	86.22
1962.466	86.72
1965.665	86.49
1968.863	87.82
1972.061	89.38
1975.259	91.31
1978.457	92.14
1981.654	91.08
1984.852	92.98
1988.048	94.22
1991.245	95.42
1994.441	97.11
1997.637	98.81
2000.833	102.4
2004.028	101.69
2007.223	103.65
2010.418	105.86
2013.613	111.95
2016.807	115.37
2020.001	117.17
2023.194	120.45
2026.388	124.15
2029.581	131.22
2032.774	135.06
2035.966	137.65
2039.158	142.62
2042.35	143.45
2045.542	146.37
2048.733	148.93
2051.924	149.48
2055.115	152.14
2058.306	153.86
2061.496	157.44
2064.686	155.51
2067.875	154.12
2071.065	157.08
2074.254	156.39
2077.442	162.43
2080.631	163.91
2083.819	164.43
2087.007	168.25
2090.195	170.82
2093.382	170.43
2096.569	170.25
2099.756	172.61
2102.942	177.63
2106.128	179.12
2109.314	183.25
2112.5	182.33
2115.685	179.01
2118.87	180.46
2122.055	181.46
2125.239	183.51
2128.424	189.79
2131.608	186.6
2134.791	187.1
2137.974	188.29
2141.157	190.61
2144.34	190.29
2147.523	193.55
2150.705	200.62
2153.887	199.33
2157.068	201.99
2160.25	204.35
2163.431	203.34
2166.611	207.45
2169.792	209.6
2172.972	213.33
2176.152	213.67
2179.331	218.49
2182.511	219.98
2185.69	220.7
2188.868	226.13
2192.047	233.11
2195.225	237.49
2198.403	236.54
2201.58	237.13
2204.758	246.41
2207.935	244.58
2211.111	249.8
2214.288	250.72
2217.464	252.79
2220.64	256.76
2223.815	257.13
2226.991	250.92
2230.166	253.66
2233.34	261.91
2236.515	267.36
2239.689	263.03
2242.863	270.13
2246.036	266.75
2249.209	273.03
2252.382	271.88
2255.555	281.89
2258.727	286.65
2261.9	296.45
2265.071	298.41
2268.243	296.81
2271.414	304.69
2274.585	312.63
2277.756	312.49
2280.926	322.54
2284.096	324.25
2287.266	324.72
2290.436	320.6
2293.605	325.25
2296.774	338.36
2299.942	336.95
2303.111	348.3
2306.279	356.2
2309.447	357.13
2312.614	358.74
2315.781	363.71
2318.948	367.42
2322.115	375.89
2325.281	389.65
2328.447	386.2
2331.613	387.43
2334.779	395.25
2337.944	396.46
2341.109	403.27
2344.274	408.31
2347.438	415.99
2350.602	426.29
2353.766	455.41
2356.929	457.56
2360.092	467.5
2363.255	470.92
2366.418	475
2369.58	480.33
2372.742	488.46
2375.904	486.41
2379.066	497.93
2382.227	520.14
2385.388	519.62
2388.548	495.49
2391.709	490.86
2394.869	501.66
2398.029	508.02
2401.188	504.44
2404.347	521.77
2407.506	534.75
2410.665	512.98
2413.823	519.86
2416.981	527.87
2420.139	502.65
2423.296	539.26
2426.453	569.35
2429.61	541.21
2432.767	573.76
2435.923	598.84
2439.079	581.31
2442.235	593.99
2445.391	610.96
2448.546	598.65
2451.701	632.64
2454.855	669.36
2458.009	593.13
2461.163	616.32
2464.317	626.18
2467.471	613.97
2470.624	626.02
2473.777	615.03
2476.929	599.44
2480.082	637.4
2483.234	669.83
2486.385	679.44
2489.537	697.7
2492.688	768.61
2495.839	749.43
2498.989	772.18
2502.14	766.2
2505.29	746.86
2508.439	820.81
2511.589	834.45
2514.738	815.75
2517.887	811.35
2521.035	759.88
2524.183	752.82
2527.331	742.61
2530.479	721.78
2533.627	738.08
