Data from C_2_div_pa_2n_086_Splice17_15.txt Node
Date: Sat Feb 29 14:16:25 EST 2020
User: sa697716
Spectrometer: FLMS03696
Trigger mode: 0
Integration Time (sec): 3.180400E-1
Scans to average: 20
Electric dark correction enabled: true
Nonlinearity correction enabled: true
Boxcar width: 5
XAxis mode: Wavelengths
Number of Pixels in Spectrum: 2048
>>>>>Begin Spectral Data<<<<<
187.83	103.18
188.298	101.54
188.766	92.76
189.233	82.55
189.701	77.01
190.169	83.36
190.636	93.24
191.104	94.43
191.571	391.5
192.039	342.92
192.506	-313.96
192.974	3450.32
193.441	-362.29
193.908	85.53
194.375	67.5
194.842	67.69
195.31	56.7
195.777	88.75
196.244	39.76
196.711	41.61
197.177	42.89
197.644	43.41
198.111	42.96
198.578	42.15
199.045	43.06
199.511	42.76
199.978	42.75
200.445	43.01
200.911	43.23
201.378	43.57
201.844	44.29
202.31	44.67
202.777	44.28
203.243	44.75
203.709	45.29
204.176	44.99
204.642	45.28
205.108	45.59
205.574	45.94
206.04	45.68
206.506	45.77
206.972	45.81
207.438	45.33
207.903	45.47
208.369	44.77
208.835	44.55
209.301	44.37
209.766	44.03
210.232	43.52
210.697	43.14
211.163	42.97
211.628	42.44
212.094	41.93
212.559	41.22
213.024	40.42
213.49	40.13
213.955	39.73
214.42	39.2
214.885	38.39
215.35	37.77
215.815	36.26
216.28	35.13
216.745	33.88
217.21	32.27
217.675	31.06
218.14	29.82
218.604	28.53
219.069	27.47
219.534	26.54
219.998	25.78
220.463	24.99
220.927	24.42
221.392	23.8
221.856	23.33
222.32	22.94
222.785	22.51
223.249	22.13
223.713	21.84
224.177	21.49
224.642	21.16
225.106	20.84
225.57	20.54
226.034	20.28
226.497	20.04
226.961	19.73
227.425	19.44
227.889	19.19
228.353	18.95
228.816	18.68
229.28	18.4
229.744	18.21
230.207	17.99
230.671	17.79
231.134	17.55
231.597	17.3
232.061	17.09
232.524	16.9
232.987	16.7
233.45	16.48
233.914	16.28
234.377	16.14
234.84	15.93
235.303	15.75
235.766	15.56
236.229	15.41
236.691	15.26
237.154	15.1
237.617	14.96
238.08	14.82
238.542	14.69
239.005	14.57
239.468	14.4
239.93	14.28
240.393	14.15
240.855	14.04
241.317	13.92
241.78	13.84
242.242	13.71
242.704	13.57
243.166	13.46
243.629	13.35
244.091	13.25
244.553	13.16
245.015	13.07
245.477	12.97
245.939	12.86
246.4	12.75
246.862	12.66
247.324	12.58
247.786	12.5
248.247	12.43
248.709	12.35
249.17	12.26
249.632	12.17
250.093	12.06
250.555	11.99
251.016	11.92
251.477	11.85
251.939	11.77
252.4	11.69
252.861	11.62
253.322	11.55
253.783	11.5
254.244	11.43
254.705	11.37
255.166	11.33
255.627	11.28
256.088	11.22
256.549	11.16
257.009	11.1
257.47	11.05
257.931	11
258.391	10.93
258.852	10.86
259.312	10.81
259.773	10.75
260.233	10.69
260.694	10.64
261.154	10.58
261.614	10.53
262.074	10.48
262.534	10.42
262.994	10.38
263.455	10.33
263.915	10.29
264.374	10.22
264.834	10.18
265.294	10.13
265.754	10.07
266.214	10.02
266.673	9.97
267.133	9.92
267.593	9.88
268.052	9.82
268.512	9.77
268.971	9.73
269.431	9.7
269.89	9.66
270.349	9.62
270.809	9.6
271.268	9.57
271.727	9.54
272.186	9.51
272.645	9.47
273.104	9.44
273.563	9.42
274.022	9.38
274.481	9.35
274.94	9.31
275.399	9.27
275.857	9.23
276.316	9.19
276.775	9.14
277.233	9.1
277.692	9.06
278.15	9.02
278.609	8.98
279.067	8.93
279.525	8.9
279.984	8.87
280.442	8.83
280.9	8.81
281.358	8.77
281.816	8.74
282.274	8.72
282.732	8.69
283.19	8.66
283.648	8.63
284.106	8.61
284.564	8.59
285.021	8.57
285.479	8.54
285.937	8.52
286.394	8.49
286.852	8.48
287.309	8.46
287.767	8.44
288.224	8.42
288.682	8.4
289.139	8.38
289.596	8.35
290.053	8.31
290.511	8.27
290.968	8.24
291.425	8.21
291.882	8.17
292.339	8.13
292.796	8.09
293.252	8.05
293.709	8.01
294.166	7.98
294.623	7.95
295.079	7.93
295.536	7.91
295.992	7.89
296.449	7.86
296.905	7.83
297.362	7.82
297.818	7.81
298.274	7.79
298.731	7.78
299.187	7.76
299.643	7.73
300.099	7.72
300.555	7.69
301.011	7.67
301.467	7.64
301.923	7.61
302.379	7.58
302.835	7.55
303.291	7.53
303.746	7.51
304.202	7.49
304.658	7.47
305.113	7.44
305.569	7.43
306.024	7.42
306.479	7.41
306.935	7.41
307.39	7.41
307.845	7.4
308.301	7.39
308.756	7.39
309.211	7.39
309.666	7.38
310.121	7.37
310.576	7.36
311.031	7.35
311.486	7.33
311.94	7.32
312.395	7.31
312.85	7.3
313.305	7.29
313.759	7.28
314.214	7.27
314.668	7.26
315.123	7.27
315.577	7.25
316.032	7.25
316.486	7.24
316.94	7.24
317.394	7.21
317.849	7.21
318.303	7.19
318.757	7.17
319.211	7.15
319.665	7.13
320.119	7.11
320.572	7.09
321.026	7.07
321.48	7.05
321.934	7.04
322.387	7.04
322.841	7.01
323.295	7
323.748	6.98
324.202	6.96
324.655	6.94
325.108	6.92
325.562	6.9
326.015	6.89
326.468	6.86
326.921	6.85
327.374	6.83
327.827	6.81
328.28	6.8
328.733	6.79
329.186	6.78
329.639	6.78
330.092	6.77
330.545	6.76
330.997	6.74
331.45	6.75
331.903	6.74
332.355	6.74
332.808	6.74
333.26	6.72
333.713	6.73
334.165	6.71
334.617	6.72
335.069	6.71
335.522	6.72
335.974	6.73
336.426	6.73
336.878	6.73
337.33	6.71
337.782	6.71
338.234	6.71
338.686	6.71
339.137	6.72
339.589	6.7
340.041	6.69
340.493	6.67
340.944	6.66
341.396	6.63
341.847	6.62
342.299	6.6
342.75	6.58
343.201	6.56
343.653	6.53
344.104	6.51
344.555	6.49
345.006	6.47
345.457	6.46
345.908	6.45
346.359	6.44
346.81	6.43
347.261	6.42
347.712	6.41
348.163	6.4
348.613	6.38
349.064	6.36
349.515	6.35
349.965	6.33
350.416	6.32
350.866	6.3
351.317	6.3
351.767	6.29
352.217	6.27
352.668	6.27
353.118	6.26
353.568	6.27
354.018	6.29
354.468	6.29
354.918	6.31
355.368	6.31
355.818	6.3
356.268	6.29
356.718	6.29
357.168	6.29
357.617	6.28
358.067	6.27
358.517	6.26
358.966	6.25
359.416	6.24
359.865	6.23
360.315	6.22
360.764	6.21
361.213	6.2
361.663	6.2
362.112	6.21
362.561	6.2
363.01	6.2
363.459	6.19
363.908	6.19
364.357	6.18
364.806	6.17
365.255	6.17
365.703	6.17
366.152	6.16
366.601	6.16
367.05	6.15
367.498	6.15
367.947	6.14
368.395	6.15
368.844	6.15
369.292	6.15
369.74	6.15
370.189	6.14
370.637	6.14
371.085	6.15
371.533	6.15
371.981	6.15
372.429	6.14
372.877	6.14
373.325	6.14
373.773	6.13
374.221	6.13
374.669	6.13
375.116	6.13
375.564	6.12
376.012	6.12
376.459	6.12
376.907	6.11
377.354	6.12
377.801	6.13
378.249	6.12
378.696	6.12
379.143	6.12
379.591	6.12
380.038	6.13
380.485	6.13
380.932	6.13
381.379	6.12
381.826	6.13
382.273	6.13
382.72	6.14
383.166	6.14
383.613	6.15
384.06	6.15
384.506	6.14
384.953	6.14
385.4	6.15
385.846	6.16
386.292	6.18
386.739	6.18
387.185	6.19
387.631	6.19
388.078	6.21
388.524	6.2
388.97	6.21
389.416	6.22
389.862	6.24
390.308	6.24
390.754	6.25
391.2	6.27
391.645	6.28
392.091	6.29
392.537	6.3
392.983	6.32
393.428	6.35
393.874	6.38
394.319	6.4
394.765	6.41
395.21	6.42
395.655	6.43
396.101	6.45
396.546	6.47
396.991	6.47
397.436	6.48
397.881	6.49
398.326	6.52
398.771	6.55
399.216	6.58
399.661	6.63
400.106	6.66
400.551	6.68
400.995	6.7
401.44	6.71
401.885	6.74
402.329	6.76
402.774	6.77
403.218	6.78
403.663	6.79
404.107	6.79
404.551	6.81
404.995	6.82
405.44	6.83
405.884	6.86
406.328	6.88
406.772	6.91
407.216	6.95
407.66	6.98
408.104	7
408.547	7.02
408.991	7.04
409.435	7.05
409.879	7.07
410.322	7.1
410.766	7.13
411.209	7.16
411.653	7.17
412.096	7.17
412.54	7.19
412.983	7.2
413.426	7.24
413.869	7.27
414.312	7.32
414.756	7.36
415.199	7.39
415.642	7.42
416.085	7.46
416.527	7.5
416.97	7.55
417.413	7.57
417.856	7.58
418.298	7.58
418.741	7.58
419.184	7.57
419.626	7.57
420.069	7.58
420.511	7.59
420.953	7.58
421.396	7.57
421.838	7.6
422.28	7.63
422.722	7.66
423.164	7.68
423.606	7.7
424.048	7.71
424.49	7.74
424.932	7.75
425.374	7.77
425.816	7.78
426.258	7.78
426.699	7.74
427.141	7.74
427.582	7.72
428.024	7.74
428.465	7.75
428.907	7.78
429.348	7.78
429.789	7.79
430.231	7.78
430.672	7.81
431.113	7.84
431.554	7.88
431.995	7.91
432.436	7.93
432.877	7.93
433.318	7.93
433.759	7.94
434.2	7.94
434.64	7.96
435.081	7.97
435.522	7.99
435.962	8.01
436.403	8.03
436.843	8.03
437.284	8.08
437.724	8.1
438.164	8.11
438.604	8.14
439.045	8.17
439.485	8.17
439.925	8.17
440.365	8.15
440.805	8.14
441.245	8.13
441.685	8.14
442.125	8.14
442.564	8.17
443.004	8.19
443.444	8.19
443.883	8.19
444.323	8.2
444.762	8.25
445.202	8.3
445.641	8.33
446.081	8.38
446.52	8.38
446.959	8.4
447.398	8.43
447.837	8.46
448.276	8.48
448.716	8.49
449.154	8.53
449.593	8.54
450.032	8.56
450.471	8.56
450.91	8.54
451.349	8.55
451.787	8.55
452.226	8.54
452.664	8.49
453.103	8.49
453.541	8.49
453.98	8.46
454.418	8.42
454.856	8.37
455.295	8.36
455.733	8.35
456.171	8.33
456.609	8.32
457.047	8.3
457.485	8.3
457.923	8.29
458.361	8.27
458.798	8.26
459.236	8.26
459.674	8.28
460.111	8.27
460.549	8.26
460.987	8.26
461.424	8.25
461.862	8.26
462.299	8.26
462.736	8.25
463.173	8.26
463.611	8.26
464.048	8.25
464.485	8.24
464.922	8.24
465.359	8.24
465.796	8.23
466.233	8.23
466.67	8.23
467.106	8.24
467.543	8.25
467.98	8.26
468.416	8.28
468.853	8.29
469.29	8.3
469.726	8.32
470.162	8.31
470.599	8.34
471.035	8.35
471.471	8.35
471.907	8.34
472.344	8.33
472.78	8.31
473.216	8.29
473.652	8.29
474.088	8.3
474.523	8.3
474.959	8.29
475.395	8.26
475.831	8.26
476.266	8.25
476.702	8.24
477.138	8.23
477.573	8.22
478.008	8.21
478.444	8.19
478.879	8.17
479.314	8.16
479.75	8.16
480.185	8.14
480.62	8.13
481.055	8.13
481.49	8.09
481.925	8.08
482.36	8.05
482.795	8.04
483.229	8.03
483.664	8.01
484.099	8
484.534	7.98
484.968	7.98
485.403	7.97
485.837	7.96
486.271	7.95
486.706	7.94
487.14	7.96
487.574	7.94
488.009	7.94
488.443	7.92
488.877	7.92
489.311	7.92
489.745	7.9
490.179	7.91
490.613	7.9
491.046	7.91
491.48	7.93
491.914	7.92
492.348	7.93
492.781	7.94
493.215	7.95
493.648	7.96
494.082	7.97
494.515	7.99
494.948	7.99
495.382	7.99
495.815	8
496.248	8.01
496.681	8.02
497.114	8.03
497.547	8.04
497.98	8.06
498.413	8.07
498.846	8.09
499.279	8.12
499.711	8.14
500.144	8.18
500.577	8.2
501.009	8.23
501.442	8.27
501.874	8.31
502.306	8.36
502.739	8.38
503.171	8.44
503.603	8.49
504.036	8.55
504.468	8.61
504.9	8.68
505.332	8.74
505.764	8.81
506.196	8.88
506.627	8.95
507.059	9.02
507.491	9.13
507.923	9.22
508.354	9.32
508.786	9.42
509.217	9.51
509.649	9.63
510.08	9.76
510.512	9.88
510.943	10.02
511.374	10.14
511.805	10.28
512.237	10.42
512.668	10.57
513.099	10.73
513.53	10.9
513.961	11.08
514.391	11.24
514.822	11.4
515.253	11.59
515.684	11.77
516.114	11.98
516.545	12.18
516.975	12.39
517.406	12.59
517.836	12.79
518.267	13.01
518.697	13.22
519.127	13.45
519.558	13.69
519.988	13.92
520.418	14.15
520.848	14.39
521.278	14.62
521.708	14.79
522.138	15
522.567	15.24
522.997	15.45
523.427	15.68
523.857	15.89
524.286	16.11
524.716	16.31
525.145	16.53
525.575	16.73
526.004	16.93
526.433	17.18
526.863	17.39
527.292	17.56
527.721	17.75
528.15	17.9
528.579	18.06
529.008	18.22
529.437	18.38
529.866	18.51
530.295	18.64
530.724	18.78
531.152	18.93
531.581	19.05
532.01	19.15
532.438	19.28
532.867	19.39
533.295	19.51
533.723	19.59
534.152	19.68
534.58	19.76
535.008	19.82
535.436	19.88
535.865	19.92
536.293	19.98
536.721	20.05
537.149	20.1
537.576	20.15
538.004	20.19
538.432	20.22
538.86	20.26
539.287	20.32
539.715	20.36
540.143	20.4
540.57	20.45
540.998	20.5
541.425	20.54
541.852	20.58
542.28	20.59
542.707	20.63
543.134	20.66
543.561	20.68
543.988	20.7
544.415	20.73
544.842	20.78
545.269	20.81
545.696	20.82
546.123	20.85
546.549	20.88
546.976	20.93
547.403	20.97
547.829	21.01
548.256	21.05
548.682	21.06
549.108	21.09
549.535	21.1
549.961	21.1
550.387	21.11
550.813	21.09
551.24	21.09
551.666	21.09
552.092	21.06
552.518	21.05
552.943	21.04
553.369	21.01
553.795	20.96
554.221	20.92
554.646	20.88
555.072	20.85
555.498	20.8
555.923	20.75
556.349	20.67
556.774	20.61
557.199	20.54
557.625	20.45
558.05	20.38
558.475	20.3
558.9	20.23
559.325	20.15
559.75	20.06
560.175	19.96
560.6	19.85
561.025	19.75
561.449	19.63
561.874	19.52
562.299	19.39
562.723	19.27
563.148	19.13
563.572	18.99
563.997	18.85
564.421	18.7
564.846	18.55
565.27	18.41
565.694	18.25
566.118	18.08
566.542	17.91
566.966	17.77
567.39	17.6
567.814	17.45
568.238	17.28
568.662	17.11
569.086	16.96
569.509	16.8
569.933	16.64
570.357	16.48
570.78	16.34
571.204	16.19
571.627	16.04
572.05	15.91
572.474	15.76
572.897	15.64
573.32	15.51
573.743	15.38
574.166	15.25
574.589	15.14
575.012	15.04
575.435	14.92
575.858	14.82
576.281	14.71
576.704	14.61
577.126	14.51
577.549	14.43
577.972	14.34
578.394	14.26
578.817	14.18
579.239	14.11
579.661	14.02
580.084	13.94
580.506	13.87
580.928	13.8
581.35	13.74
581.772	13.71
582.194	13.64
582.616	13.57
583.038	13.51
583.46	13.47
583.882	13.42
584.303	13.37
584.725	13.34
585.147	13.26
585.568	13.21
585.99	13.17
586.411	13.11
586.833	13.07
587.254	13.04
587.675	13.01
588.096	12.96
588.518	12.92
588.939	12.89
589.36	12.85
589.781	12.83
590.202	12.82
590.623	12.78
591.043	12.76
591.464	12.73
591.885	12.71
592.305	12.69
592.726	12.66
593.147	12.64
593.567	12.6
593.987	12.58
594.408	12.57
594.828	12.56
595.248	12.54
595.669	12.52
596.089	12.5
596.509	12.47
596.929	12.43
597.349	12.42
597.769	12.39
598.189	12.39
598.608	12.37
599.028	12.33
599.448	12.28
599.867	12.24
600.287	12.19
600.706	12.16
601.126	12.11
601.545	12.07
601.965	12.03
602.384	12
602.803	11.93
603.222	11.88
603.641	11.84
604.061	11.82
604.48	11.78
604.898	11.73
605.317	11.69
605.736	11.64
606.155	11.57
606.574	11.5
606.992	11.44
607.411	11.39
607.829	11.3
608.248	11.25
608.666	11.19
609.085	11.13
609.503	11.08
609.921	11.03
610.339	10.99
610.758	10.96
611.176	10.91
611.594	10.87
612.012	10.82
612.43	10.82
612.847	10.77
613.265	10.72
613.683	10.67
614.101	10.62
614.518	10.58
614.936	10.54
615.353	10.49
615.771	10.45
616.188	10.42
616.606	10.38
617.023	10.34
617.44	10.3
617.857	10.27
618.274	10.24
618.691	10.22
619.108	10.2
619.525	10.17
619.942	10.16
620.359	10.15
620.776	10.13
621.192	10.12
621.609	10.1
622.026	10.09
622.442	10.06
622.859	10.06
623.275	10.06
623.691	10.05
624.108	10.04
624.524	10.03
624.94	10
625.356	9.98
625.772	9.97
626.188	9.96
626.604	9.95
627.02	9.96
627.436	9.95
627.852	9.93
628.268	9.93
628.683	9.92
629.099	9.91
629.514	9.91
629.93	9.9
630.345	9.89
630.761	9.87
631.176	9.87
631.591	9.84
632.007	9.82
632.422	9.81
632.837	9.79
633.252	9.77
633.667	9.73
634.082	9.71
634.497	9.68
634.911	9.66
635.326	9.64
635.741	9.6
636.155	9.57
636.57	9.53
636.984	9.48
637.399	9.42
637.813	9.38
638.228	9.34
638.642	9.29
639.056	9.24
639.47	9.21
639.884	9.15
640.298	9.11
640.712	9.06
641.126	9.01
641.54	8.98
641.954	8.95
642.368	8.91
642.781	8.87
643.195	8.83
643.609	8.79
644.022	8.74
644.436	8.71
644.849	8.68
645.262	8.66
645.676	8.64
646.089	8.6
646.502	8.56
646.915	8.53
647.328	8.51
647.741	8.49
648.154	8.49
648.567	8.47
648.98	8.44
649.393	8.43
649.805	8.39
650.218	8.38
650.631	8.37
651.043	8.36
651.456	8.36
651.868	8.35
652.28	8.33
652.693	8.31
653.105	8.3
653.517	8.28
653.929	8.26
654.341	8.26
654.753	8.24
655.165	8.21
655.577	8.18
655.989	8.15
656.401	8.11
656.813	8.08
657.224	8.07
657.636	8.06
658.047	8.04
658.459	8.03
658.87	7.99
659.282	7.98
659.693	7.96
660.104	7.94
660.515	7.93
660.926	7.94
661.338	7.92
661.749	7.9
662.159	7.87
662.57	7.86
662.981	7.84
663.392	7.83
663.803	7.82
664.213	7.81
664.624	7.81
665.035	7.8
665.445	7.78
665.855	7.78
666.266	7.77
666.676	7.77
667.086	7.76
667.497	7.76
667.907	7.74
668.317	7.75
668.727	7.76
669.137	7.77
669.547	7.77
669.956	7.76
670.366	7.78
670.776	7.79
671.186	7.81
671.595	7.82
672.005	7.84
672.414	7.87
672.824	7.87
673.233	7.9
673.642	7.91
674.052	7.93
674.461	7.96
674.87	7.97
675.279	8
675.688	8.01
676.097	8.03
676.506	8.04
676.915	8.07
677.323	8.09
677.732	8.11
678.141	8.13
678.549	8.18
678.958	8.22
679.366	8.25
679.775	8.27
680.183	8.3
680.592	8.34
681	8.38
681.408	8.42
681.816	8.45
682.224	8.49
682.632	8.54
683.04	8.55
683.448	8.58
683.856	8.63
684.264	8.68
684.671	8.74
685.079	8.8
685.487	8.86
685.894	8.94
686.302	9.03
686.709	9.12
687.116	9.22
687.524	9.35
687.931	9.49
688.338	9.64
688.745	9.82
689.152	10.03
689.559	10.23
689.966	10.47
690.373	10.75
690.78	11.02
691.187	11.34
691.593	11.68
692	12.04
692.407	12.43
692.813	12.85
693.22	13.26
693.626	13.72
694.032	14.22
694.439	14.71
694.845	15.22
695.251	15.77
695.657	16.32
696.063	16.9
696.469	17.48
696.875	18.07
697.281	18.67
697.687	19.31
698.093	19.93
698.498	20.57
698.904	21.24
699.31	21.91
699.715	22.58
700.12	23.25
700.526	23.94
700.931	24.63
701.337	25.33
701.742	26
702.147	26.69
702.552	27.4
702.957	28.08
703.362	28.78
703.767	29.47
704.172	30.16
704.577	30.83
704.981	31.52
705.386	32.2
705.791	32.91
706.195	33.58
706.6	34.26
707.004	34.92
707.408	35.6
707.813	36.25
708.217	36.9
708.621	37.56
709.025	38.22
709.43	38.85
709.834	39.5
710.237	40.11
710.641	40.79
711.045	41.4
711.449	42.03
711.853	42.64
712.256	43.31
712.66	43.96
713.064	44.6
713.467	45.22
713.87	45.86
714.274	46.5
714.677	47.09
715.08	47.69
715.484	48.32
715.887	48.91
716.29	49.51
716.693	50.05
717.096	50.62
717.499	51.16
717.901	51.7
718.304	52.24
718.707	52.77
719.109	53.33
719.512	53.86
719.915	54.38
720.317	54.91
720.719	55.42
721.122	55.92
721.524	56.4
721.926	56.91
722.328	57.4
722.731	57.88
723.133	58.33
723.535	58.76
723.937	59.23
724.338	59.64
724.74	60.05
725.142	60.33
725.544	60.71
725.945	61.06
726.347	61.41
726.748	61.76
727.15	62.07
727.551	62.43
727.952	62.75
728.354	63.06
728.755	63.38
729.156	63.68
729.557	64.08
729.958	64.39
730.359	64.66
730.76	64.91
731.161	65.16
731.562	65.44
731.962	65.66
732.363	65.88
732.763	66.09
733.164	66.25
733.564	66.44
733.965	66.61
734.365	66.77
734.766	66.99
735.166	67.14
735.566	67.29
735.966	67.44
736.366	67.59
736.766	67.71
737.166	67.87
737.566	68.03
737.966	68.19
738.365	68.34
738.765	68.53
739.165	68.61
739.564	68.76
739.964	68.9
740.363	69.01
740.763	69.12
741.162	69.23
741.561	69.37
741.96	69.5
742.36	69.6
742.759	69.69
743.158	69.77
743.557	69.9
743.955	70.02
744.354	70.13
744.753	70.25
745.152	70.36
745.55	70.44
745.949	70.49
746.348	70.59
746.746	70.67
747.144	70.79
747.543	70.88
747.941	71
748.339	71.11
748.737	71.2
749.136	71.27
749.534	71.36
749.932	71.49
750.33	71.57
750.727	71.61
751.125	71.67
751.523	71.7
751.921	71.73
752.318	71.74
752.716	71.73
753.113	71.73
753.511	71.73
753.908	71.69
754.305	71.66
754.703	71.63
755.1	71.62
755.497	71.61
755.894	71.58
756.291	71.53
756.688	71.48
757.085	71.42
757.482	71.42
757.878	71.41
758.275	71.42
758.672	71.44
759.068	71.46
759.465	71.46
759.861	71.43
760.258	71.42
760.654	71.46
761.05	71.48
761.447	71.49
761.843	71.47
762.239	71.46
762.635	71.45
763.031	71.45
763.427	71.4
763.822	71.37
764.218	71.39
764.614	71.39
765.01	71.38
765.405	71.37
765.801	71.36
766.196	71.38
766.592	71.41
766.987	71.45
767.382	71.47
767.778	71.51
768.173	71.53
768.568	71.55
768.963	71.55
769.358	71.54
769.753	71.59
770.148	71.62
770.542	71.62
770.937	71.6
771.332	71.62
771.726	71.61
772.121	71.6
772.515	71.63
772.91	71.65
773.304	71.67
773.699	71.72
774.093	71.67
774.487	71.66
774.881	71.66
775.275	71.7
775.669	71.71
776.063	71.69
776.457	71.68
776.851	71.67
777.245	71.7
777.638	71.72
778.032	71.73
778.425	71.76
778.819	71.83
779.212	71.85
779.606	71.84
779.999	71.84
780.392	71.87
780.786	71.91
781.179	71.94
781.572	71.88
781.965	71.87
782.358	71.85
782.751	71.86
783.143	71.84
783.536	71.86
783.929	71.9
784.322	71.93
784.714	71.9
785.107	71.92
785.499	71.93
785.891	71.94
786.284	71.94
786.676	72.01
787.068	71.99
787.46	71.97
787.852	71.99
788.245	72.01
788.636	72
789.028	72.03
789.42	71.98
789.812	71.97
790.204	71.94
790.595	71.99
790.987	71.96
791.378	71.98
791.77	72.04
792.161	72.03
792.553	71.98
792.944	72
793.335	72
793.726	71.99
794.117	72.01
794.508	72.05
794.899	72.05
795.29	72.05
795.681	72.09
796.072	72.07
796.463	72.03
796.853	72.05
797.244	72.04
797.634	72.04
798.025	72.09
798.415	72.13
798.806	72.13
799.196	72.14
799.586	72.12
799.976	72.1
800.366	72.15
800.756	72.2
801.146	72.22
801.536	72.22
801.926	72.24
802.316	72.28
802.706	72.28
803.095	72.31
803.485	72.32
803.874	72.36
804.264	72.43
804.653	72.39
805.043	72.37
805.432	72.42
805.821	72.45
806.21	72.52
806.599	72.54
806.988	72.56
807.377	72.57
807.766	72.6
808.155	72.65
808.544	72.6
808.933	72.66
809.321	72.71
809.71	72.73
810.098	72.74
810.487	72.75
810.875	72.74
811.264	72.76
811.652	72.79
812.04	72.79
812.428	72.76
812.816	72.84
813.204	72.8
813.592	72.79
813.98	72.8
814.368	72.79
814.756	72.81
815.144	72.85
815.531	72.86
815.919	72.87
816.306	72.89
816.694	72.92
817.081	72.91
817.469	72.96
817.856	73
818.243	73.02
818.63	73.04
819.017	73.03
819.404	73.02
819.791	73.03
820.178	73.02
820.565	73.05
820.952	73.06
821.339	73.08
821.725	73.09
822.112	73.09
822.498	73.05
822.885	73.09
823.271	73.12
823.657	73.14
824.044	73.12
824.43	73.16
824.816	73.14
825.202	73.14
825.588	73.14
825.974	73.09
826.36	73.08
826.746	73.11
827.132	73.05
827.517	73.02
827.903	72.98
828.289	72.96
828.674	72.93
829.06	72.93
829.445	72.93
829.83	72.92
830.216	72.96
830.601	72.96
830.986	72.94
831.371	72.98
831.756	72.97
832.141	73
832.526	73.02
832.911	73.03
833.295	73.06
833.68	73.06
834.065	73.08
834.449	73.05
834.834	72.99
835.218	73.02
835.603	73.01
835.987	73
836.371	73.02
836.755	73
837.139	72.97
837.524	72.96
837.908	72.9
838.291	72.88
838.675	72.87
839.059	72.91
839.443	72.87
839.827	72.88
840.21	72.89
840.594	72.86
840.977	72.88
841.361	72.9
841.744	72.9
842.127	72.94
842.511	72.93
842.894	72.93
843.277	72.94
843.66	72.96
844.043	72.95
844.426	72.93
844.809	72.91
845.191	72.91
845.574	72.9
845.957	72.85
846.339	72.84
846.722	72.88
847.104	72.89
847.487	72.88
847.869	72.87
848.252	72.86
848.634	72.9
849.016	72.92
849.398	72.88
849.78	72.89
850.162	72.94
850.544	72.96
850.926	72.95
851.307	72.97
851.689	72.96
852.071	72.98
852.452	73
852.834	72.97
853.215	72.99
853.597	73.03
853.978	72.99
854.359	72.98
854.741	72.96
855.122	72.92
855.503	72.91
855.884	72.9
856.265	72.87
856.646	72.85
857.026	72.86
857.407	72.79
857.788	72.77
858.169	72.84
858.549	72.86
858.93	72.9
859.31	72.91
859.69	72.88
860.071	72.89
860.451	72.92
860.831	72.95
861.211	72.97
861.591	73.05
861.971	73.04
862.351	73.02
862.731	73
863.111	72.97
863.491	72.97
863.87	72.97
864.25	73.03
864.629	73
865.009	72.95
865.388	72.92
865.768	72.89
866.147	72.91
866.526	72.86
866.905	72.86
867.284	72.86
867.663	72.92
868.042	72.91
868.421	72.86
868.8	72.85
869.179	72.89
869.558	72.86
869.936	72.84
870.315	72.81
870.693	72.84
871.072	72.81
871.45	72.8
871.828	72.72
872.207	72.73
872.585	72.74
872.963	72.72
873.341	72.74
873.719	72.77
874.097	72.77
874.475	72.78
874.853	72.77
875.23	72.8
875.608	72.82
875.986	72.85
876.363	72.84
876.741	72.82
877.118	72.84
877.495	72.79
877.873	72.79
878.25	72.77
878.627	72.78
879.004	72.8
879.381	72.79
879.758	72.76
880.135	72.77
880.512	72.78
880.889	72.8
881.265	72.82
881.642	72.82
882.019	72.82
882.395	72.85
882.772	72.83
883.148	72.85
883.524	72.84
883.901	72.84
884.277	72.85
884.653	72.83
885.029	72.83
885.405	72.82
885.781	72.83
886.157	72.84
886.532	72.83
886.908	72.86
887.284	72.85
887.659	72.88
888.035	72.9
888.411	72.87
888.786	72.85
889.161	72.85
889.537	72.85
889.912	72.86
890.287	72.82
890.662	72.81
891.037	72.74
891.412	72.7
891.787	72.67
892.162	72.62
892.536	72.6
892.911	72.58
893.286	72.52
893.66	72.48
894.035	72.43
894.409	72.41
894.784	72.42
895.158	72.44
895.532	72.42
895.906	72.38
896.281	72.39
896.655	72.37
897.029	72.35
897.402	72.38
897.776	72.36
898.15	72.37
898.524	72.36
898.898	72.31
899.271	72.33
899.645	72.31
900.018	72.28
900.392	72.26
900.765	72.27
901.138	72.28
901.511	72.24
901.884	72.29
902.258	72.23
902.631	72.27
903.003	72.27
903.376	72.22
903.749	72.24
904.122	72.29
904.495	72.31
904.867	72.29
905.24	72.29
905.612	72.3
905.985	72.26
906.357	72.29
906.729	72.26
907.102	72.27
907.474	72.33
907.846	72.32
908.218	72.3
908.59	72.25
908.962	72.23
909.334	72.23
909.705	72.2
910.077	72.17
910.449	72.17
910.82	72.11
911.192	72.08
911.563	72.05
911.935	72.05
912.306	72.05
912.677	72.09
913.048	72.06
913.419	72.03
913.79	72.03
914.161	72.02
914.532	72.01
914.903	72.02
915.274	72
915.645	71.97
916.015	71.92
916.386	71.89
916.756	71.86
917.127	71.85
917.497	71.85
917.868	71.85
918.238	71.83
918.608	71.8
918.978	71.73
919.348	71.7
919.718	71.69
920.088	71.67
920.458	71.71
920.828	71.7
921.198	71.69
921.567	71.63
921.937	71.63
922.306	71.64
922.676	71.62
923.045	71.62
923.415	71.63
923.784	71.63
924.153	71.61
924.522	71.54
924.891	71.5
925.26	71.49
925.629	71.54
925.998	71.52
926.367	71.48
926.736	71.47
927.104	71.48
927.473	71.42
927.842	71.33
928.21	71.33
928.578	71.31
928.947	71.28
929.315	71.24
929.683	71.2
930.051	71.15
930.42	71.11
930.788	71.06
931.156	70.99
931.523	70.99
931.891	70.89
932.259	70.73
932.627	70.6
932.994	70.48
933.362	70.38
933.729	70.26
934.097	70.13
934.464	70.02
934.831	69.86
935.199	69.77
935.566	69.6
935.933	69.57
936.3	69.44
936.667	69.39
937.034	69.27
937.401	69.19
937.767	69.09
938.134	69.07
938.501	68.99
938.867	69.03
939.234	69.07
939.6	69.18
939.967	69.23
940.333	69.44
940.699	69.61
941.065	69.85
941.431	69.99
941.798	70.15
942.163	70.22
942.529	70.39
942.895	70.48
943.261	70.56
943.627	70.69
943.992	70.82
944.358	70.9
944.723	70.88
945.089	70.96
945.454	71.09
945.82	71.13
946.185	71.23
946.55	71.35
946.915	71.43
947.28	71.43
947.645	71.38
948.01	71.34
948.375	71.36
948.74	71.33
949.104	71.42
949.469	71.24
949.834	71.12
950.198	71.01
950.562	70.95
950.927	70.93
951.291	70.87
951.655	70.84
952.02	70.89
952.384	70.91
952.748	70.79
953.112	70.63
953.476	70.57
953.839	70.57
954.203	70.49
954.567	70.44
954.931	70.33
955.294	70.33
955.658	70.27
956.021	70.23
956.385	70.12
956.748	70.19
957.111	70.1
957.474	70.18
957.837	70.19
958.2	70.18
958.563	70.1
958.926	69.99
959.289	69.88
959.652	69.88
960.015	69.75
960.377	69.7
960.74	69.63
961.102	69.57
961.465	69.5
961.827	69.28
962.189	69.24
962.552	69.16
962.914	69.2
963.276	69.18
963.638	69.08
964	69.06
964.362	69.01
964.724	68.95
965.085	68.97
965.447	68.85
965.809	68.95
966.17	68.95
966.532	69
966.893	68.99
967.255	68.95
967.616	68.98
967.977	68.93
968.338	68.88
968.699	68.87
969.061	68.83
969.421	68.82
969.782	68.83
970.143	68.77
970.504	68.69
970.865	68.56
971.225	68.56
971.586	68.54
971.946	68.55
972.307	68.58
972.667	68.61
973.027	68.63
973.388	68.62
973.748	68.53
974.108	68.5
974.468	68.54
974.828	68.61
975.188	68.66
975.548	68.61
975.907	68.65
976.267	68.58
976.627	68.53
976.986	68.49
977.346	68.6
977.705	68.68
978.064	68.72
978.424	68.67
978.783	68.69
979.142	68.63
979.501	68.61
979.86	68.55
980.219	68.48
980.578	68.41
980.937	68.41
981.296	68.31
981.654	68.33
982.013	68.28
982.371	68.22
982.73	68.07
983.088	67.95
983.447	67.83
983.805	67.8
984.163	67.84
984.521	67.7
984.879	67.75
985.237	67.75
985.595	67.72
985.953	67.77
986.311	67.86
986.669	68.02
987.026	68.16
987.384	68.23
987.741	68.28
988.099	68.25
988.456	68.43
988.814	68.35
989.171	68.35
989.528	68.39
989.885	68.31
990.242	68.3
990.599	68.22
990.956	68.2
991.313	68.18
991.67	68.1
992.027	68.05
992.383	68.09
992.74	67.97
993.096	67.89
993.453	67.87
993.809	68.02
994.165	67.86
994.522	67.86
994.878	67.72
995.234	67.74
995.59	67.77
995.946	67.94
996.302	67.83
996.658	67.93
997.013	67.94
997.369	67.98
997.725	67.9
998.08	67.88
998.436	67.87
998.791	67.84
999.147	67.82
999.502	67.85
999.857	67.83
1000.212	67.83
1000.567	67.84
1000.922	67.79
1001.277	67.51
1001.632	67.52
1001.987	67.62
1002.342	67.7
1002.696	67.85
1003.051	67.81
1003.406	67.61
1003.76	67.36
1004.114	67.44
1004.469	67.42
1004.823	67.44
1005.177	67.71
1005.531	67.53
1005.885	67.43
1006.239	67.33
1006.593	67.25
1006.947	67.2
1007.301	67.26
1007.655	67.4
1008.008	67.3
1008.362	67.22
1008.715	67.19
1009.069	66.99
1009.422	66.94
1009.776	67.05
1010.129	66.94
1010.482	67.09
1010.835	67.35
1011.188	67.44
1011.541	67.28
1011.894	67.36
1012.247	67.36
1012.6	67.23
1012.952	67.12
1013.305	67.11
1013.657	67.07
1014.01	67.19
1014.362	67.09
1014.715	66.81
1015.067	67
1015.419	67.19
1015.771	67.34
1016.123	67.49
1016.475	67.76
1016.827	67.99
1017.179	68.13
1017.531	68.21
1017.883	68.24
1018.234	68.16
1018.586	68.24
1018.938	67.7
1019.289	67.66
1019.64	67.76
1019.992	67.75
1020.343	67.61
1020.694	67.51
1021.045	67.63
1021.396	67.38
1021.747	67.32
1022.098	67.52
1022.449	67.11
1022.8	67.42
1023.151	67.06
1023.501	66.7
1023.852	66.79
1024.202	66.95
1024.553	66.8
1024.903	66.44
1025.253	66.89
1025.604	66.91
1025.954	66.81
1026.304	67.17
1026.654	67.01
1027.004	67.41
1027.354	67.52
1027.703	66.86
1028.053	66.47
1028.403	66.29
1028.753	66.66
1029.102	66.54
1029.452	66.65
1029.801	66.82
1030.15	66.86
1030.499	67.01
897.758	265.79
901.051	264.98
904.343	274.98
907.636	267.69
910.928	263.84
914.22	268.51
917.511	259.75
920.803	251.41
924.094	241.37
927.384	244.61
930.675	239.3
933.965	235.91
937.255	239.18
940.544	225.81
943.834	218.43
947.123	215.34
950.411	208.28
953.7	206.05
956.988	202.5
960.276	195.09
963.563	196.14
966.851	187.09
970.138	184.95
973.424	174.23
976.711	173.77
979.997	170.17
983.283	166.97
986.568	160.93
989.853	158.22
993.138	154
996.423	154.53
999.708	148.49
1002.992	149.03
1006.275	146.76
1009.559	146.26
1012.842	143.25
1016.125	138.93
1019.408	136.57
1022.69	138.63
1025.972	136.19
1029.254	134.31
1032.536	131.51
1035.817	128.28
1039.098	127.68
1042.379	125.03
1045.659	124.44
1048.939	121.33
1052.219	121.73
1055.498	120.5
1058.778	116.5
1062.057	116.13
1065.335	115.81
1068.614	114.92
1071.892	114.8
1075.17	112.11
1078.447	111.56
1081.724	110.37
1085.001	109.14
1088.278	108.84
1091.554	109.37
1094.83	108.51
1098.106	108.2
1101.382	106.84
1104.657	106.62
1107.932	106.58
1111.206	106.44
1114.481	105.31
1117.755	103.68
1121.029	104.2
1124.302	102.57
1127.575	101.9
1130.848	101.81
1134.121	100.5
1137.393	100.81
1140.665	99.28
1143.937	97.93
1147.208	97.42
1150.48	96.63
1153.75	97.05
1157.021	95.75
1160.291	96.26
1163.561	94.95
1166.831	95.46
1170.101	95
1173.37	93.89
1176.639	93.45
1179.907	93.8
1183.176	93.15
1186.444	92.92
1189.711	92.37
1192.979	93.78
1196.246	92.88
1199.513	92.47
1202.78	91.83
1206.046	92.12
1209.312	92.83
1212.578	93.01
1215.843	93.7
1219.108	94.45
1222.373	95.68
1225.638	96.65
1228.902	97.6
1232.166	99.79
1235.43	100.86
1238.693	101.83
1241.956	103.38
1245.219	105.77
1248.482	107.63
1251.744	106.81
1255.006	106.98
1258.268	104.62
1261.529	104.5
1264.79	102.48
1268.051	100.88
1271.312	100.36
1274.572	100.3
1277.832	98.35
1281.092	96.64
1284.351	94.6
1287.61	95.01
1290.869	94.96
1294.128	94.96
1297.386	94.63
1300.644	94.31
1303.902	94.44
1307.159	93.59
1310.416	93.1
1313.673	94.43
1316.93	94.55
1320.186	96.49
1323.442	96.07
1326.697	96.17
1329.953	96.41
1333.208	98.07
1336.463	100.68
1339.717	101.71
1342.972	105.2
1346.226	107.27
1349.479	107.14
1352.733	110.95
1355.986	109.69
1359.238	112.17
1362.491	111.63
1365.743	116.03
1368.995	117.92
1372.247	113.69
1375.498	112.38
1378.749	113.54
1382	112.47
1385.251	111.85
1388.501	110.82
1391.751	111.6
1395	110.99
1398.25	112.42
1401.499	109.64
1404.748	106.53
1407.996	106.81
1411.244	107.25
1414.492	105.66
1417.74	101.46
1420.987	100.98
1424.234	98.32
1427.481	94.99
1430.728	92.26
1433.974	89.77
1437.22	86.87
1440.465	83.86
1443.711	82.07
1446.956	80.07
1450.201	76.57
1453.445	74.47
1456.689	71.06
1459.933	70.61
1463.177	68.08
1466.42	67.15
1469.663	65.56
1472.906	64.36
1476.148	62.79
1479.391	61.97
1482.633	61.09
1485.874	61.38
1489.115	61.29
1492.356	60.81
1495.597	59.28
1498.838	59.91
1502.078	59.68
1505.318	59.82
1508.557	58.99
1511.797	59.55
1515.036	59.49
1518.274	59.67
1521.513	59.74
1524.751	59.28
1527.989	59.83
1531.227	60.16
1534.464	60.48
1537.701	60.63
1540.938	60.07
1544.174	61.21
1547.41	61.28
1550.646	61.81
1553.882	61.54
1557.117	62.08
1560.352	62.84
1563.587	62.33
1566.821	62.62
1570.055	62.2
1573.289	62.41
1576.523	62.84
1579.756	62.58
1582.989	62.87
1586.222	62.57
1589.454	63.33
1592.686	63.57
1595.918	62.88
1599.15	63.49
1602.381	63.69
1605.612	64.07
1608.843	63.74
1612.073	64.34
1615.303	64.8
1618.533	64.72
1621.762	65.1
1624.992	64.33
1628.221	63.74
1631.449	64.29
1634.678	64.38
1637.906	63.76
1641.134	64.12
1644.361	64.61
1647.588	64.5
1650.815	64.3
1654.042	64.89
1657.269	64.17
1660.495	64.9
1663.72	65.13
1666.946	65.12
1670.171	65.53
1673.396	66.07
1676.621	66
1679.845	66.49
1683.069	65.89
1686.293	65.86
1689.517	65.35
1692.74	66.12
1695.963	65.61
1699.185	65.66
1702.408	65.45
1705.63	65.31
1708.852	65.34
1712.073	65.3
1715.294	64.55
1718.515	65.54
1721.736	65.36
1724.956	65.48
1728.176	65.15
1731.396	65.74
1734.616	65.54
1737.835	65.86
1741.054	65.78
1744.272	65.9
1747.491	65.21
1750.709	65.89
1753.927	65.35
1757.144	65.46
1760.361	65.57
1763.578	65.33
1766.795	65.43
1770.011	65.51
1773.227	65.44
1776.443	65.72
1779.658	65.35
1782.874	66.52
1786.089	65.35
1789.303	65.48
1792.518	66
1795.732	66.69
1798.945	67.74
1802.159	67.34
1805.372	67.49
1808.585	68.34
1811.797	68.05
1815.01	68.8
1818.222	68.66
1821.434	69.64
1824.645	69.36
1827.856	69.74
1831.067	69.28
1834.278	69.28
1837.488	69.42
1840.698	69.9
1843.908	69.63
1847.117	70.78
1850.326	70.53
1853.535	70.16
1856.744	70.16
1859.952	71.25
1863.16	70.63
1866.368	69.29
1869.575	69.56
1872.782	68.88
1875.989	67.07
1879.196	65.84
1882.402	64.23
1885.608	64.15
1888.814	63.2
1892.019	62.35
1895.224	60.33
1898.429	59.95
1901.634	60.12
1904.838	59.08
1908.042	59.27
1911.246	59.11
1914.449	59.57
1917.652	58.43
1920.855	58.09
1924.058	57.88
1927.26	57.17
1930.462	57.86
1933.664	57.31
1936.865	57.45
1940.066	56.14
1943.267	55.76
1946.467	56.38
1949.668	56.36
1952.868	56.6
1956.067	56.62
1959.267	57.79
1962.466	57.99
1965.665	58.08
1968.863	59.16
1972.061	59.55
1975.259	61.84
1978.457	61.25
1981.654	62.23
1984.852	62.61
1988.048	64
1991.245	65
1994.441	65.37
1997.637	66.68
2000.833	69.23
2004.028	68.79
2007.223	71.23
2010.418	72.03
2013.613	75.75
2016.807	77.42
2020.001	79.28
2023.194	82.61
2026.388	85.55
2029.581	88.65
2032.774	91.79
2035.966	93.04
2039.158	97.59
2042.35	97.82
2045.542	99.15
2048.733	103.48
2051.924	103.49
2055.115	105.05
2058.306	105.29
2061.496	104.53
2064.686	105.92
2067.875	105.31
2071.065	107.1
2074.254	106.18
2077.442	109.33
2080.631	110.56
2083.819	111.14
2087.007	113.94
2090.195	115.5
2093.382	113.75
2096.569	115.65
2099.756	118.48
2102.942	120.67
2106.128	122.14
2109.314	125.19
2112.5	125.58
2115.685	123.01
2118.87	123.14
2122.055	124.86
2125.239	126.64
2128.424	130.59
2131.608	129.7
2134.791	128.68
2137.974	128.93
2141.157	130.14
2144.34	129.23
2147.523	132.85
2150.705	138.22
2153.887	138.3
2157.068	138.52
2160.25	138.7
2163.431	138.89
2166.611	142.57
2169.792	142.94
2172.972	147.47
2176.152	146.95
2179.331	149.49
2182.511	149.54
2185.69	151.57
2188.868	153.27
2192.047	157.79
2195.225	162.95
2198.403	161.48
2201.58	157.61
2204.758	166.75
2207.935	163.96
2211.111	167.75
2214.288	168.53
2217.464	168.95
2220.64	172.3
2223.815	173.43
2226.991	170.78
2230.166	172.51
2233.34	179.74
2236.515	182.34
2239.689	178.76
2242.863	182.34
2246.036	180.59
2249.209	186.44
2252.382	183.27
2255.555	185.96
2258.727	187.64
2261.9	194.15
2265.071	193.23
2268.243	190.67
2271.414	200.36
2274.585	202.26
2277.756	201.99
2280.926	211.07
2284.096	210.83
2287.266	214.13
2290.436	212.68
2293.605	217.47
2296.774	224.93
2299.942	223.82
2303.111	232.1
2306.279	235.05
2309.447	237.1
2312.614	238.63
2315.781	238.23
2318.948	240.81
2322.115	247.22
2325.281	258.22
2328.447	256.04
2331.613	253.22
2334.779	261.2
2337.944	260.36
2341.109	264.55
2344.274	264.3
2347.438	272.22
2350.602	281.79
2353.766	293.92
2356.929	293.88
2360.092	303.31
2363.255	306.02
2366.418	311.59
2369.58	312.22
2372.742	319.31
2375.904	318.47
2379.066	330.75
2382.227	340.81
2385.388	336.22
2388.548	323.08
2391.709	322.3
2394.869	318.35
2398.029	325.28
2401.188	319.64
2404.347	328.88
2407.506	337.85
2410.665	326.91
2413.823	329.88
2416.981	336.09
2420.139	320.6
2423.296	346.43
2426.453	367.46
2429.61	356.58
2432.767	371.63
2435.923	396.8
2439.079	377.54
2442.235	383.55
2445.391	393.04
2448.546	387.77
2451.701	405.46
2454.855	431.58
2458.009	393.43
2461.163	397.09
2464.317	398.16
2467.471	395.93
2470.624	402.11
2473.777	404.18
2476.929	391.98
2480.082	408.45
2483.234	430.97
2486.385	436.14
2489.537	448.95
2492.688	480.17
2495.839	471
2498.989	489.97
2502.14	490.38
2505.29	476.81
2508.439	510.99
2511.589	525.38
2514.738	527.89
2517.887	517.79
2521.035	491.22
2524.183	476.2
2527.331	474.63
2530.479	466.51
2533.627	471.71
