Data from C_2_div_wi_4n_062_Splice17_09.txt Node
Date: Sat Feb 29 14:29:06 EST 2020
User: sa697716
Spectrometer: FLMS03696
Trigger mode: 0
Integration Time (sec): 3.180400E-1
Scans to average: 20
Electric dark correction enabled: true
Nonlinearity correction enabled: true
Boxcar width: 5
XAxis mode: Wavelengths
Number of Pixels in Spectrum: 2048
>>>>>Begin Spectral Data<<<<<
187.83	107.94
188.298	129.45
188.766	98.12
189.233	103.03
189.701	109.45
190.169	109.86
190.636	112.73
191.104	82.75
191.571	48.61
192.039	22.57
192.506	183.85
192.974	6602.64
193.441	-1064.5
193.908	112.56
194.375	225.64
194.842	203.66
195.31	90.02
195.777	64.67
196.244	5.75
196.711	13.88
197.177	11.53
197.644	13.47
198.111	13.68
198.578	14.35
199.045	15.04
199.511	15.81
199.978	16.53
200.445	16.9
200.911	16.65
201.378	16.81
201.844	17.02
202.31	18.18
202.777	18.68
203.243	19.37
203.709	19.9
204.176	19.72
204.642	19.68
205.108	19.73
205.574	20.23
206.04	20.95
206.506	21.12
206.972	21.28
207.438	20.71
207.903	20.8
208.369	20.5
208.835	20.19
209.301	20.34
209.766	20.24
210.232	20.12
210.697	19.97
211.163	19.91
211.628	19.57
212.094	18.95
212.559	18.65
213.024	18.27
213.49	18.07
213.955	17.96
214.42	17.38
214.885	16.83
215.35	16.77
215.815	16.17
216.28	15.46
216.745	15.2
217.21	14.9
217.675	14.41
218.14	13.89
218.604	13.27
219.069	12.81
219.534	12.47
219.998	12.25
220.463	11.91
220.927	11.67
221.392	11.47
221.856	11.18
222.32	10.98
222.785	10.82
223.249	10.61
223.713	10.52
224.177	10.33
224.642	10.21
225.106	10.03
225.57	9.86
226.034	9.73
226.497	9.59
226.961	9.47
227.425	9.3
227.889	9.15
228.353	9.04
228.816	8.92
229.28	8.79
229.744	8.7
230.207	8.59
230.671	8.51
231.134	8.4
231.597	8.28
232.061	8.18
232.524	8.11
232.987	8.01
233.45	7.9
233.914	7.81
234.377	7.75
234.84	7.64
235.303	7.56
235.766	7.47
236.229	7.39
236.691	7.33
237.154	7.25
237.617	7.16
238.08	7.1
238.542	7.04
239.005	6.96
239.468	6.86
239.93	6.81
240.393	6.74
240.855	6.67
241.317	6.61
241.78	6.54
242.242	6.47
242.704	6.41
243.166	6.36
243.629	6.29
244.091	6.23
244.553	6.19
245.015	6.13
245.477	6.08
245.939	6.01
246.4	5.94
246.862	5.9
247.324	5.86
247.786	5.82
248.247	5.78
248.709	5.74
249.17	5.7
249.632	5.64
250.093	5.58
250.555	5.54
251.016	5.52
251.477	5.49
251.939	5.45
252.4	5.41
252.861	5.38
253.322	5.34
253.783	5.31
254.244	5.28
254.705	5.26
255.166	5.26
255.627	5.23
256.088	5.18
256.549	5.15
257.009	5.13
257.47	5.1
257.931	5.07
258.391	5.03
258.852	5
259.312	4.96
259.773	4.93
260.233	4.89
260.694	4.86
261.154	4.84
261.614	4.8
262.074	4.78
262.534	4.73
262.994	4.71
263.455	4.69
263.915	4.66
264.374	4.63
264.834	4.6
265.294	4.57
265.754	4.54
266.214	4.52
266.673	4.5
267.133	4.48
267.593	4.46
268.052	4.43
268.512	4.41
268.971	4.39
269.431	4.37
269.89	4.35
270.349	4.34
270.809	4.32
271.268	4.3
271.727	4.28
272.186	4.26
272.645	4.24
273.104	4.22
273.563	4.2
274.022	4.19
274.481	4.17
274.94	4.15
275.399	4.12
275.857	4.11
276.316	4.09
276.775	4.07
277.233	4.05
277.692	4.04
278.15	4.01
278.609	3.99
279.067	3.97
279.525	3.95
279.984	3.94
280.442	3.92
280.9	3.9
281.358	3.88
281.816	3.87
282.274	3.85
282.732	3.83
283.19	3.82
283.648	3.81
284.106	3.81
284.564	3.81
285.021	3.79
285.479	3.78
285.937	3.77
286.394	3.76
286.852	3.75
287.309	3.75
287.767	3.73
288.224	3.72
288.682	3.71
289.139	3.69
289.596	3.67
290.053	3.66
290.511	3.64
290.968	3.62
291.425	3.61
291.882	3.6
292.339	3.58
292.796	3.56
293.252	3.54
293.709	3.53
294.166	3.52
294.623	3.51
295.079	3.5
295.536	3.49
295.992	3.48
296.449	3.47
296.905	3.46
297.362	3.44
297.818	3.43
298.274	3.42
298.731	3.41
299.187	3.4
299.643	3.39
300.099	3.38
300.555	3.36
301.011	3.35
301.467	3.33
301.923	3.33
302.379	3.32
302.835	3.31
303.291	3.31
303.746	3.29
304.202	3.27
304.658	3.27
305.113	3.26
305.569	3.26
306.024	3.26
306.479	3.26
306.935	3.25
307.39	3.25
307.845	3.25
308.301	3.26
308.756	3.26
309.211	3.27
309.666	3.26
310.121	3.25
310.576	3.24
311.031	3.24
311.486	3.24
311.94	3.24
312.395	3.23
312.85	3.23
313.305	3.23
313.759	3.22
314.214	3.21
314.668	3.2
315.123	3.2
315.577	3.2
316.032	3.2
316.486	3.19
316.94	3.19
317.394	3.18
317.849	3.17
318.303	3.16
318.757	3.15
319.211	3.15
319.665	3.15
320.119	3.15
320.572	3.15
321.026	3.14
321.48	3.13
321.934	3.13
322.387	3.12
322.841	3.11
323.295	3.1
323.748	3.09
324.202	3.08
324.655	3.07
325.108	3.05
325.562	3.02
326.015	3.01
326.468	3
326.921	2.98
327.374	2.98
327.827	2.99
328.28	2.98
328.733	2.97
329.186	2.97
329.639	2.97
330.092	2.97
330.545	2.97
330.997	2.97
331.45	2.95
331.903	2.95
332.355	2.95
332.808	2.94
333.26	2.94
333.713	2.94
334.165	2.94
334.617	2.95
335.069	2.94
335.522	2.95
335.974	2.95
336.426	2.96
336.878	2.95
337.33	2.94
337.782	2.94
338.234	2.94
338.686	2.92
339.137	2.93
339.589	2.91
340.041	2.91
340.493	2.9
340.944	2.89
341.396	2.89
341.847	2.88
342.299	2.88
342.75	2.85
343.201	2.84
343.653	2.83
344.104	2.82
344.555	2.81
345.006	2.81
345.457	2.79
345.908	2.79
346.359	2.79
346.81	2.78
347.261	2.78
347.712	2.79
348.163	2.79
348.613	2.78
349.064	2.77
349.515	2.75
349.965	2.74
350.416	2.74
350.866	2.73
351.317	2.73
351.767	2.72
352.217	2.71
352.668	2.7
353.118	2.7
353.568	2.7
354.018	2.72
354.468	2.72
354.918	2.72
355.368	2.73
355.818	2.73
356.268	2.74
356.718	2.74
357.168	2.74
357.617	2.74
358.067	2.73
358.517	2.73
358.966	2.73
359.416	2.74
359.865	2.74
360.315	2.74
360.764	2.75
361.213	2.74
361.663	2.75
362.112	2.77
362.561	2.77
363.01	2.8
363.459	2.81
363.908	2.81
364.357	2.82
364.806	2.83
365.255	2.84
365.703	2.84
366.152	2.85
366.601	2.86
367.05	2.88
367.498	2.89
367.947	2.9
368.395	2.91
368.844	2.92
369.292	2.95
369.74	2.97
370.189	3
370.637	3.02
371.085	3.04
371.533	3.07
371.981	3.1
372.429	3.12
372.877	3.14
373.325	3.16
373.773	3.19
374.221	3.21
374.669	3.23
375.116	3.25
375.564	3.28
376.012	3.32
376.459	3.34
376.907	3.36
377.354	3.4
377.801	3.44
378.249	3.48
378.696	3.53
379.143	3.56
379.591	3.6
380.038	3.64
380.485	3.68
380.932	3.71
381.379	3.73
381.826	3.78
382.273	3.81
382.72	3.84
383.166	3.88
383.613	3.91
384.06	3.95
384.506	3.98
384.953	4.02
385.4	4.06
385.846	4.08
386.292	4.13
386.739	4.17
387.185	4.21
387.631	4.26
388.078	4.29
388.524	4.31
388.97	4.34
389.416	4.38
389.862	4.41
390.308	4.43
390.754	4.46
391.2	4.49
391.645	4.53
392.091	4.56
392.537	4.6
392.983	4.63
393.428	4.67
393.874	4.7
394.319	4.73
394.765	4.76
395.21	4.78
395.655	4.8
396.101	4.83
396.546	4.84
396.991	4.86
397.436	4.84
397.881	4.86
398.326	4.9
398.771	4.92
399.216	4.95
399.661	4.96
400.106	4.99
400.551	5.01
400.995	5
401.44	5
401.885	5.01
402.329	5.03
402.774	5.03
403.218	5.03
403.663	5.02
404.107	5.03
404.551	5.04
404.995	5.02
405.44	5.02
405.884	5.03
406.328	5.04
406.772	5.03
407.216	5.03
407.66	5.03
408.104	5.04
408.547	5.05
408.991	5.03
409.435	5.03
409.879	5.04
410.322	5.05
410.766	5.06
411.209	5.05
411.653	5.05
412.096	5.05
412.54	5.05
412.983	5.04
413.426	5.04
413.869	5.05
414.312	5.05
414.756	5.06
415.199	5.07
415.642	5.08
416.085	5.1
416.527	5.13
416.97	5.15
417.413	5.13
417.856	5.13
418.298	5.12
418.741	5.11
419.184	5.1
419.626	5.08
420.069	5.08
420.511	5.07
420.953	5.06
421.396	5.04
421.838	5.03
422.28	5.05
422.722	5.06
423.164	5.06
423.606	5.06
424.048	5.06
424.49	5.06
424.932	5.05
425.374	5.06
425.816	5.05
426.258	5.05
426.699	5.03
427.141	4.99
427.582	4.99
428.024	4.99
428.465	4.99
428.907	5.01
429.348	5.01
429.789	5.01
430.231	5
430.672	5.01
431.113	5.01
431.554	5.02
431.995	5.05
432.436	5.04
432.877	5.04
433.318	5.03
433.759	5.02
434.2	5.03
434.64	5.02
435.081	5.02
435.522	5.02
435.962	5.04
436.403	5.05
436.843	5.05
437.284	5.08
437.724	5.1
438.164	5.12
438.604	5.14
439.045	5.16
439.485	5.18
439.925	5.19
440.365	5.19
440.805	5.18
441.245	5.18
441.685	5.21
442.125	5.21
442.564	5.22
443.004	5.24
443.444	5.26
443.883	5.28
444.323	5.27
444.762	5.3
445.202	5.34
445.641	5.36
446.081	5.39
446.52	5.39
446.959	5.4
447.398	5.43
447.837	5.47
448.276	5.47
448.716	5.48
449.154	5.52
449.593	5.54
450.032	5.54
450.471	5.57
450.91	5.57
451.349	5.61
451.787	5.61
452.226	5.59
452.664	5.57
453.103	5.56
453.541	5.59
453.98	5.58
454.418	5.58
454.856	5.57
455.295	5.56
455.733	5.56
456.171	5.53
456.609	5.54
457.047	5.55
457.485	5.55
457.923	5.55
458.361	5.53
458.798	5.52
459.236	5.51
459.674	5.52
460.111	5.51
460.549	5.51
460.987	5.52
461.424	5.51
461.862	5.51
462.299	5.5
462.736	5.5
463.173	5.49
463.611	5.49
464.048	5.5
464.485	5.49
464.922	5.48
465.359	5.49
465.796	5.48
466.233	5.47
466.67	5.47
467.106	5.47
467.543	5.47
467.98	5.47
468.416	5.48
468.853	5.47
469.29	5.5
469.726	5.5
470.162	5.48
470.599	5.48
471.035	5.51
471.471	5.51
471.907	5.51
472.344	5.52
472.78	5.51
473.216	5.51
473.652	5.5
474.088	5.51
474.523	5.51
474.959	5.52
475.395	5.53
475.831	5.52
476.266	5.53
476.702	5.54
477.138	5.54
477.573	5.54
478.008	5.55
478.444	5.56
478.879	5.55
479.314	5.54
479.75	5.54
480.185	5.54
480.62	5.53
481.055	5.52
481.49	5.51
481.925	5.51
482.36	5.49
482.795	5.48
483.229	5.48
483.664	5.48
484.099	5.48
484.534	5.48
484.968	5.49
485.403	5.48
485.837	5.49
486.271	5.5
486.706	5.5
487.14	5.53
487.574	5.54
488.009	5.55
488.443	5.56
488.877	5.58
489.311	5.6
489.745	5.6
490.179	5.63
490.613	5.66
491.046	5.69
491.48	5.72
491.914	5.75
492.348	5.79
492.781	5.82
493.215	5.86
493.648	5.9
494.082	5.95
494.515	6
494.948	6.05
495.382	6.09
495.815	6.14
496.248	6.2
496.681	6.26
497.114	6.32
497.547	6.39
497.98	6.47
498.413	6.53
498.846	6.61
499.279	6.7
499.711	6.77
500.144	6.86
500.577	6.96
501.009	7.06
501.442	7.16
501.874	7.27
502.306	7.39
502.739	7.49
503.171	7.64
503.603	7.77
504.036	7.92
504.468	8.07
504.9	8.24
505.332	8.4
505.764	8.58
506.196	8.76
506.627	8.95
507.059	9.14
507.491	9.36
507.923	9.56
508.354	9.76
508.786	9.98
509.217	10.21
509.649	10.46
510.08	10.71
510.512	10.94
510.943	11.19
511.374	11.45
511.805	11.72
512.237	11.99
512.668	12.27
513.099	12.57
513.53	12.87
513.961	13.17
514.391	13.45
514.822	13.75
515.253	14.06
515.684	14.37
516.114	14.7
516.545	15.03
516.975	15.37
517.406	15.7
517.836	16.03
518.267	16.36
518.697	16.7
519.127	17.04
519.558	17.37
519.988	17.71
520.418	18.03
520.848	18.35
521.278	18.67
521.708	18.91
522.138	19.19
522.567	19.47
522.997	19.76
523.427	20.05
523.857	20.31
524.286	20.59
524.716	20.85
525.145	21.11
525.575	21.36
526.004	21.6
526.433	21.91
526.863	22.18
527.292	22.41
527.721	22.64
528.15	22.85
528.579	23.07
529.008	23.25
529.437	23.44
529.866	23.61
530.295	23.78
530.724	23.95
531.152	24.08
531.581	24.21
532.01	24.34
532.438	24.48
532.867	24.6
533.295	24.7
533.723	24.82
534.152	24.92
534.58	25.02
535.008	25.09
535.436	25.19
535.865	25.26
536.293	25.34
536.721	25.41
537.149	25.47
537.576	25.54
538.004	25.6
538.432	25.66
538.86	25.71
539.287	25.75
539.715	25.81
540.143	25.85
540.57	25.9
540.998	25.95
541.425	25.99
541.852	26.04
542.28	26.05
542.707	26.09
543.134	26.12
543.561	26.13
543.988	26.17
544.415	26.19
544.842	26.2
545.269	26.24
545.696	26.25
546.123	26.29
546.549	26.3
546.976	26.34
547.403	26.36
547.829	26.39
548.256	26.42
548.682	26.44
549.108	26.46
549.535	26.5
549.961	26.51
550.387	26.52
550.813	26.5
551.24	26.51
551.666	26.53
552.092	26.51
552.518	26.49
552.943	26.51
553.369	26.5
553.795	26.49
554.221	26.45
554.646	26.42
555.072	26.39
555.498	26.37
555.923	26.33
556.349	26.24
556.774	26.2
557.199	26.15
557.625	26.06
558.05	25.97
558.475	25.88
558.9	25.81
559.325	25.7
559.75	25.6
560.175	25.48
560.6	25.37
561.025	25.27
561.449	25.13
561.874	25.01
562.299	24.87
562.723	24.75
563.148	24.6
563.572	24.46
563.997	24.31
564.421	24.16
564.846	24.01
565.27	23.84
565.694	23.67
566.118	23.5
566.542	23.34
566.966	23.18
567.39	22.98
567.814	22.81
568.238	22.6
568.662	22.42
569.086	22.22
569.509	22.04
569.933	21.86
570.357	21.68
570.78	21.5
571.204	21.31
571.627	21.12
572.05	20.96
572.474	20.78
572.897	20.63
573.32	20.47
573.743	20.33
574.166	20.17
574.589	20.01
575.012	19.88
575.435	19.73
575.858	19.61
576.281	19.49
576.704	19.36
577.126	19.24
577.549	19.14
577.972	19.05
578.394	18.93
578.817	18.83
579.239	18.74
579.661	18.63
580.084	18.55
580.506	18.45
580.928	18.35
581.35	18.26
581.772	18.19
582.194	18.09
582.616	17.98
583.038	17.91
583.46	17.84
583.882	17.77
584.303	17.69
584.725	17.59
585.147	17.5
585.568	17.41
585.99	17.35
586.411	17.27
586.833	17.2
587.254	17.14
587.675	17.07
588.096	17.01
588.518	16.92
588.939	16.86
589.36	16.81
589.781	16.76
590.202	16.73
590.623	16.67
591.043	16.62
591.464	16.57
591.885	16.52
592.305	16.49
592.726	16.45
593.147	16.42
593.567	16.39
593.987	16.36
594.408	16.32
594.828	16.28
595.248	16.23
595.669	16.21
596.089	16.17
596.509	16.11
596.929	16.06
597.349	16
597.769	15.95
598.189	15.91
598.608	15.85
599.028	15.8
599.448	15.77
599.867	15.73
600.287	15.67
600.706	15.63
601.126	15.59
601.545	15.53
601.965	15.5
602.384	15.45
602.803	15.39
603.222	15.34
603.641	15.28
604.061	15.2
604.48	15.12
604.898	15.05
605.317	14.98
605.736	14.91
606.155	14.85
606.574	14.77
606.992	14.69
607.411	14.62
607.829	14.5
608.248	14.42
608.666	14.36
609.085	14.29
609.503	14.21
609.921	14.12
610.339	14.07
610.758	13.99
611.176	13.92
611.594	13.84
612.012	13.76
612.43	13.73
612.847	13.65
613.265	13.57
613.683	13.49
614.101	13.43
614.518	13.36
614.936	13.27
615.353	13.19
615.771	13.11
616.188	13.05
616.606	12.98
617.023	12.91
617.44	12.85
617.857	12.8
618.274	12.74
618.691	12.69
619.108	12.64
619.525	12.61
619.942	12.57
620.359	12.54
620.776	12.5
621.192	12.46
621.609	12.43
622.026	12.4
622.442	12.37
622.859	12.36
623.275	12.36
623.691	12.33
624.108	12.31
624.524	12.29
624.94	12.28
625.356	12.28
625.772	12.29
626.188	12.29
626.604	12.28
627.02	12.27
627.436	12.23
627.852	12.2
628.268	12.18
628.683	12.16
629.099	12.15
629.514	12.13
629.93	12.07
630.345	12.03
630.761	11.98
631.176	11.95
631.591	11.9
632.007	11.85
632.422	11.8
632.837	11.72
633.252	11.65
633.667	11.55
634.082	11.46
634.497	11.37
634.911	11.26
635.326	11.13
635.741	11.01
636.155	10.89
636.57	10.76
636.984	10.62
637.399	10.49
637.813	10.36
638.228	10.23
638.642	10.1
639.056	9.95
639.47	9.81
639.884	9.68
640.298	9.55
640.712	9.41
641.126	9.27
641.54	9.14
641.954	9.02
642.368	8.87
642.781	8.73
643.195	8.6
643.609	8.49
644.022	8.39
644.436	8.28
644.849	8.18
645.262	8.09
645.676	8.01
646.089	7.93
646.502	7.86
646.915	7.8
647.328	7.75
647.741	7.68
648.154	7.63
648.567	7.58
648.98	7.55
649.393	7.52
649.805	7.46
650.218	7.44
650.631	7.4
651.043	7.37
651.456	7.35
651.868	7.33
652.28	7.32
652.693	7.28
653.105	7.25
653.517	7.21
653.929	7.18
654.341	7.16
654.753	7.11
655.165	7.07
655.577	7.01
655.989	6.96
656.401	6.88
656.813	6.82
657.224	6.77
657.636	6.71
658.047	6.65
658.459	6.57
658.87	6.51
659.282	6.46
659.693	6.4
660.104	6.33
660.515	6.27
660.926	6.22
661.338	6.16
661.749	6.08
662.159	6.02
662.57	5.97
662.981	5.91
663.392	5.85
663.803	5.79
664.213	5.74
664.624	5.72
665.035	5.68
665.445	5.64
665.855	5.61
666.266	5.6
666.676	5.58
667.086	5.55
667.497	5.52
667.907	5.5
668.317	5.48
668.727	5.48
669.137	5.46
669.547	5.47
669.956	5.47
670.366	5.49
670.776	5.49
671.186	5.5
671.595	5.53
672.005	5.56
672.414	5.57
672.824	5.61
673.233	5.64
673.642	5.66
674.052	5.67
674.461	5.68
674.87	5.71
675.279	5.74
675.688	5.77
676.097	5.79
676.506	5.81
676.915	5.86
677.323	5.89
677.732	5.92
678.141	5.96
678.549	6.02
678.958	6.08
679.366	6.14
679.775	6.22
680.183	6.3
680.592	6.39
681	6.48
681.408	6.56
681.816	6.66
682.224	6.78
682.632	6.9
683.04	7.04
683.448	7.18
683.856	7.35
684.264	7.52
684.671	7.73
685.079	7.95
685.487	8.19
685.894	8.48
686.302	8.79
686.709	9.12
687.116	9.47
687.524	9.84
687.931	10.25
688.338	10.68
688.745	11.14
689.152	11.63
689.559	12.14
689.966	12.69
690.373	13.26
690.78	13.86
691.187	14.47
691.593	15.11
692	15.77
692.407	16.44
692.813	17.14
693.22	17.84
693.626	18.54
694.032	19.25
694.439	19.97
694.845	20.7
695.251	21.42
695.657	22.14
696.063	22.87
696.469	23.59
696.875	24.3
697.281	24.99
697.687	25.71
698.093	26.4
698.498	27.1
698.904	27.78
699.31	28.44
699.715	29.12
700.12	29.77
700.526	30.42
700.931	31.04
701.337	31.67
701.742	32.27
702.147	32.87
702.552	33.48
702.957	34.04
703.362	34.63
703.767	35.18
704.172	35.72
704.577	36.27
704.981	36.81
705.386	37.35
705.791	37.87
706.195	38.39
706.6	38.86
707.004	39.35
707.408	39.86
707.813	40.31
708.217	40.76
708.621	41.19
709.025	41.63
709.43	42.04
709.834	42.49
710.237	42.91
710.641	43.35
711.045	43.74
711.449	44.13
711.853	44.52
712.256	44.91
712.66	45.31
713.064	45.71
713.467	46.08
713.87	46.45
714.274	46.8
714.677	47.15
715.08	47.48
715.484	47.85
715.887	48.2
716.29	48.51
716.693	48.84
717.096	49.14
717.499	49.45
717.901	49.76
718.304	50.05
718.707	50.32
719.109	50.6
719.512	50.89
719.915	51.13
720.317	51.39
720.719	51.66
721.122	51.92
721.524	52.2
721.926	52.42
722.328	52.65
722.731	52.9
723.133	53.15
723.535	53.4
723.937	53.63
724.338	53.83
724.74	54.03
725.142	54.13
725.544	54.32
725.945	54.42
726.347	54.62
726.748	54.76
727.15	54.91
727.551	55.06
727.952	55.2
728.354	55.33
728.755	55.45
729.156	55.6
729.557	55.82
729.958	55.95
730.359	56.12
730.76	56.21
731.161	56.37
731.562	56.49
731.962	56.58
732.363	56.68
732.763	56.79
733.164	56.91
733.564	56.99
733.965	57.06
734.365	57.15
734.766	57.25
735.166	57.33
735.566	57.35
735.966	57.39
736.366	57.4
736.766	57.46
737.166	57.5
737.566	57.53
737.966	57.59
738.365	57.65
738.765	57.69
739.165	57.68
739.564	57.72
739.964	57.73
740.363	57.8
740.763	57.86
741.162	57.88
741.561	57.91
741.96	57.94
742.36	57.97
742.759	57.98
743.158	57.98
743.557	58.02
743.955	58.07
744.354	58.12
744.753	58.14
745.152	58.17
745.55	58.21
745.949	58.23
746.348	58.24
746.746	58.24
747.144	58.32
747.543	58.38
747.941	58.42
748.339	58.47
748.737	58.52
749.136	58.57
749.534	58.6
749.932	58.65
750.33	58.69
750.727	58.75
751.125	58.8
751.523	58.78
751.921	58.83
752.318	58.85
752.716	58.84
753.113	58.85
753.511	58.82
753.908	58.82
754.305	58.77
754.703	58.77
755.1	58.75
755.497	58.72
755.894	58.7
756.291	58.64
756.688	58.6
757.085	58.59
757.482	58.57
757.878	58.56
758.275	58.57
758.672	58.62
759.068	58.59
759.465	58.59
759.861	58.59
760.258	58.56
760.654	58.55
761.05	58.56
761.447	58.54
761.843	58.52
762.239	58.5
762.635	58.49
763.031	58.44
763.427	58.44
763.822	58.4
764.218	58.36
764.614	58.39
765.01	58.39
765.405	58.36
765.801	58.35
766.196	58.36
766.592	58.33
766.987	58.3
767.382	58.27
767.778	58.29
768.173	58.3
768.568	58.27
768.963	58.25
769.358	58.22
769.753	58.21
770.148	58.21
770.542	58.15
770.937	58.17
771.332	58.15
771.726	58.14
772.121	58.09
772.515	58.08
772.91	58.09
773.304	58.07
773.699	58.06
774.093	58.05
774.487	58.06
774.881	58.08
775.275	58.08
775.669	58.09
776.063	58.07
776.457	58.07
776.851	58.01
777.245	58.03
777.638	58.02
778.032	58.01
778.425	58.02
778.819	58.01
779.212	58.02
779.606	57.99
779.999	57.96
780.392	57.96
780.786	57.96
781.179	58.02
781.572	58.02
781.965	58.03
782.358	58.01
782.751	58.05
783.143	58.07
783.536	58.06
783.929	58.09
784.322	58.14
784.714	58.17
785.107	58.19
785.499	58.19
785.891	58.23
786.284	58.24
786.676	58.31
787.068	58.28
787.46	58.27
787.852	58.31
788.245	58.35
788.636	58.38
789.028	58.37
789.42	58.35
789.812	58.36
790.204	58.31
790.595	58.33
790.987	58.31
791.378	58.31
791.77	58.31
792.161	58.29
792.553	58.24
792.944	58.22
793.335	58.24
793.726	58.26
794.117	58.25
794.508	58.27
794.899	58.24
795.29	58.24
795.681	58.23
796.072	58.22
796.463	58.2
796.853	58.2
797.244	58.22
797.634	58.18
798.025	58.17
798.415	58.19
798.806	58.23
799.196	58.27
799.586	58.26
799.976	58.24
800.366	58.26
800.756	58.29
801.146	58.31
801.536	58.32
801.926	58.37
802.316	58.41
802.706	58.4
803.095	58.41
803.485	58.43
803.874	58.46
804.264	58.53
804.653	58.52
805.043	58.52
805.432	58.49
805.821	58.47
806.21	58.5
806.599	58.55
806.988	58.56
807.377	58.56
807.766	58.57
808.155	58.59
808.544	58.55
808.933	58.6
809.321	58.64
809.71	58.74
810.098	58.74
810.487	58.74
810.875	58.7
811.264	58.71
811.652	58.72
812.04	58.72
812.428	58.74
812.816	58.79
813.204	58.8
813.592	58.82
813.98	58.8
814.368	58.83
814.756	58.89
815.144	58.94
815.531	58.98
815.919	59
816.306	59.01
816.694	59.04
817.081	59.04
817.469	59.07
817.856	59.11
818.243	59.14
818.63	59.14
819.017	59.14
819.404	59.12
819.791	59.13
820.178	59.13
820.565	59.14
820.952	59.15
821.339	59.19
821.725	59.22
822.112	59.23
822.498	59.22
822.885	59.26
823.271	59.27
823.657	59.27
824.044	59.25
824.43	59.27
824.816	59.28
825.202	59.26
825.588	59.28
825.974	59.26
826.36	59.2
826.746	59.24
827.132	59.2
827.517	59.17
827.903	59.19
828.289	59.2
828.674	59.17
829.06	59.2
829.445	59.26
829.83	59.22
830.216	59.24
830.601	59.26
830.986	59.24
831.371	59.27
831.756	59.25
832.141	59.23
832.526	59.23
832.911	59.25
833.295	59.24
833.68	59.21
834.065	59.2
834.449	59.13
834.834	59.12
835.218	59.13
835.603	59.11
835.987	59.12
836.371	59.13
836.755	59.11
837.139	59.12
837.524	59.1
837.908	59.09
838.291	59.08
838.675	59.1
839.059	59.1
839.443	59.09
839.827	59.1
840.21	59.1
840.594	59.1
840.977	59.1
841.361	59.07
841.744	59.1
842.127	59.09
842.511	59.07
842.894	59.07
843.277	59.06
843.66	59.04
844.043	59.03
844.426	59.02
844.809	59.04
845.191	59
845.574	58.97
845.957	58.9
846.339	58.9
846.722	58.92
847.104	58.91
847.487	58.93
847.869	58.96
848.252	58.94
848.634	58.96
849.016	58.95
849.398	58.95
849.78	58.98
850.162	59
850.544	59.01
850.926	59
851.307	59
851.689	58.97
852.071	58.94
852.452	58.94
852.834	58.92
853.215	58.94
853.597	58.96
853.978	58.93
854.359	58.91
854.741	58.91
855.122	58.92
855.503	58.94
855.884	58.96
856.265	58.95
856.646	58.94
857.026	58.93
857.407	58.89
857.788	58.89
858.169	58.92
858.549	58.97
858.93	58.95
859.31	58.93
859.69	58.91
860.071	58.9
860.451	58.88
860.831	58.9
861.211	58.92
861.591	58.95
861.971	58.95
862.351	58.96
862.731	58.95
863.111	58.94
863.491	58.95
863.87	58.94
864.25	58.98
864.629	58.99
865.009	59.01
865.388	59.01
865.768	58.97
866.147	58.96
866.526	58.96
866.905	58.97
867.284	58.99
867.663	58.98
868.042	58.97
868.421	58.93
868.8	58.92
869.179	58.89
869.558	58.9
869.936	58.89
870.315	58.89
870.693	58.89
871.072	58.87
871.45	58.84
871.828	58.85
872.207	58.86
872.585	58.86
872.963	58.85
873.341	58.85
873.719	58.86
874.097	58.87
874.475	58.89
874.853	58.89
875.23	58.88
875.608	58.88
875.986	58.88
876.363	58.85
876.741	58.88
877.118	58.87
877.495	58.87
877.873	58.83
878.25	58.85
878.627	58.81
879.004	58.78
879.381	58.78
879.758	58.77
880.135	58.76
880.512	58.79
880.889	58.81
881.265	58.84
881.642	58.82
882.019	58.86
882.395	58.85
882.772	58.88
883.148	58.9
883.524	58.94
883.901	58.95
884.277	58.97
884.653	58.99
885.029	58.98
885.405	58.94
885.781	58.94
886.157	58.93
886.532	58.93
886.908	58.94
887.284	58.95
887.659	58.95
888.035	58.95
888.411	58.93
888.786	58.9
889.161	58.92
889.537	58.94
889.912	58.93
890.287	58.89
890.662	58.87
891.037	58.81
891.412	58.75
891.787	58.72
892.162	58.67
892.536	58.65
892.911	58.63
893.286	58.56
893.66	58.54
894.035	58.51
894.409	58.52
894.784	58.5
895.158	58.51
895.532	58.5
895.906	58.46
896.281	58.45
896.655	58.44
897.029	58.41
897.402	58.43
897.776	58.41
898.15	58.4
898.524	58.39
898.898	58.37
899.271	58.35
899.645	58.34
900.018	58.34
900.392	58.37
900.765	58.36
901.138	58.36
901.511	58.34
901.884	58.36
902.258	58.36
902.631	58.35
903.003	58.33
903.376	58.32
903.749	58.35
904.122	58.36
904.495	58.35
904.867	58.34
905.24	58.35
905.612	58.34
905.985	58.3
906.357	58.28
906.729	58.23
907.102	58.19
907.474	58.15
907.846	58.11
908.218	58.1
908.59	58.08
908.962	58.08
909.334	58.04
909.705	58
910.077	58
910.449	57.99
910.82	57.99
911.192	58.01
911.563	58.04
911.935	58.02
912.306	58
912.677	58.01
913.048	57.98
913.419	57.97
913.79	57.95
914.161	57.93
914.532	57.91
914.903	57.91
915.274	57.91
915.645	57.92
916.015	57.96
916.386	57.95
916.756	57.89
917.127	57.89
917.497	57.91
917.868	57.9
918.238	57.95
918.608	57.97
918.978	57.95
919.348	57.89
919.718	57.86
920.088	57.8
920.458	57.84
920.828	57.89
921.198	57.91
921.567	57.88
921.937	57.92
922.306	57.88
922.676	57.88
923.045	57.88
923.415	57.92
923.784	57.94
924.153	57.95
924.522	57.91
924.891	57.91
925.26	57.88
925.629	57.85
925.998	57.87
926.367	57.87
926.736	57.82
927.104	57.83
927.473	57.85
927.842	57.79
928.21	57.81
928.578	57.76
928.947	57.73
929.315	57.69
929.683	57.74
930.051	57.64
930.42	57.57
930.788	57.58
931.156	57.51
931.523	57.42
931.891	57.36
932.259	57.24
932.627	57.11
932.994	57.05
933.362	56.98
933.729	56.82
934.097	56.71
934.464	56.67
934.831	56.52
935.199	56.44
935.566	56.36
935.933	56.3
936.3	56.22
936.667	56.23
937.034	56.09
937.401	56.02
937.767	55.98
938.134	56.01
938.501	55.88
938.867	55.86
939.234	55.85
939.6	55.8
939.967	55.8
940.333	55.92
940.699	55.97
941.065	56.1
941.431	56.18
941.798	56.28
942.163	56.32
942.529	56.5
942.895	56.55
943.261	56.6
943.627	56.75
943.992	56.78
944.358	56.73
944.723	56.77
945.089	56.87
945.454	56.91
945.82	56.9
946.185	56.98
946.55	57.04
946.915	57.14
947.28	57.19
947.645	57.19
948.01	57.26
948.375	57.29
948.74	57.26
949.104	57.2
949.469	57.09
949.834	57.07
950.198	56.96
950.562	56.82
950.927	56.78
951.291	56.72
951.655	56.68
952.02	56.62
952.384	56.65
952.748	56.66
953.112	56.6
953.476	56.64
953.839	56.6
954.203	56.6
954.567	56.63
954.931	56.62
955.294	56.6
955.658	56.62
956.021	56.59
956.385	56.51
956.748	56.48
957.111	56.48
957.474	56.52
957.837	56.54
958.2	56.53
958.563	56.54
958.926	56.45
959.289	56.45
959.652	56.38
960.015	56.43
960.377	56.46
960.74	56.37
961.102	56.29
961.465	56.17
961.827	55.99
962.189	55.95
962.552	55.89
962.914	55.91
963.276	55.9
963.638	55.87
964	55.83
964.362	55.8
964.724	55.82
965.085	55.82
965.447	55.79
965.809	55.88
966.17	55.89
966.532	55.91
966.893	55.87
967.255	55.83
967.616	55.83
967.977	55.72
968.338	55.69
968.699	55.67
969.061	55.64
969.421	55.75
969.782	55.76
970.143	55.71
970.504	55.63
970.865	55.52
971.225	55.52
971.586	55.5
971.946	55.53
972.307	55.51
972.667	55.51
973.027	55.53
973.388	55.42
973.748	55.44
974.108	55.4
974.468	55.4
974.828	55.47
975.188	55.5
975.548	55.54
975.907	55.55
976.267	55.58
976.627	55.57
976.986	55.55
977.346	55.57
977.705	55.54
978.064	55.58
978.424	55.6
978.783	55.64
979.142	55.6
979.501	55.5
979.86	55.43
980.219	55.34
980.578	55.27
980.937	55.35
981.296	55.31
981.654	55.35
982.013	55.27
982.371	55.19
982.73	55.18
983.088	55.07
983.447	55.08
983.805	55.11
984.163	55.14
984.521	55.08
984.879	55.01
985.237	55.06
985.595	54.99
985.953	55.06
986.311	55.18
986.669	55.08
987.026	55.06
987.384	55.08
987.741	55.04
988.099	54.99
988.456	55.03
988.814	55
989.171	54.92
989.528	54.92
989.885	54.79
990.242	54.74
990.599	54.79
990.956	54.88
991.313	54.91
991.67	54.83
992.027	54.73
992.383	54.85
992.74	54.85
993.096	54.75
993.453	54.68
993.809	54.75
994.165	54.73
994.522	54.55
994.878	54.51
995.234	54.45
995.59	54.39
995.946	54.51
996.302	54.41
996.658	54.37
997.013	54.45
997.369	54.45
997.725	54.45
998.08	54.33
998.436	54.51
998.791	54.43
999.147	54.4
999.502	54.5
999.857	54.51
1000.212	54.4
1000.567	54.41
1000.922	54.41
1001.277	54.4
1001.632	54.41
1001.987	54.32
1002.342	54.18
1002.696	54.26
1003.051	54.1
1003.406	53.89
1003.76	53.93
1004.114	54.12
1004.469	54.05
1004.823	53.94
1005.177	54.05
1005.531	53.94
1005.885	53.98
1006.239	53.99
1006.593	53.79
1006.947	53.82
1007.301	54.1
1007.655	54.06
1008.008	53.7
1008.362	53.54
1008.715	53.56
1009.069	53.34
1009.422	53.13
1009.776	53.09
1010.129	53.01
1010.482	53.08
1010.835	53.33
1011.188	53.18
1011.541	52.73
1011.894	52.82
1012.247	52.85
1012.6	52.84
1012.952	52.76
1013.305	52.9
1013.657	52.88
1014.01	52.88
1014.362	53.02
1014.715	52.63
1015.067	52.6
1015.419	53.01
1015.771	53.34
1016.123	53.44
1016.475	53.4
1016.827	53.34
1017.179	53.24
1017.531	53.37
1017.883	53.41
1018.234	52.94
1018.586	52.8
1018.938	52.28
1019.289	52.09
1019.64	51.85
1019.992	51.76
1020.343	51.69
1020.694	51.65
1021.045	51.62
1021.396	51.25
1021.747	51.02
1022.098	51.27
1022.449	51.28
1022.8	51.55
1023.151	51.53
1023.501	51.22
1023.852	51.1
1024.202	50.82
1024.553	50.67
1024.903	50.64
1025.253	50.84
1025.604	50.62
1025.954	50.35
1026.304	50.7
1026.654	50.76
1027.004	50.61
1027.354	50.66
1027.703	50.33
1028.053	50.36
1028.403	49.99
1028.753	50.26
1029.102	49.77
1029.452	49.64
1029.801	49.35
1030.15	48.9
1030.499	48.56
897.758	339.4
901.051	339.26
904.343	348.32
907.636	339.54
910.928	337.36
914.22	338.72
917.511	330.78
920.803	318.05
924.094	306.38
927.384	309.54
930.675	299.38
933.965	294.89
937.255	296.67
940.544	279.96
943.834	270.23
947.123	263.94
950.411	254.09
953.7	250.84
956.988	243.18
960.276	233.62
963.563	234.92
966.851	221.58
970.138	218.61
973.424	205.88
976.711	203.16
979.997	197.24
983.283	193.41
986.568	187.82
989.853	183.01
993.138	175.95
996.423	176.39
999.708	168.95
1002.992	170.55
1006.275	166.24
1009.559	165.33
1012.842	162.61
1016.125	157.41
1019.408	154.77
1022.69	154.31
1025.972	153.01
1029.254	151.53
1032.536	146.92
1035.817	143.28
1039.098	140.88
1042.379	140.04
1045.659	138.48
1048.939	136.75
1052.219	136.69
1055.498	135.06
1058.778	133.08
1062.057	131.73
1065.335	130.48
1068.614	128.62
1071.892	127.96
1075.17	126.97
1078.447	124.47
1081.724	123.47
1085.001	120.7
1088.278	121.14
1091.554	120.45
1094.83	119.51
1098.106	118.07
1101.382	117.08
1104.657	117.9
1107.932	117.22
1111.206	117.06
1114.481	116.02
1117.755	115.33
1121.029	116.03
1124.302	113.16
1127.575	112.18
1130.848	111.72
1134.121	109.59
1137.393	109.91
1140.665	108.81
1143.937	107.92
1147.208	106.16
1150.48	105.49
1153.75	104.1
1157.021	103.76
1160.291	103.83
1163.561	103.16
1166.831	103
1170.101	103.77
1173.37	102.76
1176.639	101.97
1179.907	102.14
1183.176	101.91
1186.444	102.05
1189.711	101.69
1192.979	101.88
1196.246	102.26
1199.513	101.52
1202.78	101.13
1206.046	100.95
1209.312	101.12
1212.578	101.44
1215.843	102.54
1219.108	103.58
1222.373	104.76
1225.638	106.54
1228.902	108.5
1232.166	110.98
1235.43	111.84
1238.693	114.42
1241.956	116.05
1245.219	118.85
1248.482	119.53
1251.744	118.42
1255.006	119.54
1258.268	116.67
1261.529	116.13
1264.79	113.47
1268.051	111.23
1271.312	112.24
1274.572	110.02
1277.832	108.88
1281.092	107.56
1284.351	105.83
1287.61	106.02
1290.869	104.91
1294.128	105.29
1297.386	104.55
1300.644	104.46
1303.902	103.67
1307.159	102.23
1310.416	103.13
1313.673	103.54
1316.93	103.81
1320.186	105.77
1323.442	106.1
1326.697	106.48
1329.953	106.65
1333.208	109.65
1336.463	112.19
1339.717	114.1
1342.972	118.5
1346.226	120.67
1349.479	120.99
1352.733	125.37
1355.986	125.67
1359.238	128.49
1362.491	129.19
1365.743	133.73
1368.995	134.27
1372.247	134.75
1375.498	133.76
1378.749	136.36
1382	135.85
1385.251	134.7
1388.501	134.83
1391.751	135.85
1395	133.05
1398.25	134.74
1401.499	133.23
1404.748	130.99
1407.996	127.21
1411.244	127.04
1414.492	124.41
1417.74	121.46
1420.987	118.29
1424.234	114.56
1427.481	110.37
1430.728	108.74
1433.974	104.42
1437.22	101.46
1440.465	97.82
1443.711	94.82
1446.956	92.8
1450.201	89.47
1453.445	85.28
1456.689	83.74
1459.933	81.43
1463.177	78.63
1466.42	77.54
1469.663	75.97
1472.906	73.45
1476.148	72.4
1479.391	70.55
1482.633	69.17
1485.874	69.24
1489.115	68.73
1492.356	68.43
1495.597	67.32
1498.838	67.87
1502.078	66.84
1505.318	66.75
1508.557	66.31
1511.797	66.35
1515.036	66.93
1518.274	67.15
1521.513	66.56
1524.751	66.43
1527.989	67.11
1531.227	67.5
1534.464	67.47
1537.701	67.26
1540.938	67.14
1544.174	67.9
1547.41	68.26
1550.646	68.22
1553.882	68.37
1557.117	68.2
1560.352	68.39
1563.587	67.71
1566.821	67.83
1570.055	67.45
1573.289	67.67
1576.523	67.46
1579.756	67.32
1582.989	67.54
1586.222	67.29
1589.454	67.5
1592.686	67.53
1595.918	67.19
1599.15	67.07
1602.381	67.35
1605.612	67.63
1608.843	67.61
1612.073	68.76
1615.303	68.71
1618.533	68.27
1621.762	68.84
1624.992	68.6
1628.221	68.74
1631.449	69.38
1634.678	69.67
1637.906	69.74
1641.134	69.69
1644.361	69.88
1647.588	69.56
1650.815	70.01
1654.042	70.36
1657.269	70.23
1660.495	70.87
1663.72	70.95
1666.946	71
1670.171	71.47
1673.396	71.49
1676.621	71.57
1679.845	71.77
1683.069	71.43
1686.293	71.17
1689.517	71.07
1692.74	71.34
1695.963	71.07
1699.185	71.32
1702.408	70.72
1705.63	70.64
1708.852	71.36
1712.073	71.46
1715.294	71.43
1718.515	72.08
1721.736	72.22
1724.956	72.33
1728.176	72.01
1731.396	72.29
1734.616	72.36
1737.835	72.86
1741.054	72.57
1744.272	72.19
1747.491	71.83
1750.709	72.2
1753.927	72.07
1757.144	71.88
1760.361	71.44
1763.578	71.95
1766.795	72.12
1770.011	71.92
1773.227	71.82
1776.443	72.29
1779.658	71.93
1782.874	72.74
1786.089	72.09
1789.303	72.1
1792.518	72.42
1795.732	73.25
1798.945	73.84
1802.159	73.77
1805.372	74.19
1808.585	75.14
1811.797	75.36
1815.01	76.5
1818.222	76.63
1821.434	77.92
1824.645	78.08
1827.856	78.71
1831.067	78.71
1834.278	78.8
1837.488	79.85
1840.698	80
1843.908	79.79
1847.117	80.49
1850.326	79.85
1853.535	79.89
1856.744	79.89
1859.952	79.54
1863.16	79.68
1866.368	79.31
1869.575	78.92
1872.782	76.75
1875.989	74.67
1879.196	74.7
1882.402	72.59
1885.608	72.44
1888.814	71.33
1892.019	70.35
1895.224	69.61
1898.429	69.31
1901.634	68.26
1904.838	67.56
1908.042	67.95
1911.246	68.69
1914.449	67.83
1917.652	68.11
1920.855	68.13
1924.058	67.96
1927.26	67.21
1930.462	68.01
1933.664	67.24
1936.865	68.06
1940.066	67.34
1943.267	66.88
1946.467	67.25
1949.668	66.83
1952.868	67.14
1956.067	66.76
1959.267	67.95
1962.466	67.96
1965.665	68.99
1968.863	69.86
1972.061	69.9
1975.259	72.05
1978.457	72.65
1981.654	73.33
1984.852	75.01
1988.048	75.51
1991.245	77.31
1994.441	78.6
1997.637	79.73
2000.833	81.28
2004.028	82.15
2007.223	84.56
2010.418	85.44
2013.613	90.37
2016.807	93.06
2020.001	94.38
2023.194	98.29
2026.388	100.93
2029.581	105.86
2032.774	110.19
2035.966	111.98
2039.158	115.49
2042.35	116.91
2045.542	119.68
2048.733	122.49
2051.924	122.55
2055.115	125.58
2058.306	125.58
2061.496	127.51
2064.686	127.34
2067.875	126.06
2071.065	129.97
2074.254	128.82
2077.442	133.21
2080.631	134.95
2083.819	135.03
2087.007	141.11
2090.195	141.92
2093.382	142.5
2096.569	143.29
2099.756	144.97
2102.942	149.99
2106.128	149.98
2109.314	153.37
2112.5	153.23
2115.685	150.26
2118.87	151.69
2122.055	150.6
2125.239	153.72
2128.424	157.66
2131.608	154.52
2134.791	153.79
2137.974	154.36
2141.157	156.98
2144.34	157.74
2147.523	161.38
2150.705	165.98
2153.887	164.43
2157.068	165.55
2160.25	166.33
2163.431	165.84
2166.611	168.06
2169.792	173.35
2172.972	173.94
2176.152	174.28
2179.331	176.34
2182.511	176.59
2185.69	179.39
2188.868	182.81
2192.047	189.27
2195.225	193.6
2198.403	192.98
2201.58	195.02
2204.758	198.26
2207.935	200.32
2211.111	204.32
2214.288	206.2
2217.464	207.22
2220.64	209.82
2223.815	212.79
2226.991	208.31
2230.166	209.45
2233.34	219.09
2236.515	218
2239.689	219.14
2242.863	223.23
2246.036	220.95
2249.209	224.26
2252.382	223.15
2255.555	232.09
2258.727	233.89
2261.9	238.09
2265.071	239.53
2268.243	239.03
2271.414	253.08
2274.585	254.11
2277.756	252.51
2280.926	257.12
2284.096	263.04
2287.266	264.41
2290.436	259.55
2293.605	265.64
2296.774	276.73
2299.942	280.74
2303.111	285.75
2306.279	287.73
2309.447	291.96
2312.614	296.93
2315.781	305.6
2318.948	307.23
2322.115	314.82
2325.281	323.24
2328.447	320.28
2331.613	324.89
2334.779	326.16
2337.944	326.47
2341.109	334.12
2344.274	333.55
2347.438	339.4
2350.602	345.62
2353.766	369.2
2356.929	368.87
2360.092	380.3
2363.255	382.76
2366.418	383.87
2369.58	390.11
2372.742	397.17
2375.904	396.17
2379.066	408.17
2382.227	429.65
2385.388	427.63
2388.548	400.03
2391.709	399.78
2394.869	405.21
2398.029	410.08
2401.188	403.45
2404.347	422.79
2407.506	433.42
2410.665	416.31
2413.823	418.32
2416.981	419.66
2420.139	402.8
2423.296	435.53
2426.453	461.01
2429.61	444.49
2432.767	468.16
2435.923	495.89
2439.079	474.83
2442.235	484.33
2445.391	501.88
2448.546	500.11
2451.701	519.72
2454.855	553
2458.009	498.98
2461.163	508.66
2464.317	517.62
2467.471	510.02
2470.624	513.58
2473.777	505.78
2476.929	492.16
2480.082	518.86
2483.234	543.74
2486.385	557.57
2489.537	570.69
2492.688	617.01
2495.839	603.42
2498.989	615.01
2502.14	612.12
2505.29	599.87
2508.439	659.71
2511.589	674.31
2514.738	656.69
2517.887	648.12
2521.035	609.55
2524.183	602.37
2527.331	600.59
2530.479	587.48
2533.627	600.95
