Data from C_2_div_wi_4n_062_Splice17_20.txt Node
Date: Sat Feb 29 14:29:27 EST 2020
User: sa697716
Spectrometer: FLMS03696
Trigger mode: 0
Integration Time (sec): 3.180400E-1
Scans to average: 20
Electric dark correction enabled: true
Nonlinearity correction enabled: true
Boxcar width: 5
XAxis mode: Wavelengths
Number of Pixels in Spectrum: 2048
>>>>>Begin Spectral Data<<<<<
187.83	102.24
188.298	118.57
188.766	97.17
189.233	92.13
189.701	95.25
190.169	92.08
190.636	89.4
191.104	75.29
191.571	285.38
192.039	228.32
192.506	146.24
192.974	10908.58
193.441	-1538.09
193.908	216.1
194.375	257.52
194.842	218.16
195.31	90.48
195.777	-12.52
196.244	-16.6
196.711	11.23
197.177	10.49
197.644	12.74
198.111	12.14
198.578	12.26
199.045	13.09
199.511	14.13
199.978	14.94
200.445	15.53
200.911	16.16
201.378	16.75
201.844	17.33
202.31	18.31
202.777	18.51
203.243	19.49
203.709	19.88
204.176	19.73
204.642	19.85
205.108	20.11
205.574	20.39
206.04	20.76
206.506	20.89
206.972	20.69
207.438	20.3
207.903	20.24
208.369	19.92
208.835	20.22
209.301	20.4
209.766	20.43
210.232	20.3
210.697	20.13
211.163	19.68
211.628	19.15
212.094	19.18
212.559	18.66
213.024	18.71
213.49	18.31
213.955	18.08
214.42	17.65
214.885	17.27
215.35	16.93
215.815	16.21
216.28	15.95
216.745	15.59
217.21	14.85
217.675	14.52
218.14	13.77
218.604	13.29
219.069	12.9
219.534	12.49
219.998	12.19
220.463	11.86
220.927	11.65
221.392	11.35
221.856	11.09
222.32	10.87
222.785	10.69
223.249	10.54
223.713	10.41
224.177	10.2
224.642	10.12
225.106	9.97
225.57	9.81
226.034	9.68
226.497	9.61
226.961	9.49
227.425	9.35
227.889	9.23
228.353	9.09
228.816	8.98
229.28	8.85
229.744	8.73
230.207	8.63
230.671	8.56
231.134	8.47
231.597	8.31
232.061	8.22
232.524	8.17
232.987	8.05
233.45	7.97
233.914	7.87
234.377	7.82
234.84	7.72
235.303	7.64
235.766	7.55
236.229	7.46
236.691	7.4
237.154	7.33
237.617	7.24
238.08	7.19
238.542	7.12
239.005	7.05
239.468	6.94
239.93	6.87
240.393	6.8
240.855	6.73
241.317	6.67
241.78	6.62
242.242	6.55
242.704	6.49
243.166	6.42
243.629	6.35
244.091	6.29
244.553	6.26
245.015	6.22
245.477	6.15
245.939	6.1
246.4	6.04
246.862	5.99
247.324	5.95
247.786	5.9
248.247	5.85
248.709	5.81
249.17	5.77
249.632	5.71
250.093	5.64
250.555	5.61
251.016	5.57
251.477	5.53
251.939	5.48
252.4	5.44
252.861	5.41
253.322	5.36
253.783	5.34
254.244	5.3
254.705	5.27
255.166	5.26
255.627	5.24
256.088	5.2
256.549	5.17
257.009	5.14
257.47	5.11
257.931	5.07
258.391	5.04
258.852	5.01
259.312	4.98
259.773	4.95
260.233	4.91
260.694	4.87
261.154	4.84
261.614	4.81
262.074	4.79
262.534	4.75
262.994	4.72
263.455	4.69
263.915	4.66
264.374	4.63
264.834	4.61
265.294	4.58
265.754	4.55
266.214	4.54
266.673	4.51
267.133	4.49
267.593	4.47
268.052	4.44
268.512	4.42
268.971	4.4
269.431	4.38
269.89	4.36
270.349	4.34
270.809	4.32
271.268	4.3
271.727	4.28
272.186	4.26
272.645	4.24
273.104	4.22
273.563	4.21
274.022	4.19
274.481	4.17
274.94	4.15
275.399	4.13
275.857	4.12
276.316	4.1
276.775	4.08
277.233	4.06
277.692	4.04
278.15	4.02
278.609	4
279.067	3.98
279.525	3.96
279.984	3.94
280.442	3.93
280.9	3.91
281.358	3.89
281.816	3.88
282.274	3.87
282.732	3.85
283.19	3.84
283.648	3.84
284.106	3.82
284.564	3.82
285.021	3.8
285.479	3.79
285.937	3.78
286.394	3.77
286.852	3.76
287.309	3.75
287.767	3.74
288.224	3.73
288.682	3.71
289.139	3.7
289.596	3.68
290.053	3.66
290.511	3.64
290.968	3.62
291.425	3.61
291.882	3.6
292.339	3.58
292.796	3.56
293.252	3.55
293.709	3.54
294.166	3.52
294.623	3.51
295.079	3.5
295.536	3.49
295.992	3.48
296.449	3.47
296.905	3.46
297.362	3.44
297.818	3.43
298.274	3.42
298.731	3.41
299.187	3.4
299.643	3.4
300.099	3.39
300.555	3.37
301.011	3.36
301.467	3.34
301.923	3.35
302.379	3.34
302.835	3.33
303.291	3.32
303.746	3.3
304.202	3.3
304.658	3.28
305.113	3.28
305.569	3.28
306.024	3.27
306.479	3.26
306.935	3.25
307.39	3.25
307.845	3.24
308.301	3.24
308.756	3.25
309.211	3.24
309.666	3.24
310.121	3.24
310.576	3.23
311.031	3.23
311.486	3.23
311.94	3.23
312.395	3.23
312.85	3.22
313.305	3.23
313.759	3.22
314.214	3.22
314.668	3.22
315.123	3.22
315.577	3.22
316.032	3.21
316.486	3.21
316.94	3.21
317.394	3.19
317.849	3.19
318.303	3.17
318.757	3.16
319.211	3.14
319.665	3.13
320.119	3.12
320.572	3.12
321.026	3.11
321.48	3.1
321.934	3.09
322.387	3.09
322.841	3.08
323.295	3.08
323.748	3.07
324.202	3.08
324.655	3.07
325.108	3.06
325.562	3.05
326.015	3.04
326.468	3.03
326.921	3.02
327.374	3.01
327.827	3
328.28	2.99
328.733	2.98
329.186	2.97
329.639	2.96
330.092	2.95
330.545	2.94
330.997	2.94
331.45	2.94
331.903	2.94
332.355	2.94
332.808	2.94
333.26	2.94
333.713	2.94
334.165	2.94
334.617	2.94
335.069	2.94
335.522	2.95
335.974	2.95
336.426	2.96
336.878	2.95
337.33	2.95
337.782	2.95
338.234	2.94
338.686	2.94
339.137	2.94
339.589	2.94
340.041	2.93
340.493	2.91
340.944	2.9
341.396	2.89
341.847	2.88
342.299	2.87
342.75	2.85
343.201	2.84
343.653	2.82
344.104	2.82
344.555	2.81
345.006	2.8
345.457	2.79
345.908	2.79
346.359	2.79
346.81	2.79
347.261	2.77
347.712	2.78
348.163	2.78
348.613	2.77
349.064	2.75
349.515	2.74
349.965	2.74
350.416	2.73
350.866	2.72
351.317	2.7
351.767	2.7
352.217	2.7
352.668	2.7
353.118	2.7
353.568	2.7
354.018	2.71
354.468	2.7
354.918	2.71
355.368	2.72
355.818	2.72
356.268	2.73
356.718	2.74
357.168	2.73
357.617	2.72
358.067	2.72
358.517	2.71
358.966	2.72
359.416	2.73
359.865	2.72
360.315	2.71
360.764	2.72
361.213	2.71
361.663	2.71
362.112	2.73
362.561	2.74
363.01	2.75
363.459	2.77
363.908	2.76
364.357	2.76
364.806	2.78
365.255	2.79
365.703	2.81
366.152	2.83
366.601	2.85
367.05	2.86
367.498	2.89
367.947	2.9
368.395	2.91
368.844	2.93
369.292	2.96
369.74	2.98
370.189	3
370.637	3.02
371.085	3.04
371.533	3.06
371.981	3.07
372.429	3.08
372.877	3.1
373.325	3.12
373.773	3.14
374.221	3.16
374.669	3.17
375.116	3.19
375.564	3.22
376.012	3.25
376.459	3.29
376.907	3.33
377.354	3.37
377.801	3.4
378.249	3.45
378.696	3.5
379.143	3.54
379.591	3.58
380.038	3.63
380.485	3.68
380.932	3.71
381.379	3.74
381.826	3.78
382.273	3.81
382.72	3.86
383.166	3.91
383.613	3.94
384.06	3.98
384.506	4.01
384.953	4.04
385.4	4.08
385.846	4.12
386.292	4.16
386.739	4.19
387.185	4.23
387.631	4.27
388.078	4.3
388.524	4.32
388.97	4.35
389.416	4.37
389.862	4.4
390.308	4.42
390.754	4.46
391.2	4.5
391.645	4.52
392.091	4.54
392.537	4.57
392.983	4.61
393.428	4.65
393.874	4.68
394.319	4.72
394.765	4.73
395.21	4.74
395.655	4.77
396.101	4.78
396.546	4.8
396.991	4.82
397.436	4.83
397.881	4.83
398.326	4.85
398.771	4.86
399.216	4.89
399.661	4.93
400.106	4.96
400.551	4.96
400.995	4.98
401.44	4.98
401.885	4.98
402.329	4.98
402.774	4.98
403.218	4.98
403.663	4.98
404.107	4.98
404.551	4.97
404.995	4.97
405.44	4.97
405.884	4.96
406.328	4.95
406.772	4.96
407.216	4.97
407.66	4.97
408.104	4.97
408.547	4.98
408.991	4.97
409.435	4.98
409.879	4.97
410.322	4.98
410.766	4.99
411.209	5.01
411.653	5
412.096	4.99
412.54	4.99
412.983	4.98
413.426	4.99
413.869	4.99
414.312	5.01
414.756	5.02
415.199	5.03
415.642	5.05
416.085	5.06
416.527	5.08
416.97	5.09
417.413	5.11
417.856	5.11
418.298	5.09
418.741	5.09
419.184	5.07
419.626	5.06
420.069	5.06
420.511	5.04
420.953	5.03
421.396	5.03
421.838	5.03
422.28	5.03
422.722	5.05
423.164	5.06
423.606	5.06
424.048	5.06
424.49	5.08
424.932	5.08
425.374	5.08
425.816	5.06
426.258	5.05
426.699	5.02
427.141	5
427.582	4.99
428.024	4.99
428.465	4.98
428.907	4.98
429.348	4.98
429.789	4.99
430.231	4.98
430.672	4.97
431.113	4.99
431.554	5.01
431.995	5.02
432.436	5.03
432.877	5.01
433.318	5.01
433.759	5
434.2	4.99
434.64	4.99
435.081	5
435.522	5.01
435.962	5.01
436.403	5.01
436.843	4.99
437.284	5
437.724	5.02
438.164	5.05
438.604	5.07
439.045	5.08
439.485	5.08
439.925	5.11
440.365	5.13
440.805	5.15
441.245	5.15
441.685	5.19
442.125	5.18
442.564	5.21
443.004	5.22
443.444	5.23
443.883	5.24
444.323	5.24
444.762	5.26
445.202	5.29
445.641	5.31
446.081	5.36
446.52	5.36
446.959	5.39
447.398	5.41
447.837	5.45
448.276	5.48
448.716	5.5
449.154	5.54
449.593	5.54
450.032	5.57
450.471	5.58
450.91	5.57
451.349	5.57
451.787	5.58
452.226	5.56
452.664	5.55
453.103	5.55
453.541	5.55
453.98	5.53
454.418	5.53
454.856	5.51
455.295	5.51
455.733	5.52
456.171	5.53
456.609	5.53
457.047	5.52
457.485	5.52
457.923	5.52
458.361	5.51
458.798	5.53
459.236	5.53
459.674	5.52
460.111	5.52
460.549	5.5
460.987	5.51
461.424	5.5
461.862	5.5
462.299	5.49
462.736	5.49
463.173	5.49
463.611	5.47
464.048	5.47
464.485	5.47
464.922	5.46
465.359	5.45
465.796	5.42
466.233	5.43
466.67	5.44
467.106	5.43
467.543	5.43
467.98	5.43
468.416	5.43
468.853	5.43
469.29	5.45
469.726	5.45
470.162	5.45
470.599	5.46
471.035	5.47
471.471	5.46
471.907	5.48
472.344	5.48
472.78	5.48
473.216	5.5
473.652	5.5
474.088	5.49
474.523	5.5
474.959	5.51
475.395	5.51
475.831	5.52
476.266	5.53
476.702	5.52
477.138	5.52
477.573	5.52
478.008	5.52
478.444	5.51
478.879	5.52
479.314	5.51
479.75	5.52
480.185	5.52
480.62	5.52
481.055	5.51
481.49	5.51
481.925	5.5
482.36	5.5
482.795	5.49
483.229	5.49
483.664	5.5
484.099	5.5
484.534	5.51
484.968	5.5
485.403	5.51
485.837	5.51
486.271	5.52
486.706	5.52
487.14	5.54
487.574	5.56
488.009	5.58
488.443	5.58
488.877	5.6
489.311	5.6
489.745	5.63
490.179	5.65
490.613	5.68
491.046	5.7
491.48	5.74
491.914	5.76
492.348	5.8
492.781	5.83
493.215	5.86
493.648	5.91
494.082	5.97
494.515	6
494.948	6.05
495.382	6.11
495.815	6.17
496.248	6.22
496.681	6.28
497.114	6.33
497.547	6.4
497.98	6.47
498.413	6.54
498.846	6.61
499.279	6.71
499.711	6.79
500.144	6.88
500.577	6.97
501.009	7.06
501.442	7.17
501.874	7.28
502.306	7.41
502.739	7.52
503.171	7.65
503.603	7.78
504.036	7.91
504.468	8.07
504.9	8.23
505.332	8.4
505.764	8.57
506.196	8.75
506.627	8.94
507.059	9.13
507.491	9.35
507.923	9.56
508.354	9.78
508.786	10
509.217	10.22
509.649	10.47
510.08	10.73
510.512	10.99
510.943	11.24
511.374	11.51
511.805	11.79
512.237	12.07
512.668	12.36
513.099	12.65
513.53	12.97
513.961	13.28
514.391	13.57
514.822	13.87
515.253	14.18
515.684	14.5
516.114	14.84
516.545	15.16
516.975	15.5
517.406	15.82
517.836	16.15
518.267	16.48
518.697	16.83
519.127	17.16
519.558	17.51
519.988	17.82
520.418	18.13
520.848	18.43
521.278	18.73
521.708	18.98
522.138	19.27
522.567	19.57
522.997	19.84
523.427	20.12
523.857	20.4
524.286	20.66
524.716	20.94
525.145	21.23
525.575	21.49
526.004	21.73
526.433	22.04
526.863	22.3
527.292	22.54
527.721	22.79
528.15	22.99
528.579	23.2
529.008	23.41
529.437	23.59
529.866	23.76
530.295	23.95
530.724	24.15
531.152	24.3
531.581	24.43
532.01	24.57
532.438	24.69
532.867	24.82
533.295	24.91
533.723	25.01
534.152	25.12
534.58	25.22
535.008	25.29
535.436	25.35
535.865	25.41
536.293	25.5
536.721	25.55
537.149	25.6
537.576	25.65
538.004	25.72
538.432	25.77
538.86	25.81
539.287	25.87
539.715	25.91
540.143	25.93
540.57	25.98
540.998	26
541.425	26.04
541.852	26.08
542.28	26.11
542.707	26.15
543.134	26.18
543.561	26.22
543.988	26.25
544.415	26.29
544.842	26.33
545.269	26.36
545.696	26.38
546.123	26.41
546.549	26.43
546.976	26.47
547.403	26.48
547.829	26.5
548.256	26.52
548.682	26.54
549.108	26.55
549.535	26.56
549.961	26.56
550.387	26.56
550.813	26.58
551.24	26.59
551.666	26.61
552.092	26.6
552.518	26.59
552.943	26.58
553.369	26.57
553.795	26.56
554.221	26.55
554.646	26.56
555.072	26.54
555.498	26.5
555.923	26.44
556.349	26.37
556.774	26.31
557.199	26.26
557.625	26.19
558.05	26.11
558.475	26.03
558.9	25.94
559.325	25.83
559.75	25.72
560.175	25.61
560.6	25.5
561.025	25.37
561.449	25.26
561.874	25.15
562.299	25.01
562.723	24.86
563.148	24.69
563.572	24.55
563.997	24.41
564.421	24.25
564.846	24.11
565.27	23.94
565.694	23.77
566.118	23.58
566.542	23.39
566.966	23.23
567.39	23.05
567.814	22.88
568.238	22.67
568.662	22.47
569.086	22.28
569.509	22.09
569.933	21.89
570.357	21.72
570.78	21.55
571.204	21.36
571.627	21.18
572.05	21.01
572.474	20.85
572.897	20.7
573.32	20.55
573.743	20.39
574.166	20.23
574.589	20.11
575.012	19.99
575.435	19.84
575.858	19.72
576.281	19.58
576.704	19.46
577.126	19.34
577.549	19.24
577.972	19.12
578.394	19.01
578.817	18.9
579.239	18.78
579.661	18.68
580.084	18.59
580.506	18.49
580.928	18.4
581.35	18.3
581.772	18.23
582.194	18.13
582.616	18.08
583.038	17.99
583.46	17.94
583.882	17.86
584.303	17.77
584.725	17.68
585.147	17.59
585.568	17.51
585.99	17.46
586.411	17.35
586.833	17.26
587.254	17.17
587.675	17.11
588.096	17.03
588.518	16.95
588.939	16.9
589.36	16.84
589.781	16.8
590.202	16.74
590.623	16.67
591.043	16.63
591.464	16.59
591.885	16.54
592.305	16.5
592.726	16.45
593.147	16.43
593.567	16.37
593.987	16.34
594.408	16.28
594.828	16.24
595.248	16.2
595.669	16.17
596.089	16.14
596.509	16.1
596.929	16.06
597.349	16.02
597.769	15.97
598.189	15.94
598.608	15.9
599.028	15.88
599.448	15.84
599.867	15.79
600.287	15.75
600.706	15.69
601.126	15.64
601.545	15.59
601.965	15.53
602.384	15.5
602.803	15.44
603.222	15.37
603.641	15.3
604.061	15.24
604.48	15.18
604.898	15.11
605.317	15.05
605.736	14.98
606.155	14.89
606.574	14.83
606.992	14.74
607.411	14.68
607.829	14.56
608.248	14.49
608.666	14.42
609.085	14.33
609.503	14.23
609.921	14.17
610.339	14.1
610.758	14.03
611.176	13.95
611.594	13.88
612.012	13.79
612.43	13.75
612.847	13.68
613.265	13.6
613.683	13.53
614.101	13.46
614.518	13.39
614.936	13.31
615.353	13.24
615.771	13.16
616.188	13.09
616.606	13.02
617.023	12.95
617.44	12.9
617.857	12.84
618.274	12.79
618.691	12.75
619.108	12.7
619.525	12.65
619.942	12.61
620.359	12.59
620.776	12.56
621.192	12.53
621.609	12.49
622.026	12.46
622.442	12.43
622.859	12.4
623.275	12.39
623.691	12.37
624.108	12.36
624.524	12.34
624.94	12.32
625.356	12.31
625.772	12.3
626.188	12.29
626.604	12.27
627.02	12.26
627.436	12.24
627.852	12.21
628.268	12.19
628.683	12.16
629.099	12.15
629.514	12.12
629.93	12.08
630.345	12.04
630.761	12
631.176	11.97
631.591	11.93
632.007	11.87
632.422	11.82
632.837	11.75
633.252	11.68
633.667	11.59
634.082	11.51
634.497	11.4
634.911	11.3
635.326	11.19
635.741	11.07
636.155	10.96
636.57	10.84
636.984	10.69
637.399	10.55
637.813	10.41
638.228	10.27
638.642	10.13
639.056	10.01
639.47	9.87
639.884	9.72
640.298	9.58
640.712	9.43
641.126	9.29
641.54	9.17
641.954	9.05
642.368	8.92
642.781	8.79
643.195	8.66
643.609	8.55
644.022	8.43
644.436	8.33
644.849	8.23
645.262	8.14
645.676	8.04
646.089	7.95
646.502	7.86
646.915	7.79
647.328	7.74
647.741	7.68
648.154	7.63
648.567	7.59
648.98	7.55
649.393	7.52
649.805	7.48
650.218	7.46
650.631	7.43
651.043	7.4
651.456	7.37
651.868	7.34
652.28	7.33
652.693	7.28
653.105	7.25
653.517	7.22
653.929	7.19
654.341	7.16
654.753	7.11
655.165	7.07
655.577	7.02
655.989	6.98
656.401	6.92
656.813	6.84
657.224	6.79
657.636	6.73
658.047	6.66
658.459	6.58
658.87	6.51
659.282	6.46
659.693	6.4
660.104	6.34
660.515	6.27
660.926	6.22
661.338	6.18
661.749	6.11
662.159	6.06
662.57	6.01
662.981	5.97
663.392	5.93
663.803	5.89
664.213	5.84
664.624	5.8
665.035	5.76
665.445	5.72
665.855	5.69
666.266	5.67
666.676	5.64
667.086	5.61
667.497	5.59
667.907	5.57
668.317	5.54
668.727	5.51
669.137	5.5
669.547	5.51
669.956	5.5
670.366	5.51
670.776	5.51
671.186	5.52
671.595	5.53
672.005	5.56
672.414	5.58
672.824	5.61
673.233	5.66
673.642	5.68
674.052	5.69
674.461	5.71
674.87	5.74
675.279	5.77
675.688	5.79
676.097	5.83
676.506	5.86
676.915	5.9
677.323	5.94
677.732	5.99
678.141	6.04
678.549	6.11
678.958	6.18
679.366	6.24
679.775	6.31
680.183	6.39
680.592	6.46
681	6.54
681.408	6.63
681.816	6.73
682.224	6.83
682.632	6.97
683.04	7.1
683.448	7.24
683.856	7.4
684.264	7.59
684.671	7.79
685.079	8.02
685.487	8.29
685.894	8.57
686.302	8.87
686.709	9.19
687.116	9.54
687.524	9.92
687.931	10.33
688.338	10.78
688.745	11.26
689.152	11.76
689.559	12.26
689.966	12.81
690.373	13.4
690.78	13.99
691.187	14.61
691.593	15.23
692	15.88
692.407	16.56
692.813	17.24
693.22	17.92
693.626	18.61
694.032	19.33
694.439	20.05
694.845	20.75
695.251	21.46
695.657	22.2
696.063	22.95
696.469	23.67
696.875	24.37
697.281	25.06
697.687	25.78
698.093	26.49
698.498	27.2
698.904	27.89
699.31	28.58
699.715	29.25
700.12	29.88
700.526	30.51
700.931	31.15
701.337	31.79
701.742	32.41
702.147	33.03
702.552	33.63
702.957	34.21
703.362	34.78
703.767	35.33
704.172	35.88
704.577	36.45
704.981	36.99
705.386	37.52
705.791	38.03
706.195	38.54
706.6	39.02
707.004	39.52
707.408	40.02
707.813	40.46
708.217	40.91
708.621	41.37
709.025	41.8
709.43	42.23
709.834	42.68
710.237	43.1
710.641	43.54
711.045	43.95
711.449	44.35
711.853	44.7
712.256	45.13
712.66	45.52
713.064	45.9
713.467	46.26
713.87	46.61
714.274	46.99
714.677	47.35
715.08	47.66
715.484	48
715.887	48.32
716.29	48.67
716.693	48.95
717.096	49.28
717.499	49.58
717.901	49.88
718.304	50.15
718.707	50.43
719.109	50.71
719.512	51
719.915	51.26
720.317	51.54
720.719	51.78
721.122	52.04
721.524	52.32
721.926	52.56
722.328	52.82
722.731	53.09
723.133	53.31
723.535	53.5
723.937	53.73
724.338	53.94
724.74	54.13
725.142	54.22
725.544	54.41
725.945	54.56
726.347	54.75
726.748	54.87
727.15	55
727.551	55.16
727.952	55.35
728.354	55.5
728.755	55.65
729.156	55.8
729.557	56.07
729.958	56.22
730.359	56.33
730.76	56.4
731.161	56.56
731.562	56.71
731.962	56.81
732.363	56.87
732.763	56.98
733.164	57.08
733.564	57.17
733.965	57.22
734.365	57.29
734.766	57.36
735.166	57.44
735.566	57.47
735.966	57.52
736.366	57.58
736.766	57.63
737.166	57.65
737.566	57.68
737.966	57.71
738.365	57.79
738.765	57.84
739.165	57.89
739.564	57.97
739.964	58.03
740.363	58.05
740.763	58.08
741.162	58.1
741.561	58.18
741.96	58.23
742.36	58.26
742.759	58.24
743.158	58.22
743.557	58.26
743.955	58.28
744.354	58.31
744.753	58.34
745.152	58.4
745.55	58.49
745.949	58.48
746.348	58.5
746.746	58.55
747.144	58.6
747.543	58.69
747.941	58.76
748.339	58.83
748.737	58.9
749.136	59
749.534	59.03
749.932	59.03
750.33	59.08
750.727	59.12
751.125	59.14
751.523	59.14
751.921	59.14
752.318	59.12
752.716	59.11
753.113	59.07
753.511	58.99
753.908	58.95
754.305	58.91
754.703	58.87
755.1	58.84
755.497	58.83
755.894	58.86
756.291	58.83
756.688	58.8
757.085	58.73
757.482	58.72
757.878	58.74
758.275	58.76
758.672	58.74
759.068	58.76
759.465	58.76
759.861	58.74
760.258	58.7
760.654	58.7
761.05	58.72
761.447	58.75
761.843	58.75
762.239	58.7
762.635	58.68
763.031	58.68
763.427	58.64
763.822	58.6
764.218	58.57
764.614	58.56
765.01	58.52
765.405	58.5
765.801	58.47
766.196	58.45
766.592	58.49
766.987	58.48
767.382	58.5
767.778	58.5
768.173	58.5
768.568	58.49
768.963	58.49
769.358	58.48
769.753	58.48
770.148	58.48
770.542	58.49
770.937	58.46
771.332	58.43
771.726	58.4
772.121	58.39
772.515	58.39
772.91	58.4
773.304	58.37
773.699	58.37
774.093	58.32
774.487	58.31
774.881	58.27
775.275	58.25
775.669	58.27
776.063	58.26
776.457	58.22
776.851	58.19
777.245	58.18
777.638	58.19
778.032	58.21
778.425	58.23
778.819	58.24
779.212	58.24
779.606	58.23
779.999	58.2
780.392	58.2
780.786	58.23
781.179	58.26
781.572	58.28
781.965	58.3
782.358	58.26
782.751	58.24
783.143	58.26
783.536	58.31
783.929	58.34
784.322	58.41
784.714	58.42
785.107	58.46
785.499	58.44
785.891	58.45
786.284	58.43
786.676	58.49
787.068	58.49
787.46	58.47
787.852	58.45
788.245	58.44
788.636	58.43
789.028	58.43
789.42	58.4
789.812	58.4
790.204	58.36
790.595	58.37
790.987	58.38
791.378	58.42
791.77	58.44
792.161	58.44
792.553	58.45
792.944	58.43
793.335	58.47
793.726	58.47
794.117	58.47
794.508	58.49
794.899	58.46
795.29	58.41
795.681	58.41
796.072	58.41
796.463	58.37
796.853	58.39
797.244	58.39
797.634	58.38
798.025	58.44
798.415	58.46
798.806	58.5
799.196	58.54
799.586	58.59
799.976	58.58
800.366	58.63
800.756	58.66
801.146	58.66
801.536	58.68
801.926	58.66
802.316	58.63
802.706	58.62
803.095	58.62
803.485	58.64
803.874	58.64
804.264	58.71
804.653	58.65
805.043	58.68
805.432	58.67
805.821	58.65
806.21	58.71
806.599	58.78
806.988	58.79
807.377	58.86
807.766	58.84
808.155	58.87
808.544	58.83
808.933	58.86
809.321	58.91
809.71	58.98
810.098	59.01
810.487	59
810.875	58.97
811.264	59.02
811.652	59.01
812.04	59.06
812.428	59.11
812.816	59.16
813.204	59.19
813.592	59.19
813.98	59.18
814.368	59.2
814.756	59.23
815.144	59.27
815.531	59.25
815.919	59.26
816.306	59.25
816.694	59.23
817.081	59.22
817.469	59.23
817.856	59.29
818.243	59.31
818.63	59.39
819.017	59.39
819.404	59.39
819.791	59.42
820.178	59.46
820.565	59.48
820.952	59.47
821.339	59.49
821.725	59.5
822.112	59.48
822.498	59.5
822.885	59.49
823.271	59.51
823.657	59.52
824.044	59.5
824.43	59.49
824.816	59.49
825.202	59.52
825.588	59.55
825.974	59.54
826.36	59.51
826.746	59.51
827.132	59.49
827.517	59.49
827.903	59.5
828.289	59.52
828.674	59.51
829.06	59.51
829.445	59.52
829.83	59.49
830.216	59.5
830.601	59.54
830.986	59.52
831.371	59.54
831.756	59.52
832.141	59.52
832.526	59.51
832.911	59.51
833.295	59.51
833.68	59.5
834.065	59.52
834.449	59.48
834.834	59.46
835.218	59.47
835.603	59.47
835.987	59.47
836.371	59.46
836.755	59.44
837.139	59.4
837.524	59.4
837.908	59.38
838.291	59.36
838.675	59.39
839.059	59.37
839.443	59.35
839.827	59.33
840.21	59.33
840.594	59.31
840.977	59.3
841.361	59.29
841.744	59.3
842.127	59.3
842.511	59.29
842.894	59.25
843.277	59.24
843.66	59.25
844.043	59.24
844.426	59.19
844.809	59.19
845.191	59.21
845.574	59.22
845.957	59.18
846.339	59.16
846.722	59.17
847.104	59.17
847.487	59.19
847.869	59.19
848.252	59.2
848.634	59.24
849.016	59.26
849.398	59.26
849.78	59.26
850.162	59.26
850.544	59.29
850.926	59.28
851.307	59.3
851.689	59.29
852.071	59.26
852.452	59.26
852.834	59.21
853.215	59.17
853.597	59.16
853.978	59.14
854.359	59.13
854.741	59.13
855.122	59.13
855.503	59.1
855.884	59.08
856.265	59.1
856.646	59.08
857.026	59.1
857.407	59.09
857.788	59.11
858.169	59.12
858.549	59.17
858.93	59.15
859.31	59.14
859.69	59.15
860.071	59.16
860.451	59.17
860.831	59.19
861.211	59.17
861.591	59.19
861.971	59.16
862.351	59.14
862.731	59.11
863.111	59.11
863.491	59.14
863.87	59.14
864.25	59.15
864.629	59.16
865.009	59.16
865.388	59.17
865.768	59.15
866.147	59.16
866.526	59.17
866.905	59.18
867.284	59.17
867.663	59.13
868.042	59.14
868.421	59.13
868.8	59.11
869.179	59.1
869.558	59.12
869.936	59.12
870.315	59.13
870.693	59.15
871.072	59.15
871.45	59.15
871.828	59.15
872.207	59.17
872.585	59.16
872.963	59.13
873.341	59.14
873.719	59.13
874.097	59.12
874.475	59.13
874.853	59.1
875.23	59.08
875.608	59.07
875.986	59.06
876.363	59.04
876.741	59.03
877.118	59.03
877.495	59.02
877.873	58.97
878.25	58.94
878.627	58.9
879.004	58.94
879.381	59
879.758	59
880.135	59.01
880.512	59.04
880.889	59.06
881.265	59.12
881.642	59.12
882.019	59.2
882.395	59.23
882.772	59.27
883.148	59.26
883.524	59.24
883.901	59.24
884.277	59.2
884.653	59.2
885.029	59.2
885.405	59.16
885.781	59.14
886.157	59.12
886.532	59.12
886.908	59.13
887.284	59.13
887.659	59.12
888.035	59.14
888.411	59.15
888.786	59.14
889.161	59.14
889.537	59.13
889.912	59.11
890.287	59.08
890.662	59.06
891.037	59.01
891.412	58.99
891.787	58.97
892.162	58.96
892.536	58.96
892.911	58.93
893.286	58.89
893.66	58.86
894.035	58.85
894.409	58.83
894.784	58.81
895.158	58.81
895.532	58.77
895.906	58.74
896.281	58.69
896.655	58.65
897.029	58.62
897.402	58.61
897.776	58.61
898.15	58.61
898.524	58.6
898.898	58.56
899.271	58.54
899.645	58.54
900.018	58.54
900.392	58.56
900.765	58.57
901.138	58.62
901.511	58.64
901.884	58.64
902.258	58.6
902.631	58.63
903.003	58.65
903.376	58.65
903.749	58.64
904.122	58.64
904.495	58.64
904.867	58.61
905.24	58.56
905.612	58.53
905.985	58.5
906.357	58.47
906.729	58.43
907.102	58.44
907.474	58.42
907.846	58.41
908.218	58.39
908.59	58.33
908.962	58.29
909.334	58.29
909.705	58.26
910.077	58.23
910.449	58.27
910.82	58.26
911.192	58.23
911.563	58.19
911.935	58.17
912.306	58.2
912.677	58.19
913.048	58.21
913.419	58.19
913.79	58.19
914.161	58.18
914.532	58.17
914.903	58.18
915.274	58.16
915.645	58.2
916.015	58.24
916.386	58.21
916.756	58.17
917.127	58.17
917.497	58.18
917.868	58.19
918.238	58.2
918.608	58.19
918.978	58.17
919.348	58.14
919.718	58.12
920.088	58.09
920.458	58.09
920.828	58.17
921.198	58.17
921.567	58.12
921.937	58.15
922.306	58.18
922.676	58.22
923.045	58.21
923.415	58.23
923.784	58.24
924.153	58.23
924.522	58.22
924.891	58.18
925.26	58.18
925.629	58.21
925.998	58.18
926.367	58.12
926.736	58.05
927.104	58.03
927.473	58.04
927.842	57.98
928.21	58
928.578	57.96
928.947	57.92
929.315	57.88
929.683	57.9
930.051	57.84
930.42	57.81
930.788	57.83
931.156	57.82
931.523	57.78
931.891	57.72
932.259	57.63
932.627	57.51
932.994	57.48
933.362	57.34
933.729	57.18
934.097	57.09
934.464	57.02
934.831	56.85
935.199	56.71
935.566	56.58
935.933	56.53
936.3	56.41
936.667	56.36
937.034	56.23
937.401	56.19
937.767	56.14
938.134	56.09
938.501	55.97
938.867	55.95
939.234	55.94
939.6	55.91
939.967	55.9
940.333	55.97
940.699	56.01
941.065	56.11
941.431	56.21
941.798	56.29
942.163	56.36
942.529	56.47
942.895	56.6
943.261	56.72
943.627	56.86
943.992	56.95
944.358	56.98
944.723	57.08
945.089	57.21
945.454	57.28
945.82	57.28
946.185	57.3
946.55	57.44
946.915	57.52
947.28	57.55
947.645	57.63
948.01	57.58
948.375	57.63
948.74	57.61
949.104	57.56
949.469	57.51
949.834	57.59
950.198	57.56
950.562	57.43
950.927	57.37
951.291	57.28
951.655	57.22
952.02	57.2
952.384	57.2
952.748	57.14
953.112	57.16
953.476	57.16
953.839	57.09
954.203	57
954.567	57.03
954.931	56.95
955.294	56.93
955.658	56.82
956.021	56.77
956.385	56.76
956.748	56.82
957.111	56.74
957.474	56.63
957.837	56.6
958.2	56.64
958.563	56.59
958.926	56.59
959.289	56.65
959.652	56.64
960.015	56.62
960.377	56.58
960.74	56.46
961.102	56.47
961.465	56.47
961.827	56.31
962.189	56.25
962.552	56.2
962.914	56.16
963.276	56.11
963.638	56.11
964	56.1
964.362	56.04
964.724	56.05
965.085	56.01
965.447	55.96
965.809	56.03
966.17	56.07
966.532	56.1
966.893	56.05
967.255	55.98
967.616	56.03
967.977	56.01
968.338	55.98
968.699	55.93
969.061	55.87
969.421	55.91
969.782	55.96
970.143	55.89
970.504	55.82
970.865	55.73
971.225	55.7
971.586	55.68
971.946	55.69
972.307	55.68
972.667	55.76
973.027	55.79
973.388	55.79
973.748	55.77
974.108	55.76
974.468	55.81
974.828	55.95
975.188	55.96
975.548	55.94
975.907	55.9
976.267	55.93
976.627	55.79
976.986	55.79
977.346	55.77
977.705	55.71
978.064	55.77
978.424	55.74
978.783	55.69
979.142	55.67
979.501	55.55
979.86	55.54
980.219	55.43
980.578	55.5
980.937	55.52
981.296	55.45
981.654	55.47
982.013	55.38
982.371	55.28
982.73	55.22
983.088	55.22
983.447	55.27
983.805	55.28
984.163	55.39
984.521	55.26
984.879	55.28
985.237	55.31
985.595	55.39
985.953	55.37
986.311	55.47
986.669	55.54
987.026	55.52
987.384	55.45
987.741	55.45
988.099	55.28
988.456	55.34
988.814	55.23
989.171	55.2
989.528	55.06
989.885	54.99
990.242	54.97
990.599	55
990.956	55
991.313	55.1
991.67	55.05
992.027	55.04
992.383	55.08
992.74	55.02
993.096	54.94
993.453	55.06
993.809	55.17
994.165	55.19
994.522	54.96
994.878	54.81
995.234	54.72
995.59	54.6
995.946	54.66
996.302	54.55
996.658	54.54
997.013	54.64
997.369	54.48
997.725	54.31
998.08	54.24
998.436	54.39
998.791	54.44
999.147	54.37
999.502	54.45
999.857	54.4
1000.212	54.3
1000.567	54.27
1000.922	54.17
1001.277	54.09
1001.632	54.15
1001.987	54.02
1002.342	53.97
1002.696	53.97
1003.051	53.9
1003.406	53.91
1003.76	53.85
1004.114	53.93
1004.469	53.92
1004.823	53.95
1005.177	53.99
1005.531	53.85
1005.885	54.06
1006.239	53.93
1006.593	53.8
1006.947	53.87
1007.301	53.72
1007.655	53.62
1008.008	53.57
1008.362	53.5
1008.715	53.3
1009.069	53.19
1009.422	53.08
1009.776	52.76
1010.129	52.58
1010.482	52.76
1010.835	52.84
1011.188	52.75
1011.541	52.54
1011.894	52.56
1012.247	52.46
1012.6	52.55
1012.952	52.7
1013.305	52.9
1013.657	52.97
1014.01	53.23
1014.362	53.01
1014.715	52.57
1015.067	52.62
1015.419	52.77
1015.771	53
1016.123	52.86
1016.475	52.84
1016.827	52.67
1017.179	52.42
1017.531	52.28
1017.883	52.5
1018.234	52.27
1018.586	52.41
1018.938	51.96
1019.289	51.81
1019.64	51.6
1019.992	51.56
1020.343	51.4
1020.694	51.17
1021.045	51.13
1021.396	50.96
1021.747	50.57
1022.098	50.69
1022.449	50.63
1022.8	50.81
1023.151	50.78
1023.501	50.47
1023.852	50.46
1024.202	50.44
1024.553	50.32
1024.903	50.3
1025.253	50.37
1025.604	50.33
1025.954	50.23
1026.304	50.68
1026.654	50.86
1027.004	51.33
1027.354	51.2
1027.703	51.08
1028.053	50.9
1028.403	50.75
1028.753	50.93
1029.102	51.2
1029.452	51.29
1029.801	51.62
1030.15	51.23
1030.499	51.36
897.758	352.43
901.051	352.64
904.343	361.98
907.636	354.49
910.928	353.21
914.22	355.57
917.511	346.61
920.803	332.04
924.094	319.42
927.384	323.54
930.675	311.75
933.965	308.66
937.255	308.33
940.544	292.16
943.834	279.73
947.123	272.19
950.411	261.67
953.7	258.71
956.988	251.85
960.276	242.7
963.563	241.46
966.851	227.59
970.138	224.48
973.424	212.49
976.711	210.79
979.997	204.85
983.283	202.07
986.568	195.73
989.853	190.91
993.138	183.67
996.423	182.36
999.708	176.94
1002.992	179.02
1006.275	173.67
1009.559	172.66
1012.842	168.71
1016.125	164.56
1019.408	161.21
1022.69	160.79
1025.972	159.51
1029.254	158.01
1032.536	154.11
1035.817	150.53
1039.098	147.78
1042.379	146.76
1045.659	144.88
1048.939	142.43
1052.219	142.34
1055.498	139.85
1058.778	137.85
1062.057	136.76
1065.335	135.61
1068.614	133.55
1071.892	132.17
1075.17	130.81
1078.447	128.05
1081.724	127.34
1085.001	124.63
1088.278	124.52
1091.554	124.47
1094.83	123.37
1098.106	121.76
1101.382	120.64
1104.657	120.87
1107.932	120.39
1111.206	120.2
1114.481	119.47
1117.755	118.2
1121.029	119.39
1124.302	117.1
1127.575	115.99
1130.848	115.54
1134.121	113.85
1137.393	114.04
1140.665	113.59
1143.937	112.1
1147.208	110.48
1150.48	109.88
1153.75	109.18
1157.021	108.48
1160.291	108.1
1163.561	107.32
1166.831	106.83
1170.101	106.68
1173.37	105.8
1176.639	104.62
1179.907	105.27
1183.176	105.21
1186.444	104.95
1189.711	104.45
1192.979	104.27
1196.246	104.9
1199.513	104.85
1202.78	104.47
1206.046	104.64
1209.312	104.45
1212.578	105.05
1215.843	105.5
1219.108	106.34
1222.373	108.09
1225.638	109.58
1228.902	111.49
1232.166	114.15
1235.43	115.07
1238.693	117.88
1241.956	119.36
1245.219	123.18
1248.482	123.94
1251.744	123.71
1255.006	124.03
1258.268	121
1261.529	121.04
1264.79	118.41
1268.051	116.26
1271.312	115.95
1274.572	113.48
1277.832	112.12
1281.092	110.47
1284.351	108.58
1287.61	108.49
1290.869	108.05
1294.128	108.38
1297.386	107.79
1300.644	107.16
1303.902	105.91
1307.159	105.11
1310.416	106.26
1313.673	106.91
1316.93	107.08
1320.186	108.87
1323.442	109.44
1326.697	110.38
1329.953	109.77
1333.208	112.86
1336.463	116.89
1339.717	118.52
1342.972	122.17
1346.226	124.9
1349.479	125.29
1352.733	129.96
1355.986	131.32
1359.238	134.3
1362.491	134.78
1365.743	139.71
1368.995	139.86
1372.247	140.73
1375.498	139.57
1378.749	143.81
1382	142.55
1385.251	141.28
1388.501	140.87
1391.751	141.83
1395	138.4
1398.25	138.64
1401.499	138.32
1404.748	135.83
1407.996	130.25
1411.244	130.25
1414.492	127.89
1417.74	124.64
1420.987	121.62
1424.234	118.67
1427.481	114.34
1430.728	112.21
1433.974	108.68
1437.22	105.82
1440.465	102.36
1443.711	99.76
1446.956	97.94
1450.201	93.42
1453.445	88.96
1456.689	86.81
1459.933	84.65
1463.177	81.25
1466.42	80.93
1469.663	78.56
1472.906	75.91
1476.148	73.52
1479.391	73.03
1482.633	71.4
1485.874	71.49
1489.115	71.45
1492.356	70.94
1495.597	69.68
1498.838	70.04
1502.078	69
1505.318	69.32
1508.557	68.92
1511.797	69.56
1515.036	68.95
1518.274	68.88
1521.513	68.49
1524.751	68.14
1527.989	68.82
1531.227	69.03
1534.464	69.15
1537.701	69.01
1540.938	68.84
1544.174	69.01
1547.41	69.59
1550.646	69.52
1553.882	69.87
1557.117	69.89
1560.352	70.07
1563.587	69.34
1566.821	69.48
1570.055	69.23
1573.289	69.27
1576.523	69.21
1579.756	69.41
1582.989	69.16
1586.222	69.4
1589.454	69.7
1592.686	69.72
1595.918	69.38
1599.15	69.71
1602.381	69.8
1605.612	70.11
1608.843	70.13
1612.073	71.03
1615.303	71.1
1618.533	70.92
1621.762	71.11
1624.992	70.99
1628.221	70.82
1631.449	71.74
1634.678	71.74
1637.906	71.63
1641.134	71.89
1644.361	71.86
1647.588	71.87
1650.815	72.01
1654.042	72.52
1657.269	72.16
1660.495	72.7
1663.72	72.73
1666.946	72.22
1670.171	72.71
1673.396	73.12
1676.621	72.96
1679.845	73.67
1683.069	72.61
1686.293	73
1689.517	73.15
1692.74	73.6
1695.963	73
1699.185	73.62
1702.408	73.32
1705.63	73.34
1708.852	73.62
1712.073	73.99
1715.294	73.53
1718.515	74.99
1721.736	74.63
1724.956	74.47
1728.176	74.05
1731.396	74.28
1734.616	74.06
1737.835	74.68
1741.054	74.55
1744.272	74.57
1747.491	73.8
1750.709	74.03
1753.927	73.56
1757.144	73.62
1760.361	73.07
1763.578	73.86
1766.795	74.07
1770.011	74.69
1773.227	74.47
1776.443	74.88
1779.658	74.33
1782.874	75.55
1786.089	75.09
1789.303	75.01
1792.518	75.33
1795.732	76.16
1798.945	76.69
1802.159	77.08
1805.372	76.94
1808.585	77.71
1811.797	77.54
1815.01	79.02
1818.222	78.85
1821.434	79.79
1824.645	79.82
1827.856	80.8
1831.067	80.8
1834.278	81.17
1837.488	82.02
1840.698	82.31
1843.908	82.3
1847.117	82.99
1850.326	82.3
1853.535	82.69
1856.744	83.18
1859.952	83.93
1863.16	83.55
1866.368	82.37
1869.575	82.63
1872.782	80.73
1875.989	78.58
1879.196	78.61
1882.402	76.84
1885.608	77.09
1888.814	75.64
1892.019	74.87
1895.224	73.38
1898.429	73.07
1901.634	73.6
1904.838	72.38
1908.042	72.69
1911.246	72.49
1914.449	71.79
1917.652	72.12
1920.855	71.51
1924.058	71.49
1927.26	70.82
1930.462	72.06
1933.664	71.41
1936.865	71.9
1940.066	70.79
1943.267	70.24
1946.467	72.01
1949.668	71.6
1952.868	72.16
1956.067	72.19
1959.267	72.55
1962.466	72.63
1965.665	72.99
1968.863	73.88
1972.061	74.53
1975.259	76.74
1978.457	77.05
1981.654	76.27
1984.852	77.87
1988.048	78.4
1991.245	80.32
1994.441	81.68
1997.637	83.46
2000.833	85.67
2004.028	86.05
2007.223	87.21
2010.418	88.58
2013.613	94.18
2016.807	98.29
2020.001	98.88
2023.194	103.11
2026.388	105.62
2029.581	110.64
2032.774	114.93
2035.966	115.87
2039.158	120.28
2042.35	122.54
2045.542	124.07
2048.733	128.05
2051.924	127.8
2055.115	131.62
2058.306	130.78
2061.496	131.84
2064.686	132.85
2067.875	132.81
2071.065	135.73
2074.254	135.1
2077.442	138.81
2080.631	140.83
2083.819	140.02
2087.007	145.67
2090.195	146.29
2093.382	147.12
2096.569	148.45
2099.756	150.14
2102.942	152.22
2106.128	154.73
2109.314	157.58
2112.5	157.94
2115.685	155.81
2118.87	156.19
2122.055	156.75
2125.239	160.47
2128.424	165.02
2131.608	163.3
2134.791	162.64
2137.974	164.85
2141.157	166.13
2144.34	167.22
2147.523	169.63
2150.705	174.67
2153.887	175.64
2157.068	175.99
2160.25	178.33
2163.431	176.8
2166.611	178.76
2169.792	184.22
2172.972	183.51
2176.152	185.47
2179.331	188.56
2182.511	190.98
2185.69	193.48
2188.868	194.38
2192.047	201.78
2195.225	204.47
2198.403	204.39
2201.58	205.99
2204.758	212.29
2207.935	213.9
2211.111	215.6
2214.288	218.35
2217.464	219.03
2220.64	219.55
2223.815	223.49
2226.991	219.31
2230.166	221.09
2233.34	229.32
2236.515	231
2239.689	227.12
2242.863	231.9
2246.036	230.99
2249.209	233.4
2252.382	233.99
2255.555	243.37
2258.727	246.66
2261.9	252.07
2265.071	254.46
2268.243	253.89
2271.414	266.19
2274.585	269.74
2277.756	268.74
2280.926	275.46
2284.096	280.7
2287.266	279.85
2290.436	277.07
2293.605	283.95
2296.774	292.24
2299.942	293.44
2303.111	302.72
2306.279	304.6
2309.447	309.83
2312.614	314.5
2315.781	319.29
2318.948	321.15
2322.115	327.64
2325.281	342.07
2328.447	332.83
2331.613	342.46
2334.779	345.24
2337.944	347.05
2341.109	353.65
2344.274	355.06
2347.438	360.77
2350.602	372.18
2353.766	395.14
2356.929	396.24
2360.092	402.08
2363.255	409.81
2366.418	408.1
2369.58	419.4
2372.742	419.68
2375.904	419.12
2379.066	428.42
2382.227	450.74
2385.388	447.25
2388.548	424
2391.709	419.59
2394.869	431.69
2398.029	437.52
2401.188	430.46
2404.347	444.94
2407.506	460.46
2410.665	439.31
2413.823	449.26
2416.981	452.65
2420.139	431.78
2423.296	467.75
2426.453	498.27
2429.61	478.28
2432.767	504.22
2435.923	532.06
2439.079	517.33
2442.235	526.53
2445.391	548.19
2448.546	535.64
2451.701	562.05
2454.855	601.15
2458.009	536.93
2461.163	545
2464.317	544.71
2467.471	540.22
2470.624	547.64
2473.777	529.24
2476.929	516.61
2480.082	545.14
2483.234	573.44
2486.385	583.68
2489.537	597.78
2492.688	646.28
2495.839	640.48
2498.989	661.77
2502.14	651.26
2505.29	634.33
2508.439	701.14
2511.589	714.92
2514.738	700.84
2517.887	690.9
2521.035	647.98
2524.183	639.06
2527.331	638.61
2530.479	621.76
2533.627	632.07
