Data from C_2_hir_wi_4n_078_Splice17_18.txt Node
Date: Sat Feb 29 14:20:20 EST 2020
User: sa697716
Spectrometer: FLMS03696
Trigger mode: 0
Integration Time (sec): 3.180400E-1
Scans to average: 20
Electric dark correction enabled: true
Nonlinearity correction enabled: true
Boxcar width: 5
XAxis mode: Wavelengths
Number of Pixels in Spectrum: 2048
>>>>>Begin Spectral Data<<<<<
187.83	91.47
188.298	88.02
188.766	81.64
189.233	59.29
189.701	60.39
190.169	65.97
190.636	61.64
191.104	46.76
191.571	-27.62
192.039	198.4
192.506	-23.46
192.974	4564.89
193.441	-110.34
193.908	59
194.375	-30.75
194.842	-32.97
195.31	33.15
195.777	-37.77
196.244	15.26
196.711	38.48
197.177	39.48
197.644	41.05
198.111	42.26
198.578	43.55
199.045	44.17
199.511	44.99
199.978	45.58
200.445	45.63
200.911	46.45
201.378	47.12
201.844	47.75
202.31	48.81
202.777	48.73
203.243	49.24
203.709	49.64
204.176	49.66
204.642	49.43
205.108	49.26
205.574	49.61
206.04	49.31
206.506	48.72
206.972	48.69
207.438	47.95
207.903	47.95
208.369	47.07
208.835	46.07
209.301	45.52
209.766	45.08
210.232	44.57
210.697	43.72
211.163	43.48
211.628	42.93
212.094	42.06
212.559	41.34
213.024	40.42
213.49	39.82
213.955	39.33
214.42	38.41
214.885	37.07
215.35	35.78
215.815	34.07
216.28	32.29
216.745	30.46
217.21	28.38
217.675	26.63
218.14	24.97
218.604	23.32
219.069	22.1
219.534	21.06
219.998	20.19
220.463	19.36
220.927	18.75
221.392	18.14
221.856	17.66
222.32	17.26
222.785	16.8
223.249	16.45
223.713	16.15
224.177	15.79
224.642	15.51
225.106	15.24
225.57	15.01
226.034	14.8
226.497	14.59
226.961	14.34
227.425	14.1
227.889	13.95
228.353	13.77
228.816	13.6
229.28	13.39
229.744	13.24
230.207	13.07
230.671	12.9
231.134	12.72
231.597	12.54
232.061	12.4
232.524	12.28
232.987	12.12
233.45	11.97
233.914	11.82
234.377	11.74
234.84	11.61
235.303	11.48
235.766	11.33
236.229	11.2
236.691	11.11
237.154	10.98
237.617	10.86
238.08	10.77
238.542	10.67
239.005	10.57
239.468	10.44
239.93	10.34
240.393	10.26
240.855	10.19
241.317	10.11
241.78	10.02
242.242	9.94
242.704	9.85
243.166	9.76
243.629	9.69
244.091	9.62
244.553	9.55
245.015	9.47
245.477	9.37
245.939	9.29
246.4	9.22
246.862	9.14
247.324	9.08
247.786	9.01
248.247	8.95
248.709	8.88
249.17	8.81
249.632	8.73
250.093	8.65
250.555	8.59
251.016	8.53
251.477	8.46
251.939	8.4
252.4	8.34
252.861	8.29
253.322	8.23
253.783	8.18
254.244	8.13
254.705	8.09
255.166	8.06
255.627	8.02
256.088	7.97
256.549	7.92
257.009	7.88
257.47	7.84
257.931	7.78
258.391	7.73
258.852	7.68
259.312	7.63
259.773	7.58
260.233	7.53
260.694	7.48
261.154	7.44
261.614	7.39
262.074	7.35
262.534	7.29
262.994	7.25
263.455	7.22
263.915	7.17
264.374	7.13
264.834	7.09
265.294	7.05
265.754	7
266.214	6.97
266.673	6.94
267.133	6.9
267.593	6.88
268.052	6.84
268.512	6.8
268.971	6.77
269.431	6.75
269.89	6.72
270.349	6.69
270.809	6.67
271.268	6.64
271.727	6.62
272.186	6.59
272.645	6.57
273.104	6.55
273.563	6.54
274.022	6.51
274.481	6.48
274.94	6.45
275.399	6.43
275.857	6.4
276.316	6.37
276.775	6.34
277.233	6.31
277.692	6.3
278.15	6.27
278.609	6.24
279.067	6.22
279.525	6.19
279.984	6.17
280.442	6.16
280.9	6.15
281.358	6.13
281.816	6.11
282.274	6.09
282.732	6.07
283.19	6.06
283.648	6.05
284.106	6.04
284.564	6.05
285.021	6.03
285.479	6.03
285.937	6.02
286.394	6.01
286.852	6.01
287.309	6
287.767	5.99
288.224	5.99
288.682	5.97
289.139	5.96
289.596	5.93
290.053	5.92
290.511	5.88
290.968	5.86
291.425	5.84
291.882	5.81
292.339	5.78
292.796	5.76
293.252	5.73
293.709	5.71
294.166	5.68
294.623	5.67
295.079	5.65
295.536	5.64
295.992	5.61
296.449	5.6
296.905	5.58
297.362	5.56
297.818	5.55
298.274	5.53
298.731	5.51
299.187	5.5
299.643	5.48
300.099	5.48
300.555	5.46
301.011	5.45
301.467	5.44
301.923	5.44
302.379	5.43
302.835	5.41
303.291	5.41
303.746	5.4
304.202	5.38
304.658	5.37
305.113	5.36
305.569	5.35
306.024	5.34
306.479	5.32
306.935	5.31
307.39	5.3
307.845	5.31
308.301	5.3
308.756	5.3
309.211	5.31
309.666	5.3
310.121	5.29
310.576	5.29
311.031	5.28
311.486	5.29
311.94	5.29
312.395	5.29
312.85	5.28
313.305	5.27
313.759	5.27
314.214	5.26
314.668	5.25
315.123	5.26
315.577	5.25
316.032	5.24
316.486	5.24
316.94	5.22
317.394	5.2
317.849	5.2
318.303	5.19
318.757	5.17
319.211	5.15
319.665	5.14
320.119	5.13
320.572	5.12
321.026	5.11
321.48	5.08
321.934	5.08
322.387	5.06
322.841	5.04
323.295	5.03
323.748	5.03
324.202	5.01
324.655	5
325.108	4.98
325.562	4.96
326.015	4.95
326.468	4.94
326.921	4.92
327.374	4.92
327.827	4.91
328.28	4.9
328.733	4.89
329.186	4.89
329.639	4.88
330.092	4.88
330.545	4.88
330.997	4.88
331.45	4.87
331.903	4.87
332.355	4.87
332.808	4.87
333.26	4.87
333.713	4.87
334.165	4.87
334.617	4.88
335.069	4.88
335.522	4.89
335.974	4.89
336.426	4.9
336.878	4.9
337.33	4.91
337.782	4.91
338.234	4.9
338.686	4.91
339.137	4.91
339.589	4.9
340.041	4.89
340.493	4.87
340.944	4.87
341.396	4.86
341.847	4.85
342.299	4.83
342.75	4.81
343.201	4.8
343.653	4.79
344.104	4.78
344.555	4.76
345.006	4.75
345.457	4.73
345.908	4.72
346.359	4.71
346.81	4.7
347.261	4.69
347.712	4.68
348.163	4.68
348.613	4.66
349.064	4.64
349.515	4.63
349.965	4.62
350.416	4.62
350.866	4.61
351.317	4.6
351.767	4.6
352.217	4.59
352.668	4.59
353.118	4.6
353.568	4.61
354.018	4.61
354.468	4.61
354.918	4.62
355.368	4.62
355.818	4.61
356.268	4.62
356.718	4.63
357.168	4.63
357.617	4.62
358.067	4.62
358.517	4.62
358.966	4.63
359.416	4.64
359.865	4.64
360.315	4.65
360.764	4.67
361.213	4.67
361.663	4.67
362.112	4.68
362.561	4.69
363.01	4.7
363.459	4.7
363.908	4.7
364.357	4.71
364.806	4.73
365.255	4.74
365.703	4.73
366.152	4.75
366.601	4.76
367.05	4.77
367.498	4.77
367.947	4.77
368.395	4.8
368.844	4.82
369.292	4.82
369.74	4.82
370.189	4.82
370.637	4.83
371.085	4.84
371.533	4.86
371.981	4.88
372.429	4.88
372.877	4.91
373.325	4.92
373.773	4.93
374.221	4.94
374.669	4.95
375.116	4.97
375.564	4.99
376.012	5.01
376.459	5.03
376.907	5.06
377.354	5.09
377.801	5.11
378.249	5.14
378.696	5.17
379.143	5.2
379.591	5.22
380.038	5.25
380.485	5.28
380.932	5.3
381.379	5.32
381.826	5.34
382.273	5.37
382.72	5.41
383.166	5.43
383.613	5.46
384.06	5.49
384.506	5.53
384.953	5.55
385.4	5.57
385.846	5.59
386.292	5.62
386.739	5.65
387.185	5.7
387.631	5.72
388.078	5.76
388.524	5.77
388.97	5.8
389.416	5.83
389.862	5.86
390.308	5.91
390.754	5.95
391.2	5.98
391.645	6.01
392.091	6.04
392.537	6.08
392.983	6.12
393.428	6.16
393.874	6.21
394.319	6.24
394.765	6.28
395.21	6.29
395.655	6.33
396.101	6.36
396.546	6.4
396.991	6.41
397.436	6.41
397.881	6.45
398.326	6.49
398.771	6.52
399.216	6.56
399.661	6.59
400.106	6.64
400.551	6.66
400.995	6.68
401.44	6.68
401.885	6.7
402.329	6.71
402.774	6.71
403.218	6.7
403.663	6.71
404.107	6.72
404.551	6.74
404.995	6.74
405.44	6.74
405.884	6.76
406.328	6.77
406.772	6.79
407.216	6.82
407.66	6.84
408.104	6.85
408.547	6.87
408.991	6.86
409.435	6.86
409.879	6.87
410.322	6.89
410.766	6.9
411.209	6.93
411.653	6.93
412.096	6.93
412.54	6.94
412.983	6.95
413.426	6.97
413.869	6.99
414.312	7.04
414.756	7.05
415.199	7.08
415.642	7.11
416.085	7.14
416.527	7.16
416.97	7.2
417.413	7.2
417.856	7.2
418.298	7.19
418.741	7.19
419.184	7.17
419.626	7.17
420.069	7.16
420.511	7.13
420.953	7.12
421.396	7.11
421.838	7.11
422.28	7.14
422.722	7.16
423.164	7.17
423.606	7.18
424.048	7.18
424.49	7.19
424.932	7.2
425.374	7.22
425.816	7.21
426.258	7.2
426.699	7.16
427.141	7.11
427.582	7.1
428.024	7.1
428.465	7.11
428.907	7.13
429.348	7.12
429.789	7.11
430.231	7.09
430.672	7.1
431.113	7.12
431.554	7.15
431.995	7.18
432.436	7.18
432.877	7.18
433.318	7.17
433.759	7.16
434.2	7.18
434.64	7.18
435.081	7.19
435.522	7.22
435.962	7.26
436.403	7.28
436.843	7.29
437.284	7.33
437.724	7.38
438.164	7.38
438.604	7.41
439.045	7.41
439.485	7.44
439.925	7.47
440.365	7.48
440.805	7.49
441.245	7.47
441.685	7.5
442.125	7.49
442.564	7.5
443.004	7.56
443.444	7.57
443.883	7.6
444.323	7.61
444.762	7.66
445.202	7.73
445.641	7.77
446.081	7.84
446.52	7.86
446.959	7.91
447.398	7.97
447.837	8.01
448.276	8.06
448.716	8.12
449.154	8.18
449.593	8.22
450.032	8.25
450.471	8.29
450.91	8.3
451.349	8.34
451.787	8.38
452.226	8.36
452.664	8.36
453.103	8.38
453.541	8.37
453.98	8.35
454.418	8.32
454.856	8.3
455.295	8.29
455.733	8.27
456.171	8.27
456.609	8.25
457.047	8.24
457.485	8.23
457.923	8.22
458.361	8.2
458.798	8.21
459.236	8.22
459.674	8.23
460.111	8.24
460.549	8.23
460.987	8.23
461.424	8.22
461.862	8.22
462.299	8.22
462.736	8.2
463.173	8.2
463.611	8.2
464.048	8.19
464.485	8.18
464.922	8.18
465.359	8.19
465.796	8.16
466.233	8.18
466.67	8.18
467.106	8.18
467.543	8.2
467.98	8.22
468.416	8.23
468.853	8.24
469.29	8.26
469.726	8.26
470.162	8.26
470.599	8.3
471.035	8.31
471.471	8.3
471.907	8.31
472.344	8.31
472.78	8.3
473.216	8.31
473.652	8.31
474.088	8.32
474.523	8.32
474.959	8.32
475.395	8.31
475.831	8.32
476.266	8.35
476.702	8.35
477.138	8.36
477.573	8.37
478.008	8.36
478.444	8.35
478.879	8.34
479.314	8.33
479.75	8.33
480.185	8.33
480.62	8.33
481.055	8.32
481.49	8.31
481.925	8.31
482.36	8.29
482.795	8.31
483.229	8.31
483.664	8.31
484.099	8.32
484.534	8.32
484.968	8.33
485.403	8.34
485.837	8.35
486.271	8.36
486.706	8.37
487.14	8.41
487.574	8.43
488.009	8.46
488.443	8.5
488.877	8.53
489.311	8.57
489.745	8.61
490.179	8.65
490.613	8.7
491.046	8.77
491.48	8.82
491.914	8.87
492.348	8.93
492.781	9
493.215	9.06
493.648	9.14
494.082	9.23
494.515	9.32
494.948	9.41
495.382	9.51
495.815	9.61
496.248	9.71
496.681	9.84
497.114	9.96
497.547	10.1
497.98	10.23
498.413	10.37
498.846	10.51
499.279	10.66
499.711	10.81
500.144	10.97
500.577	11.14
501.009	11.33
501.442	11.5
501.874	11.69
502.306	11.9
502.739	12.1
503.171	12.34
503.603	12.59
504.036	12.82
504.468	13.1
504.9	13.35
505.332	13.63
505.764	13.93
506.196	14.24
506.627	14.54
507.059	14.84
507.491	15.17
507.923	15.49
508.354	15.82
508.786	16.17
509.217	16.52
509.649	16.9
510.08	17.29
510.512	17.66
510.943	18.05
511.374	18.45
511.805	18.87
512.237	19.29
512.668	19.72
513.099	20.16
513.53	20.59
513.961	21.03
514.391	21.46
514.822	21.91
515.253	22.34
515.684	22.77
516.114	23.21
516.545	23.64
516.975	24.08
517.406	24.52
517.836	24.96
518.267	25.41
518.697	25.86
519.127	26.28
519.558	26.72
519.988	27.17
520.418	27.59
520.848	28.01
521.278	28.46
521.708	28.81
522.138	29.21
522.567	29.59
522.997	29.95
523.427	30.3
523.857	30.67
524.286	31
524.716	31.33
525.145	31.69
525.575	32
526.004	32.3
526.433	32.68
526.863	32.99
527.292	33.28
527.721	33.57
528.15	33.85
528.579	34.12
529.008	34.38
529.437	34.65
529.866	34.85
530.295	35.06
530.724	35.29
531.152	35.46
531.581	35.62
532.01	35.79
532.438	35.95
532.867	36.11
533.295	36.25
533.723	36.38
534.152	36.49
534.58	36.59
535.008	36.7
535.436	36.78
535.865	36.88
536.293	37
536.721	37.06
537.149	37.12
537.576	37.19
538.004	37.23
538.432	37.27
538.86	37.31
539.287	37.38
539.715	37.44
540.143	37.47
540.57	37.51
540.998	37.55
541.425	37.6
541.852	37.64
542.28	37.67
542.707	37.74
543.134	37.79
543.561	37.84
543.988	37.88
544.415	37.92
544.842	37.97
545.269	38.01
545.696	38.05
546.123	38.08
546.549	38.14
546.976	38.2
547.403	38.24
547.829	38.28
548.256	38.31
548.682	38.34
549.108	38.37
549.535	38.42
549.961	38.42
550.387	38.43
550.813	38.45
551.24	38.46
551.666	38.48
552.092	38.46
552.518	38.45
552.943	38.45
553.369	38.43
553.795	38.39
554.221	38.34
554.646	38.3
555.072	38.26
555.498	38.2
555.923	38.12
556.349	38.05
556.774	37.95
557.199	37.88
557.625	37.79
558.05	37.68
558.475	37.58
558.9	37.49
559.325	37.37
559.75	37.23
560.175	37.12
560.6	36.99
561.025	36.86
561.449	36.71
561.874	36.55
562.299	36.39
562.723	36.28
563.148	36.11
563.572	35.94
563.997	35.79
564.421	35.62
564.846	35.42
565.27	35.23
565.694	35.02
566.118	34.86
566.542	34.67
566.966	34.45
567.39	34.2
567.814	33.98
568.238	33.73
568.662	33.49
569.086	33.27
569.509	33.06
569.933	32.81
570.357	32.56
570.78	32.3
571.204	32.05
571.627	31.8
572.05	31.6
572.474	31.38
572.897	31.18
573.32	30.94
573.743	30.73
574.166	30.51
574.589	30.32
575.012	30.15
575.435	29.97
575.858	29.81
576.281	29.65
576.704	29.47
577.126	29.3
577.549	29.17
577.972	29.06
578.394	28.9
578.817	28.77
579.239	28.65
579.661	28.49
580.084	28.37
580.506	28.23
580.928	28.11
581.35	28
581.772	27.91
582.194	27.79
582.616	27.66
583.038	27.58
583.46	27.5
583.882	27.4
584.303	27.33
584.725	27.25
585.147	27.14
585.568	27.06
585.99	26.98
586.411	26.87
586.833	26.78
587.254	26.72
587.675	26.63
588.096	26.53
588.518	26.46
588.939	26.38
589.36	26.3
589.781	26.26
590.202	26.17
590.623	26.09
591.043	26.04
591.464	25.99
591.885	25.92
592.305	25.87
592.726	25.82
593.147	25.77
593.567	25.73
593.987	25.69
594.408	25.63
594.828	25.57
595.248	25.55
595.669	25.5
596.089	25.45
596.509	25.4
596.929	25.34
597.349	25.3
597.769	25.24
598.189	25.17
598.608	25.11
599.028	25.06
599.448	25.02
599.867	24.94
600.287	24.89
600.706	24.8
601.126	24.74
601.545	24.66
601.965	24.57
602.384	24.51
602.803	24.42
603.222	24.32
603.641	24.23
604.061	24.12
604.48	24.02
604.898	23.89
605.317	23.79
605.736	23.66
606.155	23.55
606.574	23.41
606.992	23.28
607.411	23.17
607.829	23.01
608.248	22.87
608.666	22.76
609.085	22.63
609.503	22.51
609.921	22.37
610.339	22.25
610.758	22.14
611.176	22.02
611.594	21.89
612.012	21.76
612.43	21.69
612.847	21.58
613.265	21.47
613.683	21.34
614.101	21.23
614.518	21.12
614.936	21.01
615.353	20.9
615.771	20.8
616.188	20.71
616.606	20.6
617.023	20.51
617.44	20.41
617.857	20.3
618.274	20.23
618.691	20.15
619.108	20.07
619.525	20
619.942	19.93
620.359	19.87
620.776	19.81
621.192	19.78
621.609	19.72
622.026	19.68
622.442	19.65
622.859	19.61
623.275	19.6
623.691	19.58
624.108	19.56
624.524	19.55
624.94	19.52
625.356	19.5
625.772	19.49
626.188	19.49
626.604	19.46
627.02	19.45
627.436	19.42
627.852	19.39
628.268	19.36
628.683	19.35
629.099	19.31
629.514	19.3
629.93	19.24
630.345	19.19
630.761	19.14
631.176	19.11
631.591	19.04
632.007	18.97
632.422	18.91
632.837	18.84
633.252	18.75
633.667	18.65
634.082	18.54
634.497	18.43
634.911	18.3
635.326	18.18
635.741	18.04
636.155	17.9
636.57	17.75
636.984	17.56
637.399	17.39
637.813	17.21
638.228	17.04
638.642	16.87
639.056	16.69
639.47	16.52
639.884	16.32
640.298	16.13
640.712	15.93
641.126	15.73
641.54	15.56
641.954	15.38
642.368	15.18
642.781	14.99
643.195	14.78
643.609	14.59
644.022	14.4
644.436	14.23
644.849	14.07
645.262	13.91
645.676	13.74
646.089	13.59
646.502	13.44
646.915	13.33
647.328	13.22
647.741	13.1
648.154	13.01
648.567	12.91
648.98	12.82
649.393	12.74
649.805	12.65
650.218	12.59
650.631	12.52
651.043	12.45
651.456	12.37
651.868	12.29
652.28	12.23
652.693	12.13
653.105	12.05
653.517	11.96
653.929	11.87
654.341	11.81
654.753	11.7
655.165	11.6
655.577	11.47
655.989	11.34
656.401	11.21
656.813	11.06
657.224	10.94
657.636	10.81
658.047	10.66
658.459	10.5
658.87	10.33
659.282	10.2
659.693	10.06
660.104	9.92
660.515	9.79
660.926	9.67
661.338	9.55
661.749	9.41
662.159	9.27
662.57	9.16
662.981	9.05
663.392	8.93
663.803	8.82
664.213	8.73
664.624	8.64
665.035	8.53
665.445	8.46
665.855	8.38
666.266	8.32
666.676	8.26
667.086	8.2
667.497	8.13
667.907	8.09
668.317	8.04
668.727	8.01
669.137	7.97
669.547	7.96
669.956	7.93
670.366	7.94
670.776	7.91
671.186	7.91
671.595	7.91
672.005	7.92
672.414	7.91
672.824	7.92
673.233	7.93
673.642	7.94
674.052	7.95
674.461	7.95
674.87	7.95
675.279	8
675.688	8.01
676.097	8.05
676.506	8.1
676.915	8.14
677.323	8.19
677.732	8.25
678.141	8.32
678.549	8.41
678.958	8.5
679.366	8.58
679.775	8.69
680.183	8.81
680.592	8.93
681	9.06
681.408	9.22
681.816	9.39
682.224	9.58
682.632	9.81
683.04	10.02
683.448	10.27
683.856	10.57
684.264	10.87
684.671	11.22
685.079	11.59
685.487	12.02
685.894	12.48
686.302	12.96
686.709	13.47
687.116	14.02
687.524	14.64
687.931	15.28
688.338	15.95
688.745	16.67
689.152	17.43
689.559	18.21
689.966	19
690.373	19.84
690.78	20.7
691.187	21.57
691.593	22.44
692	23.34
692.407	24.25
692.813	25.15
693.22	26.05
693.626	26.92
694.032	27.82
694.439	28.76
694.845	29.64
695.251	30.52
695.657	31.41
696.063	32.32
696.469	33.17
696.875	34
697.281	34.84
697.687	35.67
698.093	36.53
698.498	37.35
698.904	38.14
699.31	38.91
699.715	39.71
700.12	40.45
700.526	41.17
700.931	41.9
701.337	42.64
701.742	43.3
702.147	43.99
702.552	44.62
702.957	45.25
703.362	45.88
703.767	46.48
704.172	47.09
704.577	47.67
704.981	48.24
705.386	48.78
705.791	49.34
706.195	49.87
706.6	50.4
707.004	50.92
707.408	51.4
707.813	51.85
708.217	52.32
708.621	52.76
709.025	53.2
709.43	53.63
709.834	54.08
710.237	54.44
710.641	54.9
711.045	55.29
711.449	55.69
711.853	56.08
712.256	56.49
712.66	56.85
713.064	57.23
713.467	57.61
713.87	57.98
714.274	58.35
714.677	58.69
715.08	58.98
715.484	59.34
715.887	59.67
716.29	60
716.693	60.3
717.096	60.64
717.499	60.93
717.901	61.19
718.304	61.43
718.707	61.7
719.109	61.98
719.512	62.3
719.915	62.55
720.317	62.79
720.719	63.05
721.122	63.28
721.524	63.51
721.926	63.75
722.328	64.01
722.731	64.27
723.133	64.48
723.535	64.69
723.937	64.86
724.338	65.01
724.74	65.17
725.142	65.24
725.544	65.41
725.945	65.54
726.347	65.68
726.748	65.81
727.15	65.91
727.551	66.06
727.952	66.19
728.354	66.34
728.755	66.5
729.156	66.62
729.557	66.87
729.958	67.02
730.359	67.16
730.76	67.26
731.161	67.36
731.562	67.49
731.962	67.56
732.363	67.63
732.763	67.73
733.164	67.8
733.564	67.86
733.965	67.91
734.365	67.95
734.766	68
735.166	68.06
735.566	68.09
735.966	68.11
736.366	68.16
736.766	68.22
737.166	68.27
737.566	68.31
737.966	68.39
738.365	68.45
738.765	68.48
739.165	68.53
739.564	68.56
739.964	68.63
740.363	68.67
740.763	68.69
741.162	68.74
741.561	68.74
741.96	68.79
742.36	68.83
742.759	68.82
743.158	68.82
743.557	68.85
743.955	68.9
744.354	68.9
744.753	68.96
745.152	69
745.55	69.02
745.949	69.09
746.348	69.14
746.746	69.18
747.144	69.27
747.543	69.34
747.941	69.41
748.339	69.48
748.737	69.55
749.136	69.61
749.534	69.69
749.932	69.74
750.33	69.73
750.727	69.72
751.125	69.71
751.523	69.69
751.921	69.7
752.318	69.68
752.716	69.61
753.113	69.6
753.511	69.55
753.908	69.47
754.305	69.4
754.703	69.34
755.1	69.31
755.497	69.3
755.894	69.3
756.291	69.25
756.688	69.23
757.085	69.24
757.482	69.24
757.878	69.24
758.275	69.26
758.672	69.28
759.068	69.3
759.465	69.3
759.861	69.29
760.258	69.24
760.654	69.26
761.05	69.23
761.447	69.23
761.843	69.18
762.239	69.17
762.635	69.15
763.031	69.13
763.427	69.13
763.822	69.11
764.218	69.1
764.614	69.13
765.01	69.11
765.405	69.1
765.801	69.09
766.196	69.08
766.592	69.06
766.987	69.04
767.382	69.06
767.778	69.04
768.173	69.04
768.568	69.02
768.963	68.98
769.358	68.98
769.753	69.01
770.148	69
770.542	69.01
770.937	69.01
771.332	69
771.726	68.97
772.121	68.96
772.515	68.96
772.91	68.95
773.304	68.96
773.699	68.92
774.093	68.89
774.487	68.9
774.881	68.92
775.275	68.93
775.669	68.97
776.063	68.98
776.457	68.99
776.851	68.98
777.245	69.01
777.638	69.05
778.032	69.07
778.425	69.05
778.819	69.06
779.212	69.02
779.606	69.02
779.999	68.98
780.392	69
780.786	68.99
781.179	69.02
781.572	68.99
781.965	69.01
782.358	68.99
782.751	69.04
783.143	69.02
783.536	69.11
783.929	69.14
784.322	69.13
784.714	69.16
785.107	69.18
785.499	69.19
785.891	69.2
786.284	69.16
786.676	69.22
787.068	69.19
787.46	69.2
787.852	69.16
788.245	69.15
788.636	69.16
789.028	69.14
789.42	69.11
789.812	69.13
790.204	69.13
790.595	69.14
790.987	69.12
791.378	69.16
791.77	69.2
792.161	69.19
792.553	69.2
792.944	69.23
793.335	69.26
793.726	69.26
794.117	69.21
794.508	69.21
794.899	69.22
795.29	69.24
795.681	69.25
796.072	69.23
796.463	69.21
796.853	69.17
797.244	69.19
797.634	69.13
798.025	69.19
798.415	69.28
798.806	69.32
799.196	69.36
799.586	69.35
799.976	69.35
800.366	69.35
800.756	69.4
801.146	69.44
801.536	69.46
801.926	69.5
802.316	69.49
802.706	69.5
803.095	69.51
803.485	69.5
803.874	69.52
804.264	69.55
804.653	69.56
805.043	69.57
805.432	69.56
805.821	69.58
806.21	69.64
806.599	69.67
806.988	69.64
807.377	69.66
807.766	69.68
808.155	69.7
808.544	69.69
808.933	69.72
809.321	69.73
809.71	69.76
810.098	69.73
810.487	69.74
810.875	69.74
811.264	69.8
811.652	69.82
812.04	69.84
812.428	69.85
812.816	69.87
813.204	69.87
813.592	69.87
813.98	69.89
814.368	69.91
814.756	69.89
815.144	69.91
815.531	69.91
815.919	69.84
816.306	69.84
816.694	69.84
817.081	69.81
817.469	69.84
817.856	69.88
818.243	69.9
818.63	69.93
819.017	69.98
819.404	69.98
819.791	69.98
820.178	70.05
820.565	70.06
820.952	70.07
821.339	70.11
821.725	70.13
822.112	70.12
822.498	70.14
822.885	70.13
823.271	70.13
823.657	70.1
824.044	70.1
824.43	70.14
824.816	70.15
825.202	70.14
825.588	70.15
825.974	70.16
826.36	70.14
826.746	70.17
827.132	70.14
827.517	70.15
827.903	70.17
828.289	70.21
828.674	70.16
829.06	70.18
829.445	70.22
829.83	70.23
830.216	70.23
830.601	70.25
830.986	70.21
831.371	70.24
831.756	70.18
832.141	70.2
832.526	70.18
832.911	70.22
833.295	70.21
833.68	70.17
834.065	70.16
834.449	70.12
834.834	70.07
835.218	70.06
835.603	70.03
835.987	70.06
836.371	70.03
836.755	69.99
837.139	69.93
837.524	69.89
837.908	69.85
838.291	69.81
838.675	69.82
839.059	69.83
839.443	69.82
839.827	69.79
840.21	69.82
840.594	69.8
840.977	69.78
841.361	69.8
841.744	69.8
842.127	69.8
842.511	69.8
842.894	69.79
843.277	69.82
843.66	69.82
844.043	69.81
844.426	69.76
844.809	69.75
845.191	69.75
845.574	69.72
845.957	69.69
846.339	69.7
846.722	69.71
847.104	69.69
847.487	69.7
847.869	69.72
848.252	69.74
848.634	69.76
849.016	69.79
849.398	69.8
849.78	69.82
850.162	69.85
850.544	69.86
850.926	69.86
851.307	69.86
851.689	69.8
852.071	69.79
852.452	69.78
852.834	69.77
853.215	69.74
853.597	69.73
853.978	69.71
854.359	69.69
854.741	69.71
855.122	69.71
855.503	69.7
855.884	69.73
856.265	69.73
856.646	69.73
857.026	69.74
857.407	69.69
857.788	69.71
858.169	69.73
858.549	69.79
858.93	69.75
859.31	69.72
859.69	69.71
860.071	69.72
860.451	69.7
860.831	69.7
861.211	69.71
861.591	69.77
861.971	69.76
862.351	69.74
862.731	69.69
863.111	69.67
863.491	69.69
863.87	69.7
864.25	69.71
864.629	69.73
865.009	69.74
865.388	69.71
865.768	69.68
866.147	69.7
866.526	69.68
866.905	69.71
867.284	69.75
867.663	69.77
868.042	69.78
868.421	69.75
868.8	69.74
869.179	69.75
869.558	69.78
869.936	69.78
870.315	69.79
870.693	69.82
871.072	69.78
871.45	69.76
871.828	69.73
872.207	69.73
872.585	69.73
872.963	69.7
873.341	69.68
873.719	69.65
874.097	69.66
874.475	69.67
874.853	69.66
875.23	69.68
875.608	69.66
875.986	69.66
876.363	69.66
876.741	69.64
877.118	69.67
877.495	69.64
877.873	69.61
878.25	69.62
878.627	69.6
879.004	69.62
879.381	69.65
879.758	69.67
880.135	69.68
880.512	69.69
880.889	69.75
881.265	69.77
881.642	69.83
882.019	69.89
882.395	69.88
882.772	69.87
883.148	69.84
883.524	69.82
883.901	69.83
884.277	69.79
884.653	69.78
885.029	69.75
885.405	69.71
885.781	69.65
886.157	69.63
886.532	69.64
886.908	69.67
887.284	69.71
887.659	69.71
888.035	69.7
888.411	69.69
888.786	69.67
889.161	69.65
889.537	69.64
889.912	69.63
890.287	69.58
890.662	69.55
891.037	69.46
891.412	69.37
891.787	69.31
892.162	69.26
892.536	69.26
892.911	69.22
893.286	69.15
893.66	69.13
894.035	69.07
894.409	69.07
894.784	69.03
895.158	69.04
895.532	69.05
895.906	69.02
896.281	69
896.655	68.95
897.029	68.93
897.402	68.95
897.776	68.93
898.15	68.92
898.524	68.9
898.898	68.9
899.271	68.88
899.645	68.83
900.018	68.85
900.392	68.85
900.765	68.87
901.138	68.91
901.511	68.9
901.884	68.92
902.258	68.9
902.631	68.93
903.003	68.93
903.376	68.93
903.749	68.98
904.122	68.99
904.495	68.99
904.867	68.97
905.24	68.92
905.612	68.93
905.985	68.9
906.357	68.89
906.729	68.88
907.102	68.87
907.474	68.86
907.846	68.83
908.218	68.79
908.59	68.78
908.962	68.81
909.334	68.84
909.705	68.82
910.077	68.81
910.449	68.85
910.82	68.8
911.192	68.82
911.563	68.78
911.935	68.8
912.306	68.79
912.677	68.75
913.048	68.7
913.419	68.67
913.79	68.68
914.161	68.67
914.532	68.65
914.903	68.69
915.274	68.64
915.645	68.66
916.015	68.65
916.386	68.62
916.756	68.61
917.127	68.61
917.497	68.56
917.868	68.5
918.238	68.5
918.608	68.5
918.978	68.46
919.348	68.44
919.718	68.41
920.088	68.38
920.458	68.41
920.828	68.43
921.198	68.44
921.567	68.47
921.937	68.5
922.306	68.45
922.676	68.39
923.045	68.38
923.415	68.37
923.784	68.42
924.153	68.38
924.522	68.34
924.891	68.32
925.26	68.31
925.629	68.32
925.998	68.3
926.367	68.32
926.736	68.31
927.104	68.28
927.473	68.31
927.842	68.26
928.21	68.28
928.578	68.26
928.947	68.26
929.315	68.22
929.683	68.2
930.051	68.16
930.42	68.12
930.788	68.12
931.156	68.11
931.523	68.06
931.891	67.95
932.259	67.87
932.627	67.72
932.994	67.61
933.362	67.53
933.729	67.37
934.097	67.28
934.464	67.18
934.831	67.06
935.199	66.98
935.566	66.78
935.933	66.77
936.3	66.62
936.667	66.57
937.034	66.45
937.401	66.38
937.767	66.34
938.134	66.31
938.501	66.3
938.867	66.3
939.234	66.36
939.6	66.49
939.967	66.57
940.333	66.79
940.699	67
941.065	67.27
941.431	67.41
941.798	67.58
942.163	67.75
942.529	67.86
942.895	67.92
943.261	68
943.627	68.13
943.992	68.27
944.358	68.23
944.723	68.23
945.089	68.24
945.454	68.27
945.82	68.33
946.185	68.46
946.55	68.55
946.915	68.63
947.28	68.55
947.645	68.48
948.01	68.43
948.375	68.51
948.74	68.4
949.104	68.41
949.469	68.3
949.834	68.26
950.198	68.03
950.562	67.92
950.927	67.92
951.291	67.94
951.655	67.96
952.02	67.94
952.384	67.85
952.748	67.9
953.112	67.81
953.476	67.86
953.839	67.78
954.203	67.72
954.567	67.71
954.931	67.61
955.294	67.53
955.658	67.41
956.021	67.35
956.385	67.32
956.748	67.23
957.111	67.15
957.474	67.07
957.837	67.08
958.2	67.05
958.563	66.98
958.926	66.85
959.289	66.84
959.652	66.88
960.015	66.78
960.377	66.72
960.74	66.66
961.102	66.65
961.465	66.66
961.827	66.5
962.189	66.46
962.552	66.38
962.914	66.42
963.276	66.37
963.638	66.26
964	66.21
964.362	66.25
964.724	66.23
965.085	66.19
965.447	66.05
965.809	66.11
966.17	66.18
966.532	66.24
966.893	66.22
967.255	66.16
967.616	66.18
967.977	66.18
968.338	66.1
968.699	66.14
969.061	66.08
969.421	66.13
969.782	66.11
970.143	66.06
970.504	65.98
970.865	65.91
971.225	65.91
971.586	65.94
971.946	66.04
972.307	66.05
972.667	66.03
973.027	66.08
973.388	66.08
973.748	66.06
974.108	65.93
974.468	65.94
974.828	66.02
975.188	66.04
975.548	65.97
975.907	65.91
976.267	65.82
976.627	65.75
976.986	65.7
977.346	65.66
977.705	65.72
978.064	65.77
978.424	65.78
978.783	65.71
979.142	65.58
979.501	65.65
979.86	65.62
980.219	65.58
980.578	65.63
980.937	65.69
981.296	65.69
981.654	65.7
982.013	65.72
982.371	65.66
982.73	65.64
983.088	65.75
983.447	65.7
983.805	65.62
984.163	65.78
984.521	65.64
984.879	65.58
985.237	65.65
985.595	65.54
985.953	65.64
986.311	65.79
986.669	65.91
987.026	65.93
987.384	65.93
987.741	66.07
988.099	65.88
988.456	65.92
988.814	65.92
989.171	65.88
989.528	65.86
989.885	65.74
990.242	65.65
990.599	65.56
990.956	65.54
991.313	65.49
991.67	65.46
992.027	65.44
992.383	65.61
992.74	65.52
993.096	65.41
993.453	65.44
993.809	65.47
994.165	65.44
994.522	65.42
994.878	65.32
995.234	65.23
995.59	65.13
995.946	65.3
996.302	65.18
996.658	65.18
997.013	65.24
997.369	65.21
997.725	65.26
998.08	65.19
998.436	65.28
998.791	65.35
999.147	65.61
999.502	65.66
999.857	65.69
1000.212	65.68
1000.567	65.82
1000.922	65.73
1001.277	65.67
1001.632	65.7
1001.987	65.88
1002.342	65.92
1002.696	65.98
1003.051	65.76
1003.406	65.63
1003.76	65.62
1004.114	65.79
1004.469	65.64
1004.823	65.73
1005.177	65.89
1005.531	65.65
1005.885	65.55
1006.239	65.36
1006.593	65.33
1006.947	65.29
1007.301	65.46
1007.655	65.31
1008.008	65.06
1008.362	65.17
1008.715	65.22
1009.069	65.19
1009.422	65.11
1009.776	65.02
1010.129	64.82
1010.482	64.88
1010.835	65.1
1011.188	64.98
1011.541	64.8
1011.894	64.82
1012.247	64.7
1012.6	64.63
1012.952	64.6
1013.305	64.73
1013.657	64.78
1014.01	65.08
1014.362	64.89
1014.715	64.52
1015.067	64.67
1015.419	65.11
1015.771	65.31
1016.123	65.47
1016.475	65.8
1016.827	65.87
1017.179	66
1017.531	65.91
1017.883	66.06
1018.234	66.24
1018.586	66.36
1018.938	66
1019.289	65.54
1019.64	65.34
1019.992	65.29
1020.343	64.71
1020.694	64.5
1021.045	64.35
1021.396	64.43
1021.747	64.32
1022.098	64.17
1022.449	63.99
1022.8	64.09
1023.151	64.06
1023.501	64.39
1023.852	64.63
1024.202	64.85
1024.553	64.87
1024.903	64.86
1025.253	65.09
1025.604	64.92
1025.954	64.65
1026.304	65.06
1026.654	65.39
1027.004	65.81
1027.354	65.33
1027.703	64.85
1028.053	64.7
1028.403	64.45
1028.753	64.58
1029.102	64.26
1029.452	64.18
1029.801	64.46
1030.15	64.26
1030.499	63.97
897.758	223.83
901.051	225.84
904.343	231.86
907.636	227.34
910.928	228.13
914.22	228.76
917.511	219.78
920.803	217.9
924.094	208.23
927.384	211.24
930.675	206.42
933.965	202
937.255	204.26
940.544	194.9
943.834	190.34
947.123	186.32
950.411	179.35
953.7	178.8
956.988	173.09
960.276	168.6
963.563	170.51
966.851	164.25
970.138	161.87
973.424	151.8
976.711	152.64
979.997	149.46
983.283	146.11
986.568	143.26
989.853	141.1
993.138	137.04
996.423	138.58
999.708	133.21
1002.992	134.51
1006.275	132.61
1009.559	132.2
1012.842	128.94
1016.125	124.91
1019.408	122.78
1022.69	124.53
1025.972	122.62
1029.254	121.57
1032.536	118.91
1035.817	116.77
1039.098	115.42
1042.379	115.18
1045.659	115.18
1048.939	114.25
1052.219	112.93
1055.498	112.87
1058.778	110.17
1062.057	109.74
1065.335	109.99
1068.614	108.95
1071.892	108.36
1075.17	107.6
1078.447	106.01
1081.724	105.44
1085.001	103.3
1088.278	104.88
1091.554	105.42
1094.83	104.52
1098.106	103.82
1101.382	103.13
1104.657	102.55
1107.932	102.89
1111.206	102.77
1114.481	102.74
1117.755	100.57
1121.029	100.86
1124.302	99.37
1127.575	97.98
1130.848	97.88
1134.121	97.11
1137.393	96.82
1140.665	96.56
1143.937	94.99
1147.208	94.59
1150.48	93.2
1153.75	94.41
1157.021	93.18
1160.291	92.95
1163.561	92.01
1166.831	92.97
1170.101	92.28
1173.37	91.62
1176.639	90.82
1179.907	91.15
1183.176	89.64
1186.444	89.53
1189.711	88.88
1192.979	89.39
1196.246	89.87
1199.513	90.22
1202.78	89.12
1206.046	89.1
1209.312	89.32
1212.578	89.83
1215.843	91.23
1219.108	91.39
1222.373	92.48
1225.638	93.2
1228.902	94.87
1232.166	95.98
1235.43	95.79
1238.693	97.48
1241.956	99.52
1245.219	101.09
1248.482	101.07
1251.744	99.44
1255.006	100.39
1258.268	98.19
1261.529	97.95
1264.79	96.36
1268.051	95.6
1271.312	95.95
1274.572	94.26
1277.832	93.08
1281.092	92.12
1284.351	91.46
1287.61	91.62
1290.869	91.47
1294.128	91.56
1297.386	91.88
1300.644	91.14
1303.902	89.6
1307.159	89.2
1310.416	89.45
1313.673	89.92
1316.93	89.81
1320.186	90.73
1323.442	90.2
1326.697	90.84
1329.953	90.7
1333.208	90.68
1336.463	93.06
1339.717	94.65
1342.972	95.82
1346.226	97.3
1349.479	96.99
1352.733	99.26
1355.986	99.44
1359.238	101.29
1362.491	99.72
1365.743	102.57
1368.995	105.13
1372.247	102.65
1375.498	101.17
1378.749	102.02
1382	102.86
1385.251	101.06
1388.501	100.35
1391.751	99.9
1395	98.28
1398.25	99.69
1401.499	97.39
1404.748	93.59
1407.996	92.47
1411.244	92.72
1414.492	91.62
1417.74	85.77
1420.987	84.98
1424.234	82.08
1427.481	80.05
1430.728	78.31
1433.974	74.74
1437.22	73.24
1440.465	70.56
1443.711	68.77
1446.956	66.38
1450.201	64.05
1453.445	62.35
1456.689	60.84
1459.933	60.19
1463.177	57.13
1466.42	56.66
1469.663	56.25
1472.906	54.62
1476.148	53.23
1479.391	53.21
1482.633	52.87
1485.874	52.96
1489.115	53.07
1492.356	52.64
1495.597	52.28
1498.838	53.25
1502.078	53.1
1505.318	53.31
1508.557	52.83
1511.797	54.12
1515.036	54.04
1518.274	55.12
1521.513	55.2
1524.751	54.82
1527.989	55.87
1531.227	55.89
1534.464	56.74
1537.701	56.91
1540.938	56.53
1544.174	57.48
1547.41	57.79
1550.646	58.21
1553.882	57.71
1557.117	58.4
1560.352	58.7
1563.587	58.79
1566.821	59.01
1570.055	58.94
1573.289	59.2
1576.523	59.36
1579.756	59.6
1582.989	60.14
1586.222	60.36
1589.454	60.44
1592.686	60.29
1595.918	60.14
1599.15	60.08
1602.381	60.94
1605.612	61.18
1608.843	61.14
1612.073	62.18
1615.303	62.32
1618.533	62.21
1621.762	61.86
1624.992	62.14
1628.221	62.23
1631.449	63.09
1634.678	63.27
1637.906	62.5
1641.134	62.69
1644.361	62.86
1647.588	62.4
1650.815	62.74
1654.042	62.87
1657.269	63.17
1660.495	63.67
1663.72	63.4
1666.946	63.39
1670.171	63.77
1673.396	64.42
1676.621	64.02
1679.845	64.84
1683.069	64.26
1686.293	64.08
1689.517	63.91
1692.74	64.1
1695.963	63.68
1699.185	64.18
1702.408	63.57
1705.63	63.36
1708.852	63.58
1712.073	63.25
1715.294	62.48
1718.515	63.89
1721.736	63.64
1724.956	63.67
1728.176	63.45
1731.396	63.47
1734.616	63.57
1737.835	63.81
1741.054	63.47
1744.272	62.59
1747.491	63.18
1750.709	63.4
1753.927	62.48
1757.144	62.15
1760.361	61.82
1763.578	61.57
1766.795	62.11
1770.011	61.71
1773.227	61.89
1776.443	62.14
1779.658	61.8
1782.874	62.37
1786.089	61.06
1789.303	61.19
1792.518	61.75
1795.732	61.86
1798.945	62.21
1802.159	61.83
1805.372	61.9
1808.585	62.18
1811.797	61.89
1815.01	62.45
1818.222	61.78
1821.434	62.29
1824.645	61.92
1827.856	62.42
1831.067	62.19
1834.278	63.11
1837.488	63.05
1840.698	63.22
1843.908	62.97
1847.117	63.39
1850.326	63.55
1853.535	63.81
1856.744	63.38
1859.952	64.21
1863.16	62.66
1866.368	61.26
1869.575	60.09
1872.782	58.42
1875.989	56.53
1879.196	55.36
1882.402	53.1
1885.608	52.96
1888.814	50.43
1892.019	49.71
1895.224	47.58
1898.429	47.53
1901.634	46.97
1904.838	45.56
1908.042	45.39
1911.246	45.5
1914.449	45.33
1917.652	44.97
1920.855	44.94
1924.058	44.4
1927.26	43.28
1930.462	44.09
1933.664	43.54
1936.865	44.53
1940.066	43.49
1943.267	43.6
1946.467	43.16
1949.668	42.91
1952.868	43.84
1956.067	43.17
1959.267	44.57
1962.466	45.32
1965.665	45.5
1968.863	46.6
1972.061	46.93
1975.259	48.57
1978.457	49.14
1981.654	49.83
1984.852	50.59
1988.048	51.16
1991.245	51.54
1994.441	52.14
1997.637	53.72
2000.833	55.87
2004.028	54.81
2007.223	55.9
2010.418	57.63
2013.613	59.49
2016.807	61.31
2020.001	63.24
2023.194	64.74
2026.388	68.07
2029.581	71.82
2032.774	73.37
2035.966	73.56
2039.158	77.21
2042.35	76.83
2045.542	79.48
2048.733	82.81
2051.924	82.27
2055.115	82.69
2058.306	83.31
2061.496	82.89
2064.686	82.57
2067.875	84.09
2071.065	84.86
2074.254	84.08
2077.442	89.37
2080.631	87.45
2083.819	87.88
2087.007	91.75
2090.195	93.42
2093.382	94.03
2096.569	94.41
2099.756	96.02
2102.942	96.14
2106.128	98.09
2109.314	103.33
2112.5	101.37
2115.685	100.05
2118.87	100.35
2122.055	101.35
2125.239	100.91
2128.424	104.16
2131.608	102.99
2134.791	102.35
2137.974	103.53
2141.157	104.87
2144.34	102.33
2147.523	106.42
2150.705	110.55
2153.887	111.61
2157.068	112.26
2160.25	114.53
2163.431	114.12
2166.611	116.17
2169.792	118.62
2172.972	122.38
2176.152	122.5
2179.331	124.37
2182.511	124.07
2185.69	126.26
2188.868	128.64
2192.047	130.92
2195.225	135.53
2198.403	133.64
2201.58	134.27
2204.758	139.66
2207.935	136.31
2211.111	138.99
2214.288	140.68
2217.464	141.61
2220.64	141.45
2223.815	139.75
2226.991	137.16
2230.166	137.23
2233.34	142.99
2236.515	143.12
2239.689	136.73
2242.863	142.65
2246.036	141.14
2249.209	139.98
2252.382	139.28
2255.555	144.76
2258.727	147.81
2261.9	151.21
2265.071	151.69
2268.243	151.17
2271.414	157.06
2274.585	163.31
2277.756	160.18
2280.926	166.41
2284.096	171.46
2287.266	173.98
2290.436	170.54
2293.605	172.51
2296.774	182.08
2299.942	183.62
2303.111	186.89
2306.279	195.82
2309.447	194.31
2312.614	194.5
2315.781	194.44
2318.948	195.34
2322.115	198.45
2325.281	205.24
2328.447	206.78
2331.613	205.97
2334.779	206.65
2337.944	209.23
2341.109	205.41
2344.274	208.33
2347.438	213.86
2350.602	222.61
2353.766	228.22
2356.929	228.37
2360.092	235.15
2363.255	232.92
2366.418	232.36
2369.58	241.97
2372.742	248.57
2375.904	249.34
2379.066	255.49
2382.227	262.08
2385.388	255.31
2388.548	252.18
2391.709	252.59
2394.869	253.97
2398.029	259.63
2401.188	256.95
2404.347	257.69
2407.506	263.47
2410.665	257.55
2413.823	261.38
2416.981	266.91
2420.139	262.24
2423.296	276.66
2426.453	290.02
2429.61	277.89
2432.767	293.03
2435.923	308.14
2439.079	304.81
2442.235	308.76
2445.391	321.57
2448.546	312.59
2451.701	331.27
2454.855	340.1
2458.009	316.66
2461.163	324.02
2464.317	328.95
2467.471	321.4
2470.624	332
2473.777	318.04
2476.929	315.89
2480.082	315
2483.234	338.61
2486.385	342.67
2489.537	356.03
2492.688	382.74
2495.839	375.32
2498.989	385.6
2502.14	385.16
2505.29	372.65
2508.439	408.39
2511.589	406.33
2514.738	413.74
2517.887	406.68
2521.035	383.21
2524.183	373.3
2527.331	376.33
2530.479	366.79
2533.627	375.53
