Data from C_2_div_oh_2n_066_Splice17_09.txt Node
Date: Sat Feb 29 14:25:59 EST 2020
User: sa697716
Spectrometer: FLMS03696
Trigger mode: 0
Integration Time (sec): 3.180400E-1
Scans to average: 20
Electric dark correction enabled: true
Nonlinearity correction enabled: true
Boxcar width: 5
XAxis mode: Wavelengths
Number of Pixels in Spectrum: 2048
>>>>>Begin Spectral Data<<<<<
187.83	70.96
188.298	53.92
188.766	42.58
189.233	45.83
189.701	51.47
190.169	57.96
190.636	40.62
191.104	-2.8
191.571	-159.75
192.039	63.8
192.506	352.05
192.974	4871.06
193.441	59.34
193.908	21.86
194.375	-19.9
194.842	11.87
195.31	18.06
195.777	-54.02
196.244	-8.53
196.711	18.45
197.177	18.66
197.644	20.29
198.111	20.99
198.578	22.06
199.045	22.55
199.511	23.53
199.978	24.18
200.445	24.24
200.911	24.32
201.378	24.51
201.844	24.8
202.31	25.85
202.777	26.06
203.243	26.67
203.709	26.85
204.176	26.59
204.642	26.9
205.108	26.96
205.574	27.71
206.04	28.07
206.506	28.15
206.972	28.1
207.438	27.94
207.903	28.44
208.369	28.45
208.835	28.45
209.301	28.82
209.766	28.57
210.232	28.54
210.697	28.1
211.163	28.03
211.628	27.6
212.094	27.48
212.559	27.14
213.024	26.74
213.49	26.3
213.955	26.11
214.42	25.53
214.885	24.88
215.35	24.34
215.815	23.96
216.28	23.63
216.745	23.24
217.21	22.73
217.675	22.12
218.14	21.49
218.604	20.84
219.069	20.31
219.534	19.81
219.998	19.42
220.463	19.06
220.927	18.67
221.392	18.21
221.856	17.86
222.32	17.53
222.785	17.28
223.249	17.03
223.713	16.82
224.177	16.56
224.642	16.37
225.106	16.16
225.57	15.98
226.034	15.8
226.497	15.65
226.961	15.45
227.425	15.26
227.889	15.04
228.353	14.86
228.816	14.7
229.28	14.52
229.744	14.38
230.207	14.23
230.671	14.05
231.134	13.87
231.597	13.71
232.061	13.56
232.524	13.43
232.987	13.28
233.45	13.12
233.914	12.98
234.377	12.86
234.84	12.7
235.303	12.57
235.766	12.42
236.229	12.3
236.691	12.17
237.154	12.07
237.617	11.96
238.08	11.86
238.542	11.76
239.005	11.65
239.468	11.53
239.93	11.44
240.393	11.33
240.855	11.24
241.317	11.16
241.78	11.1
242.242	10.99
242.704	10.89
243.166	10.79
243.629	10.71
244.091	10.63
244.553	10.56
245.015	10.48
245.477	10.4
245.939	10.32
246.4	10.23
246.862	10.15
247.324	10.08
247.786	10.03
248.247	9.97
248.709	9.91
249.17	9.83
249.632	9.75
250.093	9.67
250.555	9.61
251.016	9.57
251.477	9.51
251.939	9.44
252.4	9.39
252.861	9.33
253.322	9.27
253.783	9.23
254.244	9.2
254.705	9.16
255.166	9.12
255.627	9.07
256.088	9.02
256.549	8.99
257.009	8.97
257.47	8.93
257.931	8.88
258.391	8.84
258.852	8.79
259.312	8.75
259.773	8.71
260.233	8.68
260.694	8.64
261.154	8.6
261.614	8.56
262.074	8.52
262.534	8.48
262.994	8.46
263.455	8.42
263.915	8.38
264.374	8.34
264.834	8.31
265.294	8.26
265.754	8.23
266.214	8.19
266.673	8.17
267.133	8.14
267.593	8.11
268.052	8.08
268.512	8.06
268.971	8.05
269.431	8.03
269.89	8.01
270.349	7.99
270.809	7.98
271.268	7.97
271.727	7.95
272.186	7.93
272.645	7.91
273.104	7.89
273.563	7.88
274.022	7.86
274.481	7.84
274.94	7.81
275.399	7.79
275.857	7.77
276.316	7.75
276.775	7.73
277.233	7.7
277.692	7.67
278.15	7.64
278.609	7.6
279.067	7.57
279.525	7.54
279.984	7.52
280.442	7.49
280.9	7.47
281.358	7.44
281.816	7.41
282.274	7.4
282.732	7.38
283.19	7.36
283.648	7.35
284.106	7.33
284.564	7.33
285.021	7.31
285.479	7.31
285.937	7.29
286.394	7.28
286.852	7.27
287.309	7.26
287.767	7.25
288.224	7.24
288.682	7.22
289.139	7.22
289.596	7.2
290.053	7.17
290.511	7.14
290.968	7.12
291.425	7.1
291.882	7.07
292.339	7.05
292.796	7.02
293.252	7
293.709	6.96
294.166	6.94
294.623	6.92
295.079	6.91
295.536	6.9
295.992	6.88
296.449	6.88
296.905	6.86
297.362	6.85
297.818	6.84
298.274	6.83
298.731	6.82
299.187	6.81
299.643	6.79
300.099	6.78
300.555	6.76
301.011	6.75
301.467	6.74
301.923	6.73
302.379	6.72
302.835	6.7
303.291	6.68
303.746	6.68
304.202	6.66
304.658	6.65
305.113	6.63
305.569	6.62
306.024	6.61
306.479	6.59
306.935	6.57
307.39	6.57
307.845	6.56
308.301	6.56
308.756	6.55
309.211	6.54
309.666	6.54
310.121	6.54
310.576	6.54
311.031	6.52
311.486	6.52
311.94	6.52
312.395	6.53
312.85	6.51
313.305	6.52
313.759	6.51
314.214	6.51
314.668	6.5
315.123	6.5
315.577	6.49
316.032	6.49
316.486	6.48
316.94	6.47
317.394	6.46
317.849	6.46
318.303	6.45
318.757	6.43
319.211	6.41
319.665	6.4
320.119	6.39
320.572	6.38
321.026	6.37
321.48	6.36
321.934	6.35
322.387	6.35
322.841	6.33
323.295	6.32
323.748	6.31
324.202	6.3
324.655	6.29
325.108	6.26
325.562	6.25
326.015	6.23
326.468	6.21
326.921	6.2
327.374	6.18
327.827	6.17
328.28	6.16
328.733	6.16
329.186	6.15
329.639	6.15
330.092	6.14
330.545	6.15
330.997	6.15
331.45	6.15
331.903	6.15
332.355	6.15
332.808	6.14
333.26	6.14
333.713	6.13
334.165	6.12
334.617	6.12
335.069	6.12
335.522	6.12
335.974	6.12
336.426	6.12
336.878	6.12
337.33	6.11
337.782	6.13
338.234	6.13
338.686	6.13
339.137	6.14
339.589	6.14
340.041	6.13
340.493	6.12
340.944	6.12
341.396	6.11
341.847	6.1
342.299	6.09
342.75	6.05
343.201	6.04
343.653	6.03
344.104	6.02
344.555	6
345.006	5.99
345.457	5.98
345.908	5.97
346.359	5.97
346.81	5.98
347.261	5.97
347.712	5.97
348.163	5.95
348.613	5.94
349.064	5.93
349.515	5.93
349.965	5.93
350.416	5.93
350.866	5.93
351.317	5.92
351.767	5.9
352.217	5.89
352.668	5.89
353.118	5.9
353.568	5.91
354.018	5.92
354.468	5.91
354.918	5.92
355.368	5.94
355.818	5.93
356.268	5.94
356.718	5.94
357.168	5.95
357.617	5.96
358.067	5.96
358.517	5.95
358.966	5.96
359.416	5.97
359.865	5.97
360.315	5.96
360.764	5.96
361.213	5.96
361.663	5.97
362.112	5.98
362.561	5.98
363.01	5.98
363.459	5.98
363.908	5.97
364.357	5.97
364.806	5.97
365.255	5.98
365.703	5.97
366.152	5.99
366.601	5.99
367.05	5.99
367.498	6.01
367.947	6.02
368.395	6.03
368.844	6.04
369.292	6.04
369.74	6.05
370.189	6.06
370.637	6.07
371.085	6.07
371.533	6.08
371.981	6.08
372.429	6.08
372.877	6.08
373.325	6.08
373.773	6.09
374.221	6.11
374.669	6.12
375.116	6.11
375.564	6.12
376.012	6.13
376.459	6.15
376.907	6.16
377.354	6.18
377.801	6.19
378.249	6.2
378.696	6.22
379.143	6.23
379.591	6.25
380.038	6.28
380.485	6.3
380.932	6.3
381.379	6.32
381.826	6.34
382.273	6.36
382.72	6.39
383.166	6.42
383.613	6.44
384.06	6.47
384.506	6.5
384.953	6.52
385.4	6.55
385.846	6.58
386.292	6.61
386.739	6.64
387.185	6.68
387.631	6.7
388.078	6.73
388.524	6.75
388.97	6.77
389.416	6.79
389.862	6.81
390.308	6.83
390.754	6.86
391.2	6.89
391.645	6.91
392.091	6.95
392.537	6.97
392.983	7.01
393.428	7.05
393.874	7.1
394.319	7.13
394.765	7.15
395.21	7.19
395.655	7.22
396.101	7.25
396.546	7.27
396.991	7.29
397.436	7.29
397.881	7.33
398.326	7.37
398.771	7.4
399.216	7.45
399.661	7.51
400.106	7.55
400.551	7.58
400.995	7.6
401.44	7.62
401.885	7.64
402.329	7.67
402.774	7.67
403.218	7.68
403.663	7.69
404.107	7.69
404.551	7.7
404.995	7.71
405.44	7.73
405.884	7.74
406.328	7.76
406.772	7.8
407.216	7.83
407.66	7.85
408.104	7.86
408.547	7.88
408.991	7.89
409.435	7.9
409.879	7.9
410.322	7.92
410.766	7.94
411.209	7.95
411.653	7.93
412.096	7.94
412.54	7.95
412.983	7.95
413.426	7.96
413.869	7.98
414.312	8.01
414.756	8.03
415.199	8.04
415.642	8.09
416.085	8.12
416.527	8.15
416.97	8.16
417.413	8.17
417.856	8.17
418.298	8.18
418.741	8.17
419.184	8.17
419.626	8.16
420.069	8.16
420.511	8.13
420.953	8.11
421.396	8.1
421.838	8.11
422.28	8.13
422.722	8.14
423.164	8.15
423.606	8.16
424.048	8.14
424.49	8.16
424.932	8.18
425.374	8.19
425.816	8.19
426.258	8.18
426.699	8.13
427.141	8.1
427.582	8.08
428.024	8.09
428.465	8.1
428.907	8.12
429.348	8.13
429.789	8.1
430.231	8.06
430.672	8.06
431.113	8.09
431.554	8.11
431.995	8.13
432.436	8.13
432.877	8.1
433.318	8.09
433.759	8.07
434.2	8.06
434.64	8.07
435.081	8.07
435.522	8.09
435.962	8.1
436.403	8.15
436.843	8.16
437.284	8.2
437.724	8.23
438.164	8.25
438.604	8.27
439.045	8.28
439.485	8.3
439.925	8.33
440.365	8.32
440.805	8.31
441.245	8.28
441.685	8.29
442.125	8.29
442.564	8.3
443.004	8.31
443.444	8.33
443.883	8.35
444.323	8.37
444.762	8.43
445.202	8.5
445.641	8.53
446.081	8.57
446.52	8.59
446.959	8.62
447.398	8.68
447.837	8.74
448.276	8.76
448.716	8.78
449.154	8.81
449.593	8.82
450.032	8.82
450.471	8.85
450.91	8.88
451.349	8.9
451.787	8.91
452.226	8.91
452.664	8.92
453.103	8.92
453.541	8.93
453.98	8.93
454.418	8.92
454.856	8.9
455.295	8.89
455.733	8.88
456.171	8.87
456.609	8.85
457.047	8.84
457.485	8.81
457.923	8.82
458.361	8.79
458.798	8.78
459.236	8.78
459.674	8.79
460.111	8.79
460.549	8.77
460.987	8.77
461.424	8.76
461.862	8.76
462.299	8.76
462.736	8.73
463.173	8.73
463.611	8.73
464.048	8.72
464.485	8.71
464.922	8.69
465.359	8.69
465.796	8.67
466.233	8.69
466.67	8.68
467.106	8.68
467.543	8.69
467.98	8.69
468.416	8.7
468.853	8.7
469.29	8.72
469.726	8.72
470.162	8.73
470.599	8.76
471.035	8.75
471.471	8.77
471.907	8.78
472.344	8.79
472.78	8.8
473.216	8.8
473.652	8.79
474.088	8.81
474.523	8.82
474.959	8.81
475.395	8.8
475.831	8.8
476.266	8.79
476.702	8.79
477.138	8.79
477.573	8.76
478.008	8.76
478.444	8.76
478.879	8.75
479.314	8.74
479.75	8.74
480.185	8.73
480.62	8.73
481.055	8.74
481.49	8.72
481.925	8.71
482.36	8.7
482.795	8.7
483.229	8.69
483.664	8.68
484.099	8.69
484.534	8.7
484.968	8.72
485.403	8.72
485.837	8.72
486.271	8.74
486.706	8.75
487.14	8.79
487.574	8.81
488.009	8.83
488.443	8.86
488.877	8.88
489.311	8.9
489.745	8.91
490.179	8.93
490.613	8.96
491.046	9.01
491.48	9.06
491.914	9.08
492.348	9.12
492.781	9.16
493.215	9.21
493.648	9.27
494.082	9.34
494.515	9.4
494.948	9.47
495.382	9.54
495.815	9.6
496.248	9.67
496.681	9.76
497.114	9.84
497.547	9.92
497.98	10.01
498.413	10.11
498.846	10.2
499.279	10.32
499.711	10.41
500.144	10.52
500.577	10.63
501.009	10.75
501.442	10.88
501.874	11.02
502.306	11.16
502.739	11.29
503.171	11.44
503.603	11.61
504.036	11.78
504.468	11.97
504.9	12.15
505.332	12.34
505.764	12.56
506.196	12.76
506.627	12.96
507.059	13.18
507.491	13.42
507.923	13.67
508.354	13.88
508.786	14.13
509.217	14.36
509.649	14.62
510.08	14.88
510.512	15.13
510.943	15.41
511.374	15.7
511.805	15.98
512.237	16.27
512.668	16.54
513.099	16.86
513.53	17.17
513.961	17.49
514.391	17.78
514.822	18.08
515.253	18.4
515.684	18.7
516.114	19.01
516.545	19.33
516.975	19.66
517.406	19.98
517.836	20.29
518.267	20.59
518.697	20.91
519.127	21.22
519.558	21.55
519.988	21.85
520.418	22.14
520.848	22.43
521.278	22.71
521.708	22.92
522.138	23.19
522.567	23.46
522.997	23.72
523.427	24
523.857	24.25
524.286	24.49
524.716	24.73
525.145	24.98
525.575	25.2
526.004	25.42
526.433	25.71
526.863	25.94
527.292	26.15
527.721	26.35
528.15	26.52
528.579	26.71
529.008	26.88
529.437	27.04
529.866	27.21
530.295	27.38
530.724	27.54
531.152	27.69
531.581	27.82
532.01	27.91
532.438	28.03
532.867	28.15
533.295	28.26
533.723	28.36
534.152	28.46
534.58	28.55
535.008	28.61
535.436	28.68
535.865	28.74
536.293	28.81
536.721	28.91
537.149	28.96
537.576	29.02
538.004	29.07
538.432	29.13
538.86	29.19
539.287	29.22
539.715	29.28
540.143	29.31
540.57	29.35
540.998	29.4
541.425	29.42
541.852	29.45
542.28	29.47
542.707	29.49
543.134	29.52
543.561	29.53
543.988	29.57
544.415	29.61
544.842	29.65
545.269	29.67
545.696	29.69
546.123	29.72
546.549	29.74
546.976	29.79
547.403	29.81
547.829	29.85
548.256	29.88
548.682	29.89
549.108	29.9
549.535	29.93
549.961	29.96
550.387	29.94
550.813	29.94
551.24	29.96
551.666	29.97
552.092	29.96
552.518	29.95
552.943	29.95
553.369	29.94
553.795	29.96
554.221	29.91
554.646	29.88
555.072	29.87
555.498	29.85
555.923	29.82
556.349	29.75
556.774	29.72
557.199	29.67
557.625	29.6
558.05	29.53
558.475	29.44
558.9	29.37
559.325	29.3
559.75	29.21
560.175	29.12
560.6	29.01
561.025	28.91
561.449	28.79
561.874	28.69
562.299	28.6
562.723	28.52
563.148	28.4
563.572	28.29
563.997	28.15
564.421	28.03
564.846	27.91
565.27	27.79
565.694	27.66
566.118	27.53
566.542	27.37
566.966	27.19
567.39	27.01
567.814	26.83
568.238	26.62
568.662	26.45
569.086	26.27
569.509	26.08
569.933	25.88
570.357	25.69
570.78	25.49
571.204	25.31
571.627	25.15
572.05	24.99
572.474	24.84
572.897	24.69
573.32	24.54
573.743	24.4
574.166	24.25
574.589	24.11
575.012	23.98
575.435	23.86
575.858	23.73
576.281	23.62
576.704	23.5
577.126	23.38
577.549	23.28
577.972	23.17
578.394	23.05
578.817	22.95
579.239	22.87
579.661	22.78
580.084	22.69
580.506	22.6
580.928	22.51
581.35	22.43
581.772	22.36
582.194	22.3
582.616	22.23
583.038	22.17
583.46	22.13
583.882	22.07
584.303	22
584.725	21.92
585.147	21.83
585.568	21.75
585.99	21.69
586.411	21.61
586.833	21.55
587.254	21.49
587.675	21.43
588.096	21.36
588.518	21.27
588.939	21.21
589.36	21.16
589.781	21.15
590.202	21.09
590.623	21.03
591.043	20.99
591.464	20.93
591.885	20.87
592.305	20.84
592.726	20.79
593.147	20.79
593.567	20.73
593.987	20.72
594.408	20.68
594.828	20.66
595.248	20.63
595.669	20.58
596.089	20.55
596.509	20.51
596.929	20.47
597.349	20.42
597.769	20.36
598.189	20.35
598.608	20.3
599.028	20.25
599.448	20.21
599.867	20.16
600.287	20.14
600.706	20.07
601.126	20.02
601.545	19.96
601.965	19.93
602.384	19.87
602.803	19.8
603.222	19.74
603.641	19.68
604.061	19.61
604.48	19.54
604.898	19.47
605.317	19.41
605.736	19.34
606.155	19.26
606.574	19.18
606.992	19.09
607.411	19.02
607.829	18.88
608.248	18.79
608.666	18.71
609.085	18.63
609.503	18.53
609.921	18.44
610.339	18.35
610.758	18.28
611.176	18.2
611.594	18.12
612.012	18.03
612.43	18
612.847	17.93
613.265	17.85
613.683	17.76
614.101	17.7
614.518	17.63
614.936	17.55
615.353	17.48
615.771	17.38
616.188	17.32
616.606	17.27
617.023	17.19
617.44	17.13
617.857	17.07
618.274	17.01
618.691	16.94
619.108	16.88
619.525	16.85
619.942	16.78
620.359	16.76
620.776	16.72
621.192	16.68
621.609	16.65
622.026	16.61
622.442	16.57
622.859	16.54
623.275	16.54
623.691	16.51
624.108	16.48
624.524	16.47
624.94	16.44
625.356	16.42
625.772	16.4
626.188	16.39
626.604	16.37
627.02	16.37
627.436	16.35
627.852	16.32
628.268	16.31
628.683	16.29
629.099	16.28
629.514	16.27
629.93	16.23
630.345	16.19
630.761	16.15
631.176	16.11
631.591	16.06
632.007	16
632.422	15.94
632.837	15.88
633.252	15.82
633.667	15.71
634.082	15.64
634.497	15.53
634.911	15.46
635.326	15.33
635.741	15.21
636.155	15.09
636.57	14.98
636.984	14.84
637.399	14.68
637.813	14.52
638.228	14.39
638.642	14.23
639.056	14.09
639.47	13.93
639.884	13.8
640.298	13.65
640.712	13.5
641.126	13.34
641.54	13.19
641.954	13.07
642.368	12.92
642.781	12.77
643.195	12.63
643.609	12.49
644.022	12.36
644.436	12.24
644.849	12.11
645.262	12
645.676	11.89
646.089	11.8
646.502	11.69
646.915	11.61
647.328	11.53
647.741	11.45
648.154	11.38
648.567	11.31
648.98	11.25
649.393	11.21
649.805	11.15
650.218	11.11
650.631	11.05
651.043	11.01
651.456	10.98
651.868	10.94
652.28	10.93
652.693	10.89
653.105	10.85
653.517	10.81
653.929	10.76
654.341	10.74
654.753	10.68
655.165	10.62
655.577	10.54
655.989	10.46
656.401	10.37
656.813	10.28
657.224	10.21
657.636	10.14
658.047	10.05
658.459	9.97
658.87	9.86
659.282	9.78
659.693	9.7
660.104	9.62
660.515	9.55
660.926	9.48
661.338	9.41
661.749	9.32
662.159	9.25
662.57	9.17
662.981	9.1
663.392	9.03
663.803	8.95
664.213	8.9
664.624	8.85
665.035	8.78
665.445	8.74
665.855	8.69
666.266	8.64
666.676	8.6
667.086	8.57
667.497	8.52
667.907	8.49
668.317	8.48
668.727	8.45
669.137	8.43
669.547	8.43
669.956	8.4
670.366	8.39
670.776	8.39
671.186	8.38
671.595	8.38
672.005	8.4
672.414	8.41
672.824	8.43
673.233	8.46
673.642	8.46
674.052	8.49
674.461	8.51
674.87	8.55
675.279	8.58
675.688	8.61
676.097	8.65
676.506	8.68
676.915	8.72
677.323	8.77
677.732	8.81
678.141	8.86
678.549	8.92
678.958	9
679.366	9.05
679.775	9.13
680.183	9.22
680.592	9.31
681	9.4
681.408	9.51
681.816	9.62
682.224	9.75
682.632	9.91
683.04	10.05
683.448	10.22
683.856	10.43
684.264	10.65
684.671	10.9
685.079	11.16
685.487	11.46
685.894	11.77
686.302	12.12
686.709	12.46
687.116	12.84
687.524	13.25
687.931	13.68
688.338	14.13
688.745	14.59
689.152	15.09
689.559	15.59
689.966	16.14
690.373	16.72
690.78	17.3
691.187	17.92
691.593	18.54
692	19.18
692.407	19.81
692.813	20.44
693.22	21.11
693.626	21.78
694.032	22.44
694.439	23.12
694.845	23.77
695.251	24.43
695.657	25.08
696.063	25.74
696.469	26.39
696.875	27.03
697.281	27.67
697.687	28.32
698.093	28.92
698.498	29.54
698.904	30.14
699.31	30.73
699.715	31.31
700.12	31.87
700.526	32.44
700.931	32.98
701.337	33.52
701.742	34.03
702.147	34.57
702.552	35.1
702.957	35.59
703.362	36.08
703.767	36.55
704.172	37.03
704.577	37.51
704.981	37.97
705.386	38.43
705.791	38.87
706.195	39.3
706.6	39.7
707.004	40.1
707.408	40.5
707.813	40.89
708.217	41.27
708.621	41.62
709.025	41.98
709.43	42.31
709.834	42.69
710.237	43.03
710.641	43.38
711.045	43.7
711.449	44.02
711.853	44.36
712.256	44.7
712.66	45.04
713.064	45.35
713.467	45.62
713.87	45.94
714.274	46.25
714.677	46.55
715.08	46.8
715.484	47.1
715.887	47.39
716.29	47.64
716.693	47.88
717.096	48.11
717.499	48.36
717.901	48.63
718.304	48.86
718.707	49.05
719.109	49.27
719.512	49.54
719.915	49.76
720.317	49.98
720.719	50.2
721.122	50.42
721.524	50.63
721.926	50.85
722.328	51.05
722.731	51.27
723.133	51.45
723.535	51.66
723.937	51.83
724.338	51.99
724.74	52.15
725.142	52.2
725.544	52.36
725.945	52.49
726.347	52.66
726.748	52.77
727.15	52.87
727.551	53
727.952	53.12
728.354	53.27
728.755	53.39
729.156	53.51
729.557	53.74
729.958	53.85
730.359	53.97
730.76	54.07
731.161	54.17
731.562	54.27
731.962	54.37
732.363	54.41
732.763	54.47
733.164	54.52
733.564	54.56
733.965	54.61
734.365	54.64
734.766	54.7
735.166	54.72
735.566	54.76
735.966	54.78
736.366	54.81
736.766	54.86
737.166	54.89
737.566	54.93
737.966	55
738.365	55.02
738.765	55.07
739.165	55.05
739.564	55.09
739.964	55.12
740.363	55.16
740.763	55.17
741.162	55.21
741.561	55.25
741.96	55.27
742.36	55.31
742.759	55.35
743.158	55.38
743.557	55.44
743.955	55.48
744.354	55.53
744.753	55.62
745.152	55.66
745.55	55.67
745.949	55.71
746.348	55.76
746.746	55.76
747.144	55.8
747.543	55.85
747.941	55.91
748.339	55.96
748.737	56.02
749.136	56.02
749.534	56.07
749.932	56.12
750.33	56.13
750.727	56.17
751.125	56.22
751.523	56.22
751.921	56.22
752.318	56.21
752.716	56.17
753.113	56.16
753.511	56.12
753.908	56.09
754.305	56.03
754.703	56.02
755.1	55.97
755.497	55.93
755.894	55.93
756.291	55.88
756.688	55.84
757.085	55.81
757.482	55.79
757.878	55.8
758.275	55.78
758.672	55.81
759.068	55.79
759.465	55.78
759.861	55.74
760.258	55.69
760.654	55.71
761.05	55.71
761.447	55.69
761.843	55.65
762.239	55.61
762.635	55.61
763.031	55.6
763.427	55.58
763.822	55.54
764.218	55.54
764.614	55.54
765.01	55.5
765.405	55.48
765.801	55.47
766.196	55.47
766.592	55.49
766.987	55.48
767.382	55.45
767.778	55.47
768.173	55.48
768.568	55.43
768.963	55.39
769.358	55.38
769.753	55.38
770.148	55.4
770.542	55.36
770.937	55.36
771.332	55.35
771.726	55.34
772.121	55.3
772.515	55.28
772.91	55.31
773.304	55.32
773.699	55.34
774.093	55.29
774.487	55.29
774.881	55.29
775.275	55.29
775.669	55.31
776.063	55.29
776.457	55.28
776.851	55.26
777.245	55.26
777.638	55.27
778.032	55.25
778.425	55.25
778.819	55.25
779.212	55.24
779.606	55.22
779.999	55.19
780.392	55.21
780.786	55.23
781.179	55.29
781.572	55.31
781.965	55.31
782.358	55.31
782.751	55.36
783.143	55.36
783.536	55.41
783.929	55.44
784.322	55.45
784.714	55.45
785.107	55.46
785.499	55.45
785.891	55.47
786.284	55.46
786.676	55.49
787.068	55.46
787.46	55.44
787.852	55.47
788.245	55.43
788.636	55.44
789.028	55.44
789.42	55.45
789.812	55.44
790.204	55.4
790.595	55.42
790.987	55.43
791.378	55.47
791.77	55.5
792.161	55.49
792.553	55.52
792.944	55.55
793.335	55.59
793.726	55.54
794.117	55.52
794.508	55.53
794.899	55.53
795.29	55.54
795.681	55.53
796.072	55.54
796.463	55.48
796.853	55.47
797.244	55.45
797.634	55.42
798.025	55.47
798.415	55.52
798.806	55.53
799.196	55.56
799.586	55.57
799.976	55.57
800.366	55.58
800.756	55.66
801.146	55.66
801.536	55.69
801.926	55.69
802.316	55.72
802.706	55.71
803.095	55.74
803.485	55.73
803.874	55.73
804.264	55.74
804.653	55.7
805.043	55.68
805.432	55.65
805.821	55.65
806.21	55.69
806.599	55.7
806.988	55.7
807.377	55.72
807.766	55.72
808.155	55.72
808.544	55.75
808.933	55.79
809.321	55.82
809.71	55.89
810.098	55.9
810.487	55.89
810.875	55.88
811.264	55.9
811.652	55.91
812.04	55.92
812.428	55.93
812.816	55.97
813.204	55.97
813.592	55.97
813.98	56.01
814.368	56.05
814.756	56.1
815.144	56.1
815.531	56.1
815.919	56.12
816.306	56.14
816.694	56.16
817.081	56.15
817.469	56.17
817.856	56.23
818.243	56.23
818.63	56.24
819.017	56.25
819.404	56.28
819.791	56.28
820.178	56.31
820.565	56.34
820.952	56.36
821.339	56.4
821.725	56.43
822.112	56.42
822.498	56.42
822.885	56.4
823.271	56.4
823.657	56.41
824.044	56.43
824.43	56.44
824.816	56.43
825.202	56.43
825.588	56.41
825.974	56.37
826.36	56.38
826.746	56.39
827.132	56.38
827.517	56.41
827.903	56.4
828.289	56.4
828.674	56.34
829.06	56.36
829.445	56.35
829.83	56.34
830.216	56.34
830.601	56.33
830.986	56.32
831.371	56.35
831.756	56.33
832.141	56.33
832.526	56.33
832.911	56.37
833.295	56.37
833.68	56.34
834.065	56.37
834.449	56.34
834.834	56.3
835.218	56.29
835.603	56.27
835.987	56.25
836.371	56.27
836.755	56.27
837.139	56.24
837.524	56.24
837.908	56.23
838.291	56.18
838.675	56.21
839.059	56.21
839.443	56.19
839.827	56.17
840.21	56.19
840.594	56.14
840.977	56.12
841.361	56.11
841.744	56.11
842.127	56.12
842.511	56.11
842.894	56.07
843.277	56.1
843.66	56.1
844.043	56.1
844.426	56.07
844.809	56.09
845.191	56.1
845.574	56.12
845.957	56.08
846.339	56.05
846.722	56.08
847.104	56.09
847.487	56.08
847.869	56.09
848.252	56.1
848.634	56.13
849.016	56.14
849.398	56.12
849.78	56.1
850.162	56.09
850.544	56.12
850.926	56.11
851.307	56.13
851.689	56.13
852.071	56.11
852.452	56.12
852.834	56.08
853.215	56.05
853.597	56.07
853.978	56.05
854.359	56.06
854.741	56.05
855.122	56.05
855.503	56.07
855.884	56.06
856.265	56.07
856.646	56.06
857.026	56.09
857.407	56.07
857.788	56.06
858.169	56.08
858.549	56.09
858.93	56.11
859.31	56.1
859.69	56.09
860.071	56.07
860.451	56.06
860.831	56.05
861.211	56.03
861.591	56.05
861.971	56.06
862.351	56.06
862.731	56.06
863.111	56.07
863.491	56.09
863.87	56.07
864.25	56.09
864.629	56.09
865.009	56.09
865.388	56.08
865.768	56.08
866.147	56.08
866.526	56.09
866.905	56.09
867.284	56.08
867.663	56.05
868.042	56.04
868.421	56.02
868.8	55.99
869.179	55.98
869.558	55.98
869.936	55.98
870.315	55.98
870.693	55.96
871.072	55.91
871.45	55.9
871.828	55.9
872.207	55.93
872.585	55.93
872.963	55.95
873.341	55.96
873.719	55.97
874.097	55.98
874.475	55.95
874.853	55.96
875.23	55.97
875.608	56.02
875.986	56.02
876.363	56
876.741	56.03
877.118	56.02
877.495	56
877.873	56
878.25	55.98
878.627	55.99
879.004	55.98
879.381	56
879.758	55.94
880.135	55.93
880.512	55.96
880.889	55.94
881.265	55.96
881.642	55.97
882.019	55.97
882.395	55.98
882.772	55.99
883.148	55.97
883.524	55.97
883.901	55.97
884.277	55.95
884.653	55.94
885.029	55.94
885.405	55.91
885.781	55.88
886.157	55.87
886.532	55.84
886.908	55.86
887.284	55.87
887.659	55.88
888.035	55.89
888.411	55.88
888.786	55.86
889.161	55.85
889.537	55.85
889.912	55.85
890.287	55.84
890.662	55.84
891.037	55.78
891.412	55.73
891.787	55.7
892.162	55.68
892.536	55.67
892.911	55.62
893.286	55.57
893.66	55.56
894.035	55.54
894.409	55.52
894.784	55.5
895.158	55.48
895.532	55.48
895.906	55.46
896.281	55.43
896.655	55.37
897.029	55.38
897.402	55.39
897.776	55.34
898.15	55.33
898.524	55.31
898.898	55.29
899.271	55.3
899.645	55.29
900.018	55.25
900.392	55.26
900.765	55.28
901.138	55.3
901.511	55.29
901.884	55.31
902.258	55.31
902.631	55.3
903.003	55.31
903.376	55.29
903.749	55.28
904.122	55.31
904.495	55.29
904.867	55.25
905.24	55.2
905.612	55.19
905.985	55.13
906.357	55.09
906.729	55.09
907.102	55.06
907.474	55.05
907.846	55.02
908.218	55.01
908.59	54.97
908.962	55
909.334	54.99
909.705	54.98
910.077	54.99
910.449	55
910.82	54.94
911.192	54.94
911.563	54.93
911.935	54.92
912.306	54.91
912.677	54.91
913.048	54.87
913.419	54.86
913.79	54.84
914.161	54.84
914.532	54.82
914.903	54.87
915.274	54.87
915.645	54.86
916.015	54.88
916.386	54.86
916.756	54.85
917.127	54.9
917.497	54.92
917.868	54.91
918.238	54.95
918.608	54.95
918.978	54.88
919.348	54.86
919.718	54.87
920.088	54.85
920.458	54.87
920.828	54.9
921.198	54.87
921.567	54.85
921.937	54.84
922.306	54.78
922.676	54.79
923.045	54.77
923.415	54.74
923.784	54.72
924.153	54.7
924.522	54.68
924.891	54.63
925.26	54.6
925.629	54.59
925.998	54.6
926.367	54.59
926.736	54.54
927.104	54.58
927.473	54.63
927.842	54.59
928.21	54.57
928.578	54.53
928.947	54.53
929.315	54.51
929.683	54.49
930.051	54.45
930.42	54.43
930.788	54.38
931.156	54.28
931.523	54.18
931.891	54.14
932.259	54.06
932.627	53.95
932.994	53.82
933.362	53.69
933.729	53.56
934.097	53.44
934.464	53.32
934.831	53.22
935.199	53.17
935.566	53.04
935.933	52.94
936.3	52.82
936.667	52.75
937.034	52.72
937.401	52.71
937.767	52.63
938.134	52.6
938.501	52.54
938.867	52.6
939.234	52.6
939.6	52.66
939.967	52.7
940.333	52.83
940.699	53.02
941.065	53.14
941.431	53.2
941.798	53.33
942.163	53.43
942.529	53.56
942.895	53.62
943.261	53.68
943.627	53.75
943.992	53.82
944.358	53.87
944.723	53.82
945.089	53.82
945.454	53.83
945.82	53.88
946.185	53.97
946.55	54.12
946.915	54.17
947.28	54.12
947.645	54.12
948.01	53.99
948.375	54
948.74	53.96
949.104	54.02
949.469	54.01
949.834	54.02
950.198	53.95
950.562	53.82
950.927	53.72
951.291	53.64
951.655	53.6
952.02	53.63
952.384	53.59
952.748	53.61
953.112	53.51
953.476	53.56
953.839	53.5
954.203	53.37
954.567	53.34
954.931	53.34
955.294	53.33
955.658	53.3
956.021	53.3
956.385	53.26
956.748	53.2
957.111	53.19
957.474	53.1
957.837	53.1
958.2	53.08
958.563	53.01
958.926	52.94
959.289	52.96
959.652	52.91
960.015	52.86
960.377	52.78
960.74	52.7
961.102	52.69
961.465	52.69
961.827	52.49
962.189	52.47
962.552	52.45
962.914	52.45
963.276	52.42
963.638	52.34
964	52.3
964.362	52.31
964.724	52.29
965.085	52.23
965.447	52.15
965.809	52.23
966.17	52.24
966.532	52.19
966.893	52.16
967.255	52.11
967.616	52.15
967.977	52.13
968.338	52.09
968.699	52.08
969.061	52.06
969.421	52.06
969.782	52.1
970.143	52.06
970.504	52.02
970.865	51.99
971.225	51.97
971.586	51.99
971.946	52.04
972.307	52.05
972.667	52.06
973.027	52.05
973.388	52.01
973.748	51.96
974.108	51.92
974.468	52.01
974.828	51.94
975.188	51.95
975.548	51.94
975.907	51.85
976.267	51.85
976.627	51.82
976.986	51.85
977.346	51.88
977.705	51.89
978.064	51.98
978.424	51.97
978.783	52
979.142	52
979.501	51.89
979.86	51.87
980.219	51.8
980.578	51.76
980.937	51.67
981.296	51.61
981.654	51.54
982.013	51.44
982.371	51.33
982.73	51.3
983.088	51.24
983.447	51.26
983.805	51.3
984.163	51.36
984.521	51.31
984.879	51.35
985.237	51.4
985.595	51.44
985.953	51.48
986.311	51.57
986.669	51.63
987.026	51.64
987.384	51.69
987.741	51.76
988.099	51.71
988.456	51.81
988.814	51.77
989.171	51.73
989.528	51.65
989.885	51.55
990.242	51.39
990.599	51.36
990.956	51.37
991.313	51.37
991.67	51.3
992.027	51.29
992.383	51.27
992.74	51.22
993.096	51.26
993.453	51.37
993.809	51.5
994.165	51.6
994.522	51.41
994.878	51.41
995.234	51.26
995.59	51.11
995.946	51.06
996.302	50.94
996.658	50.95
997.013	50.84
997.369	50.81
997.725	50.87
998.08	50.82
998.436	51.05
998.791	51.03
999.147	51
999.502	50.88
999.857	50.91
1000.212	50.98
1000.567	50.92
1000.922	50.91
1001.277	50.81
1001.632	50.72
1001.987	50.63
1002.342	50.53
1002.696	50.64
1003.051	50.56
1003.406	50.7
1003.76	50.7
1004.114	50.66
1004.469	50.67
1004.823	50.7
1005.177	50.86
1005.531	50.78
1005.885	50.74
1006.239	50.69
1006.593	50.41
1006.947	50.47
1007.301	50.51
1007.655	50.46
1008.008	50.28
1008.362	50.29
1008.715	50.33
1009.069	50.17
1009.422	49.73
1009.776	49.77
1010.129	49.76
1010.482	49.84
1010.835	50.01
1011.188	49.73
1011.541	49.61
1011.894	49.72
1012.247	49.52
1012.6	49.29
1012.952	49.16
1013.305	49.39
1013.657	49.39
1014.01	49.48
1014.362	49.44
1014.715	49.23
1015.067	49.4
1015.419	49.48
1015.771	49.61
1016.123	49.55
1016.475	49.66
1016.827	50.04
1017.179	50.02
1017.531	49.91
1017.883	49.87
1018.234	49.8
1018.586	49.85
1018.938	49.67
1019.289	49.57
1019.64	49.62
1019.992	49.78
1020.343	49.65
1020.694	49.14
1021.045	49.32
1021.396	49.32
1021.747	49.24
1022.098	49.58
1022.449	49.42
1022.8	49.27
1023.151	49.26
1023.501	49.03
1023.852	49.12
1024.202	48.96
1024.553	49.16
1024.903	49.07
1025.253	49.03
1025.604	48.88
1025.954	48.67
1026.304	48.99
1026.654	49.42
1027.004	49.46
1027.354	49.57
1027.703	49.55
1028.053	49.69
1028.403	49.15
1028.753	49.5
1029.102	49.49
1029.452	49.59
1029.801	49.46
1030.15	49.31
1030.499	49.23
897.758	188.42
901.051	186.64
904.343	194.32
907.636	189.79
910.928	191.33
914.22	189.63
917.511	185.49
920.803	181.39
924.094	172.53
927.384	176.02
930.675	173.03
933.965	169.02
937.255	172.77
940.544	163.32
943.834	153.96
947.123	149.58
950.411	146.26
953.7	145.56
956.988	142.92
960.276	137.67
963.563	140.61
966.851	132.21
970.138	129.63
973.424	122.34
976.711	121.73
979.997	122.87
983.283	119.77
986.568	117.25
989.853	114.23
993.138	111.12
996.423	112.05
999.708	108.22
1002.992	109.61
1006.275	107.48
1009.559	106.45
1012.842	105.29
1016.125	101.36
1019.408	100.32
1022.69	100.9
1025.972	100.63
1029.254	99.81
1032.536	98.09
1035.817	94.01
1039.098	94.1
1042.379	93.21
1045.659	92.33
1048.939	91.26
1052.219	90.66
1055.498	90.51
1058.778	89.06
1062.057	87.58
1065.335	86.76
1068.614	86.06
1071.892	86.17
1075.17	85.05
1078.447	84.43
1081.724	84.55
1085.001	81.87
1088.278	84.26
1091.554	82.6
1094.83	82.91
1098.106	82.45
1101.382	81.88
1104.657	81.93
1107.932	82.48
1111.206	81.59
1114.481	81.17
1117.755	79.53
1121.029	80.78
1124.302	78.02
1127.575	78.52
1130.848	77.23
1134.121	76.38
1137.393	76.46
1140.665	75.71
1143.937	74.27
1147.208	73.26
1150.48	72.82
1153.75	72.99
1157.021	72.18
1160.291	72.43
1163.561	72.05
1166.831	71.71
1170.101	71.85
1173.37	71.12
1176.639	70.66
1179.907	70.49
1183.176	70.97
1186.444	70.52
1189.711	70.76
1192.979	71.47
1196.246	71.61
1199.513	71.48
1202.78	71.19
1206.046	71.17
1209.312	71.36
1212.578	71.8
1215.843	73.34
1219.108	72.54
1222.373	73.62
1225.638	74.1
1228.902	75.05
1232.166	75.6
1235.43	75.95
1238.693	78.05
1241.956	78.53
1245.219	80.23
1248.482	81.16
1251.744	80.48
1255.006	82.26
1258.268	79.99
1261.529	79.66
1264.79	79.18
1268.051	77.7
1271.312	77.98
1274.572	76.4
1277.832	76.1
1281.092	75.42
1284.351	74.15
1287.61	74.24
1290.869	73.66
1294.128	74.46
1297.386	73.46
1300.644	72.48
1303.902	72.59
1307.159	71.05
1310.416	71.99
1313.673	72.41
1316.93	72.22
1320.186	73.07
1323.442	72.79
1326.697	72.88
1329.953	73.34
1333.208	75.09
1336.463	76.28
1339.717	77.91
1342.972	80.38
1346.226	80.72
1349.479	80.01
1352.733	82.31
1355.986	82
1359.238	83.61
1362.491	83.93
1365.743	84.42
1368.995	87.25
1372.247	84.66
1375.498	82.92
1378.749	84.33
1382	83.49
1385.251	82.54
1388.501	82.33
1391.751	83.52
1395	81.94
1398.25	81.97
1401.499	81.79
1404.748	77.68
1407.996	76.84
1411.244	77.13
1414.492	76.08
1417.74	73.82
1420.987	72.88
1424.234	71.23
1427.481	66.91
1430.728	65.66
1433.974	64.19
1437.22	62.37
1440.465	60.07
1443.711	59.65
1446.956	58.76
1450.201	55.8
1453.445	53.77
1456.689	53.31
1459.933	52.13
1463.177	50.14
1466.42	49.89
1469.663	48.26
1472.906	46.76
1476.148	46
1479.391	45.48
1482.633	44.51
1485.874	44.84
1489.115	45.26
1492.356	44.9
1495.597	44.01
1498.838	45.26
1502.078	44.76
1505.318	45.31
1508.557	44.98
1511.797	45.83
1515.036	46.54
1518.274	46.54
1521.513	46.63
1524.751	45.95
1527.989	46.34
1531.227	46.87
1534.464	47.43
1537.701	47.42
1540.938	47.1
1544.174	47.62
1547.41	47.3
1550.646	47.38
1553.882	47.49
1557.117	47.55
1560.352	48.48
1563.587	48.31
1566.821	48.18
1570.055	48.03
1573.289	48.65
1576.523	48.68
1579.756	48.86
1582.989	49.83
1586.222	49.17
1589.454	49.68
1592.686	50.08
1595.918	49.43
1599.15	49.43
1602.381	49.49
1605.612	49.96
1608.843	49.47
1612.073	50.05
1615.303	50.42
1618.533	49.81
1621.762	50.01
1624.992	49.84
1628.221	49.62
1631.449	49.97
1634.678	50.84
1637.906	51.02
1641.134	50.67
1644.361	50.91
1647.588	50.8
1650.815	50.94
1654.042	50.69
1657.269	51.22
1660.495	51.56
1663.72	51.16
1666.946	51.51
1670.171	51.04
1673.396	51.45
1676.621	51.16
1679.845	51.99
1683.069	51.01
1686.293	50.99
1689.517	51.73
1692.74	51.66
1695.963	51.37
1699.185	51.86
1702.408	51.29
1705.63	51.44
1708.852	51.38
1712.073	51.74
1715.294	50.73
1718.515	52.27
1721.736	51.69
1724.956	51.63
1728.176	51.37
1731.396	51.27
1734.616	51.56
1737.835	51.88
1741.054	51.63
1744.272	51.15
1747.491	51.12
1750.709	51.34
1753.927	50.96
1757.144	51.4
1760.361	50.98
1763.578	51.02
1766.795	51.34
1770.011	50.95
1773.227	50.98
1776.443	51.18
1779.658	50.9
1782.874	51.52
1786.089	50.58
1789.303	50.4
1792.518	51.19
1795.732	51.53
1798.945	52.03
1802.159	52.04
1805.372	52.17
1808.585	52.83
1811.797	52.57
1815.01	53.6
1818.222	53.23
1821.434	54.61
1824.645	53.89
1827.856	53.25
1831.067	53.05
1834.278	53.64
1837.488	53.71
1840.698	53.99
1843.908	53.22
1847.117	53.89
1850.326	53.72
1853.535	53.94
1856.744	53.22
1859.952	54.3
1863.16	54
1866.368	52.88
1869.575	51.8
1872.782	50.75
1875.989	48.95
1879.196	48.52
1882.402	46.71
1885.608	46.71
1888.814	45
1892.019	44.02
1895.224	42.82
1898.429	42.28
1901.634	42.39
1904.838	41.97
1908.042	42.06
1911.246	42.23
1914.449	42.2
1917.652	42.16
1920.855	41.32
1924.058	40.41
1927.26	40.39
1930.462	41
1933.664	39.98
1936.865	40.35
1940.066	38.88
1943.267	38
1946.467	38.64
1949.668	37.96
1952.868	37.88
1956.067	37.78
1959.267	39.52
1962.466	39.46
1965.665	39
1968.863	40.84
1972.061	40.65
1975.259	42.68
1978.457	43.83
1981.654	44.04
1984.852	45.13
1988.048	45.83
1991.245	46.71
1994.441	47.84
1997.637	48.69
2000.833	50.59
2004.028	50.41
2007.223	50.99
2010.418	52.14
2013.613	53.5
2016.807	54.98
2020.001	56.05
2023.194	57.99
2026.388	59.13
2029.581	61.37
2032.774	63.3
2035.966	63.38
2039.158	65.2
2042.35	66.73
2045.542	68.09
2048.733	71.51
2051.924	70.33
2055.115	71.23
2058.306	71.67
2061.496	71.74
2064.686	72.87
2067.875	72.93
2071.065	75.11
2074.254	75.13
2077.442	77.35
2080.631	76.81
2083.819	76.47
2087.007	82.38
2090.195	82.78
2093.382	83.49
2096.569	85.51
2099.756	84.31
2102.942	86.36
2106.128	87.65
2109.314	89.73
2112.5	90.5
2115.685	88.16
2118.87	88.4
2122.055	86.23
2125.239	88.27
2128.424	91.27
2131.608	89.12
2134.791	88.85
2137.974	88.24
2141.157	92.37
2144.34	90.9
2147.523	93.28
2150.705	97.54
2153.887	98.22
2157.068	98.99
2160.25	100.19
2163.431	98.83
2166.611	100.24
2169.792	104.67
2172.972	108.16
2176.152	103.66
2179.331	105.89
2182.511	104.86
2185.69	106.61
2188.868	108.12
2192.047	111.24
2195.225	113.98
2198.403	110.6
2201.58	110.66
2204.758	112.34
2207.935	109.03
2211.111	112.2
2214.288	114.41
2217.464	118.19
2220.64	117.78
2223.815	115.87
2226.991	115.26
2230.166	116.85
2233.34	123.29
2236.515	126.08
2239.689	123.59
2242.863	126.65
2246.036	124.58
2249.209	124.11
2252.382	120.41
2255.555	125.55
2258.727	129.49
2261.9	131.35
2265.071	129.71
2268.243	130.49
2271.414	134.44
2274.585	137.63
2277.756	137.82
2280.926	144.46
2284.096	143.24
2287.266	146.56
2290.436	146.29
2293.605	148.59
2296.774	154.75
2299.942	155.23
2303.111	159.54
2306.279	164.28
2309.447	164.97
2312.614	166.47
2315.781	163.57
2318.948	172.78
2322.115	175.61
2325.281	179.08
2328.447	172.8
2331.613	175.18
2334.779	179.85
2337.944	176.05
2341.109	176.27
2344.274	178.94
2347.438	178.99
2350.602	189.96
2353.766	199.61
2356.929	197.54
2360.092	203.13
2363.255	209.43
2366.418	210.52
2369.58	212.64
2372.742	214.82
2375.904	214.95
2379.066	221.33
2382.227	228.84
2385.388	223.87
2388.548	208.12
2391.709	212.34
2394.869	215.44
2398.029	219.73
2401.188	213.83
2404.347	217.94
2407.506	228.95
2410.665	220.02
2413.823	223.37
2416.981	233.2
2420.139	222.98
2423.296	241.62
2426.453	252.25
2429.61	241.47
2432.767	252.22
2435.923	265.6
2439.079	261.38
2442.235	262.65
2445.391	276.85
2448.546	264.72
2451.701	277
2454.855	295.78
2458.009	272.91
2461.163	276.17
2464.317	279.7
2467.471	279.71
2470.624	284.81
2473.777	274.51
2476.929	271.44
2480.082	278.88
2483.234	299.81
2486.385	299.53
2489.537	307.27
2492.688	321.67
2495.839	311.19
2498.989	321.24
2502.14	316.96
2505.29	310.71
2508.439	335.64
2511.589	341.45
2514.738	338.43
2517.887	331.66
2521.035	318.66
2524.183	315.28
2527.331	317
2530.479	318.23
2533.627	319.92
