Data from C_2_div_il_4n_082_Splice17_04.txt Node
Date: Sat Feb 29 14:18:13 EST 2020
User: sa697716
Spectrometer: FLMS03696
Trigger mode: 0
Integration Time (sec): 3.180400E-1
Scans to average: 20
Electric dark correction enabled: true
Nonlinearity correction enabled: true
Boxcar width: 5
XAxis mode: Wavelengths
Number of Pixels in Spectrum: 2048
>>>>>Begin Spectral Data<<<<<
187.83	14.3
188.298	-0.91
188.766	13.91
189.233	6.85
189.701	24.26
190.169	18.06
190.636	15.44
191.104	8.83
191.571	-26.7
192.039	262.52
192.506	-95.68
192.974	1006.04
193.441	-97.71
193.908	93.3
194.375	86.69
194.842	147.91
195.31	52.87
195.777	7.11
196.244	31.65
196.711	34.18
197.177	34.68
197.644	34.03
198.111	33.8
198.578	32.95
199.045	32.75
199.511	32.92
199.978	34.41
200.445	33.82
200.911	34.54
201.378	34.62
201.844	35.03
202.31	35.15
202.777	35.29
203.243	35.87
203.709	36.3
204.176	36.35
204.642	36.46
205.108	35.56
205.574	36.19
206.04	36.15
206.506	35.75
206.972	35.41
207.438	35.07
207.903	35.11
208.369	34.15
208.835	33.98
209.301	33.53
209.766	33.02
210.232	32.76
210.697	32.08
211.163	31.63
211.628	31.2
212.094	30.57
212.559	29.73
213.024	28.66
213.49	28.22
213.955	27.57
214.42	26.95
214.885	26.13
215.35	25.01
215.815	23.66
216.28	22.14
216.745	20.89
217.21	19.54
217.675	18.31
218.14	16.99
218.604	15.8
219.069	14.72
219.534	13.86
219.998	13.14
220.463	12.57
220.927	12.1
221.392	11.61
221.856	11.1
222.32	10.72
222.785	10.39
223.249	10.16
223.713	9.96
224.177	9.71
224.642	9.52
225.106	9.32
225.57	9.14
226.034	8.94
226.497	8.81
226.961	8.68
227.425	8.52
227.889	8.39
228.353	8.24
228.816	8.09
229.28	7.96
229.744	7.84
230.207	7.74
230.671	7.6
231.134	7.51
231.597	7.37
232.061	7.27
232.524	7.2
232.987	7.12
233.45	7.03
233.914	6.94
234.377	6.88
234.84	6.79
235.303	6.7
235.766	6.64
236.229	6.57
236.691	6.54
237.154	6.46
237.617	6.38
238.08	6.31
238.542	6.26
239.005	6.19
239.468	6.1
239.93	6.06
240.393	5.99
240.855	5.93
241.317	5.87
241.78	5.82
242.242	5.78
242.704	5.73
243.166	5.68
243.629	5.63
244.091	5.6
244.553	5.57
245.015	5.52
245.477	5.48
245.939	5.44
246.4	5.4
246.862	5.37
247.324	5.33
247.786	5.29
248.247	5.25
248.709	5.22
249.17	5.17
249.632	5.12
250.093	5.08
250.555	5.06
251.016	5.03
251.477	4.99
251.939	4.95
252.4	4.91
252.861	4.88
253.322	4.86
253.783	4.84
254.244	4.81
254.705	4.79
255.166	4.77
255.627	4.75
256.088	4.72
256.549	4.71
257.009	4.69
257.47	4.67
257.931	4.64
258.391	4.61
258.852	4.57
259.312	4.55
259.773	4.52
260.233	4.49
260.694	4.47
261.154	4.44
261.614	4.41
262.074	4.39
262.534	4.35
262.994	4.33
263.455	4.31
263.915	4.29
264.374	4.27
264.834	4.25
265.294	4.23
265.754	4.2
266.214	4.19
266.673	4.17
267.133	4.15
267.593	4.15
268.052	4.12
268.512	4.11
268.971	4.09
269.431	4.08
269.89	4.06
270.349	4.05
270.809	4.05
271.268	4.04
271.727	4.02
272.186	4.01
272.645	3.99
273.104	3.99
273.563	3.98
274.022	3.98
274.481	3.97
274.94	3.96
275.399	3.95
275.857	3.93
276.316	3.92
276.775	3.91
277.233	3.9
277.692	3.89
278.15	3.87
278.609	3.86
279.067	3.85
279.525	3.83
279.984	3.83
280.442	3.82
280.9	3.81
281.358	3.8
281.816	3.8
282.274	3.78
282.732	3.77
283.19	3.77
283.648	3.77
284.106	3.76
284.564	3.76
285.021	3.75
285.479	3.75
285.937	3.75
286.394	3.74
286.852	3.74
287.309	3.73
287.767	3.72
288.224	3.71
288.682	3.7
289.139	3.7
289.596	3.68
290.053	3.67
290.511	3.65
290.968	3.63
291.425	3.61
291.882	3.6
292.339	3.59
292.796	3.58
293.252	3.56
293.709	3.55
294.166	3.54
294.623	3.53
295.079	3.52
295.536	3.51
295.992	3.5
296.449	3.5
296.905	3.49
297.362	3.48
297.818	3.48
298.274	3.47
298.731	3.46
299.187	3.46
299.643	3.45
300.099	3.45
300.555	3.43
301.011	3.43
301.467	3.41
301.923	3.41
302.379	3.4
302.835	3.39
303.291	3.39
303.746	3.38
304.202	3.37
304.658	3.36
305.113	3.35
305.569	3.36
306.024	3.35
306.479	3.35
306.935	3.35
307.39	3.34
307.845	3.34
308.301	3.33
308.756	3.34
309.211	3.35
309.666	3.35
310.121	3.35
310.576	3.34
311.031	3.34
311.486	3.34
311.94	3.34
312.395	3.34
312.85	3.33
313.305	3.33
313.759	3.32
314.214	3.31
314.668	3.32
315.123	3.32
315.577	3.32
316.032	3.32
316.486	3.32
316.94	3.31
317.394	3.31
317.849	3.3
318.303	3.3
318.757	3.3
319.211	3.29
319.665	3.28
320.119	3.27
320.572	3.27
321.026	3.26
321.48	3.25
321.934	3.25
322.387	3.24
322.841	3.24
323.295	3.23
323.748	3.23
324.202	3.23
324.655	3.23
325.108	3.21
325.562	3.2
326.015	3.19
326.468	3.18
326.921	3.17
327.374	3.16
327.827	3.16
328.28	3.16
328.733	3.15
329.186	3.15
329.639	3.15
330.092	3.16
330.545	3.16
330.997	3.17
331.45	3.18
331.903	3.17
332.355	3.18
332.808	3.17
333.26	3.17
333.713	3.18
334.165	3.17
334.617	3.18
335.069	3.17
335.522	3.18
335.974	3.18
336.426	3.18
336.878	3.17
337.33	3.18
337.782	3.19
338.234	3.19
338.686	3.18
339.137	3.18
339.589	3.17
340.041	3.17
340.493	3.17
340.944	3.15
341.396	3.16
341.847	3.16
342.299	3.15
342.75	3.13
343.201	3.12
343.653	3.11
344.104	3.09
344.555	3.07
345.006	3.06
345.457	3.06
345.908	3.06
346.359	3.05
346.81	3.05
347.261	3.04
347.712	3.04
348.163	3.03
348.613	3.03
349.064	3.02
349.515	3.03
349.965	3.02
350.416	3.01
350.866	3
351.317	2.99
351.767	2.98
352.217	2.97
352.668	2.98
353.118	2.99
353.568	3
354.018	3.01
354.468	3.01
354.918	3.02
355.368	3.04
355.818	3.04
356.268	3.05
356.718	3.05
357.168	3.05
357.617	3.05
358.067	3.03
358.517	3.03
358.966	3.03
359.416	3.03
359.865	3.03
360.315	3.01
360.764	3.01
361.213	3.01
361.663	3.01
362.112	3.03
362.561	3.03
363.01	3.05
363.459	3.04
363.908	3.04
364.357	3.04
364.806	3.04
365.255	3.06
365.703	3.06
366.152	3.07
366.601	3.08
367.05	3.08
367.498	3.08
367.947	3.08
368.395	3.1
368.844	3.12
369.292	3.13
369.74	3.14
370.189	3.15
370.637	3.16
371.085	3.18
371.533	3.18
371.981	3.2
372.429	3.22
372.877	3.23
373.325	3.25
373.773	3.26
374.221	3.27
374.669	3.29
375.116	3.3
375.564	3.31
376.012	3.32
376.459	3.36
376.907	3.37
377.354	3.4
377.801	3.42
378.249	3.44
378.696	3.48
379.143	3.5
379.591	3.53
380.038	3.57
380.485	3.61
380.932	3.64
381.379	3.65
381.826	3.69
382.273	3.73
382.72	3.77
383.166	3.8
383.613	3.83
384.06	3.87
384.506	3.9
384.953	3.94
385.4	3.97
385.846	4.01
386.292	4.07
386.739	4.1
387.185	4.16
387.631	4.21
388.078	4.26
388.524	4.29
388.97	4.34
389.416	4.37
389.862	4.43
390.308	4.49
390.754	4.54
391.2	4.6
391.645	4.67
392.091	4.71
392.537	4.77
392.983	4.84
393.428	4.92
393.874	5.02
394.319	5.13
394.765	5.22
395.21	5.31
395.655	5.42
396.101	5.52
396.546	5.63
396.991	5.76
397.436	5.86
397.881	6
398.326	6.15
398.771	6.27
399.216	6.39
399.661	6.53
400.106	6.67
400.551	6.77
400.995	6.87
401.44	6.96
401.885	7.03
402.329	7.14
402.774	7.23
403.218	7.32
403.663	7.42
404.107	7.55
404.551	7.67
404.995	7.75
405.44	7.85
405.884	7.97
406.328	8.09
406.772	8.24
407.216	8.39
407.66	8.54
408.104	8.65
408.547	8.78
408.991	8.86
409.435	8.96
409.879	9.08
410.322	9.22
410.766	9.37
411.209	9.52
411.653	9.64
412.096	9.74
412.54	9.84
412.983	9.94
413.426	10.06
413.869	10.2
414.312	10.34
414.756	10.47
415.199	10.59
415.642	10.7
416.085	10.8
416.527	10.89
416.97	10.95
417.413	10.98
417.856	11
418.298	11
418.741	11.01
419.184	11.05
419.626	11.09
420.069	11.12
420.511	11.15
420.953	11.16
421.396	11.21
421.838	11.29
422.28	11.4
422.722	11.52
423.164	11.62
423.606	11.71
424.048	11.75
424.49	11.78
424.932	11.76
425.374	11.67
425.816	11.54
426.258	11.4
426.699	11.28
427.141	11.25
427.582	11.31
428.024	11.4
428.465	11.52
428.907	11.64
429.348	11.75
429.789	11.87
430.231	12.09
430.672	12.4
431.113	12.76
431.554	13.1
431.995	13.38
432.436	13.56
432.877	13.69
433.318	13.78
433.759	13.89
434.2	14.05
434.64	14.26
435.081	14.47
435.522	14.64
435.962	14.8
436.403	14.95
436.843	15.07
437.284	15.2
437.724	15.34
438.164	15.53
438.604	15.75
439.045	15.93
439.485	16.08
439.925	16.21
440.365	16.33
440.805	16.4
441.245	16.44
441.685	16.54
442.125	16.65
442.564	16.81
443.004	16.93
443.444	17.07
443.883	17.25
444.323	17.42
444.762	17.62
445.202	17.84
445.641	18.1
446.081	18.39
446.52	18.64
446.959	18.89
447.398	19.09
447.837	19.24
448.276	19.32
448.716	19.4
449.154	19.5
449.593	19.57
450.032	19.61
450.471	19.6
450.91	19.58
451.349	19.56
451.787	19.56
452.226	19.55
452.664	19.57
453.103	19.59
453.541	19.59
453.98	19.58
454.418	19.54
454.856	19.45
455.295	19.41
455.733	19.36
456.171	19.33
456.609	19.29
457.047	19.28
457.485	19.26
457.923	19.28
458.361	19.29
458.798	19.32
459.236	19.38
459.674	19.44
460.111	19.51
460.549	19.56
460.987	19.62
461.424	19.69
461.862	19.72
462.299	19.77
462.736	19.84
463.173	19.96
463.611	20.06
464.048	20.19
464.485	20.35
464.922	20.51
465.359	20.67
465.796	20.8
466.233	20.95
466.67	21.13
467.106	21.37
467.543	21.6
467.98	21.81
468.416	22.02
468.853	22.19
469.29	22.4
469.726	22.57
470.162	22.77
470.599	23
471.035	23.18
471.471	23.3
471.907	23.39
472.344	23.45
472.78	23.51
473.216	23.59
473.652	23.64
474.088	23.68
474.523	23.73
474.959	23.75
475.395	23.76
475.831	23.79
476.266	23.82
476.702	23.84
477.138	23.85
477.573	23.83
478.008	23.8
478.444	23.74
478.879	23.67
479.314	23.58
479.75	23.48
480.185	23.33
480.62	23.16
481.055	22.88
481.49	22.52
481.925	22.13
482.36	21.78
482.795	21.49
483.229	21.28
483.664	21.11
484.099	20.97
484.534	20.84
484.968	20.78
485.403	20.76
485.837	20.84
486.271	21.01
486.706	21.17
487.14	21.29
487.574	21.36
488.009	21.4
488.443	21.43
488.877	21.46
489.311	21.5
489.745	21.56
490.179	21.62
490.613	21.69
491.046	21.76
491.48	21.87
491.914	22
492.348	22.17
492.781	22.32
493.215	22.46
493.648	22.59
494.082	22.72
494.515	22.81
494.948	22.91
495.382	23.02
495.815	23.1
496.248	23.17
496.681	23.22
497.114	23.29
497.547	23.37
497.98	23.49
498.413	23.65
498.846	23.82
499.279	24.01
499.711	24.18
500.144	24.36
500.577	24.6
501.009	24.91
501.442	25.28
501.874	25.66
502.306	26.01
502.739	26.31
503.171	26.6
503.603	26.93
504.036	27.25
504.468	27.63
504.9	28.01
505.332	28.37
505.764	28.7
506.196	29.02
506.627	29.37
507.059	29.76
507.491	30.17
507.923	30.6
508.354	30.99
508.786	31.37
509.217	31.71
509.649	32.05
510.08	32.41
510.512	32.79
510.943	33.17
511.374	33.54
511.805	33.83
512.237	34.05
512.668	34.2
513.099	34.43
513.53	34.69
513.961	34.98
514.391	35.31
514.822	35.68
515.253	36.09
515.684	36.5
516.114	36.93
516.545	37.45
516.975	38.1
517.406	38.8
517.836	39.43
518.267	40.06
518.697	40.67
519.127	41.27
519.558	41.84
519.988	42.39
520.418	42.93
520.848	43.42
521.278	43.88
521.708	44.17
522.138	44.4
522.567	44.67
522.997	44.93
523.427	45.25
523.857	45.54
524.286	45.89
524.716	46.21
525.145	46.5
525.575	46.82
526.004	47.15
526.433	47.6
526.863	48.12
527.292	48.58
527.721	48.96
528.15	49.21
528.579	49.44
529.008	49.58
529.437	49.71
529.866	49.83
530.295	49.95
530.724	50.12
531.152	50.26
531.581	50.38
532.01	50.47
532.438	50.58
532.867	50.72
533.295	50.88
533.723	51.05
534.152	51.18
534.58	51.26
535.008	51.29
535.436	51.23
535.865	51.15
536.293	51.05
536.721	51.04
537.149	51.07
537.576	51.11
538.004	51.15
538.432	51.15
538.86	51.19
539.287	51.3
539.715	51.44
540.143	51.62
540.57	51.79
540.998	52.02
541.425	52.22
541.852	52.39
542.28	52.55
542.707	52.68
543.134	52.83
543.561	52.93
543.988	53.02
544.415	53.14
544.842	53.26
545.269	53.4
545.696	53.49
546.123	53.6
546.549	53.68
546.976	53.79
547.403	53.9
547.829	54.03
548.256	54.16
548.682	54.23
549.108	54.32
549.535	54.38
549.961	54.45
550.387	54.52
550.813	54.58
551.24	54.65
551.666	54.7
552.092	54.71
552.518	54.67
552.943	54.64
553.369	54.6
553.795	54.51
554.221	54.39
554.646	54.21
555.072	54.04
555.498	53.85
555.923	53.68
556.349	53.49
556.774	53.36
557.199	53.23
557.625	53.09
558.05	52.96
558.475	52.84
558.9	52.75
559.325	52.66
559.75	52.52
560.175	52.39
560.6	52.2
561.025	52.02
561.449	51.75
561.874	51.5
562.299	51.27
562.723	51.05
563.148	50.81
563.572	50.57
563.997	50.29
564.421	50.01
564.846	49.71
565.27	49.47
565.694	49.15
566.118	48.87
566.542	48.59
566.966	48.27
567.39	47.96
567.814	47.69
568.238	47.42
568.662	47.23
569.086	47.06
569.509	46.87
569.933	46.65
570.357	46.46
570.78	46.26
571.204	46.07
571.627	45.89
572.05	45.71
572.474	45.51
572.897	45.31
573.32	45.07
573.743	44.81
574.166	44.56
574.589	44.35
575.012	44.19
575.435	44.05
575.858	43.96
576.281	43.84
576.704	43.73
577.126	43.6
577.549	43.5
577.972	43.46
578.394	43.42
578.817	43.4
579.239	43.39
579.661	43.36
580.084	43.3
580.506	43.2
580.928	43.1
581.35	42.99
581.772	42.9
582.194	42.78
582.616	42.65
583.038	42.53
583.46	42.39
583.882	42.18
584.303	41.93
584.725	41.62
585.147	41.3
585.568	41.05
585.99	40.84
586.411	40.66
586.833	40.49
587.254	40.33
587.675	40.17
588.096	40.02
588.518	39.93
588.939	39.9
589.36	39.96
589.781	40.04
590.202	40.05
590.623	40.02
591.043	39.95
591.464	39.89
591.885	39.81
592.305	39.75
592.726	39.67
593.147	39.61
593.567	39.5
593.987	39.38
594.408	39.24
594.828	39.12
595.248	39
595.669	38.89
596.089	38.75
596.509	38.59
596.929	38.43
597.349	38.24
597.769	38.06
598.189	37.91
598.608	37.77
599.028	37.66
599.448	37.54
599.867	37.47
600.287	37.37
600.706	37.27
601.126	37.17
601.545	37.07
601.965	36.99
602.384	36.91
602.803	36.8
603.222	36.67
603.641	36.53
604.061	36.38
604.48	36.16
604.898	35.98
605.317	35.8
605.736	35.61
606.155	35.4
606.574	35.22
606.992	35.02
607.411	34.82
607.829	34.6
608.248	34.41
608.666	34.22
609.085	34.04
609.503	33.85
609.921	33.67
610.339	33.51
610.758	33.36
611.176	33.16
611.594	32.97
612.012	32.78
612.43	32.62
612.847	32.43
613.265	32.28
613.683	32.14
614.101	32.01
614.518	31.88
614.936	31.74
615.353	31.6
615.771	31.51
616.188	31.44
616.606	31.36
617.023	31.29
617.44	31.19
617.857	31.08
618.274	30.96
618.691	30.84
619.108	30.72
619.525	30.6
619.942	30.46
620.359	30.34
620.776	30.17
621.192	30.01
621.609	29.87
622.026	29.76
622.442	29.68
622.859	29.58
623.275	29.5
623.691	29.39
624.108	29.28
624.524	29.22
624.94	29.15
625.356	29.08
625.772	29.02
626.188	28.96
626.604	28.89
627.02	28.8
627.436	28.73
627.852	28.66
628.268	28.63
628.683	28.6
629.099	28.56
629.514	28.5
629.93	28.47
630.345	28.45
630.761	28.42
631.176	28.39
631.591	28.34
632.007	28.27
632.422	28.21
632.837	28.14
633.252	28.06
633.667	27.97
634.082	27.9
634.497	27.79
634.911	27.67
635.326	27.54
635.741	27.38
636.155	27.23
636.57	27.08
636.984	26.91
637.399	26.7
637.813	26.51
638.228	26.32
638.642	26.12
639.056	25.91
639.47	25.71
639.884	25.48
640.298	25.29
640.712	25.09
641.126	24.87
641.54	24.67
641.954	24.49
642.368	24.28
642.781	24.05
643.195	23.81
643.609	23.6
644.022	23.4
644.436	23.2
644.849	22.98
645.262	22.78
645.676	22.57
646.089	22.4
646.502	22.23
646.915	22.09
647.328	21.95
647.741	21.83
648.154	21.71
648.567	21.6
648.98	21.51
649.393	21.44
649.805	21.37
650.218	21.3
650.631	21.19
651.043	21.05
651.456	20.85
651.868	20.63
652.28	20.38
652.693	20.17
653.105	19.97
653.517	19.81
653.929	19.67
654.341	19.54
654.753	19.42
655.165	19.32
655.577	19.24
655.989	19.2
656.401	19.22
656.813	19.23
657.224	19.21
657.636	19.18
658.047	19.11
658.459	18.99
658.87	18.86
659.282	18.72
659.693	18.58
660.104	18.42
660.515	18.27
660.926	18.12
661.338	17.97
661.749	17.81
662.159	17.64
662.57	17.49
662.981	17.34
663.392	17.19
663.803	17.04
664.213	16.89
664.624	16.78
665.035	16.65
665.445	16.52
665.855	16.39
666.266	16.29
666.676	16.16
667.086	16.04
667.497	15.92
667.907	15.82
668.317	15.71
668.727	15.63
669.137	15.55
669.547	15.47
669.956	15.38
670.366	15.34
670.776	15.26
671.186	15.22
671.595	15.17
672.005	15.14
672.414	15.1
672.824	15.09
673.233	15.07
673.642	15.01
674.052	14.99
674.461	14.98
674.87	14.97
675.279	14.99
675.688	14.99
676.097	14.99
676.506	14.99
676.915	15.01
677.323	15.05
677.732	15.11
678.141	15.18
678.549	15.25
678.958	15.34
679.366	15.4
679.775	15.48
680.183	15.57
680.592	15.71
681	15.85
681.408	16.01
681.816	16.13
682.224	16.23
682.632	16.3
683.04	16.34
683.448	16.43
683.856	16.56
684.264	16.72
684.671	16.92
685.079	17.13
685.487	17.4
685.894	17.7
686.302	18.06
686.709	18.5
687.116	19.03
687.524	19.64
687.931	20.29
688.338	20.94
688.745	21.6
689.152	22.29
689.559	22.97
689.966	23.66
690.373	24.35
690.78	25.05
691.187	25.75
691.593	26.42
692	27.11
692.407	27.77
692.813	28.43
693.22	29.11
693.626	29.75
694.032	30.39
694.439	31.02
694.845	31.61
695.251	32.21
695.657	32.78
696.063	33.38
696.469	33.92
696.875	34.41
697.281	34.88
697.687	35.35
698.093	35.81
698.498	36.3
698.904	36.77
699.31	37.23
699.715	37.7
700.12	38.15
700.526	38.59
700.931	39.03
701.337	39.51
701.742	39.93
702.147	40.36
702.552	40.78
702.957	41.15
703.362	41.53
703.767	41.91
704.172	42.27
704.577	42.6
704.981	42.93
705.386	43.24
705.791	43.57
706.195	43.93
706.6	44.23
707.004	44.52
707.408	44.85
707.813	45.12
708.217	45.38
708.621	45.63
709.025	45.89
709.43	46.15
709.834	46.41
710.237	46.61
710.641	46.84
711.045	47.06
711.449	47.28
711.853	47.45
712.256	47.62
712.66	47.76
713.064	47.9
713.467	47.96
713.87	47.99
714.274	48.02
714.677	48
715.08	47.95
715.484	47.93
715.887	47.94
716.29	47.97
716.693	48.01
717.096	48.14
717.499	48.31
717.901	48.52
718.304	48.79
718.707	49.04
719.109	49.32
719.512	49.57
719.915	49.8
720.317	50
720.719	50.15
721.122	50.33
721.524	50.45
721.926	50.53
722.328	50.61
722.731	50.63
723.133	50.67
723.535	50.78
723.937	50.87
724.338	50.93
724.74	51
725.142	51.02
725.544	51.09
725.945	51.16
726.347	51.24
726.748	51.29
727.15	51.39
727.551	51.5
727.952	51.56
728.354	51.7
728.755	51.83
729.156	51.99
729.557	52.22
729.958	52.36
730.359	52.49
730.76	52.62
731.161	52.75
731.562	52.86
731.962	52.93
732.363	53
732.763	53.02
733.164	53.08
733.564	53.09
733.965	53.06
734.365	53.01
734.766	53
735.166	52.97
735.566	52.92
735.966	52.9
736.366	52.88
736.766	52.83
737.166	52.86
737.566	52.81
737.966	52.81
738.365	52.82
738.765	52.87
739.165	52.87
739.564	52.86
739.964	52.9
740.363	52.9
740.763	52.92
741.162	52.95
741.561	52.95
741.96	53
742.36	53.03
742.759	53.03
743.158	53.02
743.557	53.02
743.955	53.04
744.354	53.06
744.753	53.07
745.152	53.05
745.55	53.04
745.949	53
746.348	52.96
746.746	52.93
747.144	52.92
747.543	52.91
747.941	52.95
748.339	52.94
748.737	52.92
749.136	52.92
749.534	52.95
749.932	52.96
750.33	52.98
750.727	52.99
751.125	52.97
751.523	52.92
751.921	52.92
752.318	52.86
752.716	52.81
753.113	52.77
753.511	52.69
753.908	52.61
754.305	52.5
754.703	52.32
755.1	52
755.497	51.5
755.894	50.85
756.291	50.01
756.688	49.19
757.085	48.41
757.482	47.68
757.878	47.03
758.275	46.36
758.672	45.73
759.068	45.14
759.465	44.7
759.861	44.5
760.258	44.52
760.654	44.74
761.05	45.05
761.447	45.33
761.843	45.58
762.239	45.89
762.635	46.21
763.031	46.65
763.427	47.12
763.822	47.61
764.218	48.11
764.614	48.56
765.01	48.96
765.405	49.3
765.801	49.65
766.196	49.94
766.592	50.17
766.987	50.4
767.382	50.5
767.778	50.62
768.173	50.71
768.568	50.73
768.963	50.76
769.358	50.8
769.753	50.85
770.148	50.85
770.542	50.85
770.937	50.83
771.332	50.79
771.726	50.77
772.121	50.72
772.515	50.66
772.91	50.64
773.304	50.62
773.699	50.58
774.093	50.49
774.487	50.46
774.881	50.46
775.275	50.45
775.669	50.44
776.063	50.41
776.457	50.36
776.851	50.34
777.245	50.31
777.638	50.3
778.032	50.28
778.425	50.28
778.819	50.25
779.212	50.18
779.606	50.13
779.999	50.1
780.392	50.09
780.786	50.09
781.179	50.07
781.572	50.02
781.965	49.96
782.358	49.91
782.751	49.87
783.143	49.83
783.536	49.84
783.929	49.82
784.322	49.79
784.714	49.76
785.107	49.7
785.499	49.64
785.891	49.6
786.284	49.54
786.676	49.48
787.068	49.43
787.46	49.39
787.852	49.31
788.245	49.22
788.636	49.14
789.028	49.03
789.42	48.98
789.812	48.92
790.204	48.84
790.595	48.8
790.987	48.76
791.378	48.71
791.77	48.65
792.161	48.61
792.553	48.56
792.944	48.52
793.335	48.54
793.726	48.45
794.117	48.41
794.508	48.38
794.899	48.32
795.29	48.28
795.681	48.25
796.072	48.2
796.463	48.12
796.853	48.07
797.244	48
797.634	47.9
798.025	47.89
798.415	47.83
798.806	47.78
799.196	47.75
799.586	47.69
799.976	47.6
800.366	47.55
800.756	47.53
801.146	47.49
801.536	47.45
801.926	47.41
802.316	47.36
802.706	47.32
803.095	47.28
803.485	47.24
803.874	47.2
804.264	47.18
804.653	47.1
805.043	47.07
805.432	46.98
805.821	46.94
806.21	46.9
806.599	46.85
806.988	46.81
807.377	46.75
807.766	46.67
808.155	46.61
808.544	46.52
808.933	46.42
809.321	46.34
809.71	46.3
810.098	46.23
810.487	46.11
810.875	45.99
811.264	45.87
811.652	45.74
812.04	45.61
812.428	45.5
812.816	45.42
813.204	45.34
813.592	45.24
813.98	45.13
814.368	45.01
814.756	44.95
815.144	44.93
815.531	44.89
815.919	44.85
816.306	44.81
816.694	44.79
817.081	44.75
817.469	44.73
817.856	44.7
818.243	44.66
818.63	44.65
819.017	44.61
819.404	44.51
819.791	44.48
820.178	44.42
820.565	44.41
820.952	44.35
821.339	44.32
821.725	44.3
822.112	44.3
822.498	44.3
822.885	44.27
823.271	44.27
823.657	44.29
824.044	44.25
824.43	44.24
824.816	44.19
825.202	44.17
825.588	44.12
825.974	44.08
826.36	44.01
826.746	43.98
827.132	43.91
827.517	43.84
827.903	43.77
828.289	43.74
828.674	43.69
829.06	43.66
829.445	43.63
829.83	43.58
830.216	43.55
830.601	43.53
830.986	43.48
831.371	43.47
831.756	43.45
832.141	43.41
832.526	43.39
832.911	43.4
833.295	43.39
833.68	43.36
834.065	43.36
834.449	43.32
834.834	43.29
835.218	43.27
835.603	43.25
835.987	43.23
836.371	43.24
836.755	43.22
837.139	43.18
837.524	43.14
837.908	43.1
838.291	43.06
838.675	43.06
839.059	43.02
839.443	42.99
839.827	42.95
840.21	42.96
840.594	42.93
840.977	42.88
841.361	42.86
841.744	42.85
842.127	42.84
842.511	42.81
842.894	42.77
843.277	42.77
843.66	42.75
844.043	42.72
844.426	42.7
844.809	42.66
845.191	42.65
845.574	42.58
845.957	42.51
846.339	42.48
846.722	42.46
847.104	42.46
847.487	42.45
847.869	42.43
848.252	42.44
848.634	42.41
849.016	42.41
849.398	42.39
849.78	42.37
850.162	42.35
850.544	42.32
850.926	42.28
851.307	42.25
851.689	42.22
852.071	42.17
852.452	42.14
852.834	42.1
853.215	42.1
853.597	42.09
853.978	42.09
854.359	42.09
854.741	42.09
855.122	42.1
855.503	42.1
855.884	42.09
856.265	42.09
856.646	42.08
857.026	42.08
857.407	42.04
857.788	42.04
858.169	42.03
858.549	42.03
858.93	42.03
859.31	42.02
859.69	42
860.071	41.99
860.451	41.96
860.831	41.96
861.211	41.97
861.591	41.98
861.971	41.92
862.351	41.91
862.731	41.87
863.111	41.84
863.491	41.83
863.87	41.8
864.25	41.79
864.629	41.76
865.009	41.73
865.388	41.68
865.768	41.65
866.147	41.68
866.526	41.66
866.905	41.64
867.284	41.64
867.663	41.66
868.042	41.65
868.421	41.63
868.8	41.65
869.179	41.65
869.558	41.65
869.936	41.66
870.315	41.66
870.693	41.66
871.072	41.67
871.45	41.67
871.828	41.64
872.207	41.62
872.585	41.61
872.963	41.59
873.341	41.57
873.719	41.55
874.097	41.53
874.475	41.52
874.853	41.49
875.23	41.47
875.608	41.45
875.986	41.43
876.363	41.43
876.741	41.45
877.118	41.43
877.495	41.42
877.873	41.41
878.25	41.38
878.627	41.41
879.004	41.44
879.381	41.46
879.758	41.46
880.135	41.48
880.512	41.46
880.889	41.45
881.265	41.47
881.642	41.48
882.019	41.49
882.395	41.5
882.772	41.47
883.148	41.43
883.524	41.4
883.901	41.4
884.277	41.38
884.653	41.38
885.029	41.36
885.405	41.33
885.781	41.31
886.157	41.29
886.532	41.28
886.908	41.29
887.284	41.29
887.659	41.29
888.035	41.27
888.411	41.24
888.786	41.22
889.161	41.22
889.537	41.2
889.912	41.18
890.287	41.17
890.662	41.15
891.037	41.1
891.412	41.06
891.787	41.03
892.162	40.98
892.536	40.96
892.911	40.92
893.286	40.88
893.66	40.86
894.035	40.82
894.409	40.78
894.784	40.76
895.158	40.74
895.532	40.71
895.906	40.7
896.281	40.68
896.655	40.64
897.029	40.58
897.402	40.59
897.776	40.55
898.15	40.56
898.524	40.54
898.898	40.51
899.271	40.48
899.645	40.49
900.018	40.46
900.392	40.47
900.765	40.49
901.138	40.52
901.511	40.49
901.884	40.49
902.258	40.46
902.631	40.45
903.003	40.44
903.376	40.43
903.749	40.43
904.122	40.46
904.495	40.41
904.867	40.38
905.24	40.36
905.612	40.36
905.985	40.35
906.357	40.33
906.729	40.31
907.102	40.31
907.474	40.3
907.846	40.27
908.218	40.23
908.59	40.24
908.962	40.24
909.334	40.23
909.705	40.21
910.077	40.18
910.449	40.19
910.82	40.19
911.192	40.19
911.563	40.19
911.935	40.17
912.306	40.16
912.677	40.16
913.048	40.13
913.419	40.13
913.79	40.14
914.161	40.13
914.532	40.1
914.903	40.12
915.274	40.1
915.645	40.1
916.015	40.12
916.386	40.12
916.756	40.11
917.127	40.12
917.497	40.14
917.868	40.13
918.238	40.18
918.608	40.21
918.978	40.19
919.348	40.18
919.718	40.17
920.088	40.16
920.458	40.14
920.828	40.16
921.198	40.15
921.567	40.11
921.937	40.11
922.306	40.08
922.676	40.08
923.045	40.06
923.415	40.04
923.784	40.05
924.153	40.03
924.522	40.03
924.891	39.98
925.26	39.96
925.629	39.96
925.998	39.91
926.367	39.91
926.736	39.82
927.104	39.83
927.473	39.82
927.842	39.77
928.21	39.76
928.578	39.74
928.947	39.71
929.315	39.71
929.683	39.68
930.051	39.64
930.42	39.59
930.788	39.57
931.156	39.49
931.523	39.43
931.891	39.34
932.259	39.27
932.627	39.15
932.994	39.1
933.362	39.03
933.729	38.96
934.097	38.88
934.464	38.81
934.831	38.76
935.199	38.75
935.566	38.71
935.933	38.68
936.3	38.63
936.667	38.68
937.034	38.65
937.401	38.57
937.767	38.58
938.134	38.64
938.501	38.63
938.867	38.68
939.234	38.72
939.6	38.74
939.967	38.85
940.333	38.95
940.699	39.1
941.065	39.18
941.431	39.25
941.798	39.33
942.163	39.48
942.529	39.59
942.895	39.62
943.261	39.66
943.627	39.75
943.992	39.73
944.358	39.76
944.723	39.65
945.089	39.66
945.454	39.78
945.82	39.76
946.185	39.77
946.55	39.79
946.915	39.82
947.28	39.81
947.645	39.83
948.01	39.81
948.375	39.79
948.74	39.81
949.104	39.83
949.469	39.72
949.834	39.77
950.198	39.68
950.562	39.58
950.927	39.55
951.291	39.49
951.655	39.41
952.02	39.4
952.384	39.4
952.748	39.36
953.112	39.25
953.476	39.25
953.839	39.13
954.203	39.07
954.567	39.04
954.931	39.01
955.294	38.99
955.658	38.97
956.021	38.96
956.385	38.92
956.748	38.95
957.111	38.96
957.474	38.97
957.837	38.99
958.2	38.98
958.563	38.95
958.926	38.88
959.289	38.85
959.652	38.79
960.015	38.74
960.377	38.66
960.74	38.63
961.102	38.65
961.465	38.59
961.827	38.46
962.189	38.5
962.552	38.47
962.914	38.5
963.276	38.47
963.638	38.42
964	38.39
964.362	38.43
964.724	38.4
965.085	38.38
965.447	38.35
965.809	38.4
966.17	38.34
966.532	38.4
966.893	38.4
967.255	38.44
967.616	38.48
967.977	38.52
968.338	38.5
968.699	38.49
969.061	38.46
969.421	38.49
969.782	38.52
970.143	38.51
970.504	38.43
970.865	38.36
971.225	38.37
971.586	38.43
971.946	38.42
972.307	38.41
972.667	38.4
973.027	38.43
973.388	38.41
973.748	38.41
974.108	38.35
974.468	38.42
974.828	38.49
975.188	38.45
975.548	38.38
975.907	38.42
976.267	38.44
976.627	38.45
976.986	38.46
977.346	38.52
977.705	38.56
978.064	38.6
978.424	38.58
978.783	38.63
979.142	38.65
979.501	38.7
979.86	38.63
980.219	38.55
980.578	38.54
980.937	38.53
981.296	38.48
981.654	38.44
982.013	38.45
982.371	38.4
982.73	38.41
983.088	38.32
983.447	38.28
983.805	38.3
984.163	38.34
984.521	38.32
984.879	38.37
985.237	38.42
985.595	38.39
985.953	38.36
986.311	38.48
986.669	38.39
987.026	38.51
987.384	38.52
987.741	38.57
988.099	38.51
988.456	38.52
988.814	38.5
989.171	38.48
989.528	38.42
989.885	38.47
990.242	38.43
990.599	38.39
990.956	38.36
991.313	38.49
991.67	38.51
992.027	38.55
992.383	38.6
992.74	38.59
993.096	38.5
993.453	38.66
993.809	38.73
994.165	38.71
994.522	38.73
994.878	38.78
995.234	38.65
995.59	38.58
995.946	38.65
996.302	38.65
996.658	38.72
997.013	38.84
997.369	38.81
997.725	38.79
998.08	38.81
998.436	38.94
998.791	38.8
999.147	38.74
999.502	38.87
999.857	38.95
1000.212	38.96
1000.567	38.91
1000.922	38.91
1001.277	38.97
1001.632	39.15
1001.987	39.18
1002.342	39.13
1002.696	39.26
1003.051	39.18
1003.406	39.04
1003.76	38.98
1004.114	39.05
1004.469	39.05
1004.823	39.08
1005.177	39.1
1005.531	38.93
1005.885	38.92
1006.239	38.83
1006.593	38.78
1006.947	38.85
1007.301	39.01
1007.655	39.07
1008.008	38.93
1008.362	38.86
1008.715	38.83
1009.069	38.63
1009.422	38.46
1009.776	38.36
1010.129	38.21
1010.482	38.42
1010.835	38.63
1011.188	38.43
1011.541	38.26
1011.894	38.19
1012.247	38.36
1012.6	38.53
1012.952	38.76
1013.305	39.11
1013.657	39.37
1014.01	39.79
1014.362	39.84
1014.715	39.64
1015.067	39.75
1015.419	40.07
1015.771	40.27
1016.123	40.18
1016.475	40.29
1016.827	40.25
1017.179	40.28
1017.531	40.32
1017.883	40.19
1018.234	39.92
1018.586	40.03
1018.938	39.94
1019.289	39.77
1019.64	40.04
1019.992	40.18
1020.343	39.92
1020.694	39.65
1021.045	39.4
1021.396	39.23
1021.747	39.43
1022.098	39.52
1022.449	39.53
1022.8	39.71
1023.151	39.64
1023.501	39.34
1023.852	39.5
1024.202	39.5
1024.553	39.64
1024.903	40.05
1025.253	39.95
1025.604	39.92
1025.954	39.84
1026.304	40.46
1026.654	40.81
1027.004	41.1
1027.354	41.43
1027.703	41.29
1028.053	41.16
1028.403	41.5
1028.753	41.15
1029.102	41.36
1029.452	41.27
1029.801	41.52
1030.15	41.12
1030.499	40.81
897.758	233.28
901.051	230.53
904.343	238.3
907.636	231.94
910.928	232.34
914.22	234.69
917.511	225.19
920.803	219.66
924.094	209.13
927.384	210.44
930.675	204
933.965	201.7
937.255	205.12
940.544	194.37
943.834	189.85
947.123	185.58
950.411	176.59
953.7	176.22
956.988	173.9
960.276	169.23
963.563	167.97
966.851	162.27
970.138	158.29
973.424	149.23
976.711	150.69
979.997	144.54
983.283	142.27
986.568	139.38
989.853	135.98
993.138	131.46
996.423	132.7
999.708	129.65
1002.992	129.29
1006.275	128.21
1009.559	126.91
1012.842	123.53
1016.125	121.36
1019.408	118.83
1022.69	119.46
1025.972	116.81
1029.254	115.51
1032.536	111.8
1035.817	108.99
1039.098	108.02
1042.379	107.09
1045.659	107.25
1048.939	104.02
1052.219	104.96
1055.498	103.81
1058.778	102.21
1062.057	101.83
1065.335	101.94
1068.614	101.2
1071.892	101.73
1075.17	100.41
1078.447	98.91
1081.724	98.01
1085.001	96.09
1088.278	95.57
1091.554	96.95
1094.83	95.88
1098.106	96.09
1101.382	95.17
1104.657	95.43
1107.932	94.91
1111.206	94.3
1114.481	93.43
1117.755	91.94
1121.029	93.36
1124.302	92.03
1127.575	91.03
1130.848	90.39
1134.121	88.93
1137.393	88.62
1140.665	87.39
1143.937	86.01
1147.208	84.98
1150.48	84.47
1153.75	84.46
1157.021	83.58
1160.291	83.63
1163.561	81.77
1166.831	83.45
1170.101	83.49
1173.37	81.58
1176.639	81.37
1179.907	81.25
1183.176	80.74
1186.444	80.36
1189.711	80.23
1192.979	80.33
1196.246	80.53
1199.513	81.26
1202.78	79.35
1206.046	79.65
1209.312	81.11
1212.578	81.12
1215.843	82.47
1219.108	82.8
1222.373	84.61
1225.638	85.51
1228.902	87.3
1232.166	87.92
1235.43	87.46
1238.693	89.79
1241.956	90.85
1245.219	93.22
1248.482	94.28
1251.744	93.23
1255.006	94.13
1258.268	91.2
1261.529	91.17
1264.79	89.34
1268.051	88.99
1271.312	88.33
1274.572	87.07
1277.832	85.99
1281.092	84.63
1284.351	82.98
1287.61	82.98
1290.869	83.31
1294.128	83.73
1297.386	82.93
1300.644	82.15
1303.902	80.73
1307.159	80.81
1310.416	80.78
1313.673	81.67
1316.93	81.98
1320.186	83.72
1323.442	83.54
1326.697	83.12
1329.953	82.94
1333.208	84.49
1336.463	87.1
1339.717	88.75
1342.972	92.24
1346.226	92.99
1349.479	92.4
1352.733	95.16
1355.986	93.42
1359.238	95.13
1362.491	95.55
1365.743	98.22
1368.995	98.62
1372.247	94.56
1375.498	93.95
1378.749	93.57
1382	93.21
1385.251	92.4
1388.501	91.57
1391.751	92.65
1395	91.56
1398.25	91.52
1401.499	89.73
1404.748	87.84
1407.996	88.43
1411.244	88.13
1414.492	87.1
1417.74	83.98
1420.987	83.42
1424.234	81.11
1427.481	77.21
1430.728	76.12
1433.974	74.05
1437.22	72.37
1440.465	68.5
1443.711	67.1
1446.956	65.83
1450.201	61.81
1453.445	59.22
1456.689	57.06
1459.933	56.08
1463.177	53.83
1466.42	52.19
1469.663	51.04
1472.906	49.22
1476.148	48.38
1479.391	48.33
1482.633	46.96
1485.874	47.76
1489.115	48.13
1492.356	47.39
1495.597	46.71
1498.838	47.84
1502.078	48.06
1505.318	48.15
1508.557	47.54
1511.797	48.7
1515.036	48.41
1518.274	49.21
1521.513	48.42
1524.751	48.45
1527.989	49.19
1531.227	49.51
1534.464	49.72
1537.701	50.11
1540.938	49.61
1544.174	50.01
1547.41	50.64
1550.646	51.23
1553.882	50.85
1557.117	51.95
1560.352	52.07
1563.587	51.74
1566.821	51.85
1570.055	52.08
1573.289	52.23
1576.523	52.57
1579.756	53.3
1582.989	53.09
1586.222	53.02
1589.454	53.69
1592.686	53.1
1595.918	53.06
1599.15	53.54
1602.381	53.76
1605.612	54.02
1608.843	53.62
1612.073	54.32
1615.303	54.97
1618.533	54.59
1621.762	54.54
1624.992	54.48
1628.221	55.22
1631.449	55.48
1634.678	55.74
1637.906	55.31
1641.134	55.31
1644.361	55.91
1647.588	55.48
1650.815	55.08
1654.042	55.64
1657.269	55.83
1660.495	56.09
1663.72	55.7
1666.946	55.55
1670.171	55.85
1673.396	56.36
1676.621	56.34
1679.845	56.93
1683.069	56.63
1686.293	56.47
1689.517	56.55
1692.74	56.56
1695.963	56.42
1699.185	56.91
1702.408	56.91
1705.63	56.54
1708.852	56.91
1712.073	56.76
1715.294	55.96
1718.515	57.2
1721.736	57.15
1724.956	57.07
1728.176	56.77
1731.396	56.55
1734.616	56.81
1737.835	56.8
1741.054	56.36
1744.272	56.21
1747.491	55.57
1750.709	56.11
1753.927	55.32
1757.144	55.27
1760.361	55.04
1763.578	54.82
1766.795	55.28
1770.011	55.16
1773.227	55.01
1776.443	55.73
1779.658	55.03
1782.874	56.31
1786.089	55.17
1789.303	55.29
1792.518	55.42
1795.732	55.81
1798.945	57.08
1802.159	56.58
1805.372	56.43
1808.585	57.21
1811.797	56.41
1815.01	57.7
1818.222	57.33
1821.434	57.93
1824.645	57.79
1827.856	58.18
1831.067	57.9
1834.278	57.31
1837.488	57.88
1840.698	58.01
1843.908	57.83
1847.117	58.91
1850.326	57.99
1853.535	57.56
1856.744	57.81
1859.952	57.83
1863.16	57.24
1866.368	56.82
1869.575	56.7
1872.782	55.24
1875.989	53.1
1879.196	52.57
1882.402	50.94
1885.608	50.85
1888.814	50.04
1892.019	49.12
1895.224	47.94
1898.429	48.37
1901.634	47.3
1904.838	46.97
1908.042	47.46
1911.246	48.06
1914.449	48.47
1917.652	47.06
1920.855	46.65
1924.058	46.29
1927.26	45.46
1930.462	46.36
1933.664	45.9
1936.865	46.34
1940.066	44.59
1943.267	45.32
1946.467	45.29
1949.668	45.05
1952.868	46.66
1956.067	47.18
1959.267	47.91
1962.466	48.36
1965.665	48.52
1968.863	49.23
1972.061	49.15
1975.259	51.81
1978.457	50.46
1981.654	51.52
1984.852	52.01
1988.048	52.35
1991.245	53.06
1994.441	53.86
1997.637	54.91
2000.833	57.87
2004.028	56.61
2007.223	58.23
2010.418	58.77
2013.613	62.51
2016.807	64.4
2020.001	64.85
2023.194	67.68
2026.388	69.61
2029.581	72.66
2032.774	74.13
2035.966	73.68
2039.158	78.33
2042.35	78.72
2045.542	81.11
2048.733	81.73
2051.924	81.55
2055.115	82.09
2058.306	81.36
2061.496	81.7
2064.686	83.09
2067.875	84.24
2071.065	84.89
2074.254	83.9
2077.442	87.27
2080.631	86.58
2083.819	89.24
2087.007	91.7
2090.195	95.93
2093.382	94.47
2096.569	95.73
2099.756	97.05
2102.942	98.95
2106.128	101.19
2109.314	104.04
2112.5	105.36
2115.685	102.23
2118.87	102.31
2122.055	103.92
2125.239	103.41
2128.424	108.35
2131.608	104.91
2134.791	104.15
2137.974	105.22
2141.157	106.63
2144.34	105.43
2147.523	109.48
2150.705	114.95
2153.887	115.26
2157.068	116.84
2160.25	117.94
2163.431	117.32
2166.611	122.05
2169.792	123.16
2172.972	126.55
2176.152	125.28
2179.331	127.86
2182.511	127.19
2185.69	129.19
2188.868	128.71
2192.047	133.65
2195.225	137.91
2198.403	139
2201.58	137.51
2204.758	142.57
2207.935	141.26
2211.111	143.99
2214.288	144.95
2217.464	145.6
2220.64	145.47
2223.815	148.04
2226.991	143.12
2230.166	143.37
2233.34	147.37
2236.515	150.74
2239.689	147.44
2242.863	149.01
2246.036	148.76
2249.209	153.21
2252.382	149.53
2255.555	153.47
2258.727	156.24
2261.9	159.71
2265.071	161.4
2268.243	160.21
2271.414	165.74
2274.585	169.42
2277.756	171.25
2280.926	176.75
2284.096	177.9
2287.266	181.95
2290.436	181.21
2293.605	184.71
2296.774	190.03
2299.942	193.06
2303.111	197.52
2306.279	203.74
2309.447	204.9
2312.614	201.58
2315.781	204.54
2318.948	205.74
2322.115	213.28
2325.281	222.82
2328.447	216.49
2331.613	218.66
2334.779	217.21
2337.944	219.94
2341.109	218.74
2344.274	222.04
2347.438	231.84
2350.602	239.18
2353.766	249.18
2356.929	245.44
2360.092	249.45
2363.255	256.9
2366.418	261.8
2369.58	262.6
2372.742	270.44
2375.904	271.17
2379.066	278.14
2382.227	281.9
2385.388	275.11
2388.548	262.8
2391.709	263.2
2394.869	263.69
2398.029	266.59
2401.188	262.06
2404.347	269.85
2407.506	273.63
2410.665	265.14
2413.823	272.98
2416.981	278.61
2420.139	273.85
2423.296	294.01
2426.453	312.5
2429.61	300.7
2432.767	315.85
2435.923	334.84
2439.079	327.49
2442.235	332.07
2445.391	342.54
2448.546	333.86
2451.701	347.44
2454.855	358.21
2458.009	330.16
2461.163	333.12
2464.317	337.74
2467.471	333.68
2470.624	343.95
2473.777	338.68
2476.929	330.7
2480.082	341.96
2483.234	359.45
2486.385	374.78
2489.537	385.19
2492.688	414.61
2495.839	409.92
2498.989	427.56
2502.14	430.02
2505.29	409.18
2508.439	441.14
2511.589	446.55
2514.738	449.27
2517.887	442.84
2521.035	407.11
2524.183	398.63
2527.331	402.82
2530.479	393
2533.627	396.17
