Data from C_2_div_oh_2n_066_Splice17_20.txt Node
Date: Sat Feb 29 14:26:22 EST 2020
User: sa697716
Spectrometer: FLMS03696
Trigger mode: 0
Integration Time (sec): 3.180400E-1
Scans to average: 20
Electric dark correction enabled: true
Nonlinearity correction enabled: true
Boxcar width: 5
XAxis mode: Wavelengths
Number of Pixels in Spectrum: 2048
>>>>>Begin Spectral Data<<<<<
187.83	84.32
188.298	86.97
188.766	78.42
189.233	69.23
189.701	79.95
190.169	74.01
190.636	86.89
191.104	81.13
191.571	376.53
192.039	414.43
192.506	-566.2
192.974	-3833.17
193.441	142.09
193.908	72.28
194.375	38.81
194.842	123.07
195.31	67.2
195.777	95.53
196.244	29.39
196.711	27.85
197.177	26.78
197.644	26.8
198.111	26.1
198.578	24.95
199.045	24.23
199.511	24.42
199.978	24.82
200.445	24.5
200.911	24.82
201.378	25.43
201.844	25.66
202.31	26.44
202.777	26.65
203.243	27.3
203.709	27.71
204.176	28
204.642	28.38
205.108	28.32
205.574	28.97
206.04	29.05
206.506	28.63
206.972	28.69
207.438	27.95
207.903	28.12
208.369	27.31
208.835	27.69
209.301	27.29
209.766	26.89
210.232	26.94
210.697	26.66
211.163	26.9
211.628	26.89
212.094	26.72
212.559	26.27
213.024	25.84
213.49	25.78
213.955	25.23
214.42	25.2
214.885	25.06
215.35	24.91
215.815	24.23
216.28	23.5
216.745	22.95
217.21	22.51
217.675	22.01
218.14	21.39
218.604	20.88
219.069	20.43
219.534	19.88
219.998	19.41
220.463	18.91
220.927	18.62
221.392	18.25
221.856	17.88
222.32	17.56
222.785	17.29
223.249	17.04
223.713	16.81
224.177	16.54
224.642	16.34
225.106	16.14
225.57	15.94
226.034	15.76
226.497	15.57
226.961	15.39
227.425	15.22
227.889	15.05
228.353	14.88
228.816	14.69
229.28	14.49
229.744	14.34
230.207	14.19
230.671	14.02
231.134	13.85
231.597	13.68
232.061	13.51
232.524	13.36
232.987	13.21
233.45	13.04
233.914	12.92
234.377	12.81
234.84	12.68
235.303	12.53
235.766	12.42
236.229	12.31
236.691	12.21
237.154	12.12
237.617	12.01
238.08	11.89
238.542	11.8
239.005	11.68
239.468	11.56
239.93	11.47
240.393	11.39
240.855	11.27
241.317	11.17
241.78	11.09
242.242	10.99
242.704	10.9
243.166	10.82
243.629	10.72
244.091	10.65
244.553	10.57
245.015	10.48
245.477	10.39
245.939	10.31
246.4	10.23
246.862	10.14
247.324	10.08
247.786	9.99
248.247	9.92
248.709	9.85
249.17	9.78
249.632	9.71
250.093	9.64
250.555	9.58
251.016	9.54
251.477	9.47
251.939	9.42
252.4	9.36
252.861	9.33
253.322	9.28
253.783	9.24
254.244	9.2
254.705	9.17
255.166	9.14
255.627	9.09
256.088	9.04
256.549	9.02
257.009	8.98
257.47	8.94
257.931	8.89
258.391	8.85
258.852	8.81
259.312	8.78
259.773	8.73
260.233	8.68
260.694	8.64
261.154	8.6
261.614	8.56
262.074	8.53
262.534	8.48
262.994	8.46
263.455	8.42
263.915	8.38
264.374	8.34
264.834	8.31
265.294	8.29
265.754	8.25
266.214	8.23
266.673	8.2
267.133	8.17
267.593	8.15
268.052	8.12
268.512	8.09
268.971	8.06
269.431	8.05
269.89	8.03
270.349	8
270.809	7.99
271.268	7.97
271.727	7.94
272.186	7.93
272.645	7.9
273.104	7.89
273.563	7.88
274.022	7.86
274.481	7.83
274.94	7.81
275.399	7.8
275.857	7.77
276.316	7.75
276.775	7.72
277.233	7.7
277.692	7.68
278.15	7.65
278.609	7.62
279.067	7.59
279.525	7.56
279.984	7.53
280.442	7.51
280.9	7.49
281.358	7.46
281.816	7.44
282.274	7.41
282.732	7.39
283.19	7.38
283.648	7.36
284.106	7.34
284.564	7.33
285.021	7.33
285.479	7.32
285.937	7.31
286.394	7.3
286.852	7.29
287.309	7.28
287.767	7.26
288.224	7.25
288.682	7.24
289.139	7.23
289.596	7.2
290.053	7.18
290.511	7.15
290.968	7.13
291.425	7.11
291.882	7.08
292.339	7.05
292.796	7.04
293.252	7.01
293.709	6.98
294.166	6.97
294.623	6.96
295.079	6.94
295.536	6.93
295.992	6.91
296.449	6.9
296.905	6.88
297.362	6.88
297.818	6.87
298.274	6.85
298.731	6.84
299.187	6.82
299.643	6.8
300.099	6.79
300.555	6.77
301.011	6.76
301.467	6.74
301.923	6.73
302.379	6.71
302.835	6.69
303.291	6.68
303.746	6.67
304.202	6.66
304.658	6.65
305.113	6.63
305.569	6.63
306.024	6.61
306.479	6.6
306.935	6.59
307.39	6.58
307.845	6.57
308.301	6.56
308.756	6.56
309.211	6.55
309.666	6.55
310.121	6.54
310.576	6.53
311.031	6.53
311.486	6.53
311.94	6.53
312.395	6.55
312.85	6.54
313.305	6.53
313.759	6.52
314.214	6.52
314.668	6.52
315.123	6.51
315.577	6.51
316.032	6.5
316.486	6.49
316.94	6.47
317.394	6.44
317.849	6.44
318.303	6.44
318.757	6.43
319.211	6.42
319.665	6.41
320.119	6.4
320.572	6.39
321.026	6.38
321.48	6.36
321.934	6.36
322.387	6.36
322.841	6.34
323.295	6.32
323.748	6.3
324.202	6.29
324.655	6.27
325.108	6.25
325.562	6.24
326.015	6.22
326.468	6.21
326.921	6.2
327.374	6.2
327.827	6.19
328.28	6.18
328.733	6.16
329.186	6.16
329.639	6.16
330.092	6.15
330.545	6.15
330.997	6.14
331.45	6.14
331.903	6.13
332.355	6.12
332.808	6.12
333.26	6.12
333.713	6.12
334.165	6.12
334.617	6.12
335.069	6.12
335.522	6.12
335.974	6.12
336.426	6.13
336.878	6.14
337.33	6.14
337.782	6.13
338.234	6.14
338.686	6.14
339.137	6.13
339.589	6.13
340.041	6.13
340.493	6.13
340.944	6.12
341.396	6.11
341.847	6.09
342.299	6.09
342.75	6.07
343.201	6.06
343.653	6.05
344.104	6.04
344.555	6.03
345.006	6.01
345.457	6
345.908	6
346.359	5.99
346.81	6
347.261	5.98
347.712	5.99
348.163	5.98
348.613	5.98
349.064	5.95
349.515	5.94
349.965	5.93
350.416	5.93
350.866	5.92
351.317	5.91
351.767	5.9
352.217	5.91
352.668	5.89
353.118	5.89
353.568	5.9
354.018	5.92
354.468	5.92
354.918	5.94
355.368	5.96
355.818	5.95
356.268	5.95
356.718	5.96
357.168	5.95
357.617	5.96
358.067	5.96
358.517	5.96
358.966	5.96
359.416	5.97
359.865	5.95
360.315	5.95
360.764	5.96
361.213	5.96
361.663	5.96
362.112	5.97
362.561	5.98
363.01	5.98
363.459	5.98
363.908	5.97
364.357	5.97
364.806	5.99
365.255	5.99
365.703	5.99
366.152	6.01
366.601	6.01
367.05	6.01
367.498	6.01
367.947	6.01
368.395	6.03
368.844	6.04
369.292	6.05
369.74	6.05
370.189	6.07
370.637	6.07
371.085	6.07
371.533	6.08
371.981	6.1
372.429	6.1
372.877	6.11
373.325	6.12
373.773	6.12
374.221	6.13
374.669	6.14
375.116	6.14
375.564	6.15
376.012	6.15
376.459	6.15
376.907	6.16
377.354	6.18
377.801	6.2
378.249	6.21
378.696	6.24
379.143	6.25
379.591	6.26
380.038	6.28
380.485	6.31
380.932	6.33
381.379	6.34
381.826	6.37
382.273	6.38
382.72	6.41
383.166	6.44
383.613	6.44
384.06	6.47
384.506	6.5
384.953	6.52
385.4	6.54
385.846	6.56
386.292	6.6
386.739	6.63
387.185	6.67
387.631	6.7
388.078	6.73
388.524	6.75
388.97	6.78
389.416	6.8
389.862	6.81
390.308	6.83
390.754	6.86
391.2	6.89
391.645	6.93
392.091	6.95
392.537	6.97
392.983	7.01
393.428	7.05
393.874	7.09
394.319	7.14
394.765	7.18
395.21	7.19
395.655	7.24
396.101	7.26
396.546	7.27
396.991	7.3
397.436	7.3
397.881	7.33
398.326	7.36
398.771	7.4
399.216	7.42
399.661	7.47
400.106	7.54
400.551	7.57
400.995	7.6
401.44	7.61
401.885	7.64
402.329	7.66
402.774	7.65
403.218	7.66
403.663	7.67
404.107	7.7
404.551	7.72
404.995	7.73
405.44	7.72
405.884	7.74
406.328	7.77
406.772	7.79
407.216	7.84
407.66	7.87
408.104	7.9
408.547	7.93
408.991	7.92
409.435	7.9
409.879	7.9
410.322	7.94
410.766	7.95
411.209	7.97
411.653	7.96
412.096	7.94
412.54	7.95
412.983	7.95
413.426	7.97
413.869	8
414.312	8.04
414.756	8.07
415.199	8.08
415.642	8.1
416.085	8.12
416.527	8.17
416.97	8.2
417.413	8.22
417.856	8.2
418.298	8.17
418.741	8.16
419.184	8.14
419.626	8.12
420.069	8.12
420.511	8.11
420.953	8.08
421.396	8.08
421.838	8.08
422.28	8.08
422.722	8.09
423.164	8.12
423.606	8.15
424.048	8.15
424.49	8.17
424.932	8.18
425.374	8.22
425.816	8.22
426.258	8.2
426.699	8.17
427.141	8.14
427.582	8.14
428.024	8.12
428.465	8.14
428.907	8.15
429.348	8.14
429.789	8.13
430.231	8.08
430.672	8.08
431.113	8.09
431.554	8.13
431.995	8.15
432.436	8.16
432.877	8.14
433.318	8.1
433.759	8.1
434.2	8.1
434.64	8.09
435.081	8.09
435.522	8.11
435.962	8.13
436.403	8.14
436.843	8.16
437.284	8.18
437.724	8.23
438.164	8.26
438.604	8.29
439.045	8.29
439.485	8.32
439.925	8.34
440.365	8.33
440.805	8.35
441.245	8.34
441.685	8.36
442.125	8.37
442.564	8.39
443.004	8.41
443.444	8.42
443.883	8.46
444.323	8.49
444.762	8.53
445.202	8.59
445.641	8.59
446.081	8.64
446.52	8.66
446.959	8.68
447.398	8.72
447.837	8.76
448.276	8.8
448.716	8.84
449.154	8.88
449.593	8.91
450.032	8.91
450.471	8.94
450.91	8.95
451.349	8.96
451.787	8.98
452.226	8.96
452.664	8.95
453.103	8.94
453.541	8.93
453.98	8.91
454.418	8.88
454.856	8.86
455.295	8.84
455.733	8.83
456.171	8.81
456.609	8.8
457.047	8.78
457.485	8.79
457.923	8.77
458.361	8.76
458.798	8.78
459.236	8.8
459.674	8.82
460.111	8.82
460.549	8.81
460.987	8.83
461.424	8.82
461.862	8.82
462.299	8.8
462.736	8.8
463.173	8.8
463.611	8.77
464.048	8.77
464.485	8.75
464.922	8.74
465.359	8.75
465.796	8.71
466.233	8.7
466.67	8.7
467.106	8.7
467.543	8.7
467.98	8.71
468.416	8.72
468.853	8.71
469.29	8.73
469.726	8.74
470.162	8.73
470.599	8.74
471.035	8.78
471.471	8.77
471.907	8.79
472.344	8.8
472.78	8.79
473.216	8.79
473.652	8.81
474.088	8.81
474.523	8.8
474.959	8.79
475.395	8.79
475.831	8.8
476.266	8.81
476.702	8.8
477.138	8.8
477.573	8.79
478.008	8.79
478.444	8.77
478.879	8.76
479.314	8.76
479.75	8.78
480.185	8.77
480.62	8.76
481.055	8.76
481.49	8.76
481.925	8.76
482.36	8.76
482.795	8.75
483.229	8.76
483.664	8.76
484.099	8.76
484.534	8.76
484.968	8.77
485.403	8.77
485.837	8.76
486.271	8.77
486.706	8.78
487.14	8.79
487.574	8.8
488.009	8.82
488.443	8.84
488.877	8.87
489.311	8.9
489.745	8.92
490.179	8.95
490.613	8.98
491.046	9.02
491.48	9.07
491.914	9.11
492.348	9.17
492.781	9.21
493.215	9.26
493.648	9.32
494.082	9.37
494.515	9.44
494.948	9.5
495.382	9.57
495.815	9.65
496.248	9.72
496.681	9.8
497.114	9.88
497.547	9.96
497.98	10.03
498.413	10.13
498.846	10.23
499.279	10.33
499.711	10.44
500.144	10.54
500.577	10.64
501.009	10.75
501.442	10.88
501.874	11.01
502.306	11.16
502.739	11.31
503.171	11.46
503.603	11.62
504.036	11.78
504.468	11.96
504.9	12.16
505.332	12.35
505.764	12.57
506.196	12.79
506.627	12.99
507.059	13.2
507.491	13.43
507.923	13.67
508.354	13.91
508.786	14.15
509.217	14.38
509.649	14.64
510.08	14.9
510.512	15.15
510.943	15.42
511.374	15.7
511.805	15.99
512.237	16.28
512.668	16.56
513.099	16.86
513.53	17.18
513.961	17.49
514.391	17.8
514.822	18.08
515.253	18.39
515.684	18.71
516.114	19.01
516.545	19.32
516.975	19.64
517.406	19.95
517.836	20.26
518.267	20.56
518.697	20.88
519.127	21.19
519.558	21.52
519.988	21.82
520.418	22.1
520.848	22.41
521.278	22.72
521.708	22.91
522.138	23.17
522.567	23.44
522.997	23.71
523.427	23.96
523.857	24.19
524.286	24.42
524.716	24.67
525.145	24.9
525.575	25.11
526.004	25.33
526.433	25.62
526.863	25.86
527.292	26.05
527.721	26.24
528.15	26.42
528.579	26.62
529.008	26.81
529.437	26.97
529.866	27.13
530.295	27.3
530.724	27.46
531.152	27.61
531.581	27.73
532.01	27.86
532.438	27.98
532.867	28.11
533.295	28.21
533.723	28.31
534.152	28.41
534.58	28.5
535.008	28.58
535.436	28.64
535.865	28.72
536.293	28.8
536.721	28.87
537.149	28.93
537.576	29.02
538.004	29.07
538.432	29.11
538.86	29.13
539.287	29.2
539.715	29.23
540.143	29.28
540.57	29.31
540.998	29.34
541.425	29.37
541.852	29.41
542.28	29.43
542.707	29.48
543.134	29.5
543.561	29.56
543.988	29.59
544.415	29.62
544.842	29.64
545.269	29.67
545.696	29.7
546.123	29.73
546.549	29.74
546.976	29.79
547.403	29.8
547.829	29.83
548.256	29.85
548.682	29.86
549.108	29.89
549.535	29.93
549.961	29.94
550.387	29.95
550.813	29.94
551.24	29.96
551.666	29.95
552.092	29.95
552.518	29.94
552.943	29.93
553.369	29.91
553.795	29.9
554.221	29.86
554.646	29.84
555.072	29.81
555.498	29.79
555.923	29.75
556.349	29.68
556.774	29.64
557.199	29.6
557.625	29.52
558.05	29.45
558.475	29.38
558.9	29.31
559.325	29.2
559.75	29.12
560.175	29.02
560.6	28.93
561.025	28.85
561.449	28.72
561.874	28.62
562.299	28.51
562.723	28.41
563.148	28.28
563.572	28.17
563.997	28.08
564.421	27.95
564.846	27.84
565.27	27.69
565.694	27.54
566.118	27.39
566.542	27.23
566.966	27.1
567.39	26.92
567.814	26.76
568.238	26.56
568.662	26.38
569.086	26.21
569.509	26.02
569.933	25.84
570.357	25.66
570.78	25.48
571.204	25.31
571.627	25.13
572.05	25
572.474	24.85
572.897	24.71
573.32	24.56
573.743	24.41
574.166	24.25
574.589	24.12
575.012	24
575.435	23.87
575.858	23.74
576.281	23.62
576.704	23.51
577.126	23.38
577.549	23.3
577.972	23.2
578.394	23.1
578.817	23
579.239	22.9
579.661	22.81
580.084	22.73
580.506	22.65
580.928	22.57
581.35	22.49
581.772	22.4
582.194	22.3
582.616	22.21
583.038	22.14
583.46	22.09
583.882	22.02
584.303	21.95
584.725	21.88
585.147	21.78
585.568	21.71
585.99	21.63
586.411	21.56
586.833	21.5
587.254	21.46
587.675	21.4
588.096	21.35
588.518	21.3
588.939	21.25
589.36	21.19
589.781	21.17
590.202	21.11
590.623	21.05
591.043	21.01
591.464	20.97
591.885	20.91
592.305	20.86
592.726	20.82
593.147	20.78
593.567	20.72
593.987	20.71
594.408	20.67
594.828	20.64
595.248	20.6
595.669	20.55
596.089	20.52
596.509	20.48
596.929	20.43
597.349	20.38
597.769	20.34
598.189	20.32
598.608	20.26
599.028	20.2
599.448	20.17
599.867	20.13
600.287	20.09
600.706	20.05
601.126	19.99
601.545	19.94
601.965	19.89
602.384	19.82
602.803	19.74
603.222	19.67
603.641	19.62
604.061	19.54
604.48	19.47
604.898	19.41
605.317	19.32
605.736	19.25
606.155	19.15
606.574	19.08
606.992	19.01
607.411	18.92
607.829	18.81
608.248	18.72
608.666	18.64
609.085	18.57
609.503	18.47
609.921	18.4
610.339	18.32
610.758	18.26
611.176	18.17
611.594	18.08
612.012	18.01
612.43	17.96
612.847	17.89
613.265	17.82
613.683	17.73
614.101	17.65
614.518	17.57
614.936	17.5
615.353	17.44
615.771	17.36
616.188	17.3
616.606	17.24
617.023	17.18
617.44	17.12
617.857	17.06
618.274	17
618.691	16.95
619.108	16.91
619.525	16.87
619.942	16.8
620.359	16.77
620.776	16.73
621.192	16.7
621.609	16.67
622.026	16.63
622.442	16.58
622.859	16.56
623.275	16.54
623.691	16.51
624.108	16.48
624.524	16.45
624.94	16.44
625.356	16.43
625.772	16.41
626.188	16.4
626.604	16.38
627.02	16.39
627.436	16.38
627.852	16.36
628.268	16.36
628.683	16.34
629.099	16.34
629.514	16.31
629.93	16.28
630.345	16.24
630.761	16.19
631.176	16.15
631.591	16.08
632.007	16.01
632.422	15.96
632.837	15.87
633.252	15.79
633.667	15.7
634.082	15.61
634.497	15.51
634.911	15.4
635.326	15.3
635.741	15.18
636.155	15.08
636.57	14.97
636.984	14.82
637.399	14.67
637.813	14.53
638.228	14.39
638.642	14.25
639.056	14.1
639.47	13.96
639.884	13.8
640.298	13.65
640.712	13.5
641.126	13.33
641.54	13.19
641.954	13.08
642.368	12.95
642.781	12.8
643.195	12.65
643.609	12.51
644.022	12.37
644.436	12.27
644.849	12.16
645.262	12.05
645.676	11.94
646.089	11.85
646.502	11.74
646.915	11.64
647.328	11.56
647.741	11.48
648.154	11.43
648.567	11.38
648.98	11.33
649.393	11.27
649.805	11.22
650.218	11.17
650.631	11.12
651.043	11.1
651.456	11.07
651.868	11.03
652.28	11
652.693	10.94
653.105	10.89
653.517	10.82
653.929	10.77
654.341	10.72
654.753	10.67
655.165	10.61
655.577	10.52
655.989	10.44
656.401	10.36
656.813	10.28
657.224	10.22
657.636	10.15
658.047	10.07
658.459	9.98
658.87	9.89
659.282	9.81
659.693	9.72
660.104	9.64
660.515	9.55
660.926	9.48
661.338	9.4
661.749	9.31
662.159	9.23
662.57	9.16
662.981	9.1
663.392	9.03
663.803	8.96
664.213	8.91
664.624	8.86
665.035	8.81
665.445	8.78
665.855	8.74
666.266	8.7
666.676	8.68
667.086	8.63
667.497	8.59
667.907	8.56
668.317	8.52
668.727	8.5
669.137	8.49
669.547	8.48
669.956	8.45
670.366	8.44
670.776	8.42
671.186	8.42
671.595	8.44
672.005	8.46
672.414	8.47
672.824	8.49
673.233	8.51
673.642	8.51
674.052	8.53
674.461	8.55
674.87	8.59
675.279	8.62
675.688	8.63
676.097	8.66
676.506	8.7
676.915	8.75
677.323	8.8
677.732	8.85
678.141	8.92
678.549	8.98
678.958	9.06
679.366	9.12
679.775	9.19
680.183	9.28
680.592	9.38
681	9.46
681.408	9.56
681.816	9.66
682.224	9.81
682.632	9.96
683.04	10.11
683.448	10.28
683.856	10.47
684.264	10.7
684.671	10.93
685.079	11.19
685.487	11.49
685.894	11.81
686.302	12.15
686.709	12.49
687.116	12.85
687.524	13.25
687.931	13.67
688.338	14.13
688.745	14.61
689.152	15.12
689.559	15.64
689.966	16.17
690.373	16.74
690.78	17.33
691.187	17.94
691.593	18.54
692	19.18
692.407	19.81
692.813	20.46
693.22	21.1
693.626	21.76
694.032	22.4
694.439	23.09
694.845	23.74
695.251	24.39
695.657	25.04
696.063	25.72
696.469	26.36
696.875	27.01
697.281	27.64
697.687	28.26
698.093	28.87
698.498	29.47
698.904	30.06
699.31	30.66
699.715	31.24
700.12	31.81
700.526	32.36
700.931	32.92
701.337	33.47
701.742	33.98
702.147	34.52
702.552	35.03
702.957	35.54
703.362	36.04
703.767	36.5
704.172	36.97
704.577	37.42
704.981	37.88
705.386	38.32
705.791	38.75
706.195	39.21
706.6	39.61
707.004	40.01
707.408	40.42
707.813	40.8
708.217	41.17
708.621	41.57
709.025	41.93
709.43	42.28
709.834	42.65
710.237	42.95
710.641	43.27
711.045	43.6
711.449	43.93
711.853	44.26
712.256	44.59
712.66	44.92
713.064	45.19
713.467	45.5
713.87	45.8
714.274	46.14
714.677	46.45
715.08	46.75
715.484	47.04
715.887	47.3
716.29	47.56
716.693	47.8
717.096	48.06
717.499	48.32
717.901	48.57
718.304	48.79
718.707	48.96
719.109	49.22
719.512	49.47
719.915	49.68
720.317	49.91
720.719	50.11
721.122	50.33
721.524	50.54
721.926	50.76
722.328	50.96
722.731	51.19
723.133	51.39
723.535	51.56
723.937	51.73
724.338	51.88
724.74	52.05
725.142	52.08
725.544	52.24
725.945	52.36
726.347	52.54
726.748	52.65
727.15	52.78
727.551	52.9
727.952	52.99
728.354	53.1
728.755	53.26
729.156	53.36
729.557	53.59
729.958	53.71
730.359	53.83
730.76	53.88
731.161	54
731.562	54.05
731.962	54.16
732.363	54.26
732.763	54.34
733.164	54.37
733.564	54.44
733.965	54.52
734.365	54.57
734.766	54.63
735.166	54.67
735.566	54.67
735.966	54.71
736.366	54.73
736.766	54.76
737.166	54.81
737.566	54.87
737.966	54.89
738.365	54.95
738.765	55
739.165	54.99
739.564	55.01
739.964	55.09
740.363	55.13
740.763	55.16
741.162	55.17
741.561	55.19
741.96	55.22
742.36	55.27
742.759	55.22
743.158	55.2
743.557	55.27
743.955	55.33
744.354	55.35
744.753	55.4
745.152	55.44
745.55	55.53
745.949	55.52
746.348	55.57
746.746	55.62
747.144	55.7
747.543	55.76
747.941	55.83
748.339	55.87
748.737	55.91
749.136	55.97
749.534	55.99
749.932	55.94
750.33	55.98
750.727	55.98
751.125	55.97
751.523	55.99
751.921	56.02
752.318	56.02
752.716	56
753.113	56.01
753.511	55.93
753.908	55.92
754.305	55.91
754.703	55.88
755.1	55.84
755.497	55.83
755.894	55.81
756.291	55.75
756.688	55.71
757.085	55.72
757.482	55.67
757.878	55.69
758.275	55.67
758.672	55.68
759.068	55.71
759.465	55.73
759.861	55.71
760.258	55.65
760.654	55.64
761.05	55.63
761.447	55.6
761.843	55.57
762.239	55.55
762.635	55.53
763.031	55.52
763.427	55.46
763.822	55.42
764.218	55.38
764.614	55.38
765.01	55.35
765.405	55.3
765.801	55.26
766.196	55.24
766.592	55.22
766.987	55.23
767.382	55.2
767.778	55.23
768.173	55.22
768.568	55.22
768.963	55.24
769.358	55.22
769.753	55.25
770.148	55.25
770.542	55.24
770.937	55.24
771.332	55.22
771.726	55.23
772.121	55.18
772.515	55.19
772.91	55.21
773.304	55.15
773.699	55.18
774.093	55.13
774.487	55.13
774.881	55.17
775.275	55.18
775.669	55.2
776.063	55.17
776.457	55.2
776.851	55.18
777.245	55.19
777.638	55.2
778.032	55.19
778.425	55.24
778.819	55.23
779.212	55.19
779.606	55.17
779.999	55.16
780.392	55.17
780.786	55.17
781.179	55.18
781.572	55.17
781.965	55.19
782.358	55.13
782.751	55.13
783.143	55.16
783.536	55.19
783.929	55.19
784.322	55.21
784.714	55.22
785.107	55.24
785.499	55.25
785.891	55.28
786.284	55.27
786.676	55.33
787.068	55.31
787.46	55.29
787.852	55.31
788.245	55.33
788.636	55.31
789.028	55.28
789.42	55.26
789.812	55.26
790.204	55.22
790.595	55.25
790.987	55.26
791.378	55.29
791.77	55.3
792.161	55.29
792.553	55.3
792.944	55.34
793.335	55.39
793.726	55.37
794.117	55.36
794.508	55.38
794.899	55.37
795.29	55.36
795.681	55.37
796.072	55.39
796.463	55.34
796.853	55.3
797.244	55.3
797.634	55.26
798.025	55.29
798.415	55.29
798.806	55.3
799.196	55.35
799.586	55.33
799.976	55.31
800.366	55.31
800.756	55.39
801.146	55.39
801.536	55.4
801.926	55.43
802.316	55.45
802.706	55.51
803.095	55.52
803.485	55.51
803.874	55.53
804.264	55.57
804.653	55.56
805.043	55.54
805.432	55.54
805.821	55.52
806.21	55.54
806.599	55.57
806.988	55.57
807.377	55.61
807.766	55.62
808.155	55.65
808.544	55.63
808.933	55.62
809.321	55.66
809.71	55.71
810.098	55.73
810.487	55.73
810.875	55.72
811.264	55.72
811.652	55.73
812.04	55.74
812.428	55.78
812.816	55.81
813.204	55.84
813.592	55.82
813.98	55.8
814.368	55.81
814.756	55.85
815.144	55.89
815.531	55.92
815.919	55.93
816.306	55.94
816.694	55.96
817.081	55.96
817.469	55.99
817.856	56.05
818.243	56.1
818.63	56.13
819.017	56.16
819.404	56.14
819.791	56.14
820.178	56.14
820.565	56.16
820.952	56.13
821.339	56.17
821.725	56.22
822.112	56.22
822.498	56.22
822.885	56.21
823.271	56.23
823.657	56.24
824.044	56.22
824.43	56.25
824.816	56.25
825.202	56.25
825.588	56.26
825.974	56.23
826.36	56.21
826.746	56.26
827.132	56.25
827.517	56.23
827.903	56.24
828.289	56.24
828.674	56.19
829.06	56.23
829.445	56.25
829.83	56.23
830.216	56.23
830.601	56.22
830.986	56.19
831.371	56.21
831.756	56.17
832.141	56.17
832.526	56.16
832.911	56.2
833.295	56.15
833.68	56.15
834.065	56.16
834.449	56.13
834.834	56.12
835.218	56.11
835.603	56.07
835.987	56.08
836.371	56.06
836.755	56.05
837.139	56.03
837.524	56.04
837.908	56
838.291	55.96
838.675	55.97
839.059	55.97
839.443	55.97
839.827	55.98
840.21	56
840.594	55.99
840.977	55.98
841.361	55.97
841.744	55.97
842.127	55.97
842.511	55.98
842.894	55.96
843.277	55.98
843.66	55.99
844.043	55.99
844.426	55.98
844.809	55.98
845.191	55.97
845.574	55.97
845.957	55.93
846.339	55.92
846.722	55.93
847.104	55.95
847.487	55.94
847.869	55.9
848.252	55.88
848.634	55.9
849.016	55.91
849.398	55.92
849.78	55.9
850.162	55.92
850.544	55.96
850.926	55.97
851.307	55.99
851.689	55.98
852.071	56
852.452	56
852.834	55.96
853.215	55.95
853.597	55.96
853.978	55.95
854.359	55.95
854.741	55.95
855.122	55.95
855.503	55.92
855.884	55.91
856.265	55.9
856.646	55.93
857.026	55.97
857.407	55.94
857.788	55.96
858.169	55.97
858.549	55.99
858.93	55.97
859.31	55.93
859.69	55.93
860.071	55.94
860.451	55.93
860.831	55.91
861.211	55.9
861.591	55.94
861.971	55.93
862.351	55.92
862.731	55.92
863.111	55.92
863.491	55.94
863.87	55.94
864.25	55.96
864.629	55.96
865.009	55.99
865.388	55.99
865.768	55.96
866.147	55.95
866.526	55.94
866.905	55.94
867.284	55.94
867.663	55.93
868.042	55.92
868.421	55.86
868.8	55.86
869.179	55.84
869.558	55.85
869.936	55.84
870.315	55.84
870.693	55.86
871.072	55.83
871.45	55.81
871.828	55.81
872.207	55.83
872.585	55.85
872.963	55.81
873.341	55.8
873.719	55.78
874.097	55.8
874.475	55.78
874.853	55.78
875.23	55.78
875.608	55.82
875.986	55.8
876.363	55.8
876.741	55.78
877.118	55.79
877.495	55.81
877.873	55.79
878.25	55.74
878.627	55.77
879.004	55.76
879.381	55.76
879.758	55.73
880.135	55.72
880.512	55.71
880.889	55.71
881.265	55.72
881.642	55.68
882.019	55.7
882.395	55.72
882.772	55.69
883.148	55.71
883.524	55.71
883.901	55.68
884.277	55.69
884.653	55.69
885.029	55.7
885.405	55.65
885.781	55.64
886.157	55.64
886.532	55.65
886.908	55.68
887.284	55.68
887.659	55.68
888.035	55.68
888.411	55.65
888.786	55.64
889.161	55.63
889.537	55.65
889.912	55.66
890.287	55.64
890.662	55.59
891.037	55.54
891.412	55.47
891.787	55.44
892.162	55.45
892.536	55.45
892.911	55.42
893.286	55.37
893.66	55.37
894.035	55.35
894.409	55.33
894.784	55.33
895.158	55.33
895.532	55.32
895.906	55.31
896.281	55.28
896.655	55.25
897.029	55.23
897.402	55.25
897.776	55.21
898.15	55.21
898.524	55.21
898.898	55.18
899.271	55.16
899.645	55.14
900.018	55.14
900.392	55.13
900.765	55.14
901.138	55.17
901.511	55.15
901.884	55.14
902.258	55.13
902.631	55.12
903.003	55.1
903.376	55.08
903.749	55.09
904.122	55.07
904.495	55.08
904.867	55.06
905.24	55.04
905.612	55.01
905.985	54.98
906.357	54.95
906.729	54.93
907.102	54.95
907.474	54.96
907.846	54.92
908.218	54.91
908.59	54.85
908.962	54.81
909.334	54.82
909.705	54.82
910.077	54.79
910.449	54.83
910.82	54.82
911.192	54.83
911.563	54.8
911.935	54.78
912.306	54.76
912.677	54.77
913.048	54.76
913.419	54.71
913.79	54.68
914.161	54.72
914.532	54.69
914.903	54.71
915.274	54.69
915.645	54.71
916.015	54.69
916.386	54.66
916.756	54.64
917.127	54.64
917.497	54.67
917.868	54.67
918.238	54.66
918.608	54.68
918.978	54.64
919.348	54.59
919.718	54.56
920.088	54.57
920.458	54.62
920.828	54.67
921.198	54.69
921.567	54.67
921.937	54.69
922.306	54.66
922.676	54.64
923.045	54.61
923.415	54.61
923.784	54.61
924.153	54.57
924.522	54.53
924.891	54.48
925.26	54.46
925.629	54.45
925.998	54.4
926.367	54.37
926.736	54.35
927.104	54.32
927.473	54.33
927.842	54.29
928.21	54.31
928.578	54.27
928.947	54.24
929.315	54.2
929.683	54.23
930.051	54.17
930.42	54.15
930.788	54.14
931.156	54.13
931.523	54.05
931.891	53.97
932.259	53.88
932.627	53.79
932.994	53.74
933.362	53.64
933.729	53.47
934.097	53.39
934.464	53.32
934.831	53.19
935.199	53.04
935.566	52.95
935.933	52.92
936.3	52.78
936.667	52.74
937.034	52.56
937.401	52.48
937.767	52.48
938.134	52.43
938.501	52.34
938.867	52.38
939.234	52.45
939.6	52.45
939.967	52.5
940.333	52.69
940.699	52.77
941.065	52.95
941.431	53.08
941.798	53.11
942.163	53.24
942.529	53.38
942.895	53.48
943.261	53.57
943.627	53.68
943.992	53.76
944.358	53.81
944.723	53.9
945.089	53.93
945.454	54.03
945.82	54.12
946.185	54.22
946.55	54.21
946.915	54.23
947.28	54.18
947.645	54.23
948.01	54.2
948.375	54.19
948.74	54.06
949.104	54.11
949.469	53.96
949.834	53.88
950.198	53.73
950.562	53.7
950.927	53.58
951.291	53.56
951.655	53.55
952.02	53.5
952.384	53.44
952.748	53.46
953.112	53.34
953.476	53.4
953.839	53.44
954.203	53.42
954.567	53.32
954.931	53.3
955.294	53.28
955.658	53.17
956.021	53.15
956.385	53.1
956.748	53.09
957.111	53.06
957.474	52.99
957.837	52.96
958.2	52.95
958.563	53.04
958.926	53
959.289	52.95
959.652	52.93
960.015	52.88
960.377	52.9
960.74	52.79
961.102	52.77
961.465	52.79
961.827	52.69
962.189	52.65
962.552	52.55
962.914	52.54
963.276	52.53
963.638	52.47
964	52.4
964.362	52.33
964.724	52.37
965.085	52.31
965.447	52.26
965.809	52.19
966.17	52.2
966.532	52.2
966.893	52.2
967.255	52.13
967.616	52.19
967.977	52.22
968.338	52.2
968.699	52.12
969.061	52.07
969.421	52.03
969.782	52.08
970.143	52
970.504	51.93
970.865	51.81
971.225	51.77
971.586	51.77
971.946	51.75
972.307	51.72
972.667	51.74
973.027	51.81
973.388	51.82
973.748	51.81
974.108	51.8
974.468	51.8
974.828	51.82
975.188	51.87
975.548	51.83
975.907	51.84
976.267	51.88
976.627	51.83
976.986	51.8
977.346	51.74
977.705	51.71
978.064	51.7
978.424	51.65
978.783	51.68
979.142	51.65
979.501	51.53
979.86	51.51
980.219	51.34
980.578	51.36
980.937	51.41
981.296	51.44
981.654	51.45
982.013	51.46
982.371	51.45
982.73	51.39
983.088	51.34
983.447	51.43
983.805	51.37
984.163	51.51
984.521	51.44
984.879	51.34
985.237	51.29
985.595	51.29
985.953	51.26
986.311	51.39
986.669	51.46
987.026	51.49
987.384	51.38
987.741	51.32
988.099	51.25
988.456	51.29
988.814	51.34
989.171	51.25
989.528	51.15
989.885	51.07
990.242	51.05
990.599	51.04
990.956	51.01
991.313	51.06
991.67	51.15
992.027	51.09
992.383	51.15
992.74	51.15
993.096	51.22
993.453	51.32
993.809	51.37
994.165	51.23
994.522	51.14
994.878	51.1
995.234	51.16
995.59	51.03
995.946	51.14
996.302	51.03
996.658	50.99
997.013	50.93
997.369	50.9
997.725	50.97
998.08	50.96
998.436	51.05
998.791	50.98
999.147	50.84
999.502	50.93
999.857	50.91
1000.212	50.88
1000.567	51.01
1000.922	51.09
1001.277	51.05
1001.632	51.08
1001.987	51.07
1002.342	50.88
1002.696	50.92
1003.051	50.85
1003.406	50.67
1003.76	50.67
1004.114	50.67
1004.469	50.38
1004.823	50.24
1005.177	50.32
1005.531	50.03
1005.885	49.93
1006.239	50
1006.593	50.02
1006.947	49.94
1007.301	50.08
1007.655	50.01
1008.008	49.9
1008.362	50.09
1008.715	50.01
1009.069	49.74
1009.422	49.7
1009.776	49.84
1010.129	49.56
1010.482	49.6
1010.835	49.84
1011.188	49.59
1011.541	49.38
1011.894	49.44
1012.247	49.04
1012.6	49.15
1012.952	49.28
1013.305	49.3
1013.657	49.24
1014.01	49.38
1014.362	49.47
1014.715	49.32
1015.067	49.5
1015.419	49.69
1015.771	49.81
1016.123	49.82
1016.475	49.74
1016.827	49.88
1017.179	49.94
1017.531	49.83
1017.883	50.11
1018.234	49.56
1018.586	49.35
1018.938	49.02
1019.289	48.91
1019.64	48.95
1019.992	49.09
1020.343	48.69
1020.694	48.3
1021.045	48.18
1021.396	48.25
1021.747	47.92
1022.098	48.55
1022.449	48.86
1022.8	48.97
1023.151	48.71
1023.501	48.77
1023.852	48.73
1024.202	49.03
1024.553	48.86
1024.903	48.77
1025.253	48.66
1025.604	48.57
1025.954	48.06
1026.304	48.25
1026.654	48.33
1027.004	48.38
1027.354	48.05
1027.703	47.84
1028.053	47.79
1028.403	47.68
1028.753	47.7
1029.102	48
1029.452	48.39
1029.801	48.8
1030.15	48.46
1030.499	48.49
897.758	212.82
901.051	210.01
904.343	216.52
907.636	210.93
910.928	210.89
914.22	206.93
917.511	201.33
920.803	193.77
924.094	184
927.384	189.69
930.675	184.1
933.965	178.4
937.255	181.56
940.544	170.83
943.834	164.64
947.123	160.29
950.411	157.24
953.7	155.54
956.988	152.48
960.276	145.32
963.563	149.64
966.851	141.33
970.138	140.4
973.424	132.63
976.711	131.46
979.997	129.2
983.283	125.34
986.568	123.37
989.853	119.86
993.138	115.85
996.423	117.93
999.708	112.34
1002.992	113.06
1006.275	110.88
1009.559	110.42
1012.842	109.67
1016.125	106
1019.408	105.01
1022.69	106.56
1025.972	105.72
1029.254	104.78
1032.536	103.44
1035.817	100.59
1039.098	98.92
1042.379	98.47
1045.659	98.44
1048.939	95.73
1052.219	96.09
1055.498	95.67
1058.778	92.72
1062.057	91.87
1065.335	91.46
1068.614	90.55
1071.892	89.54
1075.17	90.24
1078.447	88.82
1081.724	87.56
1085.001	85.72
1088.278	87.29
1091.554	86.41
1094.83	85.82
1098.106	85.73
1101.382	84.4
1104.657	84.38
1107.932	85.51
1111.206	85.12
1114.481	83.81
1117.755	82.95
1121.029	84.27
1124.302	81.52
1127.575	81.65
1130.848	81.2
1134.121	79.28
1137.393	79.96
1140.665	78.96
1143.937	77.4
1147.208	75.64
1150.48	75.79
1153.75	75.74
1157.021	74.45
1160.291	74.87
1163.561	73.72
1166.831	74.41
1170.101	75.19
1173.37	73.87
1176.639	73.4
1179.907	72.98
1183.176	73.05
1186.444	73.03
1189.711	72.66
1192.979	73.2
1196.246	73.7
1199.513	74.13
1202.78	72.81
1206.046	72.38
1209.312	73.32
1212.578	73.25
1215.843	74.51
1219.108	74.84
1222.373	75.58
1225.638	76.19
1228.902	77.86
1232.166	77.78
1235.43	77.87
1238.693	80.52
1241.956	81.56
1245.219	83.15
1248.482	84.74
1251.744	83.91
1255.006	85.18
1258.268	82.83
1261.529	82.55
1264.79	81.48
1268.051	81.1
1271.312	81.1
1274.572	80.01
1277.832	79.6
1281.092	78.22
1284.351	76.76
1287.61	76.9
1290.869	76.23
1294.128	76.58
1297.386	76.13
1300.644	75.33
1303.902	74.31
1307.159	73.41
1310.416	73.52
1313.673	73.89
1316.93	74.82
1320.186	75.57
1323.442	75.78
1326.697	75.7
1329.953	75.92
1333.208	77.19
1336.463	79.15
1339.717	81.18
1342.972	84.67
1346.226	85.34
1349.479	84.54
1352.733	86.61
1355.986	86.94
1359.238	88.66
1362.491	89.3
1365.743	90.87
1368.995	94.01
1372.247	93.1
1375.498	91.02
1378.749	91.21
1382	91.22
1385.251	90.35
1388.501	90.07
1391.751	91.01
1395	88.43
1398.25	88.64
1401.499	88.55
1404.748	84.28
1407.996	82.59
1411.244	83.38
1414.492	82.17
1417.74	77.94
1420.987	77.08
1424.234	74.31
1427.481	72.05
1430.728	69.97
1433.974	67.68
1437.22	66.58
1440.465	63.93
1443.711	62.2
1446.956	61.34
1450.201	58.8
1453.445	57.38
1456.689	55.86
1459.933	54.57
1463.177	51.64
1466.42	51.85
1469.663	50.8
1472.906	48.93
1476.148	48.2
1479.391	47.49
1482.633	46.24
1485.874	46.84
1489.115	46.97
1492.356	46.42
1495.597	46.07
1498.838	46.94
1502.078	46.72
1505.318	46.9
1508.557	46.45
1511.797	47.06
1515.036	47.58
1518.274	48.1
1521.513	47.41
1524.751	47.06
1527.989	48.17
1531.227	48.41
1534.464	49.27
1537.701	48.58
1540.938	48.39
1544.174	48.89
1547.41	49.11
1550.646	49.46
1553.882	48.99
1557.117	49.37
1560.352	49.61
1563.587	49.53
1566.821	49.33
1570.055	49.18
1573.289	50.13
1576.523	49.85
1579.756	49.76
1582.989	50.19
1586.222	49.86
1589.454	50.58
1592.686	51
1595.918	50.92
1599.15	50.82
1602.381	50.82
1605.612	51.07
1608.843	50.67
1612.073	51.58
1615.303	52.08
1618.533	51.6
1621.762	50.99
1624.992	50.91
1628.221	50.4
1631.449	51.02
1634.678	51.5
1637.906	51.79
1641.134	51.56
1644.361	51.65
1647.588	51.78
1650.815	51.92
1654.042	52.32
1657.269	52.92
1660.495	53.19
1663.72	52.91
1666.946	53.26
1670.171	53.04
1673.396	53.34
1676.621	53.32
1679.845	54.07
1683.069	52.42
1686.293	52.8
1689.517	52.87
1692.74	53.2
1695.963	53.08
1699.185	53.53
1702.408	52.47
1705.63	52.7
1708.852	52.62
1712.073	52.82
1715.294	51.99
1718.515	54.45
1721.736	53.5
1724.956	53.33
1728.176	53.05
1731.396	52.93
1734.616	53.05
1737.835	53.5
1741.054	53.25
1744.272	52.79
1747.491	52.66
1750.709	53.08
1753.927	52.31
1757.144	52.63
1760.361	52.36
1763.578	52.54
1766.795	52.84
1770.011	52.38
1773.227	52.67
1776.443	52.61
1779.658	52.72
1782.874	52.81
1786.089	51.82
1789.303	51.54
1792.518	52.56
1795.732	52.76
1798.945	53.03
1802.159	52.94
1805.372	53.58
1808.585	53.99
1811.797	53.46
1815.01	54.4
1818.222	54.63
1821.434	55.41
1824.645	54.95
1827.856	54.79
1831.067	54.71
1834.278	55.22
1837.488	55.03
1840.698	55.15
1843.908	54.45
1847.117	55.46
1850.326	55.21
1853.535	55.38
1856.744	55.56
1859.952	55.77
1863.16	55.13
1866.368	54
1869.575	53.29
1872.782	52.65
1875.989	50.56
1879.196	50.38
1882.402	49.28
1885.608	48.75
1888.814	47.31
1892.019	46.63
1895.224	45.46
1898.429	45.42
1901.634	45.34
1904.838	44.72
1908.042	44.88
1911.246	45.35
1914.449	45.23
1917.652	44.54
1920.855	43.99
1924.058	43.54
1927.26	42.2
1930.462	43.7
1933.664	42.45
1936.865	43.4
1940.066	42.53
1943.267	41.86
1946.467	42.61
1949.668	42.21
1952.868	42.44
1956.067	42.43
1959.267	42.82
1962.466	43.56
1965.665	43
1968.863	44.15
1972.061	43.58
1975.259	45.61
1978.457	46.18
1981.654	46.04
1984.852	46.57
1988.048	47.31
1991.245	48.66
1994.441	50.12
1997.637	50.53
2000.833	53.28
2004.028	52.99
2007.223	54.13
2010.418	54.28
2013.613	57.63
2016.807	59.92
2020.001	60.89
2023.194	62.34
2026.388	63.99
2029.581	67.27
2032.774	70.64
2035.966	69.89
2039.158	72.57
2042.35	73.6
2045.542	75.64
2048.733	77.09
2051.924	76.21
2055.115	77.52
2058.306	78.59
2061.496	78.57
2064.686	79.4
2067.875	77.65
2071.065	79.92
2074.254	79.58
2077.442	83.12
2080.631	81.65
2083.819	82.42
2087.007	87.53
2090.195	88.41
2093.382	89.02
2096.569	90.09
2099.756	89.38
2102.942	92.35
2106.128	93.77
2109.314	96.66
2112.5	96.73
2115.685	94.72
2118.87	95.03
2122.055	92.61
2125.239	94.38
2128.424	97.72
2131.608	95.32
2134.791	94.61
2137.974	96.1
2141.157	97.91
2144.34	97.38
2147.523	99.72
2150.705	104.78
2153.887	103.9
2157.068	105.87
2160.25	108.65
2163.431	106.52
2166.611	109.42
2169.792	113.24
2172.972	114.35
2176.152	113.32
2179.331	115.03
2182.511	114.71
2185.69	115.84
2188.868	118.48
2192.047	119.73
2195.225	121.47
2198.403	119
2201.58	119.73
2204.758	122.84
2207.935	120.99
2211.111	123.21
2214.288	123.25
2217.464	125.96
2220.64	128.42
2223.815	126.29
2226.991	128.34
2230.166	127.95
2233.34	137.39
2236.515	136.04
2239.689	133.66
2242.863	137.98
2246.036	134.49
2249.209	137.48
2252.382	135.82
2255.555	140.28
2258.727	143.67
2261.9	145.82
2265.071	144.51
2268.243	141.81
2271.414	150.21
2274.585	153.49
2277.756	152.99
2280.926	156.47
2284.096	155.82
2287.266	155.44
2290.436	154.26
2293.605	158.83
2296.774	162
2299.942	164.56
2303.111	168.6
2306.279	172.71
2309.447	174.69
2312.614	175.25
2315.781	178.29
2318.948	183.02
2322.115	189.15
2325.281	189.48
2328.447	185.66
2331.613	188.2
2334.779	189.88
2337.944	191.47
2341.109	189.96
2344.274	193.87
2347.438	194.05
2350.602	204.86
2353.766	216.12
2356.929	213.27
2360.092	225.48
2363.255	227.44
2366.418	232.5
2369.58	237.71
2372.742	237.02
2375.904	237.83
2379.066	240.4
2382.227	256.77
2385.388	253.54
2388.548	238.74
2391.709	242.35
2394.869	242.06
2398.029	247.17
2401.188	235.62
2404.347	245.11
2407.506	254.27
2410.665	246.91
2413.823	250.71
2416.981	252.63
2420.139	241.77
2423.296	261.06
2426.453	270.74
2429.61	260.96
2432.767	273.37
2435.923	293.65
2439.079	286.37
2442.235	288.91
2445.391	299.06
2448.546	288.75
2451.701	296.25
2454.855	309.67
2458.009	288.65
2461.163	295.22
2464.317	297.72
2467.471	289.91
2470.624	302.14
2473.777	285.92
2476.929	284.86
2480.082	291.41
2483.234	311.04
2486.385	315.71
2489.537	325.54
2492.688	338.79
2495.839	332.63
2498.989	347.54
2502.14	350.11
2505.29	332.82
2508.439	359.68
2511.589	365.38
2514.738	365.96
2517.887	360.89
2521.035	344.98
2524.183	342.23
2527.331	343.82
2530.479	337.59
2533.627	337.8
