Data from C_2_dec_oh_4n_046_Splice17_12.txt Node
Date: Sat Feb 29 14:35:55 EST 2020
User: sa697716
Spectrometer: FLMS03696
Trigger mode: 0
Integration Time (sec): 3.180400E-1
Scans to average: 20
Electric dark correction enabled: true
Nonlinearity correction enabled: true
Boxcar width: 5
XAxis mode: Wavelengths
Number of Pixels in Spectrum: 2048
>>>>>Begin Spectral Data<<<<<
187.83	27.21
188.298	13.01
188.766	28.63
189.233	18.43
189.701	26.4
190.169	39.3
190.636	33.26
191.104	23.69
191.571	204.36
192.039	198.47
192.506	-156.61
192.974	3681.28
193.441	-358.75
193.908	143.31
194.375	151.38
194.842	62.43
195.31	79.72
195.777	61.8
196.244	36.45
196.711	38.91
197.177	36.06
197.644	34.36
198.111	33.68
198.578	33.11
199.045	33.94
199.511	34.54
199.978	35.98
200.445	36.12
200.911	36.22
201.378	36.52
201.844	36.8
202.31	37.56
202.777	38.63
203.243	38.9
203.709	39.37
204.176	39.24
204.642	39.2
205.108	39.08
205.574	39.67
206.04	40.03
206.506	39.76
206.972	40.08
207.438	40.26
207.903	39.95
208.369	39.93
208.835	40.21
209.301	40.43
209.766	40.75
210.232	41.04
210.697	40.91
211.163	40.75
211.628	40.92
212.094	40.67
212.559	40.16
213.024	40.29
213.49	40.26
213.955	40.16
214.42	40.1
214.885	39.77
215.35	39.63
215.815	39.42
216.28	39.35
216.745	39.03
217.21	38.74
217.675	38.45
218.14	37.93
218.604	37.38
219.069	36.99
219.534	36.33
219.998	35.84
220.463	35.29
220.927	34.78
221.392	34.28
221.856	33.86
222.32	33.46
222.785	32.99
223.249	32.56
223.713	32.22
224.177	31.79
224.642	31.43
225.106	31.05
225.57	30.72
226.034	30.39
226.497	30.01
226.961	29.63
227.425	29.25
227.889	28.92
228.353	28.58
228.816	28.25
229.28	27.85
229.744	27.51
230.207	27.19
230.671	26.83
231.134	26.52
231.597	26.2
232.061	25.9
232.524	25.61
232.987	25.29
233.45	24.96
233.914	24.64
234.377	24.36
234.84	24.1
235.303	23.83
235.766	23.59
236.229	23.3
236.691	23.04
237.154	22.8
237.617	22.55
238.08	22.34
238.542	22.13
239.005	21.92
239.468	21.7
239.93	21.49
240.393	21.29
240.855	21.06
241.317	20.9
241.78	20.72
242.242	20.53
242.704	20.36
243.166	20.18
243.629	20.02
244.091	19.85
244.553	19.69
245.015	19.52
245.477	19.35
245.939	19.2
246.4	19.04
246.862	18.91
247.324	18.79
247.786	18.64
248.247	18.5
248.709	18.34
249.17	18.22
249.632	18.07
250.093	17.95
250.555	17.83
251.016	17.72
251.477	17.6
251.939	17.47
252.4	17.35
252.861	17.24
253.322	17.13
253.783	17.04
254.244	16.93
254.705	16.85
255.166	16.76
255.627	16.67
256.088	16.57
256.549	16.48
257.009	16.41
257.47	16.32
257.931	16.22
258.391	16.13
258.852	16.04
259.312	15.96
259.773	15.88
260.233	15.8
260.694	15.72
261.154	15.65
261.614	15.57
262.074	15.49
262.534	15.41
262.994	15.34
263.455	15.28
263.915	15.22
264.374	15.15
264.834	15.09
265.294	15.02
265.754	14.95
266.214	14.89
266.673	14.84
267.133	14.77
267.593	14.72
268.052	14.67
268.512	14.62
268.971	14.56
269.431	14.51
269.89	14.47
270.349	14.42
270.809	14.38
271.268	14.33
271.727	14.27
272.186	14.23
272.645	14.17
273.104	14.11
273.563	14.07
274.022	14.01
274.481	13.96
274.94	13.89
275.399	13.84
275.857	13.8
276.316	13.74
276.775	13.69
277.233	13.63
277.692	13.59
278.15	13.53
278.609	13.46
279.067	13.41
279.525	13.35
279.984	13.31
280.442	13.25
280.9	13.19
281.358	13.14
281.816	13.07
282.274	13.02
282.732	12.97
283.19	12.93
283.648	12.89
284.106	12.85
284.564	12.83
285.021	12.78
285.479	12.75
285.937	12.71
286.394	12.68
286.852	12.65
287.309	12.62
287.767	12.59
288.224	12.55
288.682	12.51
289.139	12.47
289.596	12.41
290.053	12.36
290.511	12.31
290.968	12.26
291.425	12.21
291.882	12.16
292.339	12.11
292.796	12.06
293.252	12.01
293.709	11.96
294.166	11.91
294.623	11.86
295.079	11.81
295.536	11.78
295.992	11.74
296.449	11.7
296.905	11.65
297.362	11.62
297.818	11.59
298.274	11.55
298.731	11.52
299.187	11.49
299.643	11.46
300.099	11.44
300.555	11.39
301.011	11.36
301.467	11.32
301.923	11.29
302.379	11.25
302.835	11.22
303.291	11.18
303.746	11.16
304.202	11.12
304.658	11.08
305.113	11.04
305.569	11.02
306.024	10.99
306.479	10.97
306.935	10.94
307.39	10.91
307.845	10.9
308.301	10.88
308.756	10.86
309.211	10.84
309.666	10.83
310.121	10.8
310.576	10.79
311.031	10.77
311.486	10.75
311.94	10.73
312.395	10.72
312.85	10.69
313.305	10.66
313.759	10.64
314.214	10.63
314.668	10.61
315.123	10.61
315.577	10.58
316.032	10.57
316.486	10.55
316.94	10.52
317.394	10.49
317.849	10.47
318.303	10.45
318.757	10.42
319.211	10.38
319.665	10.36
320.119	10.32
320.572	10.31
321.026	10.29
321.48	10.26
321.934	10.24
322.387	10.22
322.841	10.19
323.295	10.16
323.748	10.13
324.202	10.11
324.655	10.09
325.108	10.06
325.562	10.03
326.015	9.99
326.468	9.96
326.921	9.93
327.374	9.89
327.827	9.87
328.28	9.85
328.733	9.83
329.186	9.8
329.639	9.77
330.092	9.76
330.545	9.74
330.997	9.72
331.45	9.7
331.903	9.69
332.355	9.67
332.808	9.67
333.26	9.66
333.713	9.66
334.165	9.65
334.617	9.65
335.069	9.64
335.522	9.64
335.974	9.64
336.426	9.64
336.878	9.64
337.33	9.64
337.782	9.63
338.234	9.62
338.686	9.6
339.137	9.59
339.589	9.58
340.041	9.56
340.493	9.54
340.944	9.51
341.396	9.49
341.847	9.45
342.299	9.42
342.75	9.37
343.201	9.35
343.653	9.32
344.104	9.29
344.555	9.26
345.006	9.22
345.457	9.19
345.908	9.18
346.359	9.17
346.81	9.15
347.261	9.13
347.712	9.13
348.163	9.11
348.613	9.1
349.064	9.07
349.515	9.06
349.965	9.04
350.416	9.04
350.866	9.03
351.317	9.01
351.767	9
352.217	8.99
352.668	8.98
353.118	8.97
353.568	8.96
354.018	8.96
354.468	8.95
354.918	8.96
355.368	8.95
355.818	8.93
356.268	8.94
356.718	8.93
357.168	8.92
357.617	8.91
358.067	8.89
358.517	8.87
358.966	8.87
359.416	8.87
359.865	8.85
360.315	8.84
360.764	8.84
361.213	8.81
361.663	8.8
362.112	8.79
362.561	8.79
363.01	8.79
363.459	8.79
363.908	8.78
364.357	8.77
364.806	8.76
365.255	8.76
365.703	8.74
366.152	8.73
366.601	8.73
367.05	8.72
367.498	8.72
367.947	8.71
368.395	8.71
368.844	8.7
369.292	8.68
369.74	8.68
370.189	8.67
370.637	8.68
371.085	8.68
371.533	8.68
371.981	8.67
372.429	8.64
372.877	8.63
373.325	8.61
373.773	8.59
374.221	8.58
374.669	8.56
375.116	8.55
375.564	8.54
376.012	8.52
376.459	8.5
376.907	8.5
377.354	8.5
377.801	8.5
378.249	8.5
378.696	8.51
379.143	8.5
379.591	8.51
380.038	8.51
380.485	8.5
380.932	8.5
381.379	8.5
381.826	8.49
382.273	8.49
382.72	8.5
383.166	8.49
383.613	8.49
384.06	8.5
384.506	8.48
384.953	8.48
385.4	8.49
385.846	8.5
386.292	8.51
386.739	8.52
387.185	8.54
387.631	8.55
388.078	8.57
388.524	8.56
388.97	8.56
389.416	8.57
389.862	8.56
390.308	8.57
390.754	8.56
391.2	8.57
391.645	8.57
392.091	8.56
392.537	8.57
392.983	8.58
393.428	8.61
393.874	8.62
394.319	8.64
394.765	8.65
395.21	8.65
395.655	8.67
396.101	8.68
396.546	8.71
396.991	8.72
397.436	8.72
397.881	8.72
398.326	8.74
398.771	8.76
399.216	8.79
399.661	8.82
400.106	8.86
400.551	8.88
400.995	8.87
401.44	8.87
401.885	8.87
402.329	8.88
402.774	8.89
403.218	8.89
403.663	8.89
404.107	8.9
404.551	8.91
404.995	8.91
405.44	8.92
405.884	8.94
406.328	8.96
406.772	8.99
407.216	9.02
407.66	9.04
408.104	9.06
408.547	9.09
408.991	9.08
409.435	9.07
409.879	9.07
410.322	9.08
410.766	9.07
411.209	9.09
411.653	9.1
412.096	9.08
412.54	9.08
412.983	9.07
413.426	9.06
413.869	9.08
414.312	9.12
414.756	9.14
415.199	9.17
415.642	9.2
416.085	9.21
416.527	9.22
416.97	9.25
417.413	9.24
417.856	9.23
418.298	9.22
418.741	9.23
419.184	9.21
419.626	9.21
420.069	9.2
420.511	9.19
420.953	9.19
421.396	9.19
421.838	9.18
422.28	9.22
422.722	9.25
423.164	9.26
423.606	9.27
424.048	9.29
424.49	9.32
424.932	9.32
425.374	9.32
425.816	9.32
426.258	9.3
426.699	9.26
427.141	9.22
427.582	9.2
428.024	9.22
428.465	9.21
428.907	9.22
429.348	9.22
429.789	9.21
430.231	9.21
430.672	9.21
431.113	9.23
431.554	9.26
431.995	9.27
432.436	9.29
432.877	9.27
433.318	9.27
433.759	9.24
434.2	9.23
434.64	9.24
435.081	9.23
435.522	9.26
435.962	9.25
436.403	9.28
436.843	9.32
437.284	9.34
437.724	9.37
438.164	9.37
438.604	9.4
439.045	9.4
439.485	9.41
439.925	9.44
440.365	9.44
440.805	9.45
441.245	9.44
441.685	9.44
442.125	9.44
442.564	9.45
443.004	9.48
443.444	9.5
443.883	9.51
444.323	9.52
444.762	9.53
445.202	9.56
445.641	9.58
446.081	9.6
446.52	9.6
446.959	9.61
447.398	9.66
447.837	9.68
448.276	9.69
448.716	9.73
449.154	9.75
449.593	9.77
450.032	9.78
450.471	9.8
450.91	9.82
451.349	9.82
451.787	9.82
452.226	9.78
452.664	9.76
453.103	9.76
453.541	9.75
453.98	9.73
454.418	9.7
454.856	9.68
455.295	9.65
455.733	9.64
456.171	9.65
456.609	9.63
457.047	9.63
457.485	9.62
457.923	9.59
458.361	9.56
458.798	9.57
459.236	9.57
459.674	9.59
460.111	9.59
460.549	9.57
460.987	9.54
461.424	9.54
461.862	9.54
462.299	9.53
462.736	9.55
463.173	9.55
463.611	9.54
464.048	9.55
464.485	9.52
464.922	9.53
465.359	9.54
465.796	9.53
466.233	9.53
466.67	9.52
467.106	9.53
467.543	9.53
467.98	9.54
468.416	9.55
468.853	9.56
469.29	9.59
469.726	9.61
470.162	9.59
470.599	9.61
471.035	9.62
471.471	9.62
471.907	9.62
472.344	9.62
472.78	9.63
473.216	9.62
473.652	9.61
474.088	9.61
474.523	9.58
474.959	9.58
475.395	9.59
475.831	9.59
476.266	9.58
476.702	9.58
477.138	9.56
477.573	9.54
478.008	9.55
478.444	9.54
478.879	9.52
479.314	9.52
479.75	9.53
480.185	9.53
480.62	9.52
481.055	9.54
481.49	9.52
481.925	9.52
482.36	9.51
482.795	9.48
483.229	9.47
483.664	9.46
484.099	9.45
484.534	9.43
484.968	9.43
485.403	9.43
485.837	9.41
486.271	9.41
486.706	9.41
487.14	9.43
487.574	9.44
488.009	9.47
488.443	9.47
488.877	9.48
489.311	9.49
489.745	9.48
490.179	9.5
490.613	9.51
491.046	9.54
491.48	9.56
491.914	9.57
492.348	9.6
492.781	9.63
493.215	9.66
493.648	9.71
494.082	9.75
494.515	9.79
494.948	9.84
495.382	9.88
495.815	9.94
496.248	10
496.681	10.05
497.114	10.1
497.547	10.16
497.98	10.22
498.413	10.3
498.846	10.36
499.279	10.46
499.711	10.54
500.144	10.63
500.577	10.73
501.009	10.83
501.442	10.94
501.874	11.06
502.306	11.19
502.739	11.31
503.171	11.45
503.603	11.61
504.036	11.77
504.468	11.93
504.9	12.13
505.332	12.32
505.764	12.52
506.196	12.75
506.627	12.98
507.059	13.23
507.491	13.49
507.923	13.75
508.354	14
508.786	14.28
509.217	14.57
509.649	14.88
510.08	15.18
510.512	15.48
510.943	15.8
511.374	16.12
511.805	16.44
512.237	16.79
512.668	17.15
513.099	17.52
513.53	17.91
513.961	18.29
514.391	18.67
514.822	19.06
515.253	19.46
515.684	19.86
516.114	20.28
516.545	20.7
516.975	21.13
517.406	21.57
517.836	21.98
518.267	22.4
518.697	22.84
519.127	23.26
519.558	23.68
519.988	24.11
520.418	24.53
520.848	24.96
521.278	25.38
521.708	25.74
522.138	26.11
522.567	26.49
522.997	26.88
523.427	27.26
523.857	27.62
524.286	27.99
524.716	28.34
525.145	28.68
525.575	29
526.004	29.31
526.433	29.67
526.863	29.97
527.292	30.27
527.721	30.55
528.15	30.81
528.579	31.08
529.008	31.31
529.437	31.56
529.866	31.79
530.295	32.02
530.724	32.24
531.152	32.41
531.581	32.6
532.01	32.78
532.438	32.96
532.867	33.12
533.295	33.26
533.723	33.42
534.152	33.55
534.58	33.68
535.008	33.78
535.436	33.88
535.865	33.99
536.293	34.08
536.721	34.16
537.149	34.24
537.576	34.31
538.004	34.36
538.432	34.43
538.86	34.48
539.287	34.52
539.715	34.56
540.143	34.61
540.57	34.65
540.998	34.71
541.425	34.75
541.852	34.79
542.28	34.81
542.707	34.87
543.134	34.89
543.561	34.91
543.988	34.97
544.415	35.01
544.842	35.05
545.269	35.1
545.696	35.12
546.123	35.17
546.549	35.21
546.976	35.26
547.403	35.3
547.829	35.37
548.256	35.41
548.682	35.42
549.108	35.48
549.535	35.49
549.961	35.49
550.387	35.51
550.813	35.52
551.24	35.5
551.666	35.49
552.092	35.47
552.518	35.42
552.943	35.41
553.369	35.4
553.795	35.33
554.221	35.3
554.646	35.25
555.072	35.17
555.498	35.1
555.923	35.04
556.349	34.96
556.774	34.87
557.199	34.79
557.625	34.67
558.05	34.51
558.475	34.38
558.9	34.24
559.325	34.1
559.75	33.93
560.175	33.77
560.6	33.6
561.025	33.41
561.449	33.23
561.874	33.02
562.299	32.84
562.723	32.66
563.148	32.47
563.572	32.26
563.997	32.05
564.421	31.84
564.846	31.62
565.27	31.38
565.694	31.15
566.118	30.89
566.542	30.65
566.966	30.39
567.39	30.11
567.814	29.83
568.238	29.55
568.662	29.28
569.086	29.01
569.509	28.74
569.933	28.46
570.357	28.17
570.78	27.92
571.204	27.66
571.627	27.42
572.05	27.2
572.474	26.97
572.897	26.75
573.32	26.52
573.743	26.31
574.166	26.09
574.589	25.9
575.012	25.72
575.435	25.53
575.858	25.35
576.281	25.18
576.704	25.02
577.126	24.86
577.549	24.71
577.972	24.57
578.394	24.41
578.817	24.27
579.239	24.15
579.661	24.02
580.084	23.9
580.506	23.77
580.928	23.64
581.35	23.51
581.772	23.4
582.194	23.29
582.616	23.19
583.038	23.08
583.46	22.97
583.882	22.86
584.303	22.77
584.725	22.66
585.147	22.56
585.568	22.44
585.99	22.34
586.411	22.25
586.833	22.16
587.254	22.08
587.675	22.01
588.096	21.95
588.518	21.88
588.939	21.8
589.36	21.74
589.781	21.69
590.202	21.65
590.623	21.58
591.043	21.52
591.464	21.46
591.885	21.38
592.305	21.33
592.726	21.27
593.147	21.21
593.567	21.14
593.987	21.09
594.408	21.03
594.828	20.99
595.248	20.95
595.669	20.92
596.089	20.88
596.509	20.82
596.929	20.76
597.349	20.71
597.769	20.67
598.189	20.63
598.608	20.57
599.028	20.52
599.448	20.46
599.867	20.38
600.287	20.32
600.706	20.24
601.126	20.17
601.545	20.11
601.965	20.03
602.384	19.96
602.803	19.88
603.222	19.78
603.641	19.7
604.061	19.6
604.48	19.53
604.898	19.44
605.317	19.34
605.736	19.25
606.155	19.16
606.574	19.06
606.992	18.94
607.411	18.84
607.829	18.71
608.248	18.61
608.666	18.51
609.085	18.4
609.503	18.28
609.921	18.16
610.339	18.06
610.758	17.95
611.176	17.85
611.594	17.76
612.012	17.64
612.43	17.6
612.847	17.5
613.265	17.41
613.683	17.31
614.101	17.22
614.518	17.14
614.936	17.05
615.353	16.96
615.771	16.86
616.188	16.78
616.606	16.71
617.023	16.63
617.44	16.55
617.857	16.47
618.274	16.41
618.691	16.36
619.108	16.31
619.525	16.25
619.942	16.22
620.359	16.19
620.776	16.15
621.192	16.11
621.609	16.07
622.026	16.04
622.442	16.01
622.859	15.98
623.275	15.97
623.691	15.94
624.108	15.93
624.524	15.9
624.94	15.88
625.356	15.86
625.772	15.85
626.188	15.83
626.604	15.8
627.02	15.8
627.436	15.79
627.852	15.77
628.268	15.75
628.683	15.73
629.099	15.72
629.514	15.7
629.93	15.68
630.345	15.64
630.761	15.6
631.176	15.56
631.591	15.51
632.007	15.46
632.422	15.41
632.837	15.33
633.252	15.28
633.667	15.19
634.082	15.12
634.497	15.02
634.911	14.93
635.326	14.84
635.741	14.74
636.155	14.64
636.57	14.52
636.984	14.4
637.399	14.29
637.813	14.14
638.228	14.02
638.642	13.89
639.056	13.76
639.47	13.62
639.884	13.48
640.298	13.34
640.712	13.21
641.126	13.08
641.54	12.95
641.954	12.83
642.368	12.7
642.781	12.58
643.195	12.45
643.609	12.33
644.022	12.22
644.436	12.14
644.849	12.04
645.262	11.95
645.676	11.86
646.089	11.76
646.502	11.67
646.915	11.59
647.328	11.51
647.741	11.45
648.154	11.38
648.567	11.33
648.98	11.27
649.393	11.23
649.805	11.19
650.218	11.15
650.631	11.1
651.043	11.07
651.456	11.05
651.868	11.01
652.28	10.99
652.693	10.94
653.105	10.89
653.517	10.85
653.929	10.81
654.341	10.77
654.753	10.7
655.165	10.67
655.577	10.61
655.989	10.55
656.401	10.49
656.813	10.42
657.224	10.38
657.636	10.34
658.047	10.29
658.459	10.23
658.87	10.18
659.282	10.14
659.693	10.06
660.104	10.02
660.515	9.97
660.926	9.93
661.338	9.88
661.749	9.84
662.159	9.79
662.57	9.75
662.981	9.7
663.392	9.66
663.803	9.62
664.213	9.62
664.624	9.61
665.035	9.58
665.445	9.57
665.855	9.56
666.266	9.54
666.676	9.51
667.086	9.51
667.497	9.5
667.907	9.48
668.317	9.47
668.727	9.46
669.137	9.47
669.547	9.48
669.956	9.47
670.366	9.48
670.776	9.48
671.186	9.5
671.595	9.51
672.005	9.52
672.414	9.53
672.824	9.56
673.233	9.58
673.642	9.57
674.052	9.59
674.461	9.61
674.87	9.64
675.279	9.66
675.688	9.69
676.097	9.72
676.506	9.75
676.915	9.78
677.323	9.82
677.732	9.85
678.141	9.89
678.549	9.94
678.958	10
679.366	10.03
679.775	10.08
680.183	10.13
680.592	10.2
681	10.26
681.408	10.34
681.816	10.41
682.224	10.5
682.632	10.61
683.04	10.71
683.448	10.82
683.856	10.97
684.264	11.13
684.671	11.31
685.079	11.49
685.487	11.72
685.894	11.96
686.302	12.23
686.709	12.52
687.116	12.86
687.524	13.23
687.931	13.64
688.338	14.09
688.745	14.58
689.152	15.13
689.559	15.7
689.966	16.29
690.373	16.96
690.78	17.64
691.187	18.4
691.593	19.15
692	19.97
692.407	20.8
692.813	21.68
693.22	22.56
693.626	23.45
694.032	24.39
694.439	25.37
694.845	26.29
695.251	27.28
695.657	28.25
696.063	29.22
696.469	30.2
696.875	31.16
697.281	32.12
697.687	33.13
698.093	34.11
698.498	35.1
698.904	36.06
699.31	37.05
699.715	38.01
700.12	38.97
700.526	39.92
700.931	40.86
701.337	41.84
701.742	42.71
702.147	43.61
702.552	44.51
702.957	45.37
703.362	46.25
703.767	47.08
704.172	47.92
704.577	48.74
704.981	49.55
705.386	50.35
705.791	51.13
706.195	51.93
706.6	52.66
707.004	53.39
707.408	54.11
707.813	54.81
708.217	55.51
708.621	56.19
709.025	56.87
709.43	57.54
709.834	58.23
710.237	58.87
710.641	59.54
711.045	60.18
711.449	60.82
711.853	61.43
712.256	62.06
712.66	62.69
713.064	63.29
713.467	63.89
713.87	64.48
714.274	65.04
714.677	65.63
715.08	66.17
715.484	66.74
715.887	67.28
716.29	67.8
716.693	68.26
717.096	68.78
717.499	69.3
717.901	69.77
718.304	70.24
718.707	70.68
719.109	71.13
719.512	71.64
719.915	72.06
720.317	72.47
720.719	72.92
721.122	73.36
721.524	73.77
721.926	74.18
722.328	74.61
722.731	75.02
723.133	75.4
723.535	75.75
723.937	76.07
724.338	76.43
724.74	76.79
725.142	77.02
725.544	77.34
725.945	77.62
726.347	77.91
726.748	78.12
727.15	78.35
727.551	78.6
727.952	78.86
728.354	79.11
728.755	79.31
729.156	79.58
729.557	79.88
729.958	80.13
730.359	80.32
730.76	80.46
731.161	80.68
731.562	80.94
731.962	81.11
732.363	81.25
732.763	81.41
733.164	81.55
733.564	81.63
733.965	81.78
734.365	81.85
734.766	82
735.166	82.12
735.566	82.2
735.966	82.26
736.366	82.37
736.766	82.5
737.166	82.62
737.566	82.75
737.966	82.86
738.365	82.94
738.765	83.08
739.165	83.14
739.564	83.23
739.964	83.31
740.363	83.4
740.763	83.46
741.162	83.5
741.561	83.58
741.96	83.67
742.36	83.74
742.759	83.78
743.158	83.79
743.557	83.87
743.955	83.99
744.354	84.11
744.753	84.17
745.152	84.24
745.55	84.32
745.949	84.36
746.348	84.38
746.746	84.44
747.144	84.55
747.543	84.61
747.941	84.72
748.339	84.78
748.737	84.85
749.136	84.92
749.534	85
749.932	85.04
750.33	85.13
750.727	85.2
751.125	85.25
751.523	85.28
751.921	85.36
752.318	85.35
752.716	85.32
753.113	85.29
753.511	85.26
753.908	85.23
754.305	85.18
754.703	85.11
755.1	85.06
755.497	85.02
755.894	85
756.291	84.94
756.688	84.93
757.085	84.93
757.482	84.93
757.878	84.94
758.275	84.93
758.672	84.96
759.068	84.97
759.465	84.97
759.861	84.96
760.258	84.94
760.654	84.92
761.05	84.91
761.447	84.87
761.843	84.83
762.239	84.78
762.635	84.78
763.031	84.78
763.427	84.75
763.822	84.71
764.218	84.69
764.614	84.67
765.01	84.7
765.405	84.63
765.801	84.61
766.196	84.61
766.592	84.62
766.987	84.62
767.382	84.61
767.778	84.61
768.173	84.65
768.568	84.61
768.963	84.6
769.358	84.53
769.753	84.58
770.148	84.59
770.542	84.57
770.937	84.57
771.332	84.56
771.726	84.52
772.121	84.49
772.515	84.47
772.91	84.53
773.304	84.54
773.699	84.56
774.093	84.51
774.487	84.51
774.881	84.56
775.275	84.56
775.669	84.55
776.063	84.53
776.457	84.53
776.851	84.53
777.245	84.55
777.638	84.58
778.032	84.59
778.425	84.64
778.819	84.64
779.212	84.62
779.606	84.6
779.999	84.62
780.392	84.67
780.786	84.68
781.179	84.71
781.572	84.69
781.965	84.68
782.358	84.67
782.751	84.68
783.143	84.69
783.536	84.74
783.929	84.76
784.322	84.77
784.714	84.78
785.107	84.83
785.499	84.81
785.891	84.84
786.284	84.82
786.676	84.89
787.068	84.86
787.46	84.86
787.852	84.87
788.245	84.9
788.636	84.94
789.028	84.94
789.42	84.95
789.812	84.99
790.204	84.91
790.595	84.92
790.987	84.93
791.378	84.96
791.77	85.03
792.161	85.03
792.553	85.05
792.944	85.06
793.335	85.08
793.726	85.04
794.117	85.01
794.508	85.07
794.899	85.1
795.29	85.09
795.681	85.14
796.072	85.11
796.463	85.08
796.853	85.06
797.244	85.05
797.634	85.01
798.025	85.05
798.415	85.09
798.806	85.15
799.196	85.2
799.586	85.24
799.976	85.23
800.366	85.27
800.756	85.32
801.146	85.34
801.536	85.37
801.926	85.39
802.316	85.39
802.706	85.42
803.095	85.42
803.485	85.4
803.874	85.41
804.264	85.47
804.653	85.41
805.043	85.4
805.432	85.4
805.821	85.4
806.21	85.49
806.599	85.58
806.988	85.58
807.377	85.58
807.766	85.63
808.155	85.67
808.544	85.63
808.933	85.7
809.321	85.78
809.71	85.91
810.098	85.94
810.487	85.96
810.875	85.95
811.264	86.04
811.652	86.06
812.04	86.05
812.428	86.1
812.816	86.19
813.204	86.17
813.592	86.15
813.98	86.09
814.368	86.12
814.756	86.16
815.144	86.2
815.531	86.19
815.919	86.23
816.306	86.27
816.694	86.28
817.081	86.21
817.469	86.3
817.856	86.35
818.243	86.41
818.63	86.45
819.017	86.47
819.404	86.45
819.791	86.47
820.178	86.5
820.565	86.53
820.952	86.53
821.339	86.6
821.725	86.57
822.112	86.6
822.498	86.6
822.885	86.61
823.271	86.61
823.657	86.65
824.044	86.64
824.43	86.66
824.816	86.69
825.202	86.65
825.588	86.69
825.974	86.7
826.36	86.62
826.746	86.64
827.132	86.58
827.517	86.54
827.903	86.49
828.289	86.49
828.674	86.45
829.06	86.43
829.445	86.48
829.83	86.45
830.216	86.46
830.601	86.51
830.986	86.48
831.371	86.55
831.756	86.53
832.141	86.58
832.526	86.56
832.911	86.6
833.295	86.57
833.68	86.54
834.065	86.54
834.449	86.5
834.834	86.46
835.218	86.43
835.603	86.4
835.987	86.39
836.371	86.36
836.755	86.35
837.139	86.3
837.524	86.29
837.908	86.27
838.291	86.21
838.675	86.2
839.059	86.21
839.443	86.18
839.827	86.15
840.21	86.17
840.594	86.16
840.977	86.14
841.361	86.16
841.744	86.15
842.127	86.14
842.511	86.14
842.894	86.11
843.277	86.13
843.66	86.18
844.043	86.18
844.426	86.17
844.809	86.16
845.191	86.16
845.574	86.11
845.957	86.07
846.339	86.04
846.722	86.07
847.104	86.1
847.487	86.07
847.869	86.01
848.252	86.01
848.634	86.03
849.016	86.03
849.398	86.02
849.78	86
850.162	86.02
850.544	86.07
850.926	86.02
851.307	86.04
851.689	86.04
852.071	86.04
852.452	86.03
852.834	86.01
853.215	86.02
853.597	86.02
853.978	86
854.359	85.98
854.741	85.98
855.122	85.98
855.503	85.99
855.884	85.98
856.265	85.98
856.646	85.97
857.026	85.95
857.407	85.86
857.788	85.92
858.169	85.95
858.549	85.99
858.93	85.98
859.31	85.99
859.69	85.95
860.071	85.97
860.451	85.99
860.831	86.03
861.211	86.03
861.591	86.13
861.971	86.04
862.351	86.05
862.731	86.03
863.111	86.04
863.491	86.04
863.87	86.04
864.25	86.05
864.629	86.01
865.009	85.97
865.388	85.94
865.768	85.9
866.147	85.94
866.526	85.9
866.905	85.89
867.284	85.89
867.663	85.87
868.042	85.87
868.421	85.86
868.8	85.85
869.179	85.87
869.558	85.87
869.936	85.84
870.315	85.85
870.693	85.89
871.072	85.86
871.45	85.86
871.828	85.88
872.207	85.92
872.585	85.91
872.963	85.89
873.341	85.89
873.719	85.91
874.097	85.89
874.475	85.9
874.853	85.88
875.23	85.88
875.608	85.87
875.986	85.81
876.363	85.76
876.741	85.73
877.118	85.76
877.495	85.76
877.873	85.76
878.25	85.76
878.627	85.76
879.004	85.79
879.381	85.82
879.758	85.82
880.135	85.87
880.512	85.92
880.889	85.97
881.265	86
881.642	85.98
882.019	85.98
882.395	86
882.772	85.96
883.148	85.92
883.524	85.92
883.901	85.88
884.277	85.87
884.653	85.84
885.029	85.78
885.405	85.72
885.781	85.67
886.157	85.66
886.532	85.66
886.908	85.68
887.284	85.7
887.659	85.7
888.035	85.68
888.411	85.63
888.786	85.59
889.161	85.64
889.537	85.68
889.912	85.66
890.287	85.67
890.662	85.62
891.037	85.58
891.412	85.55
891.787	85.52
892.162	85.51
892.536	85.51
892.911	85.5
893.286	85.45
893.66	85.37
894.035	85.38
894.409	85.34
894.784	85.32
895.158	85.32
895.532	85.27
895.906	85.21
896.281	85.14
896.655	85.12
897.029	85.07
897.402	85.05
897.776	85.06
898.15	85.03
898.524	84.98
898.898	84.93
899.271	84.91
899.645	84.9
900.018	84.9
900.392	84.95
900.765	85
901.138	85.03
901.511	85.05
901.884	85.06
902.258	85.07
902.631	85.12
903.003	85.16
903.376	85.17
903.749	85.19
904.122	85.22
904.495	85.22
904.867	85.15
905.24	85.14
905.612	85.06
905.985	85
906.357	84.95
906.729	84.93
907.102	84.9
907.474	84.92
907.846	84.91
908.218	84.86
908.59	84.82
908.962	84.82
909.334	84.79
909.705	84.83
910.077	84.83
910.449	84.87
910.82	84.83
911.192	84.82
911.563	84.75
911.935	84.73
912.306	84.72
912.677	84.69
913.048	84.69
913.419	84.69
913.79	84.63
914.161	84.64
914.532	84.62
914.903	84.64
915.274	84.62
915.645	84.64
916.015	84.65
916.386	84.61
916.756	84.62
917.127	84.59
917.497	84.55
917.868	84.61
918.238	84.62
918.608	84.59
918.978	84.54
919.348	84.51
919.718	84.51
920.088	84.51
920.458	84.54
920.828	84.52
921.198	84.5
921.567	84.5
921.937	84.45
922.306	84.36
922.676	84.35
923.045	84.3
923.415	84.31
923.784	84.31
924.153	84.29
924.522	84.27
924.891	84.26
925.26	84.26
925.629	84.2
925.998	84.15
926.367	84.17
926.736	84.09
927.104	84.15
927.473	84.1
927.842	83.97
928.21	83.92
928.578	83.83
928.947	83.74
929.315	83.67
929.683	83.69
930.051	83.64
930.42	83.61
930.788	83.57
931.156	83.45
931.523	83.4
931.891	83.29
932.259	83.08
932.627	82.98
932.994	82.88
933.362	82.76
933.729	82.6
934.097	82.5
934.464	82.29
934.831	82.2
935.199	82.08
935.566	81.87
935.933	81.82
936.3	81.77
936.667	81.68
937.034	81.58
937.401	81.5
937.767	81.42
938.134	81.37
938.501	81.3
938.867	81.24
939.234	81.19
939.6	81.28
939.967	81.28
940.333	81.42
940.699	81.52
941.065	81.67
941.431	81.79
941.798	81.94
942.163	82.07
942.529	82.28
942.895	82.45
943.261	82.55
943.627	82.62
943.992	82.73
944.358	82.71
944.723	82.7
945.089	82.76
945.454	82.78
945.82	82.75
946.185	82.83
946.55	82.99
946.915	82.97
947.28	82.98
947.645	83.07
948.01	83.16
948.375	83.2
948.74	83.13
949.104	83.12
949.469	83.03
949.834	82.98
950.198	82.81
950.562	82.64
950.927	82.64
951.291	82.56
951.655	82.48
952.02	82.42
952.384	82.49
952.748	82.54
953.112	82.49
953.476	82.51
953.839	82.43
954.203	82.35
954.567	82.31
954.931	82.18
955.294	82.15
955.658	82.02
956.021	81.93
956.385	81.84
956.748	81.85
957.111	81.74
957.474	81.74
957.837	81.8
958.2	81.77
958.563	81.73
958.926	81.7
959.289	81.69
959.652	81.69
960.015	81.65
960.377	81.48
960.74	81.35
961.102	81.35
961.465	81.3
961.827	81.1
962.189	81.07
962.552	80.92
962.914	80.81
963.276	80.72
963.638	80.65
964	80.57
964.362	80.57
964.724	80.52
965.085	80.47
965.447	80.32
965.809	80.28
966.17	80.22
966.532	80.28
966.893	80.32
967.255	80.27
967.616	80.25
967.977	80.26
968.338	80.29
968.699	80.24
969.061	80.14
969.421	80.08
969.782	80.1
970.143	80.09
970.504	80.05
970.865	79.9
971.225	79.92
971.586	79.94
971.946	79.88
972.307	79.67
972.667	79.65
973.027	79.75
973.388	79.73
973.748	79.79
974.108	79.75
974.468	79.7
974.828	79.75
975.188	79.76
975.548	79.69
975.907	79.7
976.267	79.79
976.627	79.8
976.986	79.73
977.346	79.78
977.705	79.71
978.064	79.76
978.424	79.77
978.783	79.8
979.142	79.72
979.501	79.64
979.86	79.56
980.219	79.5
980.578	79.4
980.937	79.44
981.296	79.36
981.654	79.42
982.013	79.34
982.371	79.27
982.73	79.2
983.088	79.15
983.447	79.24
983.805	79.15
984.163	79.1
984.521	79.04
984.879	78.96
985.237	78.92
985.595	78.84
985.953	78.81
986.311	78.86
986.669	78.95
987.026	78.95
987.384	78.88
987.741	78.9
988.099	78.89
988.456	78.95
988.814	78.95
989.171	78.98
989.528	78.82
989.885	78.71
990.242	78.74
990.599	78.66
990.956	78.58
991.313	78.61
991.67	78.59
992.027	78.48
992.383	78.5
992.74	78.5
993.096	78.38
993.453	78.4
993.809	78.44
994.165	78.36
994.522	78.23
994.878	78.16
995.234	78.06
995.59	77.98
995.946	78.08
996.302	78.01
996.658	77.92
997.013	77.97
997.369	78.02
997.725	78.02
998.08	77.92
998.436	77.96
998.791	77.98
999.147	77.97
999.502	77.96
999.857	77.9
1000.212	77.79
1000.567	77.8
1000.922	77.78
1001.277	77.6
1001.632	77.62
1001.987	77.62
1002.342	77.63
1002.696	77.77
1003.051	77.73
1003.406	77.66
1003.76	77.61
1004.114	77.68
1004.469	77.71
1004.823	77.73
1005.177	77.95
1005.531	77.81
1005.885	77.96
1006.239	77.95
1006.593	77.91
1006.947	77.81
1007.301	77.96
1007.655	77.88
1008.008	77.86
1008.362	77.75
1008.715	77.62
1009.069	77.35
1009.422	77.21
1009.776	77.02
1010.129	76.83
1010.482	76.68
1010.835	76.83
1011.188	76.55
1011.541	76.48
1011.894	76.19
1012.247	75.93
1012.6	75.81
1012.952	75.79
1013.305	75.82
1013.657	75.73
1014.01	75.64
1014.362	75.67
1014.715	75.29
1015.067	75.3
1015.419	75.39
1015.771	75.74
1016.123	75.85
1016.475	76.15
1016.827	76.35
1017.179	76.52
1017.531	76.57
1017.883	76.68
1018.234	76.62
1018.586	76.91
1018.938	76.71
1019.289	76.59
1019.64	76.66
1019.992	76.65
1020.343	76.36
1020.694	76.01
1021.045	76.02
1021.396	75.67
1021.747	75.2
1022.098	74.82
1022.449	74.64
1022.8	74.76
1023.151	74.82
1023.501	74.33
1023.852	74.33
1024.202	74.16
1024.553	74.06
1024.903	73.63
1025.253	73.58
1025.604	73.83
1025.954	73.71
1026.304	73.76
1026.654	74.05
1027.004	74.02
1027.354	74.15
1027.703	73.53
1028.053	73.29
1028.403	73.1
1028.753	73.52
1029.102	73.62
1029.452	73.78
1029.801	74
1030.15	73.79
1030.499	73.51
897.758	481.51
901.051	488.11
904.343	496.23
907.636	490.29
910.928	482.27
914.22	493.45
917.511	481.89
920.803	466.44
924.094	444.84
927.384	452.17
930.675	438.17
933.965	433.71
937.255	434.21
940.544	415.24
943.834	396.24
947.123	389.97
950.411	369.77
953.7	365.15
956.988	353.79
960.276	340.88
963.563	338.04
966.851	319.35
970.138	316.09
973.424	296.28
976.711	292.17
979.997	285.32
983.283	280.08
986.568	270.55
989.853	262.58
993.138	253.49
996.423	251.98
999.708	243.85
1002.992	246.25
1006.275	238.73
1009.559	237.73
1012.842	231.78
1016.125	224.8
1019.408	220.41
1022.69	219.88
1025.972	218.41
1029.254	215.18
1032.536	211.19
1035.817	204.06
1039.098	201.02
1042.379	198.47
1045.659	195.71
1048.939	195.89
1052.219	192.77
1055.498	189.88
1058.778	186.5
1062.057	184.95
1065.335	183.53
1068.614	181.32
1071.892	181.08
1075.17	178.72
1078.447	175.74
1081.724	174.82
1085.001	169.44
1088.278	170.79
1091.554	170.56
1094.83	169.41
1098.106	167.09
1101.382	166.1
1104.657	165.86
1107.932	164.89
1111.206	163.49
1114.481	161.89
1117.755	161.11
1121.029	162.43
1124.302	159.23
1127.575	156.51
1130.848	156.44
1134.121	154.79
1137.393	154.59
1140.665	153.35
1143.937	151.93
1147.208	150.99
1150.48	150.63
1153.75	148.91
1157.021	148.12
1160.291	147.62
1163.561	147.75
1166.831	147.14
1170.101	145.94
1173.37	145.52
1176.639	143.93
1179.907	143.71
1183.176	143.02
1186.444	143.78
1189.711	142.8
1192.979	142.2
1196.246	142.72
1199.513	142.86
1202.78	142.11
1206.046	142.62
1209.312	142.72
1212.578	144.14
1215.843	146.08
1219.108	146.47
1222.373	147.49
1225.638	150.23
1228.902	153.03
1232.166	157.36
1235.43	159.34
1238.693	162.59
1241.956	166.11
1245.219	169.42
1248.482	170.06
1251.744	169.57
1255.006	170.36
1258.268	167.05
1261.529	165.88
1264.79	161.99
1268.051	158.73
1271.312	157.46
1274.572	154.89
1277.832	150.89
1281.092	149.56
1284.351	146.78
1287.61	146.41
1290.869	146.19
1294.128	145.74
1297.386	145.47
1300.644	145.16
1303.902	144.12
1307.159	142.99
1310.416	144.34
1313.673	146.51
1316.93	147.04
1320.186	149.02
1323.442	150.15
1326.697	152.35
1329.953	152.49
1333.208	155.43
1336.463	161.19
1339.717	163.89
1342.972	170.47
1346.226	173.42
1349.479	174.23
1352.733	179.65
1355.986	184.24
1359.238	188.24
1362.491	188.6
1365.743	195.4
1368.995	198.14
1372.247	196.65
1375.498	195.6
1378.749	200.53
1382	201.37
1385.251	198.97
1388.501	198.79
1391.751	199.2
1395	195.8
1398.25	197.7
1401.499	195.95
1404.748	193.27
1407.996	188.44
1411.244	188.53
1414.492	184.8
1417.74	180
1420.987	177.28
1424.234	173.53
1427.481	167.07
1430.728	164.32
1433.974	158.55
1437.22	155.05
1440.465	150.23
1443.711	147.2
1446.956	143.13
1450.201	138.11
1453.445	132.21
1456.689	129.2
1459.933	124.93
1463.177	120.45
1466.42	118.74
1469.663	115.91
1472.906	112.14
1476.148	110
1479.391	108.22
1482.633	106.52
1485.874	105.93
1489.115	104.78
1492.356	103.38
1495.597	102.52
1498.838	102.65
1502.078	101.54
1505.318	101.41
1508.557	100.75
1511.797	100.06
1515.036	100.24
1518.274	99.89
1521.513	98.97
1524.751	98.58
1527.989	100.56
1531.227	100.3
1534.464	100.41
1537.701	99.84
1540.938	99.62
1544.174	100.53
1547.41	100.94
1550.646	100.93
1553.882	101.12
1557.117	101.06
1560.352	101.21
1563.587	99.66
1566.821	100.02
1570.055	99.34
1573.289	100.03
1576.523	99.98
1579.756	99.56
1582.989	99.54
1586.222	99.1
1589.454	100.04
1592.686	99.88
1595.918	99.49
1599.15	99.67
1602.381	99.83
1605.612	100.38
1608.843	99.77
1612.073	100.99
1615.303	100.89
1618.533	100.54
1621.762	101.29
1624.992	100.42
1628.221	100.4
1631.449	101.51
1634.678	101.07
1637.906	101.42
1641.134	101.38
1644.361	101.85
1647.588	101.08
1650.815	101.86
1654.042	102.24
1657.269	101.94
1660.495	102.57
1663.72	102.63
1666.946	102.58
1670.171	103.6
1673.396	103.54
1676.621	103.96
1679.845	104.24
1683.069	104.12
1686.293	103.52
1689.517	103.9
1692.74	104.01
1695.963	103.51
1699.185	104.44
1702.408	103.86
1705.63	103.42
1708.852	104.62
1712.073	103.79
1715.294	103.59
1718.515	104.02
1721.736	104.12
1724.956	104.53
1728.176	104.07
1731.396	104.86
1734.616	104.48
1737.835	104.74
1741.054	105.11
1744.272	104.01
1747.491	104.19
1750.709	105.07
1753.927	105.06
1757.144	105.46
1760.361	104.96
1763.578	106.22
1766.795	106.2
1770.011	106.66
1773.227	107.38
1776.443	107.58
1779.658	107.15
1782.874	108.47
1786.089	107.63
1789.303	107.74
1792.518	108.23
1795.732	109.08
1798.945	109.36
1802.159	109.49
1805.372	110.26
1808.585	110.68
1811.797	111.51
1815.01	112.94
1818.222	113.24
1821.434	113.85
1824.645	114.82
1827.856	115.89
1831.067	116.12
1834.278	117
1837.488	117.72
1840.698	118.51
1843.908	118.3
1847.117	118.96
1850.326	119.75
1853.535	120.76
1856.744	121.59
1859.952	122.1
1863.16	121.73
1866.368	120.79
1869.575	119.85
1872.782	119.38
1875.989	117.74
1879.196	117.79
1882.402	116.61
1885.608	116.15
1888.814	114.31
1892.019	114.57
1895.224	112.54
1898.429	113.25
1901.634	113.23
1904.838	113.88
1908.042	114.14
1911.246	113.51
1914.449	113.27
1917.652	113.01
1920.855	112.62
1924.058	112.16
1927.26	111.23
1930.462	112.33
1933.664	111.79
1936.865	112.56
1940.066	110.29
1943.267	110.43
1946.467	111.04
1949.668	110.75
1952.868	111.51
1956.067	112.12
1959.267	112.01
1962.466	112.7
1965.665	113.66
1968.863	114.07
1972.061	114.39
1975.259	117.17
1978.457	117.93
1981.654	119.22
1984.852	120.91
1988.048	121.77
1991.245	123.29
1994.441	125.82
1997.637	128.49
2000.833	129.86
2004.028	131.58
2007.223	135.35
2010.418	138.34
2013.613	143.26
2016.807	146.28
2020.001	148.43
2023.194	152.28
2026.388	157.75
2029.581	166.83
2032.774	169.48
2035.966	174.58
2039.158	178.59
2042.35	180.2
2045.542	182.25
2048.733	189.69
2051.924	191.61
2055.115	194.4
2058.306	196.66
2061.496	197.61
2064.686	197.69
2067.875	199.57
2071.065	200.43
2074.254	201.62
2077.442	207.72
2080.631	208.47
2083.819	207.45
2087.007	214.02
2090.195	217.8
2093.382	217.15
2096.569	218.45
2099.756	221.2
2102.942	224.17
2106.128	229.84
2109.314	230.11
2112.5	231.25
2115.685	230.78
2118.87	231.46
2122.055	229.13
2125.239	232.59
2128.424	240.59
2131.608	236.82
2134.791	238.34
2137.974	238.53
2141.157	240.79
2144.34	242.65
2147.523	247.08
2150.705	254.15
2153.887	251.46
2157.068	255.53
2160.25	257.28
2163.431	255.37
2166.611	262.55
2169.792	264.26
2172.972	268.12
2176.152	266.86
2179.331	273.67
2182.511	273.1
2185.69	276.53
2188.868	285.96
2192.047	292.21
2195.225	297.91
2198.403	300.28
2201.58	297.85
2204.758	306.83
2207.935	306.73
2211.111	316.86
2214.288	318.2
2217.464	321.1
2220.64	320.98
2223.815	321.31
2226.991	316.1
2230.166	317.17
2233.34	325.91
2236.515	333.87
2239.689	325.77
2242.863	335.45
2246.036	327.47
2249.209	335.92
2252.382	334.93
2255.555	347.18
2258.727	350.84
2261.9	363.31
2265.071	370.04
2268.243	364.94
2271.414	375.08
2274.585	385.32
2277.756	385.49
2280.926	400.04
2284.096	397.58
2287.266	397.57
2290.436	390.23
2293.605	399.95
2296.774	410.58
2299.942	410.5
2303.111	425.36
2306.279	433.83
2309.447	434.76
2312.614	434.95
2315.781	443.47
2318.948	451.17
2322.115	461.51
2325.281	487.07
2328.447	480.56
2331.613	485.27
2334.779	490.82
2337.944	496.11
2341.109	503.04
2344.274	508.05
2347.438	519.32
2350.602	533.25
2353.766	563.75
2356.929	565.74
2360.092	569.72
2363.255	574.02
2366.418	580.76
2369.58	589.47
2372.742	599.04
2375.904	593.87
2379.066	611.38
2382.227	641.26
2385.388	631.66
2388.548	601.24
2391.709	592.73
2394.869	605.84
2398.029	614.97
2401.188	611.27
2404.347	631.66
2407.506	641.94
2410.665	620.01
2413.823	624.98
2416.981	630.6
2420.139	608.02
2423.296	650.37
2426.453	698.94
2429.61	673.47
2432.767	708.13
2435.923	736.02
2439.079	711.46
2442.235	725.19
2445.391	746.02
2448.546	735.86
2451.701	777.53
2454.855	824.29
2458.009	731.4
2461.163	747.06
2464.317	751.14
2467.471	737.65
2470.624	760.41
2473.777	743.59
2476.929	722.65
2480.082	764.17
2483.234	805.69
2486.385	812.92
2489.537	832.28
2492.688	926.57
2495.839	904.7
2498.989	929.87
2502.14	930.03
2505.29	892.18
2508.439	992.97
2511.589	1012.79
2514.738	982.15
2517.887	978.25
2521.035	919.76
2524.183	896.42
2527.331	881.42
2530.479	856.52
2533.627	876.26
