Data from C_2_dec_on_6n_058_Splice17_13.txt Node
Date: Sat Feb 29 14:30:46 EST 2020
User: sa697716
Spectrometer: FLMS03696
Trigger mode: 0
Integration Time (sec): 3.180400E-1
Scans to average: 20
Electric dark correction enabled: true
Nonlinearity correction enabled: true
Boxcar width: 5
XAxis mode: Wavelengths
Number of Pixels in Spectrum: 2048
>>>>>Begin Spectral Data<<<<<
187.83	65.25
188.298	63.27
188.766	68.88
189.233	65.17
189.701	64.68
190.169	62.51
190.636	63.66
191.104	62.8
191.571	290.59
192.039	281.05
192.506	8.16
192.974	2230.55
193.441	-73.91
193.908	114.74
194.375	115.07
194.842	102.78
195.31	74.46
195.777	21.52
196.244	-2
196.711	13.33
197.177	13.95
197.644	14
198.111	13.54
198.578	13.95
199.045	13.54
199.511	14.87
199.978	15.61
200.445	15.24
200.911	15.76
201.378	16.28
201.844	16.84
202.31	17.63
202.777	17.98
203.243	18.78
203.709	19.46
204.176	19.82
204.642	20.17
205.108	20.16
205.574	21.22
206.04	21.66
206.506	22
206.972	22.15
207.438	22.08
207.903	22.55
208.369	22.63
208.835	22.65
209.301	22.99
209.766	22.62
210.232	22.77
210.697	22.5
211.163	22.29
211.628	22.4
212.094	22.48
212.559	22.23
213.024	22.02
213.49	21.8
213.955	21.67
214.42	21.65
214.885	21.69
215.35	22.01
215.815	21.91
216.28	22.19
216.745	22.24
217.21	22.14
217.675	22.16
218.14	22.09
218.604	21.97
219.069	21.88
219.534	21.68
219.998	21.58
220.463	21.36
220.927	21.22
221.392	21.02
221.856	20.79
222.32	20.61
222.785	20.44
223.249	20.29
223.713	20.17
224.177	20.01
224.642	19.9
225.106	19.71
225.57	19.55
226.034	19.44
226.497	19.3
226.961	19.16
227.425	19.03
227.889	18.92
228.353	18.76
228.816	18.62
229.28	18.44
229.744	18.28
230.207	18.13
230.671	17.99
231.134	17.82
231.597	17.64
232.061	17.5
232.524	17.34
232.987	17.15
233.45	16.98
233.914	16.8
234.377	16.67
234.84	16.51
235.303	16.36
235.766	16.19
236.229	16.05
236.691	15.9
237.154	15.75
237.617	15.6
238.08	15.48
238.542	15.35
239.005	15.2
239.468	15.05
239.93	14.92
240.393	14.8
240.855	14.69
241.317	14.57
241.78	14.48
242.242	14.35
242.704	14.24
243.166	14.13
243.629	14.01
244.091	13.92
244.553	13.83
245.015	13.74
245.477	13.65
245.939	13.55
246.4	13.45
246.862	13.36
247.324	13.31
247.786	13.22
248.247	13.14
248.709	13.06
249.17	12.99
249.632	12.9
250.093	12.8
250.555	12.72
251.016	12.65
251.477	12.57
251.939	12.51
252.4	12.43
252.861	12.37
253.322	12.3
253.783	12.24
254.244	12.18
254.705	12.14
255.166	12.1
255.627	12.05
256.088	11.99
256.549	11.96
257.009	11.9
257.47	11.85
257.931	11.81
258.391	11.75
258.852	11.71
259.312	11.67
259.773	11.62
260.233	11.57
260.694	11.51
261.154	11.46
261.614	11.4
262.074	11.36
262.534	11.3
262.994	11.26
263.455	11.22
263.915	11.18
264.374	11.13
264.834	11.09
265.294	11.04
265.754	11
266.214	10.96
266.673	10.93
267.133	10.89
267.593	10.86
268.052	10.81
268.512	10.78
268.971	10.74
269.431	10.71
269.89	10.68
270.349	10.65
270.809	10.63
271.268	10.6
271.727	10.57
272.186	10.54
272.645	10.51
273.104	10.48
273.563	10.45
274.022	10.43
274.481	10.4
274.94	10.36
275.399	10.34
275.857	10.31
276.316	10.27
276.775	10.24
277.233	10.2
277.692	10.17
278.15	10.13
278.609	10.1
279.067	10.06
279.525	10.01
279.984	9.97
280.442	9.93
280.9	9.9
281.358	9.86
281.816	9.82
282.274	9.8
282.732	9.77
283.19	9.75
283.648	9.73
284.106	9.7
284.564	9.68
285.021	9.68
285.479	9.66
285.937	9.64
286.394	9.61
286.852	9.61
287.309	9.59
287.767	9.58
288.224	9.56
288.682	9.53
289.139	9.52
289.596	9.49
290.053	9.45
290.511	9.42
290.968	9.39
291.425	9.36
291.882	9.33
292.339	9.3
292.796	9.26
293.252	9.24
293.709	9.21
294.166	9.18
294.623	9.15
295.079	9.14
295.536	9.12
295.992	9.1
296.449	9.08
296.905	9.06
297.362	9.03
297.818	9.02
298.274	8.99
298.731	8.97
299.187	8.94
299.643	8.92
300.099	8.9
300.555	8.88
301.011	8.85
301.467	8.82
301.923	8.8
302.379	8.79
302.835	8.77
303.291	8.76
303.746	8.73
304.202	8.71
304.658	8.68
305.113	8.67
305.569	8.65
306.024	8.63
306.479	8.61
306.935	8.59
307.39	8.58
307.845	8.56
308.301	8.55
308.756	8.54
309.211	8.53
309.666	8.52
310.121	8.51
310.576	8.5
311.031	8.49
311.486	8.5
311.94	8.49
312.395	8.48
312.85	8.47
313.305	8.46
313.759	8.45
314.214	8.45
314.668	8.44
315.123	8.44
315.577	8.43
316.032	8.43
316.486	8.41
316.94	8.4
317.394	8.39
317.849	8.38
318.303	8.38
318.757	8.35
319.211	8.33
319.665	8.31
320.119	8.29
320.572	8.27
321.026	8.25
321.48	8.22
321.934	8.21
322.387	8.19
322.841	8.17
323.295	8.14
323.748	8.12
324.202	8.11
324.655	8.09
325.108	8.06
325.562	8.04
326.015	8.02
326.468	8
326.921	7.97
327.374	7.95
327.827	7.93
328.28	7.92
328.733	7.9
329.186	7.9
329.639	7.88
330.092	7.87
330.545	7.86
330.997	7.85
331.45	7.84
331.903	7.84
332.355	7.83
332.808	7.83
333.26	7.82
333.713	7.81
334.165	7.8
334.617	7.8
335.069	7.79
335.522	7.8
335.974	7.8
336.426	7.8
336.878	7.79
337.33	7.78
337.782	7.78
338.234	7.78
338.686	7.77
339.137	7.77
339.589	7.76
340.041	7.76
340.493	7.74
340.944	7.72
341.396	7.7
341.847	7.69
342.299	7.67
342.75	7.64
343.201	7.62
343.653	7.6
344.104	7.57
344.555	7.55
345.006	7.52
345.457	7.49
345.908	7.48
346.359	7.47
346.81	7.45
347.261	7.43
347.712	7.42
348.163	7.4
348.613	7.39
349.064	7.37
349.515	7.35
349.965	7.35
350.416	7.34
350.866	7.32
351.317	7.31
351.767	7.29
352.217	7.29
352.668	7.29
353.118	7.3
353.568	7.31
354.018	7.32
354.468	7.32
354.918	7.32
355.368	7.32
355.818	7.32
356.268	7.32
356.718	7.33
357.168	7.32
357.617	7.31
358.067	7.3
358.517	7.3
358.966	7.29
359.416	7.3
359.865	7.3
360.315	7.29
360.764	7.3
361.213	7.29
361.663	7.3
362.112	7.32
362.561	7.32
363.01	7.33
363.459	7.33
363.908	7.34
364.357	7.33
364.806	7.33
365.255	7.34
365.703	7.33
366.152	7.34
366.601	7.34
367.05	7.35
367.498	7.35
367.947	7.35
368.395	7.37
368.844	7.38
369.292	7.38
369.74	7.4
370.189	7.41
370.637	7.42
371.085	7.44
371.533	7.46
371.981	7.47
372.429	7.47
372.877	7.48
373.325	7.49
373.773	7.5
374.221	7.51
374.669	7.52
375.116	7.53
375.564	7.54
376.012	7.55
376.459	7.56
376.907	7.57
377.354	7.59
377.801	7.61
378.249	7.62
378.696	7.65
379.143	7.67
379.591	7.67
380.038	7.69
380.485	7.7
380.932	7.72
381.379	7.73
381.826	7.75
382.273	7.77
382.72	7.79
383.166	7.8
383.613	7.81
384.06	7.83
384.506	7.85
384.953	7.87
385.4	7.88
385.846	7.89
386.292	7.91
386.739	7.92
387.185	7.96
387.631	7.97
388.078	8
388.524	8
388.97	8.01
389.416	8.02
389.862	8.03
390.308	8.05
390.754	8.07
391.2	8.09
391.645	8.11
392.091	8.1
392.537	8.1
392.983	8.12
393.428	8.14
393.874	8.16
394.319	8.19
394.765	8.2
395.21	8.21
395.655	8.23
396.101	8.24
396.546	8.25
396.991	8.25
397.436	8.25
397.881	8.25
398.326	8.27
398.771	8.29
399.216	8.32
399.661	8.34
400.106	8.36
400.551	8.34
400.995	8.35
401.44	8.34
401.885	8.34
402.329	8.36
402.774	8.36
403.218	8.35
403.663	8.34
404.107	8.33
404.551	8.34
404.995	8.32
405.44	8.32
405.884	8.32
406.328	8.32
406.772	8.33
407.216	8.34
407.66	8.34
408.104	8.33
408.547	8.34
408.991	8.32
409.435	8.3
409.879	8.3
410.322	8.3
410.766	8.29
411.209	8.31
411.653	8.3
412.096	8.28
412.54	8.27
412.983	8.27
413.426	8.27
413.869	8.28
414.312	8.31
414.756	8.33
415.199	8.35
415.642	8.36
416.085	8.37
416.527	8.39
416.97	8.41
417.413	8.42
417.856	8.4
418.298	8.37
418.741	8.37
419.184	8.35
419.626	8.33
420.069	8.32
420.511	8.3
420.953	8.27
421.396	8.26
421.838	8.25
422.28	8.25
422.722	8.27
423.164	8.27
423.606	8.29
424.048	8.28
424.49	8.31
424.932	8.3
425.374	8.31
425.816	8.31
426.258	8.28
426.699	8.25
427.141	8.22
427.582	8.21
428.024	8.21
428.465	8.21
428.907	8.22
429.348	8.21
429.789	8.2
430.231	8.17
430.672	8.16
431.113	8.17
431.554	8.19
431.995	8.21
432.436	8.2
432.877	8.18
433.318	8.16
433.759	8.14
434.2	8.14
434.64	8.14
435.081	8.15
435.522	8.18
435.962	8.19
436.403	8.2
436.843	8.2
437.284	8.23
437.724	8.25
438.164	8.26
438.604	8.29
439.045	8.29
439.485	8.3
439.925	8.31
440.365	8.28
440.805	8.29
441.245	8.27
441.685	8.29
442.125	8.28
442.564	8.3
443.004	8.33
443.444	8.33
443.883	8.35
444.323	8.36
444.762	8.41
445.202	8.48
445.641	8.49
446.081	8.54
446.52	8.54
446.959	8.57
447.398	8.6
447.837	8.65
448.276	8.67
448.716	8.71
449.154	8.74
449.593	8.75
450.032	8.77
450.471	8.79
450.91	8.8
451.349	8.82
451.787	8.84
452.226	8.82
452.664	8.81
453.103	8.81
453.541	8.82
453.98	8.83
454.418	8.83
454.856	8.77
455.295	8.78
455.733	8.76
456.171	8.75
456.609	8.74
457.047	8.75
457.485	8.74
457.923	8.73
458.361	8.69
458.798	8.68
459.236	8.67
459.674	8.69
460.111	8.69
460.549	8.67
460.987	8.67
461.424	8.64
461.862	8.63
462.299	8.62
462.736	8.61
463.173	8.62
463.611	8.61
464.048	8.61
464.485	8.59
464.922	8.57
465.359	8.57
465.796	8.55
466.233	8.56
466.67	8.55
467.106	8.53
467.543	8.55
467.98	8.55
468.416	8.55
468.853	8.54
469.29	8.54
469.726	8.56
470.162	8.56
470.599	8.59
471.035	8.61
471.471	8.6
471.907	8.62
472.344	8.61
472.78	8.62
473.216	8.64
473.652	8.65
474.088	8.65
474.523	8.63
474.959	8.63
475.395	8.63
475.831	8.63
476.266	8.65
476.702	8.64
477.138	8.63
477.573	8.62
478.008	8.58
478.444	8.58
478.879	8.58
479.314	8.58
479.75	8.57
480.185	8.58
480.62	8.57
481.055	8.56
481.49	8.57
481.925	8.56
482.36	8.55
482.795	8.56
483.229	8.55
483.664	8.54
484.099	8.55
484.534	8.55
484.968	8.55
485.403	8.54
485.837	8.54
486.271	8.54
486.706	8.56
487.14	8.58
487.574	8.59
488.009	8.62
488.443	8.63
488.877	8.64
489.311	8.65
489.745	8.67
490.179	8.68
490.613	8.7
491.046	8.71
491.48	8.74
491.914	8.75
492.348	8.77
492.781	8.78
493.215	8.81
493.648	8.84
494.082	8.88
494.515	8.91
494.948	8.95
495.382	8.99
495.815	9.04
496.248	9.09
496.681	9.13
497.114	9.17
497.547	9.22
497.98	9.29
498.413	9.34
498.846	9.39
499.279	9.47
499.711	9.53
500.144	9.6
500.577	9.67
501.009	9.75
501.442	9.83
501.874	9.92
502.306	10.01
502.739	10.08
503.171	10.19
503.603	10.3
504.036	10.41
504.468	10.52
504.9	10.64
505.332	10.77
505.764	10.91
506.196	11.06
506.627	11.2
507.059	11.35
507.491	11.52
507.923	11.67
508.354	11.82
508.786	11.98
509.217	12.14
509.649	12.33
510.08	12.52
510.512	12.7
510.943	12.9
511.374	13.1
511.805	13.31
512.237	13.53
512.668	13.74
513.099	13.97
513.53	14.2
513.961	14.44
514.391	14.67
514.822	14.9
515.253	15.13
515.684	15.36
516.114	15.61
516.545	15.84
516.975	16.09
517.406	16.33
517.836	16.58
518.267	16.84
518.697	17.09
519.127	17.33
519.558	17.57
519.988	17.82
520.418	18.06
520.848	18.3
521.278	18.54
521.708	18.7
522.138	18.93
522.567	19.15
522.997	19.36
523.427	19.58
523.857	19.78
524.286	20
524.716	20.19
525.145	20.39
525.575	20.58
526.004	20.78
526.433	21.01
526.863	21.19
527.292	21.38
527.721	21.55
528.15	21.7
528.579	21.86
529.008	22.01
529.437	22.16
529.866	22.28
530.295	22.42
530.724	22.54
531.152	22.68
531.581	22.8
532.01	22.9
532.438	23
532.867	23.1
533.295	23.19
533.723	23.28
534.152	23.36
534.58	23.43
535.008	23.48
535.436	23.54
535.865	23.58
536.293	23.64
536.721	23.68
537.149	23.73
537.576	23.78
538.004	23.8
538.432	23.84
538.86	23.87
539.287	23.93
539.715	23.96
540.143	23.99
540.57	24.01
540.998	24.04
541.425	24.06
541.852	24.07
542.28	24.06
542.707	24.1
543.134	24.12
543.561	24.13
543.988	24.15
544.415	24.16
544.842	24.2
545.269	24.23
545.696	24.26
546.123	24.28
546.549	24.3
546.976	24.35
547.403	24.36
547.829	24.37
548.256	24.37
548.682	24.38
549.108	24.4
549.535	24.42
549.961	24.41
550.387	24.39
550.813	24.39
551.24	24.4
551.666	24.41
552.092	24.4
552.518	24.41
552.943	24.42
553.369	24.4
553.795	24.38
554.221	24.34
554.646	24.32
555.072	24.32
555.498	24.29
555.923	24.25
556.349	24.19
556.774	24.15
557.199	24.11
557.625	24.03
558.05	23.96
558.475	23.89
558.9	23.83
559.325	23.76
559.75	23.65
560.175	23.56
560.6	23.48
561.025	23.38
561.449	23.27
561.874	23.13
562.299	23.04
562.723	22.92
563.148	22.8
563.572	22.68
563.997	22.54
564.421	22.43
564.846	22.28
565.27	22.13
565.694	22
566.118	21.87
566.542	21.75
566.966	21.62
567.39	21.46
567.814	21.32
568.238	21.15
568.662	21.01
569.086	20.85
569.509	20.7
569.933	20.55
570.357	20.38
570.78	20.23
571.204	20.09
571.627	19.93
572.05	19.82
572.474	19.7
572.897	19.55
573.32	19.41
573.743	19.29
574.166	19.17
574.589	19.06
575.012	18.97
575.435	18.85
575.858	18.74
576.281	18.64
576.704	18.55
577.126	18.44
577.549	18.38
577.972	18.3
578.394	18.21
578.817	18.13
579.239	18.06
579.661	17.99
580.084	17.91
580.506	17.85
580.928	17.76
581.35	17.69
581.772	17.62
582.194	17.56
582.616	17.5
583.038	17.43
583.46	17.36
583.882	17.3
584.303	17.23
584.725	17.18
585.147	17.09
585.568	17.04
585.99	16.97
586.411	16.9
586.833	16.83
587.254	16.77
587.675	16.72
588.096	16.68
588.518	16.62
588.939	16.57
589.36	16.52
589.781	16.5
590.202	16.46
590.623	16.41
591.043	16.37
591.464	16.33
591.885	16.31
592.305	16.27
592.726	16.23
593.147	16.21
593.567	16.17
593.987	16.14
594.408	16.12
594.828	16.09
595.248	16.08
595.669	16.05
596.089	16.04
596.509	15.98
596.929	15.95
597.349	15.91
597.769	15.86
598.189	15.82
598.608	15.79
599.028	15.73
599.448	15.69
599.867	15.64
600.287	15.6
600.706	15.54
601.126	15.51
601.545	15.47
601.965	15.42
602.384	15.39
602.803	15.33
603.222	15.28
603.641	15.23
604.061	15.2
604.48	15.15
604.898	15.08
605.317	15.03
605.736	14.98
606.155	14.91
606.574	14.88
606.992	14.81
607.411	14.77
607.829	14.67
608.248	14.62
608.666	14.54
609.085	14.49
609.503	14.42
609.921	14.37
610.339	14.31
610.758	14.25
611.176	14.18
611.594	14.12
612.012	14.04
612.43	14.04
612.847	13.99
613.265	13.94
613.683	13.88
614.101	13.83
614.518	13.76
614.936	13.7
615.353	13.64
615.771	13.59
616.188	13.54
616.606	13.49
617.023	13.43
617.44	13.36
617.857	13.32
618.274	13.26
618.691	13.22
619.108	13.19
619.525	13.16
619.942	13.13
620.359	13.1
620.776	13.07
621.192	13.05
621.609	13.02
622.026	13.01
622.442	12.99
622.859	12.98
623.275	12.98
623.691	12.97
624.108	12.96
624.524	12.94
624.94	12.93
625.356	12.92
625.772	12.92
626.188	12.93
626.604	12.91
627.02	12.9
627.436	12.88
627.852	12.86
628.268	12.84
628.683	12.82
629.099	12.81
629.514	12.78
629.93	12.75
630.345	12.7
630.761	12.66
631.176	12.64
631.591	12.59
632.007	12.55
632.422	12.52
632.837	12.48
633.252	12.41
633.667	12.34
634.082	12.3
634.497	12.22
634.911	12.17
635.326	12.09
635.741	12.01
636.155	11.93
636.57	11.86
636.984	11.73
637.399	11.63
637.813	11.53
638.228	11.43
638.642	11.32
639.056	11.22
639.47	11.11
639.884	10.99
640.298	10.88
640.712	10.77
641.126	10.65
641.54	10.56
641.954	10.47
642.368	10.39
642.781	10.29
643.195	10.19
643.609	10.1
644.022	10.02
644.436	9.95
644.849	9.87
645.262	9.81
645.676	9.73
646.089	9.66
646.502	9.6
646.915	9.54
647.328	9.5
647.741	9.45
648.154	9.41
648.567	9.37
648.98	9.34
649.393	9.31
649.805	9.27
650.218	9.25
650.631	9.24
651.043	9.2
651.456	9.19
651.868	9.16
652.28	9.15
652.693	9.13
653.105	9.1
653.517	9.07
653.929	9.06
654.341	9.03
654.753	8.99
655.165	8.95
655.577	8.92
655.989	8.86
656.401	8.82
656.813	8.78
657.224	8.74
657.636	8.71
658.047	8.67
658.459	8.61
658.87	8.57
659.282	8.53
659.693	8.5
660.104	8.46
660.515	8.42
660.926	8.38
661.338	8.34
661.749	8.28
662.159	8.23
662.57	8.18
662.981	8.15
663.392	8.1
663.803	8.06
664.213	8.02
664.624	7.99
665.035	7.96
665.445	7.93
665.855	7.91
666.266	7.89
666.676	7.86
667.086	7.84
667.497	7.84
667.907	7.82
668.317	7.8
668.727	7.79
669.137	7.77
669.547	7.78
669.956	7.78
670.366	7.78
670.776	7.78
671.186	7.79
671.595	7.81
672.005	7.83
672.414	7.85
672.824	7.87
673.233	7.9
673.642	7.94
674.052	7.96
674.461	7.98
674.87	8.01
675.279	8.03
675.688	8.06
676.097	8.1
676.506	8.12
676.915	8.16
677.323	8.19
677.732	8.23
678.141	8.27
678.549	8.32
678.958	8.37
679.366	8.41
679.775	8.48
680.183	8.54
680.592	8.6
681	8.66
681.408	8.74
681.816	8.8
682.224	8.89
682.632	8.99
683.04	9.1
683.448	9.22
683.856	9.36
684.264	9.49
684.671	9.66
685.079	9.83
685.487	10.03
685.894	10.23
686.302	10.45
686.709	10.68
687.116	10.94
687.524	11.21
687.931	11.5
688.338	11.83
688.745	12.19
689.152	12.54
689.559	12.91
689.966	13.3
690.373	13.75
690.78	14.19
691.187	14.65
691.593	15.13
692	15.63
692.407	16.12
692.813	16.64
693.22	17.15
693.626	17.68
694.032	18.24
694.439	18.81
694.845	19.35
695.251	19.91
695.657	20.47
696.063	21.03
696.469	21.61
696.875	22.17
697.281	22.7
697.687	23.28
698.093	23.84
698.498	24.42
698.904	24.99
699.31	25.53
699.715	26.09
700.12	26.63
700.526	27.17
700.931	27.69
701.337	28.22
701.742	28.74
702.147	29.24
702.552	29.75
702.957	30.21
703.362	30.71
703.767	31.2
704.172	31.67
704.577	32.13
704.981	32.59
705.386	33.05
705.791	33.5
706.195	33.93
706.6	34.37
707.004	34.79
707.408	35.22
707.813	35.59
708.217	35.97
708.621	36.38
709.025	36.77
709.43	37.14
709.834	37.54
710.237	37.9
710.641	38.3
711.045	38.63
711.449	38.98
711.853	39.33
712.256	39.69
712.66	40.04
713.064	40.36
713.467	40.68
713.87	41.02
714.274	41.35
714.677	41.69
715.08	41.98
715.484	42.31
715.887	42.63
716.29	42.94
716.693	43.22
717.096	43.51
717.499	43.8
717.901	44.08
718.304	44.34
718.707	44.57
719.109	44.86
719.512	45.12
719.915	45.37
720.317	45.62
720.719	45.85
721.122	46.08
721.524	46.33
721.926	46.56
722.328	46.77
722.731	47
723.133	47.25
723.535	47.42
723.937	47.61
724.338	47.81
724.74	48.02
725.142	48.1
725.544	48.3
725.945	48.45
726.347	48.63
726.748	48.77
727.15	48.92
727.551	49.04
727.952	49.18
728.354	49.37
728.755	49.51
729.156	49.65
729.557	49.88
729.958	50
730.359	50.14
730.76	50.23
731.161	50.35
731.562	50.45
731.962	50.55
732.363	50.63
732.763	50.72
733.164	50.77
733.564	50.84
733.965	50.89
734.365	50.96
734.766	51.02
735.166	51.07
735.566	51.15
735.966	51.19
736.366	51.27
736.766	51.34
737.166	51.42
737.566	51.49
737.966	51.55
738.365	51.6
738.765	51.66
739.165	51.67
739.564	51.72
739.964	51.73
740.363	51.76
740.763	51.79
741.162	51.8
741.561	51.8
741.96	51.83
742.36	51.84
742.759	51.84
743.158	51.81
743.557	51.86
743.955	51.93
744.354	52
744.753	52.06
745.152	52.08
745.55	52.13
745.949	52.15
746.348	52.18
746.746	52.22
747.144	52.27
747.543	52.36
747.941	52.44
748.339	52.47
748.737	52.53
749.136	52.56
749.534	52.62
749.932	52.65
750.33	52.66
750.727	52.7
751.125	52.74
751.523	52.76
751.921	52.77
752.318	52.74
752.716	52.71
753.113	52.71
753.511	52.67
753.908	52.65
754.305	52.6
754.703	52.61
755.1	52.59
755.497	52.56
755.894	52.55
756.291	52.54
756.688	52.53
757.085	52.55
757.482	52.51
757.878	52.54
758.275	52.5
758.672	52.54
759.068	52.52
759.465	52.51
759.861	52.5
760.258	52.47
760.654	52.44
761.05	52.46
761.447	52.43
761.843	52.4
762.239	52.36
762.635	52.36
763.031	52.33
763.427	52.29
763.822	52.25
764.218	52.23
764.614	52.19
765.01	52.19
765.405	52.14
765.801	52.1
766.196	52.09
766.592	52.07
766.987	52.08
767.382	52.08
767.778	52.1
768.173	52.11
768.568	52.09
768.963	52.11
769.358	52.11
769.753	52.12
770.148	52.11
770.542	52.08
770.937	52.07
771.332	52.04
771.726	52.01
772.121	51.96
772.515	51.96
772.91	51.96
773.304	51.95
773.699	51.92
774.093	51.9
774.487	51.93
774.881	51.96
775.275	51.96
775.669	52.01
776.063	52.01
776.457	52
776.851	51.95
777.245	51.95
777.638	51.95
778.032	51.95
778.425	51.94
778.819	51.93
779.212	51.9
779.606	51.88
779.999	51.83
780.392	51.83
780.786	51.88
781.179	51.92
781.572	51.92
781.965	51.92
782.358	51.91
782.751	51.95
783.143	51.99
783.536	52.04
783.929	52.08
784.322	52.08
784.714	52.14
785.107	52.14
785.499	52.15
785.891	52.14
786.284	52.13
786.676	52.19
787.068	52.17
787.46	52.14
787.852	52.11
788.245	52.08
788.636	52.11
789.028	52.07
789.42	52.04
789.812	52.02
790.204	52.02
790.595	52.03
790.987	52
791.378	51.98
791.77	52.01
792.161	52.06
792.553	52.06
792.944	52.05
793.335	52.08
793.726	52.1
794.117	52.09
794.508	52.14
794.899	52.16
795.29	52.15
795.681	52.19
796.072	52.16
796.463	52.09
796.853	52.08
797.244	52.09
797.634	52.06
798.025	52.06
798.415	52.1
798.806	52.07
799.196	52.06
799.586	52.08
799.976	52.08
800.366	52.11
800.756	52.17
801.146	52.18
801.536	52.18
801.926	52.22
802.316	52.23
802.706	52.22
803.095	52.25
803.485	52.25
803.874	52.25
804.264	52.28
804.653	52.23
805.043	52.2
805.432	52.17
805.821	52.15
806.21	52.19
806.599	52.21
806.988	52.21
807.377	52.23
807.766	52.26
808.155	52.26
808.544	52.23
808.933	52.27
809.321	52.28
809.71	52.32
810.098	52.35
810.487	52.35
810.875	52.32
811.264	52.34
811.652	52.34
812.04	52.34
812.428	52.38
812.816	52.41
813.204	52.43
813.592	52.47
813.98	52.51
814.368	52.53
814.756	52.51
815.144	52.57
815.531	52.56
815.919	52.53
816.306	52.52
816.694	52.52
817.081	52.49
817.469	52.49
817.856	52.53
818.243	52.5
818.63	52.52
819.017	52.52
819.404	52.51
819.791	52.54
820.178	52.56
820.565	52.6
820.952	52.62
821.339	52.67
821.725	52.72
822.112	52.73
822.498	52.8
822.885	52.83
823.271	52.89
823.657	52.94
824.044	52.92
824.43	52.95
824.816	52.94
825.202	52.96
825.588	52.96
825.974	52.93
826.36	52.88
826.746	52.87
827.132	52.83
827.517	52.81
827.903	52.8
828.289	52.8
828.674	52.8
829.06	52.82
829.445	52.85
829.83	52.84
830.216	52.85
830.601	52.84
830.986	52.82
831.371	52.84
831.756	52.8
832.141	52.8
832.526	52.79
832.911	52.8
833.295	52.78
833.68	52.73
834.065	52.74
834.449	52.73
834.834	52.74
835.218	52.73
835.603	52.71
835.987	52.69
836.371	52.69
836.755	52.69
837.139	52.66
837.524	52.65
837.908	52.63
838.291	52.58
838.675	52.58
839.059	52.56
839.443	52.55
839.827	52.53
840.21	52.56
840.594	52.53
840.977	52.53
841.361	52.54
841.744	52.55
842.127	52.55
842.511	52.57
842.894	52.52
843.277	52.51
843.66	52.53
844.043	52.57
844.426	52.55
844.809	52.54
845.191	52.53
845.574	52.5
845.957	52.47
846.339	52.45
846.722	52.47
847.104	52.51
847.487	52.54
847.869	52.54
848.252	52.51
848.634	52.53
849.016	52.53
849.398	52.53
849.78	52.53
850.162	52.54
850.544	52.58
850.926	52.54
851.307	52.52
851.689	52.51
852.071	52.51
852.452	52.52
852.834	52.52
853.215	52.51
853.597	52.54
853.978	52.51
854.359	52.51
854.741	52.48
855.122	52.52
855.503	52.52
855.884	52.51
856.265	52.47
856.646	52.46
857.026	52.42
857.407	52.41
857.788	52.4
858.169	52.4
858.549	52.4
858.93	52.41
859.31	52.39
859.69	52.38
860.071	52.38
860.451	52.37
860.831	52.35
861.211	52.34
861.591	52.35
861.971	52.34
862.351	52.36
862.731	52.37
863.111	52.38
863.491	52.42
863.87	52.4
864.25	52.41
864.629	52.43
865.009	52.45
865.388	52.46
865.768	52.45
866.147	52.44
866.526	52.43
866.905	52.42
867.284	52.4
867.663	52.36
868.042	52.33
868.421	52.32
868.8	52.33
869.179	52.33
869.558	52.32
869.936	52.33
870.315	52.34
870.693	52.37
871.072	52.36
871.45	52.36
871.828	52.37
872.207	52.41
872.585	52.37
872.963	52.36
873.341	52.37
873.719	52.38
874.097	52.39
874.475	52.38
874.853	52.35
875.23	52.35
875.608	52.37
875.986	52.35
876.363	52.32
876.741	52.37
877.118	52.35
877.495	52.35
877.873	52.33
878.25	52.3
878.627	52.29
879.004	52.31
879.381	52.33
879.758	52.28
880.135	52.27
880.512	52.3
880.889	52.29
881.265	52.33
881.642	52.3
882.019	52.33
882.395	52.31
882.772	52.3
883.148	52.28
883.524	52.28
883.901	52.3
884.277	52.32
884.653	52.29
885.029	52.29
885.405	52.26
885.781	52.27
886.157	52.3
886.532	52.31
886.908	52.37
887.284	52.39
887.659	52.37
888.035	52.39
888.411	52.36
888.786	52.37
889.161	52.39
889.537	52.39
889.912	52.38
890.287	52.32
890.662	52.3
891.037	52.23
891.412	52.18
891.787	52.16
892.162	52.12
892.536	52.13
892.911	52.08
893.286	52.01
893.66	51.99
894.035	51.95
894.409	51.95
894.784	51.94
895.158	51.92
895.532	51.89
895.906	51.86
896.281	51.84
896.655	51.8
897.029	51.8
897.402	51.8
897.776	51.81
898.15	51.82
898.524	51.82
898.898	51.79
899.271	51.78
899.645	51.79
900.018	51.78
900.392	51.78
900.765	51.78
901.138	51.79
901.511	51.79
901.884	51.8
902.258	51.76
902.631	51.76
903.003	51.76
903.376	51.76
903.749	51.74
904.122	51.74
904.495	51.72
904.867	51.73
905.24	51.73
905.612	51.71
905.985	51.65
906.357	51.62
906.729	51.58
907.102	51.58
907.474	51.57
907.846	51.57
908.218	51.56
908.59	51.52
908.962	51.49
909.334	51.47
909.705	51.45
910.077	51.46
910.449	51.49
910.82	51.5
911.192	51.5
911.563	51.49
911.935	51.48
912.306	51.48
912.677	51.51
913.048	51.51
913.419	51.48
913.79	51.5
914.161	51.48
914.532	51.49
914.903	51.49
915.274	51.43
915.645	51.47
916.015	51.49
916.386	51.45
916.756	51.41
917.127	51.41
917.497	51.42
917.868	51.39
918.238	51.45
918.608	51.45
918.978	51.42
919.348	51.44
919.718	51.39
920.088	51.37
920.458	51.4
920.828	51.42
921.198	51.44
921.567	51.44
921.937	51.48
922.306	51.42
922.676	51.42
923.045	51.42
923.415	51.43
923.784	51.46
924.153	51.48
924.522	51.5
924.891	51.5
925.26	51.48
925.629	51.48
925.998	51.45
926.367	51.47
926.736	51.43
927.104	51.47
927.473	51.45
927.842	51.4
928.21	51.41
928.578	51.37
928.947	51.35
929.315	51.34
929.683	51.39
930.051	51.39
930.42	51.37
930.788	51.34
931.156	51.25
931.523	51.24
931.891	51.19
932.259	51.12
932.627	51.05
932.994	51
933.362	50.91
933.729	50.77
934.097	50.64
934.464	50.54
934.831	50.5
935.199	50.49
935.566	50.42
935.933	50.38
936.3	50.27
936.667	50.19
937.034	50.14
937.401	50.04
937.767	50.02
938.134	50.04
938.501	49.97
938.867	49.92
939.234	49.89
939.6	49.84
939.967	49.9
940.333	49.97
940.699	50.06
941.065	50.12
941.431	50.24
941.798	50.3
942.163	50.33
942.529	50.46
942.895	50.63
943.261	50.68
943.627	50.78
943.992	50.82
944.358	50.84
944.723	50.84
945.089	50.81
945.454	50.84
945.82	50.9
946.185	50.95
946.55	50.99
946.915	50.94
947.28	51
947.645	51.05
948.01	51.02
948.375	51
948.74	51.02
949.104	51.05
949.469	51.04
949.834	50.98
950.198	50.94
950.562	50.84
950.927	50.82
951.291	50.7
951.655	50.68
952.02	50.71
952.384	50.74
952.748	50.7
953.112	50.65
953.476	50.62
953.839	50.59
954.203	50.55
954.567	50.61
954.931	50.54
955.294	50.58
955.658	50.52
956.021	50.5
956.385	50.46
956.748	50.47
957.111	50.49
957.474	50.52
957.837	50.5
958.2	50.56
958.563	50.55
958.926	50.56
959.289	50.57
959.652	50.57
960.015	50.43
960.377	50.46
960.74	50.42
961.102	50.35
961.465	50.33
961.827	50.2
962.189	50.09
962.552	50
962.914	49.98
963.276	49.9
963.638	49.83
964	49.87
964.362	49.78
964.724	49.75
965.085	49.77
965.447	49.67
965.809	49.76
966.17	49.76
966.532	49.82
966.893	49.81
967.255	49.84
967.616	49.84
967.977	49.81
968.338	49.82
968.699	49.79
969.061	49.68
969.421	49.69
969.782	49.64
970.143	49.61
970.504	49.51
970.865	49.38
971.225	49.3
971.586	49.37
971.946	49.37
972.307	49.36
972.667	49.38
973.027	49.46
973.388	49.45
973.748	49.45
974.108	49.45
974.468	49.39
974.828	49.47
975.188	49.49
975.548	49.47
975.907	49.52
976.267	49.56
976.627	49.5
976.986	49.46
977.346	49.43
977.705	49.42
978.064	49.44
978.424	49.54
978.783	49.54
979.142	49.5
979.501	49.4
979.86	49.34
980.219	49.2
980.578	49.27
980.937	49.31
981.296	49.41
981.654	49.47
982.013	49.51
982.371	49.44
982.73	49.34
983.088	49.31
983.447	49.34
983.805	49.31
984.163	49.43
984.521	49.34
984.879	49.36
985.237	49.34
985.595	49.33
985.953	49.25
986.311	49.39
986.669	49.42
987.026	49.47
987.384	49.5
987.741	49.49
988.099	49.35
988.456	49.41
988.814	49.4
989.171	49.3
989.528	49.27
989.885	49.16
990.242	49.05
990.599	49.14
990.956	49.07
991.313	49.05
991.67	49.02
992.027	49.06
992.383	49.01
992.74	48.91
993.096	48.83
993.453	48.77
993.809	48.91
994.165	48.87
994.522	48.69
994.878	48.74
995.234	48.6
995.59	48.49
995.946	48.48
996.302	48.41
996.658	48.28
997.013	48.37
997.369	48.42
997.725	48.49
998.08	48.47
998.436	48.63
998.791	48.5
999.147	48.64
999.502	48.82
999.857	48.77
1000.212	48.7
1000.567	48.9
1000.922	48.8
1001.277	48.69
1001.632	48.54
1001.987	48.42
1002.342	48.34
1002.696	48.47
1003.051	48.19
1003.406	48.02
1003.76	47.98
1004.114	48.09
1004.469	47.88
1004.823	47.91
1005.177	48.05
1005.531	48
1005.885	48.06
1006.239	48
1006.593	47.86
1006.947	47.83
1007.301	47.91
1007.655	48.04
1008.008	47.95
1008.362	47.96
1008.715	48
1009.069	47.99
1009.422	47.81
1009.776	47.79
1010.129	47.64
1010.482	47.85
1010.835	48.04
1011.188	47.94
1011.541	47.57
1011.894	47.55
1012.247	47.56
1012.6	47.43
1012.952	47.16
1013.305	47.17
1013.657	47.26
1014.01	47.48
1014.362	47.3
1014.715	47.17
1015.067	47.35
1015.419	47.68
1015.771	47.64
1016.123	47.51
1016.475	47.77
1016.827	47.89
1017.179	48.07
1017.531	47.91
1017.883	47.82
1018.234	47.69
1018.586	47.73
1018.938	47.16
1019.289	47.06
1019.64	47.2
1019.992	47.26
1020.343	46.73
1020.694	46.59
1021.045	46.37
1021.396	46.37
1021.747	46.42
1022.098	46.55
1022.449	46.7
1022.8	46.97
1023.151	46.84
1023.501	46.77
1023.852	46.85
1024.202	47.02
1024.553	46.88
1024.903	46.97
1025.253	46.89
1025.604	46.7
1025.954	46.18
1026.304	46.27
1026.654	46.18
1027.004	46.24
1027.354	46.11
1027.703	45.99
1028.053	45.73
1028.403	45.67
1028.753	45.68
1029.102	45.62
1029.452	45.47
1029.801	45.64
1030.15	45.23
1030.499	45.33
897.758	410.43
901.051	412.09
904.343	416.58
907.636	412.47
910.928	404.06
914.22	409.13
917.511	398.36
920.803	382.13
924.094	365.86
927.384	370.78
930.675	361.43
933.965	355.66
937.255	356.46
940.544	339.82
943.834	322.88
947.123	321.17
950.411	304.45
953.7	301.74
956.988	293.72
960.276	283.14
963.563	281.25
966.851	265.59
970.138	261.16
973.424	244.54
976.711	242.87
979.997	236.74
983.283	232.09
986.568	226.42
989.853	218.62
993.138	211.35
996.423	211.3
999.708	203
1002.992	204.25
1006.275	198.56
1009.559	197.72
1012.842	191.52
1016.125	185.34
1019.408	181.42
1022.69	180.23
1025.972	179.57
1029.254	176.52
1032.536	171.52
1035.817	166.72
1039.098	164
1042.379	162.09
1045.659	160.47
1048.939	160.47
1052.219	157.89
1055.498	156.02
1058.778	153.85
1062.057	151.8
1065.335	150.31
1068.614	147.18
1071.892	146.67
1075.17	144.16
1078.447	142.16
1081.724	140.87
1085.001	137.45
1088.278	139.07
1091.554	136.88
1094.83	136.03
1098.106	134.52
1101.382	133
1104.657	133.34
1107.932	132.11
1111.206	132.58
1114.481	130.94
1117.755	129.57
1121.029	129.67
1124.302	126.38
1127.575	125.93
1130.848	125.11
1134.121	123.6
1137.393	123.87
1140.665	123.49
1143.937	122.59
1147.208	119.74
1150.48	119.26
1153.75	119.15
1157.021	118.15
1160.291	118.26
1163.561	117.64
1166.831	117.17
1170.101	116.44
1173.37	115.8
1176.639	114.94
1179.907	114.5
1183.176	114.75
1186.444	115.02
1189.711	114
1192.979	114.32
1196.246	114.65
1199.513	114.14
1202.78	113.14
1206.046	113.53
1209.312	113.62
1212.578	114.28
1215.843	115.51
1219.108	117.04
1222.373	118.43
1225.638	120.12
1228.902	122.49
1232.166	125.71
1235.43	127.15
1238.693	131.2
1241.956	133.78
1245.219	136.6
1248.482	137.11
1251.744	137.83
1255.006	138.38
1258.268	134.18
1261.529	133.26
1264.79	131.49
1268.051	127.69
1271.312	127.08
1274.572	125.47
1277.832	122.92
1281.092	121.74
1284.351	119.41
1287.61	118.88
1290.869	118.35
1294.128	118.64
1297.386	117.51
1300.644	116.02
1303.902	116.44
1307.159	115.17
1310.416	115.51
1313.673	116.66
1316.93	117.11
1320.186	119.78
1323.442	120.82
1326.697	121.35
1329.953	122.37
1333.208	126.26
1336.463	130.52
1339.717	132.96
1342.972	138.3
1346.226	141.28
1349.479	141.5
1352.733	146.99
1355.986	147.75
1359.238	150.88
1362.491	151.64
1365.743	156.08
1368.995	157.82
1372.247	159.22
1375.498	158.14
1378.749	163.42
1382	163.69
1385.251	162.81
1388.501	163
1391.751	164.73
1395	161.11
1398.25	163.4
1401.499	163.24
1404.748	161.86
1407.996	154.25
1411.244	154.52
1414.492	152.1
1417.74	147.4
1420.987	143.58
1424.234	140.01
1427.481	135.41
1430.728	133.21
1433.974	127.98
1437.22	124.24
1440.465	120.1
1443.711	117.83
1446.956	113.92
1450.201	110.3
1453.445	105.07
1456.689	102.69
1459.933	99.74
1463.177	95.82
1466.42	93.86
1469.663	91.51
1472.906	88.26
1476.148	85.83
1479.391	84.52
1482.633	82.99
1485.874	81.66
1489.115	81.2
1492.356	80.81
1495.597	79.29
1498.838	79.25
1502.078	78.77
1505.318	78.68
1508.557	78.58
1511.797	78.34
1515.036	78.39
1518.274	78.23
1521.513	77.34
1524.751	76.93
1527.989	76.98
1531.227	77.01
1534.464	77.2
1537.701	77.05
1540.938	76.66
1544.174	76.81
1547.41	77.33
1550.646	77.08
1553.882	77.17
1557.117	77.27
1560.352	77.22
1563.587	76.75
1566.821	76.91
1570.055	76.29
1573.289	76.75
1576.523	76.68
1579.756	76.48
1582.989	76.35
1586.222	76.03
1589.454	76.38
1592.686	76.61
1595.918	76.03
1599.15	76.24
1602.381	76.45
1605.612	76.73
1608.843	75.99
1612.073	76.81
1615.303	76.85
1618.533	76.62
1621.762	76.7
1624.992	76.82
1628.221	76.21
1631.449	77.34
1634.678	77.58
1637.906	77.21
1641.134	77.56
1644.361	77.76
1647.588	77.28
1650.815	77.65
1654.042	77.64
1657.269	77.78
1660.495	78.09
1663.72	78.57
1666.946	78.2
1670.171	78.4
1673.396	79.25
1676.621	79.03
1679.845	79.52
1683.069	79.42
1686.293	79.39
1689.517	79.66
1692.74	80.14
1695.963	79.75
1699.185	79.81
1702.408	79.74
1705.63	79.59
1708.852	79.57
1712.073	79.69
1715.294	79.37
1718.515	80.58
1721.736	80.18
1724.956	80.42
1728.176	80.01
1731.396	79.83
1734.616	80.1
1737.835	80.56
1741.054	79.89
1744.272	79.86
1747.491	79.49
1750.709	80.44
1753.927	79.65
1757.144	80.46
1760.361	80.22
1763.578	80.76
1766.795	81.43
1770.011	81.53
1773.227	81.27
1776.443	82.47
1779.658	82.16
1782.874	83.18
1786.089	82.28
1789.303	82.63
1792.518	82.32
1795.732	82.98
1798.945	83.62
1802.159	83.82
1805.372	84.25
1808.585	85.43
1811.797	85.38
1815.01	86.36
1818.222	86.54
1821.434	87.23
1824.645	87.48
1827.856	88.87
1831.067	89.16
1834.278	89.83
1837.488	90.54
1840.698	91.36
1843.908	91.24
1847.117	92.08
1850.326	92.22
1853.535	93.36
1856.744	94.1
1859.952	94.9
1863.16	94.36
1866.368	94.11
1869.575	94.05
1872.782	92.69
1875.989	90.53
1879.196	90.76
1882.402	89.91
1885.608	89.95
1888.814	88.33
1892.019	89.18
1895.224	87.14
1898.429	88.5
1901.634	87.5
1904.838	87.8
1908.042	88.78
1911.246	88.7
1914.449	88.53
1917.652	88.71
1920.855	89.08
1924.058	88.37
1927.26	86.94
1930.462	88.37
1933.664	86.95
1936.865	88.05
1940.066	86.32
1943.267	85.58
1946.467	87.5
1949.668	86.84
1952.868	86.98
1956.067	86.33
1959.267	87.82
1962.466	88.28
1965.665	87.98
1968.863	89.2
1972.061	89.82
1975.259	92.04
1978.457	92.98
1981.654	92.66
1984.852	94.18
1988.048	95.19
1991.245	97.1
1994.441	98.09
1997.637	100.01
2000.833	103.28
2004.028	102.8
2007.223	105.55
2010.418	107.24
2013.613	112.85
2016.807	116.43
2020.001	117.76
2023.194	120.89
2026.388	125.02
2029.581	131.24
2032.774	134.74
2035.966	137.44
2039.158	142.85
2042.35	144.92
2045.542	147.38
2048.733	151.86
2051.924	152.45
2055.115	155.73
2058.306	157.19
2061.496	159.19
2064.686	159.53
2067.875	158.92
2071.065	162.34
2074.254	161.65
2077.442	166.31
2080.631	168.59
2083.819	168
2087.007	172.83
2090.195	176.73
2093.382	176.4
2096.569	176.78
2099.756	179.76
2102.942	183.45
2106.128	185.08
2109.314	188.16
2112.5	187.98
2115.685	185.93
2118.87	187.32
2122.055	187.82
2125.239	189.2
2128.424	195.14
2131.608	191.8
2134.791	190.13
2137.974	193.16
2141.157	196.51
2144.34	197.4
2147.523	200.8
2150.705	206.2
2153.887	205.99
2157.068	207.32
2160.25	211.02
2163.431	208.63
2166.611	214.56
2169.792	218.4
2172.972	220.56
2176.152	218.86
2179.331	223.6
2182.511	224.96
2185.69	226.52
2188.868	231.23
2192.047	237.71
2195.225	240.18
2198.403	243.21
2201.58	240.95
2204.758	248.91
2207.935	247.73
2211.111	254.47
2214.288	255.44
2217.464	257.74
2220.64	260.31
2223.815	260.69
2226.991	258.6
2230.166	260.45
2233.34	270.23
2236.515	274.32
2239.689	271.05
2242.863	278.74
2246.036	274.54
2249.209	281.77
2252.382	280.18
2255.555	292.36
2258.727	295.25
2261.9	303.01
2265.071	307.67
2268.243	302.6
2271.414	315.07
2274.585	321.6
2277.756	321.13
2280.926	328.95
2284.096	329.93
2287.266	331
2290.436	327.69
2293.605	335.46
2296.774	345.8
2299.942	346.59
2303.111	359.55
2306.279	366.88
2309.447	365.69
2312.614	370.55
2315.781	380.42
2318.948	380.7
2322.115	389.51
2325.281	399.32
2328.447	398.38
2331.613	401.71
2334.779	405.22
2337.944	404.7
2341.109	411.15
2344.274	417.53
2347.438	422.06
2350.602	432.08
2353.766	465.53
2356.929	465.54
2360.092	479.81
2363.255	479.96
2366.418	484.5
2369.58	495.43
2372.742	502.98
2375.904	499.52
2379.066	514.34
2382.227	541.64
2385.388	538.29
2388.548	510.41
2391.709	507.37
2394.869	517.46
2398.029	520.07
2401.188	522.41
2404.347	534.97
2407.506	551.83
2410.665	526.51
2413.823	532.53
2416.981	535.71
2420.139	509.51
2423.296	554.87
2426.453	583.87
2429.61	557.47
2432.767	592.73
2435.923	611.05
2439.079	597.57
2442.235	604.92
2445.391	625.22
2448.546	613.44
2451.701	650.72
2454.855	695
2458.009	608.11
2461.163	634.24
2464.317	635.99
2467.471	623.89
2470.624	645.03
2473.777	629.44
2476.929	618.51
2480.082	657.71
2483.234	692.54
2486.385	695.59
2489.537	714.8
2492.688	784.41
2495.839	760.37
2498.989	791.43
2502.14	790.58
2505.29	754.34
2508.439	829.32
2511.589	842.7
2514.738	822.47
2517.887	817.11
2521.035	767.61
2524.183	756.68
2527.331	753.46
2530.479	735.59
2533.627	749.87
