Data from C_2_div_il_4n_082_Splice17_01.txt Node
Date: Sat Feb 29 14:18:07 EST 2020
User: sa697716
Spectrometer: FLMS03696
Trigger mode: 0
Integration Time (sec): 3.180400E-1
Scans to average: 20
Electric dark correction enabled: true
Nonlinearity correction enabled: true
Boxcar width: 5
XAxis mode: Wavelengths
Number of Pixels in Spectrum: 2048
>>>>>Begin Spectral Data<<<<<
187.83	39.01
188.298	22.75
188.766	25.75
189.233	11.07
189.701	30.1
190.169	25.42
190.636	46.5
191.104	66.59
191.571	388.54
192.039	440.47
192.506	-435.76
192.974	546.04
193.441	160.6
193.908	20.81
194.375	-89.6
194.842	86.36
195.31	60.89
195.777	136.14
196.244	59.09
196.711	39.88
197.177	34.37
197.644	34.74
198.111	32.99
198.578	31.67
199.045	31.47
199.511	31.92
199.978	31.37
200.445	31.35
200.911	31.39
201.378	31.33
201.844	31.58
202.31	32.01
202.777	32.15
203.243	32.58
203.709	33.02
204.176	32.43
204.642	31.98
205.108	32.07
205.574	31.81
206.04	31.37
206.506	31.09
206.972	30.53
207.438	29.66
207.903	29.36
208.369	28.6
208.835	28.24
209.301	28.43
209.766	27.81
210.232	27.2
210.697	26.45
211.163	25.77
211.628	25.18
212.094	24.49
212.559	24
213.024	23.01
213.49	22.4
213.955	21.68
214.42	20.79
214.885	19.86
215.35	18.72
215.815	17.31
216.28	15.87
216.745	14.57
217.21	12.95
217.675	11.48
218.14	10.05
218.604	8.8
219.069	7.77
219.534	6.84
219.998	6.08
220.463	5.54
220.927	5.06
221.392	4.6
221.856	4.15
222.32	3.87
222.785	3.6
223.249	3.36
223.713	3.19
224.177	2.97
224.642	2.84
225.106	2.72
225.57	2.57
226.034	2.45
226.497	2.33
226.961	2.22
227.425	2.08
227.889	1.98
228.353	1.9
228.816	1.8
229.28	1.72
229.744	1.66
230.207	1.59
230.671	1.52
231.134	1.46
231.597	1.42
232.061	1.37
232.524	1.36
232.987	1.34
233.45	1.31
233.914	1.29
234.377	1.27
234.84	1.22
235.303	1.21
235.766	1.2
236.229	1.18
236.691	1.19
237.154	1.19
237.617	1.16
238.08	1.14
238.542	1.14
239.005	1.13
239.468	1.1
239.93	1.1
240.393	1.08
240.855	1.05
241.317	1.03
241.78	1.02
242.242	1
242.704	0.98
243.166	0.97
243.629	0.95
244.091	0.92
244.553	0.92
245.015	0.92
245.477	0.9
245.939	0.9
246.4	0.89
246.862	0.87
247.324	0.86
247.786	0.85
248.247	0.83
248.709	0.83
249.17	0.82
249.632	0.79
250.093	0.77
250.555	0.76
251.016	0.75
251.477	0.75
251.939	0.74
252.4	0.73
252.861	0.73
253.322	0.72
253.783	0.71
254.244	0.71
254.705	0.71
255.166	0.71
255.627	0.72
256.088	0.7
256.549	0.69
257.009	0.68
257.47	0.68
257.931	0.67
258.391	0.65
258.852	0.64
259.312	0.62
259.773	0.62
260.233	0.6
260.694	0.59
261.154	0.58
261.614	0.56
262.074	0.56
262.534	0.54
262.994	0.53
263.455	0.53
263.915	0.52
264.374	0.51
264.834	0.51
265.294	0.49
265.754	0.49
266.214	0.48
266.673	0.48
267.133	0.47
267.593	0.47
268.052	0.46
268.512	0.46
268.971	0.45
269.431	0.45
269.89	0.44
270.349	0.44
270.809	0.44
271.268	0.44
271.727	0.44
272.186	0.43
272.645	0.43
273.104	0.44
273.563	0.44
274.022	0.44
274.481	0.44
274.94	0.45
275.399	0.45
275.857	0.45
276.316	0.45
276.775	0.44
277.233	0.45
277.692	0.45
278.15	0.45
278.609	0.45
279.067	0.45
279.525	0.45
279.984	0.45
280.442	0.46
280.9	0.47
281.358	0.47
281.816	0.48
282.274	0.48
282.732	0.49
283.19	0.5
283.648	0.5
284.106	0.51
284.564	0.52
285.021	0.53
285.479	0.53
285.937	0.53
286.394	0.53
286.852	0.53
287.309	0.53
287.767	0.53
288.224	0.52
288.682	0.52
289.139	0.52
289.596	0.51
290.053	0.5
290.511	0.49
290.968	0.48
291.425	0.48
291.882	0.47
292.339	0.47
292.796	0.47
293.252	0.46
293.709	0.46
294.166	0.46
294.623	0.46
295.079	0.46
295.536	0.46
295.992	0.46
296.449	0.46
296.905	0.46
297.362	0.46
297.818	0.46
298.274	0.46
298.731	0.46
299.187	0.46
299.643	0.45
300.099	0.45
300.555	0.45
301.011	0.45
301.467	0.45
301.923	0.46
302.379	0.45
302.835	0.46
303.291	0.46
303.746	0.45
304.202	0.45
304.658	0.45
305.113	0.45
305.569	0.46
306.024	0.47
306.479	0.46
306.935	0.46
307.39	0.47
307.845	0.48
308.301	0.48
308.756	0.49
309.211	0.5
309.666	0.5
310.121	0.51
310.576	0.5
311.031	0.51
311.486	0.52
311.94	0.52
312.395	0.53
312.85	0.53
313.305	0.53
313.759	0.53
314.214	0.53
314.668	0.53
315.123	0.54
315.577	0.54
316.032	0.54
316.486	0.54
316.94	0.54
317.394	0.53
317.849	0.53
318.303	0.53
318.757	0.53
319.211	0.52
319.665	0.52
320.119	0.52
320.572	0.53
321.026	0.52
321.48	0.52
321.934	0.52
322.387	0.53
322.841	0.53
323.295	0.53
323.748	0.53
324.202	0.54
324.655	0.54
325.108	0.54
325.562	0.52
326.015	0.52
326.468	0.52
326.921	0.52
327.374	0.52
327.827	0.52
328.28	0.52
328.733	0.52
329.186	0.53
329.639	0.53
330.092	0.53
330.545	0.55
330.997	0.56
331.45	0.56
331.903	0.55
332.355	0.56
332.808	0.56
333.26	0.56
333.713	0.57
334.165	0.57
334.617	0.57
335.069	0.57
335.522	0.57
335.974	0.57
336.426	0.57
336.878	0.58
337.33	0.57
337.782	0.57
338.234	0.57
338.686	0.57
339.137	0.57
339.589	0.57
340.041	0.56
340.493	0.56
340.944	0.55
341.396	0.56
341.847	0.55
342.299	0.55
342.75	0.54
343.201	0.54
343.653	0.53
344.104	0.53
344.555	0.53
345.006	0.53
345.457	0.53
345.908	0.54
346.359	0.53
346.81	0.54
347.261	0.54
347.712	0.55
348.163	0.55
348.613	0.55
349.064	0.55
349.515	0.54
349.965	0.53
350.416	0.53
350.866	0.53
351.317	0.54
351.767	0.53
352.217	0.53
352.668	0.53
353.118	0.52
353.568	0.54
354.018	0.55
354.468	0.55
354.918	0.56
355.368	0.57
355.818	0.56
356.268	0.56
356.718	0.56
357.168	0.56
357.617	0.56
358.067	0.56
358.517	0.55
358.966	0.55
359.416	0.56
359.865	0.57
360.315	0.58
360.764	0.59
361.213	0.59
361.663	0.6
362.112	0.61
362.561	0.62
363.01	0.63
363.459	0.62
363.908	0.62
364.357	0.62
364.806	0.62
365.255	0.63
365.703	0.63
366.152	0.63
366.601	0.64
367.05	0.64
367.498	0.64
367.947	0.64
368.395	0.66
368.844	0.66
369.292	0.66
369.74	0.66
370.189	0.65
370.637	0.66
371.085	0.66
371.533	0.66
371.981	0.65
372.429	0.65
372.877	0.65
373.325	0.64
373.773	0.65
374.221	0.65
374.669	0.66
375.116	0.66
375.564	0.66
376.012	0.65
376.459	0.66
376.907	0.67
377.354	0.68
377.801	0.68
378.249	0.69
378.696	0.71
379.143	0.71
379.591	0.72
380.038	0.74
380.485	0.77
380.932	0.78
381.379	0.8
381.826	0.83
382.273	0.87
382.72	0.91
383.166	0.96
383.613	1.01
384.06	1.08
384.506	1.15
384.953	1.24
385.4	1.36
385.846	1.49
386.292	1.64
386.739	1.81
387.185	2
387.631	2.17
388.078	2.31
388.524	2.41
388.97	2.53
389.416	2.69
389.862	2.91
390.308	3.17
390.754	3.47
391.2	3.76
391.645	4.01
392.091	4.2
392.537	4.45
392.983	4.85
393.428	5.44
393.874	6.14
394.319	6.91
394.765	7.68
395.21	8.46
395.655	9.29
396.101	10.19
396.546	11.22
396.991	12.37
397.436	13.58
397.881	14.78
398.326	15.92
398.771	16.98
399.216	18.02
399.661	18.98
400.106	19.87
400.551	20.66
400.995	21.36
401.44	21.97
401.885	22.59
402.329	23.22
402.774	23.9
403.218	24.68
403.663	25.53
404.107	26.44
404.551	27.38
404.995	28.24
405.44	29.06
405.884	29.95
406.328	31.04
406.772	32.24
407.216	33.49
407.66	34.63
408.104	35.62
408.547	36.51
408.991	37.29
409.435	38.13
409.879	39.14
410.322	40.31
410.766	41.5
411.209	42.6
411.653	43.58
412.096	44.45
412.54	45.27
412.983	46.14
413.426	47.06
413.869	48.06
414.312	49.06
414.756	49.98
415.199	50.77
415.642	51.52
416.085	52.17
416.527	52.7
416.97	53.06
417.413	53.22
417.856	53.22
418.298	53.21
418.741	53.27
419.184	53.42
419.626	53.68
420.069	54.02
420.511	54.33
420.953	54.66
421.396	55.08
421.838	55.71
422.28	56.58
422.722	57.55
423.164	58.46
423.606	59.24
424.048	59.79
424.49	60.01
424.932	59.67
425.374	58.82
425.816	57.58
426.258	56.27
426.699	55.44
427.141	55.37
427.582	55.92
428.024	56.86
428.465	57.89
428.907	58.87
429.348	59.78
429.789	61.08
430.231	63.15
430.672	66.04
431.113	69.32
431.554	72.41
431.995	74.75
432.436	76.42
432.877	77.64
433.318	78.56
433.759	79.62
434.2	81.06
434.64	82.89
435.081	84.62
435.522	86.07
435.962	87.25
436.403	88.19
436.843	89.07
437.284	90.03
437.724	91.13
438.164	92.52
438.604	94.02
439.045	95.62
439.485	96.95
439.925	98.05
440.365	98.92
440.805	99.52
441.245	99.98
441.685	100.55
442.125	101.28
442.564	102.14
443.004	103.07
443.444	104.11
443.883	105.2
444.323	106.34
444.762	107.48
445.202	108.8
445.641	110.44
446.081	112.37
446.52	114.27
446.959	116
447.398	117.25
447.837	118.08
448.276	118.35
448.716	118.52
449.154	118.78
449.593	119.08
450.032	119.15
450.471	118.85
450.91	118.38
451.349	117.88
451.787	117.53
452.226	117.47
452.664	117.46
453.103	117.57
453.541	117.55
453.98	117.19
454.418	116.73
454.856	116.15
455.295	115.71
455.733	115.27
456.171	114.9
456.609	114.54
457.047	114.22
457.485	114.08
457.923	114.16
458.361	114.41
458.798	114.84
459.236	115.25
459.674	115.67
460.111	116.03
460.549	116.42
460.987	116.89
461.424	117.33
461.862	117.73
462.299	118.02
462.736	118.38
463.173	118.93
463.611	119.69
464.048	120.65
464.485	121.88
464.922	123.21
465.359	124.45
465.796	125.51
466.233	126.61
466.67	127.95
467.106	129.7
467.543	131.61
467.98	133.34
468.416	134.81
468.853	136.11
469.29	137.39
469.726	138.73
470.162	140.23
470.599	141.79
471.035	143.12
471.471	144.04
471.907	144.54
472.344	144.88
472.78	145.24
473.216	145.78
473.652	146.27
474.088	146.58
474.523	146.73
474.959	146.77
475.395	146.81
475.831	146.81
476.266	146.9
476.702	147.04
477.138	146.99
477.573	146.8
478.008	146.26
478.444	145.66
478.879	144.91
479.314	144
479.75	142.99
480.185	141.71
480.62	140.08
481.055	137.8
481.49	134.77
481.925	131.55
482.36	128.59
482.795	126.22
483.229	124.33
483.664	122.86
484.099	121.58
484.534	120.47
484.968	119.66
485.403	119.43
485.837	119.84
486.271	120.84
486.706	121.88
487.14	122.51
487.574	122.69
488.009	122.7
488.443	122.58
488.877	122.49
489.311	122.43
489.745	122.38
490.179	122.35
490.613	122.26
491.046	122.27
491.48	122.42
491.914	122.91
492.348	123.56
492.781	124.06
493.215	124.44
493.648	124.64
494.082	124.73
494.515	124.81
494.948	124.82
495.382	124.84
495.815	124.69
496.248	124.48
496.681	124.11
497.114	123.69
497.547	123.38
497.98	123.34
498.413	123.62
498.846	123.98
499.279	124.22
499.711	124.35
500.144	124.68
500.577	125.31
501.009	126.36
501.442	127.65
501.874	129.03
502.306	130.26
502.739	131.18
503.171	131.93
503.603	132.63
504.036	133.51
504.468	134.61
504.9	135.63
505.332	136.46
505.764	137.05
506.196	137.6
506.627	138.23
507.059	139.02
507.491	139.94
507.923	140.86
508.354	141.75
508.786	142.43
509.217	142.83
509.649	143.22
510.08	143.67
510.512	144.22
510.943	144.73
511.374	145.08
511.805	144.92
512.237	144.3
512.668	143.48
513.099	142.83
513.53	142.39
513.961	142.1
514.391	142.03
514.822	142.34
515.253	142.79
515.684	143.32
516.114	144.05
516.545	145.24
516.975	147.2
517.406	149.41
517.836	151.45
518.267	153.25
518.697	155.02
519.127	156.74
519.558	158.28
519.988	159.65
520.418	160.9
520.848	161.98
521.278	162.83
521.708	163.03
522.138	162.72
522.567	162.47
522.997	162.43
523.427	162.68
523.857	162.98
524.286	163.39
524.716	163.8
525.145	164.17
525.575	164.54
526.004	165.24
526.433	166.38
526.863	168.02
527.292	169.52
527.721	170.57
528.15	171.02
528.579	171.14
529.008	170.98
529.437	170.71
529.866	170.43
530.295	170.34
530.724	170.31
531.152	170.25
531.581	170.13
532.01	169.89
532.438	169.8
532.867	169.99
533.295	170.29
533.723	170.52
534.152	170.65
534.58	170.69
535.008	170.34
535.436	169.64
535.865	168.78
536.293	167.93
536.721	167.43
537.149	167.24
537.576	167.13
538.004	167
538.432	166.87
538.86	166.86
539.287	167.05
539.715	167.54
540.143	168.2
540.57	169.01
540.998	169.94
541.425	170.78
541.852	171.47
542.28	172.12
542.707	172.71
543.134	173.18
543.561	173.56
543.988	173.98
544.415	174.42
544.842	174.86
545.269	175.36
545.696	175.81
546.123	176.22
546.549	176.67
546.976	177.09
547.403	177.51
547.829	178.07
548.256	178.58
548.682	178.84
549.108	179.18
549.535	179.51
549.961	179.76
550.387	180.01
550.813	180.34
551.24	180.55
551.666	180.69
552.092	180.62
552.518	180.4
552.943	180.25
553.369	180.09
553.795	179.67
554.221	178.99
554.646	178.1
555.072	177.17
555.498	176.21
555.923	175.48
556.349	174.85
556.774	174.42
557.199	174.01
557.625	173.5
558.05	173.01
558.475	172.66
558.9	172.45
559.325	172.36
559.75	172.19
560.175	171.96
560.6	171.39
561.025	170.57
561.449	169.62
561.874	168.68
562.299	167.98
562.723	167.25
563.148	166.51
563.572	165.75
563.997	164.86
564.421	163.94
564.846	162.96
565.27	162.16
565.694	161.3
566.118	160.42
566.542	159.48
566.966	158.41
567.39	157.48
567.814	156.68
568.238	155.98
568.662	155.52
569.086	155.12
569.509	154.83
569.933	154.43
570.357	154.14
570.78	153.88
571.204	153.67
571.627	153.51
572.05	153.34
572.474	153.02
572.897	152.65
573.32	152.12
573.743	151.55
574.166	150.89
574.589	150.34
575.012	150.02
575.435	149.83
575.858	149.8
576.281	149.77
576.704	149.66
577.126	149.64
577.549	149.73
577.972	149.99
578.394	150.31
578.817	150.7
579.239	151.16
579.661	151.44
580.084	151.68
580.506	151.7
580.928	151.56
581.35	151.4
581.772	151.11
582.194	150.75
582.616	150.37
583.038	149.98
583.46	149.57
583.882	148.78
584.303	147.63
584.725	146.13
585.147	144.67
585.568	143.49
585.99	142.57
586.411	141.87
586.833	141.17
587.254	140.47
587.675	139.83
588.096	139.31
588.518	139
588.939	139.08
589.36	139.53
589.781	140.04
590.202	140.31
590.623	140.32
591.043	140.11
591.464	139.91
591.885	139.68
592.305	139.36
592.726	139.03
593.147	138.67
593.567	138.18
593.987	137.7
594.408	137.22
594.828	136.77
595.248	136.36
595.669	135.86
596.089	135.27
596.509	134.56
596.929	133.84
597.349	132.97
597.769	132.17
598.189	131.54
598.608	130.95
599.028	130.43
599.448	130
599.867	129.57
600.287	129.2
600.706	128.81
601.126	128.46
601.545	128.11
601.965	127.84
602.384	127.59
602.803	127.23
603.222	126.81
603.641	126.27
604.061	125.64
604.48	124.92
604.898	124.2
605.317	123.5
605.736	122.77
606.155	122.03
606.574	121.33
606.992	120.64
607.411	119.96
607.829	119.23
608.248	118.61
608.666	117.95
609.085	117.3
609.503	116.63
609.921	116.02
610.339	115.49
610.758	114.98
611.176	114.34
611.594	113.59
612.012	112.81
612.43	112.1
612.847	111.42
613.265	110.93
613.683	110.53
614.101	110.16
614.518	109.8
614.936	109.4
615.353	109.1
615.771	108.91
616.188	108.85
616.606	108.82
617.023	108.78
617.44	108.62
617.857	108.31
618.274	107.93
618.691	107.48
619.108	107.02
619.525	106.55
619.942	105.97
620.359	105.32
620.776	104.59
621.192	103.85
621.609	103.17
622.026	102.6
622.442	102.1
622.859	101.55
623.275	101.03
623.691	100.44
624.108	99.93
624.524	99.47
624.94	99.05
625.356	98.63
625.772	98.31
626.188	97.99
626.604	97.6
627.02	97.18
627.436	96.82
627.852	96.54
628.268	96.4
628.683	96.25
629.099	96.14
629.514	96
629.93	95.88
630.345	95.81
630.761	95.72
631.176	95.63
631.591	95.55
632.007	95.51
632.422	95.49
632.837	95.42
633.252	95.31
633.667	95.22
634.082	95.19
634.497	95.16
634.911	94.98
635.326	94.72
635.741	94.48
636.155	94.21
636.57	93.89
636.984	93.46
637.399	93.02
637.813	92.63
638.228	92.21
638.642	91.77
639.056	91.33
639.47	90.95
639.884	90.63
640.298	90.31
640.712	90
641.126	89.69
641.54	89.41
641.954	89.1
642.368	88.71
642.781	88.28
643.195	87.82
643.609	87.41
644.022	86.98
644.436	86.52
644.849	85.93
645.262	85.35
645.676	84.83
646.089	84.42
646.502	84.07
646.915	83.77
647.328	83.46
647.741	83.2
648.154	82.92
648.567	82.72
648.98	82.55
649.393	82.49
649.805	82.43
650.218	82.31
650.631	81.99
651.043	81.41
651.456	80.46
651.868	79.26
652.28	78.03
652.693	76.94
653.105	76.04
653.517	75.33
653.929	74.83
654.341	74.44
654.753	74.16
655.165	73.97
655.577	74
655.989	74.46
656.401	75.12
656.813	75.88
657.224	76.54
657.636	76.94
658.047	77.16
658.459	77.16
658.87	77.05
659.282	76.86
659.693	76.65
660.104	76.43
660.515	76.18
660.926	75.98
661.338	75.71
661.749	75.39
662.159	75.07
662.57	74.7
662.981	74.34
663.392	74.05
663.803	73.72
664.213	73.47
664.624	73.21
665.035	72.9
665.445	72.59
665.855	72.25
666.266	71.89
666.676	71.51
667.086	71.18
667.497	70.85
667.907	70.48
668.317	70.15
668.727	69.79
669.137	69.46
669.547	69.13
669.956	68.8
670.366	68.51
670.776	68.22
671.186	67.98
671.595	67.72
672.005	67.53
672.414	67.31
672.824	67.13
673.233	66.94
673.642	66.76
674.052	66.59
674.461	66.43
674.87	66.28
675.279	66.15
675.688	66.02
676.097	65.92
676.506	65.79
676.915	65.72
677.323	65.64
677.732	65.55
678.141	65.48
678.549	65.44
678.958	65.41
679.366	65.37
679.775	65.32
680.183	65.27
680.592	65.24
681	65.22
681.408	65.16
681.816	64.93
682.224	64.4
682.632	63.52
683.04	62.37
683.448	61.27
683.856	60.33
684.264	59.49
684.671	58.71
685.079	57.95
685.487	57.3
685.894	56.78
686.302	56.52
686.709	56.7
687.116	57.34
687.524	58.33
687.931	59.36
688.338	60.32
688.745	61.28
689.152	62.25
689.559	63.12
689.966	63.95
690.373	64.74
690.78	65.44
691.187	66.08
691.593	66.61
692	67.15
692.407	67.64
692.813	68.11
693.22	68.48
693.626	68.82
694.032	69.2
694.439	69.54
694.845	69.79
695.251	70.04
695.657	70.21
696.063	70.38
696.469	70.45
696.875	70.44
697.281	70.39
697.687	70.39
698.093	70.36
698.498	70.34
698.904	70.36
699.31	70.39
699.715	70.51
700.12	70.67
700.526	70.84
700.931	70.99
701.337	71.22
701.742	71.43
702.147	71.65
702.552	71.87
702.957	72.09
703.362	72.29
703.767	72.45
704.172	72.54
704.577	72.63
704.981	72.7
705.386	72.75
705.791	72.81
706.195	72.85
706.6	72.86
707.004	72.89
707.408	72.9
707.813	72.85
708.217	72.81
708.621	72.78
709.025	72.73
709.43	72.67
709.834	72.66
710.237	72.55
710.641	72.49
711.045	72.39
711.449	72.27
711.853	72.07
712.256	71.79
712.66	71.36
713.064	70.81
713.467	70.14
713.87	69.33
714.274	68.43
714.677	67.48
715.08	66.49
715.484	65.53
715.887	64.63
716.29	63.91
716.693	63.4
717.096	63.29
717.499	63.41
717.901	63.68
718.304	64.11
718.707	64.55
719.109	65.02
719.512	65.44
719.915	65.8
720.317	66.08
720.719	66.25
721.122	66.3
721.524	66.19
721.926	65.96
722.328	65.66
722.731	65.41
723.133	65.17
723.535	64.99
723.937	64.93
724.338	64.84
724.74	64.79
725.142	64.63
725.544	64.59
725.945	64.53
726.347	64.47
726.748	64.42
727.15	64.35
727.551	64.4
727.952	64.48
728.354	64.66
728.755	64.88
729.156	65.19
729.557	65.62
729.958	65.96
730.359	66.26
730.76	66.47
731.161	66.69
731.562	66.9
731.962	67.04
732.363	67.1
732.763	67.12
733.164	67.12
733.564	67.02
733.965	66.87
734.365	66.66
734.766	66.44
735.166	66.26
735.566	66.08
735.966	65.93
736.366	65.74
736.766	65.58
737.166	65.39
737.566	65.19
737.966	65.02
738.365	64.91
738.765	64.85
739.165	64.8
739.564	64.8
739.964	64.76
740.363	64.68
740.763	64.62
741.162	64.57
741.561	64.56
741.96	64.54
742.36	64.52
742.759	64.43
743.158	64.33
743.557	64.27
743.955	64.18
744.354	64.11
744.753	64.02
745.152	63.9
745.55	63.78
745.949	63.6
746.348	63.46
746.746	63.28
747.144	63.16
747.543	63
747.941	62.87
748.339	62.74
748.737	62.62
749.136	62.5
749.534	62.46
749.932	62.42
750.33	62.34
750.727	62.29
751.125	62.22
751.523	62.07
751.921	61.97
752.318	61.82
752.716	61.65
753.113	61.49
753.511	61.32
753.908	61.08
754.305	60.74
754.703	60.07
755.1	58.7
755.497	56.5
755.894	53.49
756.291	49.92
756.688	46.19
757.085	42.71
757.482	39.51
757.878	36.48
758.275	33.47
758.672	30.47
759.068	27.83
759.465	25.93
759.861	25.09
760.258	25.29
760.654	26.31
761.05	27.73
761.447	29.15
761.843	30.52
762.239	31.98
762.635	33.69
763.031	35.72
763.427	37.93
763.822	40.23
764.218	42.47
764.614	44.61
765.01	46.57
765.405	48.36
765.801	49.98
766.196	51.42
766.592	52.61
766.987	53.54
767.382	54.23
767.778	54.77
768.173	55.17
768.568	55.47
768.963	55.71
769.358	55.88
769.753	56
770.148	56.02
770.542	55.95
770.937	55.87
771.332	55.83
771.726	55.81
772.121	55.75
772.515	55.72
772.91	55.67
773.304	55.53
773.699	55.37
774.093	55.21
774.487	55.15
774.881	55.07
775.275	54.94
775.669	54.86
776.063	54.71
776.457	54.55
776.851	54.36
777.245	54.19
777.638	54.08
778.032	53.97
778.425	53.88
778.819	53.69
779.212	53.49
779.606	53.32
779.999	53.13
780.392	52.96
780.786	52.79
781.179	52.65
781.572	52.48
781.965	52.3
782.358	52.06
782.751	51.86
783.143	51.68
783.536	51.53
783.929	51.34
784.322	51.13
784.714	50.91
785.107	50.68
785.499	50.42
785.891	50.17
786.284	49.89
786.676	49.68
787.068	49.36
787.46	49.06
787.852	48.76
788.245	48.49
788.636	48.19
789.028	47.88
789.42	47.54
789.812	47.24
790.204	46.89
790.595	46.6
790.987	46.31
791.378	46.08
791.77	45.87
792.161	45.65
792.553	45.42
792.944	45.23
793.335	45.11
793.726	44.97
794.117	44.8
794.508	44.69
794.899	44.49
795.29	44.29
795.681	44.07
796.072	43.81
796.463	43.54
796.853	43.27
797.244	42.99
797.634	42.69
798.025	42.38
798.415	42.06
798.806	41.74
799.196	41.49
799.586	41.18
799.976	40.88
800.366	40.6
800.756	40.33
801.146	40.08
801.536	39.8
801.926	39.54
802.316	39.32
802.706	39.09
803.095	38.86
803.485	38.59
803.874	38.32
804.264	38.08
804.653	37.8
805.043	37.51
805.432	37.15
805.821	36.83
806.21	36.51
806.599	36.17
806.988	35.83
807.377	35.48
807.766	35.13
808.155	34.8
808.544	34.37
808.933	33.96
809.321	33.57
809.71	33.15
810.098	32.67
810.487	32.16
810.875	31.59
811.264	31.05
811.652	30.44
812.04	29.84
812.428	29.26
812.816	28.72
813.204	28.19
813.592	27.68
813.98	27.22
814.368	26.8
814.756	26.43
815.144	26.08
815.531	25.77
815.919	25.56
816.306	25.4
816.694	25.28
817.081	25.17
817.469	25.05
817.856	24.9
818.243	24.66
818.63	24.39
819.017	24.08
819.404	23.84
819.791	23.63
820.178	23.43
820.565	23.23
820.952	22.98
821.339	22.75
821.725	22.57
822.112	22.42
822.498	22.38
822.885	22.34
823.271	22.3
823.657	22.2
824.044	22.03
824.43	21.83
824.816	21.58
825.202	21.35
825.588	21.13
825.974	20.88
826.36	20.64
826.746	20.39
827.132	20.14
827.517	19.93
827.903	19.78
828.289	19.6
828.674	19.42
829.06	19.27
829.445	19.13
829.83	18.98
830.216	18.86
830.601	18.73
830.986	18.62
831.371	18.54
831.756	18.42
832.141	18.32
832.526	18.23
832.911	18.16
833.295	18.1
833.68	18.03
834.065	17.95
834.449	17.83
834.834	17.73
835.218	17.63
835.603	17.52
835.987	17.44
836.371	17.35
836.755	17.26
837.139	17.14
837.524	17.02
837.908	16.9
838.291	16.79
838.675	16.7
839.059	16.62
839.443	16.51
839.827	16.4
840.21	16.31
840.594	16.19
840.977	16.08
841.361	15.99
841.744	15.89
842.127	15.79
842.511	15.7
842.894	15.6
843.277	15.49
843.66	15.4
844.043	15.31
844.426	15.21
844.809	15.12
845.191	14.99
845.574	14.85
845.957	14.69
846.339	14.55
846.722	14.41
847.104	14.31
847.487	14.19
847.869	14.07
848.252	13.94
848.634	13.82
849.016	13.67
849.398	13.53
849.78	13.38
850.162	13.22
850.544	13.07
850.926	12.91
851.307	12.79
851.689	12.66
852.071	12.56
852.452	12.48
852.834	12.39
853.215	12.35
853.597	12.34
853.978	12.36
854.359	12.41
854.741	12.44
855.122	12.47
855.503	12.46
855.884	12.45
856.265	12.44
856.646	12.42
857.026	12.38
857.407	12.32
857.788	12.26
858.169	12.21
858.549	12.14
858.93	12.09
859.31	12.01
859.69	11.96
860.071	11.89
860.451	11.81
860.831	11.7
861.211	11.6
861.591	11.49
861.971	11.33
862.351	11.18
862.731	11.04
863.111	10.9
863.491	10.78
863.87	10.66
864.25	10.55
864.629	10.46
865.009	10.39
865.388	10.34
865.768	10.31
866.147	10.33
866.526	10.37
866.905	10.36
867.284	10.37
867.663	10.37
868.042	10.37
868.421	10.35
868.8	10.33
869.179	10.3
869.558	10.26
869.936	10.23
870.315	10.18
870.693	10.14
871.072	10.12
871.45	10.07
871.828	10.03
872.207	9.98
872.585	9.93
872.963	9.89
873.341	9.88
873.719	9.86
874.097	9.82
874.475	9.8
874.853	9.76
875.23	9.72
875.608	9.67
875.986	9.64
876.363	9.59
876.741	9.55
877.118	9.48
877.495	9.42
877.873	9.37
878.25	9.32
878.627	9.27
879.004	9.24
879.381	9.21
879.758	9.16
880.135	9.12
880.512	9.09
880.889	9.06
881.265	9.06
881.642	9.03
882.019	8.98
882.395	8.95
882.772	8.9
883.148	8.85
883.524	8.8
883.901	8.76
884.277	8.73
884.653	8.69
885.029	8.65
885.405	8.61
885.781	8.57
886.157	8.55
886.532	8.53
886.908	8.5
887.284	8.49
887.659	8.46
888.035	8.43
888.411	8.4
888.786	8.35
889.161	8.3
889.537	8.25
889.912	8.21
890.287	8.15
890.662	8.07
891.037	8.01
891.412	7.92
891.787	7.84
892.162	7.74
892.536	7.65
892.911	7.54
893.286	7.45
893.66	7.37
894.035	7.27
894.409	7.18
894.784	7.08
895.158	6.98
895.532	6.88
895.906	6.8
896.281	6.73
896.655	6.65
897.029	6.58
897.402	6.52
897.776	6.45
898.15	6.4
898.524	6.35
898.898	6.36
899.271	6.35
899.645	6.37
900.018	6.37
900.392	6.42
900.765	6.46
901.138	6.51
901.511	6.56
901.884	6.61
902.258	6.65
902.631	6.68
903.003	6.66
903.376	6.66
903.749	6.65
904.122	6.63
904.495	6.58
904.867	6.51
905.24	6.46
905.612	6.4
905.985	6.35
906.357	6.28
906.729	6.24
907.102	6.21
907.474	6.17
907.846	6.14
908.218	6.09
908.59	6.06
908.962	6.07
909.334	6.05
909.705	6.02
910.077	6
910.449	6
910.82	5.99
911.192	5.99
911.563	5.96
911.935	5.92
912.306	5.92
912.677	5.93
913.048	5.89
913.419	5.85
913.79	5.82
914.161	5.79
914.532	5.79
914.903	5.79
915.274	5.76
915.645	5.78
916.015	5.83
916.386	5.84
916.756	5.84
917.127	5.89
917.497	5.93
917.868	5.96
918.238	6
918.608	6
918.978	6.01
919.348	6.03
919.718	6.03
920.088	5.99
920.458	5.99
920.828	5.96
921.198	5.93
921.567	5.89
921.937	5.89
922.306	5.86
922.676	5.86
923.045	5.81
923.415	5.78
923.784	5.76
924.153	5.77
924.522	5.74
924.891	5.71
925.26	5.69
925.629	5.69
925.998	5.63
926.367	5.59
926.736	5.51
927.104	5.44
927.473	5.37
927.842	5.26
928.21	5.13
928.578	5.01
928.947	4.89
929.315	4.75
929.683	4.57
930.051	4.43
930.42	4.26
930.788	4.12
931.156	4.01
931.523	3.88
931.891	3.77
932.259	3.73
932.627	3.65
932.994	3.61
933.362	3.55
933.729	3.53
934.097	3.56
934.464	3.61
934.831	3.66
935.199	3.72
935.566	3.87
935.933	3.97
936.3	4.07
936.667	4.2
937.034	4.29
937.401	4.45
937.767	4.67
938.134	4.78
938.501	4.93
938.867	5.08
939.234	5.19
939.6	5.22
939.967	5.35
940.333	5.37
940.699	5.44
941.065	5.54
941.431	5.52
941.798	5.49
942.163	5.57
942.529	5.55
942.895	5.65
943.261	5.65
943.627	5.64
943.992	5.61
944.358	5.58
944.723	5.54
945.089	5.47
945.454	5.55
945.82	5.51
946.185	5.43
946.55	5.42
946.915	5.28
947.28	5.24
947.645	5.25
948.01	5.2
948.375	5.24
948.74	5.23
949.104	5.25
949.469	5.16
949.834	5.14
950.198	5.16
950.562	5.14
950.927	5.12
951.291	5.12
951.655	5.06
952.02	5.04
952.384	4.99
952.748	4.94
953.112	4.89
953.476	4.88
953.839	4.89
954.203	4.78
954.567	4.75
954.931	4.73
955.294	4.68
955.658	4.59
956.021	4.6
956.385	4.62
956.748	4.62
957.111	4.61
957.474	4.63
957.837	4.59
958.2	4.66
958.563	4.69
958.926	4.72
959.289	4.72
959.652	4.82
960.015	4.83
960.377	4.83
960.74	4.87
961.102	4.93
961.465	4.92
961.827	4.86
962.189	4.84
962.552	4.77
962.914	4.74
963.276	4.76
963.638	4.73
964	4.72
964.362	4.74
964.724	4.77
965.085	4.76
965.447	4.81
965.809	4.9
966.17	5.01
966.532	5.09
966.893	5.15
967.255	5.15
967.616	5.21
967.977	5.27
968.338	5.27
968.699	5.29
969.061	5.29
969.421	5.34
969.782	5.35
970.143	5.32
970.504	5.28
970.865	5.23
971.225	5.26
971.586	5.27
971.946	5.27
972.307	5.29
972.667	5.25
973.027	5.37
973.388	5.29
973.748	5.24
974.108	5.21
974.468	5.27
974.828	5.36
975.188	5.32
975.548	5.28
975.907	5.3
976.267	5.35
976.627	5.39
976.986	5.24
977.346	5.36
977.705	5.44
978.064	5.52
978.424	5.53
978.783	5.5
979.142	5.55
979.501	5.64
979.86	5.62
980.219	5.55
980.578	5.57
980.937	5.64
981.296	5.57
981.654	5.55
982.013	5.57
982.371	5.61
982.73	5.65
983.088	5.65
983.447	5.66
983.805	5.66
984.163	5.68
984.521	5.74
984.879	5.81
985.237	5.88
985.595	5.94
985.953	5.95
986.311	5.97
986.669	6.04
987.026	6.06
987.384	6.07
987.741	6.13
988.099	6.1
988.456	6.14
988.814	6.09
989.171	6.14
989.528	6.2
989.885	6.15
990.242	6.14
990.599	6.11
990.956	6.23
991.313	6.22
991.67	6.27
992.027	6.37
992.383	6.37
992.74	6.37
993.096	6.28
993.453	6.31
993.809	6.37
994.165	6.45
994.522	6.37
994.878	6.37
995.234	6.39
995.59	6.3
995.946	6.39
996.302	6.47
996.658	6.72
997.013	6.78
997.369	6.81
997.725	6.76
998.08	6.64
998.436	6.89
998.791	6.85
999.147	6.98
999.502	7.14
999.857	7.16
1000.212	7.02
1000.567	6.84
1000.922	6.84
1001.277	6.79
1001.632	6.95
1001.987	6.99
1002.342	6.94
1002.696	6.88
1003.051	6.76
1003.406	6.69
1003.76	6.87
1004.114	6.95
1004.469	7.02
1004.823	7.15
1005.177	7.26
1005.531	7.17
1005.885	7.3
1006.239	7.14
1006.593	7.33
1006.947	7.56
1007.301	7.62
1007.655	7.55
1008.008	7.73
1008.362	7.82
1008.715	7.8
1009.069	7.77
1009.422	7.93
1009.776	8.12
1010.129	8.28
1010.482	8.31
1010.835	8.24
1011.188	8.21
1011.541	8.03
1011.894	7.93
1012.247	8.05
1012.6	8.11
1012.952	8.2
1013.305	8.14
1013.657	8.21
1014.01	8.4
1014.362	8.58
1014.715	8.57
1015.067	9.04
1015.419	9.39
1015.771	9.47
1016.123	9.31
1016.475	9.46
1016.827	9.51
1017.179	9.85
1017.531	9.64
1017.883	9.52
1018.234	9.34
1018.586	9.45
1018.938	9.12
1019.289	8.81
1019.64	8.91
1019.992	9.1
1020.343	9.23
1020.694	9.31
1021.045	9.22
1021.396	9.55
1021.747	9.89
1022.098	10.28
1022.449	10.52
1022.8	10.66
1023.151	11.13
1023.501	11.16
1023.852	11.39
1024.202	11.49
1024.553	11.67
1024.903	11.69
1025.253	11.71
1025.604	11.94
1025.954	11.8
1026.304	12.18
1026.654	12.52
1027.004	12.4
1027.354	12.72
1027.703	13.27
1028.053	13.05
1028.403	13.24
1028.753	13.74
1029.102	14.08
1029.452	14.18
1029.801	14.62
1030.15	14.51
1030.499	14.6
897.758	232.61
901.051	233.1
904.343	238.48
907.636	232.04
910.928	231.04
914.22	235.22
917.511	225.84
920.803	219.9
924.094	208.95
927.384	210.41
930.675	205.45
933.965	203.39
937.255	204.25
940.544	193.17
943.834	189.28
947.123	185.3
950.411	176.61
953.7	176.59
956.988	172.72
960.276	169.88
963.563	168.49
966.851	160.53
970.138	159.11
973.424	150.4
976.711	153.31
979.997	147.85
983.283	145.47
986.568	141.97
989.853	138.15
993.138	132.59
996.423	133.59
999.708	131.1
1002.992	131.55
1006.275	128.26
1009.559	128.12
1012.842	123.09
1016.125	120.6
1019.408	117.64
1022.69	118.08
1025.972	116.25
1029.254	114.75
1032.536	111.13
1035.817	108.4
1039.098	108.04
1042.379	106.64
1045.659	106.22
1048.939	104.24
1052.219	104.66
1055.498	104.02
1058.778	102.07
1062.057	101
1065.335	101.66
1068.614	101.02
1071.892	100.33
1075.17	98.94
1078.447	98.56
1081.724	97.52
1085.001	95.72
1088.278	95.74
1091.554	96.22
1094.83	95.32
1098.106	95.98
1101.382	94.82
1104.657	94.6
1107.932	94.59
1111.206	94.23
1114.481	93.2
1117.755	91.45
1121.029	92.47
1124.302	90.71
1127.575	91.02
1130.848	90.62
1134.121	89.31
1137.393	89.51
1140.665	87.87
1143.937	86.86
1147.208	86.03
1150.48	85.63
1153.75	85.08
1157.021	84.04
1160.291	84.45
1163.561	82.18
1166.831	83.27
1170.101	83.05
1173.37	81.63
1176.639	81.62
1179.907	81.55
1183.176	80.62
1186.444	79.89
1189.711	80.57
1192.979	80.87
1196.246	81.17
1199.513	81.29
1202.78	80.11
1206.046	80.22
1209.312	81.36
1212.578	81.53
1215.843	82.35
1219.108	83.65
1222.373	85.29
1225.638	86.04
1228.902	87.47
1232.166	88.58
1235.43	88.89
1238.693	90.68
1241.956	92.25
1245.219	94.27
1248.482	95.27
1251.744	94.57
1255.006	93.8
1258.268	91.65
1261.529	91.67
1264.79	90.5
1268.051	88.79
1271.312	88.19
1274.572	87.66
1277.832	86.04
1281.092	84.87
1284.351	83.56
1287.61	83.34
1290.869	83.79
1294.128	83.98
1297.386	83.07
1300.644	82.16
1303.902	81.38
1307.159	81.77
1310.416	81.27
1313.673	82.21
1316.93	82.4
1320.186	83.95
1323.442	84.23
1326.697	83.81
1329.953	83.88
1333.208	85.64
1336.463	87.83
1339.717	89.19
1342.972	91.67
1346.226	93.02
1349.479	92.05
1352.733	94.53
1355.986	93.38
1359.238	95.54
1362.491	95.75
1365.743	98.46
1368.995	98.88
1372.247	96.25
1375.498	95.28
1378.749	95.21
1382	95.11
1385.251	94.26
1388.501	93.57
1391.751	93.85
1395	92.79
1398.25	93.1
1401.499	90.76
1404.748	89.09
1407.996	88.77
1411.244	88.81
1414.492	87.88
1417.74	84.21
1420.987	84.03
1424.234	82.24
1427.481	77.8
1430.728	75.6
1433.974	73.63
1437.22	72.08
1440.465	68.55
1443.711	66.83
1446.956	65.1
1450.201	61.92
1453.445	58.46
1456.689	56.48
1459.933	54.98
1463.177	53.49
1466.42	52.56
1469.663	51.71
1472.906	49.86
1476.148	49.13
1479.391	49.22
1482.633	48.23
1485.874	48.53
1489.115	49.54
1492.356	48.67
1495.597	47.78
1498.838	48.92
1502.078	48.74
1505.318	48.6
1508.557	47.91
1511.797	48.92
1515.036	48.39
1518.274	48.93
1521.513	48.79
1524.751	48.36
1527.989	49.32
1531.227	49.86
1534.464	49.71
1537.701	49.9
1540.938	49.49
1544.174	50.37
1547.41	50.85
1550.646	51.28
1553.882	51.02
1557.117	51.62
1560.352	52.43
1563.587	51.7
1566.821	51.81
1570.055	52.03
1573.289	52.6
1576.523	52.99
1579.756	53.15
1582.989	52.88
1586.222	52.99
1589.454	53.08
1592.686	53.63
1595.918	53.03
1599.15	53.57
1602.381	54.18
1605.612	54.5
1608.843	53.87
1612.073	54.73
1615.303	55.35
1618.533	55.21
1621.762	55.19
1624.992	55.29
1628.221	54.79
1631.449	55.62
1634.678	55.76
1637.906	54.96
1641.134	54.78
1644.361	55.28
1647.588	54.84
1650.815	54.56
1654.042	55.48
1657.269	55.23
1660.495	55.79
1663.72	56.02
1666.946	55.63
1670.171	56.03
1673.396	56.38
1676.621	56.7
1679.845	57.28
1683.069	57.13
1686.293	56.99
1689.517	56.42
1692.74	56.76
1695.963	56.87
1699.185	56.82
1702.408	56.65
1705.63	56.49
1708.852	57.22
1712.073	56.64
1715.294	55.95
1718.515	56.65
1721.736	56.58
1724.956	57.24
1728.176	56.93
1731.396	56.55
1734.616	56.74
1737.835	56.98
1741.054	56.67
1744.272	55.72
1747.491	55.71
1750.709	56.07
1753.927	55.4
1757.144	55.67
1760.361	54.7
1763.578	55
1766.795	55.39
1770.011	54.91
1773.227	54.99
1776.443	55.55
1779.658	55.15
1782.874	56.17
1786.089	55.02
1789.303	55.24
1792.518	55.13
1795.732	55.79
1798.945	56.24
1802.159	56.24
1805.372	56.44
1808.585	56.96
1811.797	56.06
1815.01	58.09
1818.222	57.41
1821.434	58.82
1824.645	58.37
1827.856	58.82
1831.067	58.63
1834.278	58.97
1837.488	59.28
1840.698	59.31
1843.908	59.22
1847.117	60.58
1850.326	59.48
1853.535	59.57
1856.744	59.14
1859.952	59.46
1863.16	58.69
1866.368	57.92
1869.575	57.76
1872.782	55.56
1875.989	53.7
1879.196	53.08
1882.402	51.3
1885.608	51.44
1888.814	50.09
1892.019	49.34
1895.224	48.12
1898.429	48.23
1901.634	47.44
1904.838	46.47
1908.042	47.43
1911.246	48.47
1914.449	48.53
1917.652	46.85
1920.855	46.06
1924.058	46.1
1927.26	45.09
1930.462	45.92
1933.664	45.79
1936.865	46.12
1940.066	44.48
1943.267	45
1946.467	44.5
1949.668	44.74
1952.868	46.37
1956.067	47.09
1959.267	47.79
1962.466	48.33
1965.665	48.93
1968.863	49.28
1972.061	49.99
1975.259	52.4
1978.457	52.09
1981.654	52.03
1984.852	52.31
1988.048	52.64
1991.245	53.28
1994.441	53.71
1997.637	54.6
2000.833	56.79
2004.028	56.46
2007.223	56.56
2010.418	56.76
2013.613	60.54
2016.807	63.33
2020.001	63.31
2023.194	66.86
2026.388	68.48
2029.581	72.04
2032.774	74.13
2035.966	73.83
2039.158	78.17
2042.35	79.23
2045.542	81.82
2048.733	81.69
2051.924	82.47
2055.115	83.2
2058.306	82.1
2061.496	82.73
2064.686	82.88
2067.875	84.26
2071.065	85.53
2074.254	83.54
2077.442	86.72
2080.631	86.79
2083.819	88.63
2087.007	91.22
2090.195	96.31
2093.382	94.73
2096.569	95.67
2099.756	97.85
2102.942	98.87
2106.128	100.75
2109.314	105.23
2112.5	106.33
2115.685	103.35
2118.87	104.05
2122.055	104.86
2125.239	104.23
2128.424	108.79
2131.608	106.05
2134.791	104.82
2137.974	106.07
2141.157	107.91
2144.34	105.41
2147.523	110.19
2150.705	115.12
2153.887	115.1
2157.068	116.63
2160.25	118.68
2163.431	118.43
2166.611	122.01
2169.792	124
2172.972	127.72
2176.152	125.93
2179.331	129.35
2182.511	128.22
2185.69	129.66
2188.868	131.7
2192.047	135.35
2195.225	139.2
2198.403	138.4
2201.58	138.92
2204.758	144.86
2207.935	141.95
2211.111	145.7
2214.288	145.82
2217.464	146.48
2220.64	149.54
2223.815	149.21
2226.991	144.93
2230.166	144.56
2233.34	151.47
2236.515	153.03
2239.689	148.39
2242.863	151.39
2246.036	150.4
2249.209	153.59
2252.382	152.76
2255.555	156.47
2258.727	160.11
2261.9	162.47
2265.071	164.05
2268.243	163.17
2271.414	168.55
2274.585	172.86
2277.756	174.62
2280.926	177.55
2284.096	181.96
2287.266	182.16
2290.436	180.2
2293.605	183.78
2296.774	190.26
2299.942	192.49
2303.111	194.54
2306.279	198.98
2309.447	202.4
2312.614	199.41
2315.781	203.92
2318.948	202.47
2322.115	210.17
2325.281	216.79
2328.447	208.77
2331.613	218.88
2334.779	218.61
2337.944	218.66
2341.109	220.34
2344.274	219.67
2347.438	233.55
2350.602	239.97
2353.766	250.79
2356.929	248.38
2360.092	255.09
2363.255	263.83
2366.418	258.61
2369.58	262.4
2372.742	269.7
2375.904	270.96
2379.066	279.84
2382.227	276.6
2385.388	274.33
2388.548	258.81
2391.709	261.06
2394.869	258
2398.029	264.44
2401.188	262.62
2404.347	269.45
2407.506	278.66
2410.665	268.97
2413.823	273.5
2416.981	280.43
2420.139	272.58
2423.296	299.63
2426.453	321.73
2429.61	308.36
2432.767	321.84
2435.923	339
2439.079	333.03
2442.235	335.17
2445.391	345.85
2448.546	339.71
2451.701	356.85
2454.855	368.58
2458.009	338.64
2461.163	333.92
2464.317	341.23
2467.471	337.64
2470.624	351.33
2473.777	337.81
2476.929	332.61
2480.082	344.29
2483.234	362.88
2486.385	373.08
2489.537	386.3
2492.688	412.63
2495.839	406.81
2498.989	423.82
2502.14	424.61
2505.29	402.67
2508.439	443.17
2511.589	448.72
2514.738	449.94
2517.887	438.06
2521.035	407.08
2524.183	394.92
2527.331	396.95
2530.479	389.73
2533.627	393.35
