Data from C_2_div_oh_2n_066_Splice17_10.txt Node
Date: Sat Feb 29 14:26:02 EST 2020
User: sa697716
Spectrometer: FLMS03696
Trigger mode: 0
Integration Time (sec): 3.180400E-1
Scans to average: 20
Electric dark correction enabled: true
Nonlinearity correction enabled: true
Boxcar width: 5
XAxis mode: Wavelengths
Number of Pixels in Spectrum: 2048
>>>>>Begin Spectral Data<<<<<
187.83	70.96
188.298	53.92
188.766	42.58
189.233	45.83
189.701	51.47
190.169	57.96
190.636	40.62
191.104	-2.8
191.571	-159.75
192.039	63.8
192.506	352.05
192.974	4871.06
193.441	59.34
193.908	21.86
194.375	-19.9
194.842	11.87
195.31	18.06
195.777	-54.02
196.244	-8.53
196.711	18.45
197.177	18.66
197.644	20.29
198.111	20.99
198.578	22.06
199.045	22.55
199.511	23.53
199.978	24.18
200.445	24.24
200.911	24.32
201.378	24.51
201.844	24.8
202.31	25.85
202.777	26.06
203.243	26.67
203.709	26.85
204.176	26.59
204.642	26.9
205.108	26.96
205.574	27.71
206.04	28.07
206.506	28.15
206.972	28.1
207.438	27.94
207.903	28.44
208.369	28.45
208.835	28.45
209.301	28.82
209.766	28.57
210.232	28.54
210.697	28.1
211.163	28.03
211.628	27.6
212.094	27.48
212.559	27.14
213.024	26.74
213.49	26.3
213.955	26.11
214.42	25.53
214.885	24.88
215.35	24.34
215.815	23.96
216.28	23.63
216.745	23.24
217.21	22.73
217.675	22.12
218.14	21.49
218.604	20.84
219.069	20.31
219.534	19.81
219.998	19.42
220.463	19.06
220.927	18.67
221.392	18.21
221.856	17.86
222.32	17.53
222.785	17.28
223.249	17.03
223.713	16.82
224.177	16.56
224.642	16.37
225.106	16.16
225.57	15.98
226.034	15.8
226.497	15.65
226.961	15.45
227.425	15.26
227.889	15.04
228.353	14.86
228.816	14.7
229.28	14.52
229.744	14.38
230.207	14.23
230.671	14.05
231.134	13.87
231.597	13.71
232.061	13.56
232.524	13.43
232.987	13.28
233.45	13.12
233.914	12.98
234.377	12.86
234.84	12.7
235.303	12.57
235.766	12.42
236.229	12.3
236.691	12.17
237.154	12.07
237.617	11.96
238.08	11.86
238.542	11.76
239.005	11.65
239.468	11.53
239.93	11.44
240.393	11.33
240.855	11.24
241.317	11.16
241.78	11.1
242.242	10.99
242.704	10.89
243.166	10.79
243.629	10.71
244.091	10.63
244.553	10.56
245.015	10.48
245.477	10.4
245.939	10.32
246.4	10.23
246.862	10.15
247.324	10.08
247.786	10.03
248.247	9.97
248.709	9.91
249.17	9.83
249.632	9.75
250.093	9.67
250.555	9.61
251.016	9.57
251.477	9.51
251.939	9.44
252.4	9.39
252.861	9.33
253.322	9.27
253.783	9.23
254.244	9.2
254.705	9.16
255.166	9.12
255.627	9.07
256.088	9.02
256.549	8.99
257.009	8.97
257.47	8.93
257.931	8.88
258.391	8.84
258.852	8.79
259.312	8.75
259.773	8.71
260.233	8.68
260.694	8.64
261.154	8.6
261.614	8.56
262.074	8.52
262.534	8.48
262.994	8.46
263.455	8.42
263.915	8.38
264.374	8.34
264.834	8.31
265.294	8.26
265.754	8.23
266.214	8.19
266.673	8.17
267.133	8.14
267.593	8.11
268.052	8.08
268.512	8.06
268.971	8.05
269.431	8.03
269.89	8.01
270.349	7.99
270.809	7.98
271.268	7.97
271.727	7.95
272.186	7.93
272.645	7.91
273.104	7.89
273.563	7.88
274.022	7.86
274.481	7.84
274.94	7.81
275.399	7.79
275.857	7.77
276.316	7.75
276.775	7.73
277.233	7.7
277.692	7.67
278.15	7.64
278.609	7.6
279.067	7.57
279.525	7.54
279.984	7.52
280.442	7.49
280.9	7.47
281.358	7.44
281.816	7.41
282.274	7.4
282.732	7.38
283.19	7.36
283.648	7.35
284.106	7.33
284.564	7.33
285.021	7.31
285.479	7.31
285.937	7.29
286.394	7.28
286.852	7.27
287.309	7.26
287.767	7.25
288.224	7.24
288.682	7.22
289.139	7.22
289.596	7.2
290.053	7.17
290.511	7.14
290.968	7.12
291.425	7.1
291.882	7.07
292.339	7.05
292.796	7.02
293.252	7
293.709	6.96
294.166	6.94
294.623	6.92
295.079	6.91
295.536	6.9
295.992	6.88
296.449	6.88
296.905	6.86
297.362	6.85
297.818	6.84
298.274	6.83
298.731	6.82
299.187	6.81
299.643	6.79
300.099	6.78
300.555	6.76
301.011	6.75
301.467	6.74
301.923	6.73
302.379	6.72
302.835	6.7
303.291	6.68
303.746	6.68
304.202	6.66
304.658	6.65
305.113	6.63
305.569	6.62
306.024	6.61
306.479	6.59
306.935	6.57
307.39	6.57
307.845	6.56
308.301	6.56
308.756	6.55
309.211	6.54
309.666	6.54
310.121	6.54
310.576	6.54
311.031	6.52
311.486	6.52
311.94	6.52
312.395	6.53
312.85	6.51
313.305	6.52
313.759	6.51
314.214	6.51
314.668	6.5
315.123	6.5
315.577	6.49
316.032	6.49
316.486	6.48
316.94	6.47
317.394	6.46
317.849	6.46
318.303	6.45
318.757	6.43
319.211	6.41
319.665	6.4
320.119	6.39
320.572	6.38
321.026	6.37
321.48	6.36
321.934	6.35
322.387	6.35
322.841	6.33
323.295	6.32
323.748	6.31
324.202	6.3
324.655	6.29
325.108	6.26
325.562	6.25
326.015	6.23
326.468	6.21
326.921	6.2
327.374	6.18
327.827	6.17
328.28	6.16
328.733	6.16
329.186	6.15
329.639	6.15
330.092	6.14
330.545	6.15
330.997	6.15
331.45	6.15
331.903	6.15
332.355	6.15
332.808	6.14
333.26	6.14
333.713	6.13
334.165	6.12
334.617	6.12
335.069	6.12
335.522	6.12
335.974	6.12
336.426	6.12
336.878	6.12
337.33	6.11
337.782	6.13
338.234	6.13
338.686	6.13
339.137	6.14
339.589	6.14
340.041	6.13
340.493	6.12
340.944	6.12
341.396	6.11
341.847	6.1
342.299	6.09
342.75	6.05
343.201	6.04
343.653	6.03
344.104	6.02
344.555	6
345.006	5.99
345.457	5.98
345.908	5.97
346.359	5.97
346.81	5.98
347.261	5.97
347.712	5.97
348.163	5.95
348.613	5.94
349.064	5.93
349.515	5.93
349.965	5.93
350.416	5.93
350.866	5.93
351.317	5.92
351.767	5.9
352.217	5.89
352.668	5.89
353.118	5.9
353.568	5.91
354.018	5.92
354.468	5.91
354.918	5.92
355.368	5.94
355.818	5.93
356.268	5.94
356.718	5.94
357.168	5.95
357.617	5.96
358.067	5.96
358.517	5.95
358.966	5.96
359.416	5.97
359.865	5.97
360.315	5.96
360.764	5.96
361.213	5.96
361.663	5.97
362.112	5.98
362.561	5.98
363.01	5.98
363.459	5.98
363.908	5.97
364.357	5.97
364.806	5.97
365.255	5.98
365.703	5.97
366.152	5.99
366.601	5.99
367.05	5.99
367.498	6.01
367.947	6.02
368.395	6.03
368.844	6.04
369.292	6.04
369.74	6.05
370.189	6.06
370.637	6.07
371.085	6.07
371.533	6.08
371.981	6.08
372.429	6.08
372.877	6.08
373.325	6.08
373.773	6.09
374.221	6.11
374.669	6.12
375.116	6.11
375.564	6.12
376.012	6.13
376.459	6.15
376.907	6.16
377.354	6.18
377.801	6.19
378.249	6.2
378.696	6.22
379.143	6.23
379.591	6.25
380.038	6.28
380.485	6.3
380.932	6.3
381.379	6.32
381.826	6.34
382.273	6.36
382.72	6.39
383.166	6.42
383.613	6.44
384.06	6.47
384.506	6.5
384.953	6.52
385.4	6.55
385.846	6.58
386.292	6.61
386.739	6.64
387.185	6.68
387.631	6.7
388.078	6.73
388.524	6.75
388.97	6.77
389.416	6.79
389.862	6.81
390.308	6.83
390.754	6.86
391.2	6.89
391.645	6.91
392.091	6.95
392.537	6.97
392.983	7.01
393.428	7.05
393.874	7.1
394.319	7.13
394.765	7.15
395.21	7.19
395.655	7.22
396.101	7.25
396.546	7.27
396.991	7.29
397.436	7.29
397.881	7.33
398.326	7.37
398.771	7.4
399.216	7.45
399.661	7.51
400.106	7.55
400.551	7.58
400.995	7.6
401.44	7.62
401.885	7.64
402.329	7.67
402.774	7.67
403.218	7.68
403.663	7.69
404.107	7.69
404.551	7.7
404.995	7.71
405.44	7.73
405.884	7.74
406.328	7.76
406.772	7.8
407.216	7.83
407.66	7.85
408.104	7.86
408.547	7.88
408.991	7.89
409.435	7.9
409.879	7.9
410.322	7.92
410.766	7.94
411.209	7.95
411.653	7.93
412.096	7.94
412.54	7.95
412.983	7.95
413.426	7.96
413.869	7.98
414.312	8.01
414.756	8.03
415.199	8.04
415.642	8.09
416.085	8.12
416.527	8.15
416.97	8.16
417.413	8.17
417.856	8.17
418.298	8.18
418.741	8.17
419.184	8.17
419.626	8.16
420.069	8.16
420.511	8.13
420.953	8.11
421.396	8.1
421.838	8.11
422.28	8.13
422.722	8.14
423.164	8.15
423.606	8.16
424.048	8.14
424.49	8.16
424.932	8.18
425.374	8.19
425.816	8.19
426.258	8.18
426.699	8.13
427.141	8.1
427.582	8.08
428.024	8.09
428.465	8.1
428.907	8.12
429.348	8.13
429.789	8.1
430.231	8.06
430.672	8.06
431.113	8.09
431.554	8.11
431.995	8.13
432.436	8.13
432.877	8.1
433.318	8.09
433.759	8.07
434.2	8.06
434.64	8.07
435.081	8.07
435.522	8.09
435.962	8.1
436.403	8.15
436.843	8.16
437.284	8.2
437.724	8.23
438.164	8.25
438.604	8.27
439.045	8.28
439.485	8.3
439.925	8.33
440.365	8.32
440.805	8.31
441.245	8.28
441.685	8.29
442.125	8.29
442.564	8.3
443.004	8.31
443.444	8.33
443.883	8.35
444.323	8.37
444.762	8.43
445.202	8.5
445.641	8.53
446.081	8.57
446.52	8.59
446.959	8.62
447.398	8.68
447.837	8.74
448.276	8.76
448.716	8.78
449.154	8.81
449.593	8.82
450.032	8.82
450.471	8.85
450.91	8.88
451.349	8.9
451.787	8.91
452.226	8.91
452.664	8.92
453.103	8.92
453.541	8.93
453.98	8.93
454.418	8.92
454.856	8.9
455.295	8.89
455.733	8.88
456.171	8.87
456.609	8.85
457.047	8.84
457.485	8.81
457.923	8.82
458.361	8.79
458.798	8.78
459.236	8.78
459.674	8.79
460.111	8.79
460.549	8.77
460.987	8.77
461.424	8.76
461.862	8.76
462.299	8.76
462.736	8.73
463.173	8.73
463.611	8.73
464.048	8.72
464.485	8.71
464.922	8.69
465.359	8.69
465.796	8.67
466.233	8.69
466.67	8.68
467.106	8.68
467.543	8.69
467.98	8.69
468.416	8.7
468.853	8.7
469.29	8.72
469.726	8.72
470.162	8.73
470.599	8.76
471.035	8.75
471.471	8.77
471.907	8.78
472.344	8.79
472.78	8.8
473.216	8.8
473.652	8.79
474.088	8.81
474.523	8.82
474.959	8.81
475.395	8.8
475.831	8.8
476.266	8.79
476.702	8.79
477.138	8.79
477.573	8.76
478.008	8.76
478.444	8.76
478.879	8.75
479.314	8.74
479.75	8.74
480.185	8.73
480.62	8.73
481.055	8.74
481.49	8.72
481.925	8.71
482.36	8.7
482.795	8.7
483.229	8.69
483.664	8.68
484.099	8.69
484.534	8.7
484.968	8.72
485.403	8.72
485.837	8.72
486.271	8.74
486.706	8.75
487.14	8.79
487.574	8.81
488.009	8.83
488.443	8.86
488.877	8.88
489.311	8.9
489.745	8.91
490.179	8.93
490.613	8.96
491.046	9.01
491.48	9.06
491.914	9.08
492.348	9.12
492.781	9.16
493.215	9.21
493.648	9.27
494.082	9.34
494.515	9.4
494.948	9.47
495.382	9.54
495.815	9.6
496.248	9.67
496.681	9.76
497.114	9.84
497.547	9.92
497.98	10.01
498.413	10.11
498.846	10.2
499.279	10.32
499.711	10.41
500.144	10.52
500.577	10.63
501.009	10.75
501.442	10.88
501.874	11.02
502.306	11.16
502.739	11.29
503.171	11.44
503.603	11.61
504.036	11.78
504.468	11.97
504.9	12.15
505.332	12.34
505.764	12.56
506.196	12.76
506.627	12.96
507.059	13.18
507.491	13.42
507.923	13.67
508.354	13.88
508.786	14.13
509.217	14.36
509.649	14.62
510.08	14.88
510.512	15.13
510.943	15.41
511.374	15.7
511.805	15.98
512.237	16.27
512.668	16.54
513.099	16.86
513.53	17.17
513.961	17.49
514.391	17.78
514.822	18.08
515.253	18.4
515.684	18.7
516.114	19.01
516.545	19.33
516.975	19.66
517.406	19.98
517.836	20.29
518.267	20.59
518.697	20.91
519.127	21.22
519.558	21.55
519.988	21.85
520.418	22.14
520.848	22.43
521.278	22.71
521.708	22.92
522.138	23.19
522.567	23.46
522.997	23.72
523.427	24
523.857	24.25
524.286	24.49
524.716	24.73
525.145	24.98
525.575	25.2
526.004	25.42
526.433	25.71
526.863	25.94
527.292	26.15
527.721	26.35
528.15	26.52
528.579	26.71
529.008	26.88
529.437	27.04
529.866	27.21
530.295	27.38
530.724	27.54
531.152	27.69
531.581	27.82
532.01	27.91
532.438	28.03
532.867	28.15
533.295	28.26
533.723	28.36
534.152	28.46
534.58	28.55
535.008	28.61
535.436	28.68
535.865	28.74
536.293	28.81
536.721	28.91
537.149	28.96
537.576	29.02
538.004	29.07
538.432	29.13
538.86	29.19
539.287	29.22
539.715	29.28
540.143	29.31
540.57	29.35
540.998	29.4
541.425	29.42
541.852	29.45
542.28	29.47
542.707	29.49
543.134	29.52
543.561	29.53
543.988	29.57
544.415	29.61
544.842	29.65
545.269	29.67
545.696	29.69
546.123	29.72
546.549	29.74
546.976	29.79
547.403	29.81
547.829	29.85
548.256	29.88
548.682	29.89
549.108	29.9
549.535	29.93
549.961	29.96
550.387	29.94
550.813	29.94
551.24	29.96
551.666	29.97
552.092	29.96
552.518	29.95
552.943	29.95
553.369	29.94
553.795	29.96
554.221	29.91
554.646	29.88
555.072	29.87
555.498	29.85
555.923	29.82
556.349	29.75
556.774	29.72
557.199	29.67
557.625	29.6
558.05	29.53
558.475	29.44
558.9	29.37
559.325	29.3
559.75	29.21
560.175	29.12
560.6	29.01
561.025	28.91
561.449	28.79
561.874	28.69
562.299	28.6
562.723	28.52
563.148	28.4
563.572	28.29
563.997	28.15
564.421	28.03
564.846	27.91
565.27	27.79
565.694	27.66
566.118	27.53
566.542	27.37
566.966	27.19
567.39	27.01
567.814	26.83
568.238	26.62
568.662	26.45
569.086	26.27
569.509	26.08
569.933	25.88
570.357	25.69
570.78	25.49
571.204	25.31
571.627	25.15
572.05	24.99
572.474	24.84
572.897	24.69
573.32	24.54
573.743	24.4
574.166	24.25
574.589	24.11
575.012	23.98
575.435	23.86
575.858	23.73
576.281	23.62
576.704	23.5
577.126	23.38
577.549	23.28
577.972	23.17
578.394	23.05
578.817	22.95
579.239	22.87
579.661	22.78
580.084	22.69
580.506	22.6
580.928	22.51
581.35	22.43
581.772	22.36
582.194	22.3
582.616	22.23
583.038	22.17
583.46	22.13
583.882	22.07
584.303	22
584.725	21.92
585.147	21.83
585.568	21.75
585.99	21.69
586.411	21.61
586.833	21.55
587.254	21.49
587.675	21.43
588.096	21.36
588.518	21.27
588.939	21.21
589.36	21.16
589.781	21.15
590.202	21.09
590.623	21.03
591.043	20.99
591.464	20.93
591.885	20.87
592.305	20.84
592.726	20.79
593.147	20.79
593.567	20.73
593.987	20.72
594.408	20.68
594.828	20.66
595.248	20.63
595.669	20.58
596.089	20.55
596.509	20.51
596.929	20.47
597.349	20.42
597.769	20.36
598.189	20.35
598.608	20.3
599.028	20.25
599.448	20.21
599.867	20.16
600.287	20.14
600.706	20.07
601.126	20.02
601.545	19.96
601.965	19.93
602.384	19.87
602.803	19.8
603.222	19.74
603.641	19.68
604.061	19.61
604.48	19.54
604.898	19.47
605.317	19.41
605.736	19.34
606.155	19.26
606.574	19.18
606.992	19.09
607.411	19.02
607.829	18.88
608.248	18.79
608.666	18.71
609.085	18.63
609.503	18.53
609.921	18.44
610.339	18.35
610.758	18.28
611.176	18.2
611.594	18.12
612.012	18.03
612.43	18
612.847	17.93
613.265	17.85
613.683	17.76
614.101	17.7
614.518	17.63
614.936	17.55
615.353	17.48
615.771	17.38
616.188	17.32
616.606	17.27
617.023	17.19
617.44	17.13
617.857	17.07
618.274	17.01
618.691	16.94
619.108	16.88
619.525	16.85
619.942	16.78
620.359	16.76
620.776	16.72
621.192	16.68
621.609	16.65
622.026	16.61
622.442	16.57
622.859	16.54
623.275	16.54
623.691	16.51
624.108	16.48
624.524	16.47
624.94	16.44
625.356	16.42
625.772	16.4
626.188	16.39
626.604	16.37
627.02	16.37
627.436	16.35
627.852	16.32
628.268	16.31
628.683	16.29
629.099	16.28
629.514	16.27
629.93	16.23
630.345	16.19
630.761	16.15
631.176	16.11
631.591	16.06
632.007	16
632.422	15.94
632.837	15.88
633.252	15.82
633.667	15.71
634.082	15.64
634.497	15.53
634.911	15.46
635.326	15.33
635.741	15.21
636.155	15.09
636.57	14.98
636.984	14.84
637.399	14.68
637.813	14.52
638.228	14.39
638.642	14.23
639.056	14.09
639.47	13.93
639.884	13.8
640.298	13.65
640.712	13.5
641.126	13.34
641.54	13.19
641.954	13.07
642.368	12.92
642.781	12.77
643.195	12.63
643.609	12.49
644.022	12.36
644.436	12.24
644.849	12.11
645.262	12
645.676	11.89
646.089	11.8
646.502	11.69
646.915	11.61
647.328	11.53
647.741	11.45
648.154	11.38
648.567	11.31
648.98	11.25
649.393	11.21
649.805	11.15
650.218	11.11
650.631	11.05
651.043	11.01
651.456	10.98
651.868	10.94
652.28	10.93
652.693	10.89
653.105	10.85
653.517	10.81
653.929	10.76
654.341	10.74
654.753	10.68
655.165	10.62
655.577	10.54
655.989	10.46
656.401	10.37
656.813	10.28
657.224	10.21
657.636	10.14
658.047	10.05
658.459	9.97
658.87	9.86
659.282	9.78
659.693	9.7
660.104	9.62
660.515	9.55
660.926	9.48
661.338	9.41
661.749	9.32
662.159	9.25
662.57	9.17
662.981	9.1
663.392	9.03
663.803	8.95
664.213	8.9
664.624	8.85
665.035	8.78
665.445	8.74
665.855	8.69
666.266	8.64
666.676	8.6
667.086	8.57
667.497	8.52
667.907	8.49
668.317	8.48
668.727	8.45
669.137	8.43
669.547	8.43
669.956	8.4
670.366	8.39
670.776	8.39
671.186	8.38
671.595	8.38
672.005	8.4
672.414	8.41
672.824	8.43
673.233	8.46
673.642	8.46
674.052	8.49
674.461	8.51
674.87	8.55
675.279	8.58
675.688	8.61
676.097	8.65
676.506	8.68
676.915	8.72
677.323	8.77
677.732	8.81
678.141	8.86
678.549	8.92
678.958	9
679.366	9.05
679.775	9.13
680.183	9.22
680.592	9.31
681	9.4
681.408	9.51
681.816	9.62
682.224	9.75
682.632	9.91
683.04	10.05
683.448	10.22
683.856	10.43
684.264	10.65
684.671	10.9
685.079	11.16
685.487	11.46
685.894	11.77
686.302	12.12
686.709	12.46
687.116	12.84
687.524	13.25
687.931	13.68
688.338	14.13
688.745	14.59
689.152	15.09
689.559	15.59
689.966	16.14
690.373	16.72
690.78	17.3
691.187	17.92
691.593	18.54
692	19.18
692.407	19.81
692.813	20.44
693.22	21.11
693.626	21.78
694.032	22.44
694.439	23.12
694.845	23.77
695.251	24.43
695.657	25.08
696.063	25.74
696.469	26.39
696.875	27.03
697.281	27.67
697.687	28.32
698.093	28.92
698.498	29.54
698.904	30.14
699.31	30.73
699.715	31.31
700.12	31.87
700.526	32.44
700.931	32.98
701.337	33.52
701.742	34.03
702.147	34.57
702.552	35.1
702.957	35.59
703.362	36.08
703.767	36.55
704.172	37.03
704.577	37.51
704.981	37.97
705.386	38.43
705.791	38.87
706.195	39.3
706.6	39.7
707.004	40.1
707.408	40.5
707.813	40.89
708.217	41.27
708.621	41.62
709.025	41.98
709.43	42.31
709.834	42.69
710.237	43.03
710.641	43.38
711.045	43.7
711.449	44.02
711.853	44.36
712.256	44.7
712.66	45.04
713.064	45.35
713.467	45.62
713.87	45.94
714.274	46.25
714.677	46.55
715.08	46.8
715.484	47.1
715.887	47.39
716.29	47.64
716.693	47.88
717.096	48.11
717.499	48.36
717.901	48.63
718.304	48.86
718.707	49.05
719.109	49.27
719.512	49.54
719.915	49.76
720.317	49.98
720.719	50.2
721.122	50.42
721.524	50.63
721.926	50.85
722.328	51.05
722.731	51.27
723.133	51.45
723.535	51.66
723.937	51.83
724.338	51.99
724.74	52.15
725.142	52.2
725.544	52.36
725.945	52.49
726.347	52.66
726.748	52.77
727.15	52.87
727.551	53
727.952	53.12
728.354	53.27
728.755	53.39
729.156	53.51
729.557	53.74
729.958	53.85
730.359	53.97
730.76	54.07
731.161	54.17
731.562	54.27
731.962	54.37
732.363	54.41
732.763	54.47
733.164	54.52
733.564	54.56
733.965	54.61
734.365	54.64
734.766	54.7
735.166	54.72
735.566	54.76
735.966	54.78
736.366	54.81
736.766	54.86
737.166	54.89
737.566	54.93
737.966	55
738.365	55.02
738.765	55.07
739.165	55.05
739.564	55.09
739.964	55.12
740.363	55.16
740.763	55.17
741.162	55.21
741.561	55.25
741.96	55.27
742.36	55.31
742.759	55.35
743.158	55.38
743.557	55.44
743.955	55.48
744.354	55.53
744.753	55.62
745.152	55.66
745.55	55.67
745.949	55.71
746.348	55.76
746.746	55.76
747.144	55.8
747.543	55.85
747.941	55.91
748.339	55.96
748.737	56.02
749.136	56.02
749.534	56.07
749.932	56.12
750.33	56.13
750.727	56.17
751.125	56.22
751.523	56.22
751.921	56.22
752.318	56.21
752.716	56.17
753.113	56.16
753.511	56.12
753.908	56.09
754.305	56.03
754.703	56.02
755.1	55.97
755.497	55.93
755.894	55.93
756.291	55.88
756.688	55.84
757.085	55.81
757.482	55.79
757.878	55.8
758.275	55.78
758.672	55.81
759.068	55.79
759.465	55.78
759.861	55.74
760.258	55.69
760.654	55.71
761.05	55.71
761.447	55.69
761.843	55.65
762.239	55.61
762.635	55.61
763.031	55.6
763.427	55.58
763.822	55.54
764.218	55.54
764.614	55.54
765.01	55.5
765.405	55.48
765.801	55.47
766.196	55.47
766.592	55.49
766.987	55.48
767.382	55.45
767.778	55.47
768.173	55.48
768.568	55.43
768.963	55.39
769.358	55.38
769.753	55.38
770.148	55.4
770.542	55.36
770.937	55.36
771.332	55.35
771.726	55.34
772.121	55.3
772.515	55.28
772.91	55.31
773.304	55.32
773.699	55.34
774.093	55.29
774.487	55.29
774.881	55.29
775.275	55.29
775.669	55.31
776.063	55.29
776.457	55.28
776.851	55.26
777.245	55.26
777.638	55.27
778.032	55.25
778.425	55.25
778.819	55.25
779.212	55.24
779.606	55.22
779.999	55.19
780.392	55.21
780.786	55.23
781.179	55.29
781.572	55.31
781.965	55.31
782.358	55.31
782.751	55.36
783.143	55.36
783.536	55.41
783.929	55.44
784.322	55.45
784.714	55.45
785.107	55.46
785.499	55.45
785.891	55.47
786.284	55.46
786.676	55.49
787.068	55.46
787.46	55.44
787.852	55.47
788.245	55.43
788.636	55.44
789.028	55.44
789.42	55.45
789.812	55.44
790.204	55.4
790.595	55.42
790.987	55.43
791.378	55.47
791.77	55.5
792.161	55.49
792.553	55.52
792.944	55.55
793.335	55.59
793.726	55.54
794.117	55.52
794.508	55.53
794.899	55.53
795.29	55.54
795.681	55.53
796.072	55.54
796.463	55.48
796.853	55.47
797.244	55.45
797.634	55.42
798.025	55.47
798.415	55.52
798.806	55.53
799.196	55.56
799.586	55.57
799.976	55.57
800.366	55.58
800.756	55.66
801.146	55.66
801.536	55.69
801.926	55.69
802.316	55.72
802.706	55.71
803.095	55.74
803.485	55.73
803.874	55.73
804.264	55.74
804.653	55.7
805.043	55.68
805.432	55.65
805.821	55.65
806.21	55.69
806.599	55.7
806.988	55.7
807.377	55.72
807.766	55.72
808.155	55.72
808.544	55.75
808.933	55.79
809.321	55.82
809.71	55.89
810.098	55.9
810.487	55.89
810.875	55.88
811.264	55.9
811.652	55.91
812.04	55.92
812.428	55.93
812.816	55.97
813.204	55.97
813.592	55.97
813.98	56.01
814.368	56.05
814.756	56.1
815.144	56.1
815.531	56.1
815.919	56.12
816.306	56.14
816.694	56.16
817.081	56.15
817.469	56.17
817.856	56.23
818.243	56.23
818.63	56.24
819.017	56.25
819.404	56.28
819.791	56.28
820.178	56.31
820.565	56.34
820.952	56.36
821.339	56.4
821.725	56.43
822.112	56.42
822.498	56.42
822.885	56.4
823.271	56.4
823.657	56.41
824.044	56.43
824.43	56.44
824.816	56.43
825.202	56.43
825.588	56.41
825.974	56.37
826.36	56.38
826.746	56.39
827.132	56.38
827.517	56.41
827.903	56.4
828.289	56.4
828.674	56.34
829.06	56.36
829.445	56.35
829.83	56.34
830.216	56.34
830.601	56.33
830.986	56.32
831.371	56.35
831.756	56.33
832.141	56.33
832.526	56.33
832.911	56.37
833.295	56.37
833.68	56.34
834.065	56.37
834.449	56.34
834.834	56.3
835.218	56.29
835.603	56.27
835.987	56.25
836.371	56.27
836.755	56.27
837.139	56.24
837.524	56.24
837.908	56.23
838.291	56.18
838.675	56.21
839.059	56.21
839.443	56.19
839.827	56.17
840.21	56.19
840.594	56.14
840.977	56.12
841.361	56.11
841.744	56.11
842.127	56.12
842.511	56.11
842.894	56.07
843.277	56.1
843.66	56.1
844.043	56.1
844.426	56.07
844.809	56.09
845.191	56.1
845.574	56.12
845.957	56.08
846.339	56.05
846.722	56.08
847.104	56.09
847.487	56.08
847.869	56.09
848.252	56.1
848.634	56.13
849.016	56.14
849.398	56.12
849.78	56.1
850.162	56.09
850.544	56.12
850.926	56.11
851.307	56.13
851.689	56.13
852.071	56.11
852.452	56.12
852.834	56.08
853.215	56.05
853.597	56.07
853.978	56.05
854.359	56.06
854.741	56.05
855.122	56.05
855.503	56.07
855.884	56.06
856.265	56.07
856.646	56.06
857.026	56.09
857.407	56.07
857.788	56.06
858.169	56.08
858.549	56.09
858.93	56.11
859.31	56.1
859.69	56.09
860.071	56.07
860.451	56.06
860.831	56.05
861.211	56.03
861.591	56.05
861.971	56.06
862.351	56.06
862.731	56.06
863.111	56.07
863.491	56.09
863.87	56.07
864.25	56.09
864.629	56.09
865.009	56.09
865.388	56.08
865.768	56.08
866.147	56.08
866.526	56.09
866.905	56.09
867.284	56.08
867.663	56.05
868.042	56.04
868.421	56.02
868.8	55.99
869.179	55.98
869.558	55.98
869.936	55.98
870.315	55.98
870.693	55.96
871.072	55.91
871.45	55.9
871.828	55.9
872.207	55.93
872.585	55.93
872.963	55.95
873.341	55.96
873.719	55.97
874.097	55.98
874.475	55.95
874.853	55.96
875.23	55.97
875.608	56.02
875.986	56.02
876.363	56
876.741	56.03
877.118	56.02
877.495	56
877.873	56
878.25	55.98
878.627	55.99
879.004	55.98
879.381	56
879.758	55.94
880.135	55.93
880.512	55.96
880.889	55.94
881.265	55.96
881.642	55.97
882.019	55.97
882.395	55.98
882.772	55.99
883.148	55.97
883.524	55.97
883.901	55.97
884.277	55.95
884.653	55.94
885.029	55.94
885.405	55.91
885.781	55.88
886.157	55.87
886.532	55.84
886.908	55.86
887.284	55.87
887.659	55.88
888.035	55.89
888.411	55.88
888.786	55.86
889.161	55.85
889.537	55.85
889.912	55.85
890.287	55.84
890.662	55.84
891.037	55.78
891.412	55.73
891.787	55.7
892.162	55.68
892.536	55.67
892.911	55.62
893.286	55.57
893.66	55.56
894.035	55.54
894.409	55.52
894.784	55.5
895.158	55.48
895.532	55.48
895.906	55.46
896.281	55.43
896.655	55.37
897.029	55.38
897.402	55.39
897.776	55.34
898.15	55.33
898.524	55.31
898.898	55.29
899.271	55.3
899.645	55.29
900.018	55.25
900.392	55.26
900.765	55.28
901.138	55.3
901.511	55.29
901.884	55.31
902.258	55.31
902.631	55.3
903.003	55.31
903.376	55.29
903.749	55.28
904.122	55.31
904.495	55.29
904.867	55.25
905.24	55.2
905.612	55.19
905.985	55.13
906.357	55.09
906.729	55.09
907.102	55.06
907.474	55.05
907.846	55.02
908.218	55.01
908.59	54.97
908.962	55
909.334	54.99
909.705	54.98
910.077	54.99
910.449	55
910.82	54.94
911.192	54.94
911.563	54.93
911.935	54.92
912.306	54.91
912.677	54.91
913.048	54.87
913.419	54.86
913.79	54.84
914.161	54.84
914.532	54.82
914.903	54.87
915.274	54.87
915.645	54.86
916.015	54.88
916.386	54.86
916.756	54.85
917.127	54.9
917.497	54.92
917.868	54.91
918.238	54.95
918.608	54.95
918.978	54.88
919.348	54.86
919.718	54.87
920.088	54.85
920.458	54.87
920.828	54.9
921.198	54.87
921.567	54.85
921.937	54.84
922.306	54.78
922.676	54.79
923.045	54.77
923.415	54.74
923.784	54.72
924.153	54.7
924.522	54.68
924.891	54.63
925.26	54.6
925.629	54.59
925.998	54.6
926.367	54.59
926.736	54.54
927.104	54.58
927.473	54.63
927.842	54.59
928.21	54.57
928.578	54.53
928.947	54.53
929.315	54.51
929.683	54.49
930.051	54.45
930.42	54.43
930.788	54.38
931.156	54.28
931.523	54.18
931.891	54.14
932.259	54.06
932.627	53.95
932.994	53.82
933.362	53.69
933.729	53.56
934.097	53.44
934.464	53.32
934.831	53.22
935.199	53.17
935.566	53.04
935.933	52.94
936.3	52.82
936.667	52.75
937.034	52.72
937.401	52.71
937.767	52.63
938.134	52.6
938.501	52.54
938.867	52.6
939.234	52.6
939.6	52.66
939.967	52.7
940.333	52.83
940.699	53.02
941.065	53.14
941.431	53.2
941.798	53.33
942.163	53.43
942.529	53.56
942.895	53.62
943.261	53.68
943.627	53.75
943.992	53.82
944.358	53.87
944.723	53.82
945.089	53.82
945.454	53.83
945.82	53.88
946.185	53.97
946.55	54.12
946.915	54.17
947.28	54.12
947.645	54.12
948.01	53.99
948.375	54
948.74	53.96
949.104	54.02
949.469	54.01
949.834	54.02
950.198	53.95
950.562	53.82
950.927	53.72
951.291	53.64
951.655	53.6
952.02	53.63
952.384	53.59
952.748	53.61
953.112	53.51
953.476	53.56
953.839	53.5
954.203	53.37
954.567	53.34
954.931	53.34
955.294	53.33
955.658	53.3
956.021	53.3
956.385	53.26
956.748	53.2
957.111	53.19
957.474	53.1
957.837	53.1
958.2	53.08
958.563	53.01
958.926	52.94
959.289	52.96
959.652	52.91
960.015	52.86
960.377	52.78
960.74	52.7
961.102	52.69
961.465	52.69
961.827	52.49
962.189	52.47
962.552	52.45
962.914	52.45
963.276	52.42
963.638	52.34
964	52.3
964.362	52.31
964.724	52.29
965.085	52.23
965.447	52.15
965.809	52.23
966.17	52.24
966.532	52.19
966.893	52.16
967.255	52.11
967.616	52.15
967.977	52.13
968.338	52.09
968.699	52.08
969.061	52.06
969.421	52.06
969.782	52.1
970.143	52.06
970.504	52.02
970.865	51.99
971.225	51.97
971.586	51.99
971.946	52.04
972.307	52.05
972.667	52.06
973.027	52.05
973.388	52.01
973.748	51.96
974.108	51.92
974.468	52.01
974.828	51.94
975.188	51.95
975.548	51.94
975.907	51.85
976.267	51.85
976.627	51.82
976.986	51.85
977.346	51.88
977.705	51.89
978.064	51.98
978.424	51.97
978.783	52
979.142	52
979.501	51.89
979.86	51.87
980.219	51.8
980.578	51.76
980.937	51.67
981.296	51.61
981.654	51.54
982.013	51.44
982.371	51.33
982.73	51.3
983.088	51.24
983.447	51.26
983.805	51.3
984.163	51.36
984.521	51.31
984.879	51.35
985.237	51.4
985.595	51.44
985.953	51.48
986.311	51.57
986.669	51.63
987.026	51.64
987.384	51.69
987.741	51.76
988.099	51.71
988.456	51.81
988.814	51.77
989.171	51.73
989.528	51.65
989.885	51.55
990.242	51.39
990.599	51.36
990.956	51.37
991.313	51.37
991.67	51.3
992.027	51.29
992.383	51.27
992.74	51.22
993.096	51.26
993.453	51.37
993.809	51.5
994.165	51.6
994.522	51.41
994.878	51.41
995.234	51.26
995.59	51.11
995.946	51.06
996.302	50.94
996.658	50.95
997.013	50.84
997.369	50.81
997.725	50.87
998.08	50.82
998.436	51.05
998.791	51.03
999.147	51
999.502	50.88
999.857	50.91
1000.212	50.98
1000.567	50.92
1000.922	50.91
1001.277	50.81
1001.632	50.72
1001.987	50.63
1002.342	50.53
1002.696	50.64
1003.051	50.56
1003.406	50.7
1003.76	50.7
1004.114	50.66
1004.469	50.67
1004.823	50.7
1005.177	50.86
1005.531	50.78
1005.885	50.74
1006.239	50.69
1006.593	50.41
1006.947	50.47
1007.301	50.51
1007.655	50.46
1008.008	50.28
1008.362	50.29
1008.715	50.33
1009.069	50.17
1009.422	49.73
1009.776	49.77
1010.129	49.76
1010.482	49.84
1010.835	50.01
1011.188	49.73
1011.541	49.61
1011.894	49.72
1012.247	49.52
1012.6	49.29
1012.952	49.16
1013.305	49.39
1013.657	49.39
1014.01	49.48
1014.362	49.44
1014.715	49.23
1015.067	49.4
1015.419	49.48
1015.771	49.61
1016.123	49.55
1016.475	49.66
1016.827	50.04
1017.179	50.02
1017.531	49.91
1017.883	49.87
1018.234	49.8
1018.586	49.85
1018.938	49.67
1019.289	49.57
1019.64	49.62
1019.992	49.78
1020.343	49.65
1020.694	49.14
1021.045	49.32
1021.396	49.32
1021.747	49.24
1022.098	49.58
1022.449	49.42
1022.8	49.27
1023.151	49.26
1023.501	49.03
1023.852	49.12
1024.202	48.96
1024.553	49.16
1024.903	49.07
1025.253	49.03
1025.604	48.88
1025.954	48.67
1026.304	48.99
1026.654	49.42
1027.004	49.46
1027.354	49.57
1027.703	49.55
1028.053	49.69
1028.403	49.15
1028.753	49.5
1029.102	49.49
1029.452	49.59
1029.801	49.46
1030.15	49.31
1030.499	49.23
897.758	194.23
901.051	191.79
904.343	200.12
907.636	194.34
910.928	194.88
914.22	194.9
917.511	190.19
920.803	186.34
924.094	177.42
927.384	179.31
930.675	177.14
933.965	174.06
937.255	176.77
940.544	166.74
943.834	159.49
947.123	155.23
950.411	151.5
953.7	151.18
956.988	146.13
960.276	141.03
963.563	144.55
966.851	135.73
970.138	133.34
973.424	126.26
976.711	125.1
979.997	125.31
983.283	122.68
986.568	119.36
989.853	115.42
993.138	113.7
996.423	114.28
999.708	110.8
1002.992	111.63
1006.275	109.24
1009.559	108.66
1012.842	107.82
1016.125	103.49
1019.408	102
1022.69	103.18
1025.972	103.27
1029.254	101.9
1032.536	100.3
1035.817	96.1
1039.098	96.41
1042.379	95.85
1045.659	95.02
1048.939	93.78
1052.219	93.82
1055.498	93.73
1058.778	91.75
1062.057	90.5
1065.335	89.71
1068.614	88.9
1071.892	88.9
1075.17	87.45
1078.447	86.53
1081.724	85.98
1085.001	83.61
1088.278	85.48
1091.554	84.04
1094.83	83.76
1098.106	83.43
1101.382	82.94
1104.657	83.17
1107.932	83
1111.206	83.1
1114.481	82.34
1117.755	81.16
1121.029	82.18
1124.302	79.69
1127.575	79.82
1130.848	79
1134.121	77.65
1137.393	77.56
1140.665	76.86
1143.937	76.05
1147.208	74.47
1150.48	74.2
1153.75	74.1
1157.021	73.9
1160.291	73.64
1163.561	73.63
1166.831	73.34
1170.101	73.54
1173.37	72.9
1176.639	72.18
1179.907	71.49
1183.176	72.3
1186.444	71.66
1189.711	72.11
1192.979	72.08
1196.246	72.34
1199.513	72.14
1202.78	71.95
1206.046	71.85
1209.312	72.42
1212.578	72.61
1215.843	74.62
1219.108	73.57
1222.373	74.97
1225.638	75.48
1228.902	76.44
1232.166	77.4
1235.43	77.33
1238.693	79.69
1241.956	80.3
1245.219	81.98
1248.482	82.17
1251.744	81.48
1255.006	83.26
1258.268	81.04
1261.529	80.77
1264.79	80.41
1268.051	79.25
1271.312	79.61
1274.572	77.74
1277.832	77.92
1281.092	76.82
1284.351	76.39
1287.61	76.13
1290.869	75.82
1294.128	76.25
1297.386	74.86
1300.644	73.97
1303.902	73.92
1307.159	72.65
1310.416	73.47
1313.673	73.7
1316.93	73.71
1320.186	74.14
1323.442	74.13
1326.697	73.67
1329.953	74.14
1333.208	76.68
1336.463	77.29
1339.717	78.51
1342.972	80.73
1346.226	81.45
1349.479	80.68
1352.733	82.63
1355.986	83.02
1359.238	84.8
1362.491	85.12
1365.743	85.88
1368.995	87.52
1372.247	86.54
1375.498	84.37
1378.749	85.57
1382	84.59
1385.251	83.52
1388.501	83.9
1391.751	84.87
1395	82.66
1398.25	83.51
1401.499	83.49
1404.748	79.77
1407.996	78.49
1411.244	79.45
1414.492	78.4
1417.74	76.21
1420.987	75.22
1424.234	73.27
1427.481	68.93
1430.728	67.6
1433.974	65.52
1437.22	64.12
1440.465	61.43
1443.711	60.71
1446.956	59.19
1450.201	57.06
1453.445	54.38
1456.689	53.65
1459.933	52.45
1463.177	50.66
1466.42	50.79
1469.663	49.03
1472.906	47.38
1476.148	46.84
1479.391	46.56
1482.633	45.59
1485.874	45.82
1489.115	46.54
1492.356	46.43
1495.597	45.16
1498.838	46.45
1502.078	45.78
1505.318	46.31
1508.557	45.86
1511.797	46.91
1515.036	46.88
1518.274	47.49
1521.513	47.39
1524.751	46.56
1527.989	46.94
1531.227	47.66
1534.464	47.98
1537.701	48.21
1540.938	48.05
1544.174	48.4
1547.41	47.88
1550.646	48.22
1553.882	47.91
1557.117	47.74
1560.352	48.87
1563.587	48.46
1566.821	48.43
1570.055	48.53
1573.289	48.63
1576.523	48.62
1579.756	48.76
1582.989	49.7
1586.222	49.4
1589.454	49.88
1592.686	50.46
1595.918	49.79
1599.15	49.86
1602.381	49.93
1605.612	50.09
1608.843	49.81
1612.073	50.35
1615.303	50.83
1618.533	50.52
1621.762	50.48
1624.992	50.37
1628.221	50.1
1631.449	50.43
1634.678	51.01
1637.906	51.36
1641.134	51.19
1644.361	51.32
1647.588	51.26
1650.815	51.37
1654.042	51.16
1657.269	51.79
1660.495	52.12
1663.72	51.55
1666.946	52.04
1670.171	51.79
1673.396	51.8
1676.621	51.65
1679.845	52.75
1683.069	51.97
1686.293	52.02
1689.517	52.49
1692.74	52.19
1695.963	51.94
1699.185	52.57
1702.408	52.04
1705.63	52.13
1708.852	52.23
1712.073	52.39
1715.294	51.5
1718.515	52.92
1721.736	52.37
1724.956	52.22
1728.176	52.1
1731.396	51.97
1734.616	52.16
1737.835	52.53
1741.054	52.13
1744.272	51.85
1747.491	51.62
1750.709	51.54
1753.927	51.06
1757.144	51.47
1760.361	50.97
1763.578	51.12
1766.795	51.65
1770.011	51.02
1773.227	51.04
1776.443	51.52
1779.658	51.04
1782.874	52
1786.089	51.01
1789.303	50.77
1792.518	51.27
1795.732	51.93
1798.945	52.41
1802.159	52.29
1805.372	52.68
1808.585	53.03
1811.797	52.65
1815.01	53.84
1818.222	53.2
1821.434	55
1824.645	54.57
1827.856	54.15
1831.067	53.71
1834.278	54.5
1837.488	54.47
1840.698	54.81
1843.908	54.12
1847.117	54.58
1850.326	54.22
1853.535	54.88
1856.744	53.77
1859.952	54.49
1863.16	54.29
1866.368	53.38
1869.575	51.99
1872.782	51.03
1875.989	49.2
1879.196	49.31
1882.402	47.85
1885.608	47.84
1888.814	45.81
1892.019	45.56
1895.224	44.29
1898.429	44.03
1901.634	43.91
1904.838	43.21
1908.042	43.48
1911.246	43.69
1914.449	43.13
1917.652	44.03
1920.855	42.86
1924.058	41.96
1927.26	41.4
1930.462	41.9
1933.664	40.59
1936.865	41.32
1940.066	40.3
1943.267	39.61
1946.467	40.04
1949.668	39.57
1952.868	38.54
1956.067	38.67
1959.267	40.36
1962.466	40.54
1965.665	40.19
1968.863	42.24
1972.061	42.27
1975.259	44.13
1978.457	45.23
1981.654	45.41
1984.852	46.29
1988.048	47
1991.245	47.82
1994.441	48.98
1997.637	49.12
2000.833	51.55
2004.028	51.04
2007.223	50.94
2010.418	51.35
2013.613	54.1
2016.807	55.82
2020.001	56.4
2023.194	58.96
2026.388	60.59
2029.581	62.56
2032.774	66.01
2035.966	65.95
2039.158	68.26
2042.35	69.26
2045.542	71.97
2048.733	71.77
2051.924	71.83
2055.115	73.97
2058.306	73.68
2061.496	73.8
2064.686	74.81
2067.875	74.53
2071.065	76.83
2074.254	76.36
2077.442	80.52
2080.631	79.06
2083.819	80.55
2087.007	85.39
2090.195	85.02
2093.382	85.5
2096.569	87.24
2099.756	87.38
2102.942	88.52
2106.128	89.29
2109.314	90.94
2112.5	90.2
2115.685	88.5
2118.87	89.52
2122.055	87.28
2125.239	89.49
2128.424	92.47
2131.608	91.24
2134.791	89.88
2137.974	90.9
2141.157	94.06
2144.34	93.3
2147.523	97.72
2150.705	101.83
2153.887	101.01
2157.068	102.05
2160.25	103.36
2163.431	102.94
2166.611	103.44
2169.792	108.03
2172.972	111.05
2176.152	107.95
2179.331	111.3
2182.511	108.84
2185.69	110.36
2188.868	111.65
2192.047	113.95
2195.225	116.79
2198.403	113.76
2201.58	115.19
2204.758	117.33
2207.935	113.32
2211.111	117
2214.288	118.27
2217.464	120.78
2220.64	122.34
2223.815	121.68
2226.991	122.53
2230.166	123.3
2233.34	129.67
2236.515	129.93
2239.689	128.28
2242.863	131.85
2246.036	128.75
2249.209	128.2
2252.382	126.34
2255.555	130.4
2258.727	134.77
2261.9	134.4
2265.071	133.55
2268.243	135.15
2271.414	140.76
2274.585	142.36
2277.756	142.62
2280.926	149.32
2284.096	149.99
2287.266	151.73
2290.436	151.35
2293.605	153.71
2296.774	164.35
2299.942	162.14
2303.111	164.59
2306.279	168.89
2309.447	169.7
2312.614	170.8
2315.781	167.76
2318.948	176.7
2322.115	178.92
2325.281	180.55
2328.447	175.4
2331.613	175.88
2334.779	181.81
2337.944	180.11
2341.109	181.53
2344.274	186.14
2347.438	184.49
2350.602	194.99
2353.766	203.45
2356.929	203.27
2360.092	212.12
2363.255	217.87
2366.418	217.9
2369.58	219.01
2372.742	222.05
2375.904	220.73
2379.066	224.66
2382.227	241.1
2385.388	235.04
2388.548	219
2391.709	220.99
2394.869	223.9
2398.029	225.98
2401.188	219.46
2404.347	229.96
2407.506	239.14
2410.665	228.87
2413.823	231.83
2416.981	236.51
2420.139	229.67
2423.296	247.76
2426.453	257.72
2429.61	250.79
2432.767	264.59
2435.923	279.6
2439.079	276.75
2442.235	276.54
2445.391	291.6
2448.546	281.56
2451.701	294.67
2454.855	313.9
2458.009	287.5
2461.163	293.21
2464.317	291.28
2467.471	288.39
2470.624	295.59
2473.777	279.41
2476.929	275.13
2480.082	285.37
2483.234	304.79
2486.385	305.3
2489.537	312.96
2492.688	326.32
2495.839	328.85
2498.989	336.92
2502.14	332.93
2505.29	323.53
2508.439	350.75
2511.589	362.66
2514.738	351.99
2517.887	346.74
2521.035	327.55
2524.183	321.38
2527.331	325.29
2530.479	311.91
2533.627	316.22
