Data from C_2_div_oh_2n_066_Splice17_07.txt Node
Date: Sat Feb 29 14:25:56 EST 2020
User: sa697716
Spectrometer: FLMS03696
Trigger mode: 0
Integration Time (sec): 3.180400E-1
Scans to average: 20
Electric dark correction enabled: true
Nonlinearity correction enabled: true
Boxcar width: 5
XAxis mode: Wavelengths
Number of Pixels in Spectrum: 2048
>>>>>Begin Spectral Data<<<<<
187.83	39.37
188.298	25.16
188.766	34.84
189.233	25.86
189.701	32.66
190.169	40.63
190.636	38.78
191.104	11.98
191.571	-78.81
192.039	16.91
192.506	485.06
192.974	9688.64
193.441	-626.76
193.908	128.24
194.375	82.67
194.842	86.33
195.31	127.91
195.777	139.49
196.244	45.73
196.711	27.89
197.177	23.48
197.644	23.2
198.111	23.42
198.578	23.16
199.045	24.01
199.511	24.85
199.978	25.52
200.445	24.86
200.911	25.43
201.378	25.68
201.844	26.32
202.31	26.8
202.777	27.59
203.243	28.13
203.709	28.9
204.176	28.77
204.642	28.86
205.108	28.88
205.574	29.62
206.04	29.2
206.506	29.27
206.972	29.39
207.438	29.1
207.903	28.89
208.369	28.42
208.835	27.96
209.301	27.82
209.766	27.88
210.232	27.65
210.697	26.98
211.163	27.03
211.628	26.81
212.094	26.58
212.559	26.37
213.024	26.1
213.49	25.78
213.955	25.66
214.42	25.53
214.885	25.11
215.35	24.67
215.815	24.19
216.28	23.64
216.745	23.26
217.21	22.56
217.675	22.03
218.14	21.26
218.604	20.71
219.069	20.21
219.534	19.68
219.998	19.26
220.463	18.94
220.927	18.57
221.392	18.22
221.856	17.77
222.32	17.51
222.785	17.22
223.249	17.03
223.713	16.83
224.177	16.6
224.642	16.4
225.106	16.18
225.57	15.95
226.034	15.81
226.497	15.61
226.961	15.45
227.425	15.23
227.889	15.06
228.353	14.87
228.816	14.71
229.28	14.49
229.744	14.34
230.207	14.17
230.671	14
231.134	13.83
231.597	13.66
232.061	13.52
232.524	13.4
232.987	13.25
233.45	13.09
233.914	12.93
234.377	12.81
234.84	12.68
235.303	12.54
235.766	12.41
236.229	12.29
236.691	12.18
237.154	12.07
237.617	11.94
238.08	11.84
238.542	11.72
239.005	11.61
239.468	11.48
239.93	11.38
240.393	11.29
240.855	11.19
241.317	11.1
241.78	11.02
242.242	10.92
242.704	10.82
243.166	10.73
243.629	10.65
244.091	10.58
244.553	10.52
245.015	10.43
245.477	10.34
245.939	10.27
246.4	10.17
246.862	10.09
247.324	10.02
247.786	9.96
248.247	9.9
248.709	9.84
249.17	9.77
249.632	9.7
250.093	9.64
250.555	9.59
251.016	9.54
251.477	9.48
251.939	9.43
252.4	9.38
252.861	9.32
253.322	9.25
253.783	9.22
254.244	9.17
254.705	9.13
255.166	9.09
255.627	9.05
256.088	9
256.549	8.96
257.009	8.91
257.47	8.88
257.931	8.85
258.391	8.8
258.852	8.74
259.312	8.71
259.773	8.67
260.233	8.62
260.694	8.59
261.154	8.56
261.614	8.51
262.074	8.49
262.534	8.43
262.994	8.39
263.455	8.37
263.915	8.33
264.374	8.3
264.834	8.26
265.294	8.23
265.754	8.19
266.214	8.17
266.673	8.15
267.133	8.12
267.593	8.1
268.052	8.08
268.512	8.05
268.971	8.03
269.431	8.01
269.89	7.99
270.349	7.97
270.809	7.95
271.268	7.93
271.727	7.91
272.186	7.89
272.645	7.86
273.104	7.85
273.563	7.83
274.022	7.81
274.481	7.79
274.94	7.77
275.399	7.75
275.857	7.73
276.316	7.71
276.775	7.68
277.233	7.66
277.692	7.63
278.15	7.61
278.609	7.57
279.067	7.54
279.525	7.51
279.984	7.49
280.442	7.45
280.9	7.42
281.358	7.4
281.816	7.38
282.274	7.35
282.732	7.33
283.19	7.31
283.648	7.3
284.106	7.28
284.564	7.27
285.021	7.26
285.479	7.25
285.937	7.24
286.394	7.23
286.852	7.22
287.309	7.22
287.767	7.21
288.224	7.21
288.682	7.19
289.139	7.18
289.596	7.16
290.053	7.14
290.511	7.12
290.968	7.1
291.425	7.09
291.882	7.07
292.339	7.04
292.796	7.01
293.252	6.99
293.709	6.97
294.166	6.94
294.623	6.93
295.079	6.92
295.536	6.89
295.992	6.87
296.449	6.85
296.905	6.83
297.362	6.82
297.818	6.81
298.274	6.79
298.731	6.78
299.187	6.76
299.643	6.74
300.099	6.73
300.555	6.72
301.011	6.71
301.467	6.7
301.923	6.68
302.379	6.66
302.835	6.65
303.291	6.63
303.746	6.62
304.202	6.61
304.658	6.6
305.113	6.58
305.569	6.57
306.024	6.55
306.479	6.54
306.935	6.54
307.39	6.52
307.845	6.52
308.301	6.53
308.756	6.52
309.211	6.52
309.666	6.51
310.121	6.51
310.576	6.5
311.031	6.5
311.486	6.51
311.94	6.5
312.395	6.49
312.85	6.48
313.305	6.47
313.759	6.46
314.214	6.46
314.668	6.45
315.123	6.45
315.577	6.44
316.032	6.44
316.486	6.42
316.94	6.41
317.394	6.4
317.849	6.38
318.303	6.37
318.757	6.36
319.211	6.34
319.665	6.34
320.119	6.33
320.572	6.32
321.026	6.31
321.48	6.3
321.934	6.3
322.387	6.3
322.841	6.29
323.295	6.27
323.748	6.26
324.202	6.25
324.655	6.23
325.108	6.22
325.562	6.2
326.015	6.18
326.468	6.16
326.921	6.13
327.374	6.13
327.827	6.12
328.28	6.12
328.733	6.11
329.186	6.11
329.639	6.1
330.092	6.1
330.545	6.1
330.997	6.1
331.45	6.09
331.903	6.09
332.355	6.09
332.808	6.09
333.26	6.09
333.713	6.1
334.165	6.1
334.617	6.1
335.069	6.1
335.522	6.1
335.974	6.08
336.426	6.09
336.878	6.09
337.33	6.09
337.782	6.08
338.234	6.08
338.686	6.06
339.137	6.07
339.589	6.08
340.041	6.06
340.493	6.05
340.944	6.06
341.396	6.05
341.847	6.04
342.299	6.02
342.75	6
343.201	5.98
343.653	5.97
344.104	5.96
344.555	5.95
345.006	5.94
345.457	5.93
345.908	5.92
346.359	5.92
346.81	5.92
347.261	5.92
347.712	5.92
348.163	5.92
348.613	5.91
349.064	5.9
349.515	5.89
349.965	5.88
350.416	5.88
350.866	5.87
351.317	5.86
351.767	5.86
352.217	5.86
352.668	5.85
353.118	5.86
353.568	5.86
354.018	5.88
354.468	5.88
354.918	5.89
355.368	5.89
355.818	5.89
356.268	5.89
356.718	5.89
357.168	5.89
357.617	5.89
358.067	5.88
358.517	5.88
358.966	5.88
359.416	5.89
359.865	5.88
360.315	5.89
360.764	5.89
361.213	5.88
361.663	5.89
362.112	5.91
362.561	5.91
363.01	5.91
363.459	5.92
363.908	5.91
364.357	5.92
364.806	5.92
365.255	5.93
365.703	5.93
366.152	5.94
366.601	5.94
367.05	5.94
367.498	5.96
367.947	5.96
368.395	5.98
368.844	5.98
369.292	5.98
369.74	5.99
370.189	5.99
370.637	6
371.085	6.01
371.533	6.01
371.981	6.02
372.429	6.01
372.877	6.02
373.325	6.01
373.773	6.03
374.221	6.05
374.669	6.05
375.116	6.06
375.564	6.06
376.012	6.07
376.459	6.08
376.907	6.09
377.354	6.1
377.801	6.12
378.249	6.14
378.696	6.15
379.143	6.16
379.591	6.18
380.038	6.2
380.485	6.24
380.932	6.26
381.379	6.27
381.826	6.28
382.273	6.31
382.72	6.34
383.166	6.36
383.613	6.39
384.06	6.42
384.506	6.44
384.953	6.46
385.4	6.48
385.846	6.49
386.292	6.53
386.739	6.58
387.185	6.62
387.631	6.65
388.078	6.68
388.524	6.7
388.97	6.72
389.416	6.73
389.862	6.76
390.308	6.8
390.754	6.84
391.2	6.87
391.645	6.9
392.091	6.91
392.537	6.93
392.983	6.98
393.428	7.03
393.874	7.08
394.319	7.12
394.765	7.14
395.21	7.17
395.655	7.2
396.101	7.23
396.546	7.25
396.991	7.29
397.436	7.3
397.881	7.33
398.326	7.36
398.771	7.38
399.216	7.43
399.661	7.48
400.106	7.53
400.551	7.55
400.995	7.57
401.44	7.59
401.885	7.62
402.329	7.63
402.774	7.63
403.218	7.63
403.663	7.65
404.107	7.66
404.551	7.68
404.995	7.68
405.44	7.69
405.884	7.71
406.328	7.73
406.772	7.75
407.216	7.78
407.66	7.81
408.104	7.84
408.547	7.86
408.991	7.85
409.435	7.85
409.879	7.86
410.322	7.87
410.766	7.89
411.209	7.91
411.653	7.92
412.096	7.92
412.54	7.91
412.983	7.9
413.426	7.92
413.869	7.94
414.312	7.96
414.756	7.99
415.199	8.02
415.642	8.04
416.085	8.06
416.527	8.07
416.97	8.09
417.413	8.11
417.856	8.11
418.298	8.1
418.741	8.09
419.184	8.08
419.626	8.07
420.069	8.05
420.511	8.03
420.953	8.01
421.396	8.01
421.838	8.02
422.28	8.03
422.722	8.05
423.164	8.07
423.606	8.1
424.048	8.09
424.49	8.11
424.932	8.13
425.374	8.15
425.816	8.15
426.258	8.15
426.699	8.12
427.141	8.09
427.582	8.08
428.024	8.07
428.465	8.06
428.907	8.08
429.348	8.08
429.789	8.08
430.231	8.05
430.672	8.04
431.113	8.07
431.554	8.08
431.995	8.11
432.436	8.11
432.877	8.1
433.318	8.07
433.759	8.05
434.2	8.03
434.64	8.02
435.081	8.01
435.522	8.05
435.962	8.06
436.403	8.07
436.843	8.07
437.284	8.08
437.724	8.12
438.164	8.17
438.604	8.2
439.045	8.2
439.485	8.23
439.925	8.24
440.365	8.23
440.805	8.22
441.245	8.21
441.685	8.25
442.125	8.26
442.564	8.28
443.004	8.29
443.444	8.31
443.883	8.33
444.323	8.34
444.762	8.38
445.202	8.44
445.641	8.48
446.081	8.53
446.52	8.53
446.959	8.55
447.398	8.58
447.837	8.63
448.276	8.64
448.716	8.69
449.154	8.74
449.593	8.77
450.032	8.76
450.471	8.79
450.91	8.8
451.349	8.82
451.787	8.85
452.226	8.84
452.664	8.82
453.103	8.83
453.541	8.84
453.98	8.81
454.418	8.8
454.856	8.78
455.295	8.78
455.733	8.77
456.171	8.78
456.609	8.78
457.047	8.77
457.485	8.76
457.923	8.74
458.361	8.71
458.798	8.72
459.236	8.72
459.674	8.72
460.111	8.71
460.549	8.69
460.987	8.68
461.424	8.66
461.862	8.67
462.299	8.67
462.736	8.67
463.173	8.68
463.611	8.67
464.048	8.68
464.485	8.67
464.922	8.66
465.359	8.67
465.796	8.64
466.233	8.65
466.67	8.65
467.106	8.63
467.543	8.62
467.98	8.61
468.416	8.62
468.853	8.61
469.29	8.62
469.726	8.63
470.162	8.64
470.599	8.66
471.035	8.66
471.471	8.65
471.907	8.67
472.344	8.67
472.78	8.68
473.216	8.68
473.652	8.68
474.088	8.7
474.523	8.69
474.959	8.67
475.395	8.66
475.831	8.67
476.266	8.67
476.702	8.66
477.138	8.67
477.573	8.66
478.008	8.66
478.444	8.66
478.879	8.65
479.314	8.64
479.75	8.65
480.185	8.65
480.62	8.65
481.055	8.66
481.49	8.67
481.925	8.66
482.36	8.64
482.795	8.63
483.229	8.63
483.664	8.62
484.099	8.63
484.534	8.62
484.968	8.63
485.403	8.62
485.837	8.63
486.271	8.63
486.706	8.64
487.14	8.67
487.574	8.68
488.009	8.7
488.443	8.72
488.877	8.74
489.311	8.78
489.745	8.81
490.179	8.84
490.613	8.86
491.046	8.91
491.48	8.95
491.914	8.99
492.348	9.04
492.781	9.1
493.215	9.15
493.648	9.22
494.082	9.28
494.515	9.34
494.948	9.4
495.382	9.48
495.815	9.56
496.248	9.62
496.681	9.7
497.114	9.76
497.547	9.84
497.98	9.93
498.413	10.01
498.846	10.1
499.279	10.2
499.711	10.31
500.144	10.41
500.577	10.52
501.009	10.64
501.442	10.78
501.874	10.92
502.306	11.06
502.739	11.2
503.171	11.36
503.603	11.52
504.036	11.69
504.468	11.86
504.9	12.06
505.332	12.25
505.764	12.46
506.196	12.66
506.627	12.88
507.059	13.1
507.491	13.34
507.923	13.57
508.354	13.82
508.786	14.06
509.217	14.3
509.649	14.56
510.08	14.81
510.512	15.08
510.943	15.35
511.374	15.64
511.805	15.92
512.237	16.22
512.668	16.52
513.099	16.82
513.53	17.14
513.961	17.47
514.391	17.76
514.822	18.06
515.253	18.38
515.684	18.7
516.114	19.01
516.545	19.32
516.975	19.61
517.406	19.92
517.836	20.23
518.267	20.53
518.697	20.83
519.127	21.16
519.558	21.47
519.988	21.77
520.418	22.06
520.848	22.37
521.278	22.67
521.708	22.9
522.138	23.16
522.567	23.44
522.997	23.72
523.427	23.99
523.857	24.23
524.286	24.48
524.716	24.73
525.145	24.97
525.575	25.2
526.004	25.44
526.433	25.71
526.863	25.95
527.292	26.17
527.721	26.36
528.15	26.54
528.579	26.73
529.008	26.9
529.437	27.07
529.866	27.23
530.295	27.38
530.724	27.52
531.152	27.67
531.581	27.81
532.01	27.93
532.438	28.04
532.867	28.17
533.295	28.27
533.723	28.4
534.152	28.49
534.58	28.59
535.008	28.66
535.436	28.74
535.865	28.81
536.293	28.88
536.721	28.94
537.149	29.01
537.576	29.06
538.004	29.11
538.432	29.16
538.86	29.2
539.287	29.24
539.715	29.3
540.143	29.34
540.57	29.37
540.998	29.41
541.425	29.43
541.852	29.45
542.28	29.48
542.707	29.53
543.134	29.55
543.561	29.57
543.988	29.6
544.415	29.62
544.842	29.66
545.269	29.71
545.696	29.73
546.123	29.78
546.549	29.82
546.976	29.86
547.403	29.89
547.829	29.93
548.256	29.96
548.682	29.97
549.108	29.99
549.535	30.01
549.961	30.02
550.387	30.03
550.813	30.03
551.24	30.04
551.666	30.06
552.092	30.06
552.518	30.04
552.943	30.04
553.369	30.02
553.795	30.02
554.221	30
554.646	29.97
555.072	29.94
555.498	29.91
555.923	29.86
556.349	29.79
556.774	29.74
557.199	29.68
557.625	29.6
558.05	29.55
558.475	29.46
558.9	29.39
559.325	29.3
559.75	29.2
560.175	29.13
560.6	29.02
561.025	28.93
561.449	28.82
561.874	28.72
562.299	28.63
562.723	28.52
563.148	28.4
563.572	28.28
563.997	28.16
564.421	28.02
564.846	27.87
565.27	27.76
565.694	27.6
566.118	27.44
566.542	27.29
566.966	27.12
567.39	26.95
567.814	26.78
568.238	26.59
568.662	26.42
569.086	26.25
569.509	26.1
569.933	25.9
570.357	25.72
570.78	25.56
571.204	25.37
571.627	25.2
572.05	25.04
572.474	24.9
572.897	24.76
573.32	24.6
573.743	24.46
574.166	24.28
574.589	24.14
575.012	24.02
575.435	23.87
575.858	23.77
576.281	23.65
576.704	23.54
577.126	23.41
577.549	23.31
577.972	23.21
578.394	23.09
578.817	23
579.239	22.92
579.661	22.83
580.084	22.74
580.506	22.65
580.928	22.56
581.35	22.46
581.772	22.39
582.194	22.3
582.616	22.21
583.038	22.15
583.46	22.1
583.882	22.01
584.303	21.94
584.725	21.87
585.147	21.78
585.568	21.71
585.99	21.63
586.411	21.57
586.833	21.5
587.254	21.45
587.675	21.39
588.096	21.31
588.518	21.25
588.939	21.2
589.36	21.14
589.781	21.13
590.202	21.09
590.623	21.05
591.043	20.98
591.464	20.93
591.885	20.89
592.305	20.86
592.726	20.81
593.147	20.76
593.567	20.72
593.987	20.68
594.408	20.63
594.828	20.59
595.248	20.55
595.669	20.53
596.089	20.51
596.509	20.45
596.929	20.41
597.349	20.37
597.769	20.34
598.189	20.31
598.608	20.27
599.028	20.2
599.448	20.17
599.867	20.11
600.287	20.06
600.706	20
601.126	19.95
601.545	19.89
601.965	19.85
602.384	19.79
602.803	19.71
603.222	19.65
603.641	19.6
604.061	19.52
604.48	19.45
604.898	19.38
605.317	19.31
605.736	19.23
606.155	19.15
606.574	19.06
606.992	18.98
607.411	18.92
607.829	18.79
608.248	18.71
608.666	18.62
609.085	18.55
609.503	18.47
609.921	18.38
610.339	18.3
610.758	18.21
611.176	18.12
611.594	18.04
612.012	17.96
612.43	17.92
612.847	17.85
613.265	17.77
613.683	17.67
614.101	17.59
614.518	17.51
614.936	17.45
615.353	17.38
615.771	17.3
616.188	17.23
616.606	17.15
617.023	17.08
617.44	17.01
617.857	16.95
618.274	16.91
618.691	16.86
619.108	16.8
619.525	16.74
619.942	16.7
620.359	16.69
620.776	16.65
621.192	16.61
621.609	16.59
622.026	16.56
622.442	16.53
622.859	16.5
623.275	16.49
623.691	16.48
624.108	16.46
624.524	16.44
624.94	16.39
625.356	16.39
625.772	16.37
626.188	16.36
626.604	16.33
627.02	16.31
627.436	16.3
627.852	16.27
628.268	16.25
628.683	16.23
629.099	16.22
629.514	16.21
629.93	16.16
630.345	16.11
630.761	16.06
631.176	16.04
631.591	15.97
632.007	15.9
632.422	15.85
632.837	15.77
633.252	15.69
633.667	15.6
634.082	15.51
634.497	15.42
634.911	15.33
635.326	15.21
635.741	15.09
636.155	14.99
636.57	14.87
636.984	14.73
637.399	14.6
637.813	14.45
638.228	14.31
638.642	14.17
639.056	14.01
639.47	13.88
639.884	13.73
640.298	13.58
640.712	13.42
641.126	13.27
641.54	13.13
641.954	12.99
642.368	12.85
642.781	12.72
643.195	12.58
643.609	12.44
644.022	12.32
644.436	12.2
644.849	12.09
645.262	11.98
645.676	11.87
646.089	11.76
646.502	11.65
646.915	11.56
647.328	11.47
647.741	11.39
648.154	11.33
648.567	11.26
648.98	11.2
649.393	11.14
649.805	11.08
650.218	11.03
650.631	10.98
651.043	10.94
651.456	10.9
651.868	10.87
652.28	10.82
652.693	10.78
653.105	10.73
653.517	10.68
653.929	10.65
654.341	10.61
654.753	10.56
655.165	10.52
655.577	10.46
655.989	10.39
656.401	10.3
656.813	10.23
657.224	10.16
657.636	10.1
658.047	10.03
658.459	9.93
658.87	9.84
659.282	9.75
659.693	9.66
660.104	9.57
660.515	9.49
660.926	9.43
661.338	9.35
661.749	9.26
662.159	9.17
662.57	9.09
662.981	9.02
663.392	8.95
663.803	8.88
664.213	8.82
664.624	8.76
665.035	8.69
665.445	8.66
665.855	8.6
666.266	8.56
666.676	8.52
667.086	8.47
667.497	8.43
667.907	8.39
668.317	8.36
668.727	8.34
669.137	8.33
669.547	8.33
669.956	8.31
670.366	8.32
670.776	8.31
671.186	8.32
671.595	8.34
672.005	8.36
672.414	8.37
672.824	8.39
673.233	8.42
673.642	8.41
674.052	8.43
674.461	8.45
674.87	8.46
675.279	8.49
675.688	8.51
676.097	8.53
676.506	8.56
676.915	8.6
677.323	8.64
677.732	8.68
678.141	8.75
678.549	8.81
678.958	8.89
679.366	8.96
679.775	9.06
680.183	9.14
680.592	9.25
681	9.34
681.408	9.45
681.816	9.58
682.224	9.73
682.632	9.87
683.04	10.02
683.448	10.18
683.856	10.38
684.264	10.59
684.671	10.85
685.079	11.08
685.487	11.38
685.894	11.69
686.302	12.02
686.709	12.36
687.116	12.74
687.524	13.14
687.931	13.58
688.338	14.03
688.745	14.52
689.152	15.02
689.559	15.56
689.966	16.09
690.373	16.69
690.78	17.27
691.187	17.88
691.593	18.52
692	19.16
692.407	19.81
692.813	20.48
693.22	21.14
693.626	21.82
694.032	22.5
694.439	23.18
694.845	23.82
695.251	24.5
695.657	25.14
696.063	25.8
696.469	26.45
696.875	27.1
697.281	27.71
697.687	28.36
698.093	28.96
698.498	29.56
698.904	30.17
699.31	30.78
699.715	31.36
700.12	31.93
700.526	32.48
700.931	33.03
701.337	33.58
701.742	34.12
702.147	34.64
702.552	35.17
702.957	35.67
703.362	36.2
703.767	36.68
704.172	37.16
704.577	37.63
704.981	38.11
705.386	38.57
705.791	39.01
706.195	39.44
706.6	39.84
707.004	40.25
707.408	40.68
707.813	41.06
708.217	41.44
708.621	41.82
709.025	42.2
709.43	42.57
709.834	42.96
710.237	43.29
710.641	43.66
711.045	43.98
711.449	44.32
711.853	44.62
712.256	44.96
712.66	45.27
713.064	45.57
713.467	45.86
713.87	46.16
714.274	46.45
714.677	46.76
715.08	47.02
715.484	47.33
715.887	47.58
716.29	47.84
716.693	48.04
717.096	48.33
717.499	48.58
717.901	48.82
718.304	49.06
718.707	49.27
719.109	49.52
719.512	49.78
719.915	50
720.317	50.25
720.719	50.49
721.122	50.73
721.524	50.93
721.926	51.16
722.328	51.38
722.731	51.57
723.133	51.76
723.535	51.94
723.937	52.1
724.338	52.24
724.74	52.4
725.142	52.43
725.544	52.57
725.945	52.66
726.347	52.81
726.748	52.93
727.15	53.06
727.551	53.2
727.952	53.3
728.354	53.45
728.755	53.59
729.156	53.75
729.557	54
729.958	54.13
730.359	54.29
730.76	54.38
731.161	54.45
731.562	54.56
731.962	54.66
732.363	54.74
732.763	54.79
733.164	54.85
733.564	54.89
733.965	54.94
734.365	54.99
734.766	55.04
735.166	55.08
735.566	55.13
735.966	55.15
736.366	55.16
736.766	55.22
737.166	55.27
737.566	55.3
737.966	55.34
738.365	55.36
738.765	55.4
739.165	55.43
739.564	55.47
739.964	55.5
740.363	55.53
740.763	55.57
741.162	55.57
741.561	55.59
741.96	55.66
742.36	55.71
742.759	55.72
743.158	55.7
743.557	55.77
743.955	55.81
744.354	55.88
744.753	55.96
745.152	56
745.55	56.06
745.949	56.09
746.348	56.11
746.746	56.11
747.144	56.21
747.543	56.28
747.941	56.3
748.339	56.38
748.737	56.41
749.136	56.44
749.534	56.49
749.932	56.5
750.33	56.54
750.727	56.58
751.125	56.6
751.523	56.59
751.921	56.63
752.318	56.65
752.716	56.62
753.113	56.59
753.511	56.53
753.908	56.52
754.305	56.47
754.703	56.42
755.1	56.37
755.497	56.35
755.894	56.34
756.291	56.3
756.688	56.23
757.085	56.2
757.482	56.17
757.878	56.2
758.275	56.15
758.672	56.19
759.068	56.2
759.465	56.19
759.861	56.21
760.258	56.15
760.654	56.1
761.05	56.12
761.447	56.13
761.843	56.11
762.239	56.06
762.635	56.04
763.031	56.02
763.427	55.99
763.822	55.94
764.218	55.89
764.614	55.91
765.01	55.9
765.405	55.86
765.801	55.82
766.196	55.82
766.592	55.82
766.987	55.84
767.382	55.85
767.778	55.85
768.173	55.87
768.568	55.83
768.963	55.8
769.358	55.82
769.753	55.85
770.148	55.86
770.542	55.84
770.937	55.84
771.332	55.83
771.726	55.78
772.121	55.78
772.515	55.77
772.91	55.8
773.304	55.8
773.699	55.78
774.093	55.75
774.487	55.74
774.881	55.76
775.275	55.72
775.669	55.74
776.063	55.73
776.457	55.71
776.851	55.7
777.245	55.68
777.638	55.69
778.032	55.71
778.425	55.73
778.819	55.72
779.212	55.68
779.606	55.69
779.999	55.67
780.392	55.65
780.786	55.69
781.179	55.73
781.572	55.73
781.965	55.72
782.358	55.7
782.751	55.66
783.143	55.67
783.536	55.7
783.929	55.75
784.322	55.78
784.714	55.82
785.107	55.83
785.499	55.81
785.891	55.86
786.284	55.83
786.676	55.83
787.068	55.86
787.46	55.87
787.852	55.91
788.245	55.89
788.636	55.88
789.028	55.87
789.42	55.85
789.812	55.85
790.204	55.78
790.595	55.8
790.987	55.82
791.378	55.82
791.77	55.82
792.161	55.77
792.553	55.78
792.944	55.79
793.335	55.82
793.726	55.79
794.117	55.79
794.508	55.85
794.899	55.85
795.29	55.83
795.681	55.87
796.072	55.87
796.463	55.83
796.853	55.81
797.244	55.81
797.634	55.8
798.025	55.85
798.415	55.84
798.806	55.83
799.196	55.86
799.586	55.93
799.976	55.93
800.366	55.95
800.756	56.03
801.146	56.06
801.536	56.07
801.926	56.09
802.316	56.09
802.706	56.11
803.095	56.12
803.485	56.12
803.874	56.09
804.264	56.07
804.653	56.05
805.043	56.08
805.432	56.07
805.821	56.05
806.21	56.06
806.599	56.13
806.988	56.12
807.377	56.14
807.766	56.15
808.155	56.2
808.544	56.2
808.933	56.21
809.321	56.19
809.71	56.24
810.098	56.28
810.487	56.33
810.875	56.32
811.264	56.36
811.652	56.36
812.04	56.37
812.428	56.37
812.816	56.38
813.204	56.4
813.592	56.42
813.98	56.41
814.368	56.39
814.756	56.39
815.144	56.45
815.531	56.45
815.919	56.49
816.306	56.53
816.694	56.55
817.081	56.58
817.469	56.63
817.856	56.68
818.243	56.72
818.63	56.77
819.017	56.76
819.404	56.71
819.791	56.72
820.178	56.74
820.565	56.75
820.952	56.74
821.339	56.75
821.725	56.77
822.112	56.79
822.498	56.81
822.885	56.82
823.271	56.84
823.657	56.82
824.044	56.81
824.43	56.81
824.816	56.8
825.202	56.79
825.588	56.82
825.974	56.77
826.36	56.73
826.746	56.71
827.132	56.68
827.517	56.67
827.903	56.7
828.289	56.71
828.674	56.71
829.06	56.72
829.445	56.76
829.83	56.73
830.216	56.74
830.601	56.74
830.986	56.72
831.371	56.75
831.756	56.74
832.141	56.78
832.526	56.76
832.911	56.76
833.295	56.76
833.68	56.76
834.065	56.78
834.449	56.77
834.834	56.78
835.218	56.77
835.603	56.75
835.987	56.74
836.371	56.73
836.755	56.69
837.139	56.68
837.524	56.66
837.908	56.61
838.291	56.59
838.675	56.58
839.059	56.56
839.443	56.56
839.827	56.56
840.21	56.6
840.594	56.56
840.977	56.57
841.361	56.57
841.744	56.56
842.127	56.56
842.511	56.53
842.894	56.52
843.277	56.52
843.66	56.53
844.043	56.53
844.426	56.48
844.809	56.49
845.191	56.48
845.574	56.49
845.957	56.48
846.339	56.48
846.722	56.49
847.104	56.49
847.487	56.5
847.869	56.5
848.252	56.51
848.634	56.52
849.016	56.51
849.398	56.54
849.78	56.54
850.162	56.55
850.544	56.56
850.926	56.56
851.307	56.57
851.689	56.53
852.071	56.52
852.452	56.51
852.834	56.5
853.215	56.52
853.597	56.5
853.978	56.47
854.359	56.44
854.741	56.46
855.122	56.47
855.503	56.49
855.884	56.52
856.265	56.54
856.646	56.51
857.026	56.51
857.407	56.46
857.788	56.49
858.169	56.5
858.549	56.51
858.93	56.49
859.31	56.47
859.69	56.44
860.071	56.42
860.451	56.4
860.831	56.4
861.211	56.4
861.591	56.45
861.971	56.41
862.351	56.42
862.731	56.43
863.111	56.44
863.491	56.46
863.87	56.49
864.25	56.52
864.629	56.49
865.009	56.51
865.388	56.48
865.768	56.46
866.147	56.48
866.526	56.45
866.905	56.44
867.284	56.43
867.663	56.41
868.042	56.4
868.421	56.37
868.8	56.39
869.179	56.39
869.558	56.41
869.936	56.38
870.315	56.36
870.693	56.38
871.072	56.36
871.45	56.35
871.828	56.35
872.207	56.34
872.585	56.34
872.963	56.32
873.341	56.29
873.719	56.29
874.097	56.31
874.475	56.31
874.853	56.32
875.23	56.34
875.608	56.34
875.986	56.33
876.363	56.32
876.741	56.32
877.118	56.3
877.495	56.31
877.873	56.27
878.25	56.28
878.627	56.3
879.004	56.28
879.381	56.27
879.758	56.25
880.135	56.25
880.512	56.28
880.889	56.27
881.265	56.32
881.642	56.33
882.019	56.39
882.395	56.38
882.772	56.35
883.148	56.34
883.524	56.32
883.901	56.32
884.277	56.28
884.653	56.28
885.029	56.29
885.405	56.28
885.781	56.25
886.157	56.22
886.532	56.2
886.908	56.22
887.284	56.25
887.659	56.26
888.035	56.3
888.411	56.29
888.786	56.26
889.161	56.24
889.537	56.24
889.912	56.2
890.287	56.19
890.662	56.18
891.037	56.13
891.412	56.06
891.787	56.06
892.162	56.01
892.536	56.02
892.911	55.99
893.286	55.97
893.66	55.93
894.035	55.94
894.409	55.93
894.784	55.93
895.158	55.93
895.532	55.92
895.906	55.9
896.281	55.86
896.655	55.82
897.029	55.8
897.402	55.82
897.776	55.8
898.15	55.77
898.524	55.76
898.898	55.74
899.271	55.73
899.645	55.73
900.018	55.72
900.392	55.74
900.765	55.75
901.138	55.78
901.511	55.75
901.884	55.75
902.258	55.76
902.631	55.74
903.003	55.75
903.376	55.74
903.749	55.74
904.122	55.73
904.495	55.73
904.867	55.68
905.24	55.65
905.612	55.6
905.985	55.58
906.357	55.55
906.729	55.55
907.102	55.54
907.474	55.53
907.846	55.5
908.218	55.47
908.59	55.45
908.962	55.46
909.334	55.43
909.705	55.43
910.077	55.4
910.449	55.42
910.82	55.39
911.192	55.35
911.563	55.32
911.935	55.31
912.306	55.34
912.677	55.35
913.048	55.32
913.419	55.33
913.79	55.32
914.161	55.35
914.532	55.33
914.903	55.34
915.274	55.32
915.645	55.35
916.015	55.35
916.386	55.26
916.756	55.2
917.127	55.19
917.497	55.16
917.868	55.19
918.238	55.15
918.608	55.15
918.978	55.13
919.348	55.08
919.718	55.05
920.088	55.09
920.458	55.15
920.828	55.17
921.198	55.19
921.567	55.21
921.937	55.2
922.306	55.18
922.676	55.17
923.045	55.13
923.415	55.16
923.784	55.16
924.153	55.05
924.522	54.99
924.891	54.95
925.26	54.95
925.629	54.9
925.998	54.87
926.367	54.86
926.736	54.83
927.104	54.85
927.473	54.86
927.842	54.82
928.21	54.88
928.578	54.89
928.947	54.87
929.315	54.84
929.683	54.84
930.051	54.83
930.42	54.8
930.788	54.76
931.156	54.71
931.523	54.6
931.891	54.54
932.259	54.47
932.627	54.36
932.994	54.32
933.362	54.17
933.729	54.03
934.097	53.89
934.464	53.77
934.831	53.67
935.199	53.6
935.566	53.54
935.933	53.47
936.3	53.32
936.667	53.24
937.034	53.06
937.401	53.05
937.767	53.02
938.134	53.01
938.501	52.95
938.867	52.99
939.234	53.01
939.6	53.02
939.967	53.01
940.333	53.19
940.699	53.29
941.065	53.5
941.431	53.59
941.798	53.69
942.163	53.79
942.529	53.94
942.895	54.06
943.261	54.08
943.627	54.24
943.992	54.4
944.358	54.38
944.723	54.39
945.089	54.46
945.454	54.55
945.82	54.54
946.185	54.68
946.55	54.78
946.915	54.76
947.28	54.77
947.645	54.75
948.01	54.65
948.375	54.71
948.74	54.66
949.104	54.65
949.469	54.58
949.834	54.63
950.198	54.43
950.562	54.37
950.927	54.3
951.291	54.28
951.655	54.22
952.02	54.21
952.384	54.15
952.748	54.16
953.112	54.07
953.476	54.08
953.839	54
954.203	53.98
954.567	53.92
954.931	53.95
955.294	53.91
955.658	53.86
956.021	53.84
956.385	53.87
956.748	53.83
957.111	53.81
957.474	53.76
957.837	53.8
958.2	53.77
958.563	53.7
958.926	53.57
959.289	53.53
959.652	53.49
960.015	53.42
960.377	53.35
960.74	53.29
961.102	53.27
961.465	53.26
961.827	53.06
962.189	53.01
962.552	52.95
962.914	52.92
963.276	52.9
963.638	52.87
964	52.85
964.362	52.84
964.724	52.87
965.085	52.85
965.447	52.71
965.809	52.76
966.17	52.79
966.532	52.85
966.893	52.84
967.255	52.79
967.616	52.79
967.977	52.75
968.338	52.64
968.699	52.54
969.061	52.45
969.421	52.49
969.782	52.48
970.143	52.43
970.504	52.38
970.865	52.33
971.225	52.31
971.586	52.31
971.946	52.34
972.307	52.35
972.667	52.37
973.027	52.44
973.388	52.41
973.748	52.4
974.108	52.37
974.468	52.35
974.828	52.38
975.188	52.37
975.548	52.31
975.907	52.28
976.267	52.31
976.627	52.26
976.986	52.14
977.346	52.09
977.705	52.12
978.064	52.16
978.424	52.14
978.783	52.13
979.142	52.12
979.501	52.12
979.86	52.06
980.219	51.99
980.578	52.03
980.937	52.07
981.296	52.09
981.654	52.1
982.013	52.08
982.371	52.1
982.73	52.06
983.088	52.01
983.447	51.97
983.805	51.95
984.163	51.88
984.521	51.82
984.879	51.85
985.237	51.91
985.595	51.88
985.953	51.84
986.311	51.81
986.669	51.8
987.026	51.81
987.384	51.76
987.741	51.7
988.099	51.72
988.456	51.7
988.814	51.64
989.171	51.52
989.528	51.44
989.885	51.42
990.242	51.43
990.599	51.47
990.956	51.51
991.313	51.62
991.67	51.65
992.027	51.58
992.383	51.71
992.74	51.64
993.096	51.62
993.453	51.65
993.809	51.71
994.165	51.6
994.522	51.55
994.878	51.52
995.234	51.42
995.59	51.48
995.946	51.52
996.302	51.34
996.658	51.37
997.013	51.57
997.369	51.42
997.725	51.32
998.08	51.39
998.436	51.4
998.791	51.39
999.147	51.4
999.502	51.33
999.857	51.35
1000.212	51.36
1000.567	51.41
1000.922	51.31
1001.277	51.4
1001.632	51.5
1001.987	51.44
1002.342	51.52
1002.696	51.44
1003.051	51.32
1003.406	51.28
1003.76	51.26
1004.114	51.22
1004.469	51.2
1004.823	51.15
1005.177	51.23
1005.531	51.09
1005.885	51.14
1006.239	50.85
1006.593	50.78
1006.947	50.84
1007.301	50.71
1007.655	50.6
1008.008	50.7
1008.362	50.59
1008.715	50.51
1009.069	50.3
1009.422	50.16
1009.776	50.1
1010.129	50.16
1010.482	50.31
1010.835	50.6
1011.188	50.72
1011.541	50.67
1011.894	50.66
1012.247	50.7
1012.6	50.6
1012.952	50.84
1013.305	50.8
1013.657	50.75
1014.01	50.92
1014.362	50.97
1014.715	50.59
1015.067	50.54
1015.419	50.74
1015.771	50.83
1016.123	50.71
1016.475	50.92
1016.827	50.75
1017.179	50.91
1017.531	50.84
1017.883	50.9
1018.234	50.66
1018.586	50.67
1018.938	50.37
1019.289	50.29
1019.64	50.23
1019.992	50.33
1020.343	50.14
1020.694	49.99
1021.045	49.83
1021.396	49.92
1021.747	49.69
1022.098	49.72
1022.449	49.73
1022.8	49.89
1023.151	49.55
1023.501	49.29
1023.852	49.39
1024.202	49.36
1024.553	49.26
1024.903	49
1025.253	48.76
1025.604	48.75
1025.954	48.79
1026.304	49.18
1026.654	49.24
1027.004	49.58
1027.354	49.58
1027.703	49.4
1028.053	49.15
1028.403	48.8
1028.753	49.47
1029.102	49.58
1029.452	49.5
1029.801	49.22
1030.15	48.7
1030.499	48.79
897.758	186.66
901.051	186.17
904.343	194.7
907.636	190.89
910.928	191.97
914.22	191.46
917.511	187.86
920.803	182.88
924.094	175.89
927.384	180.51
930.675	175.1
933.965	172.38
937.255	175.38
940.544	165.62
943.834	157.19
947.123	152.42
950.411	148.75
953.7	148.05
956.988	147.05
960.276	140.14
963.563	142.55
966.851	134.94
970.138	132.76
973.424	125.93
976.711	124.55
979.997	125.29
983.283	122.92
986.568	120.35
989.853	115.65
993.138	112.19
996.423	112.49
999.708	109.34
1002.992	110.84
1006.275	108.01
1009.559	107.17
1012.842	105.75
1016.125	101.24
1019.408	100.3
1022.69	101.05
1025.972	101.56
1029.254	99.49
1032.536	98.53
1035.817	94.25
1039.098	93.93
1042.379	93.66
1045.659	92.88
1048.939	92.27
1052.219	91.35
1055.498	91.18
1058.778	89.69
1062.057	88.48
1065.335	87.94
1068.614	87.24
1071.892	87.52
1075.17	86.86
1078.447	85.68
1081.724	85.42
1085.001	82.85
1088.278	84.75
1091.554	82.48
1094.83	82.45
1098.106	82.15
1101.382	81.69
1104.657	81.69
1107.932	81.9
1111.206	80.78
1114.481	80.86
1117.755	79.23
1121.029	80.23
1124.302	78.63
1127.575	79.21
1130.848	77.93
1134.121	76.57
1137.393	77
1140.665	76.06
1143.937	75
1147.208	73.76
1150.48	73.2
1153.75	73.93
1157.021	73.33
1160.291	72.95
1163.561	72.25
1166.831	72.41
1170.101	73.05
1173.37	71.9
1176.639	71.43
1179.907	71.13
1183.176	71.68
1186.444	70.98
1189.711	70.78
1192.979	70.82
1196.246	71.73
1199.513	71.76
1202.78	71.1
1206.046	70.99
1209.312	71.78
1212.578	72.12
1215.843	73.82
1219.108	73.22
1222.373	74.58
1225.638	75.09
1228.902	76.38
1232.166	76.18
1235.43	76.85
1238.693	79.11
1241.956	79.37
1245.219	80.41
1248.482	81.35
1251.744	80.81
1255.006	81.74
1258.268	79.66
1261.529	79.48
1264.79	79.25
1268.051	78.4
1271.312	78.67
1274.572	76.86
1277.832	76.69
1281.092	76.1
1284.351	74.81
1287.61	74.47
1290.869	74.59
1294.128	74.93
1297.386	74.06
1300.644	73.08
1303.902	72.37
1307.159	70.94
1310.416	72.07
1313.673	72.31
1316.93	72.2
1320.186	73.15
1323.442	72.98
1326.697	72.73
1329.953	73.01
1333.208	74.48
1336.463	75.93
1339.717	77.89
1342.972	79.65
1346.226	79.95
1349.479	79.48
1352.733	81.63
1355.986	81.13
1359.238	83.03
1362.491	83.52
1365.743	84.62
1368.995	87.24
1372.247	85.46
1375.498	84.23
1378.749	86.55
1382	85.4
1385.251	84.72
1388.501	84.32
1391.751	85.93
1395	83.55
1398.25	83.57
1401.499	83.48
1404.748	79.45
1407.996	77.8
1411.244	77.42
1414.492	76.36
1417.74	74.09
1420.987	72.04
1424.234	70.46
1427.481	66.72
1430.728	65.71
1433.974	64.16
1437.22	63.21
1440.465	60.58
1443.711	59.83
1446.956	58.77
1450.201	56.43
1453.445	54.26
1456.689	54.06
1459.933	52.62
1463.177	50.79
1466.42	50.27
1469.663	48.81
1472.906	47.04
1476.148	45.85
1479.391	45.48
1482.633	44.65
1485.874	44.95
1489.115	45.35
1492.356	44.91
1495.597	44.2
1498.838	45.27
1502.078	44.99
1505.318	45.32
1508.557	44.78
1511.797	46.07
1515.036	46.58
1518.274	46.59
1521.513	46.41
1524.751	46.04
1527.989	46.55
1531.227	46.87
1534.464	47.36
1537.701	47.14
1540.938	46.97
1544.174	47.41
1547.41	47.34
1550.646	47.61
1553.882	47.57
1557.117	47.47
1560.352	48.39
1563.587	48.21
1566.821	48.12
1570.055	48.1
1573.289	48.56
1576.523	48.86
1579.756	49.03
1582.989	49.66
1586.222	48.96
1589.454	50.08
1592.686	50.58
1595.918	49.94
1599.15	49.86
1602.381	49.88
1605.612	50.35
1608.843	49.97
1612.073	50.47
1615.303	50.83
1618.533	50.51
1621.762	50.42
1624.992	49.74
1628.221	49.55
1631.449	49.68
1634.678	50.76
1637.906	50.91
1641.134	50.57
1644.361	50.89
1647.588	50.32
1650.815	50.48
1654.042	50.44
1657.269	50.93
1660.495	51.4
1663.72	50.89
1666.946	51.41
1670.171	50.87
1673.396	51.35
1676.621	50.83
1679.845	51.92
1683.069	51.32
1686.293	51.24
1689.517	51.42
1692.74	51.58
1695.963	51.34
1699.185	51.91
1702.408	51
1705.63	51.02
1708.852	50.96
1712.073	51.53
1715.294	50.4
1718.515	51.95
1721.736	51.51
1724.956	51.61
1728.176	51.33
1731.396	51.25
1734.616	51.38
1737.835	51.98
1741.054	51.88
1744.272	51.35
1747.491	51.28
1750.709	51.54
1753.927	51.03
1757.144	51.38
1760.361	51.27
1763.578	51.11
1766.795	51.45
1770.011	51.3
1773.227	51.44
1776.443	51.72
1779.658	51.51
1782.874	52.05
1786.089	50.94
1789.303	50.74
1792.518	51.51
1795.732	51.56
1798.945	52.52
1802.159	52.13
1805.372	52.41
1808.585	52.85
1811.797	52.39
1815.01	53.39
1818.222	52.84
1821.434	54.58
1824.645	53.92
1827.856	53.51
1831.067	53.48
1834.278	53.62
1837.488	54
1840.698	54.06
1843.908	53.5
1847.117	53.84
1850.326	53.8
1853.535	54.4
1856.744	53.4
1859.952	54.09
1863.16	53.62
1866.368	53.12
1869.575	51.97
1872.782	50.77
1875.989	49.23
1879.196	48.44
1882.402	47.04
1885.608	46.78
1888.814	44.68
1892.019	44.19
1895.224	43.22
1898.429	43.1
1901.634	42.32
1904.838	41.97
1908.042	42.31
1911.246	42.43
1914.449	42.52
1917.652	43.13
1920.855	42.15
1924.058	41.5
1927.26	41.02
1930.462	41.89
1933.664	40.5
1936.865	41.09
1940.066	40
1943.267	39.59
1946.467	39.82
1949.668	39.97
1952.868	39.14
1956.067	39.42
1959.267	40.46
1962.466	40.52
1965.665	39.68
1968.863	40.99
1972.061	40.86
1975.259	43.09
1978.457	43.44
1981.654	44.01
1984.852	44.23
1988.048	45.1
1991.245	46.15
1994.441	47.57
1997.637	48.43
2000.833	50.43
2004.028	50.26
2007.223	51.09
2010.418	51.5
2013.613	52.88
2016.807	53.93
2020.001	55.35
2023.194	57.55
2026.388	58.17
2029.581	60.44
2032.774	62.23
2035.966	62.57
2039.158	65.43
2042.35	66.16
2045.542	68.25
2048.733	71.43
2051.924	71.42
2055.115	72.07
2058.306	72.49
2061.496	73.37
2064.686	74.72
2067.875	74.77
2071.065	78.18
2074.254	77.48
2077.442	79.73
2080.631	79.02
2083.819	79.32
2087.007	85
2090.195	85.56
2093.382	85.11
2096.569	86.81
2099.756	86.63
2102.942	88.81
2106.128	88.21
2109.314	90.21
2112.5	91.55
2115.685	89.21
2118.87	89.43
2122.055	86.75
2125.239	88.54
2128.424	92.76
2131.608	90.32
2134.791	88.15
2137.974	88.72
2141.157	91.64
2144.34	90.9
2147.523	93.83
2150.705	97.98
2153.887	98.43
2157.068	98.91
2160.25	99.17
2163.431	98.84
2166.611	100.46
2169.792	105.18
2172.972	107.47
2176.152	105.12
2179.331	107.35
2182.511	106.32
2185.69	107.97
2188.868	109.72
2192.047	112.37
2195.225	116.8
2198.403	112.81
2201.58	112.59
2204.758	114.47
2207.935	111.57
2211.111	114.01
2214.288	115.61
2217.464	118.71
2220.64	117.38
2223.815	116.13
2226.991	117.24
2230.166	117.86
2233.34	122.89
2236.515	125.95
2239.689	123.4
2242.863	126.9
2246.036	125.91
2249.209	124.04
2252.382	121
2255.555	126.54
2258.727	129.33
2261.9	130.34
2265.071	130.31
2268.243	131.29
2271.414	134.38
2274.585	138.85
2277.756	139.51
2280.926	144.31
2284.096	144.21
2287.266	146.73
2290.436	146.42
2293.605	149.54
2296.774	156.31
2299.942	153.96
2303.111	159.76
2306.279	163.71
2309.447	164.56
2312.614	163.11
2315.781	163.04
2318.948	170.33
2322.115	172.24
2325.281	177.81
2328.447	174.21
2331.613	171.76
2334.779	177.98
2337.944	172.18
2341.109	174.72
2344.274	177.86
2347.438	180.01
2350.602	186.44
2353.766	200.02
2356.929	199.5
2360.092	204.61
2363.255	206.66
2366.418	210.57
2369.58	211.37
2372.742	215.67
2375.904	216.77
2379.066	220.19
2382.227	228.11
2385.388	226.7
2388.548	211.82
2391.709	213.4
2394.869	214.77
2398.029	219.39
2401.188	215.19
2404.347	222.21
2407.506	231.89
2410.665	219.85
2413.823	223.19
2416.981	232.35
2420.139	221.29
2423.296	238.76
2426.453	249.83
2429.61	240.71
2432.767	250.57
2435.923	262.87
2439.079	258.88
2442.235	258.3
2445.391	272.11
2448.546	263.32
2451.701	271.97
2454.855	289.78
2458.009	271.6
2461.163	273.46
2464.317	276.78
2467.471	277.3
2470.624	283.59
2473.777	270.27
2476.929	271.95
2480.082	280.05
2483.234	297.23
2486.385	304.2
2489.537	310.93
2492.688	320.09
2495.839	313.35
2498.989	323.16
2502.14	317.49
2505.29	307.09
2508.439	330.34
2511.589	333.24
2514.738	331.75
2517.887	326.96
2521.035	308.74
2524.183	308.76
2527.331	310.65
2530.479	311.22
2533.627	311.16
