Data from C_2_dec_nc_4n_070_Splice17_04.txt Node
Date: Sat Feb 29 14:23:48 EST 2020
User: sa697716
Spectrometer: FLMS03696
Trigger mode: 0
Integration Time (sec): 3.180400E-1
Scans to average: 20
Electric dark correction enabled: true
Nonlinearity correction enabled: true
Boxcar width: 5
XAxis mode: Wavelengths
Number of Pixels in Spectrum: 2048
>>>>>Begin Spectral Data<<<<<
187.83	93.6
188.298	85.34
188.766	57.48
189.233	59.58
189.701	70.02
190.169	72.85
190.636	71.79
191.104	33.09
191.571	81.15
192.039	187.24
192.506	-22.27
192.974	6563.97
193.441	-507.44
193.908	43.54
194.375	-6.2
194.842	39.42
195.31	33.42
195.777	35.3
196.244	27.44
196.711	34.39
197.177	32.86
197.644	34.05
198.111	33.68
198.578	33.21
199.045	34.49
199.511	35.42
199.978	35.82
200.445	35.97
200.911	35.76
201.378	35.71
201.844	36.37
202.31	36.86
202.777	36.93
203.243	37.44
203.709	37.79
204.176	37.37
204.642	37.14
205.108	37.22
205.574	37.55
206.04	38.01
206.506	37.76
206.972	37.75
207.438	37.49
207.903	37.54
208.369	37.24
208.835	37.33
209.301	37.23
209.766	37.6
210.232	37.42
210.697	37.15
211.163	36.82
211.628	36.89
212.094	36.44
212.559	36.09
213.024	35.69
213.49	35.23
213.955	34.97
214.42	34.52
214.885	33.92
215.35	33.59
215.815	32.67
216.28	32.17
216.745	31.44
217.21	30.87
217.675	30.21
218.14	29.44
218.604	28.68
219.069	28.05
219.534	27.42
219.998	26.86
220.463	26.33
220.927	25.95
221.392	25.46
221.856	25.08
222.32	24.67
222.785	24.34
223.249	24.01
223.713	23.72
224.177	23.4
224.642	23.17
225.106	22.86
225.57	22.56
226.034	22.32
226.497	22.06
226.961	21.76
227.425	21.5
227.889	21.24
228.353	20.96
228.816	20.7
229.28	20.42
229.744	20.15
230.207	19.92
230.671	19.69
231.134	19.43
231.597	19.18
232.061	18.96
232.524	18.75
232.987	18.51
233.45	18.31
233.914	18.11
234.377	17.92
234.84	17.7
235.303	17.49
235.766	17.3
236.229	17.12
236.691	16.94
237.154	16.77
237.617	16.6
238.08	16.44
238.542	16.27
239.005	16.1
239.468	15.94
239.93	15.81
240.393	15.68
240.855	15.52
241.317	15.39
241.78	15.27
242.242	15.12
242.704	14.99
243.166	14.86
243.629	14.74
244.091	14.62
244.553	14.51
245.015	14.38
245.477	14.26
245.939	14.17
246.4	14.05
246.862	13.96
247.324	13.88
247.786	13.78
248.247	13.69
248.709	13.6
249.17	13.5
249.632	13.4
250.093	13.28
250.555	13.18
251.016	13.1
251.477	13.01
251.939	12.92
252.4	12.84
252.861	12.77
253.322	12.69
253.783	12.62
254.244	12.58
254.705	12.53
255.166	12.5
255.627	12.45
256.088	12.39
256.549	12.34
257.009	12.27
257.47	12.21
257.931	12.15
258.391	12.08
258.852	12.01
259.312	11.95
259.773	11.89
260.233	11.82
260.694	11.77
261.154	11.7
261.614	11.64
262.074	11.59
262.534	11.53
262.994	11.48
263.455	11.44
263.915	11.39
264.374	11.34
264.834	11.29
265.294	11.25
265.754	11.19
266.214	11.16
266.673	11.11
267.133	11.07
267.593	11.04
268.052	10.99
268.512	10.95
268.971	10.91
269.431	10.88
269.89	10.84
270.349	10.8
270.809	10.77
271.268	10.72
271.727	10.69
272.186	10.65
272.645	10.61
273.104	10.58
273.563	10.55
274.022	10.51
274.481	10.47
274.94	10.43
275.399	10.39
275.857	10.35
276.316	10.32
276.775	10.28
277.233	10.25
277.692	10.22
278.15	10.17
278.609	10.12
279.067	10.08
279.525	10.04
279.984	10
280.442	9.96
280.9	9.92
281.358	9.88
281.816	9.83
282.274	9.79
282.732	9.74
283.19	9.7
283.648	9.66
284.106	9.63
284.564	9.61
285.021	9.58
285.479	9.56
285.937	9.53
286.394	9.5
286.852	9.49
287.309	9.46
287.767	9.43
288.224	9.4
288.682	9.39
289.139	9.37
289.596	9.33
290.053	9.29
290.511	9.24
290.968	9.21
291.425	9.16
291.882	9.12
292.339	9.07
292.796	9.04
293.252	9
293.709	8.96
294.166	8.92
294.623	8.89
295.079	8.86
295.536	8.83
295.992	8.79
296.449	8.76
296.905	8.72
297.362	8.69
297.818	8.66
298.274	8.63
298.731	8.6
299.187	8.57
299.643	8.54
300.099	8.51
300.555	8.48
301.011	8.46
301.467	8.43
301.923	8.4
302.379	8.37
302.835	8.35
303.291	8.33
303.746	8.3
304.202	8.27
304.658	8.24
305.113	8.22
305.569	8.19
306.024	8.18
306.479	8.16
306.935	8.15
307.39	8.14
307.845	8.12
308.301	8.1
308.756	8.1
309.211	8.09
309.666	8.08
310.121	8.06
310.576	8.05
311.031	8.03
311.486	8.02
311.94	8
312.395	7.99
312.85	7.97
313.305	7.95
313.759	7.93
314.214	7.92
314.668	7.9
315.123	7.9
315.577	7.88
316.032	7.88
316.486	7.86
316.94	7.84
317.394	7.82
317.849	7.8
318.303	7.79
318.757	7.76
319.211	7.73
319.665	7.69
320.119	7.67
320.572	7.65
321.026	7.62
321.48	7.6
321.934	7.58
322.387	7.57
322.841	7.54
323.295	7.51
323.748	7.49
324.202	7.48
324.655	7.46
325.108	7.43
325.562	7.4
326.015	7.38
326.468	7.36
326.921	7.33
327.374	7.31
327.827	7.3
328.28	7.28
328.733	7.26
329.186	7.24
329.639	7.23
330.092	7.22
330.545	7.2
330.997	7.19
331.45	7.18
331.903	7.17
332.355	7.16
332.808	7.14
333.26	7.12
333.713	7.12
334.165	7.12
334.617	7.12
335.069	7.12
335.522	7.13
335.974	7.13
336.426	7.14
336.878	7.13
337.33	7.13
337.782	7.13
338.234	7.14
338.686	7.11
339.137	7.11
339.589	7.09
340.041	7.09
340.493	7.07
340.944	7.05
341.396	7.04
341.847	7.02
342.299	6.99
342.75	6.97
343.201	6.95
343.653	6.93
344.104	6.9
344.555	6.88
345.006	6.85
345.457	6.83
345.908	6.81
346.359	6.8
346.81	6.79
347.261	6.77
347.712	6.77
348.163	6.76
348.613	6.75
349.064	6.73
349.515	6.72
349.965	6.71
350.416	6.7
350.866	6.69
351.317	6.69
351.767	6.68
352.217	6.67
352.668	6.66
353.118	6.66
353.568	6.68
354.018	6.69
354.468	6.68
354.918	6.68
355.368	6.68
355.818	6.67
356.268	6.67
356.718	6.67
357.168	6.67
357.617	6.66
358.067	6.65
358.517	6.64
358.966	6.63
359.416	6.63
359.865	6.63
360.315	6.62
360.764	6.63
361.213	6.62
361.663	6.61
362.112	6.62
362.561	6.62
363.01	6.62
363.459	6.61
363.908	6.6
364.357	6.59
364.806	6.59
365.255	6.59
365.703	6.57
366.152	6.57
366.601	6.57
367.05	6.56
367.498	6.55
367.947	6.53
368.395	6.54
368.844	6.53
369.292	6.53
369.74	6.53
370.189	6.53
370.637	6.54
371.085	6.54
371.533	6.54
371.981	6.54
372.429	6.53
372.877	6.53
373.325	6.52
373.773	6.53
374.221	6.51
374.669	6.49
375.116	6.47
375.564	6.45
376.012	6.44
376.459	6.44
376.907	6.43
377.354	6.44
377.801	6.45
378.249	6.44
378.696	6.45
379.143	6.46
379.591	6.48
380.038	6.48
380.485	6.5
380.932	6.51
381.379	6.49
381.826	6.49
382.273	6.48
382.72	6.49
383.166	6.5
383.613	6.5
384.06	6.5
384.506	6.5
384.953	6.49
385.4	6.51
385.846	6.5
386.292	6.52
386.739	6.53
387.185	6.55
387.631	6.55
388.078	6.55
388.524	6.54
388.97	6.55
389.416	6.55
389.862	6.56
390.308	6.57
390.754	6.58
391.2	6.59
391.645	6.6
392.091	6.59
392.537	6.61
392.983	6.64
393.428	6.67
393.874	6.7
394.319	6.72
394.765	6.73
395.21	6.74
395.655	6.76
396.101	6.78
396.546	6.8
396.991	6.82
397.436	6.81
397.881	6.82
398.326	6.85
398.771	6.87
399.216	6.9
399.661	6.94
400.106	6.98
400.551	6.99
400.995	7
401.44	7.01
401.885	7.02
402.329	7.04
402.774	7.05
403.218	7.04
403.663	7.04
404.107	7.06
404.551	7.09
404.995	7.08
405.44	7.1
405.884	7.11
406.328	7.13
406.772	7.16
407.216	7.18
407.66	7.2
408.104	7.22
408.547	7.24
408.991	7.23
409.435	7.21
409.879	7.24
410.322	7.25
410.766	7.27
411.209	7.29
411.653	7.29
412.096	7.3
412.54	7.3
412.983	7.31
413.426	7.32
413.869	7.36
414.312	7.39
414.756	7.4
415.199	7.43
415.642	7.46
416.085	7.48
416.527	7.52
416.97	7.54
417.413	7.55
417.856	7.55
418.298	7.54
418.741	7.54
419.184	7.54
419.626	7.53
420.069	7.53
420.511	7.5
420.953	7.48
421.396	7.46
421.838	7.47
422.28	7.51
422.722	7.52
423.164	7.54
423.606	7.55
424.048	7.56
424.49	7.58
424.932	7.57
425.374	7.6
425.816	7.6
426.258	7.59
426.699	7.57
427.141	7.53
427.582	7.51
428.024	7.49
428.465	7.49
428.907	7.49
429.348	7.49
429.789	7.49
430.231	7.46
430.672	7.46
431.113	7.47
431.554	7.5
431.995	7.51
432.436	7.53
432.877	7.53
433.318	7.52
433.759	7.5
434.2	7.48
434.64	7.49
435.081	7.51
435.522	7.54
435.962	7.58
436.403	7.58
436.843	7.6
437.284	7.63
437.724	7.66
438.164	7.69
438.604	7.72
439.045	7.74
439.485	7.75
439.925	7.75
440.365	7.73
440.805	7.72
441.245	7.71
441.685	7.74
442.125	7.73
442.564	7.76
443.004	7.76
443.444	7.79
443.883	7.79
444.323	7.81
444.762	7.87
445.202	7.94
445.641	7.97
446.081	8.05
446.52	8.07
446.959	8.11
447.398	8.15
447.837	8.21
448.276	8.24
448.716	8.29
449.154	8.34
449.593	8.37
450.032	8.38
450.471	8.42
450.91	8.42
451.349	8.44
451.787	8.45
452.226	8.45
452.664	8.44
453.103	8.46
453.541	8.46
453.98	8.44
454.418	8.44
454.856	8.43
455.295	8.42
455.733	8.43
456.171	8.42
456.609	8.42
457.047	8.42
457.485	8.42
457.923	8.4
458.361	8.38
458.798	8.41
459.236	8.4
459.674	8.39
460.111	8.38
460.549	8.35
460.987	8.34
461.424	8.31
461.862	8.31
462.299	8.3
462.736	8.3
463.173	8.29
463.611	8.26
464.048	8.27
464.485	8.28
464.922	8.27
465.359	8.3
465.796	8.27
466.233	8.3
466.67	8.31
467.106	8.31
467.543	8.32
467.98	8.33
468.416	8.35
468.853	8.35
469.29	8.37
469.726	8.39
470.162	8.37
470.599	8.41
471.035	8.42
471.471	8.4
471.907	8.41
472.344	8.43
472.78	8.45
473.216	8.45
473.652	8.45
474.088	8.46
474.523	8.47
474.959	8.47
475.395	8.49
475.831	8.48
476.266	8.49
476.702	8.5
477.138	8.5
477.573	8.5
478.008	8.52
478.444	8.51
478.879	8.51
479.314	8.5
479.75	8.51
480.185	8.5
480.62	8.5
481.055	8.52
481.49	8.52
481.925	8.5
482.36	8.49
482.795	8.49
483.229	8.5
483.664	8.5
484.099	8.52
484.534	8.53
484.968	8.55
485.403	8.56
485.837	8.58
486.271	8.6
486.706	8.63
487.14	8.67
487.574	8.69
488.009	8.71
488.443	8.75
488.877	8.77
489.311	8.8
489.745	8.84
490.179	8.88
490.613	8.92
491.046	8.97
491.48	9.02
491.914	9.08
492.348	9.15
492.781	9.21
493.215	9.28
493.648	9.37
494.082	9.46
494.515	9.52
494.948	9.61
495.382	9.71
495.815	9.81
496.248	9.91
496.681	10.02
497.114	10.14
497.547	10.26
497.98	10.38
498.413	10.5
498.846	10.63
499.279	10.78
499.711	10.94
500.144	11.08
500.577	11.24
501.009	11.4
501.442	11.58
501.874	11.74
502.306	11.93
502.739	12.11
503.171	12.34
503.603	12.56
504.036	12.79
504.468	13.04
504.9	13.29
505.332	13.54
505.764	13.81
506.196	14.08
506.627	14.38
507.059	14.66
507.491	14.98
507.923	15.26
508.354	15.57
508.786	15.87
509.217	16.17
509.649	16.5
510.08	16.84
510.512	17.18
510.943	17.54
511.374	17.89
511.805	18.25
512.237	18.62
512.668	19
513.099	19.39
513.53	19.8
513.961	20.22
514.391	20.62
514.822	21.01
515.253	21.4
515.684	21.77
516.114	22.18
516.545	22.58
516.975	22.99
517.406	23.38
517.836	23.75
518.267	24.13
518.697	24.5
519.127	24.89
519.558	25.27
519.988	25.65
520.418	26.03
520.848	26.4
521.278	26.78
521.708	27.07
522.138	27.43
522.567	27.78
522.997	28.1
523.427	28.43
523.857	28.73
524.286	29.05
524.716	29.34
525.145	29.63
525.575	29.91
526.004	30.19
526.433	30.5
526.863	30.78
527.292	31.03
527.721	31.29
528.15	31.52
528.579	31.76
529.008	31.98
529.437	32.2
529.866	32.39
530.295	32.58
530.724	32.75
531.152	32.92
531.581	33.05
532.01	33.18
532.438	33.32
532.867	33.46
533.295	33.57
533.723	33.68
534.152	33.76
534.58	33.85
535.008	33.93
535.436	34
535.865	34.08
536.293	34.18
536.721	34.26
537.149	34.32
537.576	34.36
538.004	34.42
538.432	34.48
538.86	34.53
539.287	34.58
539.715	34.63
540.143	34.67
540.57	34.7
540.998	34.74
541.425	34.75
541.852	34.77
542.28	34.78
542.707	34.81
543.134	34.82
543.561	34.85
543.988	34.88
544.415	34.88
544.842	34.91
545.269	34.95
545.696	34.95
546.123	34.99
546.549	35.02
546.976	35.07
547.403	35.06
547.829	35.09
548.256	35.11
548.682	35.11
549.108	35.16
549.535	35.17
549.961	35.16
550.387	35.19
550.813	35.16
551.24	35.17
551.666	35.16
552.092	35.2
552.518	35.18
552.943	35.2
553.369	35.2
553.795	35.18
554.221	35.17
554.646	35.12
555.072	35.08
555.498	35.05
555.923	35.01
556.349	34.96
556.774	34.88
557.199	34.81
557.625	34.71
558.05	34.59
558.475	34.49
558.9	34.4
559.325	34.31
559.75	34.21
560.175	34.09
560.6	33.95
561.025	33.82
561.449	33.69
561.874	33.55
562.299	33.43
562.723	33.31
563.148	33.17
563.572	33.02
563.997	32.85
564.421	32.69
564.846	32.51
565.27	32.33
565.694	32.13
566.118	31.97
566.542	31.79
566.966	31.59
567.39	31.37
567.814	31.18
568.238	30.93
568.662	30.71
569.086	30.49
569.509	30.27
569.933	30.06
570.357	29.86
570.78	29.61
571.204	29.38
571.627	29.17
572.05	28.96
572.474	28.76
572.897	28.58
573.32	28.37
573.743	28.2
574.166	28.02
574.589	27.84
575.012	27.67
575.435	27.53
575.858	27.38
576.281	27.23
576.704	27.1
577.126	26.97
577.549	26.86
577.972	26.75
578.394	26.61
578.817	26.48
579.239	26.37
579.661	26.27
580.084	26.13
580.506	26.02
580.928	25.9
581.35	25.79
581.772	25.69
582.194	25.57
582.616	25.47
583.038	25.38
583.46	25.3
583.882	25.22
584.303	25.13
584.725	25.05
585.147	24.95
585.568	24.86
585.99	24.8
586.411	24.7
586.833	24.62
587.254	24.55
587.675	24.48
588.096	24.41
588.518	24.34
588.939	24.28
589.36	24.22
589.781	24.16
590.202	24.1
590.623	24.02
591.043	23.98
591.464	23.92
591.885	23.86
592.305	23.8
592.726	23.75
593.147	23.69
593.567	23.64
593.987	23.61
594.408	23.57
594.828	23.53
595.248	23.5
595.669	23.46
596.089	23.42
596.509	23.36
596.929	23.32
597.349	23.28
597.769	23.24
598.189	23.2
598.608	23.13
599.028	23.07
599.448	23.03
599.867	22.97
600.287	22.92
600.706	22.84
601.126	22.78
601.545	22.71
601.965	22.64
602.384	22.56
602.803	22.48
603.222	22.41
603.641	22.34
604.061	22.26
604.48	22.16
604.898	22.06
605.317	21.99
605.736	21.9
606.155	21.81
606.574	21.71
606.992	21.59
607.411	21.52
607.829	21.37
608.248	21.28
608.666	21.18
609.085	21.09
609.503	20.98
609.921	20.86
610.339	20.76
610.758	20.66
611.176	20.56
611.594	20.45
612.012	20.33
612.43	20.26
612.847	20.14
613.265	20.04
613.683	19.92
614.101	19.82
614.518	19.72
614.936	19.62
615.353	19.52
615.771	19.44
616.188	19.37
616.606	19.3
617.023	19.21
617.44	19.14
617.857	19.04
618.274	18.98
618.691	18.93
619.108	18.88
619.525	18.82
619.942	18.76
620.359	18.71
620.776	18.66
621.192	18.61
621.609	18.59
622.026	18.55
622.442	18.51
622.859	18.46
623.275	18.44
623.691	18.39
624.108	18.36
624.524	18.35
624.94	18.31
625.356	18.3
625.772	18.28
626.188	18.27
626.604	18.24
627.02	18.24
627.436	18.23
627.852	18.19
628.268	18.18
628.683	18.18
629.099	18.15
629.514	18.13
629.93	18.09
630.345	18.04
630.761	17.97
631.176	17.91
631.591	17.85
632.007	17.79
632.422	17.73
632.837	17.65
633.252	17.55
633.667	17.46
634.082	17.37
634.497	17.25
634.911	17.12
635.326	17
635.741	16.87
636.155	16.74
636.57	16.59
636.984	16.43
637.399	16.25
637.813	16.1
638.228	15.92
638.642	15.75
639.056	15.59
639.47	15.42
639.884	15.24
640.298	15.07
640.712	14.91
641.126	14.73
641.54	14.58
641.954	14.43
642.368	14.25
642.781	14.09
643.195	13.91
643.609	13.75
644.022	13.61
644.436	13.46
644.849	13.32
645.262	13.18
645.676	13.05
646.089	12.91
646.502	12.77
646.915	12.67
647.328	12.57
647.741	12.49
648.154	12.4
648.567	12.31
648.98	12.25
649.393	12.19
649.805	12.11
650.218	12.06
650.631	12.01
651.043	11.97
651.456	11.93
651.868	11.89
652.28	11.84
652.693	11.79
653.105	11.75
653.517	11.68
653.929	11.6
654.341	11.56
654.753	11.49
655.165	11.41
655.577	11.32
655.989	11.21
656.401	11.11
656.813	10.98
657.224	10.86
657.636	10.77
658.047	10.67
658.459	10.54
658.87	10.43
659.282	10.32
659.693	10.21
660.104	10.09
660.515	9.98
660.926	9.88
661.338	9.79
661.749	9.7
662.159	9.59
662.57	9.47
662.981	9.39
663.392	9.28
663.803	9.18
664.213	9.1
664.624	9.05
665.035	8.97
665.445	8.91
665.855	8.84
666.266	8.79
666.676	8.74
667.086	8.7
667.497	8.65
667.907	8.62
668.317	8.59
668.727	8.56
669.137	8.54
669.547	8.52
669.956	8.5
670.366	8.48
670.776	8.47
671.186	8.46
671.595	8.46
672.005	8.47
672.414	8.49
672.824	8.5
673.233	8.52
673.642	8.53
674.052	8.55
674.461	8.56
674.87	8.59
675.279	8.61
675.688	8.66
676.097	8.69
676.506	8.72
676.915	8.75
677.323	8.8
677.732	8.86
678.141	8.93
678.549	9.01
678.958	9.09
679.366	9.16
679.775	9.26
680.183	9.35
680.592	9.48
681	9.6
681.408	9.73
681.816	9.86
682.224	10.02
682.632	10.2
683.04	10.4
683.448	10.61
683.856	10.86
684.264	11.13
684.671	11.43
685.079	11.73
685.487	12.09
685.894	12.49
686.302	12.9
686.709	13.34
687.116	13.83
687.524	14.33
687.931	14.86
688.338	15.45
688.745	16.04
689.152	16.69
689.559	17.36
689.966	18.04
690.373	18.75
690.78	19.47
691.187	20.2
691.593	20.93
692	21.69
692.407	22.47
692.813	23.25
693.22	24.03
693.626	24.8
694.032	25.59
694.439	26.39
694.845	27.14
695.251	27.92
695.657	28.69
696.063	29.47
696.469	30.22
696.875	30.95
697.281	31.65
697.687	32.38
698.093	33.09
698.498	33.78
698.904	34.47
699.31	35.13
699.715	35.79
700.12	36.43
700.526	37.07
700.931	37.69
701.337	38.31
701.742	38.92
702.147	39.49
702.552	40.07
702.957	40.62
703.362	41.17
703.767	41.71
704.172	42.25
704.577	42.75
704.981	43.26
705.386	43.78
705.791	44.27
706.195	44.75
706.6	45.22
707.004	45.67
707.408	46.12
707.813	46.55
708.217	46.96
708.621	47.4
709.025	47.81
709.43	48.19
709.834	48.58
710.237	48.98
710.641	49.36
711.045	49.72
711.449	50.07
711.853	50.45
712.256	50.81
712.66	51.19
713.064	51.5
713.467	51.82
713.87	52.17
714.274	52.48
714.677	52.75
715.08	53.05
715.484	53.38
715.887	53.68
716.29	53.95
716.693	54.21
717.096	54.46
717.499	54.73
717.901	54.98
718.304	55.18
718.707	55.43
719.109	55.71
719.512	55.98
719.915	56.2
720.317	56.47
720.719	56.69
721.122	56.93
721.524	57.16
721.926	57.4
722.328	57.63
722.731	57.88
723.133	58.1
723.535	58.29
723.937	58.44
724.338	58.6
724.74	58.74
725.142	58.76
725.544	58.89
725.945	59.04
726.347	59.18
726.748	59.31
727.15	59.43
727.551	59.54
727.952	59.67
728.354	59.83
728.755	59.99
729.156	60.1
729.557	60.39
729.958	60.51
730.359	60.6
730.76	60.69
731.161	60.79
731.562	60.9
731.962	60.99
732.363	61.05
732.763	61.13
733.164	61.19
733.564	61.26
733.965	61.28
734.365	61.33
734.766	61.39
735.166	61.43
735.566	61.44
735.966	61.48
736.366	61.47
736.766	61.52
737.166	61.53
737.566	61.54
737.966	61.6
738.365	61.67
738.765	61.7
739.165	61.73
739.564	61.76
739.964	61.82
740.363	61.86
740.763	61.92
741.162	61.96
741.561	62.03
741.96	62.05
742.36	62.08
742.759	62.03
743.158	62.03
743.557	62.06
743.955	62.13
744.354	62.16
744.753	62.21
745.152	62.24
745.55	62.29
745.949	62.3
746.348	62.37
746.746	62.39
747.144	62.5
747.543	62.6
747.941	62.66
748.339	62.73
748.737	62.82
749.136	62.82
749.534	62.84
749.932	62.84
750.33	62.87
750.727	62.86
751.125	62.87
751.523	62.84
751.921	62.8
752.318	62.78
752.716	62.73
753.113	62.67
753.511	62.63
753.908	62.62
754.305	62.59
754.703	62.56
755.1	62.54
755.497	62.5
755.894	62.48
756.291	62.46
756.688	62.45
757.085	62.4
757.482	62.37
757.878	62.37
758.275	62.35
758.672	62.35
759.068	62.34
759.465	62.32
759.861	62.3
760.258	62.29
760.654	62.26
761.05	62.21
761.447	62.24
761.843	62.26
762.239	62.21
762.635	62.19
763.031	62.19
763.427	62.15
763.822	62.14
764.218	62.13
764.614	62.11
765.01	62.08
765.405	62.07
765.801	62.03
766.196	61.98
766.592	62.02
766.987	61.99
767.382	61.96
767.778	61.99
768.173	62
768.568	61.95
768.963	61.95
769.358	61.98
769.753	62.01
770.148	62.01
770.542	62.01
770.937	61.99
771.332	61.99
771.726	61.98
772.121	61.93
772.515	61.93
772.91	61.94
773.304	61.93
773.699	61.93
774.093	61.86
774.487	61.9
774.881	61.9
775.275	61.91
775.669	61.94
776.063	61.93
776.457	61.93
776.851	61.9
777.245	61.94
777.638	61.95
778.032	61.94
778.425	62
778.819	61.97
779.212	61.95
779.606	61.91
779.999	61.9
780.392	61.92
780.786	61.96
781.179	61.98
781.572	61.99
781.965	62
782.358	61.97
782.751	61.96
783.143	62.01
783.536	62.07
783.929	62.11
784.322	62.09
784.714	62.05
785.107	62.02
785.499	62
785.891	62
786.284	61.99
786.676	62.04
787.068	62.01
787.46	61.97
787.852	61.94
788.245	61.95
788.636	61.99
789.028	61.99
789.42	61.98
789.812	61.96
790.204	61.94
790.595	61.94
790.987	61.93
791.378	61.94
791.77	61.94
792.161	61.94
792.553	61.91
792.944	61.9
793.335	61.97
793.726	62.02
794.117	62.03
794.508	62.02
794.899	62.04
795.29	62.03
795.681	62.06
796.072	62.09
796.463	62.07
796.853	62.09
797.244	62.08
797.634	62.06
798.025	62.05
798.415	62.1
798.806	62.17
799.196	62.21
799.586	62.24
799.976	62.23
800.366	62.23
800.756	62.28
801.146	62.31
801.536	62.31
801.926	62.31
802.316	62.35
802.706	62.35
803.095	62.34
803.485	62.37
803.874	62.4
804.264	62.46
804.653	62.46
805.043	62.45
805.432	62.43
805.821	62.46
806.21	62.51
806.599	62.53
806.988	62.55
807.377	62.54
807.766	62.52
808.155	62.48
808.544	62.45
808.933	62.46
809.321	62.52
809.71	62.56
810.098	62.57
810.487	62.54
810.875	62.51
811.264	62.52
811.652	62.54
812.04	62.54
812.428	62.6
812.816	62.62
813.204	62.64
813.592	62.65
813.98	62.68
814.368	62.68
814.756	62.7
815.144	62.74
815.531	62.74
815.919	62.74
816.306	62.73
816.694	62.75
817.081	62.74
817.469	62.76
817.856	62.78
818.243	62.76
818.63	62.79
819.017	62.78
819.404	62.76
819.791	62.78
820.178	62.79
820.565	62.8
820.952	62.76
821.339	62.79
821.725	62.82
822.112	62.81
822.498	62.81
822.885	62.83
823.271	62.89
823.657	62.89
824.044	62.86
824.43	62.89
824.816	62.88
825.202	62.89
825.588	62.89
825.974	62.86
826.36	62.85
826.746	62.86
827.132	62.82
827.517	62.79
827.903	62.79
828.289	62.8
828.674	62.77
829.06	62.8
829.445	62.8
829.83	62.8
830.216	62.8
830.601	62.8
830.986	62.78
831.371	62.8
831.756	62.77
832.141	62.8
832.526	62.79
832.911	62.8
833.295	62.79
833.68	62.8
834.065	62.8
834.449	62.77
834.834	62.73
835.218	62.71
835.603	62.71
835.987	62.71
836.371	62.68
836.755	62.66
837.139	62.67
837.524	62.66
837.908	62.62
838.291	62.59
838.675	62.61
839.059	62.62
839.443	62.63
839.827	62.6
840.21	62.62
840.594	62.63
840.977	62.61
841.361	62.59
841.744	62.6
842.127	62.59
842.511	62.57
842.894	62.54
843.277	62.53
843.66	62.53
844.043	62.55
844.426	62.52
844.809	62.48
845.191	62.47
845.574	62.46
845.957	62.41
846.339	62.39
846.722	62.42
847.104	62.44
847.487	62.46
847.869	62.41
848.252	62.38
848.634	62.41
849.016	62.45
849.398	62.45
849.78	62.44
850.162	62.45
850.544	62.5
850.926	62.46
851.307	62.45
851.689	62.42
852.071	62.45
852.452	62.44
852.834	62.4
853.215	62.37
853.597	62.37
853.978	62.35
854.359	62.32
854.741	62.31
855.122	62.33
855.503	62.33
855.884	62.33
856.265	62.32
856.646	62.33
857.026	62.34
857.407	62.32
857.788	62.3
858.169	62.29
858.549	62.34
858.93	62.32
859.31	62.3
859.69	62.28
860.071	62.27
860.451	62.25
860.831	62.25
861.211	62.22
861.591	62.25
861.971	62.26
862.351	62.3
862.731	62.28
863.111	62.28
863.491	62.28
863.87	62.29
864.25	62.3
864.629	62.3
865.009	62.29
865.388	62.28
865.768	62.24
866.147	62.24
866.526	62.18
866.905	62.19
867.284	62.2
867.663	62.23
868.042	62.22
868.421	62.21
868.8	62.22
869.179	62.23
869.558	62.25
869.936	62.27
870.315	62.27
870.693	62.29
871.072	62.28
871.45	62.26
871.828	62.23
872.207	62.25
872.585	62.25
872.963	62.22
873.341	62.21
873.719	62.19
874.097	62.18
874.475	62.2
874.853	62.19
875.23	62.17
875.608	62.18
875.986	62.2
876.363	62.18
876.741	62.18
877.118	62.18
877.495	62.2
877.873	62.18
878.25	62.19
878.627	62.18
879.004	62.19
879.381	62.22
879.758	62.21
880.135	62.21
880.512	62.24
880.889	62.27
881.265	62.32
881.642	62.32
882.019	62.32
882.395	62.3
882.772	62.3
883.148	62.28
883.524	62.27
883.901	62.27
884.277	62.26
884.653	62.24
885.029	62.21
885.405	62.16
885.781	62.15
886.157	62.19
886.532	62.2
886.908	62.18
887.284	62.24
887.659	62.25
888.035	62.25
888.411	62.21
888.786	62.19
889.161	62.18
889.537	62.18
889.912	62.16
890.287	62.14
890.662	62.14
891.037	62.1
891.412	62.05
891.787	62.01
892.162	61.99
892.536	61.98
892.911	61.95
893.286	61.87
893.66	61.83
894.035	61.81
894.409	61.78
894.784	61.73
895.158	61.73
895.532	61.7
895.906	61.68
896.281	61.62
896.655	61.59
897.029	61.55
897.402	61.59
897.776	61.59
898.15	61.57
898.524	61.54
898.898	61.5
899.271	61.46
899.645	61.43
900.018	61.42
900.392	61.45
900.765	61.46
901.138	61.49
901.511	61.47
901.884	61.49
902.258	61.49
902.631	61.53
903.003	61.57
903.376	61.57
903.749	61.6
904.122	61.6
904.495	61.58
904.867	61.59
905.24	61.6
905.612	61.58
905.985	61.55
906.357	61.52
906.729	61.45
907.102	61.45
907.474	61.45
907.846	61.43
908.218	61.39
908.59	61.37
908.962	61.36
909.334	61.34
909.705	61.36
910.077	61.31
910.449	61.3
910.82	61.32
911.192	61.33
911.563	61.3
911.935	61.24
912.306	61.22
912.677	61.2
913.048	61.13
913.419	61.1
913.79	61.08
914.161	61.08
914.532	61.08
914.903	61.04
915.274	61
915.645	61.01
916.015	61.04
916.386	61.05
916.756	61.02
917.127	61.03
917.497	61.04
917.868	61.02
918.238	61.06
918.608	61.07
918.978	61.08
919.348	61.03
919.718	60.99
920.088	60.99
920.458	61.06
920.828	61.07
921.198	61.1
921.567	61.06
921.937	61.09
922.306	61.09
922.676	61.06
923.045	61.04
923.415	61.07
923.784	61.1
924.153	61.09
924.522	61.05
924.891	61.07
925.26	61.02
925.629	61.01
925.998	60.98
926.367	60.96
926.736	60.94
927.104	60.97
927.473	60.97
927.842	60.94
928.21	60.94
928.578	60.86
928.947	60.82
929.315	60.76
929.683	60.82
930.051	60.76
930.42	60.71
930.788	60.69
931.156	60.58
931.523	60.5
931.891	60.42
932.259	60.28
932.627	60.22
932.994	60.19
933.362	60.1
933.729	59.93
934.097	59.84
934.464	59.72
934.831	59.62
935.199	59.55
935.566	59.45
935.933	59.38
936.3	59.32
936.667	59.28
937.034	59.17
937.401	59.17
937.767	59.12
938.134	59.09
938.501	59.03
938.867	59.07
939.234	59.19
939.6	59.2
939.967	59.22
940.333	59.34
940.699	59.44
941.065	59.57
941.431	59.67
941.798	59.82
942.163	59.92
942.529	60.11
942.895	60.16
943.261	60.19
943.627	60.39
943.992	60.48
944.358	60.45
944.723	60.47
945.089	60.56
945.454	60.67
945.82	60.69
946.185	60.77
946.55	60.88
946.915	60.91
947.28	60.93
947.645	60.87
948.01	60.92
948.375	60.95
948.74	60.93
949.104	60.83
949.469	60.72
949.834	60.72
950.198	60.56
950.562	60.38
950.927	60.28
951.291	60.09
951.655	60.09
952.02	60.03
952.384	60.06
952.748	60.06
953.112	60.03
953.476	60.06
953.839	59.96
954.203	60.03
954.567	60.05
954.931	60.04
955.294	60.12
955.658	60.06
956.021	60.1
956.385	60.03
956.748	60.02
957.111	59.99
957.474	60.02
957.837	60.01
958.2	59.92
958.563	59.9
958.926	59.86
959.289	59.87
959.652	59.81
960.015	59.66
960.377	59.63
960.74	59.56
961.102	59.52
961.465	59.4
961.827	59.27
962.189	59.21
962.552	59.09
962.914	59.12
963.276	59.07
963.638	58.98
964	58.97
964.362	59.02
964.724	59.05
965.085	59.02
965.447	58.96
965.809	58.97
966.17	59.01
966.532	59.11
966.893	59
967.255	58.93
967.616	59.04
967.977	59.02
968.338	58.91
968.699	58.82
969.061	58.88
969.421	58.9
969.782	58.97
970.143	58.96
970.504	58.81
970.865	58.78
971.225	58.81
971.586	58.8
971.946	58.84
972.307	58.87
972.667	58.91
973.027	58.9
973.388	58.9
973.748	58.88
974.108	58.83
974.468	58.91
974.828	58.91
975.188	58.94
975.548	58.93
975.907	58.94
976.267	58.97
976.627	58.9
976.986	58.83
977.346	58.81
977.705	58.87
978.064	58.87
978.424	58.87
978.783	58.87
979.142	58.73
979.501	58.63
979.86	58.59
980.219	58.44
980.578	58.42
980.937	58.52
981.296	58.51
981.654	58.48
982.013	58.56
982.371	58.5
982.73	58.54
983.088	58.59
983.447	58.69
983.805	58.61
984.163	58.69
984.521	58.59
984.879	58.4
985.237	58.38
985.595	58.36
985.953	58.33
986.311	58.37
986.669	58.4
987.026	58.42
987.384	58.38
987.741	58.41
988.099	58.28
988.456	58.38
988.814	58.51
989.171	58.42
989.528	58.22
989.885	58.13
990.242	58.15
990.599	58.2
990.956	58.2
991.313	58.18
991.67	58.16
992.027	58.22
992.383	58.32
992.74	58.25
993.096	58.34
993.453	58.46
993.809	58.55
994.165	58.53
994.522	58.3
994.878	58.23
995.234	58.26
995.59	58.21
995.946	58.28
996.302	58.1
996.658	58.21
997.013	58.16
997.369	58.2
997.725	58.19
998.08	58.24
998.436	58.3
998.791	58.29
999.147	58.24
999.502	58.33
999.857	58.29
1000.212	58.34
1000.567	58.34
1000.922	58.39
1001.277	58.28
1001.632	58.29
1001.987	58.18
1002.342	58.19
1002.696	58.15
1003.051	58.09
1003.406	57.97
1003.76	57.91
1004.114	58.08
1004.469	57.97
1004.823	57.83
1005.177	58
1005.531	57.81
1005.885	57.94
1006.239	57.91
1006.593	57.92
1006.947	57.79
1007.301	57.86
1007.655	57.86
1008.008	57.58
1008.362	57.6
1008.715	57.55
1009.069	57.41
1009.422	57.36
1009.776	57.21
1010.129	56.98
1010.482	57.13
1010.835	57.43
1011.188	57.49
1011.541	57.34
1011.894	57.42
1012.247	57.12
1012.6	57.25
1012.952	57.24
1013.305	57.3
1013.657	57.37
1014.01	57.75
1014.362	57.76
1014.715	57.37
1015.067	57.18
1015.419	57.46
1015.771	57.45
1016.123	57.57
1016.475	57.61
1016.827	57.77
1017.179	57.87
1017.531	57.74
1017.883	57.85
1018.234	57.76
1018.586	57.72
1018.938	57.42
1019.289	57.17
1019.64	57.33
1019.992	57.5
1020.343	57.2
1020.694	56.96
1021.045	56.61
1021.396	56.47
1021.747	56.23
1022.098	56.17
1022.449	56.24
1022.8	56.51
1023.151	56.58
1023.501	56.31
1023.852	56.3
1024.202	56.52
1024.553	56.35
1024.903	56.22
1025.253	56.34
1025.604	55.93
1025.954	55.84
1026.304	56.14
1026.654	56.27
1027.004	56.38
1027.354	56.54
1027.703	56.42
1028.053	56.26
1028.403	56.04
1028.753	56.51
1029.102	56.46
1029.452	56.69
1029.801	56.65
1030.15	56.43
1030.499	56.32
897.758	151.83
901.051	160.37
904.343	163.81
907.636	160.63
910.928	162.57
914.22	162.5
917.511	155.96
920.803	153.86
924.094	148.24
927.384	151.89
930.675	145.38
933.965	144.47
937.255	139.65
940.544	132.16
943.834	130.62
947.123	124.85
950.411	122.27
953.7	124.63
956.988	118.42
960.276	114.65
963.563	119.46
966.851	114.64
970.138	112.17
973.424	108.09
976.711	110.03
979.997	105.85
983.283	104.71
986.568	101.9
989.853	100.62
993.138	98.7
996.423	99.41
999.708	95.55
1002.992	97.46
1006.275	97.34
1009.559	96.41
1012.842	94.01
1016.125	92.04
1019.408	90.93
1022.69	90.98
1025.972	89.96
1029.254	90.54
1032.536	88.79
1035.817	84.85
1039.098	84.93
1042.379	84.25
1045.659	85.03
1048.939	83.17
1052.219	83.91
1055.498	84.42
1058.778	83.4
1062.057	82.52
1065.335	81.84
1068.614	81.57
1071.892	82.51
1075.17	81.28
1078.447	80.75
1081.724	80.05
1085.001	78.93
1088.278	79.03
1091.554	78.37
1094.83	78.35
1098.106	79.09
1101.382	77.62
1104.657	77.29
1107.932	76.83
1111.206	78.03
1114.481	76.65
1117.755	74.97
1121.029	75.95
1124.302	75.14
1127.575	74.2
1130.848	73.36
1134.121	71.94
1137.393	72.58
1140.665	72.59
1143.937	71.94
1147.208	70.39
1150.48	70.24
1153.75	70.97
1157.021	69.91
1160.291	69.67
1163.561	69.46
1166.831	70.27
1170.101	69.83
1173.37	69.03
1176.639	68.15
1179.907	68.24
1183.176	68.28
1186.444	67.84
1189.711	67.19
1192.979	67.94
1196.246	67.99
1199.513	67.81
1202.78	67.36
1206.046	67.68
1209.312	68.07
1212.578	67.9
1215.843	68.85
1219.108	68.09
1222.373	69.42
1225.638	70.38
1228.902	70.65
1232.166	71.82
1235.43	71.94
1238.693	72.47
1241.956	73.47
1245.219	74.94
1248.482	75.74
1251.744	74.91
1255.006	76.56
1258.268	73.47
1261.529	73.3
1264.79	72.84
1268.051	72.03
1271.312	72.28
1274.572	71.94
1277.832	69.9
1281.092	69.7
1284.351	68.8
1287.61	68.78
1290.869	68.28
1294.128	69.43
1297.386	68.47
1300.644	68.37
1303.902	67.44
1307.159	67.05
1310.416	66.86
1313.673	68.23
1316.93	67.91
1320.186	68.45
1323.442	68.64
1326.697	68.09
1329.953	68.94
1333.208	70.39
1336.463	71.64
1339.717	72.64
1342.972	73.8
1346.226	74.17
1349.479	73.54
1352.733	75.06
1355.986	74.7
1359.238	76.19
1362.491	75.35
1365.743	74.95
1368.995	77.55
1372.247	72.72
1375.498	71.88
1378.749	72.49
1382	72.45
1385.251	72.08
1388.501	71.98
1391.751	73
1395	70.59
1398.25	71.94
1401.499	70.6
1404.748	66.74
1407.996	69.16
1411.244	68.87
1414.492	67.94
1417.74	66.36
1420.987	65.48
1424.234	63.32
1427.481	59.52
1430.728	58.59
1433.974	56.39
1437.22	55.84
1440.465	54.31
1443.711	53.21
1446.956	52.79
1450.201	50.39
1453.445	47.9
1456.689	46.74
1459.933	46.27
1463.177	44.95
1466.42	44.76
1469.663	44.38
1472.906	42.92
1476.148	40.92
1479.391	41.28
1482.633	40.18
1485.874	40.81
1489.115	41.54
1492.356	41.2
1495.597	40.58
1498.838	42.05
1502.078	41.7
1505.318	41.62
1508.557	41.55
1511.797	43.25
1515.036	43.34
1518.274	43.67
1521.513	43.75
1524.751	43.34
1527.989	43.91
1531.227	44.32
1534.464	44.29
1537.701	44.84
1540.938	44.67
1544.174	45.21
1547.41	45.33
1550.646	45.6
1553.882	45.35
1557.117	45.85
1560.352	45.96
1563.587	46.41
1566.821	46.49
1570.055	46.87
1573.289	46.84
1576.523	47.3
1579.756	47.74
1582.989	47.93
1586.222	47.07
1589.454	47.99
1592.686	47.83
1595.918	47.7
1599.15	47.46
1602.381	47.54
1605.612	47.79
1608.843	47.42
1612.073	47.67
1615.303	47.81
1618.533	47.95
1621.762	47.76
1624.992	47.68
1628.221	47.33
1631.449	48.24
1634.678	48.45
1637.906	48.57
1641.134	48.52
1644.361	49.08
1647.588	48.79
1650.815	48.63
1654.042	49.1
1657.269	49.59
1660.495	49.9
1663.72	50.08
1666.946	49.71
1670.171	50.2
1673.396	50.43
1676.621	49.76
1679.845	50.57
1683.069	50.2
1686.293	50.57
1689.517	49.78
1692.74	50.22
1695.963	49.76
1699.185	50.04
1702.408	49.87
1705.63	49.43
1708.852	49.41
1712.073	50.32
1715.294	49.34
1718.515	50.42
1721.736	49.84
1724.956	50.12
1728.176	49.85
1731.396	50.12
1734.616	49.87
1737.835	49.81
1741.054	49.89
1744.272	49.96
1747.491	49.25
1750.709	49.71
1753.927	49.12
1757.144	49.34
1760.361	49.02
1763.578	49.15
1766.795	49.13
1770.011	49.5
1773.227	49.75
1776.443	49.62
1779.658	49.07
1782.874	49.76
1786.089	48.51
1789.303	48.68
1792.518	48.84
1795.732	49.25
1798.945	49.8
1802.159	49.27
1805.372	48.89
1808.585	49.16
1811.797	49.17
1815.01	49.65
1818.222	49.05
1821.434	50.87
1824.645	49.93
1827.856	50.45
1831.067	50.11
1834.278	49.65
1837.488	50.15
1840.698	51.15
1843.908	50.73
1847.117	50.88
1850.326	50.87
1853.535	51.2
1856.744	49.62
1859.952	50.09
1863.16	48.55
1866.368	48.49
1869.575	47.6
1872.782	46.74
1875.989	44.23
1879.196	43.68
1882.402	42.25
1885.608	42.28
1888.814	40.44
1892.019	40.29
1895.224	39.15
1898.429	38.72
1901.634	37.91
1904.838	37.2
1908.042	37.23
1911.246	36.91
1914.449	36.88
1917.652	36.57
1920.855	36.16
1924.058	35.29
1927.26	33.69
1930.462	34.65
1933.664	34.36
1936.865	34.55
1940.066	33.44
1943.267	33.5
1946.467	33.5
1949.668	33.14
1952.868	33.04
1956.067	32.33
1959.267	33.45
1962.466	34.1
1965.665	34.07
1968.863	34.48
1972.061	34.82
1975.259	36.93
1978.457	35.42
1981.654	35.59
1984.852	36.39
1988.048	37.3
1991.245	37.76
1994.441	38.49
1997.637	39.26
2000.833	41
2004.028	40.54
2007.223	41.45
2010.418	42.2
2013.613	44.8
2016.807	46.85
2020.001	47.66
2023.194	49.62
2026.388	50.52
2029.581	52.4
2032.774	54.04
2035.966	54.93
2039.158	58.4
2042.35	57.34
2045.542	58.1
2048.733	62.99
2051.924	62.26
2055.115	62.94
2058.306	62.76
2061.496	63.88
2064.686	64.1
2067.875	64.74
2071.065	66.63
2074.254	64.34
2077.442	67.71
2080.631	67.99
2083.819	66.68
2087.007	70.17
2090.195	70.14
2093.382	69.92
2096.569	71.28
2099.756	72.88
2102.942	73.26
2106.128	71.56
2109.314	75.12
2112.5	73.77
2115.685	69.66
2118.87	68.87
2122.055	68.53
2125.239	69.18
2128.424	71.73
2131.608	69.92
2134.791	69.64
2137.974	70.73
2141.157	73
2144.34	72.42
2147.523	77.58
2150.705	83.14
2153.887	82.84
2157.068	83.69
2160.25	84.79
2163.431	84.03
2166.611	88.33
2169.792	88.25
2172.972	90.06
2176.152	88.61
2179.331	89.56
2182.511	86.11
2185.69	87.71
2188.868	89.89
2192.047	92.42
2195.225	95.15
2198.403	93.54
2201.58	94.87
2204.758	97.9
2207.935	96.09
2211.111	96.64
2214.288	98.37
2217.464	101.39
2220.64	103.63
2223.815	101.85
2226.991	100.72
2230.166	100.64
2233.34	105.2
2236.515	100.2
2239.689	99.31
2242.863	101.82
2246.036	104.64
2249.209	102.44
2252.382	100.6
2255.555	102.59
2258.727	105.68
2261.9	106.56
2265.071	106.97
2268.243	103.4
2271.414	110
2274.585	111.9
2277.756	112.14
2280.926	109.94
2284.096	115.29
2287.266	114.31
2290.436	109.94
2293.605	112.62
2296.774	116.52
2299.942	118.72
2303.111	128.31
2306.279	127.77
2309.447	126.99
2312.614	127.72
2315.781	130.49
2318.948	131.76
2322.115	137.87
2325.281	141.11
2328.447	142.56
2331.613	142.92
2334.779	145.08
2337.944	136.75
2341.109	138.63
2344.274	140.91
2347.438	145.07
2350.602	149.88
2353.766	156.19
2356.929	154.62
2360.092	163.69
2363.255	160.88
2366.418	159.76
2369.58	163.17
2372.742	168.98
2375.904	171.67
2379.066	173.97
2382.227	178.22
2385.388	174.09
2388.548	169.75
2391.709	169.49
2394.869	165.51
2398.029	172.61
2401.188	168.43
2404.347	170.34
2407.506	177.39
2410.665	169.3
2413.823	172.57
2416.981	173.89
2420.139	175.92
2423.296	187.38
2426.453	192.08
2429.61	187.54
2432.767	192.38
2435.923	207.6
2439.079	202.47
2442.235	202.19
2445.391	213.68
2448.546	208.57
2451.701	221.52
2454.855	223.7
2458.009	209.43
2461.163	214.28
2464.317	216.46
2467.471	212.47
2470.624	214.91
2473.777	203.75
2476.929	205.91
2480.082	207.17
2483.234	220.07
2486.385	221.08
2489.537	229.67
2492.688	232.91
2495.839	233.59
2498.989	243.65
2502.14	240.58
2505.29	235.88
2508.439	259.53
2511.589	265.26
2514.738	265.06
2517.887	262.51
2521.035	243.6
2524.183	240.53
2527.331	244.06
2530.479	240.24
2533.627	241.2
