Data from C_2_div_il_4n_082_Splice17_10.txt Node
Date: Sat Feb 29 14:18:24 EST 2020
User: sa697716
Spectrometer: FLMS03696
Trigger mode: 0
Integration Time (sec): 3.180400E-1
Scans to average: 20
Electric dark correction enabled: true
Nonlinearity correction enabled: true
Boxcar width: 5
XAxis mode: Wavelengths
Number of Pixels in Spectrum: 2048
>>>>>Begin Spectral Data<<<<<
187.83	47.27
188.298	47.88
188.766	47.94
189.233	44.82
189.701	57.35
190.169	55.84
190.636	63.26
191.104	49.56
191.571	184.81
192.039	190.89
192.506	-45.17
192.974	1062.77
193.441	-116.69
193.908	89.81
194.375	84.17
194.842	194.39
195.31	90.19
195.777	104.87
196.244	50.45
196.711	40.86
197.177	37.94
197.644	39.16
198.111	39.68
198.578	39.44
199.045	39.61
199.511	39.84
199.978	40.17
200.445	39.76
200.911	39.77
201.378	39.86
201.844	40.41
202.31	41.4
202.777	41.42
203.243	41.93
203.709	42.61
204.176	42.22
204.642	41.99
205.108	41.39
205.574	42.12
206.04	41.79
206.506	41.37
206.972	40.89
207.438	40.27
207.903	39.83
208.369	38.83
208.835	37.91
209.301	37.53
209.766	37.26
210.232	37.1
210.697	36.21
211.163	35.64
211.628	35.11
212.094	34.83
212.559	33.98
213.024	33.34
213.49	32.81
213.955	32.55
214.42	31.67
214.885	30.62
215.35	29.37
215.815	27.92
216.28	26.65
216.745	25.14
217.21	23.33
217.675	21.79
218.14	20.22
218.604	18.87
219.069	17.65
219.534	16.64
219.998	15.76
220.463	15.09
220.927	14.52
221.392	13.97
221.856	13.44
222.32	13.02
222.785	12.63
223.249	12.32
223.713	12.06
224.177	11.74
224.642	11.55
225.106	11.33
225.57	11.14
226.034	10.93
226.497	10.72
226.961	10.54
227.425	10.33
227.889	10.16
228.353	9.99
228.816	9.84
229.28	9.67
229.744	9.5
230.207	9.35
230.671	9.2
231.134	9.07
231.597	8.94
232.061	8.82
232.524	8.74
232.987	8.64
233.45	8.52
233.914	8.4
234.377	8.33
234.84	8.25
235.303	8.17
235.766	8.08
236.229	8
236.691	7.91
237.154	7.82
237.617	7.73
238.08	7.63
238.542	7.56
239.005	7.49
239.468	7.39
239.93	7.31
240.393	7.23
240.855	7.13
241.317	7.07
241.78	7.01
242.242	6.95
242.704	6.88
243.166	6.82
243.629	6.77
244.091	6.71
244.553	6.67
245.015	6.62
245.477	6.56
245.939	6.51
246.4	6.45
246.862	6.4
247.324	6.37
247.786	6.32
248.247	6.27
248.709	6.22
249.17	6.18
249.632	6.14
250.093	6.07
250.555	6.03
251.016	5.99
251.477	5.94
251.939	5.9
252.4	5.86
252.861	5.83
253.322	5.79
253.783	5.76
254.244	5.71
254.705	5.67
255.166	5.67
255.627	5.64
256.088	5.59
256.549	5.57
257.009	5.54
257.47	5.51
257.931	5.48
258.391	5.44
258.852	5.4
259.312	5.37
259.773	5.34
260.233	5.29
260.694	5.26
261.154	5.23
261.614	5.2
262.074	5.17
262.534	5.13
262.994	5.1
263.455	5.08
263.915	5.05
264.374	5.02
264.834	5
265.294	4.97
265.754	4.95
266.214	4.93
266.673	4.9
267.133	4.88
267.593	4.87
268.052	4.83
268.512	4.81
268.971	4.8
269.431	4.78
269.89	4.76
270.349	4.74
270.809	4.73
271.268	4.72
271.727	4.7
272.186	4.69
272.645	4.66
273.104	4.66
273.563	4.64
274.022	4.63
274.481	4.61
274.94	4.59
275.399	4.58
275.857	4.56
276.316	4.54
276.775	4.52
277.233	4.51
277.692	4.5
278.15	4.47
278.609	4.46
279.067	4.44
279.525	4.43
279.984	4.42
280.442	4.41
280.9	4.4
281.358	4.39
281.816	4.37
282.274	4.35
282.732	4.35
283.19	4.34
283.648	4.33
284.106	4.32
284.564	4.32
285.021	4.31
285.479	4.3
285.937	4.29
286.394	4.28
286.852	4.29
287.309	4.28
287.767	4.26
288.224	4.25
288.682	4.24
289.139	4.23
289.596	4.21
290.053	4.19
290.511	4.17
290.968	4.16
291.425	4.15
291.882	4.13
292.339	4.11
292.796	4.1
293.252	4.08
293.709	4.06
294.166	4.05
294.623	4.04
295.079	4.03
295.536	4.02
295.992	4
296.449	3.99
296.905	3.98
297.362	3.97
297.818	3.96
298.274	3.94
298.731	3.94
299.187	3.93
299.643	3.91
300.099	3.9
300.555	3.89
301.011	3.88
301.467	3.86
301.923	3.86
302.379	3.85
302.835	3.84
303.291	3.84
303.746	3.83
304.202	3.81
304.658	3.81
305.113	3.8
305.569	3.8
306.024	3.79
306.479	3.79
306.935	3.79
307.39	3.78
307.845	3.79
308.301	3.79
308.756	3.79
309.211	3.79
309.666	3.79
310.121	3.8
310.576	3.8
311.031	3.79
311.486	3.78
311.94	3.78
312.395	3.78
312.85	3.78
313.305	3.78
313.759	3.78
314.214	3.77
314.668	3.77
315.123	3.77
315.577	3.76
316.032	3.76
316.486	3.76
316.94	3.75
317.394	3.75
317.849	3.74
318.303	3.72
318.757	3.71
319.211	3.69
319.665	3.68
320.119	3.67
320.572	3.67
321.026	3.66
321.48	3.66
321.934	3.65
322.387	3.64
322.841	3.63
323.295	3.62
323.748	3.62
324.202	3.62
324.655	3.62
325.108	3.61
325.562	3.59
326.015	3.58
326.468	3.56
326.921	3.55
327.374	3.54
327.827	3.54
328.28	3.53
328.733	3.53
329.186	3.52
329.639	3.51
330.092	3.51
330.545	3.52
330.997	3.53
331.45	3.53
331.903	3.53
332.355	3.53
332.808	3.53
333.26	3.54
333.713	3.55
334.165	3.55
334.617	3.56
335.069	3.56
335.522	3.56
335.974	3.56
336.426	3.56
336.878	3.57
337.33	3.58
337.782	3.58
338.234	3.58
338.686	3.57
339.137	3.58
339.589	3.57
340.041	3.56
340.493	3.54
340.944	3.54
341.396	3.54
341.847	3.53
342.299	3.51
342.75	3.5
343.201	3.48
343.653	3.47
344.104	3.45
344.555	3.44
345.006	3.44
345.457	3.43
345.908	3.43
346.359	3.43
346.81	3.43
347.261	3.43
347.712	3.42
348.163	3.42
348.613	3.42
349.064	3.4
349.515	3.39
349.965	3.38
350.416	3.38
350.866	3.37
351.317	3.36
351.767	3.35
352.217	3.34
352.668	3.34
353.118	3.35
353.568	3.35
354.018	3.36
354.468	3.36
354.918	3.38
355.368	3.38
355.818	3.38
356.268	3.38
356.718	3.38
357.168	3.39
357.617	3.38
358.067	3.38
358.517	3.38
358.966	3.38
359.416	3.41
359.865	3.4
360.315	3.41
360.764	3.42
361.213	3.42
361.663	3.43
362.112	3.43
362.561	3.43
363.01	3.44
363.459	3.44
363.908	3.45
364.357	3.45
364.806	3.44
365.255	3.45
365.703	3.45
366.152	3.46
366.601	3.47
367.05	3.49
367.498	3.5
367.947	3.51
368.395	3.53
368.844	3.54
369.292	3.56
369.74	3.59
370.189	3.61
370.637	3.62
371.085	3.64
371.533	3.66
371.981	3.68
372.429	3.69
372.877	3.71
373.325	3.72
373.773	3.74
374.221	3.76
374.669	3.78
375.116	3.79
375.564	3.82
376.012	3.85
376.459	3.87
376.907	3.9
377.354	3.93
377.801	3.97
378.249	4.01
378.696	4.06
379.143	4.1
379.591	4.13
380.038	4.18
380.485	4.23
380.932	4.26
381.379	4.3
381.826	4.35
382.273	4.39
382.72	4.44
383.166	4.48
383.613	4.52
384.06	4.56
384.506	4.6
384.953	4.64
385.4	4.68
385.846	4.72
386.292	4.77
386.739	4.81
387.185	4.88
387.631	4.92
388.078	4.98
388.524	5.02
388.97	5.07
389.416	5.11
389.862	5.17
390.308	5.22
390.754	5.28
391.2	5.34
391.645	5.41
392.091	5.45
392.537	5.5
392.983	5.57
393.428	5.63
393.874	5.71
394.319	5.77
394.765	5.82
395.21	5.86
395.655	5.92
396.101	5.96
396.546	6
396.991	6.05
397.436	6.08
397.881	6.12
398.326	6.18
398.771	6.22
399.216	6.28
399.661	6.33
400.106	6.4
400.551	6.44
400.995	6.46
401.44	6.47
401.885	6.5
402.329	6.53
402.774	6.55
403.218	6.57
403.663	6.59
404.107	6.61
404.551	6.64
404.995	6.65
405.44	6.67
405.884	6.7
406.328	6.74
406.772	6.77
407.216	6.81
407.66	6.85
408.104	6.87
408.547	6.89
408.991	6.89
409.435	6.89
409.879	6.91
410.322	6.94
410.766	6.96
411.209	6.98
411.653	6.99
412.096	7
412.54	6.99
412.983	7
413.426	7.03
413.869	7.05
414.312	7.1
414.756	7.15
415.199	7.17
415.642	7.18
416.085	7.2
416.527	7.24
416.97	7.27
417.413	7.29
417.856	7.3
418.298	7.3
418.741	7.33
419.184	7.32
419.626	7.3
420.069	7.3
420.511	7.32
420.953	7.3
421.396	7.29
421.838	7.29
422.28	7.31
422.722	7.33
423.164	7.34
423.606	7.34
424.048	7.34
424.49	7.37
424.932	7.37
425.374	7.38
425.816	7.38
426.258	7.36
426.699	7.34
427.141	7.29
427.582	7.27
428.024	7.25
428.465	7.26
428.907	7.28
429.348	7.26
429.789	7.24
430.231	7.22
430.672	7.22
431.113	7.24
431.554	7.27
431.995	7.31
432.436	7.31
432.877	7.29
433.318	7.27
433.759	7.26
434.2	7.28
434.64	7.28
435.081	7.29
435.522	7.3
435.962	7.33
436.403	7.34
436.843	7.36
437.284	7.4
437.724	7.45
438.164	7.48
438.604	7.51
439.045	7.52
439.485	7.55
439.925	7.58
440.365	7.6
440.805	7.6
441.245	7.59
441.685	7.62
442.125	7.64
442.564	7.66
443.004	7.69
443.444	7.71
443.883	7.74
444.323	7.77
444.762	7.82
445.202	7.87
445.641	7.91
446.081	7.98
446.52	7.99
446.959	8.03
447.398	8.11
447.837	8.18
448.276	8.22
448.716	8.25
449.154	8.31
449.593	8.35
450.032	8.38
450.471	8.39
450.91	8.41
451.349	8.46
451.787	8.49
452.226	8.46
452.664	8.44
453.103	8.45
453.541	8.45
453.98	8.43
454.418	8.42
454.856	8.41
455.295	8.4
455.733	8.4
456.171	8.38
456.609	8.37
457.047	8.37
457.485	8.38
457.923	8.37
458.361	8.37
458.798	8.38
459.236	8.37
459.674	8.36
460.111	8.36
460.549	8.34
460.987	8.34
461.424	8.33
461.862	8.34
462.299	8.32
462.736	8.31
463.173	8.31
463.611	8.3
464.048	8.3
464.485	8.29
464.922	8.3
465.359	8.32
465.796	8.3
466.233	8.31
466.67	8.31
467.106	8.31
467.543	8.34
467.98	8.35
468.416	8.36
468.853	8.38
469.29	8.42
469.726	8.43
470.162	8.42
470.599	8.46
471.035	8.46
471.471	8.46
471.907	8.47
472.344	8.47
472.78	8.49
473.216	8.51
473.652	8.52
474.088	8.53
474.523	8.53
474.959	8.53
475.395	8.54
475.831	8.56
476.266	8.57
476.702	8.57
477.138	8.57
477.573	8.55
478.008	8.55
478.444	8.55
478.879	8.54
479.314	8.54
479.75	8.55
480.185	8.54
480.62	8.53
481.055	8.53
481.49	8.53
481.925	8.52
482.36	8.52
482.795	8.51
483.229	8.52
483.664	8.52
484.099	8.52
484.534	8.53
484.968	8.56
485.403	8.56
485.837	8.57
486.271	8.58
486.706	8.61
487.14	8.65
487.574	8.68
488.009	8.71
488.443	8.75
488.877	8.78
489.311	8.8
489.745	8.84
490.179	8.89
490.613	8.95
491.046	9.01
491.48	9.07
491.914	9.12
492.348	9.18
492.781	9.24
493.215	9.3
493.648	9.38
494.082	9.46
494.515	9.54
494.948	9.62
495.382	9.71
495.815	9.8
496.248	9.92
496.681	10.02
497.114	10.12
497.547	10.25
497.98	10.37
498.413	10.49
498.846	10.62
499.279	10.76
499.711	10.9
500.144	11.05
500.577	11.2
501.009	11.35
501.442	11.51
501.874	11.7
502.306	11.87
502.739	12.04
503.171	12.24
503.603	12.45
504.036	12.67
504.468	12.89
504.9	13.13
505.332	13.36
505.764	13.6
506.196	13.86
506.627	14.11
507.059	14.38
507.491	14.67
507.923	14.95
508.354	15.24
508.786	15.52
509.217	15.82
509.649	16.12
510.08	16.44
510.512	16.74
510.943	17.06
511.374	17.38
511.805	17.71
512.237	18.06
512.668	18.39
513.099	18.74
513.53	19.1
513.961	19.45
514.391	19.79
514.822	20.16
515.253	20.52
515.684	20.88
516.114	21.25
516.545	21.6
516.975	21.96
517.406	22.33
517.836	22.67
518.267	23.02
518.697	23.39
519.127	23.74
519.558	24.06
519.988	24.42
520.418	24.74
520.848	25.08
521.278	25.42
521.708	25.68
522.138	26
522.567	26.29
522.997	26.57
523.427	26.86
523.857	27.13
524.286	27.41
524.716	27.67
525.145	27.94
525.575	28.16
526.004	28.4
526.433	28.68
526.863	28.91
527.292	29.15
527.721	29.37
528.15	29.57
528.579	29.8
529.008	29.98
529.437	30.16
529.866	30.32
530.295	30.5
530.724	30.67
531.152	30.82
531.581	30.95
532.01	31.08
532.438	31.21
532.867	31.33
533.295	31.43
533.723	31.55
534.152	31.64
534.58	31.75
535.008	31.82
535.436	31.91
535.865	31.97
536.293	32.05
536.721	32.11
537.149	32.17
537.576	32.23
538.004	32.28
538.432	32.32
538.86	32.38
539.287	32.42
539.715	32.47
540.143	32.51
540.57	32.56
540.998	32.61
541.425	32.67
541.852	32.72
542.28	32.73
542.707	32.79
543.134	32.84
543.561	32.85
543.988	32.88
544.415	32.92
544.842	32.95
545.269	32.99
545.696	33
546.123	33.01
546.549	33.07
546.976	33.11
547.403	33.11
547.829	33.15
548.256	33.19
548.682	33.2
549.108	33.23
549.535	33.25
549.961	33.25
550.387	33.26
550.813	33.25
551.24	33.24
551.666	33.26
552.092	33.27
552.518	33.26
552.943	33.25
553.369	33.26
553.795	33.24
554.221	33.21
554.646	33.17
555.072	33.15
555.498	33.1
555.923	33.05
556.349	32.98
556.774	32.93
557.199	32.88
557.625	32.83
558.05	32.75
558.475	32.69
558.9	32.62
559.325	32.56
559.75	32.48
560.175	32.41
560.6	32.32
561.025	32.25
561.449	32.14
561.874	32.02
562.299	31.91
562.723	31.8
563.148	31.67
563.572	31.56
563.997	31.43
564.421	31.3
564.846	31.17
565.27	31.03
565.694	30.86
566.118	30.7
566.542	30.54
566.966	30.38
567.39	30.2
567.814	30.04
568.238	29.84
568.662	29.67
569.086	29.48
569.509	29.29
569.933	29.11
570.357	28.93
570.78	28.74
571.204	28.55
571.627	28.37
572.05	28.22
572.474	28.04
572.897	27.9
573.32	27.72
573.743	27.56
574.166	27.4
574.589	27.24
575.012	27.11
575.435	26.96
575.858	26.84
576.281	26.7
576.704	26.58
577.126	26.44
577.549	26.32
577.972	26.22
578.394	26.13
578.817	26.03
579.239	25.95
579.661	25.84
580.084	25.77
580.506	25.69
580.928	25.59
581.35	25.51
581.772	25.45
582.194	25.37
582.616	25.29
583.038	25.2
583.46	25.12
583.882	25.05
584.303	24.97
584.725	24.87
585.147	24.77
585.568	24.69
585.99	24.62
586.411	24.53
586.833	24.44
587.254	24.36
587.675	24.29
588.096	24.24
588.518	24.18
588.939	24.12
589.36	24.06
589.781	24.03
590.202	23.99
590.623	23.94
591.043	23.89
591.464	23.85
591.885	23.82
592.305	23.76
592.726	23.7
593.147	23.67
593.567	23.62
593.987	23.6
594.408	23.56
594.828	23.53
595.248	23.49
595.669	23.48
596.089	23.43
596.509	23.39
596.929	23.35
597.349	23.3
597.769	23.23
598.189	23.21
598.608	23.15
599.028	23.1
599.448	23.06
599.867	23
600.287	22.92
600.706	22.87
601.126	22.81
601.545	22.76
601.965	22.7
602.384	22.63
602.803	22.55
603.222	22.48
603.641	22.41
604.061	22.33
604.48	22.24
604.898	22.16
605.317	22.06
605.736	21.98
606.155	21.89
606.574	21.8
606.992	21.7
607.411	21.62
607.829	21.49
608.248	21.4
608.666	21.29
609.085	21.19
609.503	21.1
609.921	21.01
610.339	20.91
610.758	20.82
611.176	20.73
611.594	20.64
612.012	20.54
612.43	20.48
612.847	20.39
613.265	20.32
613.683	20.23
614.101	20.12
614.518	20.03
614.936	19.95
615.353	19.86
615.771	19.77
616.188	19.69
616.606	19.6
617.023	19.52
617.44	19.44
617.857	19.35
618.274	19.28
618.691	19.23
619.108	19.16
619.525	19.11
619.942	19.06
620.359	19.02
620.776	18.98
621.192	18.95
621.609	18.91
622.026	18.89
622.442	18.86
622.859	18.83
623.275	18.81
623.691	18.79
624.108	18.77
624.524	18.75
624.94	18.72
625.356	18.7
625.772	18.68
626.188	18.66
626.604	18.63
627.02	18.62
627.436	18.61
627.852	18.59
628.268	18.57
628.683	18.54
629.099	18.52
629.514	18.51
629.93	18.46
630.345	18.42
630.761	18.39
631.176	18.36
631.591	18.32
632.007	18.26
632.422	18.21
632.837	18.15
633.252	18.07
633.667	17.97
634.082	17.88
634.497	17.79
634.911	17.68
635.326	17.55
635.741	17.44
636.155	17.3
636.57	17.17
636.984	17
637.399	16.83
637.813	16.67
638.228	16.54
638.642	16.38
639.056	16.21
639.47	16.05
639.884	15.89
640.298	15.71
640.712	15.54
641.126	15.36
641.54	15.21
641.954	15.05
642.368	14.88
642.781	14.68
643.195	14.5
643.609	14.33
644.022	14.16
644.436	14
644.849	13.86
645.262	13.72
645.676	13.58
646.089	13.45
646.502	13.32
646.915	13.22
647.328	13.13
647.741	13.03
648.154	12.96
648.567	12.89
648.98	12.82
649.393	12.73
649.805	12.66
650.218	12.59
650.631	12.53
651.043	12.48
651.456	12.42
651.868	12.35
652.28	12.28
652.693	12.2
653.105	12.13
653.517	12.05
653.929	12
654.341	11.92
654.753	11.84
655.165	11.74
655.577	11.63
655.989	11.49
656.401	11.38
656.813	11.26
657.224	11.15
657.636	11.04
658.047	10.91
658.459	10.77
658.87	10.62
659.282	10.5
659.693	10.38
660.104	10.25
660.515	10.14
660.926	10.03
661.338	9.91
661.749	9.78
662.159	9.65
662.57	9.53
662.981	9.42
663.392	9.32
663.803	9.21
664.213	9.1
664.624	9.03
665.035	8.94
665.445	8.85
665.855	8.78
666.266	8.71
666.676	8.64
667.086	8.58
667.497	8.52
667.907	8.45
668.317	8.42
668.727	8.38
669.137	8.33
669.547	8.31
669.956	8.28
670.366	8.24
670.776	8.22
671.186	8.22
671.595	8.21
672.005	8.22
672.414	8.23
672.824	8.22
673.233	8.24
673.642	8.23
674.052	8.23
674.461	8.25
674.87	8.28
675.279	8.3
675.688	8.32
676.097	8.35
676.506	8.38
676.915	8.41
677.323	8.46
677.732	8.52
678.141	8.57
678.549	8.65
678.958	8.74
679.366	8.82
679.775	8.93
680.183	9.05
680.592	9.19
681	9.33
681.408	9.49
681.816	9.66
682.224	9.86
682.632	10.09
683.04	10.33
683.448	10.6
683.856	10.9
684.264	11.21
684.671	11.56
685.079	11.92
685.487	12.33
685.894	12.76
686.302	13.22
686.709	13.69
687.116	14.19
687.524	14.72
687.931	15.25
688.338	15.86
688.745	16.49
689.152	17.11
689.559	17.77
689.966	18.43
690.373	19.13
690.78	19.83
691.187	20.53
691.593	21.25
692	21.98
692.407	22.73
692.813	23.45
693.22	24.16
693.626	24.89
694.032	25.63
694.439	26.36
694.845	27.05
695.251	27.74
695.657	28.43
696.063	29.12
696.469	29.8
696.875	30.43
697.281	31.05
697.687	31.71
698.093	32.31
698.498	32.9
698.904	33.48
699.31	34.03
699.715	34.62
700.12	35.16
700.526	35.7
700.931	36.22
701.337	36.75
701.742	37.26
702.147	37.73
702.552	38.2
702.957	38.68
703.362	39.14
703.767	39.59
704.172	40.04
704.577	40.48
704.981	40.89
705.386	41.28
705.791	41.69
706.195	42.06
706.6	42.43
707.004	42.8
707.408	43.15
707.813	43.5
708.217	43.83
708.621	44.17
709.025	44.49
709.43	44.8
709.834	45.13
710.237	45.41
710.641	45.74
711.045	46.04
711.449	46.33
711.853	46.61
712.256	46.89
712.66	47.18
713.064	47.44
713.467	47.71
713.87	47.98
714.274	48.26
714.677	48.54
715.08	48.76
715.484	49.02
715.887	49.26
716.29	49.48
716.693	49.69
717.096	49.94
717.499	50.17
717.901	50.38
718.304	50.57
718.707	50.73
719.109	50.94
719.512	51.14
719.915	51.32
720.317	51.49
720.719	51.68
721.122	51.83
721.524	52
721.926	52.15
722.328	52.29
722.731	52.46
723.133	52.61
723.535	52.75
723.937	52.87
724.338	53.02
724.74	53.14
725.142	53.16
725.544	53.3
725.945	53.38
726.347	53.51
726.748	53.6
727.15	53.7
727.551	53.8
727.952	53.88
728.354	54
728.755	54.08
729.156	54.21
729.557	54.4
729.958	54.47
730.359	54.56
730.76	54.6
731.161	54.68
731.562	54.76
731.962	54.83
732.363	54.88
732.763	54.93
733.164	54.99
733.564	55
733.965	55.04
734.365	55.08
734.766	55.16
735.166	55.2
735.566	55.25
735.966	55.27
736.366	55.28
736.766	55.34
737.166	55.37
737.566	55.36
737.966	55.4
738.365	55.46
738.765	55.49
739.165	55.48
739.564	55.5
739.964	55.54
740.363	55.58
740.763	55.62
741.162	55.62
741.561	55.64
741.96	55.69
742.36	55.73
742.759	55.69
743.158	55.67
743.557	55.72
743.955	55.79
744.354	55.85
744.753	55.88
745.152	55.89
745.55	55.9
745.949	55.95
746.348	55.99
746.746	56.04
747.144	56.14
747.543	56.22
747.941	56.27
748.339	56.3
748.737	56.32
749.136	56.33
749.534	56.39
749.932	56.44
750.33	56.46
750.727	56.46
751.125	56.44
751.523	56.41
751.921	56.4
752.318	56.39
752.716	56.35
753.113	56.35
753.511	56.32
753.908	56.3
754.305	56.25
754.703	56.2
755.1	56.17
755.497	56.17
755.894	56.17
756.291	56.16
756.688	56.12
757.085	56.13
757.482	56.08
757.878	56.11
758.275	56.1
758.672	56.12
759.068	56.12
759.465	56.13
759.861	56.13
760.258	56.11
760.654	56.08
761.05	56.09
761.447	56.06
761.843	56.03
762.239	55.98
762.635	55.96
763.031	55.93
763.427	55.92
763.822	55.89
764.218	55.87
764.614	55.84
765.01	55.82
765.405	55.8
765.801	55.79
766.196	55.83
766.592	55.82
766.987	55.83
767.382	55.88
767.778	55.9
768.173	55.9
768.568	55.89
768.963	55.89
769.358	55.89
769.753	55.89
770.148	55.89
770.542	55.8
770.937	55.78
771.332	55.74
771.726	55.68
772.121	55.63
772.515	55.64
772.91	55.64
773.304	55.67
773.699	55.66
774.093	55.64
774.487	55.67
774.881	55.72
775.275	55.73
775.669	55.77
776.063	55.78
776.457	55.78
776.851	55.75
777.245	55.77
777.638	55.78
778.032	55.79
778.425	55.82
778.819	55.81
779.212	55.78
779.606	55.79
779.999	55.79
780.392	55.78
780.786	55.8
781.179	55.8
781.572	55.77
781.965	55.73
782.358	55.71
782.751	55.7
783.143	55.69
783.536	55.76
783.929	55.8
784.322	55.79
784.714	55.8
785.107	55.84
785.499	55.87
785.891	55.89
786.284	55.89
786.676	55.95
787.068	55.94
787.46	55.95
787.852	55.92
788.245	55.93
788.636	55.93
789.028	55.93
789.42	55.9
789.812	55.91
790.204	55.88
790.595	55.92
790.987	55.88
791.378	55.92
791.77	55.94
792.161	55.93
792.553	55.89
792.944	55.91
793.335	55.94
793.726	55.91
794.117	55.89
794.508	55.9
794.899	55.93
795.29	55.95
795.681	55.95
796.072	55.94
796.463	55.94
796.853	55.95
797.244	55.96
797.634	55.91
798.025	55.93
798.415	55.99
798.806	56
799.196	56.03
799.586	56.05
799.976	56.03
800.366	56.05
800.756	56.09
801.146	56.1
801.536	56.06
801.926	56.11
802.316	56.14
802.706	56.17
803.095	56.18
803.485	56.19
803.874	56.22
804.264	56.25
804.653	56.24
805.043	56.25
805.432	56.23
805.821	56.26
806.21	56.27
806.599	56.3
806.988	56.26
807.377	56.28
807.766	56.28
808.155	56.3
808.544	56.3
808.933	56.34
809.321	56.37
809.71	56.44
810.098	56.47
810.487	56.46
810.875	56.45
811.264	56.48
811.652	56.5
812.04	56.51
812.428	56.53
812.816	56.56
813.204	56.54
813.592	56.53
813.98	56.53
814.368	56.56
814.756	56.62
815.144	56.66
815.531	56.66
815.919	56.66
816.306	56.65
816.694	56.61
817.081	56.59
817.469	56.61
817.856	56.64
818.243	56.66
818.63	56.7
819.017	56.7
819.404	56.67
819.791	56.68
820.178	56.68
820.565	56.67
820.952	56.69
821.339	56.72
821.725	56.75
822.112	56.78
822.498	56.76
822.885	56.74
823.271	56.74
823.657	56.76
824.044	56.76
824.43	56.79
824.816	56.84
825.202	56.85
825.588	56.86
825.974	56.84
826.36	56.82
826.746	56.87
827.132	56.86
827.517	56.85
827.903	56.84
828.289	56.85
828.674	56.81
829.06	56.81
829.445	56.84
829.83	56.85
830.216	56.86
830.601	56.85
830.986	56.81
831.371	56.85
831.756	56.8
832.141	56.81
832.526	56.8
832.911	56.83
833.295	56.82
833.68	56.79
834.065	56.77
834.449	56.7
834.834	56.68
835.218	56.69
835.603	56.65
835.987	56.67
836.371	56.67
836.755	56.67
837.139	56.66
837.524	56.64
837.908	56.62
838.291	56.6
838.675	56.67
839.059	56.66
839.443	56.67
839.827	56.67
840.21	56.7
840.594	56.71
840.977	56.71
841.361	56.68
841.744	56.7
842.127	56.68
842.511	56.71
842.894	56.7
843.277	56.71
843.66	56.69
844.043	56.71
844.426	56.7
844.809	56.68
845.191	56.66
845.574	56.66
845.957	56.61
846.339	56.63
846.722	56.62
847.104	56.6
847.487	56.6
847.869	56.6
848.252	56.56
848.634	56.56
849.016	56.57
849.398	56.56
849.78	56.57
850.162	56.59
850.544	56.63
850.926	56.62
851.307	56.65
851.689	56.6
852.071	56.59
852.452	56.61
852.834	56.59
853.215	56.58
853.597	56.6
853.978	56.58
854.359	56.56
854.741	56.53
855.122	56.54
855.503	56.53
855.884	56.56
856.265	56.55
856.646	56.54
857.026	56.56
857.407	56.55
857.788	56.56
858.169	56.57
858.549	56.61
858.93	56.61
859.31	56.63
859.69	56.61
860.071	56.61
860.451	56.62
860.831	56.63
861.211	56.62
861.591	56.65
861.971	56.61
862.351	56.62
862.731	56.62
863.111	56.59
863.491	56.59
863.87	56.61
864.25	56.63
864.629	56.64
865.009	56.63
865.388	56.63
865.768	56.62
866.147	56.65
866.526	56.62
866.905	56.6
867.284	56.63
867.663	56.6
868.042	56.57
868.421	56.55
868.8	56.57
869.179	56.58
869.558	56.58
869.936	56.56
870.315	56.56
870.693	56.58
871.072	56.57
871.45	56.54
871.828	56.55
872.207	56.55
872.585	56.58
872.963	56.55
873.341	56.53
873.719	56.54
874.097	56.54
874.475	56.5
874.853	56.51
875.23	56.51
875.608	56.54
875.986	56.51
876.363	56.52
876.741	56.53
877.118	56.53
877.495	56.51
877.873	56.47
878.25	56.47
878.627	56.5
879.004	56.53
879.381	56.57
879.758	56.56
880.135	56.6
880.512	56.59
880.889	56.58
881.265	56.58
881.642	56.6
882.019	56.65
882.395	56.66
882.772	56.68
883.148	56.7
883.524	56.69
883.901	56.69
884.277	56.67
884.653	56.68
885.029	56.68
885.405	56.67
885.781	56.67
886.157	56.68
886.532	56.68
886.908	56.64
887.284	56.61
887.659	56.62
888.035	56.59
888.411	56.59
888.786	56.56
889.161	56.54
889.537	56.56
889.912	56.53
890.287	56.47
890.662	56.43
891.037	56.41
891.412	56.37
891.787	56.3
892.162	56.28
892.536	56.26
892.911	56.23
893.286	56.19
893.66	56.16
894.035	56.14
894.409	56.12
894.784	56.12
895.158	56.1
895.532	56.07
895.906	56.09
896.281	56.06
896.655	56.03
897.029	56.03
897.402	56.03
897.776	56.04
898.15	56.01
898.524	56.01
898.898	55.98
899.271	55.98
899.645	55.99
900.018	55.94
900.392	55.97
900.765	55.98
901.138	55.98
901.511	55.94
901.884	55.93
902.258	55.94
902.631	55.94
903.003	55.96
903.376	55.96
903.749	55.97
904.122	55.99
904.495	55.97
904.867	55.98
905.24	55.97
905.612	56
905.985	55.99
906.357	55.93
906.729	55.95
907.102	55.93
907.474	55.93
907.846	55.89
908.218	55.88
908.59	55.87
908.962	55.83
909.334	55.86
909.705	55.82
910.077	55.8
910.449	55.86
910.82	55.85
911.192	55.85
911.563	55.84
911.935	55.85
912.306	55.83
912.677	55.81
913.048	55.8
913.419	55.77
913.79	55.79
914.161	55.81
914.532	55.78
914.903	55.73
915.274	55.72
915.645	55.74
916.015	55.73
916.386	55.75
916.756	55.75
917.127	55.74
917.497	55.76
917.868	55.74
918.238	55.75
918.608	55.76
918.978	55.75
919.348	55.72
919.718	55.69
920.088	55.7
920.458	55.71
920.828	55.76
921.198	55.78
921.567	55.77
921.937	55.78
922.306	55.77
922.676	55.77
923.045	55.76
923.415	55.74
923.784	55.75
924.153	55.71
924.522	55.67
924.891	55.63
925.26	55.55
925.629	55.54
925.998	55.51
926.367	55.47
926.736	55.45
927.104	55.47
927.473	55.48
927.842	55.43
928.21	55.47
928.578	55.46
928.947	55.43
929.315	55.46
929.683	55.49
930.051	55.47
930.42	55.46
930.788	55.44
931.156	55.38
931.523	55.33
931.891	55.25
932.259	55.14
932.627	55.07
932.994	55.03
933.362	54.92
933.729	54.79
934.097	54.74
934.464	54.63
934.831	54.52
935.199	54.42
935.566	54.33
935.933	54.34
936.3	54.26
936.667	54.18
937.034	54.08
937.401	54.04
937.767	54
938.134	53.95
938.501	53.97
938.867	54.05
939.234	54.16
939.6	54.27
939.967	54.33
940.333	54.43
940.699	54.56
941.065	54.73
941.431	54.87
941.798	54.97
942.163	55.07
942.529	55.11
942.895	55.14
943.261	55.21
943.627	55.22
943.992	55.25
944.358	55.31
944.723	55.4
945.089	55.41
945.454	55.47
945.82	55.45
946.185	55.51
946.55	55.65
946.915	55.75
947.28	55.68
947.645	55.65
948.01	55.69
948.375	55.71
948.74	55.6
949.104	55.59
949.469	55.48
949.834	55.41
950.198	55.28
950.562	55.1
950.927	55.09
951.291	55.1
951.655	55.16
952.02	55.12
952.384	55.02
952.748	55
953.112	54.97
953.476	54.97
953.839	54.96
954.203	54.91
954.567	54.95
954.931	54.88
955.294	54.82
955.658	54.69
956.021	54.59
956.385	54.65
956.748	54.64
957.111	54.58
957.474	54.59
957.837	54.57
958.2	54.54
958.563	54.53
958.926	54.49
959.289	54.47
959.652	54.44
960.015	54.42
960.377	54.39
960.74	54.35
961.102	54.27
961.465	54.22
961.827	54.09
962.189	54.06
962.552	53.92
962.914	53.85
963.276	53.86
963.638	53.82
964	53.82
964.362	53.74
964.724	53.74
965.085	53.73
965.447	53.64
965.809	53.63
966.17	53.67
966.532	53.71
966.893	53.69
967.255	53.61
967.616	53.59
967.977	53.6
968.338	53.59
968.699	53.51
969.061	53.53
969.421	53.56
969.782	53.61
970.143	53.55
970.504	53.51
970.865	53.48
971.225	53.49
971.586	53.53
971.946	53.47
972.307	53.45
972.667	53.52
973.027	53.5
973.388	53.51
973.748	53.48
974.108	53.44
974.468	53.43
974.828	53.48
975.188	53.49
975.548	53.47
975.907	53.48
976.267	53.5
976.627	53.5
976.986	53.5
977.346	53.47
977.705	53.5
978.064	53.59
978.424	53.59
978.783	53.54
979.142	53.52
979.501	53.53
979.86	53.48
980.219	53.37
980.578	53.37
980.937	53.42
981.296	53.44
981.654	53.46
982.013	53.46
982.371	53.44
982.73	53.46
983.088	53.36
983.447	53.41
983.805	53.42
984.163	53.59
984.521	53.46
984.879	53.46
985.237	53.43
985.595	53.41
985.953	53.39
986.311	53.52
986.669	53.57
987.026	53.64
987.384	53.52
987.741	53.6
988.099	53.49
988.456	53.49
988.814	53.44
989.171	53.45
989.528	53.41
989.885	53.35
990.242	53.18
990.599	53.06
990.956	53.11
991.313	53.2
991.67	53.19
992.027	53.15
992.383	53.16
992.74	53.12
993.096	53.09
993.453	53.08
993.809	53.1
994.165	53.25
994.522	53.36
994.878	53.31
995.234	53.26
995.59	53.08
995.946	53.18
996.302	53.15
996.658	53.15
997.013	53.27
997.369	53.29
997.725	53.31
998.08	53.23
998.436	53.22
998.791	53.15
999.147	53.11
999.502	53.33
999.857	53.32
1000.212	53.32
1000.567	53.42
1000.922	53.32
1001.277	53.33
1001.632	53.39
1001.987	53.43
1002.342	53.41
1002.696	53.48
1003.051	53.31
1003.406	53.23
1003.76	53.24
1004.114	53.26
1004.469	53.14
1004.823	53.26
1005.177	53.35
1005.531	53.3
1005.885	53.31
1006.239	53.28
1006.593	53.18
1006.947	53.34
1007.301	53.38
1007.655	53.27
1008.008	53.16
1008.362	53.31
1008.715	53.08
1009.069	53
1009.422	52.74
1009.776	52.71
1010.129	52.51
1010.482	52.77
1010.835	52.95
1011.188	52.89
1011.541	52.68
1011.894	52.89
1012.247	52.77
1012.6	52.81
1012.952	52.86
1013.305	52.95
1013.657	52.98
1014.01	53.31
1014.362	53.37
1014.715	53.2
1015.067	53.37
1015.419	53.68
1015.771	53.7
1016.123	53.69
1016.475	53.94
1016.827	53.94
1017.179	54.15
1017.531	53.92
1017.883	54
1018.234	53.69
1018.586	53.69
1018.938	53.35
1019.289	53.19
1019.64	53.46
1019.992	53.75
1020.343	53.55
1020.694	53.25
1021.045	53.32
1021.396	53.61
1021.747	53.46
1022.098	53.46
1022.449	53.43
1022.8	53.61
1023.151	53.64
1023.501	53.47
1023.852	53.4
1024.202	53.57
1024.553	53.78
1024.903	53.5
1025.253	53.81
1025.604	54
1025.954	53.77
1026.304	54.19
1026.654	54.62
1027.004	55.18
1027.354	55.09
1027.703	54.77
1028.053	54.54
1028.403	54.4
1028.753	54.6
1029.102	53.96
1029.452	53.55
1029.801	53.84
1030.15	53.5
1030.499	53.06
897.758	239.19
901.051	237.15
904.343	244.53
907.636	236.17
910.928	234.69
914.22	238.5
917.511	227.76
920.803	222.19
924.094	214.57
927.384	214.16
930.675	207.81
933.965	204.02
937.255	208.16
940.544	196.8
943.834	192
947.123	188.05
950.411	181.14
953.7	180.61
956.988	176.39
960.276	169.23
963.563	170.42
966.851	163.29
970.138	160.57
973.424	150.17
976.711	151.26
979.997	147.18
983.283	144.44
986.568	139.71
989.853	138.11
993.138	134.23
996.423	135.6
999.708	130.47
1002.992	130.73
1006.275	129.57
1009.559	129.22
1012.842	125.95
1016.125	122.64
1019.408	120.26
1022.69	121.44
1025.972	118.21
1029.254	116.91
1032.536	113.99
1035.817	111.24
1039.098	111.18
1042.379	109.48
1045.659	109.1
1048.939	105.52
1052.219	106.62
1055.498	105.84
1058.778	103.1
1062.057	103.08
1065.335	103.22
1068.614	102.45
1071.892	102.5
1075.17	101.33
1078.447	100.01
1081.724	99.19
1085.001	98.11
1088.278	97.3
1091.554	97.36
1094.83	97.14
1098.106	96.72
1101.382	95.89
1104.657	95.34
1107.932	94.64
1111.206	94.26
1114.481	94.51
1117.755	92.07
1121.029	93.23
1124.302	92.32
1127.575	92.57
1130.848	91.31
1134.121	90.28
1137.393	89.96
1140.665	89.4
1143.937	88.48
1147.208	87
1150.48	85.78
1153.75	86.26
1157.021	85.36
1160.291	84.97
1163.561	83.02
1166.831	84.18
1170.101	83.78
1173.37	82.33
1176.639	81.52
1179.907	82.41
1183.176	81.3
1186.444	80.69
1189.711	80.75
1192.979	80.2
1196.246	80.57
1199.513	80.46
1202.78	79.83
1206.046	79.56
1209.312	81.17
1212.578	81.55
1215.843	81.61
1219.108	82.69
1222.373	84.35
1225.638	85.15
1228.902	87.45
1232.166	88.28
1235.43	89.87
1238.693	90.54
1241.956	92.91
1245.219	94.69
1248.482	95.22
1251.744	94.8
1255.006	95.04
1258.268	93.25
1261.529	92.92
1264.79	91.35
1268.051	90.67
1271.312	88.99
1274.572	88.86
1277.832	87.02
1281.092	85.93
1284.351	85
1287.61	84.49
1290.869	85.18
1294.128	84.9
1297.386	84.6
1300.644	84.36
1303.902	82.82
1307.159	82.99
1310.416	82.78
1313.673	83.98
1316.93	83.32
1320.186	84.84
1323.442	84.88
1326.697	84.14
1329.953	84.17
1333.208	85.49
1336.463	87.15
1339.717	89.26
1342.972	91.83
1346.226	93.22
1349.479	92.54
1352.733	96.1
1355.986	94.5
1359.238	96.78
1362.491	96.84
1365.743	99.25
1368.995	100.47
1372.247	97.4
1375.498	95.96
1378.749	96.37
1382	95.45
1385.251	94.33
1388.501	94.48
1391.751	95.41
1395	93.38
1398.25	94.08
1401.499	93.2
1404.748	90.56
1407.996	90.68
1411.244	91.27
1414.492	89.66
1417.74	85.85
1420.987	85.29
1424.234	81.91
1427.481	78.73
1430.728	77.13
1433.974	75.1
1437.22	73.25
1440.465	69.29
1443.711	67.28
1446.956	65.79
1450.201	62.57
1453.445	60.47
1456.689	58.73
1459.933	57.25
1463.177	55.06
1466.42	54.24
1469.663	52.47
1472.906	50.34
1476.148	49.76
1479.391	49.49
1482.633	48.3
1485.874	48.82
1489.115	48.72
1492.356	47.73
1495.597	47.3
1498.838	48.25
1502.078	48.25
1505.318	48.44
1508.557	48.25
1511.797	49.16
1515.036	49.01
1518.274	49.59
1521.513	49.5
1524.751	49.39
1527.989	50.22
1531.227	50.49
1534.464	50.82
1537.701	50.85
1540.938	50.54
1544.174	51.27
1547.41	51.58
1550.646	51.67
1553.882	51.54
1557.117	52.32
1560.352	52.63
1563.587	52.32
1566.821	52.49
1570.055	52.68
1573.289	53
1576.523	53.55
1579.756	53.63
1582.989	53.97
1586.222	54.27
1589.454	54.49
1592.686	54.28
1595.918	54.15
1599.15	54.6
1602.381	54.7
1605.612	54.67
1608.843	54.46
1612.073	55.17
1615.303	55.48
1618.533	55.21
1621.762	54.96
1624.992	55.17
1628.221	55.16
1631.449	55.71
1634.678	56.27
1637.906	56.09
1641.134	56.07
1644.361	56.52
1647.588	55.89
1650.815	55.92
1654.042	56.33
1657.269	56.77
1660.495	57.1
1663.72	56.91
1666.946	56.6
1670.171	56.68
1673.396	57.22
1676.621	57.45
1679.845	57.69
1683.069	57.69
1686.293	57.42
1689.517	57.53
1692.74	57.53
1695.963	57.2
1699.185	57.36
1702.408	57.08
1705.63	56.77
1708.852	57.07
1712.073	56.67
1715.294	56.21
1718.515	56.98
1721.736	56.95
1724.956	56.52
1728.176	56.39
1731.396	56.48
1734.616	56.83
1737.835	57.27
1741.054	56.85
1744.272	56.33
1747.491	56.1
1750.709	56.64
1753.927	55.81
1757.144	56.04
1760.361	55.97
1763.578	55.6
1766.795	55.88
1770.011	55.81
1773.227	55.54
1776.443	56.26
1779.658	56.14
1782.874	56.61
1786.089	55.59
1789.303	55.77
1792.518	56.32
1795.732	56.18
1798.945	57.44
1802.159	57.12
1805.372	57
1808.585	57.65
1811.797	56.74
1815.01	57.88
1818.222	58.14
1821.434	58.81
1824.645	58.75
1827.856	58.25
1831.067	58.69
1834.278	58.55
1837.488	58.89
1840.698	59.02
1843.908	58.92
1847.117	59.94
1850.326	58.87
1853.535	59.25
1856.744	58.93
1859.952	59.14
1863.16	58.78
1866.368	58.11
1869.575	58.28
1872.782	56.55
1875.989	55.23
1879.196	54.68
1882.402	53.38
1885.608	53.45
1888.814	51.44
1892.019	51.63
1895.224	50.13
1898.429	49.85
1901.634	49.22
1904.838	47.76
1908.042	48.79
1911.246	49.13
1914.449	49.39
1917.652	48.67
1920.855	47.22
1924.058	48.14
1927.26	46.6
1930.462	47.09
1933.664	47.04
1936.865	47.3
1940.066	46.25
1943.267	46.54
1946.467	46.11
1949.668	46.03
1952.868	45.89
1956.067	46.82
1959.267	47.47
1962.466	47.69
1965.665	48.65
1968.863	48.81
1972.061	50.01
1975.259	51.59
1978.457	51.15
1981.654	51.3
1984.852	51.79
1988.048	53.34
1991.245	54.21
1994.441	54.52
1997.637	55.69
2000.833	57.93
2004.028	57.95
2007.223	56.96
2010.418	58.71
2013.613	61.91
2016.807	64.37
2020.001	65.43
2023.194	68.21
2026.388	71.28
2029.581	74.52
2032.774	76.15
2035.966	76.11
2039.158	79.94
2042.35	82.85
2045.542	83.54
2048.733	87.33
2051.924	86.27
2055.115	87.57
2058.306	87.29
2061.496	86.27
2064.686	86.75
2067.875	88.99
2071.065	90.41
2074.254	89.57
2077.442	91.97
2080.631	92.21
2083.819	91.44
2087.007	96.3
2090.195	98.77
2093.382	98.89
2096.569	100.6
2099.756	101.98
2102.942	102.84
2106.128	104.63
2109.314	107.94
2112.5	109.4
2115.685	106.72
2118.87	106.3
2122.055	107.1
2125.239	107.24
2128.424	109.58
2131.608	108.64
2134.791	109.91
2137.974	110.57
2141.157	112.68
2144.34	110.74
2147.523	114.85
2150.705	120.78
2153.887	121.24
2157.068	121.77
2160.25	123.15
2163.431	124.3
2166.611	126.55
2169.792	123.8
2172.972	128.77
2176.152	127.13
2179.331	130.32
2182.511	129.33
2185.69	130.96
2188.868	130.17
2192.047	137.5
2195.225	140.6
2198.403	137.81
2201.58	136.69
2204.758	145.07
2207.935	141.6
2211.111	145.01
2214.288	145.43
2217.464	145.9
2220.64	146.01
2223.815	148.59
2226.991	141.91
2230.166	143.15
2233.34	149.83
2236.515	151.01
2239.689	149.06
2242.863	151.86
2246.036	149.8
2249.209	153.93
2252.382	151.82
2255.555	157.16
2258.727	161.1
2261.9	164.7
2265.071	166.73
2268.243	165.68
2271.414	172.79
2274.585	175.38
2277.756	175.98
2280.926	183.53
2284.096	184.02
2287.266	187.95
2290.436	187.17
2293.605	189.55
2296.774	197.21
2299.942	195.69
2303.111	200.06
2306.279	206.16
2309.447	204.42
2312.614	204.87
2315.781	205.65
2318.948	210.66
2322.115	215.76
2325.281	222.6
2328.447	217.63
2331.613	220.67
2334.779	225.05
2337.944	227.79
2341.109	226.81
2344.274	231.45
2347.438	238.17
2350.602	244.18
2353.766	255.25
2356.929	254.18
2360.092	260.29
2363.255	265.95
2366.418	267.03
2369.58	265.48
2372.742	276.92
2375.904	278.34
2379.066	285.85
2382.227	293.2
2385.388	286.49
2388.548	276.08
2391.709	272.09
2394.869	272.12
2398.029	277.37
2401.188	276.52
2404.347	288.33
2407.506	286.19
2410.665	279.18
2413.823	284.81
2416.981	287.71
2420.139	287.63
2423.296	304.46
2426.453	325
2429.61	310.3
2432.767	326.3
2435.923	339.82
2439.079	333.54
2442.235	338.8
2445.391	348.14
2448.546	338.09
2451.701	356.28
2454.855	363.71
2458.009	333.85
2461.163	337.2
2464.317	348.88
2467.471	343.37
2470.624	347.78
2473.777	340
2476.929	333.35
2480.082	345.08
2483.234	366.16
2486.385	375.04
2489.537	386.32
2492.688	411.6
2495.839	412.3
2498.989	421.02
2502.14	421.38
2505.29	412.23
2508.439	444.29
2511.589	452.37
2514.738	452.26
2517.887	447.16
2521.035	416.83
2524.183	411.69
2527.331	413.71
2530.479	400.84
2533.627	408.62
