Data from C_2_dec_ct_2n_074_Splice17_18.txt Node
Date: Sat Feb 29 14:22:34 EST 2020
User: sa697716
Spectrometer: FLMS03696
Trigger mode: 0
Integration Time (sec): 3.180400E-1
Scans to average: 20
Electric dark correction enabled: true
Nonlinearity correction enabled: true
Boxcar width: 5
XAxis mode: Wavelengths
Number of Pixels in Spectrum: 2048
>>>>>Begin Spectral Data<<<<<
187.83	8.94
188.298	4.29
188.766	1.24
189.233	-7.34
189.701	7.12
190.169	7.91
190.636	-0.21
191.104	-69.15
191.571	-297.48
192.039	-1.09
192.506	505.41
192.974	9698.58
193.441	-653.04
193.908	46.03
194.375	-33.79
194.842	50.56
195.31	30.64
195.777	25.11
196.244	14.6
196.711	45.2
197.177	47.94
197.644	47.74
198.111	47.83
198.578	48.8
199.045	49.77
199.511	50.32
199.978	50.78
200.445	50.99
200.911	51.17
201.378	51.7
201.844	52.35
202.31	52.86
202.777	53.15
203.243	53.51
203.709	54.05
204.176	53.98
204.642	53.93
205.108	53.7
205.574	54.39
206.04	54.54
206.506	54.18
206.972	53.83
207.438	53.41
207.903	53.47
208.369	53.02
208.835	52.71
209.301	52.66
209.766	52.65
210.232	52.2
210.697	51.13
211.163	50.33
211.628	49.59
212.094	48.84
212.559	47.85
213.024	47.13
213.49	46.42
213.955	45.53
214.42	44.6
214.885	43.4
215.35	42.55
215.815	40.96
216.28	39.65
216.745	38.4
217.21	36.85
217.675	35.43
218.14	33.77
218.604	32.36
219.069	31.11
219.534	30.05
219.998	29.16
220.463	28.34
220.927	27.74
221.392	26.98
221.856	26.33
222.32	25.84
222.785	25.34
223.249	24.92
223.713	24.57
224.177	24.23
224.642	23.88
225.106	23.52
225.57	23.17
226.034	22.81
226.497	22.54
226.961	22.22
227.425	21.86
227.889	21.55
228.353	21.22
228.816	20.91
229.28	20.55
229.744	20.26
230.207	19.95
230.671	19.66
231.134	19.38
231.597	19.08
232.061	18.85
232.524	18.61
232.987	18.37
233.45	18.12
233.914	17.87
234.377	17.67
234.84	17.47
235.303	17.28
235.766	17.05
236.229	16.86
236.691	16.7
237.154	16.5
237.617	16.32
238.08	16.15
238.542	15.98
239.005	15.83
239.468	15.64
239.93	15.48
240.393	15.33
240.855	15.17
241.317	15.03
241.78	14.87
242.242	14.72
242.704	14.58
243.166	14.42
243.629	14.3
244.091	14.16
244.553	14.05
245.015	13.91
245.477	13.77
245.939	13.66
246.4	13.52
246.862	13.42
247.324	13.31
247.786	13.2
248.247	13.09
248.709	12.96
249.17	12.85
249.632	12.73
250.093	12.62
250.555	12.53
251.016	12.44
251.477	12.33
251.939	12.23
252.4	12.13
252.861	12.05
253.322	11.98
253.783	11.93
254.244	11.85
254.705	11.8
255.166	11.74
255.627	11.67
256.088	11.61
256.549	11.56
257.009	11.51
257.47	11.45
257.931	11.37
258.391	11.29
258.852	11.2
259.312	11.15
259.773	11.08
260.233	11
260.694	10.93
261.154	10.87
261.614	10.78
262.074	10.71
262.534	10.63
262.994	10.58
263.455	10.52
263.915	10.46
264.374	10.39
264.834	10.33
265.294	10.26
265.754	10.19
266.214	10.14
266.673	10.09
267.133	10.04
267.593	10
268.052	9.95
268.512	9.91
268.971	9.86
269.431	9.81
269.89	9.78
270.349	9.74
270.809	9.7
271.268	9.66
271.727	9.63
272.186	9.59
272.645	9.54
273.104	9.5
273.563	9.46
274.022	9.42
274.481	9.38
274.94	9.34
275.399	9.3
275.857	9.27
276.316	9.23
276.775	9.18
277.233	9.15
277.692	9.11
278.15	9.08
278.609	9.03
279.067	9
279.525	8.96
279.984	8.92
280.442	8.89
280.9	8.85
281.358	8.81
281.816	8.78
282.274	8.74
282.732	8.73
283.19	8.7
283.648	8.68
284.106	8.64
284.564	8.63
285.021	8.61
285.479	8.59
285.937	8.58
286.394	8.57
286.852	8.55
287.309	8.54
287.767	8.51
288.224	8.49
288.682	8.46
289.139	8.43
289.596	8.39
290.053	8.35
290.511	8.3
290.968	8.26
291.425	8.21
291.882	8.18
292.339	8.13
292.796	8.09
293.252	8.05
293.709	8.02
294.166	7.99
294.623	7.96
295.079	7.93
295.536	7.91
295.992	7.87
296.449	7.85
296.905	7.81
297.362	7.79
297.818	7.77
298.274	7.73
298.731	7.71
299.187	7.68
299.643	7.65
300.099	7.62
300.555	7.6
301.011	7.57
301.467	7.55
301.923	7.53
302.379	7.5
302.835	7.48
303.291	7.46
303.746	7.44
304.202	7.42
304.658	7.4
305.113	7.39
305.569	7.38
306.024	7.36
306.479	7.35
306.935	7.33
307.39	7.32
307.845	7.31
308.301	7.3
308.756	7.29
309.211	7.28
309.666	7.28
310.121	7.25
310.576	7.24
311.031	7.24
311.486	7.23
311.94	7.22
312.395	7.22
312.85	7.21
313.305	7.22
313.759	7.2
314.214	7.2
314.668	7.19
315.123	7.2
315.577	7.2
316.032	7.18
316.486	7.17
316.94	7.16
317.394	7.14
317.849	7.12
318.303	7.1
318.757	7.08
319.211	7.04
319.665	7.03
320.119	7
320.572	6.99
321.026	6.97
321.48	6.95
321.934	6.93
322.387	6.92
322.841	6.9
323.295	6.88
323.748	6.87
324.202	6.86
324.655	6.84
325.108	6.82
325.562	6.79
326.015	6.77
326.468	6.76
326.921	6.74
327.374	6.72
327.827	6.7
328.28	6.69
328.733	6.67
329.186	6.66
329.639	6.63
330.092	6.63
330.545	6.61
330.997	6.6
331.45	6.59
331.903	6.58
332.355	6.57
332.808	6.57
333.26	6.57
333.713	6.58
334.165	6.57
334.617	6.58
335.069	6.58
335.522	6.6
335.974	6.61
336.426	6.6
336.878	6.61
337.33	6.61
337.782	6.61
338.234	6.6
338.686	6.6
339.137	6.6
339.589	6.59
340.041	6.58
340.493	6.55
340.944	6.54
341.396	6.53
341.847	6.51
342.299	6.48
342.75	6.46
343.201	6.44
343.653	6.41
344.104	6.39
344.555	6.37
345.006	6.35
345.457	6.33
345.908	6.3
346.359	6.3
346.81	6.29
347.261	6.28
347.712	6.27
348.163	6.26
348.613	6.24
349.064	6.22
349.515	6.21
349.965	6.2
350.416	6.2
350.866	6.2
351.317	6.17
351.767	6.16
352.217	6.15
352.668	6.15
353.118	6.15
353.568	6.15
354.018	6.15
354.468	6.13
354.918	6.14
355.368	6.13
355.818	6.12
356.268	6.13
356.718	6.11
357.168	6.1
357.617	6.09
358.067	6.08
358.517	6.07
358.966	6.08
359.416	6.09
359.865	6.08
360.315	6.08
360.764	6.08
361.213	6.06
361.663	6.06
362.112	6.08
362.561	6.07
363.01	6.08
363.459	6.07
363.908	6.05
364.357	6.06
364.806	6.05
365.255	6.05
365.703	6.04
366.152	6.04
366.601	6.04
367.05	6.04
367.498	6.04
367.947	6.04
368.395	6.06
368.844	6.06
369.292	6.06
369.74	6.06
370.189	6.05
370.637	6.05
371.085	6.06
371.533	6.05
371.981	6.04
372.429	6.03
372.877	6.02
373.325	6.01
373.773	6.01
374.221	6
374.669	5.99
375.116	5.98
375.564	5.98
376.012	5.97
376.459	5.97
376.907	5.98
377.354	5.97
377.801	5.98
378.249	5.98
378.696	5.99
379.143	6
379.591	6
380.038	6.03
380.485	6.02
380.932	6.03
381.379	6.02
381.826	6.03
382.273	6.03
382.72	6.04
383.166	6.04
383.613	6.04
384.06	6.03
384.506	6.04
384.953	6.03
385.4	6.03
385.846	6.03
386.292	6.05
386.739	6.06
387.185	6.08
387.631	6.09
388.078	6.09
388.524	6.08
388.97	6.1
389.416	6.11
389.862	6.12
390.308	6.14
390.754	6.15
391.2	6.17
391.645	6.19
392.091	6.2
392.537	6.22
392.983	6.26
393.428	6.3
393.874	6.33
394.319	6.35
394.765	6.37
395.21	6.38
395.655	6.41
396.101	6.42
396.546	6.44
396.991	6.46
397.436	6.46
397.881	6.47
398.326	6.51
398.771	6.55
399.216	6.59
399.661	6.63
400.106	6.69
400.551	6.73
400.995	6.75
401.44	6.76
401.885	6.78
402.329	6.81
402.774	6.82
403.218	6.83
403.663	6.83
404.107	6.84
404.551	6.86
404.995	6.85
405.44	6.86
405.884	6.88
406.328	6.9
406.772	6.94
407.216	6.96
407.66	7
408.104	7.02
408.547	7.06
408.991	7.07
409.435	7.07
409.879	7.11
410.322	7.15
410.766	7.17
411.209	7.18
411.653	7.21
412.096	7.23
412.54	7.23
412.983	7.25
413.426	7.27
413.869	7.3
414.312	7.35
414.756	7.39
415.199	7.42
415.642	7.46
416.085	7.51
416.527	7.53
416.97	7.57
417.413	7.59
417.856	7.59
418.298	7.61
418.741	7.62
419.184	7.61
419.626	7.59
420.069	7.59
420.511	7.59
420.953	7.58
421.396	7.6
421.838	7.62
422.28	7.65
422.722	7.69
423.164	7.71
423.606	7.73
424.048	7.73
424.49	7.77
424.932	7.78
425.374	7.8
425.816	7.81
426.258	7.79
426.699	7.75
427.141	7.72
427.582	7.71
428.024	7.71
428.465	7.71
428.907	7.75
429.348	7.74
429.789	7.73
430.231	7.72
430.672	7.73
431.113	7.77
431.554	7.8
431.995	7.84
432.436	7.85
432.877	7.84
433.318	7.86
433.759	7.87
434.2	7.89
434.64	7.93
435.081	7.96
435.522	7.98
435.962	8
436.403	8.03
436.843	8.05
437.284	8.08
437.724	8.13
438.164	8.15
438.604	8.17
439.045	8.19
439.485	8.21
439.925	8.22
440.365	8.23
440.805	8.25
441.245	8.27
441.685	8.31
442.125	8.32
442.564	8.37
443.004	8.4
443.444	8.44
443.883	8.49
444.323	8.5
444.762	8.59
445.202	8.65
445.641	8.68
446.081	8.74
446.52	8.78
446.959	8.84
447.398	8.89
447.837	8.93
448.276	8.95
448.716	8.99
449.154	9.05
449.593	9.06
450.032	9.1
450.471	9.14
450.91	9.17
451.349	9.2
451.787	9.2
452.226	9.18
452.664	9.19
453.103	9.21
453.541	9.21
453.98	9.2
454.418	9.19
454.856	9.18
455.295	9.16
455.733	9.13
456.171	9.11
456.609	9.12
457.047	9.12
457.485	9.12
457.923	9.12
458.361	9.12
458.798	9.13
459.236	9.12
459.674	9.11
460.111	9.11
460.549	9.12
460.987	9.11
461.424	9.1
461.862	9.09
462.299	9.09
462.736	9.07
463.173	9.07
463.611	9.07
464.048	9.07
464.485	9.06
464.922	9.06
465.359	9.07
465.796	9.04
466.233	9.07
466.67	9.07
467.106	9.07
467.543	9.08
467.98	9.09
468.416	9.12
468.853	9.13
469.29	9.15
469.726	9.15
470.162	9.15
470.599	9.18
471.035	9.18
471.471	9.2
471.907	9.22
472.344	9.24
472.78	9.24
473.216	9.23
473.652	9.24
474.088	9.26
474.523	9.26
474.959	9.25
475.395	9.26
475.831	9.27
476.266	9.27
476.702	9.26
477.138	9.24
477.573	9.23
478.008	9.23
478.444	9.2
478.879	9.18
479.314	9.19
479.75	9.21
480.185	9.2
480.62	9.21
481.055	9.2
481.49	9.2
481.925	9.19
482.36	9.19
482.795	9.18
483.229	9.2
483.664	9.2
484.099	9.19
484.534	9.19
484.968	9.21
485.403	9.2
485.837	9.21
486.271	9.23
486.706	9.24
487.14	9.27
487.574	9.3
488.009	9.32
488.443	9.35
488.877	9.38
489.311	9.43
489.745	9.45
490.179	9.5
490.613	9.54
491.046	9.59
491.48	9.67
491.914	9.73
492.348	9.81
492.781	9.88
493.215	9.96
493.648	10.04
494.082	10.13
494.515	10.21
494.948	10.3
495.382	10.4
495.815	10.51
496.248	10.62
496.681	10.73
497.114	10.85
497.547	10.98
497.98	11.11
498.413	11.25
498.846	11.42
499.279	11.58
499.711	11.76
500.144	11.93
500.577	12.11
501.009	12.3
501.442	12.51
501.874	12.7
502.306	12.92
502.739	13.13
503.171	13.37
503.603	13.61
504.036	13.87
504.468	14.15
504.9	14.43
505.332	14.72
505.764	15.02
506.196	15.33
506.627	15.66
507.059	16
507.491	16.37
507.923	16.72
508.354	17.07
508.786	17.44
509.217	17.81
509.649	18.2
510.08	18.6
510.512	19.01
510.943	19.44
511.374	19.87
511.805	20.29
512.237	20.71
512.668	21.14
513.099	21.6
513.53	22.05
513.961	22.51
514.391	22.97
514.822	23.42
515.253	23.87
515.684	24.31
516.114	24.78
516.545	25.26
516.975	25.74
517.406	26.23
517.836	26.71
518.267	27.19
518.697	27.66
519.127	28.11
519.558	28.58
519.988	29.04
520.418	29.49
520.848	29.93
521.278	30.36
521.708	30.73
522.138	31.12
522.567	31.53
522.997	31.92
523.427	32.33
523.857	32.7
524.286	33.08
524.716	33.43
525.145	33.79
525.575	34.13
526.004	34.47
526.433	34.86
526.863	35.17
527.292	35.48
527.721	35.76
528.15	36.02
528.579	36.29
529.008	36.54
529.437	36.76
529.866	36.97
530.295	37.18
530.724	37.41
531.152	37.62
531.581	37.8
532.01	37.97
532.438	38.14
532.867	38.32
533.295	38.47
533.723	38.62
534.152	38.77
534.58	38.92
535.008	39.02
535.436	39.1
535.865	39.18
536.293	39.28
536.721	39.37
537.149	39.43
537.576	39.49
538.004	39.55
538.432	39.63
538.86	39.68
539.287	39.74
539.715	39.82
540.143	39.88
540.57	39.92
540.998	39.97
541.425	40.02
541.852	40.08
542.28	40.11
542.707	40.15
543.134	40.17
543.561	40.21
543.988	40.25
544.415	40.28
544.842	40.33
545.269	40.37
545.696	40.41
546.123	40.45
546.549	40.52
546.976	40.59
547.403	40.64
547.829	40.69
548.256	40.72
548.682	40.72
549.108	40.75
549.535	40.75
549.961	40.75
550.387	40.75
550.813	40.74
551.24	40.72
551.666	40.73
552.092	40.7
552.518	40.68
552.943	40.66
553.369	40.66
553.795	40.63
554.221	40.6
554.646	40.58
555.072	40.53
555.498	40.47
555.923	40.38
556.349	40.29
556.774	40.23
557.199	40.16
557.625	40.07
558.05	39.96
558.475	39.84
558.9	39.72
559.325	39.59
559.75	39.46
560.175	39.32
560.6	39.17
561.025	39.03
561.449	38.87
561.874	38.69
562.299	38.54
562.723	38.36
563.148	38.17
563.572	38
563.997	37.81
564.421	37.6
564.846	37.4
565.27	37.2
565.694	36.97
566.118	36.75
566.542	36.52
566.966	36.27
567.39	36
567.814	35.75
568.238	35.49
568.662	35.24
569.086	34.99
569.509	34.74
569.933	34.48
570.357	34.2
570.78	33.93
571.204	33.66
571.627	33.43
572.05	33.22
572.474	32.99
572.897	32.75
573.32	32.5
573.743	32.28
574.166	32.04
574.589	31.83
575.012	31.66
575.435	31.46
575.858	31.29
576.281	31.1
576.704	30.93
577.126	30.73
577.549	30.58
577.972	30.45
578.394	30.29
578.817	30.15
579.239	30.01
579.661	29.86
580.084	29.72
580.506	29.57
580.928	29.43
581.35	29.31
581.772	29.22
582.194	29.08
582.616	28.96
583.038	28.86
583.46	28.75
583.882	28.64
584.303	28.55
584.725	28.45
585.147	28.34
585.568	28.22
585.99	28.11
586.411	28.01
586.833	27.94
587.254	27.83
587.675	27.75
588.096	27.69
588.518	27.6
588.939	27.51
589.36	27.44
589.781	27.38
590.202	27.32
590.623	27.25
591.043	27.18
591.464	27.12
591.885	27.08
592.305	27.02
592.726	26.96
593.147	26.91
593.567	26.87
593.987	26.84
594.408	26.8
594.828	26.76
595.248	26.72
595.669	26.69
596.089	26.64
596.509	26.58
596.929	26.51
597.349	26.46
597.769	26.39
598.189	26.35
598.608	26.26
599.028	26.2
599.448	26.14
599.867	26.08
600.287	26
600.706	25.91
601.126	25.82
601.545	25.75
601.965	25.65
602.384	25.57
602.803	25.45
603.222	25.35
603.641	25.25
604.061	25.14
604.48	25
604.898	24.89
605.317	24.79
605.736	24.68
606.155	24.56
606.574	24.44
606.992	24.29
607.411	24.16
607.829	24
608.248	23.87
608.666	23.74
609.085	23.61
609.503	23.47
609.921	23.34
610.339	23.21
610.758	23.07
611.176	22.93
611.594	22.8
612.012	22.67
612.43	22.59
612.847	22.46
613.265	22.34
613.683	22.21
614.101	22.09
614.518	21.95
614.936	21.83
615.353	21.72
615.771	21.62
616.188	21.53
616.606	21.41
617.023	21.3
617.44	21.2
617.857	21.1
618.274	21.01
618.691	20.93
619.108	20.86
619.525	20.77
619.942	20.69
620.359	20.64
620.776	20.58
621.192	20.52
621.609	20.48
622.026	20.44
622.442	20.4
622.859	20.37
623.275	20.34
623.691	20.31
624.108	20.28
624.524	20.25
624.94	20.23
625.356	20.21
625.772	20.21
626.188	20.2
626.604	20.16
627.02	20.14
627.436	20.12
627.852	20.1
628.268	20.07
628.683	20.06
629.099	20.04
629.514	20.01
629.93	19.99
630.345	19.93
630.761	19.87
631.176	19.85
631.591	19.8
632.007	19.73
632.422	19.65
632.837	19.58
633.252	19.48
633.667	19.37
634.082	19.25
634.497	19.14
634.911	19.01
635.326	18.88
635.741	18.72
636.155	18.58
636.57	18.44
636.984	18.27
637.399	18.1
637.813	17.94
638.228	17.77
638.642	17.61
639.056	17.41
639.47	17.21
639.884	17.01
640.298	16.83
640.712	16.63
641.126	16.43
641.54	16.24
641.954	16.07
642.368	15.88
642.781	15.68
643.195	15.47
643.609	15.29
644.022	15.12
644.436	14.96
644.849	14.77
645.262	14.62
645.676	14.46
646.089	14.31
646.502	14.15
646.915	14.01
647.328	13.88
647.741	13.76
648.154	13.66
648.567	13.56
648.98	13.47
649.393	13.4
649.805	13.31
650.218	13.23
650.631	13.15
651.043	13.09
651.456	13.02
651.868	12.95
652.28	12.89
652.693	12.8
653.105	12.73
653.517	12.62
653.929	12.53
654.341	12.44
654.753	12.34
655.165	12.23
655.577	12.11
655.989	11.99
656.401	11.86
656.813	11.71
657.224	11.58
657.636	11.44
658.047	11.3
658.459	11.15
658.87	11.01
659.282	10.88
659.693	10.73
660.104	10.59
660.515	10.44
660.926	10.31
661.338	10.19
661.749	10.05
662.159	9.93
662.57	9.81
662.981	9.69
663.392	9.57
663.803	9.47
664.213	9.38
664.624	9.29
665.035	9.21
665.445	9.14
665.855	9.07
666.266	9.02
666.676	8.97
667.086	8.91
667.497	8.86
667.907	8.82
668.317	8.76
668.727	8.71
669.137	8.68
669.547	8.66
669.956	8.63
670.366	8.61
670.776	8.59
671.186	8.58
671.595	8.57
672.005	8.56
672.414	8.56
672.824	8.58
673.233	8.59
673.642	8.6
674.052	8.61
674.461	8.63
674.87	8.63
675.279	8.65
675.688	8.66
676.097	8.7
676.506	8.74
676.915	8.78
677.323	8.82
677.732	8.86
678.141	8.91
678.549	8.97
678.958	9.04
679.366	9.11
679.775	9.2
680.183	9.3
680.592	9.41
681	9.53
681.408	9.67
681.816	9.81
682.224	9.99
682.632	10.2
683.04	10.41
683.448	10.65
683.856	10.93
684.264	11.24
684.671	11.58
685.079	11.94
685.487	12.36
685.894	12.8
686.302	13.27
686.709	13.78
687.116	14.34
687.524	14.94
687.931	15.56
688.338	16.25
688.745	16.95
689.152	17.7
689.559	18.46
689.966	19.25
690.373	20.1
690.78	20.96
691.187	21.85
691.593	22.72
692	23.62
692.407	24.55
692.813	25.47
693.22	26.41
693.626	27.36
694.032	28.32
694.439	29.28
694.845	30.22
695.251	31.16
695.657	32.1
696.063	33.04
696.469	33.96
696.875	34.86
697.281	35.74
697.687	36.63
698.093	37.48
698.498	38.36
698.904	39.22
699.31	40.03
699.715	40.86
700.12	41.67
700.526	42.45
700.931	43.22
701.337	44
701.742	44.73
702.147	45.45
702.552	46.18
702.957	46.88
703.362	47.55
703.767	48.22
704.172	48.9
704.577	49.53
704.981	50.19
705.386	50.82
705.791	51.42
706.195	52.01
706.6	52.59
707.004	53.14
707.408	53.67
707.813	54.18
708.217	54.69
708.621	55.17
709.025	55.66
709.43	56.13
709.834	56.62
710.237	57.08
710.641	57.59
711.045	58.04
711.449	58.48
711.853	58.91
712.256	59.42
712.66	59.85
713.064	60.28
713.467	60.69
713.87	61.08
714.274	61.5
714.677	61.9
715.08	62.26
715.484	62.65
715.887	63.02
716.29	63.42
716.693	63.71
717.096	64.08
717.499	64.45
717.901	64.76
718.304	65.12
718.707	65.39
719.109	65.73
719.512	66.04
719.915	66.33
720.317	66.62
720.719	66.88
721.122	67.17
721.524	67.42
721.926	67.67
722.328	67.98
722.731	68.22
723.133	68.46
723.535	68.71
723.937	68.92
724.338	69.14
724.74	69.35
725.142	69.44
725.544	69.64
725.945	69.78
726.347	69.96
726.748	70.06
727.15	70.2
727.551	70.37
727.952	70.49
728.354	70.65
728.755	70.77
729.156	70.9
729.557	71.13
729.958	71.27
730.359	71.39
730.76	71.48
731.161	71.61
731.562	71.72
731.962	71.82
732.363	71.9
732.763	71.99
733.164	72.08
733.564	72.16
733.965	72.22
734.365	72.28
734.766	72.37
735.166	72.47
735.566	72.5
735.966	72.58
736.366	72.59
736.766	72.65
737.166	72.68
737.566	72.76
737.966	72.89
738.365	72.97
738.765	73.07
739.165	73.12
739.564	73.17
739.964	73.21
740.363	73.28
740.763	73.34
741.162	73.36
741.561	73.44
741.96	73.47
742.36	73.46
742.759	73.48
743.158	73.46
743.557	73.51
743.955	73.6
744.354	73.72
744.753	73.78
745.152	73.87
745.55	73.94
745.949	73.95
746.348	74.03
746.746	74.05
747.144	74.16
747.543	74.25
747.941	74.32
748.339	74.41
748.737	74.42
749.136	74.45
749.534	74.51
749.932	74.57
750.33	74.65
750.727	74.67
751.125	74.71
751.523	74.64
751.921	74.65
752.318	74.62
752.716	74.55
753.113	74.56
753.511	74.54
753.908	74.46
754.305	74.34
754.703	74.26
755.1	74.21
755.497	74.14
755.894	74.15
756.291	74.07
756.688	74.03
757.085	73.99
757.482	73.93
757.878	73.87
758.275	73.88
758.672	73.93
759.068	73.95
759.465	73.95
759.861	73.95
760.258	73.89
760.654	73.88
761.05	73.88
761.447	73.87
761.843	73.85
762.239	73.84
762.635	73.85
763.031	73.84
763.427	73.81
763.822	73.78
764.218	73.74
764.614	73.76
765.01	73.77
765.405	73.77
765.801	73.77
766.196	73.82
766.592	73.82
766.987	73.79
767.382	73.79
767.778	73.8
768.173	73.84
768.568	73.84
768.963	73.84
769.358	73.87
769.753	73.86
770.148	73.83
770.542	73.8
770.937	73.77
771.332	73.76
771.726	73.76
772.121	73.74
772.515	73.74
772.91	73.76
773.304	73.76
773.699	73.76
774.093	73.79
774.487	73.83
774.881	73.88
775.275	73.91
775.669	73.96
776.063	73.96
776.457	73.96
776.851	73.94
777.245	73.96
777.638	73.99
778.032	73.99
778.425	73.99
778.819	73.97
779.212	73.92
779.606	73.91
779.999	73.87
780.392	73.86
780.786	73.85
781.179	73.89
781.572	73.87
781.965	73.86
782.358	73.86
782.751	73.87
783.143	73.91
783.536	73.95
783.929	73.97
784.322	74.02
784.714	74.02
785.107	74.05
785.499	74
785.891	74.03
786.284	73.98
786.676	74
787.068	73.96
787.46	73.89
787.852	73.9
788.245	73.88
788.636	73.84
789.028	73.81
789.42	73.8
789.812	73.82
790.204	73.78
790.595	73.77
790.987	73.74
791.378	73.76
791.77	73.82
792.161	73.76
792.553	73.74
792.944	73.8
793.335	73.89
793.726	73.89
794.117	73.87
794.508	73.89
794.899	73.92
795.29	73.95
795.681	73.97
796.072	73.97
796.463	74.02
796.853	74.03
797.244	74
797.634	73.97
798.025	74
798.415	74.03
798.806	74.08
799.196	74.12
799.586	74.16
799.976	74.2
800.366	74.21
800.756	74.25
801.146	74.31
801.536	74.34
801.926	74.35
802.316	74.41
802.706	74.48
803.095	74.49
803.485	74.54
803.874	74.56
804.264	74.61
804.653	74.62
805.043	74.65
805.432	74.66
805.821	74.68
806.21	74.75
806.599	74.8
806.988	74.79
807.377	74.85
807.766	74.84
808.155	74.87
808.544	74.86
808.933	74.87
809.321	74.87
809.71	74.92
810.098	74.95
810.487	74.94
810.875	74.93
811.264	74.96
811.652	74.93
812.04	74.94
812.428	74.95
812.816	74.97
813.204	74.99
813.592	74.99
813.98	74.97
814.368	75
814.756	75.01
815.144	74.97
815.531	74.97
815.919	74.99
816.306	74.97
816.694	74.99
817.081	74.93
817.469	74.96
817.856	75
818.243	74.99
818.63	75
819.017	74.99
819.404	75.01
819.791	75.02
820.178	75.07
820.565	75.07
820.952	75.04
821.339	75.13
821.725	75.13
822.112	75.12
822.498	75.14
822.885	75.14
823.271	75.18
823.657	75.17
824.044	75.15
824.43	75.14
824.816	75.15
825.202	75.14
825.588	75.09
825.974	75.08
826.36	75.05
826.746	75.05
827.132	75.02
827.517	74.97
827.903	74.97
828.289	74.95
828.674	74.9
829.06	74.93
829.445	74.98
829.83	75.01
830.216	75.02
830.601	75.05
830.986	75.04
831.371	75.09
831.756	75.09
832.141	75.11
832.526	75.14
832.911	75.17
833.295	75.22
833.68	75.17
834.065	75.16
834.449	75.14
834.834	75.12
835.218	75.13
835.603	75.11
835.987	75.06
836.371	75.09
836.755	75.08
837.139	75.05
837.524	75
837.908	74.99
838.291	74.99
838.675	74.98
839.059	74.96
839.443	74.94
839.827	74.92
840.21	74.98
840.594	74.92
840.977	74.91
841.361	74.92
841.744	74.93
842.127	74.94
842.511	74.95
842.894	74.92
843.277	74.95
843.66	74.96
844.043	74.99
844.426	74.94
844.809	74.96
845.191	74.97
845.574	74.93
845.957	74.89
846.339	74.88
846.722	74.85
847.104	74.87
847.487	74.91
847.869	74.93
848.252	74.89
848.634	74.93
849.016	74.94
849.398	74.93
849.78	74.96
850.162	74.95
850.544	74.97
850.926	74.96
851.307	74.97
851.689	74.86
852.071	74.82
852.452	74.82
852.834	74.78
853.215	74.75
853.597	74.76
853.978	74.71
854.359	74.71
854.741	74.69
855.122	74.72
855.503	74.7
855.884	74.72
856.265	74.74
856.646	74.71
857.026	74.74
857.407	74.72
857.788	74.72
858.169	74.76
858.549	74.79
858.93	74.79
859.31	74.74
859.69	74.72
860.071	74.75
860.451	74.76
860.831	74.78
861.211	74.74
861.591	74.77
861.971	74.74
862.351	74.77
862.731	74.74
863.111	74.7
863.491	74.71
863.87	74.7
864.25	74.7
864.629	74.67
865.009	74.64
865.388	74.67
865.768	74.63
866.147	74.63
866.526	74.61
866.905	74.62
867.284	74.65
867.663	74.63
868.042	74.59
868.421	74.56
868.8	74.55
869.179	74.58
869.558	74.54
869.936	74.54
870.315	74.53
870.693	74.52
871.072	74.46
871.45	74.45
871.828	74.46
872.207	74.53
872.585	74.53
872.963	74.52
873.341	74.53
873.719	74.54
874.097	74.53
874.475	74.54
874.853	74.54
875.23	74.58
875.608	74.59
875.986	74.59
876.363	74.57
876.741	74.59
877.118	74.58
877.495	74.59
877.873	74.58
878.25	74.59
878.627	74.59
879.004	74.59
879.381	74.6
879.758	74.6
880.135	74.63
880.512	74.61
880.889	74.63
881.265	74.68
881.642	74.67
882.019	74.71
882.395	74.73
882.772	74.73
883.148	74.77
883.524	74.82
883.901	74.8
884.277	74.8
884.653	74.83
885.029	74.8
885.405	74.77
885.781	74.74
886.157	74.73
886.532	74.73
886.908	74.76
887.284	74.71
887.659	74.68
888.035	74.69
888.411	74.67
888.786	74.62
889.161	74.63
889.537	74.64
889.912	74.6
890.287	74.55
890.662	74.49
891.037	74.4
891.412	74.38
891.787	74.32
892.162	74.27
892.536	74.22
892.911	74.17
893.286	74.11
893.66	74.03
894.035	74.02
894.409	74.01
894.784	74
895.158	74
895.532	73.96
895.906	73.93
896.281	73.89
896.655	73.86
897.029	73.85
897.402	73.84
897.776	73.84
898.15	73.85
898.524	73.83
898.898	73.78
899.271	73.76
899.645	73.77
900.018	73.76
900.392	73.77
900.765	73.8
901.138	73.83
901.511	73.81
901.884	73.82
902.258	73.77
902.631	73.77
903.003	73.78
903.376	73.8
903.749	73.8
904.122	73.83
904.495	73.79
904.867	73.75
905.24	73.71
905.612	73.69
905.985	73.64
906.357	73.61
906.729	73.6
907.102	73.62
907.474	73.58
907.846	73.53
908.218	73.53
908.59	73.53
908.962	73.56
909.334	73.58
909.705	73.6
910.077	73.62
910.449	73.66
910.82	73.66
911.192	73.66
911.563	73.68
911.935	73.64
912.306	73.61
912.677	73.62
913.048	73.57
913.419	73.56
913.79	73.56
914.161	73.57
914.532	73.54
914.903	73.51
915.274	73.49
915.645	73.51
916.015	73.56
916.386	73.56
916.756	73.52
917.127	73.52
917.497	73.53
917.868	73.5
918.238	73.51
918.608	73.54
918.978	73.5
919.348	73.45
919.718	73.4
920.088	73.41
920.458	73.43
920.828	73.46
921.198	73.48
921.567	73.44
921.937	73.44
922.306	73.39
922.676	73.36
923.045	73.36
923.415	73.39
923.784	73.42
924.153	73.39
924.522	73.38
924.891	73.36
925.26	73.35
925.629	73.33
925.998	73.29
926.367	73.29
926.736	73.22
927.104	73.24
927.473	73.27
927.842	73.2
928.21	73.19
928.578	73.15
928.947	73.1
929.315	73.09
929.683	73.08
930.051	73.07
930.42	73.05
930.788	73.07
931.156	72.97
931.523	72.87
931.891	72.78
932.259	72.67
932.627	72.52
932.994	72.41
933.362	72.25
933.729	72.08
934.097	71.96
934.464	71.82
934.831	71.69
935.199	71.64
935.566	71.51
935.933	71.47
936.3	71.38
936.667	71.28
937.034	71.19
937.401	71.17
937.767	71.15
938.134	71.12
938.501	71.1
938.867	71.19
939.234	71.23
939.6	71.24
939.967	71.28
940.333	71.45
940.699	71.66
941.065	71.86
941.431	71.97
941.798	72.15
942.163	72.35
942.529	72.5
942.895	72.59
943.261	72.65
943.627	72.86
943.992	72.97
944.358	72.96
944.723	72.99
945.089	73.09
945.454	73.23
945.82	73.24
946.185	73.26
946.55	73.43
946.915	73.49
947.28	73.52
947.645	73.57
948.01	73.54
948.375	73.58
948.74	73.51
949.104	73.5
949.469	73.32
949.834	73.28
950.198	73.16
950.562	73
950.927	72.87
951.291	72.83
951.655	72.82
952.02	72.83
952.384	72.87
952.748	72.87
953.112	72.72
953.476	72.74
953.839	72.72
954.203	72.67
954.567	72.63
954.931	72.61
955.294	72.54
955.658	72.42
956.021	72.34
956.385	72.29
956.748	72.21
957.111	72.19
957.474	72.15
957.837	72.21
958.2	72.22
958.563	72.16
958.926	72.07
959.289	72.08
959.652	72
960.015	71.93
960.377	71.84
960.74	71.87
961.102	71.88
961.465	71.85
961.827	71.61
962.189	71.56
962.552	71.51
962.914	71.55
963.276	71.6
963.638	71.62
964	71.66
964.362	71.6
964.724	71.62
965.085	71.57
965.447	71.46
965.809	71.52
966.17	71.46
966.532	71.5
966.893	71.44
967.255	71.29
967.616	71.22
967.977	71.18
968.338	71.17
968.699	71.02
969.061	71.02
969.421	71.05
969.782	71.08
970.143	71.07
970.504	71
970.865	70.98
971.225	71.02
971.586	71.08
971.946	71.07
972.307	71.07
972.667	71.21
973.027	71.23
973.388	71.22
973.748	71.25
974.108	71.32
974.468	71.35
974.828	71.37
975.188	71.34
975.548	71.23
975.907	71.19
976.267	71.19
976.627	71.12
976.986	71.08
977.346	71.16
977.705	71.06
978.064	71.02
978.424	71
978.783	71
979.142	70.99
979.501	71
979.86	71.04
980.219	70.98
980.578	70.95
980.937	70.97
981.296	70.84
981.654	70.92
982.013	70.96
982.371	70.9
982.73	70.89
983.088	70.85
983.447	70.98
983.805	70.9
984.163	70.97
984.521	70.95
984.879	70.94
985.237	71.03
985.595	70.92
985.953	70.91
986.311	71.03
986.669	70.97
987.026	71.05
987.384	71
987.741	71.04
988.099	71.04
988.456	71
988.814	71.03
989.171	70.99
989.528	70.98
989.885	70.88
990.242	70.81
990.599	70.81
990.956	70.8
991.313	70.69
991.67	70.79
992.027	70.75
992.383	70.93
992.74	70.79
993.096	70.7
993.453	70.85
993.809	71.04
994.165	70.98
994.522	70.95
994.878	70.88
995.234	70.93
995.59	70.79
995.946	70.79
996.302	70.49
996.658	70.61
997.013	70.61
997.369	70.52
997.725	70.46
998.08	70.52
998.436	70.63
998.791	70.6
999.147	70.58
999.502	70.59
999.857	70.64
1000.212	70.72
1000.567	70.71
1000.922	70.93
1001.277	70.82
1001.632	70.82
1001.987	70.77
1002.342	70.66
1002.696	70.72
1003.051	70.72
1003.406	70.73
1003.76	70.54
1004.114	70.7
1004.469	70.55
1004.823	70.48
1005.177	70.73
1005.531	70.61
1005.885	70.81
1006.239	70.85
1006.593	70.71
1006.947	70.58
1007.301	70.6
1007.655	70.68
1008.008	70.53
1008.362	70.55
1008.715	70.37
1009.069	70.18
1009.422	70.01
1009.776	69.79
1010.129	69.89
1010.482	69.85
1010.835	70.03
1011.188	69.82
1011.541	69.79
1011.894	69.86
1012.247	70.09
1012.6	70.16
1012.952	70.23
1013.305	70.4
1013.657	70.36
1014.01	70.56
1014.362	70.94
1014.715	70.76
1015.067	71.04
1015.419	71.06
1015.771	71.13
1016.123	70.9
1016.475	70.87
1016.827	71
1017.179	70.95
1017.531	71.06
1017.883	70.92
1018.234	70.51
1018.586	70.55
1018.938	70.4
1019.289	70.36
1019.64	70.38
1019.992	70.49
1020.343	70.52
1020.694	69.91
1021.045	69.76
1021.396	69.64
1021.747	69.67
1022.098	69.99
1022.449	70.16
1022.8	70.41
1023.151	70.39
1023.501	70.42
1023.852	70.27
1024.202	70.34
1024.553	70.88
1024.903	70.92
1025.253	71.1
1025.604	70.73
1025.954	70.12
1026.304	70.19
1026.654	69.98
1027.004	70.36
1027.354	70.26
1027.703	70.21
1028.053	69.79
1028.403	69.43
1028.753	70.1
1029.102	69.93
1029.452	70.02
1029.801	70.38
1030.15	70.31
1030.499	70.24
897.758	179.6
901.051	181.64
904.343	185.6
907.636	183.41
910.928	184.78
914.22	187.68
917.511	181.62
920.803	178.72
924.094	171.52
927.384	170.28
930.675	166.3
933.965	165.68
937.255	170.01
940.544	163.13
943.834	156.55
947.123	152.67
950.411	147.01
953.7	148.22
956.988	145.63
960.276	143.37
963.563	145.28
966.851	142.89
970.138	141.53
973.424	133.31
976.711	134.29
979.997	132.98
983.283	129.86
986.568	127.48
989.853	127.16
993.138	122.84
996.423	124.51
999.708	121.63
1002.992	122.15
1006.275	119.26
1009.559	119.88
1012.842	118.36
1016.125	115.58
1019.408	115.85
1022.69	115.87
1025.972	114.39
1029.254	114.49
1032.536	112.05
1035.817	108.8
1039.098	107.94
1042.379	109.41
1045.659	108
1048.939	107.67
1052.219	108.44
1055.498	107.94
1058.778	107.19
1062.057	106.13
1065.335	105.81
1068.614	104.83
1071.892	105.58
1075.17	104.39
1078.447	102.52
1081.724	103.37
1085.001	100.26
1088.278	100.64
1091.554	100.98
1094.83	100.76
1098.106	100.87
1101.382	100.68
1104.657	100.11
1107.932	100.34
1111.206	101.07
1114.481	100.44
1117.755	98.39
1121.029	99.58
1124.302	98.61
1127.575	97.7
1130.848	97.29
1134.121	96.23
1137.393	96.36
1140.665	96.67
1143.937	95.53
1147.208	94.73
1150.48	94.94
1153.75	94.73
1157.021	94.07
1160.291	94.5
1163.561	93.99
1166.831	93.96
1170.101	93.84
1173.37	93.01
1176.639	92.47
1179.907	92.26
1183.176	91.7
1186.444	91.22
1189.711	91.65
1192.979	91.4
1196.246	91.58
1199.513	91.43
1202.78	91.06
1206.046	91.27
1209.312	91.92
1212.578	91.8
1215.843	92.88
1219.108	92.61
1222.373	94.23
1225.638	94.24
1228.902	95.99
1232.166	95.89
1235.43	95.38
1238.693	96.63
1241.956	97.82
1245.219	98.68
1248.482	99.79
1251.744	98.92
1255.006	99.6
1258.268	96.48
1261.529	96.93
1264.79	95.9
1268.051	95.86
1271.312	96.64
1274.572	95.83
1277.832	95.03
1281.092	94.51
1284.351	93.41
1287.61	93.38
1290.869	93.73
1294.128	94.76
1297.386	94.7
1300.644	93.78
1303.902	92.9
1307.159	91.71
1310.416	91.65
1313.673	92.13
1316.93	91.54
1320.186	92.46
1323.442	92.62
1326.697	92.26
1329.953	91.65
1333.208	91.68
1336.463	93.51
1339.717	94.49
1342.972	95.46
1346.226	96.98
1349.479	95.98
1352.733	97.66
1355.986	97.07
1359.238	98.01
1362.491	97.02
1365.743	99.13
1368.995	101.2
1372.247	95.1
1375.498	92.95
1378.749	93.98
1382	93.2
1385.251	92.45
1388.501	91.24
1391.751	90.5
1395	89.39
1398.25	90.58
1401.499	87.74
1404.748	83.9
1407.996	86.92
1411.244	87.46
1414.492	86.37
1417.74	83.03
1420.987	81.53
1424.234	80.34
1427.481	77.81
1430.728	75.47
1433.974	73.42
1437.22	72.8
1440.465	72.11
1443.711	71.37
1446.956	70.25
1450.201	67.94
1453.445	66.14
1456.689	65.72
1459.933	65
1463.177	63.68
1466.42	63.68
1469.663	62.91
1472.906	62.09
1476.148	60.54
1479.391	59.88
1482.633	59.3
1485.874	60.23
1489.115	60.68
1492.356	60.73
1495.597	60.78
1498.838	61.72
1502.078	61.78
1505.318	62.11
1508.557	61.76
1511.797	62.81
1515.036	63.93
1518.274	64.35
1521.513	64.43
1524.751	64.57
1527.989	65.01
1531.227	65.13
1534.464	65.83
1537.701	65.98
1540.938	66
1544.174	66.8
1547.41	67.32
1550.646	67.62
1553.882	67.86
1557.117	68.55
1560.352	68.25
1563.587	68.7
1566.821	68.91
1570.055	69.08
1573.289	69.55
1576.523	69.87
1579.756	70.21
1582.989	70.18
1586.222	70.31
1589.454	70.37
1592.686	70.84
1595.918	70.7
1599.15	70.53
1602.381	70.98
1605.612	71.29
1608.843	71.06
1612.073	70.98
1615.303	71.7
1618.533	71.75
1621.762	71.4
1624.992	71.66
1628.221	71.09
1631.449	72.12
1634.678	72.32
1637.906	71.62
1641.134	71.55
1644.361	71.89
1647.588	71.85
1650.815	71.54
1654.042	71.62
1657.269	71.68
1660.495	72.07
1663.72	72.02
1666.946	71.7
1670.171	71.94
1673.396	72.73
1676.621	72.72
1679.845	73.34
1683.069	72.94
1686.293	72.72
1689.517	72.36
1692.74	72.77
1695.963	72.14
1699.185	72.67
1702.408	72.49
1705.63	72.03
1708.852	72
1712.073	72
1715.294	71.34
1718.515	71.95
1721.736	71.71
1724.956	72.11
1728.176	71.82
1731.396	72.13
1734.616	71.68
1737.835	71.78
1741.054	71.9
1744.272	71.48
1747.491	70.92
1750.709	70.94
1753.927	70.76
1757.144	70.76
1760.361	70.19
1763.578	70.5
1766.795	70.31
1770.011	70.61
1773.227	70.58
1776.443	70.73
1779.658	70.06
1782.874	70.81
1786.089	69.85
1789.303	70.02
1792.518	70.42
1795.732	71.06
1798.945	71.45
1802.159	71.09
1805.372	70.64
1808.585	70.87
1811.797	70.45
1815.01	71.63
1818.222	71.16
1821.434	72.19
1824.645	71.59
1827.856	71.74
1831.067	71.2
1834.278	70.47
1837.488	71.24
1840.698	71.61
1843.908	70.86
1847.117	71.8
1850.326	71.2
1853.535	71.22
1856.744	69.99
1859.952	69.95
1863.16	68.83
1866.368	67.66
1869.575	66.44
1872.782	63.55
1875.989	61.72
1879.196	59.82
1882.402	56.66
1885.608	55.49
1888.814	52.64
1892.019	51.27
1895.224	49.19
1898.429	47.24
1901.634	45.61
1904.838	43.78
1908.042	43.7
1911.246	41.95
1914.449	42.13
1917.652	41.14
1920.855	40.17
1924.058	39.61
1927.26	37.63
1930.462	39
1933.664	38.74
1936.865	39.93
1940.066	38.73
1943.267	38.74
1946.467	39.02
1949.668	38.41
1952.868	38.9
1956.067	39.45
1959.267	41.08
1962.466	41.67
1965.665	40.69
1968.863	42.7
1972.061	42.24
1975.259	44.66
1978.457	44.78
1981.654	45.05
1984.852	46.4
1988.048	47.54
1991.245	48.4
1994.441	48.93
1997.637	49.12
2000.833	51.92
2004.028	50.75
2007.223	52.11
2010.418	53.38
2013.613	54.21
2016.807	56.3
2020.001	58.43
2023.194	59.18
2026.388	60.46
2029.581	64.62
2032.774	68.04
2035.966	67.63
2039.158	70.46
2042.35	70.53
2045.542	72.11
2048.733	78.35
2051.924	76.18
2055.115	75.39
2058.306	77.24
2061.496	77.34
2064.686	74.95
2067.875	76.44
2071.065	78.12
2074.254	76.83
2077.442	80.03
2080.631	80.05
2083.819	78.73
2087.007	83.01
2090.195	85.18
2093.382	85.38
2096.569	86.92
2099.756	86.97
2102.942	86.71
2106.128	88.02
2109.314	90.79
2112.5	90.08
2115.685	87.06
2118.87	86.77
2122.055	87.21
2125.239	86.75
2128.424	89.96
2131.608	87.45
2134.791	87.99
2137.974	88.86
2141.157	90.37
2144.34	89.97
2147.523	93.44
2150.705	97.49
2153.887	96.85
2157.068	98.61
2160.25	98.87
2163.431	97.56
2166.611	100.32
2169.792	101.65
2172.972	104.08
2176.152	101.96
2179.331	104.56
2182.511	102.99
2185.69	105.03
2188.868	108.13
2192.047	110.01
2195.225	114.25
2198.403	111.31
2201.58	111.01
2204.758	116.44
2207.935	112.8
2211.111	115.25
2214.288	115.62
2217.464	117.19
2220.64	115.8
2223.815	114.24
2226.991	112.9
2230.166	112.75
2233.34	117.48
2236.515	116.18
2239.689	114.06
2242.863	118.06
2246.036	118.87
2249.209	116.32
2252.382	115.21
2255.555	118.55
2258.727	120.39
2261.9	121.55
2265.071	122.67
2268.243	122.31
2271.414	130.42
2274.585	131.06
2277.756	130.98
2280.926	133.47
2284.096	137.48
2287.266	138.17
2290.436	137.42
2293.605	140.27
2296.774	145.04
2299.942	143.64
2303.111	148.11
2306.279	151.12
2309.447	150.39
2312.614	149.13
2315.781	148.82
2318.948	153.47
2322.115	156.06
2325.281	156.52
2328.447	158.39
2331.613	158.39
2334.779	160.64
2337.944	157.4
2341.109	157.03
2344.274	161.77
2347.438	163.67
2350.602	168.18
2353.766	174.97
2356.929	176.75
2360.092	184.09
2363.255	181.41
2366.418	182.42
2369.58	187.36
2372.742	192.53
2375.904	192.23
2379.066	195.04
2382.227	199.61
2385.388	200.67
2388.548	189.09
2391.709	186.17
2394.869	188.25
2398.029	196.98
2401.188	191.62
2404.347	191.98
2407.506	200.47
2410.665	192.37
2413.823	195.32
2416.981	203.55
2420.139	199.45
2423.296	213.11
2426.453	221.33
2429.61	210.04
2432.767	213.05
2435.923	229.82
2439.079	230.13
2442.235	230.48
2445.391	244.06
2448.546	241.06
2451.701	242.5
2454.855	250.15
2458.009	235.02
2461.163	242.88
2464.317	249.29
2467.471	247.81
2470.624	253.7
2473.777	241.36
2476.929	242.17
2480.082	242.29
2483.234	251.74
2486.385	264.91
2489.537	271.95
2492.688	284.52
2495.839	284.43
2498.989	298.31
2502.14	290.84
2505.29	278.9
2508.439	306.6
2511.589	301.95
2514.738	300.51
2517.887	296.1
2521.035	273.34
2524.183	273.92
2527.331	276.82
2530.479	265.72
2533.627	265.07
