Data from C_2_dec_ct_2n_074_Splice17_04.txt Node
Date: Sat Feb 29 14:22:04 EST 2020
User: sa697716
Spectrometer: FLMS03696
Trigger mode: 0
Integration Time (sec): 3.180400E-1
Scans to average: 20
Electric dark correction enabled: true
Nonlinearity correction enabled: true
Boxcar width: 5
XAxis mode: Wavelengths
Number of Pixels in Spectrum: 2048
>>>>>Begin Spectral Data<<<<<
187.83	112
188.298	100.75
188.766	93.75
189.233	109.27
189.701	106.22
190.169	106.9
190.636	97.1
191.104	90.46
191.571	396.97
192.039	363.47
192.506	-206.54
192.974	3431.35
193.441	39.14
193.908	68.07
194.375	132.86
194.842	158.52
195.31	143.13
195.777	126.97
196.244	63.32
196.711	50.85
197.177	49.07
197.644	47.13
198.111	47.28
198.578	47.75
199.045	47.88
199.511	47.91
199.978	48.56
200.445	48.03
200.911	48.07
201.378	48.28
201.844	49.23
202.31	49.54
202.777	49.92
203.243	50.36
203.709	50.5
204.176	50.65
204.642	50.76
205.108	50.1
205.574	50.61
206.04	50.56
206.506	50.46
206.972	50.16
207.438	49.84
207.903	49.82
208.369	49.1
208.835	48.98
209.301	48.23
209.766	48.07
210.232	48
210.697	47.64
211.163	47.42
211.628	46.76
212.094	46.46
212.559	45.97
213.024	45.3
213.49	44.81
213.955	44.06
214.42	43.68
214.885	42.93
215.35	42.11
215.815	40.79
216.28	39.67
216.745	38.6
217.21	37.17
217.675	36.03
218.14	34.5
218.604	33.12
219.069	32
219.534	30.93
219.998	30
220.463	29.21
220.927	28.61
221.392	28.02
221.856	27.38
222.32	26.89
222.785	26.33
223.249	25.98
223.713	25.65
224.177	25.3
224.642	24.99
225.106	24.68
225.57	24.33
226.034	23.97
226.497	23.63
226.961	23.33
227.425	23
227.889	22.73
228.353	22.41
228.816	22.14
229.28	21.79
229.744	21.51
230.207	21.21
230.671	20.95
231.134	20.69
231.597	20.38
232.061	20.15
232.524	19.9
232.987	19.65
233.45	19.42
233.914	19.15
234.377	18.95
234.84	18.73
235.303	18.52
235.766	18.3
236.229	18.09
236.691	17.91
237.154	17.71
237.617	17.53
238.08	17.34
238.542	17.15
239.005	16.98
239.468	16.8
239.93	16.63
240.393	16.46
240.855	16.3
241.317	16.15
241.78	16.03
242.242	15.85
242.704	15.71
243.166	15.55
243.629	15.42
244.091	15.28
244.553	15.16
245.015	15.02
245.477	14.89
245.939	14.76
246.4	14.64
246.862	14.51
247.324	14.42
247.786	14.29
248.247	14.17
248.709	14.06
249.17	13.95
249.632	13.81
250.093	13.71
250.555	13.62
251.016	13.53
251.477	13.42
251.939	13.33
252.4	13.24
252.861	13.16
253.322	13.09
253.783	13.04
254.244	12.96
254.705	12.89
255.166	12.82
255.627	12.75
256.088	12.67
256.549	12.6
257.009	12.53
257.47	12.46
257.931	12.37
258.391	12.29
258.852	12.2
259.312	12.13
259.773	12.05
260.233	11.98
260.694	11.9
261.154	11.82
261.614	11.75
262.074	11.69
262.534	11.61
262.994	11.55
263.455	11.49
263.915	11.42
264.374	11.36
264.834	11.31
265.294	11.24
265.754	11.18
266.214	11.13
266.673	11.08
267.133	11.02
267.593	10.98
268.052	10.93
268.512	10.89
268.971	10.84
269.431	10.8
269.89	10.76
270.349	10.73
270.809	10.69
271.268	10.65
271.727	10.61
272.186	10.57
272.645	10.52
273.104	10.48
273.563	10.44
274.022	10.4
274.481	10.36
274.94	10.31
275.399	10.27
275.857	10.23
276.316	10.19
276.775	10.14
277.233	10.1
277.692	10.06
278.15	10.02
278.609	9.97
279.067	9.92
279.525	9.88
279.984	9.84
280.442	9.8
280.9	9.76
281.358	9.72
281.816	9.69
282.274	9.65
282.732	9.62
283.19	9.59
283.648	9.56
284.106	9.53
284.564	9.52
285.021	9.5
285.479	9.48
285.937	9.46
286.394	9.44
286.852	9.42
287.309	9.39
287.767	9.37
288.224	9.34
288.682	9.31
289.139	9.28
289.596	9.24
290.053	9.19
290.511	9.14
290.968	9.1
291.425	9.06
291.882	9.02
292.339	8.98
292.796	8.94
293.252	8.89
293.709	8.85
294.166	8.82
294.623	8.79
295.079	8.76
295.536	8.73
295.992	8.69
296.449	8.66
296.905	8.63
297.362	8.6
297.818	8.58
298.274	8.56
298.731	8.53
299.187	8.5
299.643	8.47
300.099	8.45
300.555	8.42
301.011	8.4
301.467	8.37
301.923	8.36
302.379	8.33
302.835	8.31
303.291	8.29
303.746	8.27
304.202	8.24
304.658	8.21
305.113	8.18
305.569	8.17
306.024	8.15
306.479	8.13
306.935	8.11
307.39	8.1
307.845	8.08
308.301	8.07
308.756	8.06
309.211	8.06
309.666	8.07
310.121	8.06
310.576	8.06
311.031	8.05
311.486	8.04
311.94	8.03
312.395	8.02
312.85	8.02
313.305	8.02
313.759	8.01
314.214	8
314.668	7.99
315.123	7.98
315.577	7.97
316.032	7.97
316.486	7.95
316.94	7.94
317.394	7.93
317.849	7.91
318.303	7.88
318.757	7.85
319.211	7.82
319.665	7.8
320.119	7.77
320.572	7.75
321.026	7.73
321.48	7.71
321.934	7.69
322.387	7.68
322.841	7.66
323.295	7.63
323.748	7.62
324.202	7.6
324.655	7.58
325.108	7.54
325.562	7.52
326.015	7.49
326.468	7.47
326.921	7.45
327.374	7.43
327.827	7.41
328.28	7.4
328.733	7.37
329.186	7.37
329.639	7.35
330.092	7.36
330.545	7.36
330.997	7.35
331.45	7.34
331.903	7.33
332.355	7.33
332.808	7.33
333.26	7.34
333.713	7.35
334.165	7.34
334.617	7.34
335.069	7.33
335.522	7.33
335.974	7.34
336.426	7.33
336.878	7.32
337.33	7.32
337.782	7.33
338.234	7.32
338.686	7.3
339.137	7.3
339.589	7.3
340.041	7.29
340.493	7.28
340.944	7.28
341.396	7.27
341.847	7.25
342.299	7.22
342.75	7.19
343.201	7.18
343.653	7.16
344.104	7.14
344.555	7.11
345.006	7.09
345.457	7.07
345.908	7.05
346.359	7.03
346.81	7.02
347.261	7.01
347.712	7
348.163	6.99
348.613	6.97
349.064	6.95
349.515	6.93
349.965	6.92
350.416	6.93
350.866	6.92
351.317	6.9
351.767	6.89
352.217	6.88
352.668	6.88
353.118	6.87
353.568	6.87
354.018	6.89
354.468	6.89
354.918	6.89
355.368	6.89
355.818	6.88
356.268	6.88
356.718	6.88
357.168	6.87
357.617	6.87
358.067	6.86
358.517	6.85
358.966	6.85
359.416	6.84
359.865	6.83
360.315	6.81
360.764	6.82
361.213	6.81
361.663	6.81
362.112	6.8
362.561	6.81
363.01	6.81
363.459	6.8
363.908	6.79
364.357	6.79
364.806	6.78
365.255	6.78
365.703	6.77
366.152	6.75
366.601	6.74
367.05	6.74
367.498	6.74
367.947	6.73
368.395	6.73
368.844	6.73
369.292	6.73
369.74	6.72
370.189	6.71
370.637	6.72
371.085	6.72
371.533	6.72
371.981	6.72
372.429	6.7
372.877	6.69
373.325	6.69
373.773	6.68
374.221	6.68
374.669	6.68
375.116	6.66
375.564	6.65
376.012	6.65
376.459	6.65
376.907	6.66
377.354	6.66
377.801	6.67
378.249	6.67
378.696	6.68
379.143	6.69
379.591	6.69
380.038	6.7
380.485	6.71
380.932	6.72
381.379	6.71
381.826	6.72
382.273	6.74
382.72	6.74
383.166	6.75
383.613	6.76
384.06	6.76
384.506	6.77
384.953	6.79
385.4	6.79
385.846	6.81
386.292	6.83
386.739	6.84
387.185	6.86
387.631	6.87
388.078	6.89
388.524	6.9
388.97	6.91
389.416	6.92
389.862	6.93
390.308	6.96
390.754	6.98
391.2	6.99
391.645	7.04
392.091	7.05
392.537	7.08
392.983	7.12
393.428	7.17
393.874	7.21
394.319	7.25
394.765	7.28
395.21	7.3
395.655	7.33
396.101	7.37
396.546	7.37
396.991	7.4
397.436	7.41
397.881	7.43
398.326	7.46
398.771	7.49
399.216	7.54
399.661	7.6
400.106	7.65
400.551	7.68
400.995	7.69
401.44	7.72
401.885	7.74
402.329	7.79
402.774	7.79
403.218	7.8
403.663	7.81
404.107	7.84
404.551	7.86
404.995	7.87
405.44	7.89
405.884	7.91
406.328	7.93
406.772	7.96
407.216	7.99
407.66	8.02
408.104	8.04
408.547	8.06
408.991	8.06
409.435	8.06
409.879	8.08
410.322	8.11
410.766	8.13
411.209	8.16
411.653	8.15
412.096	8.18
412.54	8.2
412.983	8.21
413.426	8.24
413.869	8.27
414.312	8.31
414.756	8.34
415.199	8.35
415.642	8.39
416.085	8.42
416.527	8.47
416.97	8.48
417.413	8.48
417.856	8.49
418.298	8.47
418.741	8.46
419.184	8.47
419.626	8.47
420.069	8.47
420.511	8.45
420.953	8.46
421.396	8.46
421.838	8.46
422.28	8.49
422.722	8.51
423.164	8.53
423.606	8.55
424.048	8.54
424.49	8.56
424.932	8.57
425.374	8.59
425.816	8.58
426.258	8.55
426.699	8.52
427.141	8.47
427.582	8.45
428.024	8.46
428.465	8.47
428.907	8.5
429.348	8.49
429.789	8.48
430.231	8.47
430.672	8.46
431.113	8.51
431.554	8.54
431.995	8.59
432.436	8.62
432.877	8.61
433.318	8.6
433.759	8.6
434.2	8.61
434.64	8.63
435.081	8.64
435.522	8.68
435.962	8.68
436.403	8.71
436.843	8.72
437.284	8.73
437.724	8.79
438.164	8.83
438.604	8.86
439.045	8.89
439.485	8.91
439.925	8.93
440.365	8.93
440.805	8.95
441.245	8.95
441.685	8.97
442.125	9.01
442.564	9.03
443.004	9.06
443.444	9.1
443.883	9.13
444.323	9.18
444.762	9.25
445.202	9.33
445.641	9.37
446.081	9.45
446.52	9.51
446.959	9.58
447.398	9.66
447.837	9.72
448.276	9.77
448.716	9.83
449.154	9.91
449.593	9.95
450.032	9.99
450.471	10.04
450.91	10.06
451.349	10.09
451.787	10.12
452.226	10.11
452.664	10.12
453.103	10.11
453.541	10.12
453.98	10.1
454.418	10.08
454.856	10.05
455.295	10.07
455.733	10.08
456.171	10.07
456.609	10.05
457.047	10.04
457.485	10.03
457.923	10.03
458.361	10.01
458.798	10.02
459.236	10.03
459.674	10.04
460.111	10.03
460.549	10.01
460.987	10.01
461.424	10.01
461.862	10.01
462.299	10
462.736	9.99
463.173	9.98
463.611	9.97
464.048	9.98
464.485	9.97
464.922	9.96
465.359	9.96
465.796	9.92
466.233	9.93
466.67	9.95
467.106	9.94
467.543	9.96
467.98	9.98
468.416	10
468.853	10
469.29	10.03
469.726	10.04
470.162	10.05
470.599	10.07
471.035	10.09
471.471	10.08
471.907	10.12
472.344	10.14
472.78	10.15
473.216	10.15
473.652	10.16
474.088	10.16
474.523	10.16
474.959	10.15
475.395	10.16
475.831	10.16
476.266	10.18
476.702	10.18
477.138	10.17
477.573	10.17
478.008	10.16
478.444	10.15
478.879	10.15
479.314	10.16
479.75	10.18
480.185	10.18
480.62	10.17
481.055	10.17
481.49	10.15
481.925	10.13
482.36	10.12
482.795	10.12
483.229	10.13
483.664	10.13
484.099	10.14
484.534	10.13
484.968	10.15
485.403	10.17
485.837	10.17
486.271	10.19
486.706	10.22
487.14	10.26
487.574	10.29
488.009	10.33
488.443	10.36
488.877	10.39
489.311	10.44
489.745	10.48
490.179	10.54
490.613	10.6
491.046	10.67
491.48	10.75
491.914	10.82
492.348	10.9
492.781	10.96
493.215	11.05
493.648	11.16
494.082	11.26
494.515	11.35
494.948	11.45
495.382	11.56
495.815	11.66
496.248	11.78
496.681	11.9
497.114	12.03
497.547	12.19
497.98	12.34
498.413	12.49
498.846	12.66
499.279	12.83
499.711	13.01
500.144	13.2
500.577	13.41
501.009	13.62
501.442	13.83
501.874	14.06
502.306	14.29
502.739	14.51
503.171	14.76
503.603	15.02
504.036	15.29
504.468	15.57
504.9	15.87
505.332	16.17
505.764	16.48
506.196	16.81
506.627	17.14
507.059	17.49
507.491	17.85
507.923	18.21
508.354	18.6
508.786	18.98
509.217	19.35
509.649	19.75
510.08	20.14
510.512	20.54
510.943	20.95
511.374	21.38
511.805	21.8
512.237	22.25
512.668	22.66
513.099	23.09
513.53	23.55
513.961	24
514.391	24.45
514.822	24.91
515.253	25.38
515.684	25.82
516.114	26.3
516.545	26.76
516.975	27.24
517.406	27.74
517.836	28.18
518.267	28.63
518.697	29.1
519.127	29.56
519.558	30.02
519.988	30.45
520.418	30.91
520.848	31.32
521.278	31.75
521.708	32.11
522.138	32.5
522.567	32.91
522.997	33.3
523.427	33.69
523.857	34.05
524.286	34.41
524.716	34.74
525.145	35.07
525.575	35.42
526.004	35.73
526.433	36.08
526.863	36.37
527.292	36.67
527.721	36.96
528.15	37.2
528.579	37.47
529.008	37.73
529.437	37.96
529.866	38.16
530.295	38.38
530.724	38.6
531.152	38.8
531.581	38.97
532.01	39.13
532.438	39.29
532.867	39.47
533.295	39.61
533.723	39.75
534.152	39.89
534.58	40.01
535.008	40.1
535.436	40.2
535.865	40.28
536.293	40.41
536.721	40.51
537.149	40.58
537.576	40.63
538.004	40.68
538.432	40.73
538.86	40.78
539.287	40.86
539.715	40.91
540.143	40.95
540.57	40.99
540.998	41.04
541.425	41.08
541.852	41.12
542.28	41.15
542.707	41.23
543.134	41.27
543.561	41.3
543.988	41.35
544.415	41.42
544.842	41.44
545.269	41.51
545.696	41.51
546.123	41.55
546.549	41.59
546.976	41.63
547.403	41.64
547.829	41.68
548.256	41.74
548.682	41.75
549.108	41.75
549.535	41.8
549.961	41.79
550.387	41.82
550.813	41.81
551.24	41.81
551.666	41.82
552.092	41.84
552.518	41.82
552.943	41.83
553.369	41.81
553.795	41.79
554.221	41.73
554.646	41.72
555.072	41.66
555.498	41.6
555.923	41.57
556.349	41.49
556.774	41.45
557.199	41.38
557.625	41.28
558.05	41.18
558.475	41.09
558.9	41
559.325	40.89
559.75	40.78
560.175	40.67
560.6	40.53
561.025	40.41
561.449	40.22
561.874	40.07
562.299	39.91
562.723	39.76
563.148	39.58
563.572	39.42
563.997	39.21
564.421	39.02
564.846	38.82
565.27	38.64
565.694	38.43
566.118	38.25
566.542	38.05
566.966	37.83
567.39	37.58
567.814	37.34
568.238	37.08
568.662	36.86
569.086	36.61
569.509	36.39
569.933	36.12
570.357	35.87
570.78	35.6
571.204	35.33
571.627	35.1
572.05	34.87
572.474	34.67
572.897	34.45
573.32	34.23
573.743	34.01
574.166	33.77
574.589	33.55
575.012	33.36
575.435	33.17
575.858	32.99
576.281	32.83
576.704	32.67
577.126	32.49
577.549	32.35
577.972	32.2
578.394	32.07
578.817	31.93
579.239	31.83
579.661	31.69
580.084	31.58
580.506	31.45
580.928	31.33
581.35	31.19
581.772	31.1
582.194	30.99
582.616	30.86
583.038	30.76
583.46	30.65
583.882	30.54
584.303	30.44
584.725	30.32
585.147	30.19
585.568	30.08
585.99	29.99
586.411	29.9
586.833	29.78
587.254	29.72
587.675	29.64
588.096	29.58
588.518	29.5
588.939	29.43
589.36	29.35
589.781	29.31
590.202	29.25
590.623	29.18
591.043	29.1
591.464	29.06
591.885	29
592.305	28.92
592.726	28.86
593.147	28.81
593.567	28.75
593.987	28.72
594.408	28.69
594.828	28.65
595.248	28.62
595.669	28.6
596.089	28.56
596.509	28.49
596.929	28.45
597.349	28.39
597.769	28.34
598.189	28.31
598.608	28.23
599.028	28.16
599.448	28.1
599.867	28.01
600.287	27.92
600.706	27.81
601.126	27.75
601.545	27.66
601.965	27.58
602.384	27.47
602.803	27.36
603.222	27.27
603.641	27.16
604.061	27.05
604.48	26.93
604.898	26.82
605.317	26.72
605.736	26.58
606.155	26.46
606.574	26.34
606.992	26.22
607.411	26.09
607.829	25.93
608.248	25.81
608.666	25.69
609.085	25.59
609.503	25.47
609.921	25.33
610.339	25.21
610.758	25.07
611.176	24.95
611.594	24.82
612.012	24.68
612.43	24.6
612.847	24.47
613.265	24.33
613.683	24.2
614.101	24.06
614.518	23.94
614.936	23.83
615.353	23.74
615.771	23.62
616.188	23.54
616.606	23.44
617.023	23.34
617.44	23.24
617.857	23.16
618.274	23.07
618.691	23
619.108	22.93
619.525	22.86
619.942	22.78
620.359	22.72
620.776	22.65
621.192	22.59
621.609	22.53
622.026	22.5
622.442	22.44
622.859	22.4
623.275	22.38
623.691	22.36
624.108	22.33
624.524	22.29
624.94	22.24
625.356	22.22
625.772	22.23
626.188	22.22
626.604	22.18
627.02	22.17
627.436	22.17
627.852	22.14
628.268	22.1
628.683	22.06
629.099	22.03
629.514	22
629.93	21.97
630.345	21.9
630.761	21.84
631.176	21.79
631.591	21.72
632.007	21.63
632.422	21.55
632.837	21.47
633.252	21.38
633.667	21.3
634.082	21.2
634.497	21.06
634.911	20.93
635.326	20.78
635.741	20.63
636.155	20.48
636.57	20.33
636.984	20.14
637.399	19.95
637.813	19.76
638.228	19.55
638.642	19.37
639.056	19.19
639.47	19
639.884	18.81
640.298	18.6
640.712	18.39
641.126	18.18
641.54	17.99
641.954	17.81
642.368	17.61
642.781	17.39
643.195	17.17
643.609	16.98
644.022	16.77
644.436	16.59
644.849	16.42
645.262	16.25
645.676	16.08
646.089	15.91
646.502	15.74
646.915	15.61
647.328	15.51
647.741	15.38
648.154	15.28
648.567	15.18
648.98	15.08
649.393	14.99
649.805	14.9
650.218	14.81
650.631	14.73
651.043	14.67
651.456	14.59
651.868	14.5
652.28	14.44
652.693	14.32
653.105	14.23
653.517	14.12
653.929	14.02
654.341	13.93
654.753	13.83
655.165	13.72
655.577	13.58
655.989	13.44
656.401	13.31
656.813	13.14
657.224	13.02
657.636	12.89
658.047	12.73
658.459	12.57
658.87	12.41
659.282	12.26
659.693	12.09
660.104	11.94
660.515	11.81
660.926	11.67
661.338	11.54
661.749	11.4
662.159	11.26
662.57	11.15
662.981	11.03
663.392	10.9
663.803	10.79
664.213	10.67
664.624	10.57
665.035	10.45
665.445	10.35
665.855	10.26
666.266	10.18
666.676	10.1
667.086	10.02
667.497	9.95
667.907	9.89
668.317	9.83
668.727	9.79
669.137	9.75
669.547	9.73
669.956	9.7
670.366	9.68
670.776	9.66
671.186	9.65
671.595	9.65
672.005	9.64
672.414	9.65
672.824	9.67
673.233	9.67
673.642	9.67
674.052	9.69
674.461	9.7
674.87	9.73
675.279	9.74
675.688	9.76
676.097	9.79
676.506	9.84
676.915	9.89
677.323	9.93
677.732	10.01
678.141	10.08
678.549	10.15
678.958	10.24
679.366	10.32
679.775	10.44
680.183	10.56
680.592	10.71
681	10.84
681.408	11.01
681.816	11.2
682.224	11.4
682.632	11.65
683.04	11.9
683.448	12.19
683.856	12.52
684.264	12.9
684.671	13.29
685.079	13.7
685.487	14.17
685.894	14.69
686.302	15.22
686.709	15.79
687.116	16.41
687.524	17.06
687.931	17.74
688.338	18.47
688.745	19.22
689.152	20.02
689.559	20.85
689.966	21.69
690.373	22.56
690.78	23.44
691.187	24.34
691.593	25.22
692	26.13
692.407	27.04
692.813	27.94
693.22	28.85
693.626	29.76
694.032	30.65
694.439	31.58
694.845	32.49
695.251	33.37
695.657	34.25
696.063	35.15
696.469	36.03
696.875	36.9
697.281	37.74
697.687	38.6
698.093	39.44
698.498	40.27
698.904	41.06
699.31	41.8
699.715	42.58
700.12	43.33
700.526	44.07
700.931	44.78
701.337	45.48
701.742	46.16
702.147	46.8
702.552	47.44
702.957	48.05
703.362	48.65
703.767	49.27
704.172	49.85
704.577	50.44
704.981	50.97
705.386	51.52
705.791	52.05
706.195	52.56
706.6	53.03
707.004	53.52
707.408	54.01
707.813	54.48
708.217	54.9
708.621	55.35
709.025	55.79
709.43	56.21
709.834	56.65
710.237	57.03
710.641	57.47
711.045	57.89
711.449	58.27
711.853	58.64
712.256	59.09
712.66	59.48
713.064	59.86
713.467	60.2
713.87	60.56
714.274	60.91
714.677	61.27
715.08	61.59
715.484	61.93
715.887	62.27
716.29	62.59
716.693	62.84
717.096	63.15
717.499	63.41
717.901	63.67
718.304	63.97
718.707	64.2
719.109	64.49
719.512	64.78
719.915	65.02
720.317	65.26
720.719	65.46
721.122	65.7
721.524	65.97
721.926	66.23
722.328	66.48
722.731	66.7
723.133	66.94
723.535	67.17
723.937	67.35
724.338	67.5
724.74	67.68
725.142	67.79
725.544	67.93
725.945	67.97
726.347	68.12
726.748	68.24
727.15	68.37
727.551	68.51
727.952	68.61
728.354	68.76
728.755	68.9
729.156	69.04
729.557	69.25
729.958	69.4
730.359	69.55
730.76	69.6
731.161	69.69
731.562	69.78
731.962	69.84
732.363	69.91
732.763	69.99
733.164	70.05
733.564	70.1
733.965	70.15
734.365	70.17
734.766	70.24
735.166	70.31
735.566	70.39
735.966	70.38
736.366	70.45
736.766	70.51
737.166	70.55
737.566	70.6
737.966	70.64
738.365	70.71
738.765	70.76
739.165	70.79
739.564	70.88
739.964	70.9
740.363	70.97
740.763	71.01
741.162	71.01
741.561	71.03
741.96	71.08
742.36	71.14
742.759	71.15
743.158	71.17
743.557	71.23
743.955	71.26
744.354	71.33
744.753	71.39
745.152	71.39
745.55	71.45
745.949	71.5
746.348	71.55
746.746	71.59
747.144	71.67
747.543	71.72
747.941	71.82
748.339	71.9
748.737	71.95
749.136	71.99
749.534	72.08
749.932	72.1
750.33	72.13
750.727	72.11
751.125	72.1
751.523	72.07
751.921	72.09
752.318	72.03
752.716	71.96
753.113	71.89
753.511	71.85
753.908	71.78
754.305	71.72
754.703	71.66
755.1	71.61
755.497	71.58
755.894	71.55
756.291	71.48
756.688	71.45
757.085	71.4
757.482	71.38
757.878	71.38
758.275	71.36
758.672	71.39
759.068	71.42
759.465	71.42
759.861	71.41
760.258	71.4
760.654	71.41
761.05	71.4
761.447	71.36
761.843	71.31
762.239	71.23
762.635	71.23
763.031	71.19
763.427	71.11
763.822	71.1
764.218	71.07
764.614	71.06
765.01	71.02
765.405	70.97
765.801	70.96
766.196	70.99
766.592	71.02
766.987	71.04
767.382	71.04
767.778	71.08
768.173	71.13
768.568	71.13
768.963	71.13
769.358	71.17
769.753	71.24
770.148	71.29
770.542	71.31
770.937	71.3
771.332	71.27
771.726	71.3
772.121	71.24
772.515	71.24
772.91	71.28
773.304	71.28
773.699	71.29
774.093	71.26
774.487	71.25
774.881	71.28
775.275	71.34
775.669	71.38
776.063	71.35
776.457	71.4
776.851	71.38
777.245	71.4
777.638	71.41
778.032	71.4
778.425	71.43
778.819	71.41
779.212	71.34
779.606	71.3
779.999	71.28
780.392	71.29
780.786	71.28
781.179	71.25
781.572	71.24
781.965	71.25
782.358	71.2
782.751	71.16
783.143	71.19
783.536	71.26
783.929	71.3
784.322	71.28
784.714	71.27
785.107	71.29
785.499	71.33
785.891	71.31
786.284	71.25
786.676	71.31
787.068	71.33
787.46	71.3
787.852	71.29
788.245	71.26
788.636	71.25
789.028	71.25
789.42	71.21
789.812	71.21
790.204	71.14
790.595	71.18
790.987	71.19
791.378	71.2
791.77	71.26
792.161	71.28
792.553	71.29
792.944	71.37
793.335	71.41
793.726	71.46
794.117	71.44
794.508	71.5
794.899	71.51
795.29	71.49
795.681	71.54
796.072	71.54
796.463	71.5
796.853	71.52
797.244	71.54
797.634	71.52
798.025	71.52
798.415	71.55
798.806	71.6
799.196	71.61
799.586	71.66
799.976	71.63
800.366	71.67
800.756	71.73
801.146	71.69
801.536	71.67
801.926	71.7
802.316	71.72
802.706	71.76
803.095	71.78
803.485	71.84
803.874	71.86
804.264	71.92
804.653	71.9
805.043	71.93
805.432	71.98
805.821	71.99
806.21	72.07
806.599	72.17
806.988	72.19
807.377	72.23
807.766	72.23
808.155	72.26
808.544	72.25
808.933	72.24
809.321	72.28
809.71	72.33
810.098	72.33
810.487	72.32
810.875	72.26
811.264	72.26
811.652	72.23
812.04	72.24
812.428	72.26
812.816	72.32
813.204	72.37
813.592	72.31
813.98	72.36
814.368	72.38
814.756	72.37
815.144	72.41
815.531	72.43
815.919	72.44
816.306	72.44
816.694	72.45
817.081	72.4
817.469	72.44
817.856	72.53
818.243	72.51
818.63	72.54
819.017	72.57
819.404	72.55
819.791	72.55
820.178	72.57
820.565	72.56
820.952	72.55
821.339	72.61
821.725	72.59
822.112	72.57
822.498	72.56
822.885	72.52
823.271	72.5
823.657	72.5
824.044	72.51
824.43	72.49
824.816	72.5
825.202	72.47
825.588	72.45
825.974	72.41
826.36	72.36
826.746	72.37
827.132	72.38
827.517	72.37
827.903	72.36
828.289	72.33
828.674	72.31
829.06	72.33
829.445	72.38
829.83	72.36
830.216	72.38
830.601	72.42
830.986	72.38
831.371	72.39
831.756	72.4
832.141	72.43
832.526	72.41
832.911	72.45
833.295	72.43
833.68	72.41
834.065	72.43
834.449	72.41
834.834	72.35
835.218	72.38
835.603	72.37
835.987	72.34
836.371	72.34
836.755	72.37
837.139	72.36
837.524	72.37
837.908	72.35
838.291	72.32
838.675	72.33
839.059	72.38
839.443	72.34
839.827	72.36
840.21	72.39
840.594	72.37
840.977	72.32
841.361	72.36
841.744	72.36
842.127	72.36
842.511	72.38
842.894	72.35
843.277	72.35
843.66	72.38
844.043	72.36
844.426	72.34
844.809	72.35
845.191	72.39
845.574	72.34
845.957	72.3
846.339	72.3
846.722	72.28
847.104	72.29
847.487	72.3
847.869	72.3
848.252	72.31
848.634	72.33
849.016	72.35
849.398	72.31
849.78	72.32
850.162	72.37
850.544	72.38
850.926	72.4
851.307	72.39
851.689	72.33
852.071	72.31
852.452	72.28
852.834	72.26
853.215	72.24
853.597	72.28
853.978	72.27
854.359	72.23
854.741	72.21
855.122	72.19
855.503	72.22
855.884	72.23
856.265	72.21
856.646	72.21
857.026	72.19
857.407	72.13
857.788	72.12
858.169	72.12
858.549	72.14
858.93	72.14
859.31	72.1
859.69	72.08
860.071	72.08
860.451	72.1
860.831	72.09
861.211	72.12
861.591	72.2
861.971	72.16
862.351	72.17
862.731	72.14
863.111	72.11
863.491	72.13
863.87	72.13
864.25	72.13
864.629	72.13
865.009	72.14
865.388	72.06
865.768	72.01
866.147	72.03
866.526	71.99
866.905	71.97
867.284	72
867.663	72.02
868.042	71.99
868.421	71.97
868.8	71.94
869.179	71.92
869.558	71.94
869.936	71.93
870.315	71.94
870.693	71.99
871.072	72.01
871.45	71.99
871.828	71.95
872.207	71.97
872.585	71.98
872.963	71.97
873.341	71.99
873.719	71.99
874.097	72.01
874.475	71.98
874.853	71.93
875.23	71.94
875.608	71.95
875.986	71.97
876.363	71.95
876.741	71.95
877.118	71.96
877.495	71.96
877.873	71.99
878.25	72
878.627	72.03
879.004	72.08
879.381	72.08
879.758	72.05
880.135	72.05
880.512	72.09
880.889	72.1
881.265	72.15
881.642	72.15
882.019	72.16
882.395	72.16
882.772	72.15
883.148	72.16
883.524	72.18
883.901	72.19
884.277	72.17
884.653	72.15
885.029	72.16
885.405	72.13
885.781	72.14
886.157	72.13
886.532	72.1
886.908	72.11
887.284	72.11
887.659	72.1
888.035	72.1
888.411	72.1
888.786	72.1
889.161	72.08
889.537	72.08
889.912	72.05
890.287	72.01
890.662	72.03
891.037	71.95
891.412	71.89
891.787	71.84
892.162	71.8
892.536	71.79
892.911	71.74
893.286	71.7
893.66	71.62
894.035	71.56
894.409	71.52
894.784	71.48
895.158	71.49
895.532	71.47
895.906	71.44
896.281	71.41
896.655	71.36
897.029	71.34
897.402	71.33
897.776	71.34
898.15	71.37
898.524	71.38
898.898	71.34
899.271	71.29
899.645	71.27
900.018	71.27
900.392	71.25
900.765	71.28
901.138	71.31
901.511	71.31
901.884	71.32
902.258	71.26
902.631	71.26
903.003	71.28
903.376	71.31
903.749	71.3
904.122	71.3
904.495	71.32
904.867	71.31
905.24	71.29
905.612	71.26
905.985	71.22
906.357	71.25
906.729	71.18
907.102	71.14
907.474	71.13
907.846	71.11
908.218	71.09
908.59	71.07
908.962	71.03
909.334	71.03
909.705	71.02
910.077	71.01
910.449	71.03
910.82	71.04
911.192	71.04
911.563	71.06
911.935	71.05
912.306	71.03
912.677	71.03
913.048	71.01
913.419	71
913.79	71
914.161	70.98
914.532	70.95
914.903	70.94
915.274	70.99
915.645	70.97
916.015	70.98
916.386	70.96
916.756	70.91
917.127	70.89
917.497	70.9
917.868	70.89
918.238	70.92
918.608	70.91
918.978	70.85
919.348	70.78
919.718	70.74
920.088	70.75
920.458	70.78
920.828	70.83
921.198	70.87
921.567	70.89
921.937	70.9
922.306	70.87
922.676	70.84
923.045	70.89
923.415	70.87
923.784	70.91
924.153	70.87
924.522	70.84
924.891	70.79
925.26	70.74
925.629	70.66
925.998	70.64
926.367	70.64
926.736	70.61
927.104	70.59
927.473	70.62
927.842	70.57
928.21	70.61
928.578	70.58
928.947	70.55
929.315	70.55
929.683	70.57
930.051	70.53
930.42	70.45
930.788	70.45
931.156	70.35
931.523	70.27
931.891	70.15
932.259	70.02
932.627	69.88
932.994	69.81
933.362	69.66
933.729	69.53
934.097	69.41
934.464	69.3
934.831	69.15
935.199	69.09
935.566	69.02
935.933	68.98
936.3	68.84
936.667	68.78
937.034	68.67
937.401	68.58
937.767	68.5
938.134	68.49
938.501	68.46
938.867	68.47
939.234	68.5
939.6	68.48
939.967	68.53
940.333	68.74
940.699	68.96
941.065	69.14
941.431	69.39
941.798	69.6
942.163	69.75
942.529	69.88
942.895	70.08
943.261	70.17
943.627	70.33
943.992	70.41
944.358	70.49
944.723	70.49
945.089	70.6
945.454	70.66
945.82	70.6
946.185	70.68
946.55	70.81
946.915	70.84
947.28	70.86
947.645	70.98
948.01	71.07
948.375	71.02
948.74	70.97
949.104	70.96
949.469	70.76
949.834	70.75
950.198	70.51
950.562	70.36
950.927	70.27
951.291	70.23
951.655	70.11
952.02	70.05
952.384	70.06
952.748	70.05
953.112	69.94
953.476	70.05
953.839	70.01
954.203	70.09
954.567	70.1
954.931	70.12
955.294	70.05
955.658	69.98
956.021	69.9
956.385	69.85
956.748	69.77
957.111	69.8
957.474	69.78
957.837	69.81
958.2	69.66
958.563	69.65
958.926	69.48
959.289	69.48
959.652	69.43
960.015	69.36
960.377	69.32
960.74	69.27
961.102	69.19
961.465	69.11
961.827	68.89
962.189	68.93
962.552	68.86
962.914	68.85
963.276	68.85
963.638	68.84
964	68.83
964.362	68.76
964.724	68.79
965.085	68.75
965.447	68.62
965.809	68.65
966.17	68.68
966.532	68.64
966.893	68.64
967.255	68.5
967.616	68.51
967.977	68.49
968.338	68.47
968.699	68.38
969.061	68.39
969.421	68.5
969.782	68.47
970.143	68.41
970.504	68.36
970.865	68.29
971.225	68.3
971.586	68.3
971.946	68.31
972.307	68.3
972.667	68.35
973.027	68.3
973.388	68.21
973.748	68.27
974.108	68.22
974.468	68.27
974.828	68.35
975.188	68.42
975.548	68.35
975.907	68.3
976.267	68.26
976.627	68.21
976.986	68.17
977.346	68.24
977.705	68.25
978.064	68.31
978.424	68.28
978.783	68.25
979.142	68.13
979.501	68.14
979.86	68.15
980.219	68.15
980.578	68.19
980.937	68.27
981.296	68.26
981.654	68.3
982.013	68.31
982.371	68.2
982.73	68.19
983.088	68.19
983.447	68.25
983.805	68.19
984.163	68.17
984.521	68.05
984.879	68.06
985.237	68.06
985.595	67.97
985.953	67.86
986.311	68.05
986.669	68.03
987.026	68.05
987.384	67.98
987.741	67.93
988.099	67.87
988.456	67.89
988.814	67.9
989.171	67.79
989.528	67.78
989.885	67.79
990.242	67.75
990.599	67.78
990.956	67.76
991.313	67.73
991.67	67.83
992.027	67.79
992.383	67.85
992.74	67.66
993.096	67.65
993.453	67.64
993.809	67.71
994.165	67.66
994.522	67.55
994.878	67.57
995.234	67.62
995.59	67.53
995.946	67.72
996.302	67.7
996.658	67.75
997.013	67.83
997.369	67.86
997.725	67.87
998.08	67.8
998.436	67.93
998.791	67.83
999.147	67.77
999.502	67.87
999.857	67.93
1000.212	67.89
1000.567	67.89
1000.922	67.78
1001.277	67.7
1001.632	67.7
1001.987	67.73
1002.342	67.61
1002.696	67.66
1003.051	67.57
1003.406	67.41
1003.76	67.24
1004.114	67.26
1004.469	67.22
1004.823	67.27
1005.177	67.34
1005.531	67.28
1005.885	67.3
1006.239	67.32
1006.593	67.19
1006.947	67.03
1007.301	67.12
1007.655	67.09
1008.008	66.8
1008.362	66.65
1008.715	66.62
1009.069	66.42
1009.422	66.22
1009.776	66.11
1010.129	66.19
1010.482	66.3
1010.835	66.64
1011.188	66.69
1011.541	66.49
1011.894	66.55
1012.247	66.53
1012.6	66.64
1012.952	66.79
1013.305	66.86
1013.657	66.74
1014.01	66.71
1014.362	66.69
1014.715	66.35
1015.067	66.14
1015.419	66.39
1015.771	66.7
1016.123	66.85
1016.475	66.65
1016.827	66.78
1017.179	66.89
1017.531	67.07
1017.883	67.13
1018.234	67.05
1018.586	67.07
1018.938	66.96
1019.289	66.69
1019.64	66.77
1019.992	66.69
1020.343	66.52
1020.694	66.21
1021.045	66.08
1021.396	65.97
1021.747	65.87
1022.098	66.14
1022.449	66.44
1022.8	66.39
1023.151	66.52
1023.501	66.33
1023.852	66.67
1024.202	66.74
1024.553	66.58
1024.903	66.55
1025.253	66.6
1025.604	66.37
1025.954	65.83
1026.304	66
1026.654	66.32
1027.004	66.24
1027.354	65.98
1027.703	65.75
1028.053	65.79
1028.403	66.1
1028.753	66.59
1029.102	66.57
1029.452	66.79
1029.801	67.12
1030.15	66.85
1030.499	66.92
897.758	195.32
901.051	200.89
904.343	208.95
907.636	203.15
910.928	204.71
914.22	206.71
917.511	196.1
920.803	198.5
924.094	190.31
927.384	193.28
930.675	188.15
933.965	186.7
937.255	186.08
940.544	175.72
943.834	173.66
947.123	168.22
950.411	163.01
953.7	164.45
956.988	154.55
960.276	154.57
963.563	155.58
966.851	152.61
970.138	149.95
973.424	142.32
976.711	143.08
979.997	141.1
983.283	137.35
986.568	133.93
989.853	133.22
993.138	130.82
996.423	129.58
999.708	126.11
1002.992	125.88
1006.275	125.2
1009.559	124.97
1012.842	122.22
1016.125	117.92
1019.408	118.05
1022.69	119.42
1025.972	117.58
1029.254	116.15
1032.536	113.84
1035.817	112.7
1039.098	111.86
1042.379	110.54
1045.659	110.5
1048.939	109.9
1052.219	110.22
1055.498	109.53
1058.778	107.05
1062.057	106.74
1065.335	107.16
1068.614	106.53
1071.892	105.17
1075.17	103.68
1078.447	103.2
1081.724	102.15
1085.001	100
1088.278	101.01
1091.554	100.93
1094.83	100.76
1098.106	100.04
1101.382	99.29
1104.657	98.61
1107.932	99.06
1111.206	99.48
1114.481	98.84
1117.755	97.96
1121.029	98.7
1124.302	96.17
1127.575	96.19
1130.848	95.62
1134.121	94.58
1137.393	94.56
1140.665	94.58
1143.937	93.22
1147.208	93.14
1150.48	92.47
1153.75	92.1
1157.021	91.49
1160.291	91.92
1163.561	90.96
1166.831	91.5
1170.101	91.33
1173.37	90.63
1176.639	89.94
1179.907	89.76
1183.176	88.95
1186.444	88.53
1189.711	88.5
1192.979	89.06
1196.246	89.04
1199.513	88.86
1202.78	87.77
1206.046	88.18
1209.312	88.81
1212.578	88.97
1215.843	90.06
1219.108	89.58
1222.373	91.05
1225.638	92.14
1228.902	92.71
1232.166	94.27
1235.43	93.44
1238.693	95.7
1241.956	96.82
1245.219	97.7
1248.482	99.2
1251.744	98.85
1255.006	100.18
1258.268	97.39
1261.529	96.82
1264.79	96.25
1268.051	94.99
1271.312	96.28
1274.572	94.73
1277.832	93.23
1281.092	92.89
1284.351	91.07
1287.61	90.91
1290.869	91.37
1294.128	92
1297.386	91.79
1300.644	90.32
1303.902	90.19
1307.159	89.1
1310.416	89.36
1313.673	90.18
1316.93	89.67
1320.186	90.62
1323.442	90.97
1326.697	89.93
1329.953	89.41
1333.208	90.46
1336.463	93.2
1339.717	93.62
1342.972	95.18
1346.226	96.44
1349.479	95.8
1352.733	98.22
1355.986	98.59
1359.238	99.52
1362.491	98.59
1365.743	103.42
1368.995	103.76
1372.247	97.47
1375.498	96.34
1378.749	97.1
1382	97.52
1385.251	96.29
1388.501	96.22
1391.751	95.42
1395	94.29
1398.25	96.62
1401.499	92.1
1404.748	89.89
1407.996	93.07
1411.244	93.21
1414.492	92.53
1417.74	88.61
1420.987	87.18
1424.234	85.42
1427.481	83.14
1430.728	81.74
1433.974	78.16
1437.22	77.97
1440.465	76.01
1443.711	74.71
1446.956	72.81
1450.201	71.2
1453.445	67.75
1456.689	67.08
1459.933	66.1
1463.177	64.11
1466.42	63.29
1469.663	63.3
1472.906	61.78
1476.148	60.63
1479.391	60.45
1482.633	60.06
1485.874	59.87
1489.115	61.25
1492.356	60.95
1495.597	60.43
1498.838	61.67
1502.078	61.67
1505.318	61.36
1508.557	60.53
1511.797	61.58
1515.036	61.27
1518.274	62.11
1521.513	62.61
1524.751	62.52
1527.989	62.99
1531.227	63.01
1534.464	63.06
1537.701	63.84
1540.938	63.64
1544.174	64.76
1547.41	65.34
1550.646	65.93
1553.882	65.57
1557.117	66.02
1560.352	66.21
1563.587	66.48
1566.821	66.77
1570.055	66.77
1573.289	66.76
1576.523	67.08
1579.756	67.51
1582.989	67.43
1586.222	67.47
1589.454	67.97
1592.686	67.83
1595.918	67.31
1599.15	67.28
1602.381	67.8
1605.612	68.16
1608.843	67.61
1612.073	68.34
1615.303	68.08
1618.533	68.29
1621.762	68.01
1624.992	68.13
1628.221	67.59
1631.449	68.59
1634.678	69.29
1637.906	68.83
1641.134	68.87
1644.361	69.4
1647.588	68.67
1650.815	69.11
1654.042	68.96
1657.269	68.88
1660.495	69.21
1663.72	69.39
1666.946	69.4
1670.171	69.14
1673.396	69.61
1676.621	69.14
1679.845	69.82
1683.069	69.98
1686.293	69.74
1689.517	69.22
1692.74	69.94
1695.963	69.07
1699.185	69.41
1702.408	68.82
1705.63	68.64
1708.852	68.75
1712.073	68.97
1715.294	68.23
1718.515	69.19
1721.736	68.87
1724.956	69.64
1728.176	69.35
1731.396	69.67
1734.616	69.23
1737.835	69.63
1741.054	69.48
1744.272	68.67
1747.491	68.79
1750.709	68.81
1753.927	67.74
1757.144	68.23
1760.361	67.58
1763.578	67.59
1766.795	67.83
1770.011	67.99
1773.227	67.87
1776.443	68.27
1779.658	67.94
1782.874	68.68
1786.089	67.97
1789.303	68.26
1792.518	68.15
1795.732	68.54
1798.945	69.45
1802.159	69.02
1805.372	68.79
1808.585	69.2
1811.797	68.72
1815.01	69.79
1818.222	68.85
1821.434	69.62
1824.645	69.17
1827.856	69.6
1831.067	69.22
1834.278	68.66
1837.488	68.81
1840.698	69.53
1843.908	69.14
1847.117	69.57
1850.326	69.03
1853.535	69.15
1856.744	68.27
1859.952	68.69
1863.16	67.27
1866.368	66.54
1869.575	65.54
1872.782	64.39
1875.989	61.52
1879.196	60.21
1882.402	57.72
1885.608	57.24
1888.814	54.75
1892.019	53.7
1895.224	51.43
1898.429	50.71
1901.634	48.91
1904.838	47.67
1908.042	46.93
1911.246	46.43
1914.449	45.75
1917.652	45.41
1920.855	44.4
1924.058	44.3
1927.26	42.7
1930.462	43.48
1933.664	42.43
1936.865	43.4
1940.066	42.52
1943.267	41.62
1946.467	42.77
1949.668	42.54
1952.868	42.6
1956.067	42.78
1959.267	43.83
1962.466	44.39
1965.665	44.35
1968.863	46.27
1972.061	45.96
1975.259	47.61
1978.457	48.93
1981.654	48.82
1984.852	49.85
1988.048	50.52
1991.245	51.77
1994.441	53.13
1997.637	53.9
2000.833	56.77
2004.028	56.06
2007.223	57.29
2010.418	58.52
2013.613	62.08
2016.807	63.91
2020.001	65.41
2023.194	68.42
2026.388	70.04
2029.581	73.01
2032.774	75
2035.966	75.1
2039.158	78
2042.35	79.08
2045.542	81.69
2048.733	83.18
2051.924	82.96
2055.115	83.79
2058.306	83.41
2061.496	84.17
2064.686	83.08
2067.875	85.59
2071.065	87.2
2074.254	85.71
2077.442	90.34
2080.631	89.37
2083.819	89.14
2087.007	92.24
2090.195	94.07
2093.382	94.47
2096.569	95.19
2099.756	96.01
2102.942	95.88
2106.128	96.15
2109.314	102.02
2112.5	99.8
2115.685	96.78
2118.87	96.62
2122.055	99.68
2125.239	99.06
2128.424	102.33
2131.608	101.33
2134.791	101.32
2137.974	102.73
2141.157	103.79
2144.34	100.34
2147.523	106.15
2150.705	110.76
2153.887	110.83
2157.068	109.92
2160.25	111.45
2163.431	111.36
2166.611	113.67
2169.792	114.74
2172.972	117.32
2176.152	116.59
2179.331	119.93
2182.511	117.55
2185.69	121.05
2188.868	123.07
2192.047	125.98
2195.225	129.29
2198.403	125.69
2201.58	123.69
2204.758	130.62
2207.935	127.21
2211.111	129.75
2214.288	129.91
2217.464	130.44
2220.64	131.47
2223.815	129.71
2226.991	128.97
2230.166	129.69
2233.34	134.93
2236.515	135.56
2239.689	131.78
2242.863	134.86
2246.036	134.43
2249.209	135.07
2252.382	131.68
2255.555	132.56
2258.727	136.45
2261.9	136.79
2265.071	136.95
2268.243	136.2
2271.414	142.02
2274.585	143.8
2277.756	145.68
2280.926	151.57
2284.096	153.02
2287.266	158.42
2290.436	156.32
2293.605	159.44
2296.774	163.57
2299.942	167.39
2303.111	175.67
2306.279	179.43
2309.447	180.48
2312.614	176.75
2315.781	176.15
2318.948	182.83
2322.115	185.16
2325.281	188.06
2328.447	190.79
2331.613	190.09
2334.779	189.04
2337.944	183.81
2341.109	188.55
2344.274	186.12
2347.438	195.09
2350.602	196.98
2353.766	204.43
2356.929	204.86
2360.092	210.68
2363.255	206.46
2366.418	210.93
2369.58	216.75
2372.742	226.06
2375.904	222.71
2379.066	230.88
2382.227	235.57
2385.388	236.38
2388.548	219.51
2391.709	216.62
2394.869	218.74
2398.029	228.85
2401.188	227.69
2404.347	233.6
2407.506	237.85
2410.665	228.74
2413.823	236.18
2416.981	239.63
2420.139	230
2423.296	251.95
2426.453	266.18
2429.61	262.62
2432.767	269.21
2435.923	280.01
2439.079	271.49
2442.235	267.97
2445.391	283.22
2448.546	276.39
2451.701	285.69
2454.855	305.51
2458.009	276.5
2461.163	282.28
2464.317	280.49
2467.471	274.1
2470.624	280.59
2473.777	271.33
2476.929	269.99
2480.082	270.41
2483.234	282.83
2486.385	294.33
2489.537	303.43
2492.688	324.23
2495.839	321.88
2498.989	332.36
2502.14	330.15
2505.29	318.77
2508.439	349.91
2511.589	353.86
2514.738	349.31
2517.887	344.3
2521.035	320.82
2524.183	315.39
2527.331	313.21
2530.479	301.2
2533.627	303.86
