Data from C_2_hir_il_4n_054_Splice17_18.txt Node
Date: Sat Feb 29 14:32:51 EST 2020
User: sa697716
Spectrometer: FLMS03696
Trigger mode: 0
Integration Time (sec): 3.180400E-1
Scans to average: 20
Electric dark correction enabled: true
Nonlinearity correction enabled: true
Boxcar width: 5
XAxis mode: Wavelengths
Number of Pixels in Spectrum: 2048
>>>>>Begin Spectral Data<<<<<
187.83	64.49
188.298	53.77
188.766	53.3
189.233	44.1
189.701	62.37
190.169	67.3
190.636	73.86
191.104	70.83
191.571	330.31
192.039	176.79
192.506	5.22
192.974	1583.5
193.441	122.1
193.908	32.96
194.375	-67.43
194.842	111.66
195.31	61.07
195.777	59.99
196.244	3.11
196.711	16.33
197.177	14.63
197.644	16.79
198.111	16.84
198.578	17
199.045	17.2
199.511	17.76
199.978	17.98
200.445	18.29
200.911	18.4
201.378	19.04
201.844	19.32
202.31	19.92
202.777	19.56
203.243	20.11
203.709	20.55
204.176	20.39
204.642	20.46
205.108	20.47
205.574	21.08
206.04	20.87
206.506	20.99
206.972	21.21
207.438	21.21
207.903	21.57
208.369	21.38
208.835	21.06
209.301	21.19
209.766	21.3
210.232	21.23
210.697	20.77
211.163	21.12
211.628	20.86
212.094	20.53
212.559	20.03
213.024	19.52
213.49	19.53
213.955	19.6
214.42	19.39
214.885	19.16
215.35	18.84
215.815	18.35
216.28	17.97
216.745	17.69
217.21	17.24
217.675	17
218.14	16.41
218.604	15.83
219.069	15.43
219.534	14.98
219.998	14.59
220.463	14.29
220.927	14.04
221.392	13.76
221.856	13.48
222.32	13.31
222.785	13.05
223.249	12.92
223.713	12.8
224.177	12.6
224.642	12.5
225.106	12.39
225.57	12.23
226.034	12.13
226.497	11.99
226.961	11.85
227.425	11.69
227.889	11.57
228.353	11.44
228.816	11.32
229.28	11.19
229.744	11.08
230.207	10.97
230.671	10.89
231.134	10.77
231.597	10.65
232.061	10.56
232.524	10.46
232.987	10.37
233.45	10.28
233.914	10.16
234.377	10.07
234.84	9.95
235.303	9.83
235.766	9.72
236.229	9.62
236.691	9.53
237.154	9.44
237.617	9.35
238.08	9.27
238.542	9.17
239.005	9.09
239.468	9
239.93	8.94
240.393	8.87
240.855	8.78
241.317	8.71
241.78	8.66
242.242	8.58
242.704	8.5
243.166	8.42
243.629	8.35
244.091	8.29
244.553	8.24
245.015	8.18
245.477	8.13
245.939	8.09
246.4	8.03
246.862	7.97
247.324	7.94
247.786	7.9
248.247	7.86
248.709	7.81
249.17	7.77
249.632	7.7
250.093	7.64
250.555	7.6
251.016	7.56
251.477	7.52
251.939	7.48
252.4	7.43
252.861	7.39
253.322	7.35
253.783	7.32
254.244	7.28
254.705	7.28
255.166	7.26
255.627	7.23
256.088	7.2
256.549	7.18
257.009	7.16
257.47	7.14
257.931	7.12
258.391	7.1
258.852	7.06
259.312	7.04
259.773	7.01
260.233	6.98
260.694	6.95
261.154	6.93
261.614	6.89
262.074	6.88
262.534	6.85
262.994	6.83
263.455	6.82
263.915	6.8
264.374	6.78
264.834	6.76
265.294	6.74
265.754	6.72
266.214	6.71
266.673	6.7
267.133	6.68
267.593	6.66
268.052	6.63
268.512	6.62
268.971	6.61
269.431	6.59
269.89	6.57
270.349	6.56
270.809	6.55
271.268	6.54
271.727	6.53
272.186	6.52
272.645	6.5
273.104	6.51
273.563	6.5
274.022	6.49
274.481	6.49
274.94	6.47
275.399	6.47
275.857	6.45
276.316	6.44
276.775	6.42
277.233	6.41
277.692	6.4
278.15	6.37
278.609	6.35
279.067	6.32
279.525	6.3
279.984	6.29
280.442	6.27
280.9	6.25
281.358	6.23
281.816	6.22
282.274	6.21
282.732	6.2
283.19	6.19
283.648	6.18
284.106	6.17
284.564	6.17
285.021	6.16
285.479	6.15
285.937	6.15
286.394	6.14
286.852	6.14
287.309	6.13
287.767	6.12
288.224	6.11
288.682	6.1
289.139	6.09
289.596	6.08
290.053	6.05
290.511	6.04
290.968	6.03
291.425	6.02
291.882	5.99
292.339	5.98
292.796	5.96
293.252	5.94
293.709	5.93
294.166	5.92
294.623	5.9
295.079	5.89
295.536	5.88
295.992	5.86
296.449	5.85
296.905	5.84
297.362	5.82
297.818	5.82
298.274	5.8
298.731	5.79
299.187	5.79
299.643	5.78
300.099	5.78
300.555	5.77
301.011	5.75
301.467	5.74
301.923	5.73
302.379	5.71
302.835	5.7
303.291	5.68
303.746	5.67
304.202	5.66
304.658	5.64
305.113	5.63
305.569	5.62
306.024	5.61
306.479	5.6
306.935	5.59
307.39	5.59
307.845	5.59
308.301	5.59
308.756	5.6
309.211	5.59
309.666	5.59
310.121	5.59
310.576	5.59
311.031	5.59
311.486	5.6
311.94	5.6
312.395	5.6
312.85	5.6
313.305	5.6
313.759	5.59
314.214	5.59
314.668	5.58
315.123	5.59
315.577	5.58
316.032	5.57
316.486	5.57
316.94	5.56
317.394	5.55
317.849	5.56
318.303	5.56
318.757	5.55
319.211	5.54
319.665	5.53
320.119	5.52
320.572	5.5
321.026	5.5
321.48	5.49
321.934	5.48
322.387	5.47
322.841	5.46
323.295	5.45
323.748	5.45
324.202	5.45
324.655	5.45
325.108	5.45
325.562	5.44
326.015	5.43
326.468	5.41
326.921	5.4
327.374	5.4
327.827	5.39
328.28	5.38
328.733	5.35
329.186	5.35
329.639	5.33
330.092	5.32
330.545	5.32
330.997	5.32
331.45	5.31
331.903	5.31
332.355	5.3
332.808	5.3
333.26	5.3
333.713	5.31
334.165	5.31
334.617	5.31
335.069	5.32
335.522	5.32
335.974	5.33
336.426	5.33
336.878	5.33
337.33	5.33
337.782	5.34
338.234	5.35
338.686	5.35
339.137	5.35
339.589	5.35
340.041	5.35
340.493	5.34
340.944	5.34
341.396	5.34
341.847	5.33
342.299	5.32
342.75	5.29
343.201	5.28
343.653	5.28
344.104	5.27
344.555	5.25
345.006	5.25
345.457	5.24
345.908	5.24
346.359	5.24
346.81	5.23
347.261	5.23
347.712	5.23
348.163	5.22
348.613	5.21
349.064	5.19
349.515	5.18
349.965	5.17
350.416	5.16
350.866	5.15
351.317	5.14
351.767	5.14
352.217	5.14
352.668	5.14
353.118	5.14
353.568	5.15
354.018	5.17
354.468	5.17
354.918	5.18
355.368	5.19
355.818	5.18
356.268	5.2
356.718	5.2
357.168	5.2
357.617	5.2
358.067	5.21
358.517	5.22
358.966	5.22
359.416	5.24
359.865	5.24
360.315	5.25
360.764	5.28
361.213	5.28
361.663	5.3
362.112	5.32
362.561	5.33
363.01	5.35
363.459	5.37
363.908	5.38
364.357	5.41
364.806	5.43
365.255	5.46
365.703	5.48
366.152	5.5
366.601	5.53
367.05	5.57
367.498	5.61
367.947	5.64
368.395	5.68
368.844	5.72
369.292	5.75
369.74	5.8
370.189	5.84
370.637	5.89
371.085	5.95
371.533	6
371.981	6.05
372.429	6.08
372.877	6.15
373.325	6.2
373.773	6.27
374.221	6.33
374.669	6.39
375.116	6.46
375.564	6.53
376.012	6.6
376.459	6.67
376.907	6.74
377.354	6.82
377.801	6.89
378.249	6.97
378.696	7.04
379.143	7.12
379.591	7.19
380.038	7.26
380.485	7.34
380.932	7.41
381.379	7.48
381.826	7.55
382.273	7.61
382.72	7.68
383.166	7.75
383.613	7.82
384.06	7.89
384.506	7.94
384.953	8
385.4	8.04
385.846	8.09
386.292	8.14
386.739	8.19
387.185	8.26
387.631	8.3
388.078	8.34
388.524	8.37
388.97	8.39
389.416	8.4
389.862	8.42
390.308	8.46
390.754	8.48
391.2	8.52
391.645	8.55
392.091	8.56
392.537	8.58
392.983	8.61
393.428	8.63
393.874	8.67
394.319	8.7
394.765	8.7
395.21	8.71
395.655	8.72
396.101	8.72
396.546	8.71
396.991	8.72
397.436	8.7
397.881	8.69
398.326	8.71
398.771	8.7
399.216	8.73
399.661	8.74
400.106	8.76
400.551	8.75
400.995	8.72
401.44	8.71
401.885	8.69
402.329	8.68
402.774	8.66
403.218	8.63
403.663	8.61
404.107	8.58
404.551	8.57
404.995	8.53
405.44	8.5
405.884	8.47
406.328	8.46
406.772	8.45
407.216	8.43
407.66	8.41
408.104	8.39
408.547	8.38
408.991	8.36
409.435	8.33
409.879	8.3
410.322	8.29
410.766	8.29
411.209	8.27
411.653	8.24
412.096	8.21
412.54	8.2
412.983	8.18
413.426	8.16
413.869	8.14
414.312	8.14
414.756	8.13
415.199	8.15
415.642	8.16
416.085	8.16
416.527	8.17
416.97	8.17
417.413	8.16
417.856	8.14
418.298	8.13
418.741	8.13
419.184	8.12
419.626	8.1
420.069	8.08
420.511	8.06
420.953	8.04
421.396	8.03
421.838	8.02
422.28	8.03
422.722	8.05
423.164	8.04
423.606	8.03
424.048	8
424.49	8
424.932	7.98
425.374	8
425.816	7.98
426.258	7.97
426.699	7.93
427.141	7.88
427.582	7.85
428.024	7.86
428.465	7.85
428.907	7.87
429.348	7.86
429.789	7.85
430.231	7.81
430.672	7.8
431.113	7.81
431.554	7.81
431.995	7.83
432.436	7.83
432.877	7.79
433.318	7.78
433.759	7.76
434.2	7.75
434.64	7.76
435.081	7.75
435.522	7.76
435.962	7.77
436.403	7.81
436.843	7.84
437.284	7.87
437.724	7.91
438.164	7.93
438.604	7.95
439.045	7.96
439.485	7.97
439.925	7.98
440.365	8
440.805	8
441.245	7.97
441.685	7.96
442.125	7.96
442.564	7.97
443.004	8
443.444	8.02
443.883	8.04
444.323	8.05
444.762	8.1
445.202	8.13
445.641	8.17
446.081	8.22
446.52	8.24
446.959	8.3
447.398	8.32
447.837	8.36
448.276	8.37
448.716	8.42
449.154	8.45
449.593	8.47
450.032	8.49
450.471	8.52
450.91	8.54
451.349	8.55
451.787	8.56
452.226	8.56
452.664	8.56
453.103	8.56
453.541	8.56
453.98	8.57
454.418	8.59
454.856	8.58
455.295	8.56
455.733	8.56
456.171	8.57
456.609	8.57
457.047	8.58
457.485	8.58
457.923	8.59
458.361	8.61
458.798	8.63
459.236	8.63
459.674	8.63
460.111	8.65
460.549	8.64
460.987	8.64
461.424	8.65
461.862	8.63
462.299	8.64
462.736	8.65
463.173	8.64
463.611	8.63
464.048	8.63
464.485	8.63
464.922	8.63
465.359	8.63
465.796	8.61
466.233	8.62
466.67	8.65
467.106	8.64
467.543	8.65
467.98	8.64
468.416	8.65
468.853	8.65
469.29	8.67
469.726	8.67
470.162	8.68
470.599	8.71
471.035	8.71
471.471	8.7
471.907	8.72
472.344	8.72
472.78	8.73
473.216	8.73
473.652	8.72
474.088	8.74
474.523	8.74
474.959	8.75
475.395	8.75
475.831	8.77
476.266	8.79
476.702	8.77
477.138	8.77
477.573	8.75
478.008	8.76
478.444	8.76
478.879	8.76
479.314	8.75
479.75	8.75
480.185	8.75
480.62	8.74
481.055	8.74
481.49	8.74
481.925	8.76
482.36	8.77
482.795	8.77
483.229	8.79
483.664	8.79
484.099	8.8
484.534	8.82
484.968	8.83
485.403	8.86
485.837	8.88
486.271	8.91
486.706	8.92
487.14	8.96
487.574	8.99
488.009	9.03
488.443	9.07
488.877	9.12
489.311	9.18
489.745	9.23
490.179	9.28
490.613	9.33
491.046	9.39
491.48	9.47
491.914	9.54
492.348	9.62
492.781	9.7
493.215	9.79
493.648	9.87
494.082	9.96
494.515	10.05
494.948	10.16
495.382	10.27
495.815	10.38
496.248	10.49
496.681	10.61
497.114	10.73
497.547	10.85
497.98	10.97
498.413	11.12
498.846	11.27
499.279	11.42
499.711	11.56
500.144	11.72
500.577	11.9
501.009	12.07
501.442	12.26
501.874	12.46
502.306	12.67
502.739	12.88
503.171	13.11
503.603	13.32
504.036	13.56
504.468	13.8
504.9	14.06
505.332	14.31
505.764	14.57
506.196	14.84
506.627	15.13
507.059	15.41
507.491	15.7
507.923	15.99
508.354	16.3
508.786	16.61
509.217	16.92
509.649	17.25
510.08	17.58
510.512	17.91
510.943	18.25
511.374	18.58
511.805	18.92
512.237	19.27
512.668	19.61
513.099	19.97
513.53	20.34
513.961	20.71
514.391	21.06
514.822	21.41
515.253	21.75
515.684	22.09
516.114	22.44
516.545	22.78
516.975	23.12
517.406	23.48
517.836	23.79
518.267	24.11
518.697	24.45
519.127	24.79
519.558	25.1
519.988	25.43
520.418	25.76
520.848	26.07
521.278	26.39
521.708	26.67
522.138	26.94
522.567	27.23
522.997	27.5
523.427	27.76
523.857	28.01
524.286	28.27
524.716	28.53
525.145	28.76
525.575	28.99
526.004	29.2
526.433	29.42
526.863	29.65
527.292	29.87
527.721	30.06
528.15	30.24
528.579	30.41
529.008	30.59
529.437	30.74
529.866	30.88
530.295	31.02
530.724	31.17
531.152	31.32
531.581	31.45
532.01	31.55
532.438	31.68
532.867	31.79
533.295	31.89
533.723	31.99
534.152	32.07
534.58	32.16
535.008	32.24
535.436	32.31
535.865	32.38
536.293	32.43
536.721	32.5
537.149	32.53
537.576	32.59
538.004	32.65
538.432	32.69
538.86	32.74
539.287	32.79
539.715	32.83
540.143	32.9
540.57	32.92
540.998	32.97
541.425	33
541.852	33.05
542.28	33.07
542.707	33.11
543.134	33.13
543.561	33.15
543.988	33.17
544.415	33.2
544.842	33.19
545.269	33.23
545.696	33.23
546.123	33.25
546.549	33.28
546.976	33.3
547.403	33.3
547.829	33.34
548.256	33.36
548.682	33.36
549.108	33.38
549.535	33.41
549.961	33.43
550.387	33.46
550.813	33.48
551.24	33.47
551.666	33.49
552.092	33.5
552.518	33.48
552.943	33.48
553.369	33.49
553.795	33.48
554.221	33.48
554.646	33.47
555.072	33.44
555.498	33.4
555.923	33.39
556.349	33.34
556.774	33.3
557.199	33.26
557.625	33.23
558.05	33.16
558.475	33.11
558.9	33.06
559.325	32.97
559.75	32.88
560.175	32.81
560.6	32.72
561.025	32.64
561.449	32.53
561.874	32.44
562.299	32.33
562.723	32.24
563.148	32.11
563.572	31.99
563.997	31.9
564.421	31.78
564.846	31.64
565.27	31.52
565.694	31.38
566.118	31.26
566.542	31.11
566.966	30.98
567.39	30.81
567.814	30.66
568.238	30.48
568.662	30.32
569.086	30.17
569.509	30.02
569.933	29.82
570.357	29.66
570.78	29.48
571.204	29.31
571.627	29.15
572.05	29.01
572.474	28.88
572.897	28.75
573.32	28.57
573.743	28.44
574.166	28.29
574.589	28.16
575.012	28.04
575.435	27.91
575.858	27.82
576.281	27.69
576.704	27.58
577.126	27.44
577.549	27.34
577.972	27.25
578.394	27.13
578.817	27.04
579.239	26.96
579.661	26.86
580.084	26.78
580.506	26.68
580.928	26.58
581.35	26.51
581.772	26.44
582.194	26.35
582.616	26.28
583.038	26.21
583.46	26.16
583.882	26.09
584.303	26.02
584.725	25.96
585.147	25.87
585.568	25.79
585.99	25.71
586.411	25.64
586.833	25.58
587.254	25.52
587.675	25.45
588.096	25.37
588.518	25.29
588.939	25.25
589.36	25.2
589.781	25.16
590.202	25.1
590.623	25.05
591.043	25
591.464	24.94
591.885	24.9
592.305	24.89
592.726	24.84
593.147	24.81
593.567	24.75
593.987	24.7
594.408	24.68
594.828	24.64
595.248	24.61
595.669	24.58
596.089	24.56
596.509	24.51
596.929	24.45
597.349	24.41
597.769	24.36
598.189	24.33
598.608	24.27
599.028	24.22
599.448	24.18
599.867	24.15
600.287	24.09
600.706	24.03
601.126	23.96
601.545	23.89
601.965	23.83
602.384	23.78
602.803	23.71
603.222	23.65
603.641	23.58
604.061	23.51
604.48	23.42
604.898	23.35
605.317	23.27
605.736	23.2
606.155	23.13
606.574	23.05
606.992	22.96
607.411	22.89
607.829	22.78
608.248	22.69
608.666	22.61
609.085	22.53
609.503	22.44
609.921	22.37
610.339	22.28
610.758	22.18
611.176	22.08
611.594	22
612.012	21.91
612.43	21.86
612.847	21.77
613.265	21.68
613.683	21.59
614.101	21.48
614.518	21.38
614.936	21.3
615.353	21.23
615.771	21.16
616.188	21.08
616.606	21
617.023	20.92
617.44	20.86
617.857	20.79
618.274	20.74
618.691	20.69
619.108	20.63
619.525	20.58
619.942	20.52
620.359	20.49
620.776	20.45
621.192	20.41
621.609	20.37
622.026	20.34
622.442	20.32
622.859	20.27
623.275	20.25
623.691	20.23
624.108	20.21
624.524	20.2
624.94	20.16
625.356	20.13
625.772	20.12
626.188	20.12
626.604	20.09
627.02	20.08
627.436	20.07
627.852	20.03
628.268	20.02
628.683	19.99
629.099	19.98
629.514	19.95
629.93	19.92
630.345	19.87
630.761	19.82
631.176	19.79
631.591	19.73
632.007	19.68
632.422	19.63
632.837	19.55
633.252	19.48
633.667	19.36
634.082	19.28
634.497	19.18
634.911	19.05
635.326	18.94
635.741	18.79
636.155	18.66
636.57	18.53
636.984	18.37
637.399	18.22
637.813	18.05
638.228	17.91
638.642	17.75
639.056	17.58
639.47	17.42
639.884	17.24
640.298	17.06
640.712	16.87
641.126	16.68
641.54	16.5
641.954	16.34
642.368	16.16
642.781	15.98
643.195	15.79
643.609	15.62
644.022	15.46
644.436	15.31
644.849	15.16
645.262	15.03
645.676	14.89
646.089	14.76
646.502	14.61
646.915	14.5
647.328	14.37
647.741	14.26
648.154	14.18
648.567	14.08
648.98	14
649.393	13.93
649.805	13.84
650.218	13.76
650.631	13.71
651.043	13.67
651.456	13.62
651.868	13.57
652.28	13.54
652.693	13.47
653.105	13.41
653.517	13.34
653.929	13.26
654.341	13.21
654.753	13.13
655.165	13.03
655.577	12.92
655.989	12.8
656.401	12.68
656.813	12.55
657.224	12.43
657.636	12.3
658.047	12.17
658.459	12.04
658.87	11.89
659.282	11.76
659.693	11.62
660.104	11.49
660.515	11.36
660.926	11.24
661.338	11.12
661.749	10.99
662.159	10.85
662.57	10.73
662.981	10.6
663.392	10.48
663.803	10.36
664.213	10.26
664.624	10.17
665.035	10.06
665.445	9.98
665.855	9.89
666.266	9.81
666.676	9.74
667.086	9.68
667.497	9.62
667.907	9.55
668.317	9.49
668.727	9.44
669.137	9.38
669.547	9.35
669.956	9.3
670.366	9.28
670.776	9.25
671.186	9.24
671.595	9.24
672.005	9.24
672.414	9.23
672.824	9.24
673.233	9.27
673.642	9.27
674.052	9.28
674.461	9.3
674.87	9.32
675.279	9.35
675.688	9.37
676.097	9.39
676.506	9.44
676.915	9.51
677.323	9.57
677.732	9.62
678.141	9.7
678.549	9.79
678.958	9.88
679.366	9.97
679.775	10.09
680.183	10.23
680.592	10.38
681	10.52
681.408	10.68
681.816	10.84
682.224	11.05
682.632	11.29
683.04	11.52
683.448	11.78
683.856	12.09
684.264	12.42
684.671	12.77
685.079	13.14
685.487	13.55
685.894	14
686.302	14.46
686.709	14.94
687.116	15.43
687.524	15.97
687.931	16.5
688.338	17.07
688.745	17.67
689.152	18.29
689.559	18.91
689.966	19.53
690.373	20.18
690.78	20.85
691.187	21.53
691.593	22.19
692	22.88
692.407	23.58
692.813	24.25
693.22	24.91
693.626	25.59
694.032	26.26
694.439	26.94
694.845	27.58
695.251	28.23
695.657	28.84
696.063	29.49
696.469	30.1
696.875	30.67
697.281	31.24
697.687	31.83
698.093	32.36
698.498	32.91
698.904	33.43
699.31	33.94
699.715	34.44
700.12	34.93
700.526	35.41
700.931	35.86
701.337	36.35
701.742	36.8
702.147	37.23
702.552	37.65
702.957	38.06
703.362	38.48
703.767	38.86
704.172	39.25
704.577	39.63
704.981	39.99
705.386	40.35
705.791	40.69
706.195	41.02
706.6	41.33
707.004	41.65
707.408	41.97
707.813	42.25
708.217	42.54
708.621	42.82
709.025	43.12
709.43	43.38
709.834	43.66
710.237	43.91
710.641	44.2
711.045	44.43
711.449	44.67
711.853	44.9
712.256	45.15
712.66	45.39
713.064	45.64
713.467	45.85
713.87	46.08
714.274	46.3
714.677	46.51
715.08	46.69
715.484	46.92
715.887	47.13
716.29	47.32
716.693	47.51
717.096	47.68
717.499	47.84
717.901	47.98
718.304	48.14
718.707	48.27
719.109	48.44
719.512	48.62
719.915	48.78
720.317	48.95
720.719	49.09
721.122	49.2
721.524	49.34
721.926	49.48
722.328	49.62
722.731	49.74
723.133	49.87
723.535	49.99
723.937	50.11
724.338	50.18
724.74	50.26
725.142	50.29
725.544	50.38
725.945	50.43
726.347	50.49
726.748	50.57
727.15	50.67
727.551	50.75
727.952	50.82
728.354	50.88
728.755	50.97
729.156	51.03
729.557	51.18
729.958	51.3
730.359	51.4
730.76	51.47
731.161	51.51
731.562	51.56
731.962	51.61
732.363	51.64
732.763	51.67
733.164	51.7
733.564	51.74
733.965	51.75
734.365	51.75
734.766	51.76
735.166	51.77
735.566	51.78
735.966	51.83
736.366	51.79
736.766	51.82
737.166	51.86
737.566	51.88
737.966	51.91
738.365	51.93
738.765	51.97
739.165	51.99
739.564	52.02
739.964	52.04
740.363	52.02
740.763	52.03
741.162	52.05
741.561	52.05
741.96	52.06
742.36	52.07
742.759	52.09
743.158	52.05
743.557	52.07
743.955	52.09
744.354	52.1
744.753	52.14
745.152	52.18
745.55	52.24
745.949	52.25
746.348	52.29
746.746	52.29
747.144	52.32
747.543	52.39
747.941	52.45
748.339	52.51
748.737	52.57
749.136	52.58
749.534	52.62
749.932	52.62
750.33	52.66
750.727	52.64
751.125	52.69
751.523	52.7
751.921	52.7
752.318	52.67
752.716	52.63
753.113	52.61
753.511	52.59
753.908	52.56
754.305	52.51
754.703	52.47
755.1	52.49
755.497	52.43
755.894	52.4
756.291	52.35
756.688	52.34
757.085	52.33
757.482	52.29
757.878	52.3
758.275	52.28
758.672	52.31
759.068	52.32
759.465	52.28
759.861	52.26
760.258	52.25
760.654	52.27
761.05	52.26
761.447	52.26
761.843	52.25
762.239	52.22
762.635	52.16
763.031	52.12
763.427	52.06
763.822	52.05
764.218	52.01
764.614	51.98
765.01	51.92
765.405	51.86
765.801	51.8
766.196	51.79
766.592	51.79
766.987	51.83
767.382	51.84
767.778	51.85
768.173	51.84
768.568	51.85
768.963	51.85
769.358	51.83
769.753	51.87
770.148	51.9
770.542	51.87
770.937	51.86
771.332	51.83
771.726	51.81
772.121	51.79
772.515	51.78
772.91	51.8
773.304	51.8
773.699	51.82
774.093	51.77
774.487	51.75
774.881	51.77
775.275	51.75
775.669	51.74
776.063	51.72
776.457	51.72
776.851	51.7
777.245	51.7
777.638	51.74
778.032	51.74
778.425	51.77
778.819	51.77
779.212	51.74
779.606	51.74
779.999	51.75
780.392	51.79
780.786	51.8
781.179	51.82
781.572	51.79
781.965	51.76
782.358	51.74
782.751	51.72
783.143	51.71
783.536	51.8
783.929	51.83
784.322	51.8
784.714	51.77
785.107	51.79
785.499	51.79
785.891	51.78
786.284	51.76
786.676	51.81
787.068	51.82
787.46	51.85
787.852	51.81
788.245	51.82
788.636	51.86
789.028	51.87
789.42	51.86
789.812	51.88
790.204	51.87
790.595	51.9
790.987	51.88
791.378	51.88
791.77	51.91
792.161	51.93
792.553	51.92
792.944	51.91
793.335	51.96
793.726	51.9
794.117	51.89
794.508	51.93
794.899	51.9
795.29	51.9
795.681	51.91
796.072	51.87
796.463	51.8
796.853	51.81
797.244	51.81
797.634	51.77
798.025	51.82
798.415	51.84
798.806	51.86
799.196	51.9
799.586	51.91
799.976	51.9
800.366	51.95
800.756	52
801.146	52
801.536	52.02
801.926	52.03
802.316	52.02
802.706	52.03
803.095	52.02
803.485	52.02
803.874	52.05
804.264	52.07
804.653	52.05
805.043	52.06
805.432	52.05
805.821	52.04
806.21	52.06
806.599	52.15
806.988	52.15
807.377	52.16
807.766	52.2
808.155	52.24
808.544	52.23
808.933	52.24
809.321	52.25
809.71	52.3
810.098	52.31
810.487	52.33
810.875	52.28
811.264	52.27
811.652	52.28
812.04	52.25
812.428	52.25
812.816	52.3
813.204	52.32
813.592	52.31
813.98	52.27
814.368	52.32
814.756	52.31
815.144	52.36
815.531	52.38
815.919	52.38
816.306	52.37
816.694	52.37
817.081	52.34
817.469	52.36
817.856	52.44
818.243	52.47
818.63	52.51
819.017	52.55
819.404	52.52
819.791	52.53
820.178	52.58
820.565	52.61
820.952	52.64
821.339	52.69
821.725	52.7
822.112	52.69
822.498	52.7
822.885	52.69
823.271	52.69
823.657	52.72
824.044	52.74
824.43	52.77
824.816	52.75
825.202	52.71
825.588	52.68
825.974	52.68
826.36	52.66
826.746	52.67
827.132	52.65
827.517	52.66
827.903	52.67
828.289	52.67
828.674	52.6
829.06	52.61
829.445	52.63
829.83	52.64
830.216	52.65
830.601	52.66
830.986	52.64
831.371	52.65
831.756	52.62
832.141	52.59
832.526	52.58
832.911	52.63
833.295	52.65
833.68	52.64
834.065	52.65
834.449	52.62
834.834	52.6
835.218	52.59
835.603	52.55
835.987	52.55
836.371	52.54
836.755	52.54
837.139	52.49
837.524	52.46
837.908	52.43
838.291	52.39
838.675	52.41
839.059	52.39
839.443	52.35
839.827	52.36
840.21	52.38
840.594	52.37
840.977	52.36
841.361	52.37
841.744	52.37
842.127	52.38
842.511	52.39
842.894	52.35
843.277	52.37
843.66	52.41
844.043	52.42
844.426	52.39
844.809	52.38
845.191	52.35
845.574	52.33
845.957	52.31
846.339	52.31
846.722	52.3
847.104	52.31
847.487	52.29
847.869	52.24
848.252	52.24
848.634	52.25
849.016	52.28
849.398	52.29
849.78	52.3
850.162	52.33
850.544	52.32
850.926	52.31
851.307	52.32
851.689	52.31
852.071	52.34
852.452	52.31
852.834	52.3
853.215	52.28
853.597	52.28
853.978	52.29
854.359	52.26
854.741	52.27
855.122	52.29
855.503	52.3
855.884	52.29
856.265	52.27
856.646	52.3
857.026	52.3
857.407	52.26
857.788	52.28
858.169	52.28
858.549	52.31
858.93	52.32
859.31	52.29
859.69	52.3
860.071	52.32
860.451	52.34
860.831	52.33
861.211	52.33
861.591	52.37
861.971	52.34
862.351	52.38
862.731	52.37
863.111	52.36
863.491	52.37
863.87	52.35
864.25	52.37
864.629	52.36
865.009	52.36
865.388	52.38
865.768	52.36
866.147	52.4
866.526	52.38
866.905	52.35
867.284	52.35
867.663	52.37
868.042	52.38
868.421	52.35
868.8	52.35
869.179	52.34
869.558	52.31
869.936	52.32
870.315	52.29
870.693	52.3
871.072	52.31
871.45	52.29
871.828	52.28
872.207	52.27
872.585	52.28
872.963	52.29
873.341	52.27
873.719	52.27
874.097	52.26
874.475	52.26
874.853	52.23
875.23	52.22
875.608	52.21
875.986	52.17
876.363	52.17
876.741	52.15
877.118	52.14
877.495	52.14
877.873	52.12
878.25	52.09
878.627	52.07
879.004	52.06
879.381	52.08
879.758	52.08
880.135	52.12
880.512	52.12
880.889	52.13
881.265	52.14
881.642	52.14
882.019	52.17
882.395	52.2
882.772	52.21
883.148	52.22
883.524	52.24
883.901	52.22
884.277	52.25
884.653	52.24
885.029	52.24
885.405	52.21
885.781	52.21
886.157	52.2
886.532	52.2
886.908	52.22
887.284	52.21
887.659	52.2
888.035	52.23
888.411	52.17
888.786	52.17
889.161	52.15
889.537	52.15
889.912	52.11
890.287	52.1
890.662	52.1
891.037	52.06
891.412	52.02
891.787	51.98
892.162	51.97
892.536	51.95
892.911	51.95
893.286	51.92
893.66	51.91
894.035	51.91
894.409	51.89
894.784	51.86
895.158	51.83
895.532	51.84
895.906	51.81
896.281	51.78
896.655	51.76
897.029	51.71
897.402	51.72
897.776	51.7
898.15	51.71
898.524	51.68
898.898	51.64
899.271	51.64
899.645	51.61
900.018	51.62
900.392	51.62
900.765	51.64
901.138	51.66
901.511	51.67
901.884	51.67
902.258	51.64
902.631	51.65
903.003	51.64
903.376	51.6
903.749	51.62
904.122	51.62
904.495	51.6
904.867	51.58
905.24	51.55
905.612	51.52
905.985	51.5
906.357	51.46
906.729	51.45
907.102	51.49
907.474	51.52
907.846	51.5
908.218	51.45
908.59	51.42
908.962	51.43
909.334	51.42
909.705	51.38
910.077	51.37
910.449	51.39
910.82	51.34
911.192	51.34
911.563	51.32
911.935	51.27
912.306	51.31
912.677	51.34
913.048	51.34
913.419	51.31
913.79	51.33
914.161	51.34
914.532	51.34
914.903	51.38
915.274	51.32
915.645	51.35
916.015	51.39
916.386	51.34
916.756	51.29
917.127	51.27
917.497	51.3
917.868	51.29
918.238	51.31
918.608	51.31
918.978	51.27
919.348	51.26
919.718	51.25
920.088	51.26
920.458	51.31
920.828	51.34
921.198	51.34
921.567	51.31
921.937	51.35
922.306	51.32
922.676	51.33
923.045	51.34
923.415	51.34
923.784	51.34
924.153	51.3
924.522	51.27
924.891	51.25
925.26	51.26
925.629	51.24
925.998	51.23
926.367	51.22
926.736	51.17
927.104	51.16
927.473	51.16
927.842	51.11
928.21	51.12
928.578	51.09
928.947	51.06
929.315	51.06
929.683	51.05
930.051	51.02
930.42	50.99
930.788	50.97
931.156	50.93
931.523	50.88
931.891	50.84
932.259	50.76
932.627	50.66
932.994	50.66
933.362	50.55
933.729	50.47
934.097	50.41
934.464	50.33
934.831	50.26
935.199	50.21
935.566	50.15
935.933	50.07
936.3	50
936.667	50.01
937.034	49.83
937.401	49.82
937.767	49.78
938.134	49.71
938.501	49.69
938.867	49.68
939.234	49.7
939.6	49.69
939.967	49.74
940.333	49.79
940.699	49.83
941.065	49.97
941.431	50.03
941.798	50.1
942.163	50.19
942.529	50.23
942.895	50.36
943.261	50.35
943.627	50.4
943.992	50.45
944.358	50.49
944.723	50.5
945.089	50.54
945.454	50.55
945.82	50.55
946.185	50.53
946.55	50.66
946.915	50.55
947.28	50.58
947.645	50.64
948.01	50.57
948.375	50.57
948.74	50.52
949.104	50.53
949.469	50.45
949.834	50.42
950.198	50.45
950.562	50.36
950.927	50.34
951.291	50.3
951.655	50.27
952.02	50.34
952.384	50.35
952.748	50.41
953.112	50.36
953.476	50.39
953.839	50.36
954.203	50.31
954.567	50.23
954.931	50.24
955.294	50.21
955.658	50.1
956.021	50.04
956.385	50.05
956.748	50
957.111	49.94
957.474	49.96
957.837	50
958.2	49.91
958.563	49.91
958.926	49.89
959.289	49.88
959.652	49.87
960.015	49.84
960.377	49.74
960.74	49.63
961.102	49.64
961.465	49.54
961.827	49.32
962.189	49.29
962.552	49.23
962.914	49.17
963.276	49.16
963.638	49.23
964	49.22
964.362	49.22
964.724	49.31
965.085	49.3
965.447	49.3
965.809	49.34
966.17	49.36
966.532	49.42
966.893	49.42
967.255	49.38
967.616	49.27
967.977	49.22
968.338	49.14
968.699	49.04
969.061	48.94
969.421	48.94
969.782	48.99
970.143	48.9
970.504	48.8
970.865	48.71
971.225	48.67
971.586	48.76
971.946	48.74
972.307	48.77
972.667	48.79
973.027	48.88
973.388	48.81
973.748	48.84
974.108	48.92
974.468	48.97
974.828	49.05
975.188	49.02
975.548	48.92
975.907	48.97
976.267	48.92
976.627	48.9
976.986	48.8
977.346	48.84
977.705	48.71
978.064	48.69
978.424	48.67
978.783	48.7
979.142	48.74
979.501	48.76
979.86	48.72
980.219	48.73
980.578	48.74
980.937	48.81
981.296	48.84
981.654	48.92
982.013	48.91
982.371	48.85
982.73	48.78
983.088	48.73
983.447	48.77
983.805	48.74
984.163	48.77
984.521	48.66
984.879	48.63
985.237	48.61
985.595	48.62
985.953	48.63
986.311	48.68
986.669	48.67
987.026	48.69
987.384	48.58
987.741	48.59
988.099	48.53
988.456	48.61
988.814	48.59
989.171	48.49
989.528	48.45
989.885	48.33
990.242	48.33
990.599	48.32
990.956	48.35
991.313	48.3
991.67	48.32
992.027	48.36
992.383	48.37
992.74	48.21
993.096	48.2
993.453	48.24
993.809	48.41
994.165	48.32
994.522	48.27
994.878	48.2
995.234	48.21
995.59	48.16
995.946	48.18
996.302	48.08
996.658	48.16
997.013	48.25
997.369	48.07
997.725	47.89
998.08	47.9
998.436	47.97
998.791	47.92
999.147	47.94
999.502	47.99
999.857	47.94
1000.212	47.8
1000.567	47.82
1000.922	47.78
1001.277	47.77
1001.632	47.91
1001.987	47.88
1002.342	47.84
1002.696	47.98
1003.051	47.93
1003.406	47.72
1003.76	47.71
1004.114	47.87
1004.469	47.86
1004.823	47.9
1005.177	48.05
1005.531	47.94
1005.885	47.98
1006.239	47.79
1006.593	47.55
1006.947	47.51
1007.301	47.73
1007.655	47.82
1008.008	47.62
1008.362	47.5
1008.715	47.26
1009.069	47.15
1009.422	47.08
1009.776	46.98
1010.129	47.06
1010.482	47.19
1010.835	47.26
1011.188	47.07
1011.541	46.93
1011.894	46.99
1012.247	47.11
1012.6	47.23
1012.952	47.18
1013.305	47.11
1013.657	46.87
1014.01	47.01
1014.362	46.85
1014.715	46.65
1015.067	46.57
1015.419	46.47
1015.771	46.56
1016.123	46.61
1016.475	46.64
1016.827	46.84
1017.179	46.77
1017.531	47.02
1017.883	46.95
1018.234	47.03
1018.586	47.1
1018.938	46.96
1019.289	46.83
1019.64	46.85
1019.992	46.75
1020.343	46.48
1020.694	46.32
1021.045	46.44
1021.396	46.48
1021.747	46.33
1022.098	46.42
1022.449	46.53
1022.8	46.44
1023.151	46.43
1023.501	46.27
1023.852	46.19
1024.202	46.19
1024.553	46.07
1024.903	46.06
1025.253	46
1025.604	46.03
1025.954	45.63
1026.304	45.72
1026.654	46.01
1027.004	46.01
1027.354	46.17
1027.703	45.71
1028.053	45.61
1028.403	44.99
1028.753	44.72
1029.102	44.65
1029.452	44.51
1029.801	44.69
1030.15	44.39
1030.499	44.13
897.758	460.14
901.051	466.5
904.343	472.92
907.636	467.07
910.928	459.57
914.22	464.05
917.511	454.02
920.803	433.15
924.094	416.04
927.384	420.57
930.675	407.55
933.965	403.19
937.255	406.41
940.544	386.39
943.834	366.19
947.123	361.39
950.411	343.74
953.7	338.76
956.988	332.05
960.276	317.09
963.563	312.15
966.851	296.06
970.138	291.12
973.424	269.66
976.711	266.26
979.997	260.71
983.283	254.61
986.568	247.4
989.853	238.94
993.138	228.69
996.423	228.5
999.708	220.71
1002.992	222.02
1006.275	214.37
1009.559	212.6
1012.842	207
1016.125	200.46
1019.408	196.25
1022.69	195.79
1025.972	194.16
1029.254	191.75
1032.536	185.81
1035.817	181.15
1039.098	178.57
1042.379	176.33
1045.659	174.42
1048.939	174.62
1052.219	170.14
1055.498	168.26
1058.778	165.3
1062.057	162.29
1065.335	160.94
1068.614	159.47
1071.892	158.2
1075.17	154.66
1078.447	152.87
1081.724	151.75
1085.001	147.62
1088.278	148.26
1091.554	147.25
1094.83	145.38
1098.106	144.55
1101.382	143.02
1104.657	141.98
1107.932	141.41
1111.206	141.73
1114.481	139.01
1117.755	137.81
1121.029	137.67
1124.302	136.27
1127.575	134.21
1130.848	134.12
1134.121	131.81
1137.393	131.66
1140.665	130.49
1143.937	129.23
1147.208	127.12
1150.48	127.49
1153.75	125.93
1157.021	124.76
1160.291	123.99
1163.561	123.31
1166.831	123.44
1170.101	123.19
1173.37	121.77
1176.639	120.98
1179.907	120.43
1183.176	120.4
1186.444	120.5
1189.711	120.09
1192.979	120.75
1196.246	121.33
1199.513	121.37
1202.78	120.18
1206.046	120.66
1209.312	121.28
1212.578	122.22
1215.843	123.95
1219.108	124.77
1222.373	126.11
1225.638	128.51
1228.902	131.42
1232.166	134.21
1235.43	135.29
1238.693	139.56
1241.956	142.42
1245.219	144.79
1248.482	146.49
1251.744	146.56
1255.006	146.61
1258.268	143.72
1261.529	142.24
1264.79	138.39
1268.051	136.39
1271.312	135.74
1274.572	132.44
1277.832	129.18
1281.092	128.12
1284.351	125.25
1287.61	124.9
1290.869	124.93
1294.128	123.83
1297.386	123.9
1300.644	123.27
1303.902	122.15
1307.159	120.41
1310.416	121.6
1313.673	123.03
1316.93	124.76
1320.186	126.49
1323.442	127.63
1326.697	129.66
1329.953	130.14
1333.208	132.68
1336.463	138.91
1339.717	142.09
1342.972	148.24
1346.226	151.62
1349.479	152.86
1352.733	158.27
1355.986	161.16
1359.238	164.87
1362.491	163.94
1365.743	171.28
1368.995	174.89
1372.247	170.89
1375.498	168.83
1378.749	175.85
1382	174.85
1385.251	173.4
1388.501	174.51
1391.751	175.76
1395	171.8
1398.25	174.35
1401.499	172.15
1404.748	168.43
1407.996	165.91
1411.244	166.42
1414.492	163.1
1417.74	158.74
1420.987	154.22
1424.234	149.54
1427.481	143.75
1430.728	141.36
1433.974	136.23
1437.22	131.3
1440.465	127.45
1443.711	124.01
1446.956	120.64
1450.201	115.28
1453.445	110.29
1456.689	107.93
1459.933	104.75
1463.177	100.01
1466.42	98.65
1469.663	95.26
1472.906	93.12
1476.148	90.66
1479.391	88.78
1482.633	87.18
1485.874	86.23
1489.115	85.48
1492.356	83.97
1495.597	82.24
1498.838	82.93
1502.078	81.69
1505.318	81.56
1508.557	80.92
1511.797	80.19
1515.036	80.32
1518.274	79.32
1521.513	79.06
1524.751	78.58
1527.989	79.4
1531.227	79.33
1534.464	78.96
1537.701	78.99
1540.938	78.74
1544.174	79.16
1547.41	79.53
1550.646	79.58
1553.882	80.01
1557.117	79.07
1560.352	79.37
1563.587	78.68
1566.821	78.83
1570.055	78.25
1573.289	78.41
1576.523	78.28
1579.756	77.91
1582.989	77.97
1586.222	77.38
1589.454	77.76
1592.686	78.66
1595.918	77.75
1599.15	77.79
1602.381	78.15
1605.612	78.65
1608.843	78.12
1612.073	79.17
1615.303	79.36
1618.533	78.88
1621.762	79.27
1624.992	79.67
1628.221	79.14
1631.449	80.15
1634.678	80.44
1637.906	80.01
1641.134	80.2
1644.361	80.56
1647.588	80.29
1650.815	80.63
1654.042	80.83
1657.269	80.79
1660.495	80.98
1663.72	81
1666.946	81.05
1670.171	81.24
1673.396	82.14
1676.621	82.04
1679.845	81.67
1683.069	81.7
1686.293	81.49
1689.517	81.91
1692.74	82.04
1695.963	81.93
1699.185	82.33
1702.408	82.19
1705.63	82.36
1708.852	82.31
1712.073	82.03
1715.294	82.43
1718.515	82.62
1721.736	82.63
1724.956	83.24
1728.176	83.02
1731.396	82.98
1734.616	82.98
1737.835	83.04
1741.054	82.6
1744.272	82.71
1747.491	82.77
1750.709	83.17
1753.927	83.12
1757.144	83.83
1760.361	83.18
1763.578	84.04
1766.795	84.36
1770.011	84.4
1773.227	84.64
1776.443	85.58
1779.658	85.12
1782.874	85.87
1786.089	85.67
1789.303	85.85
1792.518	85.64
1795.732	86.52
1798.945	87.07
1802.159	87.03
1805.372	87.95
1808.585	88.84
1811.797	88.71
1815.01	89.76
1818.222	90.23
1821.434	91.34
1824.645	91.36
1827.856	93.16
1831.067	93.07
1834.278	93.14
1837.488	94.05
1840.698	95.13
1843.908	94.75
1847.117	96.02
1850.326	96.4
1853.535	97.17
1856.744	96.98
1859.952	98.25
1863.16	97.15
1866.368	96.38
1869.575	97.41
1872.782	96.56
1875.989	94.52
1879.196	95.18
1882.402	94.12
1885.608	94.5
1888.814	93.75
1892.019	94.56
1895.224	93.13
1898.429	93.7
1901.634	94.5
1904.838	94.42
1908.042	95.02
1911.246	96.07
1914.449	96.14
1917.652	95.24
1920.855	95.22
1924.058	95.03
1927.26	94.54
1930.462	95.26
1933.664	95.58
1936.865	96.08
1940.066	94.23
1943.267	93.61
1946.467	94.12
1949.668	94.08
1952.868	94.67
1956.067	94.92
1959.267	94.16
1962.466	94.81
1965.665	95.72
1968.863	95.89
1972.061	96
1975.259	98.59
1978.457	101.05
1981.654	100.47
1984.852	101.41
1988.048	102.93
1991.245	104.24
1994.441	107.52
1997.637	108.66
2000.833	110.87
2004.028	111.89
2007.223	115.03
2010.418	117.35
2013.613	121.32
2016.807	125.79
2020.001	128.1
2023.194	131.64
2026.388	136.72
2029.581	142.63
2032.774	147.93
2035.966	152.27
2039.158	156.82
2042.35	160.74
2045.542	161.28
2048.733	167.09
2051.924	166.64
2055.115	171.01
2058.306	172.59
2061.496	174.37
2064.686	176.51
2067.875	173.99
2071.065	177
2074.254	177.21
2077.442	181.93
2080.631	184.62
2083.819	184.48
2087.007	190.28
2090.195	191.36
2093.382	192.52
2096.569	193.7
2099.756	195.07
2102.942	200.59
2106.128	203.1
2109.314	207.26
2112.5	206.79
2115.685	206.81
2118.87	207.12
2122.055	208.73
2125.239	212.67
2128.424	218.8
2131.608	214.42
2134.791	215.21
2137.974	216.9
2141.157	218.42
2144.34	217.57
2147.523	221.5
2150.705	227.15
2153.887	225.11
2157.068	227.08
2160.25	229.28
2163.431	227.13
2166.611	232.93
2169.792	236.68
2172.972	240.2
2176.152	238.88
2179.331	244.39
2182.511	245.87
2185.69	249.31
2188.868	257.81
2192.047	265.03
2195.225	269.26
2198.403	268.59
2201.58	267.41
2204.758	276
2207.935	276.47
2211.111	286.21
2214.288	288.12
2217.464	290.57
2220.64	289.65
2223.815	292.68
2226.991	286.67
2230.166	287.41
2233.34	302.55
2236.515	308.75
2239.689	302.6
2242.863	308.2
2246.036	301.34
2249.209	308.91
2252.382	308.03
2255.555	319.94
2258.727	322.45
2261.9	332.28
2265.071	338.32
2268.243	333.56
2271.414	344.52
2274.585	353.91
2277.756	354.18
2280.926	370.76
2284.096	367.63
2287.266	368.03
2290.436	364.63
2293.605	371.07
2296.774	384.56
2299.942	385.79
2303.111	401.63
2306.279	408.41
2309.447	412.1
2312.614	415.33
2315.781	419.26
2318.948	428.03
2322.115	438.32
2325.281	455.62
2328.447	450.46
2331.613	454.75
2334.779	461.11
2337.944	461.87
2341.109	470.66
2344.274	472.75
2347.438	485.61
2350.602	495.5
2353.766	529.68
2356.929	528.67
2360.092	541.22
2363.255	550.02
2366.418	555.72
2369.58	565.51
2372.742	567.13
2375.904	565.16
2379.066	581.51
2382.227	609.38
2385.388	609.08
2388.548	580.02
2391.709	576.34
2394.869	586.8
2398.029	583.7
2401.188	586.22
2404.347	600.89
2407.506	620.62
2410.665	595.19
2413.823	602.41
2416.981	605.78
2420.139	573.34
2423.296	617.41
2426.453	657.31
2429.61	628.94
2432.767	670.97
2435.923	692.08
2439.079	674.06
2442.235	686.76
2445.391	703.78
2448.546	691.17
2451.701	731.05
2454.855	788.27
2458.009	691.04
2461.163	707.92
2464.317	716.36
2467.471	703.67
2470.624	728.94
2473.777	708.53
2476.929	689.34
2480.082	740.48
2483.234	775.64
2486.385	780.51
2489.537	803.25
2492.688	885.33
2495.839	871.14
2498.989	900.78
2502.14	904.23
2505.29	863.28
2508.439	957.21
2511.589	975.1
2514.738	951.99
2517.887	941.67
2521.035	884.28
2524.183	873.95
2527.331	866.45
2530.479	841.13
2533.627	857.68
