Data from C_2_dec_va_2n_050_Splice17_08.txt Node
Date: Sat Feb 29 14:34:20 EST 2020
User: sa697716
Spectrometer: FLMS03696
Trigger mode: 0
Integration Time (sec): 3.180400E-1
Scans to average: 20
Electric dark correction enabled: true
Nonlinearity correction enabled: true
Boxcar width: 5
XAxis mode: Wavelengths
Number of Pixels in Spectrum: 2048
>>>>>Begin Spectral Data<<<<<
187.83	42.84
188.298	29.09
188.766	32.46
189.233	32.24
189.701	42.36
190.169	47.74
190.636	44.21
191.104	14.64
191.571	37.77
192.039	171.17
192.506	-9.85
192.974	4813.96
193.441	396.76
193.908	30.41
194.375	39.85
194.842	93.84
195.31	84.42
195.777	53.15
196.244	8.33
196.711	18.27
197.177	18.63
197.644	17.64
198.111	17
198.578	18.15
199.045	18.5
199.511	18.72
199.978	19.22
200.445	18.75
200.911	19.23
201.378	19.7
201.844	19.87
202.31	20.17
202.777	20.61
203.243	20.96
203.709	21.49
204.176	21.09
204.642	21.07
205.108	20.88
205.574	21.77
206.04	22.08
206.506	21.86
206.972	21.95
207.438	21.81
207.903	22.39
208.369	22.32
208.835	22.12
209.301	22.16
209.766	22.11
210.232	21.72
210.697	21.07
211.163	20.6
211.628	20.61
212.094	20.49
212.559	20.01
213.024	19.3
213.49	19.01
213.955	18.97
214.42	18.78
214.885	18.18
215.35	18.25
215.815	17.73
216.28	17.14
216.745	16.33
217.21	15.59
217.675	14.84
218.14	14.15
218.604	13.46
219.069	12.87
219.534	12.31
219.998	11.93
220.463	11.54
220.927	11.22
221.392	10.94
221.856	10.69
222.32	10.49
222.785	10.39
223.249	10.23
223.713	10.11
224.177	9.92
224.642	9.78
225.106	9.69
225.57	9.51
226.034	9.41
226.497	9.27
226.961	9.12
227.425	8.97
227.889	8.79
228.353	8.67
228.816	8.56
229.28	8.41
229.744	8.31
230.207	8.18
230.671	8.09
231.134	7.98
231.597	7.87
232.061	7.77
232.524	7.69
232.987	7.62
233.45	7.52
233.914	7.4
234.377	7.34
234.84	7.25
235.303	7.16
235.766	7.07
236.229	6.99
236.691	6.92
237.154	6.85
237.617	6.78
238.08	6.7
238.542	6.62
239.005	6.55
239.468	6.47
239.93	6.41
240.393	6.35
240.855	6.29
241.317	6.23
241.78	6.18
242.242	6.11
242.704	6.04
243.166	5.99
243.629	5.94
244.091	5.89
244.553	5.85
245.015	5.8
245.477	5.73
245.939	5.67
246.4	5.6
246.862	5.55
247.324	5.51
247.786	5.46
248.247	5.41
248.709	5.37
249.17	5.32
249.632	5.26
250.093	5.2
250.555	5.17
251.016	5.14
251.477	5.1
251.939	5.06
252.4	5.02
252.861	4.99
253.322	4.95
253.783	4.93
254.244	4.9
254.705	4.88
255.166	4.87
255.627	4.84
256.088	4.8
256.549	4.79
257.009	4.76
257.47	4.74
257.931	4.71
258.391	4.67
258.852	4.63
259.312	4.59
259.773	4.56
260.233	4.53
260.694	4.51
261.154	4.48
261.614	4.45
262.074	4.42
262.534	4.39
262.994	4.37
263.455	4.35
263.915	4.32
264.374	4.3
264.834	4.28
265.294	4.26
265.754	4.23
266.214	4.21
266.673	4.19
267.133	4.17
267.593	4.16
268.052	4.13
268.512	4.12
268.971	4.1
269.431	4.09
269.89	4.07
270.349	4.06
270.809	4.04
271.268	4.03
271.727	4.02
272.186	4
272.645	3.97
273.104	3.96
273.563	3.95
274.022	3.94
274.481	3.93
274.94	3.91
275.399	3.9
275.857	3.89
276.316	3.87
276.775	3.85
277.233	3.84
277.692	3.83
278.15	3.82
278.609	3.8
279.067	3.78
279.525	3.76
279.984	3.74
280.442	3.72
280.9	3.71
281.358	3.7
281.816	3.69
282.274	3.67
282.732	3.67
283.19	3.66
283.648	3.66
284.106	3.65
284.564	3.64
285.021	3.64
285.479	3.64
285.937	3.63
286.394	3.61
286.852	3.61
287.309	3.61
287.767	3.59
288.224	3.58
288.682	3.57
289.139	3.55
289.596	3.54
290.053	3.52
290.511	3.49
290.968	3.48
291.425	3.47
291.882	3.45
292.339	3.43
292.796	3.41
293.252	3.39
293.709	3.37
294.166	3.36
294.623	3.35
295.079	3.34
295.536	3.33
295.992	3.32
296.449	3.3
296.905	3.28
297.362	3.26
297.818	3.25
298.274	3.24
298.731	3.23
299.187	3.22
299.643	3.21
300.099	3.21
300.555	3.19
301.011	3.19
301.467	3.18
301.923	3.18
302.379	3.18
302.835	3.17
303.291	3.17
303.746	3.16
304.202	3.15
304.658	3.14
305.113	3.13
305.569	3.13
306.024	3.12
306.479	3.11
306.935	3.11
307.39	3.11
307.845	3.1
308.301	3.1
308.756	3.1
309.211	3.1
309.666	3.1
310.121	3.09
310.576	3.09
311.031	3.08
311.486	3.09
311.94	3.08
312.395	3.07
312.85	3.07
313.305	3.06
313.759	3.06
314.214	3.05
314.668	3.05
315.123	3.05
315.577	3.04
316.032	3.03
316.486	3.02
316.94	3.02
317.394	3
317.849	2.99
318.303	2.99
318.757	2.98
319.211	2.96
319.665	2.95
320.119	2.94
320.572	2.94
321.026	2.92
321.48	2.91
321.934	2.91
322.387	2.9
322.841	2.89
323.295	2.87
323.748	2.87
324.202	2.87
324.655	2.85
325.108	2.84
325.562	2.83
326.015	2.82
326.468	2.81
326.921	2.8
327.374	2.8
327.827	2.8
328.28	2.79
328.733	2.78
329.186	2.77
329.639	2.77
330.092	2.77
330.545	2.77
330.997	2.78
331.45	2.78
331.903	2.77
332.355	2.76
332.808	2.76
333.26	2.76
333.713	2.76
334.165	2.76
334.617	2.76
335.069	2.76
335.522	2.77
335.974	2.76
336.426	2.76
336.878	2.77
337.33	2.77
337.782	2.77
338.234	2.78
338.686	2.78
339.137	2.78
339.589	2.78
340.041	2.77
340.493	2.76
340.944	2.76
341.396	2.75
341.847	2.74
342.299	2.73
342.75	2.71
343.201	2.69
343.653	2.68
344.104	2.68
344.555	2.68
345.006	2.66
345.457	2.66
345.908	2.65
346.359	2.65
346.81	2.65
347.261	2.64
347.712	2.64
348.163	2.64
348.613	2.64
349.064	2.62
349.515	2.6
349.965	2.6
350.416	2.59
350.866	2.58
351.317	2.57
351.767	2.57
352.217	2.56
352.668	2.56
353.118	2.57
353.568	2.57
354.018	2.58
354.468	2.58
354.918	2.59
355.368	2.6
355.818	2.6
356.268	2.6
356.718	2.6
357.168	2.58
357.617	2.58
358.067	2.56
358.517	2.56
358.966	2.56
359.416	2.56
359.865	2.55
360.315	2.54
360.764	2.54
361.213	2.54
361.663	2.55
362.112	2.57
362.561	2.57
363.01	2.59
363.459	2.59
363.908	2.58
364.357	2.59
364.806	2.6
365.255	2.6
365.703	2.61
366.152	2.61
366.601	2.62
367.05	2.62
367.498	2.62
367.947	2.63
368.395	2.63
368.844	2.64
369.292	2.64
369.74	2.65
370.189	2.65
370.637	2.67
371.085	2.68
371.533	2.7
371.981	2.71
372.429	2.71
372.877	2.73
373.325	2.74
373.773	2.76
374.221	2.78
374.669	2.79
375.116	2.81
375.564	2.82
376.012	2.83
376.459	2.85
376.907	2.88
377.354	2.91
377.801	2.94
378.249	2.97
378.696	3.01
379.143	3.04
379.591	3.08
380.038	3.11
380.485	3.15
380.932	3.19
381.379	3.21
381.826	3.25
382.273	3.28
382.72	3.31
383.166	3.35
383.613	3.38
384.06	3.4
384.506	3.43
384.953	3.45
385.4	3.48
385.846	3.51
386.292	3.55
386.739	3.56
387.185	3.59
387.631	3.63
388.078	3.65
388.524	3.66
388.97	3.68
389.416	3.7
389.862	3.72
390.308	3.74
390.754	3.77
391.2	3.79
391.645	3.82
392.091	3.83
392.537	3.83
392.983	3.86
393.428	3.89
393.874	3.91
394.319	3.92
394.765	3.93
395.21	3.94
395.655	3.95
396.101	3.96
396.546	3.96
396.991	3.96
397.436	3.95
397.881	3.95
398.326	3.97
398.771	3.96
399.216	3.97
399.661	3.98
400.106	3.99
400.551	3.97
400.995	3.95
401.44	3.94
401.885	3.94
402.329	3.94
402.774	3.93
403.218	3.91
403.663	3.9
404.107	3.9
404.551	3.89
404.995	3.87
405.44	3.86
405.884	3.85
406.328	3.85
406.772	3.86
407.216	3.85
407.66	3.85
408.104	3.84
408.547	3.84
408.991	3.82
409.435	3.81
409.879	3.81
410.322	3.81
410.766	3.81
411.209	3.8
411.653	3.78
412.096	3.77
412.54	3.76
412.983	3.76
413.426	3.77
413.869	3.78
414.312	3.79
414.756	3.81
415.199	3.82
415.642	3.84
416.085	3.86
416.527	3.87
416.97	3.88
417.413	3.88
417.856	3.88
418.298	3.86
418.741	3.85
419.184	3.85
419.626	3.83
420.069	3.82
420.511	3.82
420.953	3.79
421.396	3.8
421.838	3.81
422.28	3.83
422.722	3.84
423.164	3.84
423.606	3.84
424.048	3.82
424.49	3.83
424.932	3.82
425.374	3.81
425.816	3.82
426.258	3.78
426.699	3.75
427.141	3.72
427.582	3.71
428.024	3.7
428.465	3.72
428.907	3.73
429.348	3.71
429.789	3.74
430.231	3.73
430.672	3.74
431.113	3.78
431.554	3.81
431.995	3.83
432.436	3.84
432.877	3.85
433.318	3.84
433.759	3.85
434.2	3.87
434.64	3.87
435.081	3.89
435.522	3.91
435.962	3.92
436.403	3.93
436.843	3.95
437.284	3.97
437.724	4
438.164	4.01
438.604	4.03
439.045	4.06
439.485	4.07
439.925	4.08
440.365	4.07
440.805	4.07
441.245	4.06
441.685	4.08
442.125	4.09
442.564	4.12
443.004	4.13
443.444	4.14
443.883	4.14
444.323	4.15
444.762	4.19
445.202	4.23
445.641	4.25
446.081	4.31
446.52	4.32
446.959	4.33
447.398	4.36
447.837	4.41
448.276	4.44
448.716	4.47
449.154	4.52
449.593	4.56
450.032	4.57
450.471	4.6
450.91	4.6
451.349	4.61
451.787	4.63
452.226	4.63
452.664	4.62
453.103	4.61
453.541	4.62
453.98	4.61
454.418	4.6
454.856	4.58
455.295	4.56
455.733	4.56
456.171	4.56
456.609	4.55
457.047	4.55
457.485	4.54
457.923	4.54
458.361	4.53
458.798	4.53
459.236	4.53
459.674	4.53
460.111	4.54
460.549	4.52
460.987	4.53
461.424	4.52
461.862	4.52
462.299	4.52
462.736	4.53
463.173	4.52
463.611	4.51
464.048	4.51
464.485	4.51
464.922	4.5
465.359	4.5
465.796	4.48
466.233	4.49
466.67	4.48
467.106	4.45
467.543	4.45
467.98	4.45
468.416	4.46
468.853	4.45
469.29	4.45
469.726	4.46
470.162	4.46
470.599	4.48
471.035	4.49
471.471	4.48
471.907	4.5
472.344	4.51
472.78	4.51
473.216	4.52
473.652	4.52
474.088	4.53
474.523	4.54
474.959	4.55
475.395	4.55
475.831	4.55
476.266	4.56
476.702	4.56
477.138	4.55
477.573	4.54
478.008	4.54
478.444	4.55
478.879	4.55
479.314	4.53
479.75	4.52
480.185	4.52
480.62	4.51
481.055	4.51
481.49	4.49
481.925	4.51
482.36	4.5
482.795	4.5
483.229	4.5
483.664	4.5
484.099	4.5
484.534	4.51
484.968	4.52
485.403	4.52
485.837	4.52
486.271	4.54
486.706	4.54
487.14	4.56
487.574	4.57
488.009	4.59
488.443	4.6
488.877	4.62
489.311	4.63
489.745	4.65
490.179	4.68
490.613	4.7
491.046	4.73
491.48	4.76
491.914	4.79
492.348	4.82
492.781	4.85
493.215	4.89
493.648	4.93
494.082	4.98
494.515	5.03
494.948	5.06
495.382	5.11
495.815	5.15
496.248	5.2
496.681	5.26
497.114	5.31
497.547	5.38
497.98	5.45
498.413	5.52
498.846	5.6
499.279	5.67
499.711	5.76
500.144	5.85
500.577	5.95
501.009	6.05
501.442	6.15
501.874	6.26
502.306	6.37
502.739	6.48
503.171	6.59
503.603	6.71
504.036	6.86
504.468	7.01
504.9	7.17
505.332	7.33
505.764	7.49
506.196	7.67
506.627	7.84
507.059	8.04
507.491	8.24
507.923	8.44
508.354	8.64
508.786	8.86
509.217	9.07
509.649	9.32
510.08	9.57
510.512	9.81
510.943	10.07
511.374	10.34
511.805	10.61
512.237	10.89
512.668	11.17
513.099	11.47
513.53	11.77
513.961	12.07
514.391	12.34
514.822	12.64
515.253	12.95
515.684	13.26
516.114	13.58
516.545	13.9
516.975	14.24
517.406	14.57
517.836	14.91
518.267	15.25
518.697	15.58
519.127	15.94
519.558	16.29
519.988	16.64
520.418	16.98
520.848	17.31
521.278	17.65
521.708	17.93
522.138	18.26
522.567	18.56
522.997	18.84
523.427	19.16
523.857	19.45
524.286	19.74
524.716	20.01
525.145	20.3
525.575	20.57
526.004	20.83
526.433	21.13
526.863	21.39
527.292	21.64
527.721	21.91
528.15	22.14
528.579	22.37
529.008	22.59
529.437	22.8
529.866	22.98
530.295	23.16
530.724	23.36
531.152	23.54
531.581	23.69
532.01	23.85
532.438	23.99
532.867	24.13
533.295	24.27
533.723	24.4
534.152	24.52
534.58	24.63
535.008	24.73
535.436	24.83
535.865	24.91
536.293	25
536.721	25.1
537.149	25.17
537.576	25.24
538.004	25.29
538.432	25.34
538.86	25.41
539.287	25.46
539.715	25.53
540.143	25.58
540.57	25.64
540.998	25.69
541.425	25.72
541.852	25.74
542.28	25.78
542.707	25.86
543.134	25.9
543.561	25.92
543.988	25.95
544.415	25.99
544.842	26.03
545.269	26.07
545.696	26.1
546.123	26.15
546.549	26.19
546.976	26.23
547.403	26.24
547.829	26.28
548.256	26.32
548.682	26.35
549.108	26.4
549.535	26.43
549.961	26.44
550.387	26.43
550.813	26.42
551.24	26.42
551.666	26.42
552.092	26.42
552.518	26.42
552.943	26.42
553.369	26.42
553.795	26.38
554.221	26.34
554.646	26.3
555.072	26.28
555.498	26.26
555.923	26.21
556.349	26.15
556.774	26.1
557.199	26.03
557.625	25.95
558.05	25.85
558.475	25.76
558.9	25.68
559.325	25.59
559.75	25.5
560.175	25.39
560.6	25.27
561.025	25.15
561.449	25.02
561.874	24.87
562.299	24.74
562.723	24.62
563.148	24.46
563.572	24.3
563.997	24.14
564.421	23.97
564.846	23.8
565.27	23.63
565.694	23.44
566.118	23.26
566.542	23.08
566.966	22.89
567.39	22.7
567.814	22.51
568.238	22.3
568.662	22.12
569.086	21.93
569.509	21.74
569.933	21.55
570.357	21.35
570.78	21.17
571.204	20.97
571.627	20.79
572.05	20.6
572.474	20.42
572.897	20.25
573.32	20.07
573.743	19.92
574.166	19.75
574.589	19.6
575.012	19.46
575.435	19.32
575.858	19.21
576.281	19.06
576.704	18.95
577.126	18.82
577.549	18.7
577.972	18.6
578.394	18.45
578.817	18.34
579.239	18.22
579.661	18.14
580.084	18.02
580.506	17.91
580.928	17.84
581.35	17.73
581.772	17.66
582.194	17.56
582.616	17.46
583.038	17.39
583.46	17.31
583.882	17.23
584.303	17.15
584.725	17.08
585.147	16.99
585.568	16.89
585.99	16.81
586.411	16.74
586.833	16.66
587.254	16.59
587.675	16.52
588.096	16.46
588.518	16.39
588.939	16.31
589.36	16.24
589.781	16.2
590.202	16.14
590.623	16.09
591.043	16.03
591.464	15.98
591.885	15.93
592.305	15.89
592.726	15.84
593.147	15.81
593.567	15.76
593.987	15.73
594.408	15.68
594.828	15.66
595.248	15.61
595.669	15.58
596.089	15.54
596.509	15.49
596.929	15.44
597.349	15.39
597.769	15.32
598.189	15.28
598.608	15.22
599.028	15.18
599.448	15.14
599.867	15.08
600.287	15.03
600.706	14.98
601.126	14.93
601.545	14.87
601.965	14.83
602.384	14.78
602.803	14.71
603.222	14.64
603.641	14.56
604.061	14.47
604.48	14.41
604.898	14.32
605.317	14.26
605.736	14.18
606.155	14.11
606.574	14.03
606.992	13.94
607.411	13.87
607.829	13.75
608.248	13.69
608.666	13.61
609.085	13.53
609.503	13.46
609.921	13.36
610.339	13.28
610.758	13.19
611.176	13.1
611.594	13.03
612.012	12.95
612.43	12.92
612.847	12.84
613.265	12.76
613.683	12.68
614.101	12.6
614.518	12.53
614.936	12.45
615.353	12.38
615.771	12.3
616.188	12.24
616.606	12.16
617.023	12.09
617.44	12.01
617.857	11.94
618.274	11.89
618.691	11.85
619.108	11.8
619.525	11.75
619.942	11.71
620.359	11.68
620.776	11.64
621.192	11.62
621.609	11.59
622.026	11.58
622.442	11.55
622.859	11.53
623.275	11.51
623.691	11.49
624.108	11.46
624.524	11.46
624.94	11.44
625.356	11.41
625.772	11.39
626.188	11.38
626.604	11.34
627.02	11.33
627.436	11.3
627.852	11.29
628.268	11.26
628.683	11.25
629.099	11.22
629.514	11.2
629.93	11.18
630.345	11.15
630.761	11.1
631.176	11.08
631.591	11.04
632.007	10.99
632.422	10.94
632.837	10.89
633.252	10.82
633.667	10.73
634.082	10.64
634.497	10.54
634.911	10.46
635.326	10.36
635.741	10.26
636.155	10.17
636.57	10.05
636.984	9.91
637.399	9.76
637.813	9.64
638.228	9.51
638.642	9.39
639.056	9.25
639.47	9.1
639.884	8.97
640.298	8.82
640.712	8.67
641.126	8.54
641.54	8.4
641.954	8.29
642.368	8.15
642.781	8.03
643.195	7.9
643.609	7.79
644.022	7.68
644.436	7.56
644.849	7.46
645.262	7.36
645.676	7.27
646.089	7.18
646.502	7.09
646.915	7.02
647.328	6.95
647.741	6.89
648.154	6.83
648.567	6.77
648.98	6.72
649.393	6.67
649.805	6.62
650.218	6.59
650.631	6.57
651.043	6.54
651.456	6.51
651.868	6.47
652.28	6.42
652.693	6.37
653.105	6.35
653.517	6.3
653.929	6.26
654.341	6.23
654.753	6.18
655.165	6.11
655.577	6.05
655.989	5.99
656.401	5.92
656.813	5.86
657.224	5.81
657.636	5.75
658.047	5.68
658.459	5.6
658.87	5.53
659.282	5.47
659.693	5.4
660.104	5.33
660.515	5.27
660.926	5.21
661.338	5.16
661.749	5.08
662.159	5.01
662.57	4.95
662.981	4.9
663.392	4.85
663.803	4.8
664.213	4.76
664.624	4.73
665.035	4.69
665.445	4.65
665.855	4.62
666.266	4.6
666.676	4.59
667.086	4.56
667.497	4.53
667.907	4.51
668.317	4.48
668.727	4.47
669.137	4.45
669.547	4.45
669.956	4.44
670.366	4.43
670.776	4.43
671.186	4.43
671.595	4.45
672.005	4.47
672.414	4.48
672.824	4.51
673.233	4.53
673.642	4.54
674.052	4.56
674.461	4.59
674.87	4.61
675.279	4.65
675.688	4.67
676.097	4.7
676.506	4.73
676.915	4.77
677.323	4.81
677.732	4.86
678.141	4.93
678.549	4.99
678.958	5.05
679.366	5.09
679.775	5.17
680.183	5.23
680.592	5.31
681	5.39
681.408	5.48
681.816	5.58
682.224	5.68
682.632	5.79
683.04	5.91
683.448	6.06
683.856	6.23
684.264	6.41
684.671	6.62
685.079	6.83
685.487	7.08
685.894	7.35
686.302	7.65
686.709	7.96
687.116	8.3
687.524	8.65
687.931	9.03
688.338	9.45
688.745	9.89
689.152	10.37
689.559	10.89
689.966	11.41
690.373	11.98
690.78	12.54
691.187	13.14
691.593	13.74
692	14.39
692.407	15.05
692.813	15.73
693.22	16.42
693.626	17.11
694.032	17.8
694.439	18.54
694.845	19.25
695.251	19.98
695.657	20.73
696.063	21.47
696.469	22.19
696.875	22.91
697.281	23.63
697.687	24.37
698.093	25.1
698.498	25.83
698.904	26.52
699.31	27.2
699.715	27.91
700.12	28.58
700.526	29.26
700.931	29.94
701.337	30.62
701.742	31.25
702.147	31.85
702.552	32.45
702.957	33.06
703.362	33.65
703.767	34.25
704.172	34.81
704.577	35.37
704.981	35.94
705.386	36.48
705.791	37.04
706.195	37.59
706.6	38.14
707.004	38.68
707.408	39.19
707.813	39.7
708.217	40.2
708.621	40.68
709.025	41.16
709.43	41.62
709.834	42.12
710.237	42.54
710.641	43.01
711.045	43.44
711.449	43.88
711.853	44.31
712.256	44.75
712.66	45.18
713.064	45.6
713.467	45.99
713.87	46.41
714.274	46.79
714.677	47.18
715.08	47.55
715.484	47.95
715.887	48.32
716.29	48.68
716.693	49.03
717.096	49.37
717.499	49.73
717.901	50.08
718.304	50.39
718.707	50.7
719.109	51.04
719.512	51.36
719.915	51.66
720.317	51.95
720.719	52.23
721.122	52.5
721.524	52.82
721.926	53.08
722.328	53.34
722.731	53.61
723.133	53.89
723.535	54.14
723.937	54.37
724.338	54.58
724.74	54.79
725.142	54.91
725.544	55.12
725.945	55.27
726.347	55.47
726.748	55.6
727.15	55.75
727.551	55.93
727.952	56.09
728.354	56.27
728.755	56.46
729.156	56.62
729.557	56.87
729.958	57.05
730.359	57.18
730.76	57.28
731.161	57.44
731.562	57.6
731.962	57.71
732.363	57.79
732.763	57.87
733.164	57.9
733.564	57.99
733.965	58.04
734.365	58.06
734.766	58.16
735.166	58.26
735.566	58.31
735.966	58.34
736.366	58.39
736.766	58.47
737.166	58.53
737.566	58.65
737.966	58.73
738.365	58.81
738.765	58.9
739.165	58.93
739.564	58.97
739.964	59.05
740.363	59.15
740.763	59.16
741.162	59.18
741.561	59.25
741.96	59.3
742.36	59.35
742.759	59.38
743.158	59.38
743.557	59.45
743.955	59.53
744.354	59.56
744.753	59.59
745.152	59.66
745.55	59.72
745.949	59.74
746.348	59.79
746.746	59.8
747.144	59.86
747.543	59.96
747.941	60
748.339	60.05
748.737	60.09
749.136	60.14
749.534	60.19
749.932	60.21
750.33	60.21
750.727	60.21
751.125	60.26
751.523	60.24
751.921	60.27
752.318	60.26
752.716	60.23
753.113	60.19
753.511	60.15
753.908	60.12
754.305	60.06
754.703	60.06
755.1	60.02
755.497	59.99
755.894	59.96
756.291	59.92
756.688	59.92
757.085	59.9
757.482	59.9
757.878	59.92
758.275	59.92
758.672	59.98
759.068	59.98
759.465	59.98
759.861	59.98
760.258	59.96
760.654	59.92
761.05	59.91
761.447	59.91
761.843	59.89
762.239	59.86
762.635	59.84
763.031	59.81
763.427	59.77
763.822	59.7
764.218	59.69
764.614	59.72
765.01	59.71
765.405	59.67
765.801	59.63
766.196	59.62
766.592	59.62
766.987	59.6
767.382	59.57
767.778	59.59
768.173	59.63
768.568	59.6
768.963	59.61
769.358	59.57
769.753	59.61
770.148	59.63
770.542	59.62
770.937	59.61
771.332	59.61
771.726	59.59
772.121	59.56
772.515	59.54
772.91	59.54
773.304	59.53
773.699	59.53
774.093	59.5
774.487	59.51
774.881	59.48
775.275	59.45
775.669	59.43
776.063	59.45
776.457	59.43
776.851	59.41
777.245	59.4
777.638	59.38
778.032	59.41
778.425	59.4
778.819	59.4
779.212	59.42
779.606	59.44
779.999	59.42
780.392	59.36
780.786	59.4
781.179	59.44
781.572	59.44
781.965	59.46
782.358	59.41
782.751	59.41
783.143	59.44
783.536	59.48
783.929	59.5
784.322	59.54
784.714	59.57
785.107	59.57
785.499	59.57
785.891	59.58
786.284	59.54
786.676	59.6
787.068	59.58
787.46	59.55
787.852	59.52
788.245	59.52
788.636	59.53
789.028	59.54
789.42	59.54
789.812	59.51
790.204	59.48
790.595	59.5
790.987	59.46
791.378	59.48
791.77	59.5
792.161	59.53
792.553	59.54
792.944	59.54
793.335	59.55
793.726	59.53
794.117	59.56
794.508	59.61
794.899	59.59
795.29	59.6
795.681	59.6
796.072	59.57
796.463	59.49
796.853	59.48
797.244	59.49
797.634	59.48
798.025	59.5
798.415	59.51
798.806	59.52
799.196	59.62
799.586	59.67
799.976	59.71
800.366	59.74
800.756	59.78
801.146	59.79
801.536	59.77
801.926	59.8
802.316	59.81
802.706	59.84
803.095	59.81
803.485	59.78
803.874	59.75
804.264	59.76
804.653	59.75
805.043	59.8
805.432	59.8
805.821	59.84
806.21	59.89
806.599	59.95
806.988	59.91
807.377	59.97
807.766	60
808.155	60.04
808.544	60.05
808.933	60.07
809.321	60.12
809.71	60.15
810.098	60.17
810.487	60.17
810.875	60.14
811.264	60.17
811.652	60.16
812.04	60.15
812.428	60.16
812.816	60.2
813.204	60.24
813.592	60.24
813.98	60.24
814.368	60.23
814.756	60.27
815.144	60.3
815.531	60.34
815.919	60.35
816.306	60.4
816.694	60.45
817.081	60.44
817.469	60.45
817.856	60.49
818.243	60.53
818.63	60.59
819.017	60.59
819.404	60.58
819.791	60.59
820.178	60.62
820.565	60.58
820.952	60.55
821.339	60.57
821.725	60.6
822.112	60.61
822.498	60.64
822.885	60.65
823.271	60.64
823.657	60.66
824.044	60.65
824.43	60.69
824.816	60.73
825.202	60.76
825.588	60.78
825.974	60.76
826.36	60.72
826.746	60.68
827.132	60.63
827.517	60.63
827.903	60.66
828.289	60.67
828.674	60.61
829.06	60.6
829.445	60.58
829.83	60.57
830.216	60.54
830.601	60.56
830.986	60.57
831.371	60.6
831.756	60.56
832.141	60.52
832.526	60.49
832.911	60.54
833.295	60.53
833.68	60.54
834.065	60.56
834.449	60.57
834.834	60.53
835.218	60.51
835.603	60.5
835.987	60.51
836.371	60.53
836.755	60.51
837.139	60.45
837.524	60.43
837.908	60.37
838.291	60.31
838.675	60.32
839.059	60.32
839.443	60.31
839.827	60.31
840.21	60.32
840.594	60.29
840.977	60.29
841.361	60.31
841.744	60.29
842.127	60.31
842.511	60.33
842.894	60.3
843.277	60.31
843.66	60.31
844.043	60.29
844.426	60.28
844.809	60.26
845.191	60.23
845.574	60.22
845.957	60.19
846.339	60.18
846.722	60.15
847.104	60.16
847.487	60.14
847.869	60.13
848.252	60.13
848.634	60.15
849.016	60.18
849.398	60.19
849.78	60.19
850.162	60.23
850.544	60.26
850.926	60.25
851.307	60.25
851.689	60.24
852.071	60.22
852.452	60.23
852.834	60.2
853.215	60.17
853.597	60.19
853.978	60.18
854.359	60.17
854.741	60.17
855.122	60.2
855.503	60.21
855.884	60.24
856.265	60.25
856.646	60.22
857.026	60.22
857.407	60.21
857.788	60.21
858.169	60.22
858.549	60.24
858.93	60.25
859.31	60.23
859.69	60.24
860.071	60.23
860.451	60.24
860.831	60.27
861.211	60.25
861.591	60.28
861.971	60.26
862.351	60.27
862.731	60.27
863.111	60.22
863.491	60.24
863.87	60.23
864.25	60.22
864.629	60.2
865.009	60.2
865.388	60.21
865.768	60.21
866.147	60.27
866.526	60.23
866.905	60.22
867.284	60.23
867.663	60.22
868.042	60.2
868.421	60.21
868.8	60.19
869.179	60.17
869.558	60.15
869.936	60.1
870.315	60.06
870.693	60.08
871.072	60.06
871.45	60.04
871.828	60.01
872.207	60.01
872.585	60
872.963	59.97
873.341	59.98
873.719	60
874.097	60.05
874.475	60.05
874.853	60.04
875.23	60.05
875.608	60.09
875.986	60.11
876.363	60.11
876.741	60.12
877.118	60.14
877.495	60.13
877.873	60.13
878.25	60.08
878.627	60.09
879.004	60.1
879.381	60.1
879.758	60.07
880.135	60.1
880.512	60.11
880.889	60.12
881.265	60.15
881.642	60.16
882.019	60.15
882.395	60.17
882.772	60.15
883.148	60.14
883.524	60.15
883.901	60.15
884.277	60.11
884.653	60.11
885.029	60.11
885.405	60.1
885.781	60.09
886.157	60.11
886.532	60.09
886.908	60.11
887.284	60.14
887.659	60.14
888.035	60.14
888.411	60.13
888.786	60.07
889.161	60.07
889.537	60.07
889.912	60.05
890.287	60.05
890.662	60.05
891.037	59.98
891.412	59.94
891.787	59.92
892.162	59.88
892.536	59.89
892.911	59.9
893.286	59.86
893.66	59.8
894.035	59.78
894.409	59.75
894.784	59.75
895.158	59.75
895.532	59.74
895.906	59.7
896.281	59.7
896.655	59.66
897.029	59.65
897.402	59.64
897.776	59.64
898.15	59.64
898.524	59.62
898.898	59.6
899.271	59.62
899.645	59.59
900.018	59.58
900.392	59.57
900.765	59.57
901.138	59.54
901.511	59.53
901.884	59.53
902.258	59.51
902.631	59.54
903.003	59.53
903.376	59.49
903.749	59.48
904.122	59.5
904.495	59.53
904.867	59.54
905.24	59.58
905.612	59.59
905.985	59.55
906.357	59.51
906.729	59.47
907.102	59.44
907.474	59.43
907.846	59.45
908.218	59.41
908.59	59.37
908.962	59.37
909.334	59.32
909.705	59.31
910.077	59.31
910.449	59.35
910.82	59.32
911.192	59.32
911.563	59.27
911.935	59.27
912.306	59.27
912.677	59.28
913.048	59.27
913.419	59.29
913.79	59.24
914.161	59.21
914.532	59.15
914.903	59.19
915.274	59.18
915.645	59.23
916.015	59.24
916.386	59.21
916.756	59.15
917.127	59.13
917.497	59.11
917.868	59.14
918.238	59.17
918.608	59.2
918.978	59.18
919.348	59.13
919.718	59.11
920.088	59.12
920.458	59.14
920.828	59.19
921.198	59.2
921.567	59.16
921.937	59.15
922.306	59.18
922.676	59.18
923.045	59.19
923.415	59.28
923.784	59.32
924.153	59.28
924.522	59.31
924.891	59.28
925.26	59.27
925.629	59.3
925.998	59.32
926.367	59.31
926.736	59.31
927.104	59.31
927.473	59.28
927.842	59.2
928.21	59.23
928.578	59.17
928.947	59.17
929.315	59.15
929.683	59.13
930.051	59.08
930.42	59.03
930.788	59
931.156	58.93
931.523	58.87
931.891	58.82
932.259	58.69
932.627	58.63
932.994	58.58
933.362	58.51
933.729	58.39
934.097	58.29
934.464	58.26
934.831	58.12
935.199	58.08
935.566	57.97
935.933	57.95
936.3	57.89
936.667	57.8
937.034	57.66
937.401	57.56
937.767	57.55
938.134	57.57
938.501	57.5
938.867	57.59
939.234	57.6
939.6	57.61
939.967	57.59
940.333	57.69
940.699	57.76
941.065	57.94
941.431	58.1
941.798	58.16
942.163	58.15
942.529	58.18
942.895	58.26
943.261	58.29
943.627	58.44
943.992	58.56
944.358	58.53
944.723	58.6
945.089	58.56
945.454	58.58
945.82	58.63
946.185	58.71
946.55	58.75
946.915	58.77
947.28	58.71
947.645	58.72
948.01	58.69
948.375	58.77
948.74	58.7
949.104	58.81
949.469	58.71
949.834	58.64
950.198	58.53
950.562	58.54
950.927	58.47
951.291	58.5
951.655	58.49
952.02	58.51
952.384	58.51
952.748	58.5
953.112	58.4
953.476	58.4
953.839	58.45
954.203	58.42
954.567	58.43
954.931	58.4
955.294	58.34
955.658	58.28
956.021	58.23
956.385	58.19
956.748	58.22
957.111	58.24
957.474	58.28
957.837	58.24
958.2	58.31
958.563	58.24
958.926	58.21
959.289	58.19
959.652	58.14
960.015	58.09
960.377	58.09
960.74	58.01
961.102	57.95
961.465	57.92
961.827	57.77
962.189	57.69
962.552	57.62
962.914	57.59
963.276	57.6
963.638	57.52
964	57.51
964.362	57.44
964.724	57.42
965.085	57.41
965.447	57.33
965.809	57.42
966.17	57.35
966.532	57.41
966.893	57.34
967.255	57.34
967.616	57.41
967.977	57.43
968.338	57.35
968.699	57.31
969.061	57.27
969.421	57.29
969.782	57.22
970.143	57.29
970.504	57.21
970.865	57.19
971.225	57.16
971.586	57.16
971.946	57.11
972.307	57.15
972.667	57.28
973.027	57.3
973.388	57.31
973.748	57.4
974.108	57.27
974.468	57.29
974.828	57.43
975.188	57.47
975.548	57.42
975.907	57.44
976.267	57.46
976.627	57.37
976.986	57.34
977.346	57.31
977.705	57.34
978.064	57.42
978.424	57.45
978.783	57.38
979.142	57.25
979.501	57.2
979.86	57.16
980.219	57.06
980.578	57.02
980.937	57.09
981.296	57.09
981.654	57.1
982.013	57.12
982.371	57.08
982.73	57.04
983.088	57.03
983.447	57.11
983.805	57.16
984.163	57.24
984.521	57.21
984.879	57.15
985.237	57.14
985.595	56.96
985.953	56.94
986.311	56.88
986.669	56.89
987.026	56.91
987.384	56.79
987.741	56.79
988.099	56.81
988.456	56.87
988.814	56.83
989.171	56.81
989.528	56.84
989.885	56.76
990.242	56.87
990.599	56.92
990.956	56.93
991.313	57
991.67	56.92
992.027	56.84
992.383	56.84
992.74	56.84
993.096	56.75
993.453	56.83
993.809	56.82
994.165	56.68
994.522	56.55
994.878	56.65
995.234	56.54
995.59	56.44
995.946	56.48
996.302	56.42
996.658	56.39
997.013	56.55
997.369	56.58
997.725	56.62
998.08	56.75
998.436	56.9
998.791	56.66
999.147	56.74
999.502	56.82
999.857	56.76
1000.212	56.67
1000.567	56.66
1000.922	56.48
1001.277	56.21
1001.632	56.25
1001.987	56.09
1002.342	56.12
1002.696	56.1
1003.051	55.89
1003.406	55.82
1003.76	55.85
1004.114	55.84
1004.469	55.55
1004.823	55.58
1005.177	55.85
1005.531	55.73
1005.885	55.75
1006.239	55.58
1006.593	55.61
1006.947	55.6
1007.301	55.57
1007.655	55.51
1008.008	55.36
1008.362	55.46
1008.715	55.49
1009.069	55.21
1009.422	54.82
1009.776	54.78
1010.129	54.69
1010.482	54.88
1010.835	55
1011.188	54.84
1011.541	54.6
1011.894	54.75
1012.247	54.64
1012.6	54.41
1012.952	54.43
1013.305	54.64
1013.657	54.46
1014.01	54.54
1014.362	54.39
1014.715	54.37
1015.067	54.48
1015.419	54.75
1015.771	54.86
1016.123	55.15
1016.475	55.11
1016.827	55.18
1017.179	55.25
1017.531	55.34
1017.883	55.39
1018.234	55.17
1018.586	55.06
1018.938	55.09
1019.289	54.97
1019.64	54.87
1019.992	54.81
1020.343	54.75
1020.694	54.49
1021.045	54.56
1021.396	54.5
1021.747	54.07
1022.098	54.27
1022.449	54.25
1022.8	53.91
1023.151	53.66
1023.501	53.35
1023.852	53.21
1024.202	53.27
1024.553	53.22
1024.903	52.88
1025.253	52.8
1025.604	53.02
1025.954	52.68
1026.304	53.09
1026.654	53.28
1027.004	53.34
1027.354	53.73
1027.703	53.32
1028.053	52.97
1028.403	52.39
1028.753	52.81
1029.102	52.63
1029.452	52.46
1029.801	52.41
1030.15	51.84
1030.499	51.75
897.758	485.95
901.051	487.53
904.343	494
907.636	488.92
910.928	481.13
914.22	487.83
917.511	476.89
920.803	459.15
924.094	440.66
927.384	443.5
930.675	428.62
933.965	423.81
937.255	427.91
940.544	408.31
943.834	387.29
947.123	381.59
950.411	364.11
953.7	359.69
956.988	349.44
960.276	333.1
963.563	333.45
966.851	317.59
970.138	311.69
973.424	291.45
976.711	287.9
979.997	279.95
983.283	273.46
986.568	264.62
989.853	256.72
993.138	245.58
996.423	247.73
999.708	236.62
1002.992	238.61
1006.275	231.31
1009.559	229.73
1012.842	223.98
1016.125	217.46
1019.408	213.73
1022.69	213.29
1025.972	210.77
1029.254	208.02
1032.536	201.13
1035.817	195.78
1039.098	192.71
1042.379	190.86
1045.659	187.23
1048.939	186.11
1052.219	183.95
1055.498	180.98
1058.778	178.05
1062.057	176.2
1065.335	174.49
1068.614	172.53
1071.892	171.74
1075.17	167.43
1078.447	164.77
1081.724	163.85
1085.001	160.33
1088.278	160.94
1091.554	161.08
1094.83	158.55
1098.106	156.09
1101.382	155.35
1104.657	154.86
1107.932	154.42
1111.206	153.98
1114.481	152.81
1117.755	151.54
1121.029	151.56
1124.302	149.25
1127.575	146.82
1130.848	147.05
1134.121	145.48
1137.393	145.44
1140.665	143.99
1143.937	142.38
1147.208	140.93
1150.48	139.73
1153.75	139.38
1157.021	138.45
1160.291	137.43
1163.561	136.23
1166.831	135.95
1170.101	135.78
1173.37	134.77
1176.639	133.77
1179.907	132.99
1183.176	133.42
1186.444	134.07
1189.711	133.25
1192.979	133.13
1196.246	133.76
1199.513	134.61
1202.78	134.15
1206.046	133.59
1209.312	133.83
1212.578	134.51
1215.843	137.02
1219.108	138.05
1222.373	139.39
1225.638	141.55
1228.902	144.38
1232.166	148.55
1235.43	149.22
1238.693	152.33
1241.956	156.55
1245.219	160.56
1248.482	161.81
1251.744	161.75
1255.006	161.48
1258.268	158.37
1261.529	156.93
1264.79	152.92
1268.051	150.38
1271.312	149.48
1274.572	146.85
1277.832	143.73
1281.092	141.88
1284.351	139.26
1287.61	138.35
1290.869	138.1
1294.128	137.04
1297.386	137.37
1300.644	137.34
1303.902	135.47
1307.159	134.72
1310.416	135.67
1313.673	136.36
1316.93	137.42
1320.186	139.76
1323.442	141.64
1326.697	143.06
1329.953	144.57
1333.208	147.37
1336.463	153.09
1339.717	156.46
1342.972	163.43
1346.226	166.96
1349.479	168.68
1352.733	174.64
1355.986	177.26
1359.238	180.31
1362.491	181.74
1365.743	187.05
1368.995	189.55
1372.247	188.38
1375.498	186.64
1378.749	191.18
1382	193.47
1385.251	191.72
1388.501	191.31
1391.751	194.05
1395	191.48
1398.25	192.78
1401.499	191.59
1404.748	188.94
1407.996	185.13
1411.244	186.2
1414.492	183.22
1417.74	176.33
1420.987	173.09
1424.234	169.41
1427.481	163.17
1430.728	159.76
1433.974	153.99
1437.22	150.2
1440.465	145.49
1443.711	141.17
1446.956	137.16
1450.201	132.4
1453.445	127.36
1456.689	124.16
1459.933	120.93
1463.177	116.52
1466.42	115.02
1469.663	113.36
1472.906	109.83
1476.148	107.59
1479.391	106.1
1482.633	104.37
1485.874	103.18
1489.115	102.28
1492.356	101.51
1495.597	99.95
1498.838	100.04
1502.078	98.97
1505.318	98.23
1508.557	97.62
1511.797	97.22
1515.036	96.89
1518.274	96.15
1521.513	95.16
1524.751	94.6
1527.989	95.61
1531.227	95.4
1534.464	95.03
1537.701	94.69
1540.938	94.15
1544.174	94.48
1547.41	95.21
1550.646	95.2
1553.882	95.26
1557.117	94.86
1560.352	95.05
1563.587	93.78
1566.821	94
1570.055	93.52
1573.289	93.65
1576.523	93.68
1579.756	93.6
1582.989	93.03
1586.222	92.52
1589.454	93.45
1592.686	94.21
1595.918	93.73
1599.15	93.47
1602.381	93.35
1605.612	93.52
1608.843	93.26
1612.073	94.04
1615.303	93.65
1618.533	93.25
1621.762	93.56
1624.992	92.79
1628.221	92.15
1631.449	92.88
1634.678	93.08
1637.906	93.28
1641.134	93.45
1644.361	93.46
1647.588	92.91
1650.815	93.68
1654.042	93.92
1657.269	93.9
1660.495	94.64
1663.72	94.41
1666.946	94.42
1670.171	94.84
1673.396	95.33
1676.621	95.29
1679.845	95.37
1683.069	95.77
1686.293	95.29
1689.517	95.24
1692.74	95.39
1695.963	94.92
1699.185	95.71
1702.408	95.4
1705.63	95.16
1708.852	95.67
1712.073	94.83
1715.294	95
1718.515	95.19
1721.736	95.56
1724.956	95.97
1728.176	95.46
1731.396	96.32
1734.616	96
1737.835	96.34
1741.054	96.4
1744.272	95.5
1747.491	96.15
1750.709	97.2
1753.927	96.9
1757.144	96.88
1760.361	96.85
1763.578	97.7
1766.795	97.52
1770.011	97.73
1773.227	98.14
1776.443	99.34
1779.658	99.34
1782.874	99.58
1786.089	98.93
1789.303	99.19
1792.518	99.17
1795.732	100.07
1798.945	100.96
1802.159	101.19
1805.372	102.24
1808.585	102.92
1811.797	102.94
1815.01	103.63
1818.222	104.78
1821.434	105.41
1824.645	105.83
1827.856	107.48
1831.067	107.51
1834.278	108.08
1837.488	108.75
1840.698	109.63
1843.908	109.5
1847.117	110.05
1850.326	111.31
1853.535	112.37
1856.744	112.29
1859.952	113.49
1863.16	113.34
1866.368	112.88
1869.575	112.29
1872.782	111.52
1875.989	110
1879.196	109.2
1882.402	107.86
1885.608	107.41
1888.814	105.84
1892.019	105.87
1895.224	103.33
1898.429	103.13
1901.634	102.96
1904.838	102.97
1908.042	102.46
1911.246	101.96
1914.449	102.05
1917.652	102.36
1920.855	102.7
1924.058	102
1927.26	101.04
1930.462	102.62
1933.664	102.5
1936.865	102.94
1940.066	100.73
1943.267	100.49
1946.467	101.19
1949.668	100.79
1952.868	101.17
1956.067	100.94
1959.267	99.86
1962.466	100.87
1965.665	102.36
1968.863	103.11
1972.061	103.58
1975.259	106.95
1978.457	108.64
1981.654	109.22
1984.852	110.74
1988.048	111.96
1991.245	113.59
1994.441	117.16
1997.637	120.52
2000.833	121.66
2004.028	122.14
2007.223	125.54
2010.418	128.64
2013.613	132.92
2016.807	136.82
2020.001	138.94
2023.194	142.41
2026.388	148.03
2029.581	157.53
2032.774	158.93
2035.966	163.14
2039.158	169.23
2042.35	171.16
2045.542	173.5
2048.733	183.12
2051.924	184.63
2055.115	188.19
2058.306	190.23
2061.496	192.33
2064.686	189.83
2067.875	190.68
2071.065	194.23
2074.254	195.26
2077.442	201.17
2080.631	201.77
2083.819	199.85
2087.007	205.64
2090.195	208.22
2093.382	210.22
2096.569	210.42
2099.756	213.67
2102.942	218.5
2106.128	221
2109.314	223.51
2112.5	224.26
2115.685	221.54
2118.87	222.41
2122.055	222.98
2125.239	227.46
2128.424	230.88
2131.608	228.66
2134.791	229.25
2137.974	230.36
2141.157	231.44
2144.34	230.88
2147.523	234.99
2150.705	243.45
2153.887	240.83
2157.068	242.05
2160.25	245.38
2163.431	244.26
2166.611	249.56
2169.792	254
2172.972	256.07
2176.152	258
2179.331	264.48
2182.511	265.09
2185.69	267.17
2188.868	274.94
2192.047	282.3
2195.225	286.24
2198.403	287.12
2201.58	284.02
2204.758	292.61
2207.935	295.65
2211.111	301.97
2214.288	302.94
2217.464	305.95
2220.64	309.85
2223.815	311.81
2226.991	305.84
2230.166	307.7
2233.34	319.85
2236.515	326.54
2239.689	322.67
2242.863	328.43
2246.036	322.22
2249.209	329.35
2252.382	327.13
2255.555	336.97
2258.727	340.09
2261.9	353.22
2265.071	356.24
2268.243	352.55
2271.414	364.11
2274.585	370.79
2277.756	370.02
2280.926	389.72
2284.096	383.55
2287.266	389.32
2290.436	382.43
2293.605	394.36
2296.774	404.2
2299.942	406.86
2303.111	423.19
2306.279	431.82
2309.447	430.82
2312.614	436.2
2315.781	438.67
2318.948	454.43
2322.115	461.74
2325.281	484.68
2328.447	472.53
2331.613	476.81
2334.779	482.67
2337.944	484.77
2341.109	490.75
2344.274	496.07
2347.438	505.53
2350.602	515.64
2353.766	546.98
2356.929	546.11
2360.092	554.54
2363.255	564.02
2366.418	569.74
2369.58	580.42
2372.742	583.91
2375.904	582.75
2379.066	600.99
2382.227	635.02
2385.388	633.76
2388.548	597.35
2391.709	592.87
2394.869	608.59
2398.029	604.25
2401.188	608.44
2404.347	623.21
2407.506	640.43
2410.665	618.52
2413.823	622.67
2416.981	620.85
2420.139	589.01
2423.296	641.32
2426.453	687.71
2429.61	643.2
2432.767	691.46
2435.923	712.53
2439.079	687.41
2442.235	703.5
2445.391	721.8
2448.546	709.03
2451.701	749.64
2454.855	805.34
2458.009	706.95
2461.163	712.18
2464.317	739.31
2467.471	722.82
2470.624	744.13
2473.777	727.72
2476.929	708.75
2480.082	750.97
2483.234	791.87
2486.385	803.55
2489.537	827.55
2492.688	911.07
2495.839	903.69
2498.989	929.38
2502.14	926.54
2505.29	891.72
2508.439	993.25
2511.589	1008
2514.738	988.5
2517.887	975.93
2521.035	913.79
2524.183	895.51
2527.331	884.88
2530.479	858.63
2533.627	873.27
