Data from C_2_hir_wi_4n_078_Splice17_11.txt Node
Date: Sat Feb 29 14:20:08 EST 2020
User: sa697716
Spectrometer: FLMS03696
Trigger mode: 0
Integration Time (sec): 3.180400E-1
Scans to average: 20
Electric dark correction enabled: true
Nonlinearity correction enabled: true
Boxcar width: 5
XAxis mode: Wavelengths
Number of Pixels in Spectrum: 2048
>>>>>Begin Spectral Data<<<<<
187.83	10.76
188.298	-12.74
188.766	-0.01
189.233	-24.55
189.701	-9.13
190.169	-2.1
190.636	-8.02
191.104	-50.79
191.571	-327.52
192.039	-10.16
192.506	319.7
192.974	6256.72
193.441	-103.65
193.908	56.83
194.375	-155.85
194.842	-106.81
195.31	-15.85
195.777	6.13
196.244	13.42
196.711	39.35
197.177	41.18
197.644	43.48
198.111	43.1
198.578	43.51
199.045	44.4
199.511	46.09
199.978	46.83
200.445	46.18
200.911	46.43
201.378	46.84
201.844	47.26
202.31	47.78
202.777	47.9
203.243	48.28
203.709	48.69
204.176	48.2
204.642	47.68
205.108	47.25
205.574	47.76
206.04	47.6
206.506	47.22
206.972	47
207.438	46.43
207.903	46.54
208.369	45.76
208.835	45.16
209.301	45.09
209.766	44.49
210.232	44.04
210.697	43.35
211.163	42.91
211.628	42.87
212.094	42.31
212.559	41.92
213.024	40.94
213.49	40.15
213.955	39.64
214.42	38.89
214.885	37.77
215.35	36.37
215.815	34.53
216.28	32.84
216.745	30.69
217.21	28.71
217.675	26.74
218.14	25.05
218.604	23.61
219.069	22.28
219.534	21.05
219.998	20.16
220.463	19.43
220.927	18.81
221.392	18.14
221.856	17.65
222.32	17.21
222.785	16.83
223.249	16.48
223.713	16.22
224.177	15.89
224.642	15.66
225.106	15.36
225.57	15.1
226.034	14.86
226.497	14.63
226.961	14.38
227.425	14.12
227.889	13.93
228.353	13.73
228.816	13.55
229.28	13.36
229.744	13.18
230.207	13.03
230.671	12.86
231.134	12.69
231.597	12.55
232.061	12.43
232.524	12.3
232.987	12.15
233.45	11.99
233.914	11.87
234.377	11.76
234.84	11.61
235.303	11.48
235.766	11.36
236.229	11.26
236.691	11.16
237.154	11.04
237.617	10.94
238.08	10.82
238.542	10.74
239.005	10.62
239.468	10.51
239.93	10.43
240.393	10.35
240.855	10.24
241.317	10.16
241.78	10.07
242.242	9.98
242.704	9.9
243.166	9.83
243.629	9.75
244.091	9.67
244.553	9.58
245.015	9.5
245.477	9.41
245.939	9.33
246.4	9.24
246.862	9.17
247.324	9.11
247.786	9.03
248.247	8.96
248.709	8.88
249.17	8.82
249.632	8.73
250.093	8.66
250.555	8.6
251.016	8.55
251.477	8.47
251.939	8.41
252.4	8.35
252.861	8.29
253.322	8.23
253.783	8.19
254.244	8.14
254.705	8.12
255.166	8.09
255.627	8.05
256.088	7.99
256.549	7.96
257.009	7.91
257.47	7.87
257.931	7.82
258.391	7.77
258.852	7.71
259.312	7.67
259.773	7.61
260.233	7.55
260.694	7.5
261.154	7.47
261.614	7.41
262.074	7.37
262.534	7.31
262.994	7.27
263.455	7.23
263.915	7.19
264.374	7.14
264.834	7.1
265.294	7.05
265.754	7.01
266.214	6.96
266.673	6.93
267.133	6.89
267.593	6.86
268.052	6.82
268.512	6.78
268.971	6.75
269.431	6.73
269.89	6.7
270.349	6.68
270.809	6.66
271.268	6.64
271.727	6.62
272.186	6.6
272.645	6.57
273.104	6.56
273.563	6.54
274.022	6.52
274.481	6.5
274.94	6.47
275.399	6.45
275.857	6.43
276.316	6.41
276.775	6.38
277.233	6.35
277.692	6.33
278.15	6.3
278.609	6.27
279.067	6.24
279.525	6.22
279.984	6.21
280.442	6.18
280.9	6.16
281.358	6.14
281.816	6.12
282.274	6.1
282.732	6.09
283.19	6.07
283.648	6.07
284.106	6.05
284.564	6.05
285.021	6.04
285.479	6.03
285.937	6.03
286.394	6.02
286.852	6.02
287.309	6.02
287.767	6.02
288.224	6.01
288.682	5.99
289.139	5.98
289.596	5.95
290.053	5.93
290.511	5.9
290.968	5.87
291.425	5.85
291.882	5.81
292.339	5.79
292.796	5.76
293.252	5.74
293.709	5.72
294.166	5.69
294.623	5.68
295.079	5.66
295.536	5.65
295.992	5.63
296.449	5.62
296.905	5.61
297.362	5.59
297.818	5.58
298.274	5.56
298.731	5.55
299.187	5.53
299.643	5.51
300.099	5.5
300.555	5.48
301.011	5.47
301.467	5.45
301.923	5.43
302.379	5.42
302.835	5.41
303.291	5.4
303.746	5.38
304.202	5.37
304.658	5.36
305.113	5.34
305.569	5.34
306.024	5.33
306.479	5.33
306.935	5.32
307.39	5.31
307.845	5.3
308.301	5.31
308.756	5.31
309.211	5.31
309.666	5.3
310.121	5.3
310.576	5.3
311.031	5.29
311.486	5.29
311.94	5.29
312.395	5.29
312.85	5.29
313.305	5.28
313.759	5.27
314.214	5.27
314.668	5.27
315.123	5.27
315.577	5.27
316.032	5.26
316.486	5.26
316.94	5.26
317.394	5.25
317.849	5.23
318.303	5.21
318.757	5.2
319.211	5.18
319.665	5.17
320.119	5.16
320.572	5.15
321.026	5.13
321.48	5.11
321.934	5.11
322.387	5.11
322.841	5.1
323.295	5.08
323.748	5.06
324.202	5.06
324.655	5.06
325.108	5.03
325.562	5.02
326.015	5.01
326.468	4.99
326.921	4.97
327.374	4.96
327.827	4.94
328.28	4.94
328.733	4.92
329.186	4.92
329.639	4.9
330.092	4.9
330.545	4.9
330.997	4.89
331.45	4.9
331.903	4.9
332.355	4.9
332.808	4.9
333.26	4.9
333.713	4.92
334.165	4.92
334.617	4.93
335.069	4.93
335.522	4.94
335.974	4.94
336.426	4.94
336.878	4.94
337.33	4.93
337.782	4.94
338.234	4.93
338.686	4.93
339.137	4.93
339.589	4.93
340.041	4.93
340.493	4.91
340.944	4.9
341.396	4.9
341.847	4.88
342.299	4.86
342.75	4.83
343.201	4.81
343.653	4.8
344.104	4.78
344.555	4.76
345.006	4.73
345.457	4.71
345.908	4.7
346.359	4.69
346.81	4.68
347.261	4.68
347.712	4.68
348.163	4.67
348.613	4.66
349.064	4.65
349.515	4.65
349.965	4.64
350.416	4.64
350.866	4.64
351.317	4.64
351.767	4.63
352.217	4.62
352.668	4.62
353.118	4.63
353.568	4.63
354.018	4.64
354.468	4.63
354.918	4.64
355.368	4.65
355.818	4.64
356.268	4.64
356.718	4.65
357.168	4.66
357.617	4.66
358.067	4.66
358.517	4.65
358.966	4.66
359.416	4.68
359.865	4.68
360.315	4.69
360.764	4.7
361.213	4.7
361.663	4.7
362.112	4.72
362.561	4.73
363.01	4.75
363.459	4.76
363.908	4.76
364.357	4.77
364.806	4.76
365.255	4.77
365.703	4.77
366.152	4.78
366.601	4.8
367.05	4.8
367.498	4.8
367.947	4.79
368.395	4.82
368.844	4.83
369.292	4.83
369.74	4.85
370.189	4.87
370.637	4.89
371.085	4.91
371.533	4.92
371.981	4.94
372.429	4.95
372.877	4.97
373.325	4.98
373.773	4.99
374.221	5.02
374.669	5.02
375.116	5.03
375.564	5.03
376.012	5.05
376.459	5.06
376.907	5.07
377.354	5.1
377.801	5.14
378.249	5.16
378.696	5.19
379.143	5.21
379.591	5.26
380.038	5.3
380.485	5.34
380.932	5.36
381.379	5.38
381.826	5.41
382.273	5.43
382.72	5.47
383.166	5.49
383.613	5.51
384.06	5.53
384.506	5.54
384.953	5.56
385.4	5.59
385.846	5.62
386.292	5.66
386.739	5.7
387.185	5.74
387.631	5.77
388.078	5.81
388.524	5.83
388.97	5.86
389.416	5.89
389.862	5.91
390.308	5.94
390.754	5.98
391.2	6.01
391.645	6.05
392.091	6.07
392.537	6.1
392.983	6.14
393.428	6.18
393.874	6.22
394.319	6.26
394.765	6.29
395.21	6.32
395.655	6.35
396.101	6.38
396.546	6.4
396.991	6.43
397.436	6.44
397.881	6.46
398.326	6.5
398.771	6.53
399.216	6.57
399.661	6.62
400.106	6.67
400.551	6.68
400.995	6.68
401.44	6.68
401.885	6.69
402.329	6.72
402.774	6.73
403.218	6.74
403.663	6.75
404.107	6.76
404.551	6.76
404.995	6.75
405.44	6.76
405.884	6.76
406.328	6.79
406.772	6.8
407.216	6.83
407.66	6.84
408.104	6.85
408.547	6.85
408.991	6.85
409.435	6.86
409.879	6.88
410.322	6.9
410.766	6.93
411.209	6.95
411.653	6.94
412.096	6.94
412.54	6.95
412.983	6.97
413.426	6.99
413.869	7.02
414.312	7.03
414.756	7.05
415.199	7.06
415.642	7.09
416.085	7.13
416.527	7.16
416.97	7.18
417.413	7.18
417.856	7.18
418.298	7.17
418.741	7.17
419.184	7.18
419.626	7.18
420.069	7.19
420.511	7.18
420.953	7.16
421.396	7.16
421.838	7.17
422.28	7.21
422.722	7.22
423.164	7.23
423.606	7.24
424.048	7.24
424.49	7.26
424.932	7.27
425.374	7.27
425.816	7.27
426.258	7.25
426.699	7.2
427.141	7.15
427.582	7.13
428.024	7.14
428.465	7.13
428.907	7.15
429.348	7.14
429.789	7.13
430.231	7.11
430.672	7.11
431.113	7.14
431.554	7.18
431.995	7.21
432.436	7.21
432.877	7.18
433.318	7.17
433.759	7.17
434.2	7.17
434.64	7.19
435.081	7.21
435.522	7.23
435.962	7.24
436.403	7.27
436.843	7.29
437.284	7.33
437.724	7.4
438.164	7.44
438.604	7.45
439.045	7.48
439.485	7.5
439.925	7.51
440.365	7.53
440.805	7.53
441.245	7.52
441.685	7.55
442.125	7.56
442.564	7.57
443.004	7.59
443.444	7.62
443.883	7.65
444.323	7.67
444.762	7.74
445.202	7.8
445.641	7.85
446.081	7.93
446.52	7.94
446.959	7.98
447.398	8.05
447.837	8.1
448.276	8.13
448.716	8.17
449.154	8.25
449.593	8.26
450.032	8.27
450.471	8.31
450.91	8.32
451.349	8.36
451.787	8.39
452.226	8.39
452.664	8.39
453.103	8.41
453.541	8.43
453.98	8.4
454.418	8.4
454.856	8.37
455.295	8.34
455.733	8.34
456.171	8.33
456.609	8.32
457.047	8.31
457.485	8.3
457.923	8.28
458.361	8.24
458.798	8.25
459.236	8.25
459.674	8.26
460.111	8.26
460.549	8.24
460.987	8.23
461.424	8.22
461.862	8.22
462.299	8.2
462.736	8.21
463.173	8.21
463.611	8.2
464.048	8.19
464.485	8.18
464.922	8.17
465.359	8.18
465.796	8.14
466.233	8.14
466.67	8.15
467.106	8.15
467.543	8.14
467.98	8.16
468.416	8.18
468.853	8.18
469.29	8.21
469.726	8.23
470.162	8.24
470.599	8.28
471.035	8.29
471.471	8.3
471.907	8.32
472.344	8.35
472.78	8.36
473.216	8.36
473.652	8.34
474.088	8.35
474.523	8.35
474.959	8.36
475.395	8.36
475.831	8.37
476.266	8.37
476.702	8.38
477.138	8.37
477.573	8.36
478.008	8.37
478.444	8.37
478.879	8.36
479.314	8.37
479.75	8.38
480.185	8.37
480.62	8.38
481.055	8.38
481.49	8.37
481.925	8.36
482.36	8.35
482.795	8.34
483.229	8.35
483.664	8.35
484.099	8.34
484.534	8.34
484.968	8.34
485.403	8.34
485.837	8.35
486.271	8.36
486.706	8.37
487.14	8.4
487.574	8.43
488.009	8.45
488.443	8.47
488.877	8.51
489.311	8.55
489.745	8.61
490.179	8.65
490.613	8.7
491.046	8.74
491.48	8.81
491.914	8.87
492.348	8.94
492.781	9.01
493.215	9.09
493.648	9.17
494.082	9.26
494.515	9.34
494.948	9.43
495.382	9.54
495.815	9.65
496.248	9.77
496.681	9.88
497.114	9.99
497.547	10.11
497.98	10.23
498.413	10.36
498.846	10.5
499.279	10.65
499.711	10.8
500.144	10.96
500.577	11.13
501.009	11.3
501.442	11.48
501.874	11.67
502.306	11.89
502.739	12.1
503.171	12.34
503.603	12.57
504.036	12.81
504.468	13.07
504.9	13.33
505.332	13.62
505.764	13.91
506.196	14.22
506.627	14.53
507.059	14.84
507.491	15.17
507.923	15.5
508.354	15.85
508.786	16.2
509.217	16.55
509.649	16.92
510.08	17.3
510.512	17.67
510.943	18.06
511.374	18.46
511.805	18.85
512.237	19.27
512.668	19.66
513.099	20.1
513.53	20.53
513.961	20.95
514.391	21.38
514.822	21.82
515.253	22.25
515.684	22.67
516.114	23.11
516.545	23.57
516.975	24.03
517.406	24.5
517.836	24.94
518.267	25.37
518.697	25.82
519.127	26.26
519.558	26.71
519.988	27.15
520.418	27.58
520.848	28
521.278	28.42
521.708	28.77
522.138	29.13
522.567	29.54
522.997	29.92
523.427	30.3
523.857	30.66
524.286	31.01
524.716	31.36
525.145	31.7
525.575	32
526.004	32.3
526.433	32.65
526.863	32.97
527.292	33.22
527.721	33.5
528.15	33.75
528.579	34
529.008	34.24
529.437	34.45
529.866	34.67
530.295	34.9
530.724	35.12
531.152	35.3
531.581	35.48
532.01	35.65
532.438	35.82
532.867	35.98
533.295	36.13
533.723	36.27
534.152	36.4
534.58	36.53
535.008	36.63
535.436	36.71
535.865	36.78
536.293	36.88
536.721	36.97
537.149	37.04
537.576	37.09
538.004	37.17
538.432	37.23
538.86	37.28
539.287	37.33
539.715	37.41
540.143	37.48
540.57	37.54
540.998	37.59
541.425	37.64
541.852	37.69
542.28	37.76
542.707	37.79
543.134	37.84
543.561	37.87
543.988	37.92
544.415	37.97
544.842	37.98
545.269	38.03
545.696	38.07
546.123	38.12
546.549	38.15
546.976	38.18
547.403	38.18
547.829	38.22
548.256	38.27
548.682	38.3
549.108	38.33
549.535	38.36
549.961	38.38
550.387	38.38
550.813	38.37
551.24	38.36
551.666	38.38
552.092	38.4
552.518	38.37
552.943	38.35
553.369	38.33
553.795	38.29
554.221	38.25
554.646	38.2
555.072	38.19
555.498	38.16
555.923	38.12
556.349	38.04
556.774	37.97
557.199	37.92
557.625	37.84
558.05	37.74
558.475	37.67
558.9	37.58
559.325	37.49
559.75	37.34
560.175	37.21
560.6	37.09
561.025	36.98
561.449	36.83
561.874	36.68
562.299	36.54
562.723	36.37
563.148	36.18
563.572	36.02
563.997	35.84
564.421	35.66
564.846	35.49
565.27	35.29
565.694	35.07
566.118	34.88
566.542	34.67
566.966	34.45
567.39	34.23
567.814	34.03
568.238	33.79
568.662	33.56
569.086	33.32
569.509	33.07
569.933	32.82
570.357	32.57
570.78	32.31
571.204	32.05
571.627	31.81
572.05	31.6
572.474	31.36
572.897	31.14
573.32	30.92
573.743	30.72
574.166	30.52
574.589	30.32
575.012	30.14
575.435	29.96
575.858	29.82
576.281	29.66
576.704	29.49
577.126	29.34
577.549	29.21
577.972	29.07
578.394	28.92
578.817	28.78
579.239	28.66
579.661	28.53
580.084	28.41
580.506	28.28
580.928	28.16
581.35	28.04
581.772	27.93
582.194	27.8
582.616	27.69
583.038	27.6
583.46	27.51
583.882	27.43
584.303	27.34
584.725	27.23
585.147	27.1
585.568	27.02
585.99	26.93
586.411	26.83
586.833	26.76
587.254	26.65
587.675	26.56
588.096	26.49
588.518	26.4
588.939	26.34
589.36	26.26
589.781	26.21
590.202	26.15
590.623	26.08
591.043	26.03
591.464	25.97
591.885	25.95
592.305	25.9
592.726	25.85
593.147	25.81
593.567	25.74
593.987	25.73
594.408	25.7
594.828	25.64
595.248	25.59
595.669	25.55
596.089	25.53
596.509	25.45
596.929	25.4
597.349	25.33
597.769	25.27
598.189	25.23
598.608	25.17
599.028	25.11
599.448	25.06
599.867	25
600.287	24.93
600.706	24.83
601.126	24.76
601.545	24.69
601.965	24.62
602.384	24.53
602.803	24.45
603.222	24.35
603.641	24.25
604.061	24.13
604.48	24.03
604.898	23.92
605.317	23.81
605.736	23.71
606.155	23.58
606.574	23.47
606.992	23.34
607.411	23.21
607.829	23.04
608.248	22.92
608.666	22.79
609.085	22.66
609.503	22.53
609.921	22.41
610.339	22.27
610.758	22.15
611.176	22.03
611.594	21.92
612.012	21.79
612.43	21.71
612.847	21.59
613.265	21.48
613.683	21.36
614.101	21.23
614.518	21.12
614.936	21.01
615.353	20.91
615.771	20.78
616.188	20.68
616.606	20.57
617.023	20.48
617.44	20.39
617.857	20.31
618.274	20.25
618.691	20.19
619.108	20.12
619.525	20.05
619.942	19.97
620.359	19.93
620.776	19.87
621.192	19.82
621.609	19.78
622.026	19.74
622.442	19.69
622.859	19.65
623.275	19.62
623.691	19.59
624.108	19.58
624.524	19.56
624.94	19.53
625.356	19.51
625.772	19.5
626.188	19.49
626.604	19.46
627.02	19.43
627.436	19.41
627.852	19.37
628.268	19.34
628.683	19.31
629.099	19.28
629.514	19.25
629.93	19.22
630.345	19.17
630.761	19.12
631.176	19.07
631.591	19
632.007	18.93
632.422	18.88
632.837	18.78
633.252	18.71
633.667	18.6
634.082	18.51
634.497	18.39
634.911	18.29
635.326	18.16
635.741	18.03
636.155	17.91
636.57	17.77
636.984	17.6
637.399	17.44
637.813	17.26
638.228	17.1
638.642	16.91
639.056	16.74
639.47	16.54
639.884	16.34
640.298	16.14
640.712	15.93
641.126	15.73
641.54	15.54
641.954	15.37
642.368	15.18
642.781	14.98
643.195	14.79
643.609	14.59
644.022	14.41
644.436	14.27
644.849	14.11
645.262	13.95
645.676	13.8
646.089	13.64
646.502	13.49
646.915	13.36
647.328	13.25
647.741	13.12
648.154	13.03
648.567	12.93
648.98	12.82
649.393	12.73
649.805	12.65
650.218	12.58
650.631	12.52
651.043	12.44
651.456	12.37
651.868	12.29
652.28	12.23
652.693	12.13
653.105	12.04
653.517	11.96
653.929	11.87
654.341	11.77
654.753	11.67
655.165	11.55
655.577	11.44
655.989	11.32
656.401	11.19
656.813	11.05
657.224	10.93
657.636	10.81
658.047	10.67
658.459	10.53
658.87	10.38
659.282	10.25
659.693	10.1
660.104	9.95
660.515	9.81
660.926	9.69
661.338	9.57
661.749	9.43
662.159	9.29
662.57	9.16
662.981	9.04
663.392	8.93
663.803	8.82
664.213	8.73
664.624	8.64
665.035	8.55
665.445	8.46
665.855	8.4
666.266	8.33
666.676	8.27
667.086	8.21
667.497	8.16
667.907	8.11
668.317	8.06
668.727	8.01
669.137	7.98
669.547	7.96
669.956	7.93
670.366	7.91
670.776	7.88
671.186	7.88
671.595	7.87
672.005	7.87
672.414	7.87
672.824	7.89
673.233	7.91
673.642	7.92
674.052	7.93
674.461	7.95
674.87	7.98
675.279	8
675.688	8.03
676.097	8.07
676.506	8.12
676.915	8.16
677.323	8.22
677.732	8.27
678.141	8.33
678.549	8.4
678.958	8.48
679.366	8.55
679.775	8.67
680.183	8.78
680.592	8.9
681	9.02
681.408	9.18
681.816	9.34
682.224	9.52
682.632	9.75
683.04	9.98
683.448	10.25
683.856	10.55
684.264	10.86
684.671	11.21
685.079	11.59
685.487	12.02
685.894	12.48
686.302	12.98
686.709	13.52
687.116	14.07
687.524	14.69
687.931	15.32
688.338	16
688.745	16.71
689.152	17.47
689.559	18.25
689.966	19.05
690.373	19.87
690.78	20.72
691.187	21.59
691.593	22.45
692	23.35
692.407	24.25
692.813	25.14
693.22	26.03
693.626	26.94
694.032	27.86
694.439	28.78
694.845	29.7
695.251	30.59
695.657	31.46
696.063	32.35
696.469	33.21
696.875	34.06
697.281	34.89
697.687	35.75
698.093	36.55
698.498	37.34
698.904	38.12
699.31	38.87
699.715	39.64
700.12	40.37
700.526	41.14
700.931	41.88
701.337	42.59
701.742	43.27
702.147	43.94
702.552	44.61
702.957	45.24
703.362	45.89
703.767	46.51
704.172	47.11
704.577	47.71
704.981	48.27
705.386	48.81
705.791	49.35
706.195	49.9
706.6	50.42
707.004	50.95
707.408	51.47
707.813	51.93
708.217	52.4
708.621	52.86
709.025	53.3
709.43	53.73
709.834	54.19
710.237	54.57
710.641	55.04
711.045	55.42
711.449	55.77
711.853	56.13
712.256	56.51
712.66	56.91
713.064	57.26
713.467	57.63
713.87	57.96
714.274	58.3
714.677	58.68
715.08	58.97
715.484	59.33
715.887	59.71
716.29	60.03
716.693	60.37
717.096	60.65
717.499	60.95
717.901	61.22
718.304	61.52
718.707	61.78
719.109	62.08
719.512	62.35
719.915	62.61
720.317	62.81
720.719	63.07
721.122	63.3
721.524	63.55
721.926	63.79
722.328	64.02
722.731	64.24
723.133	64.44
723.535	64.65
723.937	64.84
724.338	64.98
724.74	65.18
725.142	65.23
725.544	65.38
725.945	65.54
726.347	65.69
726.748	65.8
727.15	65.91
727.551	66.04
727.952	66.14
728.354	66.27
728.755	66.42
729.156	66.54
729.557	66.78
729.958	66.89
730.359	67.01
730.76	67.09
731.161	67.22
731.562	67.36
731.962	67.48
732.363	67.55
732.763	67.63
733.164	67.69
733.564	67.76
733.965	67.81
734.365	67.88
734.766	67.94
735.166	67.99
735.566	68
735.966	68.03
736.366	68.06
736.766	68.13
737.166	68.16
737.566	68.21
737.966	68.27
738.365	68.34
738.765	68.39
739.165	68.38
739.564	68.42
739.964	68.5
740.363	68.53
740.763	68.55
741.162	68.57
741.561	68.62
741.96	68.65
742.36	68.67
742.759	68.66
743.158	68.7
743.557	68.78
743.955	68.85
744.354	68.91
744.753	69
745.152	69.06
745.55	69.12
745.949	69.19
746.348	69.24
746.746	69.34
747.144	69.41
747.543	69.46
747.941	69.53
748.339	69.61
748.737	69.65
749.136	69.63
749.534	69.67
749.932	69.7
750.33	69.71
750.727	69.7
751.125	69.71
751.523	69.73
751.921	69.71
752.318	69.67
752.716	69.61
753.113	69.56
753.511	69.53
753.908	69.5
754.305	69.43
754.703	69.39
755.1	69.39
755.497	69.33
755.894	69.29
756.291	69.3
756.688	69.3
757.085	69.28
757.482	69.28
757.878	69.3
758.275	69.27
758.672	69.33
759.068	69.35
759.465	69.32
759.861	69.33
760.258	69.28
760.654	69.21
761.05	69.17
761.447	69.15
761.843	69.1
762.239	69.06
762.635	69.05
763.031	69.02
763.427	68.96
763.822	68.93
764.218	68.87
764.614	68.89
765.01	68.91
765.405	68.92
765.801	68.91
766.196	68.93
766.592	68.94
766.987	68.94
767.382	68.94
767.778	68.99
768.173	68.99
768.568	68.99
768.963	69.02
769.358	69.02
769.753	69.05
770.148	69.07
770.542	69.09
770.937	69.09
771.332	69.09
771.726	69.06
772.121	68.98
772.515	69
772.91	69.04
773.304	68.98
773.699	68.94
774.093	68.9
774.487	68.89
774.881	68.91
775.275	68.92
775.669	68.98
776.063	68.99
776.457	69.04
776.851	69.02
777.245	69.01
777.638	69.01
778.032	69.04
778.425	69.09
778.819	69.08
779.212	69.03
779.606	69
779.999	68.97
780.392	69.01
780.786	68.98
781.179	69.02
781.572	69.03
781.965	69.07
782.358	69.07
782.751	69.05
783.143	69.06
783.536	69.12
783.929	69.18
784.322	69.17
784.714	69.13
785.107	69.15
785.499	69.13
785.891	69.17
786.284	69.15
786.676	69.18
787.068	69.14
787.46	69.14
787.852	69.12
788.245	69.1
788.636	69.14
789.028	69.15
789.42	69.13
789.812	69.17
790.204	69.12
790.595	69.16
790.987	69.16
791.378	69.21
791.77	69.21
792.161	69.22
792.553	69.23
792.944	69.24
793.335	69.26
793.726	69.27
794.117	69.23
794.508	69.26
794.899	69.24
795.29	69.25
795.681	69.27
796.072	69.32
796.463	69.29
796.853	69.29
797.244	69.28
797.634	69.26
798.025	69.33
798.415	69.38
798.806	69.4
799.196	69.4
799.586	69.39
799.976	69.38
800.366	69.37
800.756	69.42
801.146	69.43
801.536	69.44
801.926	69.45
802.316	69.43
802.706	69.43
803.095	69.45
803.485	69.5
803.874	69.52
804.264	69.56
804.653	69.53
805.043	69.54
805.432	69.51
805.821	69.49
806.21	69.55
806.599	69.57
806.988	69.58
807.377	69.62
807.766	69.64
808.155	69.66
808.544	69.65
808.933	69.69
809.321	69.71
809.71	69.79
810.098	69.82
810.487	69.82
810.875	69.8
811.264	69.83
811.652	69.79
812.04	69.81
812.428	69.86
812.816	69.89
813.204	69.87
813.592	69.85
813.98	69.81
814.368	69.82
814.756	69.82
815.144	69.86
815.531	69.83
815.919	69.83
816.306	69.82
816.694	69.82
817.081	69.8
817.469	69.83
817.856	69.93
818.243	69.96
818.63	70
819.017	70.01
819.404	70.02
819.791	70.05
820.178	70.06
820.565	70.04
820.952	70.04
821.339	70.06
821.725	70.11
822.112	70.14
822.498	70.13
822.885	70.12
823.271	70.16
823.657	70.17
824.044	70.14
824.43	70.2
824.816	70.22
825.202	70.2
825.588	70.21
825.974	70.18
826.36	70.11
826.746	70.14
827.132	70.13
827.517	70.11
827.903	70.09
828.289	70.12
828.674	70.09
829.06	70.09
829.445	70.11
829.83	70.11
830.216	70.08
830.601	70.08
830.986	70.07
831.371	70.09
831.756	70.06
832.141	70.07
832.526	70.03
832.911	70.02
833.295	70.02
833.68	70.02
834.065	69.98
834.449	69.99
834.834	69.95
835.218	69.91
835.603	69.87
835.987	69.86
836.371	69.85
836.755	69.85
837.139	69.86
837.524	69.84
837.908	69.8
838.291	69.81
838.675	69.8
839.059	69.84
839.443	69.85
839.827	69.84
840.21	69.9
840.594	69.88
840.977	69.87
841.361	69.86
841.744	69.86
842.127	69.87
842.511	69.87
842.894	69.85
843.277	69.82
843.66	69.8
844.043	69.8
844.426	69.73
844.809	69.74
845.191	69.7
845.574	69.69
845.957	69.65
846.339	69.64
846.722	69.64
847.104	69.64
847.487	69.7
847.869	69.7
848.252	69.7
848.634	69.76
849.016	69.75
849.398	69.8
849.78	69.79
850.162	69.85
850.544	69.87
850.926	69.85
851.307	69.85
851.689	69.78
852.071	69.77
852.452	69.78
852.834	69.72
853.215	69.72
853.597	69.71
853.978	69.67
854.359	69.65
854.741	69.62
855.122	69.62
855.503	69.65
855.884	69.68
856.265	69.68
856.646	69.67
857.026	69.69
857.407	69.64
857.788	69.67
858.169	69.71
858.549	69.74
858.93	69.76
859.31	69.75
859.69	69.73
860.071	69.72
860.451	69.69
860.831	69.66
861.211	69.67
861.591	69.72
861.971	69.7
862.351	69.71
862.731	69.67
863.111	69.64
863.491	69.65
863.87	69.62
864.25	69.62
864.629	69.67
865.009	69.69
865.388	69.67
865.768	69.66
866.147	69.66
866.526	69.62
866.905	69.63
867.284	69.69
867.663	69.75
868.042	69.77
868.421	69.78
868.8	69.77
869.179	69.77
869.558	69.76
869.936	69.73
870.315	69.71
870.693	69.76
871.072	69.75
871.45	69.68
871.828	69.61
872.207	69.61
872.585	69.6
872.963	69.57
873.341	69.57
873.719	69.58
874.097	69.6
874.475	69.62
874.853	69.59
875.23	69.56
875.608	69.59
875.986	69.6
876.363	69.59
876.741	69.59
877.118	69.6
877.495	69.62
877.873	69.61
878.25	69.62
878.627	69.62
879.004	69.6
879.381	69.66
879.758	69.65
880.135	69.67
880.512	69.7
880.889	69.7
881.265	69.75
881.642	69.73
882.019	69.75
882.395	69.75
882.772	69.74
883.148	69.73
883.524	69.75
883.901	69.73
884.277	69.69
884.653	69.68
885.029	69.67
885.405	69.63
885.781	69.62
886.157	69.6
886.532	69.59
886.908	69.61
887.284	69.62
887.659	69.6
888.035	69.6
888.411	69.58
888.786	69.55
889.161	69.55
889.537	69.56
889.912	69.51
890.287	69.48
890.662	69.45
891.037	69.37
891.412	69.32
891.787	69.27
892.162	69.23
892.536	69.22
892.911	69.19
893.286	69.11
893.66	69.06
894.035	69.06
894.409	69.03
894.784	69.04
895.158	69.05
895.532	69.03
895.906	68.98
896.281	68.97
896.655	68.92
897.029	68.86
897.402	68.87
897.776	68.84
898.15	68.83
898.524	68.83
898.898	68.76
899.271	68.75
899.645	68.75
900.018	68.76
900.392	68.76
900.765	68.8
901.138	68.87
901.511	68.9
901.884	68.93
902.258	68.91
902.631	68.91
903.003	68.94
903.376	68.94
903.749	68.94
904.122	68.95
904.495	68.98
904.867	68.94
905.24	68.92
905.612	68.91
905.985	68.87
906.357	68.87
906.729	68.83
907.102	68.84
907.474	68.83
907.846	68.82
908.218	68.79
908.59	68.76
908.962	68.75
909.334	68.79
909.705	68.77
910.077	68.77
910.449	68.82
910.82	68.82
911.192	68.81
911.563	68.8
911.935	68.82
912.306	68.83
912.677	68.8
913.048	68.78
913.419	68.72
913.79	68.68
914.161	68.7
914.532	68.67
914.903	68.68
915.274	68.66
915.645	68.65
916.015	68.64
916.386	68.62
916.756	68.6
917.127	68.61
917.497	68.6
917.868	68.58
918.238	68.58
918.608	68.54
918.978	68.52
919.348	68.47
919.718	68.45
920.088	68.47
920.458	68.52
920.828	68.53
921.198	68.53
921.567	68.52
921.937	68.53
922.306	68.52
922.676	68.52
923.045	68.47
923.415	68.5
923.784	68.5
924.153	68.44
924.522	68.39
924.891	68.41
925.26	68.39
925.629	68.39
925.998	68.42
926.367	68.37
926.736	68.31
927.104	68.33
927.473	68.34
927.842	68.28
928.21	68.3
928.578	68.27
928.947	68.25
929.315	68.22
929.683	68.19
930.051	68.09
930.42	68.06
930.788	68.07
931.156	68
931.523	67.92
931.891	67.86
932.259	67.69
932.627	67.56
932.994	67.42
933.362	67.32
933.729	67.18
934.097	67.11
934.464	66.97
934.831	66.85
935.199	66.77
935.566	66.63
935.933	66.59
936.3	66.51
936.667	66.48
937.034	66.38
937.401	66.32
937.767	66.28
938.134	66.23
938.501	66.23
938.867	66.32
939.234	66.4
939.6	66.5
939.967	66.56
940.333	66.68
940.699	66.85
941.065	67.01
941.431	67.16
941.798	67.32
942.163	67.52
942.529	67.75
942.895	67.85
943.261	67.89
943.627	68.03
943.992	68.13
944.358	68.2
944.723	68.26
945.089	68.41
945.454	68.51
945.82	68.52
946.185	68.57
946.55	68.65
946.915	68.7
947.28	68.74
947.645	68.72
948.01	68.71
948.375	68.71
948.74	68.62
949.104	68.59
949.469	68.46
949.834	68.35
950.198	68.16
950.562	67.98
950.927	67.76
951.291	67.66
951.655	67.67
952.02	67.69
952.384	67.65
952.748	67.63
953.112	67.56
953.476	67.52
953.839	67.57
954.203	67.54
954.567	67.6
954.931	67.66
955.294	67.62
955.658	67.52
956.021	67.43
956.385	67.5
956.748	67.43
957.111	67.4
957.474	67.44
957.837	67.38
958.2	67.41
958.563	67.29
958.926	67.26
959.289	67.25
959.652	67.25
960.015	67.22
960.377	67.09
960.74	67.03
961.102	66.98
961.465	66.88
961.827	66.73
962.189	66.57
962.552	66.47
962.914	66.39
963.276	66.34
963.638	66.22
964	66.11
964.362	66.12
964.724	66.11
965.085	66.06
965.447	66.01
965.809	66.05
966.17	66.12
966.532	66.16
966.893	66.04
967.255	65.96
967.616	66.07
967.977	66.13
968.338	66.03
968.699	66.02
969.061	66
969.421	66.01
969.782	66
970.143	66.04
970.504	65.99
970.865	66.05
971.225	66.05
971.586	66.01
971.946	66.01
972.307	66.05
972.667	66.12
973.027	66.13
973.388	66.12
973.748	66.14
974.108	66.06
974.468	66.03
974.828	66
975.188	66.06
975.548	66.1
975.907	66.08
976.267	65.98
976.627	65.88
976.986	65.79
977.346	65.77
977.705	65.77
978.064	65.76
978.424	65.91
978.783	65.98
979.142	65.91
979.501	65.75
979.86	65.74
980.219	65.83
980.578	65.78
980.937	65.87
981.296	65.81
981.654	65.86
982.013	65.98
982.371	65.91
982.73	65.82
983.088	65.86
983.447	65.92
983.805	65.84
984.163	65.77
984.521	65.75
984.879	65.75
985.237	65.88
985.595	65.77
985.953	65.67
986.311	65.64
986.669	65.74
987.026	65.77
987.384	65.76
987.741	65.84
988.099	65.8
988.456	65.77
988.814	65.67
989.171	65.61
989.528	65.56
989.885	65.57
990.242	65.65
990.599	65.56
990.956	65.6
991.313	65.59
991.67	65.55
992.027	65.51
992.383	65.58
992.74	65.65
993.096	65.56
993.453	65.61
993.809	65.66
994.165	65.61
994.522	65.53
994.878	65.44
995.234	65.4
995.59	65.34
995.946	65.57
996.302	65.56
996.658	65.66
997.013	65.78
997.369	65.77
997.725	65.78
998.08	65.71
998.436	65.93
998.791	65.96
999.147	66.05
999.502	66.16
999.857	66.18
1000.212	66.2
1000.567	66.17
1000.922	66.12
1001.277	66.04
1001.632	66.02
1001.987	66.02
1002.342	65.98
1002.696	65.91
1003.051	65.71
1003.406	65.55
1003.76	65.43
1004.114	65.61
1004.469	65.54
1004.823	65.61
1005.177	65.89
1005.531	65.67
1005.885	65.78
1006.239	65.77
1006.593	65.75
1006.947	65.73
1007.301	65.94
1007.655	66.08
1008.008	65.71
1008.362	65.71
1008.715	65.63
1009.069	65.57
1009.422	65.7
1009.776	65.6
1010.129	65.39
1010.482	65.53
1010.835	65.8
1011.188	65.58
1011.541	65.24
1011.894	65.48
1012.247	65.51
1012.6	65.46
1012.952	65.25
1013.305	65.13
1013.657	65.23
1014.01	65.46
1014.362	65.47
1014.715	65.12
1015.067	65.37
1015.419	65.69
1015.771	65.74
1016.123	65.88
1016.475	66.2
1016.827	66.4
1017.179	66.39
1017.531	66.28
1017.883	66.35
1018.234	66.34
1018.586	66.55
1018.938	66.17
1019.289	66
1019.64	66.25
1019.992	66.13
1020.343	65.76
1020.694	65.57
1021.045	65.86
1021.396	65.8
1021.747	65.6
1022.098	65.86
1022.449	65.97
1022.8	66.15
1023.151	66.19
1023.501	65.83
1023.852	66.04
1024.202	66.13
1024.553	66.11
1024.903	65.83
1025.253	65.73
1025.604	65.88
1025.954	65.32
1026.304	65.71
1026.654	66.04
1027.004	66.14
1027.354	65.84
1027.703	65.34
1028.053	65.3
1028.403	64.79
1028.753	64.95
1029.102	65.28
1029.452	65.27
1029.801	65.53
1030.15	65
1030.499	64.68
897.758	213.77
901.051	217.31
904.343	223.8
907.636	220.12
910.928	217.67
914.22	219.32
917.511	212.77
920.803	210.18
924.094	200.7
927.384	205.16
930.675	200.93
933.965	198.64
937.255	197.06
940.544	187.29
943.834	184.26
947.123	180.78
950.411	175.41
953.7	175.29
956.988	169.93
960.276	165.73
963.563	166.81
966.851	160.84
970.138	158.67
973.424	151.45
976.711	151.71
979.997	149.47
983.283	146.17
986.568	142.64
989.853	141.02
993.138	137.55
996.423	137.96
999.708	134.34
1002.992	134.88
1006.275	131.79
1009.559	131.49
1012.842	128.79
1016.125	123.27
1019.408	122.7
1022.69	124.37
1025.972	122.02
1029.254	121.32
1032.536	118.89
1035.817	115.47
1039.098	113.66
1042.379	114.82
1045.659	114.75
1048.939	113.21
1052.219	112.69
1055.498	111.97
1058.778	109.18
1062.057	109.12
1065.335	108.78
1068.614	107.83
1071.892	107.93
1075.17	108
1078.447	105.91
1081.724	105.5
1085.001	104.02
1088.278	103.99
1091.554	105.17
1094.83	104.28
1098.106	103.13
1101.382	102.37
1104.657	102.16
1107.932	102.32
1111.206	101.86
1114.481	100.89
1117.755	98.68
1121.029	99.36
1124.302	98.73
1127.575	96.98
1130.848	97.02
1134.121	96.5
1137.393	96.24
1140.665	95.68
1143.937	94.48
1147.208	93.28
1150.48	93.07
1153.75	93.21
1157.021	91.44
1160.291	91.65
1163.561	90.26
1166.831	91.01
1170.101	90.4
1173.37	89.63
1176.639	89.06
1179.907	88.8
1183.176	88.4
1186.444	88.23
1189.711	88.38
1192.979	88.94
1196.246	88.64
1199.513	89.12
1202.78	88.05
1206.046	88.43
1209.312	88.75
1212.578	88.95
1215.843	90.57
1219.108	90.69
1222.373	91.94
1225.638	92.56
1228.902	94.01
1232.166	95.88
1235.43	96.27
1238.693	97.98
1241.956	100.11
1245.219	101.74
1248.482	102.11
1251.744	100.8
1255.006	101.5
1258.268	98.85
1261.529	98.56
1264.79	97.4
1268.051	96.72
1271.312	96.55
1274.572	95.18
1277.832	93.08
1281.092	92.73
1284.351	92.17
1287.61	91.98
1290.869	92.04
1294.128	91.98
1297.386	91.82
1300.644	91.41
1303.902	89.75
1307.159	88.92
1310.416	89.38
1313.673	90.41
1316.93	89.75
1320.186	90.29
1323.442	90.88
1326.697	90.39
1329.953	89.81
1333.208	90.66
1336.463	92.76
1339.717	94.54
1342.972	95.21
1346.226	95.91
1349.479	95
1352.733	97.49
1355.986	97.59
1359.238	97.68
1362.491	97.33
1365.743	101.13
1368.995	101.88
1372.247	97.78
1375.498	95.92
1378.749	97.52
1382	98.4
1385.251	96.56
1388.501	95.54
1391.751	95.57
1395	94.81
1398.25	95.52
1401.499	93.48
1404.748	91.28
1407.996	90.15
1411.244	90.87
1414.492	90.11
1417.74	85.57
1420.987	84.38
1424.234	82.42
1427.481	79.04
1430.728	77.28
1433.974	72.8
1437.22	71.8
1440.465	68.77
1443.711	68.11
1446.956	65.89
1450.201	63.34
1453.445	60.77
1456.689	59.54
1459.933	58.87
1463.177	56.69
1466.42	55.68
1469.663	55.37
1472.906	53.37
1476.148	51.73
1479.391	51.92
1482.633	51.41
1485.874	51.82
1489.115	52.09
1492.356	51.96
1495.597	51.31
1498.838	51.93
1502.078	52.23
1505.318	52.91
1508.557	52.51
1511.797	54.57
1515.036	54.52
1518.274	54.75
1521.513	54.68
1524.751	54.51
1527.989	55.01
1531.227	55.18
1534.464	56.33
1537.701	56.16
1540.938	55.96
1544.174	56.86
1547.41	56.57
1550.646	56.81
1553.882	57.01
1557.117	58.02
1560.352	58.14
1563.587	58.83
1566.821	58.88
1570.055	58.7
1573.289	59.22
1576.523	59.31
1579.756	59.18
1582.989	60.04
1586.222	60.12
1589.454	60.41
1592.686	60.41
1595.918	60.18
1599.15	59.87
1602.381	60.6
1605.612	60.77
1608.843	60.87
1612.073	61.68
1615.303	62.22
1618.533	62.17
1621.762	61.98
1624.992	62
1628.221	61.69
1631.449	62.41
1634.678	62.72
1637.906	62.17
1641.134	62.46
1644.361	62.6
1647.588	62.2
1650.815	62.36
1654.042	62.44
1657.269	62.7
1660.495	63.07
1663.72	62.75
1666.946	62.84
1670.171	63.05
1673.396	63.71
1676.621	63.37
1679.845	64.14
1683.069	63.72
1686.293	63.31
1689.517	63.13
1692.74	63.31
1695.963	63.15
1699.185	63.68
1702.408	63.38
1705.63	63.24
1708.852	63.36
1712.073	62.99
1715.294	62.1
1718.515	63.65
1721.736	63.65
1724.956	63.2
1728.176	63.04
1731.396	62.91
1734.616	63.2
1737.835	63.2
1741.054	62.84
1744.272	62.21
1747.491	62.57
1750.709	62.69
1753.927	61.53
1757.144	61.47
1760.361	61.57
1763.578	61.55
1766.795	62.04
1770.011	61.33
1773.227	61.11
1776.443	61.44
1779.658	61.14
1782.874	61.74
1786.089	60.61
1789.303	60.59
1792.518	60.79
1795.732	61.28
1798.945	61.78
1802.159	61.18
1805.372	61.37
1808.585	62.36
1811.797	61.46
1815.01	62.47
1818.222	62.04
1821.434	62.87
1824.645	62.52
1827.856	62.63
1831.067	62.28
1834.278	61.95
1837.488	62.85
1840.698	62.53
1843.908	62.06
1847.117	63.19
1850.326	62.39
1853.535	62.26
1856.744	61.83
1859.952	61.86
1863.16	61.11
1866.368	59.58
1869.575	59.18
1872.782	56.58
1875.989	55.23
1879.196	53.91
1882.402	51.46
1885.608	51.33
1888.814	49.37
1892.019	48.67
1895.224	46.94
1898.429	46.66
1901.634	45.94
1904.838	45.17
1908.042	44.86
1911.246	45.21
1914.449	45.38
1917.652	45.79
1920.855	45.34
1924.058	43.9
1927.26	42.82
1930.462	43.96
1933.664	43.86
1936.865	44.71
1940.066	42.61
1943.267	43.64
1946.467	43.18
1949.668	42.82
1952.868	43.23
1956.067	42.97
1959.267	45.3
1962.466	45.61
1965.665	46.27
1968.863	46.71
1972.061	47.04
1975.259	48.03
1978.457	47.83
1981.654	48.99
1984.852	49.97
1988.048	50.1
1991.245	50.65
1994.441	51.13
1997.637	52.52
2000.833	53.05
2004.028	53.34
2007.223	54.18
2010.418	56.96
2013.613	60.24
2016.807	61.38
2020.001	63.28
2023.194	64.82
2026.388	67.44
2029.581	70.97
2032.774	71.85
2035.966	73.66
2039.158	76.11
2042.35	77.38
2045.542	79
2048.733	79.67
2051.924	80.11
2055.115	79.71
2058.306	80.59
2061.496	80.2
2064.686	79.86
2067.875	81.76
2071.065	83.36
2074.254	82.24
2077.442	85.16
2080.631	84.37
2083.819	85.54
2087.007	88.62
2090.195	90.21
2093.382	90.64
2096.569	92.31
2099.756	94
2102.942	94.67
2106.128	96.04
2109.314	100.2
2112.5	100.45
2115.685	98.48
2118.87	98.69
2122.055	99.28
2125.239	100.63
2128.424	103.9
2131.608	101.49
2134.791	100.05
2137.974	103.32
2141.157	103.81
2144.34	102.86
2147.523	104.6
2150.705	110
2153.887	110.67
2157.068	111.57
2160.25	113.28
2163.431	112.52
2166.611	115.63
2169.792	119.09
2172.972	118.75
2176.152	121.24
2179.331	123.56
2182.511	124.97
2185.69	126.04
2188.868	128.83
2192.047	130.06
2195.225	133.44
2198.403	129.89
2201.58	131.04
2204.758	134.93
2207.935	133.25
2211.111	135.1
2214.288	135.78
2217.464	135.05
2220.64	136.87
2223.815	134.64
2226.991	132.18
2230.166	133.72
2233.34	140.89
2236.515	139.64
2239.689	136.16
2242.863	141.14
2246.036	138.05
2249.209	138.05
2252.382	138.09
2255.555	142.76
2258.727	146.59
2261.9	151.23
2265.071	150.81
2268.243	149.19
2271.414	155.67
2274.585	159.73
2277.756	156.83
2280.926	162.7
2284.096	165.79
2287.266	166.22
2290.436	163.19
2293.605	167.31
2296.774	173.89
2299.942	175.16
2303.111	182.19
2306.279	187.45
2309.447	187.73
2312.614	187.49
2315.781	188.54
2318.948	190.18
2322.115	196.8
2325.281	198.11
2328.447	197.96
2331.613	198.41
2334.779	200.52
2337.944	199.66
2341.109	201.01
2344.274	203.05
2347.438	212.42
2350.602	219.5
2353.766	231.05
2356.929	228.81
2360.092	241.97
2363.255	238.06
2366.418	242.32
2369.58	246.96
2372.742	255.15
2375.904	253.32
2379.066	260.8
2382.227	269.1
2385.388	260.21
2388.548	252.85
2391.709	252.32
2394.869	251.41
2398.029	255.17
2401.188	249.16
2404.347	249.36
2407.506	254.67
2410.665	249.23
2413.823	253.91
2416.981	255.08
2420.139	247.52
2423.296	263.8
2426.453	276.25
2429.61	265.88
2432.767	281.34
2435.923	300.76
2439.079	297.79
2442.235	298.28
2445.391	308.32
2448.546	298.22
2451.701	315.63
2454.855	333.43
2458.009	304.46
2461.163	310.11
2464.317	315.65
2467.471	310.33
2470.624	320.01
2473.777	310.7
2476.929	306.86
2480.082	310.67
2483.234	331.2
2486.385	337.07
2489.537	346.21
2492.688	366.43
2495.839	362.17
2498.989	368.81
2502.14	367.47
2505.29	353.39
2508.439	384.35
2511.589	386.06
2514.738	392.54
2517.887	383.06
2521.035	356.88
2524.183	348.54
2527.331	355.95
2530.479	348.32
2533.627	356.77
