Data from C_2_dec_on_6n_058_Splice17_16.txt Node
Date: Sat Feb 29 14:30:52 EST 2020
User: sa697716
Spectrometer: FLMS03696
Trigger mode: 0
Integration Time (sec): 3.180400E-1
Scans to average: 20
Electric dark correction enabled: true
Nonlinearity correction enabled: true
Boxcar width: 5
XAxis mode: Wavelengths
Number of Pixels in Spectrum: 2048
>>>>>Begin Spectral Data<<<<<
187.83	23.25
188.298	25.62
188.766	34.02
189.233	22.34
189.701	46.25
190.169	50.79
190.636	51.69
191.104	38.54
191.571	212.34
192.039	243.6
192.506	-67.56
192.974	176.84
193.441	167.27
193.908	76.1
194.375	69.47
194.842	211.93
195.31	127.42
195.777	140.37
196.244	37.65
196.711	28.33
197.177	19
197.644	17.35
198.111	16.92
198.578	17.77
199.045	17.01
199.511	16.77
199.978	17.3
200.445	16.85
200.911	16.86
201.378	16.99
201.844	16.82
202.31	18.1
202.777	18.57
203.243	18.95
203.709	19.48
204.176	19.49
204.642	20.1
205.108	20.02
205.574	20.67
206.04	21.1
206.506	21.47
206.972	21.63
207.438	21.09
207.903	21.63
208.369	21.51
208.835	21.22
209.301	21.87
209.766	21.95
210.232	22.41
210.697	22.35
211.163	22.35
211.628	22.22
212.094	22.36
212.559	22.41
213.024	22.17
213.49	22.32
213.955	22.54
214.42	22.44
214.885	22.26
215.35	22.3
215.815	22.25
216.28	22.39
216.745	22.49
217.21	22.31
217.675	22.42
218.14	22.1
218.604	22.06
219.069	21.86
219.534	21.66
219.998	21.52
220.463	21.41
220.927	21.28
221.392	21.1
221.856	20.9
222.32	20.79
222.785	20.63
223.249	20.5
223.713	20.34
224.177	20.2
224.642	20.06
225.106	19.93
225.57	19.72
226.034	19.58
226.497	19.43
226.961	19.27
227.425	19.05
227.889	18.87
228.353	18.72
228.816	18.57
229.28	18.38
229.744	18.21
230.207	18.02
230.671	17.88
231.134	17.73
231.597	17.53
232.061	17.39
232.524	17.26
232.987	17.1
233.45	16.92
233.914	16.75
234.377	16.62
234.84	16.48
235.303	16.34
235.766	16.18
236.229	16.03
236.691	15.91
237.154	15.77
237.617	15.63
238.08	15.5
238.542	15.37
239.005	15.24
239.468	15.08
239.93	14.95
240.393	14.83
240.855	14.68
241.317	14.56
241.78	14.45
242.242	14.33
242.704	14.24
243.166	14.11
243.629	14.01
244.091	13.92
244.553	13.83
245.015	13.75
245.477	13.66
245.939	13.59
246.4	13.49
246.862	13.42
247.324	13.34
247.786	13.26
248.247	13.18
248.709	13.1
249.17	13.02
249.632	12.93
250.093	12.82
250.555	12.74
251.016	12.67
251.477	12.6
251.939	12.51
252.4	12.42
252.861	12.35
253.322	12.28
253.783	12.23
254.244	12.17
254.705	12.12
255.166	12.08
255.627	12.02
256.088	11.97
256.549	11.92
257.009	11.88
257.47	11.83
257.931	11.78
258.391	11.73
258.852	11.68
259.312	11.63
259.773	11.59
260.233	11.54
260.694	11.5
261.154	11.44
261.614	11.41
262.074	11.36
262.534	11.31
262.994	11.27
263.455	11.24
263.915	11.19
264.374	11.14
264.834	11.09
265.294	11.05
265.754	11
266.214	10.96
266.673	10.92
267.133	10.89
267.593	10.85
268.052	10.8
268.512	10.77
268.971	10.73
269.431	10.71
269.89	10.69
270.349	10.66
270.809	10.64
271.268	10.61
271.727	10.59
272.186	10.55
272.645	10.52
273.104	10.5
273.563	10.46
274.022	10.43
274.481	10.4
274.94	10.35
275.399	10.32
275.857	10.28
276.316	10.25
276.775	10.21
277.233	10.17
277.692	10.14
278.15	10.11
278.609	10.08
279.067	10.04
279.525	10
279.984	9.97
280.442	9.96
280.9	9.93
281.358	9.89
281.816	9.86
282.274	9.83
282.732	9.8
283.19	9.77
283.648	9.74
284.106	9.72
284.564	9.71
285.021	9.69
285.479	9.67
285.937	9.66
286.394	9.64
286.852	9.62
287.309	9.6
287.767	9.59
288.224	9.56
288.682	9.54
289.139	9.52
289.596	9.49
290.053	9.45
290.511	9.41
290.968	9.38
291.425	9.35
291.882	9.32
292.339	9.3
292.796	9.26
293.252	9.23
293.709	9.2
294.166	9.17
294.623	9.14
295.079	9.12
295.536	9.1
295.992	9.07
296.449	9.06
296.905	9.03
297.362	9
297.818	8.98
298.274	8.96
298.731	8.95
299.187	8.94
299.643	8.91
300.099	8.9
300.555	8.87
301.011	8.84
301.467	8.82
301.923	8.8
302.379	8.78
302.835	8.77
303.291	8.75
303.746	8.73
304.202	8.7
304.658	8.68
305.113	8.66
305.569	8.66
306.024	8.64
306.479	8.61
306.935	8.6
307.39	8.58
307.845	8.56
308.301	8.55
308.756	8.55
309.211	8.54
309.666	8.54
310.121	8.53
310.576	8.51
311.031	8.51
311.486	8.5
311.94	8.49
312.395	8.48
312.85	8.47
313.305	8.47
313.759	8.45
314.214	8.44
314.668	8.43
315.123	8.43
315.577	8.41
316.032	8.4
316.486	8.39
316.94	8.37
317.394	8.35
317.849	8.33
318.303	8.32
318.757	8.3
319.211	8.28
319.665	8.26
320.119	8.24
320.572	8.23
321.026	8.21
321.48	8.18
321.934	8.18
322.387	8.17
322.841	8.15
323.295	8.13
323.748	8.11
324.202	8.1
324.655	8.08
325.108	8.05
325.562	8.02
326.015	8
326.468	7.98
326.921	7.97
327.374	7.94
327.827	7.93
328.28	7.91
328.733	7.9
329.186	7.88
329.639	7.87
330.092	7.86
330.545	7.86
330.997	7.86
331.45	7.85
331.903	7.83
332.355	7.84
332.808	7.82
333.26	7.82
333.713	7.81
334.165	7.8
334.617	7.8
335.069	7.79
335.522	7.79
335.974	7.79
336.426	7.8
336.878	7.79
337.33	7.77
337.782	7.77
338.234	7.77
338.686	7.75
339.137	7.75
339.589	7.73
340.041	7.71
340.493	7.69
340.944	7.68
341.396	7.65
341.847	7.63
342.299	7.61
342.75	7.58
343.201	7.56
343.653	7.55
344.104	7.53
344.555	7.51
345.006	7.5
345.457	7.47
345.908	7.45
346.359	7.44
346.81	7.42
347.261	7.41
347.712	7.41
348.163	7.4
348.613	7.38
349.064	7.36
349.515	7.34
349.965	7.34
350.416	7.34
350.866	7.33
351.317	7.32
351.767	7.31
352.217	7.31
352.668	7.31
353.118	7.3
353.568	7.3
354.018	7.31
354.468	7.32
354.918	7.32
355.368	7.31
355.818	7.31
356.268	7.32
356.718	7.32
357.168	7.31
357.617	7.3
358.067	7.3
358.517	7.3
358.966	7.3
359.416	7.31
359.865	7.32
360.315	7.32
360.764	7.33
361.213	7.32
361.663	7.34
362.112	7.35
362.561	7.36
363.01	7.38
363.459	7.38
363.908	7.38
364.357	7.37
364.806	7.37
365.255	7.37
365.703	7.37
366.152	7.39
366.601	7.39
367.05	7.39
367.498	7.39
367.947	7.39
368.395	7.4
368.844	7.4
369.292	7.41
369.74	7.42
370.189	7.42
370.637	7.43
371.085	7.44
371.533	7.44
371.981	7.45
372.429	7.46
372.877	7.47
373.325	7.48
373.773	7.5
374.221	7.51
374.669	7.53
375.116	7.53
375.564	7.55
376.012	7.56
376.459	7.56
376.907	7.58
377.354	7.59
377.801	7.61
378.249	7.62
378.696	7.63
379.143	7.65
379.591	7.66
380.038	7.69
380.485	7.7
380.932	7.7
381.379	7.72
381.826	7.74
382.273	7.75
382.72	7.77
383.166	7.8
383.613	7.81
384.06	7.83
384.506	7.85
384.953	7.87
385.4	7.89
385.846	7.91
386.292	7.94
386.739	7.96
387.185	8
387.631	8.01
388.078	8.03
388.524	8.03
388.97	8.04
389.416	8.04
389.862	8.05
390.308	8.06
390.754	8.07
391.2	8.08
391.645	8.1
392.091	8.1
392.537	8.11
392.983	8.14
393.428	8.17
393.874	8.19
394.319	8.22
394.765	8.23
395.21	8.23
395.655	8.24
396.101	8.25
396.546	8.27
396.991	8.27
397.436	8.26
397.881	8.26
398.326	8.28
398.771	8.28
399.216	8.31
399.661	8.33
400.106	8.36
400.551	8.36
400.995	8.36
401.44	8.35
401.885	8.36
402.329	8.37
402.774	8.36
403.218	8.36
403.663	8.36
404.107	8.35
404.551	8.35
404.995	8.35
405.44	8.36
405.884	8.35
406.328	8.34
406.772	8.34
407.216	8.35
407.66	8.36
408.104	8.35
408.547	8.35
408.991	8.33
409.435	8.32
409.879	8.3
410.322	8.3
410.766	8.3
411.209	8.32
411.653	8.3
412.096	8.3
412.54	8.29
412.983	8.28
413.426	8.27
413.869	8.27
414.312	8.3
414.756	8.32
415.199	8.33
415.642	8.35
416.085	8.36
416.527	8.38
416.97	8.39
417.413	8.4
417.856	8.39
418.298	8.37
418.741	8.37
419.184	8.35
419.626	8.35
420.069	8.32
420.511	8.3
420.953	8.27
421.396	8.27
421.838	8.26
422.28	8.29
422.722	8.3
423.164	8.32
423.606	8.32
424.048	8.31
424.49	8.32
424.932	8.33
425.374	8.33
425.816	8.32
426.258	8.29
426.699	8.25
427.141	8.19
427.582	8.17
428.024	8.16
428.465	8.15
428.907	8.16
429.348	8.14
429.789	8.13
430.231	8.1
430.672	8.1
431.113	8.12
431.554	8.15
431.995	8.16
432.436	8.18
432.877	8.18
433.318	8.17
433.759	8.15
434.2	8.15
434.64	8.16
435.081	8.15
435.522	8.17
435.962	8.19
436.403	8.19
436.843	8.21
437.284	8.22
437.724	8.23
438.164	8.25
438.604	8.28
439.045	8.28
439.485	8.29
439.925	8.3
440.365	8.29
440.805	8.29
441.245	8.28
441.685	8.29
442.125	8.32
442.564	8.34
443.004	8.36
443.444	8.37
443.883	8.38
444.323	8.39
444.762	8.44
445.202	8.49
445.641	8.52
446.081	8.56
446.52	8.57
446.959	8.57
447.398	8.62
447.837	8.67
448.276	8.68
448.716	8.7
449.154	8.76
449.593	8.77
450.032	8.76
450.471	8.78
450.91	8.78
451.349	8.8
451.787	8.81
452.226	8.79
452.664	8.77
453.103	8.77
453.541	8.8
453.98	8.77
454.418	8.76
454.856	8.74
455.295	8.74
455.733	8.75
456.171	8.73
456.609	8.73
457.047	8.71
457.485	8.7
457.923	8.69
458.361	8.65
458.798	8.65
459.236	8.64
459.674	8.66
460.111	8.64
460.549	8.62
460.987	8.62
461.424	8.61
461.862	8.61
462.299	8.6
462.736	8.59
463.173	8.59
463.611	8.59
464.048	8.59
464.485	8.57
464.922	8.57
465.359	8.57
465.796	8.55
466.233	8.54
466.67	8.54
467.106	8.54
467.543	8.54
467.98	8.56
468.416	8.56
468.853	8.55
469.29	8.56
469.726	8.57
470.162	8.57
470.599	8.57
471.035	8.58
471.471	8.59
471.907	8.6
472.344	8.6
472.78	8.59
473.216	8.58
473.652	8.58
474.088	8.59
474.523	8.58
474.959	8.57
475.395	8.6
475.831	8.6
476.266	8.61
476.702	8.63
477.138	8.62
477.573	8.61
478.008	8.62
478.444	8.62
478.879	8.6
479.314	8.6
479.75	8.6
480.185	8.59
480.62	8.59
481.055	8.6
481.49	8.57
481.925	8.57
482.36	8.57
482.795	8.56
483.229	8.55
483.664	8.56
484.099	8.56
484.534	8.56
484.968	8.55
485.403	8.56
485.837	8.54
486.271	8.54
486.706	8.55
487.14	8.56
487.574	8.57
488.009	8.58
488.443	8.58
488.877	8.6
489.311	8.61
489.745	8.63
490.179	8.63
490.613	8.65
491.046	8.67
491.48	8.69
491.914	8.72
492.348	8.75
492.781	8.77
493.215	8.8
493.648	8.84
494.082	8.89
494.515	8.92
494.948	8.96
495.382	9
495.815	9.05
496.248	9.1
496.681	9.14
497.114	9.19
497.547	9.24
497.98	9.29
498.413	9.34
498.846	9.4
499.279	9.48
499.711	9.55
500.144	9.62
500.577	9.69
501.009	9.75
501.442	9.85
501.874	9.93
502.306	10.03
502.739	10.12
503.171	10.21
503.603	10.31
504.036	10.41
504.468	10.53
504.9	10.67
505.332	10.8
505.764	10.94
506.196	11.08
506.627	11.22
507.059	11.38
507.491	11.54
507.923	11.7
508.354	11.87
508.786	12.03
509.217	12.19
509.649	12.37
510.08	12.55
510.512	12.73
510.943	12.92
511.374	13.12
511.805	13.32
512.237	13.53
512.668	13.74
513.099	13.97
513.53	14.19
513.961	14.42
514.391	14.65
514.822	14.88
515.253	15.11
515.684	15.34
516.114	15.58
516.545	15.81
516.975	16.07
517.406	16.31
517.836	16.54
518.267	16.8
518.697	17.04
519.127	17.29
519.558	17.55
519.988	17.8
520.418	18.05
520.848	18.29
521.278	18.53
521.708	18.7
522.138	18.93
522.567	19.16
522.997	19.37
523.427	19.59
523.857	19.79
524.286	20
524.716	20.2
525.145	20.37
525.575	20.57
526.004	20.76
526.433	21.01
526.863	21.19
527.292	21.37
527.721	21.54
528.15	21.69
528.579	21.85
529.008	22.01
529.437	22.15
529.866	22.29
530.295	22.41
530.724	22.53
531.152	22.65
531.581	22.76
532.01	22.86
532.438	22.97
532.867	23.09
533.295	23.17
533.723	23.25
534.152	23.34
534.58	23.41
535.008	23.48
535.436	23.54
535.865	23.6
536.293	23.66
536.721	23.7
537.149	23.73
537.576	23.77
538.004	23.81
538.432	23.84
538.86	23.87
539.287	23.9
539.715	23.93
540.143	23.95
540.57	23.96
540.998	23.99
541.425	24
541.852	24.02
542.28	24.02
542.707	24.05
543.134	24.07
543.561	24.08
543.988	24.1
544.415	24.11
544.842	24.13
545.269	24.18
545.696	24.19
546.123	24.21
546.549	24.23
546.976	24.26
547.403	24.3
547.829	24.32
548.256	24.36
548.682	24.36
549.108	24.39
549.535	24.41
549.961	24.39
550.387	24.41
550.813	24.4
551.24	24.41
551.666	24.42
552.092	24.39
552.518	24.38
552.943	24.36
553.369	24.37
553.795	24.36
554.221	24.34
554.646	24.32
555.072	24.28
555.498	24.29
555.923	24.24
556.349	24.19
556.774	24.14
557.199	24.1
557.625	24.04
558.05	23.96
558.475	23.88
558.9	23.81
559.325	23.74
559.75	23.66
560.175	23.54
560.6	23.47
561.025	23.38
561.449	23.27
561.874	23.15
562.299	23.04
562.723	22.95
563.148	22.83
563.572	22.71
563.997	22.56
564.421	22.43
564.846	22.31
565.27	22.16
565.694	22.02
566.118	21.89
566.542	21.74
566.966	21.58
567.39	21.41
567.814	21.28
568.238	21.12
568.662	20.99
569.086	20.83
569.509	20.68
569.933	20.53
570.357	20.37
570.78	20.22
571.204	20.07
571.627	19.93
572.05	19.82
572.474	19.66
572.897	19.53
573.32	19.41
573.743	19.29
574.166	19.15
574.589	19.04
575.012	18.95
575.435	18.84
575.858	18.76
576.281	18.66
576.704	18.55
577.126	18.46
577.549	18.38
577.972	18.29
578.394	18.19
578.817	18.1
579.239	18.01
579.661	17.93
580.084	17.85
580.506	17.77
580.928	17.7
581.35	17.63
581.772	17.56
582.194	17.47
582.616	17.4
583.038	17.35
583.46	17.3
583.882	17.25
584.303	17.18
584.725	17.13
585.147	17.06
585.568	16.99
585.99	16.93
586.411	16.87
586.833	16.83
587.254	16.79
587.675	16.74
588.096	16.7
588.518	16.62
588.939	16.59
589.36	16.53
589.781	16.5
590.202	16.46
590.623	16.42
591.043	16.39
591.464	16.34
591.885	16.3
592.305	16.29
592.726	16.25
593.147	16.24
593.567	16.2
593.987	16.18
594.408	16.13
594.828	16.11
595.248	16.08
595.669	16.05
596.089	16.03
596.509	15.97
596.929	15.9
597.349	15.86
597.769	15.81
598.189	15.79
598.608	15.76
599.028	15.74
599.448	15.69
599.867	15.66
600.287	15.62
600.706	15.57
601.126	15.55
601.545	15.51
601.965	15.48
602.384	15.44
602.803	15.38
603.222	15.33
603.641	15.28
604.061	15.22
604.48	15.16
604.898	15.09
605.317	15.05
605.736	14.98
606.155	14.92
606.574	14.87
606.992	14.8
607.411	14.75
607.829	14.64
608.248	14.58
608.666	14.52
609.085	14.46
609.503	14.4
609.921	14.34
610.339	14.29
610.758	14.23
611.176	14.16
611.594	14.11
612.012	14.05
612.43	14.03
612.847	13.97
613.265	13.91
613.683	13.85
614.101	13.79
614.518	13.73
614.936	13.67
615.353	13.63
615.771	13.57
616.188	13.52
616.606	13.46
617.023	13.41
617.44	13.38
617.857	13.34
618.274	13.3
618.691	13.26
619.108	13.23
619.525	13.19
619.942	13.16
620.359	13.13
620.776	13.1
621.192	13.09
621.609	13.06
622.026	13.04
622.442	13.01
622.859	13
623.275	12.99
623.691	12.96
624.108	12.96
624.524	12.93
624.94	12.92
625.356	12.9
625.772	12.88
626.188	12.87
626.604	12.85
627.02	12.84
627.436	12.82
627.852	12.81
628.268	12.81
628.683	12.78
629.099	12.76
629.514	12.74
629.93	12.73
630.345	12.7
630.761	12.66
631.176	12.64
631.591	12.59
632.007	12.56
632.422	12.52
632.837	12.45
633.252	12.41
633.667	12.35
634.082	12.3
634.497	12.22
634.911	12.15
635.326	12.07
635.741	11.98
636.155	11.92
636.57	11.82
636.984	11.72
637.399	11.63
637.813	11.54
638.228	11.42
638.642	11.32
639.056	11.23
639.47	11.12
639.884	11.03
640.298	10.92
640.712	10.81
641.126	10.7
641.54	10.61
641.954	10.52
642.368	10.41
642.781	10.31
643.195	10.21
643.609	10.12
644.022	10.05
644.436	9.96
644.849	9.87
645.262	9.8
645.676	9.73
646.089	9.66
646.502	9.59
646.915	9.55
647.328	9.52
647.741	9.47
648.154	9.44
648.567	9.39
648.98	9.37
649.393	9.35
649.805	9.32
650.218	9.3
650.631	9.28
651.043	9.26
651.456	9.23
651.868	9.2
652.28	9.19
652.693	9.15
653.105	9.14
653.517	9.11
653.929	9.08
654.341	9.06
654.753	9.03
655.165	8.99
655.577	8.94
655.989	8.89
656.401	8.84
656.813	8.79
657.224	8.76
657.636	8.71
658.047	8.67
658.459	8.6
658.87	8.55
659.282	8.51
659.693	8.46
660.104	8.42
660.515	8.37
660.926	8.35
661.338	8.31
661.749	8.25
662.159	8.21
662.57	8.16
662.981	8.12
663.392	8.09
663.803	8.05
664.213	8.02
664.624	7.99
665.035	7.97
665.445	7.94
665.855	7.92
666.266	7.89
666.676	7.87
667.086	7.86
667.497	7.85
667.907	7.83
668.317	7.82
668.727	7.8
669.137	7.8
669.547	7.79
669.956	7.8
670.366	7.81
670.776	7.82
671.186	7.82
671.595	7.83
672.005	7.85
672.414	7.87
672.824	7.9
673.233	7.93
673.642	7.93
674.052	7.96
674.461	7.97
674.87	7.99
675.279	8.01
675.688	8.03
676.097	8.06
676.506	8.09
676.915	8.13
677.323	8.17
677.732	8.22
678.141	8.27
678.549	8.31
678.958	8.36
679.366	8.41
679.775	8.49
680.183	8.55
680.592	8.6
681	8.67
681.408	8.74
681.816	8.81
682.224	8.9
682.632	9
683.04	9.1
683.448	9.22
683.856	9.34
684.264	9.47
684.671	9.64
685.079	9.81
685.487	9.99
685.894	10.19
686.302	10.43
686.709	10.66
687.116	10.92
687.524	11.2
687.931	11.5
688.338	11.83
688.745	12.17
689.152	12.53
689.559	12.91
689.966	13.31
690.373	13.74
690.78	14.16
691.187	14.63
691.593	15.1
692	15.59
692.407	16.11
692.813	16.63
693.22	17.16
693.626	17.69
694.032	18.24
694.439	18.81
694.845	19.35
695.251	19.93
695.657	20.49
696.063	21.07
696.469	21.64
696.875	22.18
697.281	22.73
697.687	23.32
698.093	23.88
698.498	24.46
698.904	25.01
699.31	25.57
699.715	26.12
700.12	26.66
700.526	27.18
700.931	27.69
701.337	28.24
701.742	28.75
702.147	29.23
702.552	29.74
702.957	30.21
703.362	30.69
703.767	31.15
704.172	31.6
704.577	32.09
704.981	32.57
705.386	33.03
705.791	33.49
706.195	33.94
706.6	34.38
707.004	34.81
707.408	35.23
707.813	35.66
708.217	36.07
708.621	36.47
709.025	36.86
709.43	37.23
709.834	37.61
710.237	37.94
710.641	38.31
711.045	38.65
711.449	38.97
711.853	39.33
712.256	39.66
712.66	40.01
713.064	40.34
713.467	40.65
713.87	40.97
714.274	41.3
714.677	41.64
715.08	41.93
715.484	42.24
715.887	42.53
716.29	42.8
716.693	43.09
717.096	43.38
717.499	43.67
717.901	43.95
718.304	44.21
718.707	44.47
719.109	44.75
719.512	45.01
719.915	45.29
720.317	45.56
720.719	45.81
721.122	46.01
721.524	46.23
721.926	46.44
722.328	46.67
722.731	46.88
723.133	47.08
723.535	47.26
723.937	47.48
724.338	47.65
724.74	47.83
725.142	47.92
725.544	48.13
725.945	48.28
726.347	48.47
726.748	48.6
727.15	48.75
727.551	48.9
727.952	49.05
728.354	49.21
728.755	49.35
729.156	49.52
729.557	49.75
729.958	49.9
730.359	50.09
730.76	50.16
731.161	50.28
731.562	50.42
731.962	50.54
732.363	50.67
732.763	50.75
733.164	50.84
733.564	50.89
733.965	50.95
734.365	51
734.766	51.02
735.166	51.05
735.566	51.1
735.966	51.15
736.366	51.18
736.766	51.22
737.166	51.26
737.566	51.3
737.966	51.37
738.365	51.42
738.765	51.47
739.165	51.48
739.564	51.56
739.964	51.6
740.363	51.63
740.763	51.66
741.162	51.68
741.561	51.73
741.96	51.76
742.36	51.79
742.759	51.79
743.158	51.8
743.557	51.88
743.955	51.95
744.354	51.99
744.753	52.01
745.152	52.05
745.55	52.06
745.949	52.04
746.348	52.1
746.746	52.13
747.144	52.22
747.543	52.29
747.941	52.32
748.339	52.37
748.737	52.43
749.136	52.48
749.534	52.55
749.932	52.58
750.33	52.63
750.727	52.66
751.125	52.69
751.523	52.65
751.921	52.66
752.318	52.68
752.716	52.64
753.113	52.64
753.511	52.62
753.908	52.58
754.305	52.58
754.703	52.57
755.1	52.51
755.497	52.48
755.894	52.48
756.291	52.43
756.688	52.4
757.085	52.4
757.482	52.41
757.878	52.41
758.275	52.4
758.672	52.41
759.068	52.43
759.465	52.42
759.861	52.37
760.258	52.33
760.654	52.34
761.05	52.35
761.447	52.3
761.843	52.25
762.239	52.23
762.635	52.21
763.031	52.2
763.427	52.17
763.822	52.16
764.218	52.16
764.614	52.17
765.01	52.14
765.405	52.12
765.801	52.14
766.196	52.12
766.592	52.11
766.987	52.11
767.382	52.11
767.778	52.07
768.173	52.09
768.568	52.09
768.963	52.07
769.358	52.07
769.753	52.09
770.148	52.07
770.542	52.06
770.937	52.02
771.332	52.02
771.726	51.98
772.121	51.96
772.515	51.95
772.91	51.95
773.304	51.95
773.699	51.94
774.093	51.89
774.487	51.86
774.881	51.88
775.275	51.9
775.669	51.91
776.063	51.91
776.457	51.91
776.851	51.89
777.245	51.92
777.638	51.91
778.032	51.93
778.425	51.93
778.819	51.94
779.212	51.94
779.606	51.93
779.999	51.88
780.392	51.85
780.786	51.89
781.179	51.93
781.572	51.91
781.965	51.92
782.358	51.89
782.751	51.91
783.143	51.93
783.536	51.95
783.929	51.97
784.322	52.01
784.714	52.04
785.107	52.04
785.499	52.01
785.891	52.05
786.284	52.03
786.676	52.05
787.068	52.03
787.46	52
787.852	51.96
788.245	51.96
788.636	51.95
789.028	51.98
789.42	51.98
789.812	51.98
790.204	51.9
790.595	51.91
790.987	51.91
791.378	51.93
791.77	51.98
792.161	52.01
792.553	52.01
792.944	52.01
793.335	51.98
793.726	51.95
794.117	51.94
794.508	52
794.899	52.04
795.29	52.04
795.681	52.07
796.072	52.08
796.463	52.04
796.853	52.06
797.244	52.06
797.634	52.07
798.025	52.11
798.415	52.12
798.806	52.12
799.196	52.1
799.586	52.1
799.976	52.08
800.366	52.07
800.756	52.12
801.146	52.08
801.536	52.09
801.926	52.1
802.316	52.13
802.706	52.17
803.095	52.15
803.485	52.16
803.874	52.17
804.264	52.21
804.653	52.18
805.043	52.17
805.432	52.18
805.821	52.17
806.21	52.2
806.599	52.18
806.988	52.18
807.377	52.2
807.766	52.21
808.155	52.24
808.544	52.23
808.933	52.26
809.321	52.27
809.71	52.29
810.098	52.3
810.487	52.28
810.875	52.26
811.264	52.26
811.652	52.3
812.04	52.31
812.428	52.31
812.816	52.35
813.204	52.33
813.592	52.32
813.98	52.32
814.368	52.34
814.756	52.39
815.144	52.46
815.531	52.47
815.919	52.44
816.306	52.43
816.694	52.43
817.081	52.42
817.469	52.47
817.856	52.54
818.243	52.53
818.63	52.56
819.017	52.54
819.404	52.53
819.791	52.54
820.178	52.58
820.565	52.59
820.952	52.6
821.339	52.62
821.725	52.63
822.112	52.62
822.498	52.67
822.885	52.68
823.271	52.7
823.657	52.72
824.044	52.75
824.43	52.74
824.816	52.75
825.202	52.75
825.588	52.77
825.974	52.76
826.36	52.77
826.746	52.79
827.132	52.77
827.517	52.76
827.903	52.76
828.289	52.74
828.674	52.75
829.06	52.78
829.445	52.82
829.83	52.79
830.216	52.79
830.601	52.76
830.986	52.73
831.371	52.77
831.756	52.75
832.141	52.75
832.526	52.72
832.911	52.74
833.295	52.7
833.68	52.64
834.065	52.65
834.449	52.62
834.834	52.61
835.218	52.62
835.603	52.6
835.987	52.59
836.371	52.59
836.755	52.58
837.139	52.56
837.524	52.58
837.908	52.55
838.291	52.56
838.675	52.55
839.059	52.56
839.443	52.53
839.827	52.53
840.21	52.56
840.594	52.52
840.977	52.52
841.361	52.51
841.744	52.51
842.127	52.54
842.511	52.51
842.894	52.5
843.277	52.51
843.66	52.53
844.043	52.52
844.426	52.5
844.809	52.49
845.191	52.5
845.574	52.5
845.957	52.48
846.339	52.45
846.722	52.46
847.104	52.48
847.487	52.49
847.869	52.45
848.252	52.45
848.634	52.45
849.016	52.48
849.398	52.48
849.78	52.46
850.162	52.46
850.544	52.48
850.926	52.45
851.307	52.47
851.689	52.41
852.071	52.42
852.452	52.4
852.834	52.38
853.215	52.38
853.597	52.37
853.978	52.38
854.359	52.34
854.741	52.34
855.122	52.35
855.503	52.33
855.884	52.34
856.265	52.33
856.646	52.35
857.026	52.38
857.407	52.35
857.788	52.33
858.169	52.34
858.549	52.39
858.93	52.37
859.31	52.36
859.69	52.34
860.071	52.35
860.451	52.38
860.831	52.38
861.211	52.38
861.591	52.4
861.971	52.4
862.351	52.41
862.731	52.41
863.111	52.41
863.491	52.44
863.87	52.45
864.25	52.45
864.629	52.42
865.009	52.43
865.388	52.41
865.768	52.4
866.147	52.41
866.526	52.39
866.905	52.4
867.284	52.39
867.663	52.39
868.042	52.4
868.421	52.4
868.8	52.38
869.179	52.41
869.558	52.41
869.936	52.4
870.315	52.4
870.693	52.38
871.072	52.35
871.45	52.33
871.828	52.31
872.207	52.3
872.585	52.31
872.963	52.32
873.341	52.27
873.719	52.27
874.097	52.27
874.475	52.26
874.853	52.27
875.23	52.28
875.608	52.31
875.986	52.31
876.363	52.28
876.741	52.28
877.118	52.28
877.495	52.29
877.873	52.25
878.25	52.23
878.627	52.23
879.004	52.23
879.381	52.22
879.758	52.18
880.135	52.18
880.512	52.19
880.889	52.17
881.265	52.18
881.642	52.17
882.019	52.18
882.395	52.19
882.772	52.19
883.148	52.21
883.524	52.22
883.901	52.22
884.277	52.21
884.653	52.24
885.029	52.23
885.405	52.2
885.781	52.18
886.157	52.19
886.532	52.17
886.908	52.19
887.284	52.18
887.659	52.19
888.035	52.2
888.411	52.19
888.786	52.19
889.161	52.2
889.537	52.22
889.912	52.25
890.287	52.25
890.662	52.22
891.037	52.19
891.412	52.17
891.787	52.14
892.162	52.12
892.536	52.11
892.911	52.06
893.286	52.02
893.66	51.97
894.035	51.92
894.409	51.89
894.784	51.9
895.158	51.89
895.532	51.86
895.906	51.83
896.281	51.81
896.655	51.75
897.029	51.75
897.402	51.77
897.776	51.79
898.15	51.81
898.524	51.8
898.898	51.76
899.271	51.74
899.645	51.76
900.018	51.75
900.392	51.76
900.765	51.78
901.138	51.79
901.511	51.78
901.884	51.74
902.258	51.73
902.631	51.73
903.003	51.73
903.376	51.69
903.749	51.67
904.122	51.67
904.495	51.65
904.867	51.64
905.24	51.61
905.612	51.58
905.985	51.57
906.357	51.54
906.729	51.49
907.102	51.49
907.474	51.48
907.846	51.49
908.218	51.46
908.59	51.45
908.962	51.46
909.334	51.46
909.705	51.46
910.077	51.44
910.449	51.47
910.82	51.49
911.192	51.49
911.563	51.48
911.935	51.43
912.306	51.47
912.677	51.45
913.048	51.44
913.419	51.41
913.79	51.41
914.161	51.41
914.532	51.35
914.903	51.37
915.274	51.36
915.645	51.36
916.015	51.38
916.386	51.36
916.756	51.35
917.127	51.33
917.497	51.31
917.868	51.28
918.238	51.34
918.608	51.36
918.978	51.34
919.348	51.32
919.718	51.33
920.088	51.35
920.458	51.36
920.828	51.39
921.198	51.42
921.567	51.46
921.937	51.48
922.306	51.44
922.676	51.45
923.045	51.44
923.415	51.48
923.784	51.48
924.153	51.45
924.522	51.45
924.891	51.45
925.26	51.36
925.629	51.37
925.998	51.36
926.367	51.34
926.736	51.3
927.104	51.29
927.473	51.3
927.842	51.25
928.21	51.26
928.578	51.22
928.947	51.21
929.315	51.29
929.683	51.26
930.051	51.22
930.42	51.2
930.788	51.17
931.156	51.13
931.523	51.07
931.891	51.05
932.259	50.98
932.627	50.86
932.994	50.81
933.362	50.68
933.729	50.6
934.097	50.52
934.464	50.45
934.831	50.38
935.199	50.3
935.566	50.18
935.933	50.12
936.3	50.04
936.667	50.05
937.034	49.94
937.401	49.9
937.767	49.84
938.134	49.82
938.501	49.75
938.867	49.76
939.234	49.8
939.6	49.82
939.967	49.83
940.333	49.93
940.699	50.05
941.065	50.17
941.431	50.22
941.798	50.33
942.163	50.44
942.529	50.56
942.895	50.69
943.261	50.6
943.627	50.67
943.992	50.7
944.358	50.69
944.723	50.61
945.089	50.62
945.454	50.74
945.82	50.76
946.185	50.82
946.55	50.87
946.915	50.84
947.28	50.92
947.645	50.99
948.01	51.02
948.375	51
948.74	50.96
949.104	51
949.469	50.86
949.834	50.8
950.198	50.67
950.562	50.61
950.927	50.55
951.291	50.48
951.655	50.4
952.02	50.39
952.384	50.44
952.748	50.5
953.112	50.41
953.476	50.5
953.839	50.55
954.203	50.55
954.567	50.55
954.931	50.54
955.294	50.59
955.658	50.56
956.021	50.57
956.385	50.57
956.748	50.48
957.111	50.44
957.474	50.37
957.837	50.35
958.2	50.32
958.563	50.3
958.926	50.26
959.289	50.18
959.652	50.2
960.015	50.1
960.377	50.02
960.74	50.03
961.102	49.95
961.465	49.92
961.827	49.78
962.189	49.7
962.552	49.65
962.914	49.63
963.276	49.69
963.638	49.54
964	49.54
964.362	49.54
964.724	49.56
965.085	49.64
965.447	49.63
965.809	49.59
966.17	49.63
966.532	49.71
966.893	49.73
967.255	49.62
967.616	49.75
967.977	49.77
968.338	49.73
968.699	49.63
969.061	49.58
969.421	49.56
969.782	49.63
970.143	49.61
970.504	49.46
970.865	49.4
971.225	49.48
971.586	49.47
971.946	49.52
972.307	49.48
972.667	49.51
973.027	49.54
973.388	49.45
973.748	49.42
974.108	49.43
974.468	49.54
974.828	49.58
975.188	49.55
975.548	49.55
975.907	49.52
976.267	49.6
976.627	49.54
976.986	49.46
977.346	49.52
977.705	49.57
978.064	49.53
978.424	49.44
978.783	49.41
979.142	49.34
979.501	49.28
979.86	49.26
980.219	49.15
980.578	49.23
980.937	49.34
981.296	49.36
981.654	49.36
982.013	49.37
982.371	49.33
982.73	49.31
983.088	49.32
983.447	49.41
983.805	49.36
984.163	49.42
984.521	49.36
984.879	49.41
985.237	49.39
985.595	49.33
985.953	49.35
986.311	49.39
986.669	49.5
987.026	49.44
987.384	49.34
987.741	49.32
988.099	49.26
988.456	49.27
988.814	49.22
989.171	49.15
989.528	49.13
989.885	49.07
990.242	49.09
990.599	49
990.956	49.02
991.313	48.92
991.67	48.91
992.027	48.87
992.383	48.84
992.74	48.77
993.096	48.76
993.453	48.73
993.809	48.8
994.165	48.81
994.522	48.71
994.878	48.65
995.234	48.75
995.59	48.66
995.946	48.68
996.302	48.55
996.658	48.47
997.013	48.66
997.369	48.64
997.725	48.65
998.08	48.5
998.436	48.63
998.791	48.61
999.147	48.62
999.502	48.77
999.857	48.74
1000.212	48.85
1000.567	48.96
1000.922	48.8
1001.277	48.76
1001.632	48.56
1001.987	48.61
1002.342	48.59
1002.696	48.61
1003.051	48.57
1003.406	48.37
1003.76	48.41
1004.114	48.35
1004.469	48.13
1004.823	48.03
1005.177	48.37
1005.531	48.47
1005.885	48.62
1006.239	48.38
1006.593	48.35
1006.947	48.28
1007.301	48.23
1007.655	48.2
1008.008	48.2
1008.362	48.21
1008.715	48.1
1009.069	47.63
1009.422	47.49
1009.776	47.28
1010.129	47.28
1010.482	47.2
1010.835	47.37
1011.188	47.36
1011.541	47.07
1011.894	47.02
1012.247	46.97
1012.6	46.96
1012.952	47.08
1013.305	46.91
1013.657	46.86
1014.01	46.95
1014.362	46.91
1014.715	46.59
1015.067	46.75
1015.419	46.98
1015.771	47.01
1016.123	47.02
1016.475	47.11
1016.827	47.07
1017.179	47.18
1017.531	46.98
1017.883	46.92
1018.234	47.02
1018.586	46.96
1018.938	46.54
1019.289	46.29
1019.64	46.27
1019.992	46.27
1020.343	46.02
1020.694	45.95
1021.045	45.81
1021.396	45.98
1021.747	46
1022.098	46.16
1022.449	46.2
1022.8	46.34
1023.151	46.43
1023.501	46.44
1023.852	46.35
1024.202	46.42
1024.553	46.23
1024.903	46.24
1025.253	46.08
1025.604	45.82
1025.954	45.46
1026.304	45.74
1026.654	46.17
1027.004	46.31
1027.354	46.34
1027.703	46.15
1028.053	46.18
1028.403	45.94
1028.753	46.06
1029.102	45.86
1029.452	45.69
1029.801	45.37
1030.15	44.95
1030.499	44.4
897.758	412.77
901.051	408.19
904.343	416.83
907.636	411.54
910.928	404.99
914.22	410.56
917.511	402.44
920.803	386.73
924.094	370.67
927.384	375.13
930.675	362.83
933.965	357.01
937.255	365.07
940.544	346.45
943.834	329.51
947.123	326.44
950.411	309.05
953.7	307.06
956.988	296.6
960.276	285.73
963.563	285.06
966.851	268.46
970.138	265.1
973.424	245.76
976.711	242.9
979.997	238.19
983.283	232.41
986.568	227.07
989.853	218.68
993.138	211.95
996.423	211.92
999.708	203.3
1002.992	205.16
1006.275	199.31
1009.559	197.38
1012.842	192.85
1016.125	186.13
1019.408	183.14
1022.69	182.02
1025.972	181.41
1029.254	177.53
1032.536	172.78
1035.817	166.99
1039.098	163.89
1042.379	162.63
1045.659	161.69
1048.939	160.29
1052.219	157.16
1055.498	154.89
1058.778	152.46
1062.057	150.28
1065.335	149.62
1068.614	146.86
1071.892	146.7
1075.17	143.83
1078.447	140.82
1081.724	139.58
1085.001	136.79
1088.278	137.92
1091.554	136.56
1094.83	135.17
1098.106	134.06
1101.382	132.83
1104.657	132.43
1107.932	131.78
1111.206	132.88
1114.481	130.27
1117.755	129.49
1121.029	129.27
1124.302	126.55
1127.575	125.53
1130.848	125.14
1134.121	123.28
1137.393	123.27
1140.665	122.87
1143.937	121.75
1147.208	118.9
1150.48	119.19
1153.75	118.49
1157.021	117.62
1160.291	117.89
1163.561	117.09
1166.831	116.38
1170.101	116.01
1173.37	114.87
1176.639	114.25
1179.907	113.89
1183.176	113.91
1186.444	113.92
1189.711	113.63
1192.979	113.91
1196.246	114.33
1199.513	113.64
1202.78	113.22
1206.046	113.45
1209.312	113.92
1212.578	114.17
1215.843	115.83
1219.108	117.11
1222.373	118.73
1225.638	119.87
1228.902	122.38
1232.166	124.78
1235.43	126.8
1238.693	131.02
1241.956	133.59
1245.219	136.54
1248.482	137.29
1251.744	137.07
1255.006	137.92
1258.268	134.6
1261.529	133.64
1264.79	130.52
1268.051	128.31
1271.312	127.69
1274.572	125.25
1277.832	122.74
1281.092	120.84
1284.351	118.73
1287.61	118.38
1290.869	117.71
1294.128	117.22
1297.386	116.34
1300.644	116.27
1303.902	115.23
1307.159	114.21
1310.416	114.46
1313.673	115.48
1316.93	117.39
1320.186	119.95
1323.442	120.95
1326.697	121.78
1329.953	122.64
1333.208	126.02
1336.463	129.64
1339.717	132.61
1342.972	138.04
1346.226	141.26
1349.479	141.82
1352.733	146.4
1355.986	146.33
1359.238	149.84
1362.491	150.48
1365.743	156.01
1368.995	158.08
1372.247	159.58
1375.498	158.95
1378.749	163.21
1382	163.51
1385.251	162.58
1388.501	162.53
1391.751	165.42
1395	162.04
1398.25	164.37
1401.499	163.59
1404.748	162.57
1407.996	155.06
1411.244	155.26
1414.492	153.1
1417.74	148.33
1420.987	143.93
1424.234	139.9
1427.481	134.82
1430.728	132.15
1433.974	126.47
1437.22	122.98
1440.465	119.04
1443.711	117.03
1446.956	113.54
1450.201	110.03
1453.445	104.63
1456.689	102.79
1459.933	99.92
1463.177	96.28
1466.42	94.7
1469.663	92.62
1472.906	89.41
1476.148	86.38
1479.391	84.94
1482.633	82.97
1485.874	81.69
1489.115	81.82
1492.356	81
1495.597	79.67
1498.838	79.49
1502.078	78.77
1505.318	78.72
1508.557	78.43
1511.797	78.51
1515.036	78.58
1518.274	78.69
1521.513	77.94
1524.751	77.08
1527.989	77.49
1531.227	77.78
1534.464	77.99
1537.701	77.35
1540.938	77.05
1544.174	77.04
1547.41	77.7
1550.646	77.5
1553.882	77.52
1557.117	77.1
1560.352	77.43
1563.587	76.78
1566.821	76.66
1570.055	76.43
1573.289	76.71
1576.523	76.6
1579.756	76.42
1582.989	76.37
1586.222	76.11
1589.454	76.69
1592.686	77.11
1595.918	76.43
1599.15	76.71
1602.381	76.91
1605.612	76.92
1608.843	76.62
1612.073	77.5
1615.303	77.59
1618.533	77.14
1621.762	77.45
1624.992	77.1
1628.221	76.65
1631.449	77.73
1634.678	77.78
1637.906	77.55
1641.134	77.74
1644.361	78.02
1647.588	77.53
1650.815	78.12
1654.042	77.78
1657.269	77.76
1660.495	78.33
1663.72	78.47
1666.946	78.23
1670.171	78.44
1673.396	79.06
1676.621	79.15
1679.845	79.4
1683.069	79.1
1686.293	79
1689.517	79.65
1692.74	79.86
1695.963	79.28
1699.185	79.81
1702.408	79.72
1705.63	79.67
1708.852	79.66
1712.073	79.77
1715.294	79.63
1718.515	80.37
1721.736	80.2
1724.956	80.31
1728.176	80.05
1731.396	80.13
1734.616	80.34
1737.835	80.6
1741.054	80.03
1744.272	80.13
1747.491	79.78
1750.709	80.64
1753.927	80.53
1757.144	80.58
1760.361	80.37
1763.578	81.17
1766.795	81.66
1770.011	81.5
1773.227	81.45
1776.443	82.45
1779.658	82.47
1782.874	82.74
1786.089	81.79
1789.303	82
1792.518	82.71
1795.732	82.93
1798.945	83.3
1802.159	83.36
1805.372	83.89
1808.585	84.94
1811.797	84.94
1815.01	85.5
1818.222	86.36
1821.434	87.27
1824.645	87.5
1827.856	88.79
1831.067	89.25
1834.278	89.87
1837.488	90.26
1840.698	91.28
1843.908	91.2
1847.117	92.09
1850.326	92.39
1853.535	93.75
1856.744	94.23
1859.952	94.99
1863.16	93.76
1866.368	94.12
1869.575	93.5
1872.782	92.96
1875.989	90.35
1879.196	90.31
1882.402	89.18
1885.608	89.68
1888.814	87.65
1892.019	88.58
1895.224	87.06
1898.429	87.9
1901.634	87.14
1904.838	87.5
1908.042	88.19
1911.246	88.9
1914.449	88.99
1917.652	88.54
1920.855	88.98
1924.058	88.11
1927.26	86.69
1930.462	87.92
1933.664	87.7
1936.865	87.86
1940.066	86.73
1943.267	86.07
1946.467	87.17
1949.668	87.01
1952.868	87.57
1956.067	86.86
1959.267	88.04
1962.466	88.84
1965.665	87.87
1968.863	88.92
1972.061	90.1
1975.259	91.95
1978.457	93.34
1981.654	93.11
1984.852	94.29
1988.048	95.83
1991.245	96.58
1994.441	98.83
1997.637	100.1
2000.833	104.08
2004.028	103.32
2007.223	106.08
2010.418	108.08
2013.613	112.63
2016.807	116.02
2020.001	117.82
2023.194	120.95
2026.388	126.01
2029.581	131.4
2032.774	135.53
2035.966	138.37
2039.158	143.67
2042.35	144.79
2045.542	147.94
2048.733	152.17
2051.924	153.74
2055.115	156.1
2058.306	157.44
2061.496	159.64
2064.686	158.77
2067.875	157.81
2071.065	161.09
2074.254	160.28
2077.442	166.19
2080.631	167.09
2083.819	167.75
2087.007	171.79
2090.195	174.81
2093.382	174.98
2096.569	175.33
2099.756	178.34
2102.942	182.85
2106.128	183.84
2109.314	188.71
2112.5	187.8
2115.685	186.2
2118.87	187.19
2122.055	188.12
2125.239	190.41
2128.424	197.13
2131.608	192.64
2134.791	193.61
2137.974	194.43
2141.157	198.04
2144.34	197.55
2147.523	201.17
2150.705	207.07
2153.887	207.01
2157.068	208.23
2160.25	211.54
2163.431	207.93
2166.611	215.05
2169.792	217.54
2172.972	221.58
2176.152	219.13
2179.331	223.18
2182.511	224.15
2185.69	226.21
2188.868	231.23
2192.047	236.82
2195.225	240.53
2198.403	243.78
2201.58	240.77
2204.758	249.45
2207.935	247.84
2211.111	256.31
2214.288	258.34
2217.464	261.3
2220.64	263.78
2223.815	263.72
2226.991	262.11
2230.166	263.38
2233.34	270.81
2236.515	276.8
2239.689	273.57
2242.863	280.32
2246.036	275.59
2249.209	279.89
2252.382	277.85
2255.555	288.56
2258.727	292.15
2261.9	299.83
2265.071	303.47
2268.243	300.92
2271.414	309.84
2274.585	316.05
2277.756	316.81
2280.926	325.36
2284.096	327.68
2287.266	328.71
2290.436	325.22
2293.605	331.36
2296.774	344.33
2299.942	343.17
2303.111	355.51
2306.279	365
2309.447	365.57
2312.614	365.15
2315.781	375.1
2318.948	378.48
2322.115	387.99
2325.281	399.55
2328.447	397.6
2331.613	396.97
2334.779	405.04
2337.944	406.57
2341.109	413.07
2344.274	415.43
2347.438	426.6
2350.602	434
2353.766	466.63
2356.929	466.87
2360.092	479.73
2363.255	483.74
2366.418	490.11
2369.58	499.28
2372.742	505.24
2375.904	501.13
2379.066	517.53
2382.227	539.07
2385.388	539.42
2388.548	508.5
2391.709	506.56
2394.869	515.85
2398.029	514.95
2401.188	520.33
2404.347	531.42
2407.506	547.79
2410.665	525.88
2413.823	532.31
2416.981	540.1
2420.139	507.61
2423.296	557.9
2426.453	586.66
2429.61	559.15
2432.767	599.36
2435.923	612.32
2439.079	602.42
2442.235	611.03
2445.391	626.44
2448.546	614.21
2451.701	648.79
2454.855	699.36
2458.009	612.86
2461.163	633.04
2464.317	639.29
2467.471	625.92
2470.624	646.46
2473.777	626.18
2476.929	616.25
2480.082	656.44
2483.234	691.7
2486.385	704.28
2489.537	722.82
2492.688	787.98
2495.839	769.78
2498.989	797.31
2502.14	796.69
2505.29	761.92
2508.439	850
2511.589	860.85
2514.738	834.67
2517.887	828.3
2521.035	775.97
2524.183	764.51
2527.331	758.73
2530.479	740.52
2533.627	755.65
