Data from C_2_dec_oh_4n_046_Splice17_19.txt Node
Date: Sat Feb 29 14:36:10 EST 2020
User: sa697716
Spectrometer: FLMS03696
Trigger mode: 0
Integration Time (sec): 3.180400E-1
Scans to average: 20
Electric dark correction enabled: true
Nonlinearity correction enabled: true
Boxcar width: 5
XAxis mode: Wavelengths
Number of Pixels in Spectrum: 2048
>>>>>Begin Spectral Data<<<<<
187.83	65.78
188.298	68.33
188.766	62.48
189.233	61.19
189.701	68.37
190.169	76.98
190.636	93.36
191.104	79.29
191.571	282.44
192.039	277.27
192.506	-106.38
192.974	1075.89
193.441	113.31
193.908	56.68
194.375	43.83
194.842	55.87
195.31	32
195.777	75.58
196.244	39.07
196.711	40.82
197.177	37.25
197.644	38.08
198.111	36.54
198.578	37.55
199.045	38.26
199.511	38.87
199.978	39.38
200.445	39.58
200.911	39.44
201.378	39.43
201.844	39.95
202.31	40.74
202.777	41.26
203.243	42.36
203.709	42.55
204.176	42.51
204.642	42.51
205.108	42.57
205.574	43.18
206.04	43.49
206.506	43.7
206.972	43.39
207.438	43.3
207.903	43.24
208.369	42.66
208.835	42.85
209.301	43.11
209.766	43.51
210.232	43.5
210.697	43.48
211.163	43.43
211.628	43.43
212.094	43.65
212.559	43.39
213.024	43.04
213.49	42.67
213.955	42.29
214.42	41.73
214.885	41.12
215.35	41.15
215.815	40.61
216.28	40.52
216.745	40.25
217.21	39.8
217.675	39.65
218.14	39.32
218.604	38.94
219.069	38.58
219.534	38.13
219.998	37.69
220.463	37.19
220.927	36.69
221.392	36.22
221.856	35.75
222.32	35.32
222.785	34.82
223.249	34.39
223.713	34.07
224.177	33.65
224.642	33.28
225.106	32.88
225.57	32.5
226.034	32.19
226.497	31.78
226.961	31.37
227.425	30.99
227.889	30.64
228.353	30.23
228.816	29.82
229.28	29.45
229.744	29.09
230.207	28.73
230.671	28.37
231.134	28.01
231.597	27.66
232.061	27.35
232.524	27.02
232.987	26.68
233.45	26.35
233.914	26.02
234.377	25.73
234.84	25.43
235.303	25.16
235.766	24.86
236.229	24.58
236.691	24.35
237.154	24.09
237.617	23.86
238.08	23.62
238.542	23.4
239.005	23.17
239.468	22.89
239.93	22.67
240.393	22.45
240.855	22.24
241.317	22.05
241.78	21.83
242.242	21.62
242.704	21.41
243.166	21.2
243.629	21.02
244.091	20.86
244.553	20.71
245.015	20.53
245.477	20.35
245.939	20.19
246.4	20
246.862	19.86
247.324	19.72
247.786	19.56
248.247	19.43
248.709	19.29
249.17	19.12
249.632	18.98
250.093	18.82
250.555	18.69
251.016	18.56
251.477	18.43
251.939	18.31
252.4	18.17
252.861	18.06
253.322	17.94
253.783	17.83
254.244	17.75
254.705	17.67
255.166	17.59
255.627	17.5
256.088	17.42
256.549	17.35
257.009	17.25
257.47	17.17
257.931	17.07
258.391	16.97
258.852	16.87
259.312	16.77
259.773	16.67
260.233	16.57
260.694	16.49
261.154	16.39
261.614	16.3
262.074	16.22
262.534	16.14
262.994	16.08
263.455	16.01
263.915	15.93
264.374	15.87
264.834	15.8
265.294	15.73
265.754	15.65
266.214	15.6
266.673	15.54
267.133	15.47
267.593	15.41
268.052	15.36
268.512	15.3
268.971	15.24
269.431	15.19
269.89	15.14
270.349	15.1
270.809	15.06
271.268	15.01
271.727	14.95
272.186	14.89
272.645	14.84
273.104	14.79
273.563	14.74
274.022	14.68
274.481	14.62
274.94	14.56
275.399	14.5
275.857	14.44
276.316	14.37
276.775	14.31
277.233	14.26
277.692	14.18
278.15	14.13
278.609	14.05
279.067	14
279.525	13.95
279.984	13.9
280.442	13.84
280.9	13.78
281.358	13.73
281.816	13.68
282.274	13.63
282.732	13.59
283.19	13.54
283.648	13.5
284.106	13.47
284.564	13.43
285.021	13.39
285.479	13.36
285.937	13.33
286.394	13.29
286.852	13.25
287.309	13.21
287.767	13.17
288.224	13.14
288.682	13.1
289.139	13.06
289.596	12.99
290.053	12.94
290.511	12.88
290.968	12.82
291.425	12.76
291.882	12.72
292.339	12.68
292.796	12.62
293.252	12.56
293.709	12.51
294.166	12.47
294.623	12.42
295.079	12.38
295.536	12.33
295.992	12.31
296.449	12.28
296.905	12.22
297.362	12.17
297.818	12.15
298.274	12.11
298.731	12.07
299.187	12.03
299.643	11.99
300.099	11.95
300.555	11.92
301.011	11.87
301.467	11.82
301.923	11.79
302.379	11.76
302.835	11.72
303.291	11.68
303.746	11.64
304.202	11.6
304.658	11.56
305.113	11.52
305.569	11.49
306.024	11.46
306.479	11.43
306.935	11.41
307.39	11.38
307.845	11.37
308.301	11.35
308.756	11.33
309.211	11.32
309.666	11.31
310.121	11.3
310.576	11.27
311.031	11.26
311.486	11.24
311.94	11.21
312.395	11.2
312.85	11.17
313.305	11.15
313.759	11.14
314.214	11.12
314.668	11.1
315.123	11.1
315.577	11.08
316.032	11.06
316.486	11.04
316.94	11.02
317.394	10.98
317.849	10.95
318.303	10.93
318.757	10.89
319.211	10.85
319.665	10.82
320.119	10.78
320.572	10.75
321.026	10.72
321.48	10.7
321.934	10.68
322.387	10.65
322.841	10.63
323.295	10.59
323.748	10.56
324.202	10.53
324.655	10.5
325.108	10.47
325.562	10.44
326.015	10.4
326.468	10.36
326.921	10.33
327.374	10.32
327.827	10.29
328.28	10.26
328.733	10.24
329.186	10.22
329.639	10.19
330.092	10.17
330.545	10.15
330.997	10.14
331.45	10.13
331.903	10.11
332.355	10.08
332.808	10.07
333.26	10.06
333.713	10.06
334.165	10.06
334.617	10.06
335.069	10.06
335.522	10.05
335.974	10.05
336.426	10.05
336.878	10.05
337.33	10.06
337.782	10.05
338.234	10.05
338.686	10.03
339.137	10.01
339.589	9.99
340.041	9.98
340.493	9.96
340.944	9.94
341.396	9.91
341.847	9.89
342.299	9.85
342.75	9.83
343.201	9.79
343.653	9.77
344.104	9.74
344.555	9.73
345.006	9.68
345.457	9.66
345.908	9.63
346.359	9.62
346.81	9.6
347.261	9.57
347.712	9.55
348.163	9.53
348.613	9.51
349.064	9.48
349.515	9.46
349.965	9.45
350.416	9.44
350.866	9.42
351.317	9.4
351.767	9.38
352.217	9.37
352.668	9.37
353.118	9.36
353.568	9.36
354.018	9.36
354.468	9.35
354.918	9.35
355.368	9.34
355.818	9.33
356.268	9.33
356.718	9.32
357.168	9.31
357.617	9.29
358.067	9.28
358.517	9.28
358.966	9.28
359.416	9.27
359.865	9.27
360.315	9.27
360.764	9.26
361.213	9.25
361.663	9.25
362.112	9.25
362.561	9.25
363.01	9.24
363.459	9.22
363.908	9.2
364.357	9.19
364.806	9.18
365.255	9.16
365.703	9.15
366.152	9.14
366.601	9.13
367.05	9.11
367.498	9.1
367.947	9.09
368.395	9.08
368.844	9.08
369.292	9.07
369.74	9.06
370.189	9.05
370.637	9.06
371.085	9.06
371.533	9.06
371.981	9.04
372.429	9.03
372.877	9.02
373.325	9.01
373.773	9
374.221	8.98
374.669	8.97
375.116	8.95
375.564	8.91
376.012	8.89
376.459	8.88
376.907	8.88
377.354	8.87
377.801	8.88
378.249	8.88
378.696	8.88
379.143	8.89
379.591	8.88
380.038	8.9
380.485	8.91
380.932	8.91
381.379	8.92
381.826	8.92
382.273	8.93
382.72	8.92
383.166	8.92
383.613	8.91
384.06	8.9
384.506	8.9
384.953	8.9
385.4	8.9
385.846	8.9
386.292	8.9
386.739	8.89
387.185	8.9
387.631	8.9
388.078	8.91
388.524	8.89
388.97	8.89
389.416	8.88
389.862	8.88
390.308	8.88
390.754	8.89
391.2	8.91
391.645	8.94
392.091	8.95
392.537	8.96
392.983	8.96
393.428	8.98
393.874	9.02
394.319	9.04
394.765	9.05
395.21	9.04
395.655	9.05
396.101	9.05
396.546	9.06
396.991	9.06
397.436	9.06
397.881	9.08
398.326	9.12
398.771	9.12
399.216	9.15
399.661	9.2
400.106	9.24
400.551	9.26
400.995	9.25
401.44	9.25
401.885	9.26
402.329	9.27
402.774	9.27
403.218	9.26
403.663	9.27
404.107	9.28
404.551	9.27
404.995	9.26
405.44	9.27
405.884	9.29
406.328	9.31
406.772	9.33
407.216	9.35
407.66	9.37
408.104	9.38
408.547	9.39
408.991	9.38
409.435	9.38
409.879	9.39
410.322	9.4
410.766	9.41
411.209	9.42
411.653	9.42
412.096	9.42
412.54	9.42
412.983	9.43
413.426	9.45
413.869	9.47
414.312	9.5
414.756	9.53
415.199	9.56
415.642	9.58
416.085	9.6
416.527	9.63
416.97	9.65
417.413	9.64
417.856	9.65
418.298	9.63
418.741	9.62
419.184	9.61
419.626	9.62
420.069	9.61
420.511	9.6
420.953	9.56
421.396	9.56
421.838	9.56
422.28	9.6
422.722	9.62
423.164	9.64
423.606	9.68
424.048	9.68
424.49	9.69
424.932	9.69
425.374	9.69
425.816	9.7
426.258	9.68
426.699	9.64
427.141	9.59
427.582	9.58
428.024	9.58
428.465	9.57
428.907	9.6
429.348	9.6
429.789	9.6
430.231	9.59
430.672	9.6
431.113	9.62
431.554	9.66
431.995	9.7
432.436	9.71
432.877	9.7
433.318	9.69
433.759	9.66
434.2	9.65
434.64	9.66
435.081	9.68
435.522	9.69
435.962	9.71
436.403	9.74
436.843	9.75
437.284	9.77
437.724	9.81
438.164	9.82
438.604	9.85
439.045	9.85
439.485	9.87
439.925	9.86
440.365	9.88
440.805	9.87
441.245	9.86
441.685	9.87
442.125	9.87
442.564	9.88
443.004	9.89
443.444	9.89
443.883	9.92
444.323	9.92
444.762	9.96
445.202	9.99
445.641	10.02
446.081	10.04
446.52	10.03
446.959	10.06
447.398	10.09
447.837	10.13
448.276	10.16
448.716	10.17
449.154	10.22
449.593	10.24
450.032	10.24
450.471	10.26
450.91	10.27
451.349	10.28
451.787	10.29
452.226	10.27
452.664	10.25
453.103	10.24
453.541	10.25
453.98	10.22
454.418	10.21
454.856	10.18
455.295	10.16
455.733	10.15
456.171	10.13
456.609	10.11
457.047	10.09
457.485	10.09
457.923	10.07
458.361	10.04
458.798	10.05
459.236	10.05
459.674	10.05
460.111	10.03
460.549	10.01
460.987	10.02
461.424	10.01
461.862	10.02
462.299	10
462.736	10
463.173	10
463.611	9.98
464.048	9.97
464.485	9.95
464.922	9.97
465.359	9.99
465.796	9.97
466.233	9.99
466.67	9.98
467.106	9.98
467.543	9.98
467.98	10.02
468.416	10.03
468.853	10.03
469.29	10.05
469.726	10.05
470.162	10.04
470.599	10.06
471.035	10.07
471.471	10.06
471.907	10.06
472.344	10.07
472.78	10.05
473.216	10.05
473.652	10.05
474.088	10.06
474.523	10.05
474.959	10.05
475.395	10.04
475.831	10.04
476.266	10.05
476.702	10.05
477.138	10.05
477.573	10.03
478.008	10.03
478.444	10.02
478.879	10
479.314	10
479.75	10
480.185	9.99
480.62	9.98
481.055	9.97
481.49	9.96
481.925	9.95
482.36	9.94
482.795	9.92
483.229	9.92
483.664	9.92
484.099	9.91
484.534	9.9
484.968	9.9
485.403	9.89
485.837	9.89
486.271	9.88
486.706	9.88
487.14	9.89
487.574	9.91
488.009	9.91
488.443	9.92
488.877	9.92
489.311	9.93
489.745	9.95
490.179	9.96
490.613	9.99
491.046	10.02
491.48	10.05
491.914	10.07
492.348	10.09
492.781	10.11
493.215	10.14
493.648	10.2
494.082	10.25
494.515	10.28
494.948	10.32
495.382	10.37
495.815	10.41
496.248	10.47
496.681	10.52
497.114	10.59
497.547	10.65
497.98	10.73
498.413	10.79
498.846	10.86
499.279	10.97
499.711	11.06
500.144	11.16
500.577	11.26
501.009	11.36
501.442	11.48
501.874	11.6
502.306	11.74
502.739	11.88
503.171	12.04
503.603	12.2
504.036	12.36
504.468	12.54
504.9	12.72
505.332	12.91
505.764	13.14
506.196	13.35
506.627	13.59
507.059	13.82
507.491	14.07
507.923	14.32
508.354	14.59
508.786	14.86
509.217	15.13
509.649	15.44
510.08	15.77
510.512	16.07
510.943	16.4
511.374	16.73
511.805	17.09
512.237	17.45
512.668	17.81
513.099	18.18
513.53	18.58
513.961	19.01
514.391	19.38
514.822	19.77
515.253	20.18
515.684	20.58
516.114	21
516.545	21.42
516.975	21.86
517.406	22.29
517.836	22.73
518.267	23.14
518.697	23.56
519.127	24.01
519.558	24.44
519.988	24.87
520.418	25.29
520.848	25.71
521.278	26.13
521.708	26.5
522.138	26.88
522.567	27.27
522.997	27.66
523.427	28.05
523.857	28.41
524.286	28.77
524.716	29.12
525.145	29.48
525.575	29.82
526.004	30.14
526.433	30.49
526.863	30.82
527.292	31.13
527.721	31.43
528.15	31.7
528.579	31.98
529.008	32.23
529.437	32.47
529.866	32.68
530.295	32.89
530.724	33.14
531.152	33.33
531.581	33.51
532.01	33.68
532.438	33.83
532.867	34.01
533.295	34.15
533.723	34.32
534.152	34.47
534.58	34.61
535.008	34.72
535.436	34.78
535.865	34.87
536.293	34.96
536.721	35.06
537.149	35.16
537.576	35.21
538.004	35.28
538.432	35.32
538.86	35.37
539.287	35.43
539.715	35.49
540.143	35.54
540.57	35.61
540.998	35.67
541.425	35.71
541.852	35.75
542.28	35.78
542.707	35.82
543.134	35.86
543.561	35.88
543.988	35.93
544.415	35.96
544.842	36.02
545.269	36.05
545.696	36.07
546.123	36.1
546.549	36.12
546.976	36.18
547.403	36.2
547.829	36.24
548.256	36.27
548.682	36.29
549.108	36.31
549.535	36.3
549.961	36.32
550.387	36.34
550.813	36.33
551.24	36.35
551.666	36.37
552.092	36.34
552.518	36.3
552.943	36.29
553.369	36.27
553.795	36.25
554.221	36.22
554.646	36.16
555.072	36.11
555.498	36.05
555.923	35.95
556.349	35.85
556.774	35.76
557.199	35.67
557.625	35.56
558.05	35.43
558.475	35.28
558.9	35.14
559.325	35
559.75	34.85
560.175	34.69
560.6	34.51
561.025	34.33
561.449	34.14
561.874	33.95
562.299	33.77
562.723	33.57
563.148	33.34
563.572	33.12
563.997	32.91
564.421	32.68
564.846	32.45
565.27	32.22
565.694	31.96
566.118	31.71
566.542	31.45
566.966	31.2
567.39	30.92
567.814	30.67
568.238	30.39
568.662	30.11
569.086	29.83
569.509	29.58
569.933	29.3
570.357	29.03
570.78	28.76
571.204	28.5
571.627	28.24
572.05	28
572.474	27.77
572.897	27.54
573.32	27.31
573.743	27.09
574.166	26.85
574.589	26.65
575.012	26.47
575.435	26.28
575.858	26.11
576.281	25.96
576.704	25.8
577.126	25.62
577.549	25.49
577.972	25.34
578.394	25.19
578.817	25.04
579.239	24.89
579.661	24.75
580.084	24.62
580.506	24.48
580.928	24.32
581.35	24.19
581.772	24.08
582.194	23.95
582.616	23.84
583.038	23.75
583.46	23.67
583.882	23.59
584.303	23.5
584.725	23.4
585.147	23.28
585.568	23.18
585.99	23.11
586.411	23.02
586.833	22.94
587.254	22.86
587.675	22.78
588.096	22.69
588.518	22.61
588.939	22.55
589.36	22.47
589.781	22.43
590.202	22.39
590.623	22.32
591.043	22.24
591.464	22.18
591.885	22.11
592.305	22.07
592.726	22.01
593.147	21.96
593.567	21.89
593.987	21.86
594.408	21.82
594.828	21.75
595.248	21.69
595.669	21.68
596.089	21.65
596.509	21.62
596.929	21.55
597.349	21.49
597.769	21.45
598.189	21.41
598.608	21.35
599.028	21.28
599.448	21.23
599.867	21.15
600.287	21.07
600.706	20.99
601.126	20.9
601.545	20.83
601.965	20.77
602.384	20.68
602.803	20.6
603.222	20.51
603.641	20.44
604.061	20.35
604.48	20.29
604.898	20.2
605.317	20.11
605.736	20.01
606.155	19.91
606.574	19.81
606.992	19.69
607.411	19.58
607.829	19.42
608.248	19.3
608.666	19.19
609.085	19.08
609.503	18.96
609.921	18.85
610.339	18.76
610.758	18.65
611.176	18.54
611.594	18.44
612.012	18.33
612.43	18.28
612.847	18.19
613.265	18.11
613.683	18
614.101	17.9
614.518	17.8
614.936	17.69
615.353	17.59
615.771	17.49
616.188	17.43
616.606	17.35
617.023	17.27
617.44	17.17
617.857	17.09
618.274	17.03
618.691	16.99
619.108	16.95
619.525	16.91
619.942	16.87
620.359	16.84
620.776	16.79
621.192	16.75
621.609	16.72
622.026	16.68
622.442	16.66
622.859	16.62
623.275	16.6
623.691	16.57
624.108	16.56
624.524	16.54
624.94	16.52
625.356	16.5
625.772	16.48
626.188	16.46
626.604	16.44
627.02	16.42
627.436	16.43
627.852	16.41
628.268	16.38
628.683	16.36
629.099	16.33
629.514	16.3
629.93	16.28
630.345	16.24
630.761	16.22
631.176	16.19
631.591	16.16
632.007	16.09
632.422	16.04
632.837	15.99
633.252	15.92
633.667	15.85
634.082	15.77
634.497	15.69
634.911	15.6
635.326	15.49
635.741	15.37
636.155	15.25
636.57	15.14
636.984	15
637.399	14.87
637.813	14.73
638.228	14.61
638.642	14.49
639.056	14.35
639.47	14.21
639.884	14.07
640.298	13.94
640.712	13.81
641.126	13.69
641.54	13.56
641.954	13.43
642.368	13.3
642.781	13.17
643.195	13.03
643.609	12.9
644.022	12.8
644.436	12.69
644.849	12.58
645.262	12.48
645.676	12.37
646.089	12.28
646.502	12.19
646.915	12.12
647.328	12.05
647.741	11.99
648.154	11.94
648.567	11.88
648.98	11.86
649.393	11.82
649.805	11.76
650.218	11.74
650.631	11.7
651.043	11.67
651.456	11.64
651.868	11.59
652.28	11.57
652.693	11.53
653.105	11.48
653.517	11.42
653.929	11.39
654.341	11.35
654.753	11.29
655.165	11.25
655.577	11.2
655.989	11.15
656.401	11.09
656.813	11.03
657.224	10.96
657.636	10.9
658.047	10.83
658.459	10.77
658.87	10.7
659.282	10.65
659.693	10.59
660.104	10.53
660.515	10.47
660.926	10.43
661.338	10.39
661.749	10.33
662.159	10.28
662.57	10.25
662.981	10.22
663.392	10.19
663.803	10.15
664.213	10.11
664.624	10.09
665.035	10.07
665.445	10.05
665.855	10.04
666.266	10.04
666.676	10.02
667.086	10.02
667.497	10
667.907	9.99
668.317	9.98
668.727	9.98
669.137	9.97
669.547	9.98
669.956	9.98
670.366	9.99
670.776	10
671.186	10.01
671.595	10.03
672.005	10.05
672.414	10.06
672.824	10.09
673.233	10.12
673.642	10.16
674.052	10.18
674.461	10.19
674.87	10.21
675.279	10.24
675.688	10.27
676.097	10.3
676.506	10.33
676.915	10.37
677.323	10.41
677.732	10.45
678.141	10.47
678.549	10.52
678.958	10.58
679.366	10.62
679.775	10.67
680.183	10.73
680.592	10.79
681	10.85
681.408	10.91
681.816	10.98
682.224	11.07
682.632	11.18
683.04	11.28
683.448	11.4
683.856	11.55
684.264	11.72
684.671	11.88
685.079	12.08
685.487	12.31
685.894	12.57
686.302	12.84
686.709	13.14
687.116	13.48
687.524	13.87
687.931	14.3
688.338	14.76
688.745	15.27
689.152	15.83
689.559	16.42
689.966	17.02
690.373	17.73
690.78	18.46
691.187	19.23
691.593	20.01
692	20.83
692.407	21.68
692.813	22.55
693.22	23.45
693.626	24.36
694.032	25.3
694.439	26.29
694.845	27.22
695.251	28.21
695.657	29.2
696.063	30.19
696.469	31.18
696.875	32.17
697.281	33.16
697.687	34.18
698.093	35.18
698.498	36.15
698.904	37.13
699.31	38.09
699.715	39.06
700.12	40
700.526	40.98
700.931	41.9
701.337	42.84
701.742	43.75
702.147	44.63
702.552	45.51
702.957	46.42
703.362	47.29
703.767	48.15
704.172	48.99
704.577	49.81
704.981	50.62
705.386	51.42
705.791	52.19
706.195	52.98
706.6	53.71
707.004	54.48
707.408	55.21
707.813	55.94
708.217	56.65
708.621	57.35
709.025	58.03
709.43	58.69
709.834	59.39
710.237	60.06
710.641	60.71
711.045	61.38
711.449	62
711.853	62.62
712.256	63.25
712.66	63.84
713.064	64.42
713.467	65.02
713.87	65.6
714.274	66.19
714.677	66.74
715.08	67.28
715.484	67.85
715.887	68.39
716.29	68.93
716.693	69.37
717.096	69.92
717.499	70.45
717.901	70.94
718.304	71.43
718.707	71.83
719.109	72.3
719.512	72.76
719.915	73.18
720.317	73.62
720.719	74.02
721.122	74.49
721.524	74.92
721.926	75.32
722.328	75.71
722.731	76.08
723.133	76.46
723.535	76.83
723.937	77.18
724.338	77.51
724.74	77.8
725.142	78.04
725.544	78.32
725.945	78.57
726.347	78.9
726.748	79.18
727.15	79.42
727.551	79.73
727.952	79.98
728.354	80.25
728.755	80.5
729.156	80.74
729.557	81.03
729.958	81.27
730.359	81.48
730.76	81.63
731.161	81.8
731.562	82
731.962	82.19
732.363	82.32
732.763	82.47
733.164	82.65
733.564	82.79
733.965	82.94
734.365	83.03
734.766	83.18
735.166	83.28
735.566	83.39
735.966	83.49
736.366	83.56
736.766	83.68
737.166	83.79
737.566	83.86
737.966	83.94
738.365	84.05
738.765	84.18
739.165	84.22
739.564	84.32
739.964	84.39
740.363	84.47
740.763	84.57
741.162	84.62
741.561	84.68
741.96	84.77
742.36	84.86
742.759	84.88
743.158	84.92
743.557	85.04
743.955	85.15
744.354	85.26
744.753	85.37
745.152	85.4
745.55	85.52
745.949	85.59
746.348	85.63
746.746	85.67
747.144	85.79
747.543	85.85
747.941	85.93
748.339	85.99
748.737	86.05
749.136	86.1
749.534	86.18
749.932	86.18
750.33	86.22
750.727	86.28
751.125	86.36
751.523	86.34
751.921	86.39
752.318	86.37
752.716	86.31
753.113	86.28
753.511	86.24
753.908	86.19
754.305	86.15
754.703	86.11
755.1	86.06
755.497	86.03
755.894	86.03
756.291	85.99
756.688	85.96
757.085	85.99
757.482	85.97
757.878	86
758.275	86.03
758.672	86.07
759.068	86.11
759.465	86.16
759.861	86.15
760.258	86.11
760.654	86.1
761.05	86.1
761.447	86.06
761.843	86.03
762.239	85.96
762.635	85.94
763.031	85.94
763.427	85.88
763.822	85.83
764.218	85.8
764.614	85.79
765.01	85.81
765.405	85.76
765.801	85.72
766.196	85.69
766.592	85.7
766.987	85.68
767.382	85.67
767.778	85.69
768.173	85.69
768.568	85.68
768.963	85.68
769.358	85.66
769.753	85.73
770.148	85.75
770.542	85.78
770.937	85.75
771.332	85.73
771.726	85.7
772.121	85.66
772.515	85.65
772.91	85.67
773.304	85.66
773.699	85.65
774.093	85.61
774.487	85.61
774.881	85.63
775.275	85.72
775.669	85.75
776.063	85.76
776.457	85.76
776.851	85.72
777.245	85.71
777.638	85.72
778.032	85.78
778.425	85.81
778.819	85.82
779.212	85.81
779.606	85.8
779.999	85.78
780.392	85.78
780.786	85.82
781.179	85.88
781.572	85.9
781.965	85.94
782.358	85.86
782.751	85.84
783.143	85.86
783.536	85.9
783.929	85.91
784.322	85.9
784.714	85.91
785.107	85.94
785.499	85.97
785.891	85.98
786.284	85.91
786.676	85.98
787.068	85.98
787.46	86
787.852	85.98
788.245	85.99
788.636	86
789.028	86
789.42	85.95
789.812	85.94
790.204	85.94
790.595	85.96
790.987	85.99
791.378	86.04
791.77	86.08
792.161	86.1
792.553	86.08
792.944	86.12
793.335	86.18
793.726	86.16
794.117	86.13
794.508	86.12
794.899	86.17
795.29	86.16
795.681	86.13
796.072	86.09
796.463	86.07
796.853	86.09
797.244	86.1
797.634	86.07
798.025	86.16
798.415	86.19
798.806	86.28
799.196	86.32
799.586	86.33
799.976	86.37
800.366	86.41
800.756	86.45
801.146	86.47
801.536	86.48
801.926	86.49
802.316	86.49
802.706	86.58
803.095	86.55
803.485	86.55
803.874	86.57
804.264	86.67
804.653	86.63
805.043	86.65
805.432	86.62
805.821	86.64
806.21	86.76
806.599	86.82
806.988	86.81
807.377	86.85
807.766	86.91
808.155	86.94
808.544	86.84
808.933	86.92
809.321	87.01
809.71	87.14
810.098	87.17
810.487	87.2
810.875	87.17
811.264	87.17
811.652	87.19
812.04	87.18
812.428	87.23
812.816	87.33
813.204	87.31
813.592	87.31
813.98	87.28
814.368	87.25
814.756	87.22
815.144	87.31
815.531	87.33
815.919	87.34
816.306	87.38
816.694	87.38
817.081	87.33
817.469	87.38
817.856	87.4
818.243	87.44
818.63	87.5
819.017	87.52
819.404	87.5
819.791	87.53
820.178	87.57
820.565	87.57
820.952	87.59
821.339	87.71
821.725	87.79
822.112	87.81
822.498	87.81
822.885	87.87
823.271	87.91
823.657	87.91
824.044	87.91
824.43	87.93
824.816	87.93
825.202	87.91
825.588	87.88
825.974	87.8
826.36	87.77
826.746	87.79
827.132	87.69
827.517	87.68
827.903	87.64
828.289	87.65
828.674	87.63
829.06	87.68
829.445	87.73
829.83	87.72
830.216	87.75
830.601	87.75
830.986	87.73
831.371	87.78
831.756	87.71
832.141	87.74
832.526	87.71
832.911	87.71
833.295	87.69
833.68	87.62
834.065	87.62
834.449	87.59
834.834	87.56
835.218	87.57
835.603	87.52
835.987	87.52
836.371	87.52
836.755	87.49
837.139	87.46
837.524	87.4
837.908	87.37
838.291	87.34
838.675	87.36
839.059	87.31
839.443	87.29
839.827	87.28
840.21	87.31
840.594	87.26
840.977	87.24
841.361	87.26
841.744	87.3
842.127	87.29
842.511	87.25
842.894	87.2
843.277	87.21
843.66	87.18
844.043	87.21
844.426	87.18
844.809	87.15
845.191	87.15
845.574	87.09
845.957	87.03
846.339	87.03
846.722	87.04
847.104	87.02
847.487	87.05
847.869	87.06
848.252	87.03
848.634	87.03
849.016	87.1
849.398	87.11
849.78	87.13
850.162	87.15
850.544	87.16
850.926	87.13
851.307	87.16
851.689	87.13
852.071	87.12
852.452	87.15
852.834	87.15
853.215	87.1
853.597	87.09
853.978	87.05
854.359	87.05
854.741	87.07
855.122	87.11
855.503	87.11
855.884	87.09
856.265	87.08
856.646	87.07
857.026	87.06
857.407	87
857.788	87.02
858.169	87.05
858.549	87.11
858.93	87.11
859.31	87.06
859.69	87.06
860.071	87.1
860.451	87.11
860.831	87.11
861.211	87.14
861.591	87.21
861.971	87.2
862.351	87.2
862.731	87.17
863.111	87.15
863.491	87.2
863.87	87.17
864.25	87.18
864.629	87.16
865.009	87.15
865.388	87.13
865.768	87.12
866.147	87.13
866.526	87.12
866.905	87.13
867.284	87.11
867.663	87.12
868.042	87.1
868.421	87.07
868.8	87.11
869.179	87.11
869.558	87.07
869.936	87.02
870.315	87.02
870.693	87.04
871.072	87.01
871.45	87.03
871.828	87
872.207	87
872.585	86.96
872.963	86.9
873.341	86.87
873.719	86.9
874.097	86.94
874.475	86.91
874.853	86.88
875.23	86.89
875.608	86.88
875.986	86.87
876.363	86.89
876.741	86.9
877.118	86.93
877.495	86.96
877.873	86.91
878.25	86.92
878.627	86.93
879.004	86.92
879.381	86.94
879.758	86.9
880.135	86.93
880.512	86.95
880.889	86.99
881.265	87.03
881.642	87.02
882.019	87.07
882.395	87.07
882.772	87.06
883.148	87.08
883.524	87.09
883.901	87.05
884.277	87
884.653	87
885.029	86.97
885.405	86.95
885.781	86.91
886.157	86.88
886.532	86.84
886.908	86.88
887.284	86.88
887.659	86.87
888.035	86.86
888.411	86.87
888.786	86.86
889.161	86.88
889.537	86.9
889.912	86.91
890.287	86.9
890.662	86.89
891.037	86.81
891.412	86.75
891.787	86.74
892.162	86.73
892.536	86.71
892.911	86.65
893.286	86.56
893.66	86.49
894.035	86.45
894.409	86.43
894.784	86.42
895.158	86.38
895.532	86.34
895.906	86.27
896.281	86.24
896.655	86.24
897.029	86.2
897.402	86.19
897.776	86.17
898.15	86.18
898.524	86.17
898.898	86.12
899.271	86.14
899.645	86.18
900.018	86.17
900.392	86.19
900.765	86.18
901.138	86.23
901.511	86.25
901.884	86.24
902.258	86.22
902.631	86.23
903.003	86.24
903.376	86.22
903.749	86.2
904.122	86.21
904.495	86.2
904.867	86.16
905.24	86.13
905.612	86.09
905.985	86.09
906.357	86.06
906.729	86
907.102	86
907.474	86.04
907.846	86.04
908.218	86
908.59	85.96
908.962	85.95
909.334	85.93
909.705	85.94
910.077	85.91
910.449	85.94
910.82	85.94
911.192	85.96
911.563	85.91
911.935	85.83
912.306	85.81
912.677	85.84
913.048	85.82
913.419	85.8
913.79	85.76
914.161	85.75
914.532	85.7
914.903	85.72
915.274	85.68
915.645	85.69
916.015	85.7
916.386	85.72
916.756	85.61
917.127	85.61
917.497	85.58
917.868	85.6
918.238	85.59
918.608	85.6
918.978	85.54
919.348	85.48
919.718	85.48
920.088	85.49
920.458	85.5
920.828	85.54
921.198	85.58
921.567	85.54
921.937	85.54
922.306	85.48
922.676	85.47
923.045	85.45
923.415	85.5
923.784	85.48
924.153	85.43
924.522	85.41
924.891	85.4
925.26	85.33
925.629	85.31
925.998	85.21
926.367	85.27
926.736	85.2
927.104	85.17
927.473	85.13
927.842	85.02
928.21	85.04
928.578	84.92
928.947	84.88
929.315	84.86
929.683	84.87
930.051	84.85
930.42	84.76
930.788	84.7
931.156	84.6
931.523	84.47
931.891	84.36
932.259	84.16
932.627	84.05
932.994	83.91
933.362	83.82
933.729	83.64
934.097	83.52
934.464	83.39
934.831	83.21
935.199	83.06
935.566	82.92
935.933	82.89
936.3	82.79
936.667	82.68
937.034	82.5
937.401	82.31
937.767	82.24
938.134	82.16
938.501	82.04
938.867	82.11
939.234	82.17
939.6	82.18
939.967	82.15
940.333	82.29
940.699	82.54
941.065	82.76
941.431	82.93
941.798	83.11
942.163	83.25
942.529	83.41
942.895	83.52
943.261	83.63
943.627	83.83
943.992	83.91
944.358	84.03
944.723	84
945.089	84.05
945.454	84.07
945.82	84.14
946.185	84.18
946.55	84.34
946.915	84.31
947.28	84.31
947.645	84.31
948.01	84.31
948.375	84.38
948.74	84.34
949.104	84.34
949.469	84.17
949.834	84.08
950.198	83.87
950.562	83.73
950.927	83.68
951.291	83.62
951.655	83.56
952.02	83.5
952.384	83.43
952.748	83.32
953.112	83.25
953.476	83.3
953.839	83.16
954.203	83.17
954.567	83.2
954.931	83.24
955.294	83.13
955.658	83.05
956.021	83.03
956.385	82.96
956.748	82.98
957.111	82.86
957.474	82.87
957.837	82.94
958.2	82.9
958.563	82.77
958.926	82.67
959.289	82.71
959.652	82.81
960.015	82.76
960.377	82.72
960.74	82.68
961.102	82.71
961.465	82.64
961.827	82.45
962.189	82.32
962.552	82.28
962.914	82.21
963.276	82.18
963.638	81.98
964	81.95
964.362	81.84
964.724	81.79
965.085	81.72
965.447	81.55
965.809	81.58
966.17	81.63
966.532	81.56
966.893	81.48
967.255	81.39
967.616	81.37
967.977	81.33
968.338	81.34
968.699	81.21
969.061	81.14
969.421	81.18
969.782	81.17
970.143	81.09
970.504	81.15
970.865	81.09
971.225	81.07
971.586	81.11
971.946	81.16
972.307	81.14
972.667	81.38
973.027	81.37
973.388	81.31
973.748	81.37
974.108	81.42
974.468	81.39
974.828	81.42
975.188	81.48
975.548	81.42
975.907	81.31
976.267	81.25
976.627	81.02
976.986	81.04
977.346	81.11
977.705	81.03
978.064	80.98
978.424	80.91
978.783	80.86
979.142	80.66
979.501	80.62
979.86	80.72
980.219	80.59
980.578	80.62
980.937	80.56
981.296	80.55
981.654	80.55
982.013	80.54
982.371	80.4
982.73	80.35
983.088	80.41
983.447	80.37
983.805	80.19
984.163	80.29
984.521	80.1
984.879	80.14
985.237	80.14
985.595	80.1
985.953	80.09
986.311	80.26
986.669	80.26
987.026	80.3
987.384	80.24
987.741	80.22
988.099	80.17
988.456	80.29
988.814	80.15
989.171	79.99
989.528	79.89
989.885	79.84
990.242	79.76
990.599	79.78
990.956	79.69
991.313	79.71
991.67	79.76
992.027	79.68
992.383	79.72
992.74	79.81
993.096	79.84
993.453	79.75
993.809	79.76
994.165	79.72
994.522	79.62
994.878	79.58
995.234	79.47
995.59	79.37
995.946	79.51
996.302	79.41
996.658	79.36
997.013	79.38
997.369	79.41
997.725	79.51
998.08	79.56
998.436	79.7
998.791	79.65
999.147	79.74
999.502	79.82
999.857	79.74
1000.212	79.69
1000.567	79.67
1000.922	79.55
1001.277	79.55
1001.632	79.46
1001.987	79.28
1002.342	79.13
1002.696	79.12
1003.051	79.01
1003.406	78.89
1003.76	78.94
1004.114	78.96
1004.469	78.64
1004.823	78.63
1005.177	78.83
1005.531	78.65
1005.885	78.79
1006.239	78.93
1006.593	78.91
1006.947	78.93
1007.301	78.89
1007.655	78.74
1008.008	78.65
1008.362	78.78
1008.715	78.84
1009.069	78.49
1009.422	78.41
1009.776	78.21
1010.129	77.97
1010.482	78.07
1010.835	78.24
1011.188	77.92
1011.541	77.79
1011.894	77.81
1012.247	77.89
1012.6	77.84
1012.952	77.94
1013.305	78.01
1013.657	77.96
1014.01	78.06
1014.362	77.97
1014.715	77.58
1015.067	77.84
1015.419	77.95
1015.771	78.31
1016.123	78.16
1016.475	78.25
1016.827	78.23
1017.179	78.2
1017.531	78.09
1017.883	78.14
1018.234	77.91
1018.586	77.94
1018.938	77.69
1019.289	77.65
1019.64	77.36
1019.992	77.39
1020.343	77.18
1020.694	76.99
1021.045	77.06
1021.396	76.97
1021.747	76.64
1022.098	76.62
1022.449	76.51
1022.8	76.5
1023.151	76.66
1023.501	76.5
1023.852	76.48
1024.202	76.26
1024.553	75.98
1024.903	75.64
1025.253	75.71
1025.604	75.62
1025.954	75.38
1026.304	75.7
1026.654	75.83
1027.004	75.49
1027.354	75.27
1027.703	75.16
1028.053	75.04
1028.403	75.05
1028.753	75.39
1029.102	75
1029.452	74.62
1029.801	74.44
1030.15	73.99
1030.499	73.77
897.758	480.31
901.051	491.78
904.343	500.6
907.636	493.41
910.928	483.41
914.22	494.61
917.511	484.75
920.803	471.31
924.094	449.42
927.384	456.22
930.675	440.46
933.965	436.84
937.255	437.68
940.544	417.35
943.834	398.67
947.123	393.64
950.411	372.41
953.7	365.7
956.988	352.45
960.276	341.26
963.563	337.53
966.851	319.23
970.138	315.94
973.424	294.28
976.711	290.66
979.997	282.83
983.283	277.16
986.568	268.41
989.853	261.77
993.138	253.97
996.423	251.63
999.708	242.9
1002.992	246.58
1006.275	237.57
1009.559	238.07
1012.842	231.81
1016.125	225.09
1019.408	221.53
1022.69	220.94
1025.972	219.13
1029.254	214.77
1032.536	210.36
1035.817	205.68
1039.098	201.95
1042.379	200.2
1045.659	196.78
1048.939	197.57
1052.219	194.66
1055.498	191.75
1058.778	188.64
1062.057	186.45
1065.335	185.86
1068.614	183.25
1071.892	181.31
1075.17	179.31
1078.447	176.53
1081.724	175.18
1085.001	169.56
1088.278	170.74
1091.554	170.01
1094.83	169.1
1098.106	166.5
1101.382	165.87
1104.657	165.4
1107.932	165.54
1111.206	164.23
1114.481	162.5
1117.755	161.99
1121.029	162.86
1124.302	160.24
1127.575	157.68
1130.848	157.18
1134.121	155.85
1137.393	155.29
1140.665	154.25
1143.937	152.49
1147.208	150.49
1150.48	150.51
1153.75	148.42
1157.021	147.27
1160.291	146.81
1163.561	146.3
1166.831	145.94
1170.101	145.13
1173.37	144.06
1176.639	143.02
1179.907	142.66
1183.176	142.23
1186.444	142.61
1189.711	142.01
1192.979	142.89
1196.246	142.56
1199.513	143
1202.78	141.98
1206.046	142.14
1209.312	143.74
1212.578	144.19
1215.843	146.01
1219.108	147.08
1222.373	148.51
1225.638	151.1
1228.902	153.77
1232.166	158.01
1235.43	159.71
1238.693	163.58
1241.956	166.75
1245.219	169.06
1248.482	170.09
1251.744	169.83
1255.006	170.27
1258.268	166.37
1261.529	164.63
1264.79	160.8
1268.051	157.59
1271.312	156.92
1274.572	154.29
1277.832	150.9
1281.092	148.72
1284.351	146.64
1287.61	146.03
1290.869	145.88
1294.128	145.73
1297.386	145.81
1300.644	144.67
1303.902	144.56
1307.159	142.91
1310.416	143.91
1313.673	146.06
1316.93	148.38
1320.186	149.46
1323.442	151.32
1326.697	153.18
1329.953	153.25
1333.208	156.9
1336.463	162.39
1339.717	164.75
1342.972	172.99
1346.226	174.71
1349.479	175.47
1352.733	179.92
1355.986	184.86
1359.238	188.28
1362.491	189.22
1365.743	194.84
1368.995	196.71
1372.247	194.45
1375.498	193.52
1378.749	196.57
1382	198.73
1385.251	196.82
1388.501	196.76
1391.751	197.06
1395	194.1
1398.25	194.94
1401.499	194.05
1404.748	191.26
1407.996	189.41
1411.244	188.92
1414.492	185.12
1417.74	180.54
1420.987	178.1
1424.234	173.68
1427.481	167.9
1430.728	164.7
1433.974	160.13
1437.22	156.28
1440.465	151.37
1443.711	147.89
1446.956	144.25
1450.201	139.71
1453.445	133.26
1456.689	129.55
1459.933	125.99
1463.177	121.17
1466.42	118.86
1469.663	116.06
1472.906	113.03
1476.148	109.98
1479.391	108.25
1482.633	106.53
1485.874	104.97
1489.115	104.56
1492.356	102.98
1495.597	102.01
1498.838	102.28
1502.078	101.66
1505.318	101.12
1508.557	100.43
1511.797	100.45
1515.036	100.4
1518.274	100.16
1521.513	99.22
1524.751	98.69
1527.989	100.69
1531.227	100.39
1534.464	100.46
1537.701	99.56
1540.938	99.49
1544.174	100.25
1547.41	100.85
1550.646	100.68
1553.882	100.55
1557.117	100.75
1560.352	101.25
1563.587	99.82
1566.821	100.06
1570.055	99.24
1573.289	100.29
1576.523	99.89
1579.756	99.44
1582.989	99.29
1586.222	98.97
1589.454	99.72
1592.686	100.19
1595.918	99.44
1599.15	99.52
1602.381	99.84
1605.612	100.41
1608.843	99.77
1612.073	100.91
1615.303	100.78
1618.533	100.39
1621.762	100.93
1624.992	100.17
1628.221	99.71
1631.449	100.64
1634.678	100.8
1637.906	101.26
1641.134	101.41
1644.361	101.57
1647.588	101.25
1650.815	101.78
1654.042	102.28
1657.269	101.96
1660.495	102.7
1663.72	102.78
1666.946	102.93
1670.171	103.42
1673.396	103.13
1676.621	103.55
1679.845	104.13
1683.069	103.9
1686.293	103.6
1689.517	103.91
1692.74	104.19
1695.963	103.95
1699.185	104.96
1702.408	104.43
1705.63	104.13
1708.852	105.02
1712.073	104.22
1715.294	103.8
1718.515	104.39
1721.736	104.5
1724.956	104.66
1728.176	104.51
1731.396	104.98
1734.616	104.4
1737.835	104.68
1741.054	104.93
1744.272	104.08
1747.491	104.49
1750.709	105.41
1753.927	105.11
1757.144	105.6
1760.361	104.96
1763.578	106.13
1766.795	106.41
1770.011	106.53
1773.227	106.93
1776.443	107.43
1779.658	107.24
1782.874	108.25
1786.089	107.32
1789.303	107.54
1792.518	108.13
1795.732	108.98
1798.945	109.31
1802.159	109.28
1805.372	110.47
1808.585	111.34
1811.797	111.76
1815.01	112.36
1818.222	112.49
1821.434	113.85
1824.645	114.48
1827.856	115.08
1831.067	115.88
1834.278	116.36
1837.488	117.02
1840.698	117.95
1843.908	117.5
1847.117	118.72
1850.326	120.16
1853.535	121.23
1856.744	121.23
1859.952	122.45
1863.16	121.83
1866.368	120.86
1869.575	120.54
1872.782	120.13
1875.989	118.96
1879.196	118.45
1882.402	116.95
1885.608	117.02
1888.814	114.96
1892.019	115.2
1895.224	113.03
1898.429	113.6
1901.634	113.62
1904.838	113.6
1908.042	113.94
1911.246	113.01
1914.449	113.28
1917.652	112.7
1920.855	112.21
1924.058	111.99
1927.26	111.13
1930.462	112.34
1933.664	112.51
1936.865	113.12
1940.066	110.93
1943.267	109.65
1946.467	111.19
1949.668	111.35
1952.868	112.15
1956.067	112.52
1959.267	112.74
1962.466	113.46
1965.665	114.36
1968.863	114.59
1972.061	114.45
1975.259	117.8
1978.457	119.46
1981.654	119.69
1984.852	120.8
1988.048	122.17
1991.245	122.82
1994.441	125.91
1997.637	128.62
2000.833	129.72
2004.028	130.63
2007.223	134.9
2010.418	137.61
2013.613	142.53
2016.807	145.39
2020.001	147.67
2023.194	152.16
2026.388	157.86
2029.581	165.14
2032.774	168.07
2035.966	173.84
2039.158	179.27
2042.35	180.15
2045.542	183.33
2048.733	190.78
2051.924	192.65
2055.115	196
2058.306	196.23
2061.496	198.14
2064.686	197.73
2067.875	199.44
2071.065	201.05
2074.254	201.35
2077.442	208.87
2080.631	208.97
2083.819	208.42
2087.007	213.19
2090.195	217.69
2093.382	218.48
2096.569	220.03
2099.756	223.94
2102.942	227.47
2106.128	231.25
2109.314	233.4
2112.5	233.23
2115.685	231.13
2118.87	232.35
2122.055	233.13
2125.239	235.12
2128.424	241.94
2131.608	238.79
2134.791	238.1
2137.974	238.72
2141.157	241.51
2144.34	242.12
2147.523	245.56
2150.705	253.52
2153.887	250.71
2157.068	252.92
2160.25	255.65
2163.431	253.78
2166.611	260.45
2169.792	264.95
2172.972	267.09
2176.152	267.58
2179.331	273.82
2182.511	275.02
2185.69	278.95
2188.868	287.83
2192.047	295.25
2195.225	300.39
2198.403	302.03
2201.58	298.9
2204.758	305.75
2207.935	308.35
2211.111	315.02
2214.288	317.21
2217.464	320.46
2220.64	319.51
2223.815	321.53
2226.991	314.82
2230.166	316.63
2233.34	328.27
2236.515	336.83
2239.689	330.04
2242.863	337.8
2246.036	331.85
2249.209	338.18
2252.382	335.78
2255.555	348.33
2258.727	351.69
2261.9	363.55
2265.071	368.6
2268.243	363.06
2271.414	371.22
2274.585	381.88
2277.756	382.17
2280.926	394.99
2284.096	393.16
2287.266	395.1
2290.436	388.58
2293.605	397.57
2296.774	409.24
2299.942	413.1
2303.111	423.37
2306.279	436.62
2309.447	437.31
2312.614	436.12
2315.781	447.05
2318.948	456.88
2322.115	467.71
2325.281	489.52
2328.447	483.34
2331.613	491.55
2334.779	494.05
2337.944	501.63
2341.109	504.93
2344.274	513.51
2347.438	525.42
2350.602	531.03
2353.766	566.42
2356.929	566.87
2360.092	571.87
2363.255	575.13
2366.418	578.29
2369.58	586.98
2372.742	594.66
2375.904	592.18
2379.066	603.8
2382.227	643.93
2385.388	640.85
2388.548	604.67
2391.709	597.05
2394.869	614.34
2398.029	621.58
2401.188	620.75
2404.347	644.48
2407.506	659.47
2410.665	637.21
2413.823	641.31
2416.981	639.88
2420.139	615.09
2423.296	659.03
2426.453	704.31
2429.61	678.53
2432.767	719.14
2435.923	745.31
2439.079	713.44
2442.235	731.87
2445.391	751.12
2448.546	743.28
2451.701	783.57
2454.855	833.2
2458.009	742.89
2461.163	757.38
2464.317	758.42
2467.471	742.62
2470.624	759.92
2473.777	752.87
2476.929	728.67
2480.082	772.36
2483.234	812.9
2486.385	822.49
2489.537	845.89
2492.688	925.44
2495.839	908.99
2498.989	939.8
2502.14	939.28
2505.29	903.27
2508.439	997.95
2511.589	1017.27
2514.738	984.88
2517.887	976.13
2521.035	913.19
2524.183	900.74
2527.331	894.66
2530.479	870.88
2533.627	888.85
