Data from C_2_dec_nc_4n_070_Splice17_19.txt Node
Date: Sat Feb 29 14:24:18 EST 2020
User: sa697716
Spectrometer: FLMS03696
Trigger mode: 0
Integration Time (sec): 3.180400E-1
Scans to average: 20
Electric dark correction enabled: true
Nonlinearity correction enabled: true
Boxcar width: 5
XAxis mode: Wavelengths
Number of Pixels in Spectrum: 2048
>>>>>Begin Spectral Data<<<<<
187.83	75.3
188.298	84.33
188.766	87.52
189.233	62.68
189.701	68.86
190.169	69.07
190.636	69.83
191.104	79.68
191.571	282.35
192.039	211.12
192.506	-50.34
192.974	7362.71
193.441	-720.08
193.908	161.08
194.375	90.79
194.842	147.9
195.31	68.02
195.777	46.73
196.244	35.26
196.711	40
197.177	36.62
197.644	36.86
198.111	35.58
198.578	36.83
199.045	37.29
199.511	37.86
199.978	38.26
200.445	38.34
200.911	38.43
201.378	38.67
201.844	38.65
202.31	39.61
202.777	40.14
203.243	41.18
203.709	40.94
204.176	41.18
204.642	41.21
205.108	41.26
205.574	42.04
206.04	42.37
206.506	42.66
206.972	42.55
207.438	42.32
207.903	42.28
208.369	41.47
208.835	41.49
209.301	41.05
209.766	40.73
210.232	40.74
210.697	40.27
211.163	40.04
211.628	39.43
212.094	39.41
212.559	38.79
213.024	38.41
213.49	38.31
213.955	38.08
214.42	37.69
214.885	37.17
215.35	36.58
215.815	35.46
216.28	34.96
216.745	34.45
217.21	33.52
217.675	32.76
218.14	31.67
218.604	30.77
219.069	30.14
219.534	29.48
219.998	28.9
220.463	28.34
220.927	27.97
221.392	27.47
221.856	26.94
222.32	26.55
222.785	26.16
223.249	25.91
223.713	25.63
224.177	25.29
224.642	25.03
225.106	24.73
225.57	24.45
226.034	24.18
226.497	23.89
226.961	23.65
227.425	23.37
227.889	23.13
228.353	22.87
228.816	22.6
229.28	22.32
229.744	22.07
230.207	21.84
230.671	21.58
231.134	21.31
231.597	21.06
232.061	20.8
232.524	20.57
232.987	20.32
233.45	20.05
233.914	19.8
234.377	19.59
234.84	19.35
235.303	19.15
235.766	18.94
236.229	18.73
236.691	18.54
237.154	18.36
237.617	18.19
238.08	18.02
238.542	17.87
239.005	17.7
239.468	17.52
239.93	17.37
240.393	17.22
240.855	17.05
241.317	16.93
241.78	16.79
242.242	16.64
242.704	16.5
243.166	16.36
243.629	16.21
244.091	16.08
244.553	15.98
245.015	15.85
245.477	15.71
245.939	15.59
246.4	15.44
246.862	15.32
247.324	15.23
247.786	15.12
248.247	15.04
248.709	14.95
249.17	14.86
249.632	14.74
250.093	14.64
250.555	14.56
251.016	14.5
251.477	14.42
251.939	14.35
252.4	14.26
252.861	14.19
253.322	14.11
253.783	14.05
254.244	13.98
254.705	13.94
255.166	13.91
255.627	13.84
256.088	13.77
256.549	13.72
257.009	13.68
257.47	13.63
257.931	13.58
258.391	13.51
258.852	13.44
259.312	13.39
259.773	13.31
260.233	13.23
260.694	13.18
261.154	13.12
261.614	13.05
262.074	12.99
262.534	12.91
262.994	12.85
263.455	12.8
263.915	12.74
264.374	12.69
264.834	12.64
265.294	12.59
265.754	12.53
266.214	12.48
266.673	12.43
267.133	12.38
267.593	12.35
268.052	12.3
268.512	12.26
268.971	12.21
269.431	12.17
269.89	12.13
270.349	12.1
270.809	12.06
271.268	12.02
271.727	11.98
272.186	11.95
272.645	11.91
273.104	11.88
273.563	11.84
274.022	11.8
274.481	11.76
274.94	11.71
275.399	11.66
275.857	11.62
276.316	11.58
276.775	11.53
277.233	11.47
277.692	11.42
278.15	11.36
278.609	11.3
279.067	11.26
279.525	11.2
279.984	11.16
280.442	11.12
280.9	11.07
281.358	11.02
281.816	10.97
282.274	10.93
282.732	10.89
283.19	10.86
283.648	10.83
284.106	10.79
284.564	10.77
285.021	10.73
285.479	10.7
285.937	10.68
286.394	10.65
286.852	10.63
287.309	10.59
287.767	10.56
288.224	10.52
288.682	10.48
289.139	10.45
289.596	10.41
290.053	10.35
290.511	10.31
290.968	10.25
291.425	10.21
291.882	10.16
292.339	10.12
292.796	10.07
293.252	10.03
293.709	9.98
294.166	9.93
294.623	9.89
295.079	9.86
295.536	9.82
295.992	9.79
296.449	9.75
296.905	9.72
297.362	9.68
297.818	9.65
298.274	9.6
298.731	9.57
299.187	9.54
299.643	9.51
300.099	9.47
300.555	9.44
301.011	9.41
301.467	9.37
301.923	9.33
302.379	9.3
302.835	9.27
303.291	9.24
303.746	9.21
304.202	9.18
304.658	9.15
305.113	9.12
305.569	9.09
306.024	9.06
306.479	9.04
306.935	9.02
307.39	8.99
307.845	8.97
308.301	8.95
308.756	8.94
309.211	8.93
309.666	8.91
310.121	8.89
310.576	8.88
311.031	8.85
311.486	8.83
311.94	8.82
312.395	8.8
312.85	8.79
313.305	8.77
313.759	8.75
314.214	8.72
314.668	8.71
315.123	8.7
315.577	8.68
316.032	8.67
316.486	8.65
316.94	8.63
317.394	8.61
317.849	8.58
318.303	8.56
318.757	8.54
319.211	8.51
319.665	8.48
320.119	8.44
320.572	8.43
321.026	8.41
321.48	8.37
321.934	8.35
322.387	8.32
322.841	8.29
323.295	8.26
323.748	8.25
324.202	8.23
324.655	8.21
325.108	8.19
325.562	8.15
326.015	8.12
326.468	8.1
326.921	8.07
327.374	8.05
327.827	8.02
328.28	8
328.733	7.96
329.186	7.95
329.639	7.92
330.092	7.91
330.545	7.9
330.997	7.88
331.45	7.87
331.903	7.85
332.355	7.85
332.808	7.85
333.26	7.84
333.713	7.84
334.165	7.83
334.617	7.82
335.069	7.81
335.522	7.81
335.974	7.81
336.426	7.81
336.878	7.8
337.33	7.79
337.782	7.78
338.234	7.77
338.686	7.76
339.137	7.75
339.589	7.74
340.041	7.74
340.493	7.72
340.944	7.69
341.396	7.68
341.847	7.67
342.299	7.63
342.75	7.61
343.201	7.59
343.653	7.56
344.104	7.54
344.555	7.52
345.006	7.5
345.457	7.47
345.908	7.45
346.359	7.43
346.81	7.41
347.261	7.4
347.712	7.39
348.163	7.39
348.613	7.37
349.064	7.34
349.515	7.32
349.965	7.3
350.416	7.3
350.866	7.3
351.317	7.29
351.767	7.29
352.217	7.28
352.668	7.27
353.118	7.26
353.568	7.26
354.018	7.27
354.468	7.27
354.918	7.28
355.368	7.28
355.818	7.27
356.268	7.26
356.718	7.26
357.168	7.25
357.617	7.24
358.067	7.24
358.517	7.22
358.966	7.22
359.416	7.22
359.865	7.21
360.315	7.19
360.764	7.19
361.213	7.17
361.663	7.17
362.112	7.17
362.561	7.17
363.01	7.17
363.459	7.17
363.908	7.15
364.357	7.14
364.806	7.13
365.255	7.13
365.703	7.12
366.152	7.12
366.601	7.11
367.05	7.1
367.498	7.1
367.947	7.08
368.395	7.08
368.844	7.08
369.292	7.07
369.74	7.07
370.189	7.06
370.637	7.07
371.085	7.07
371.533	7.06
371.981	7.07
372.429	7.04
372.877	7.04
373.325	7.04
373.773	7.04
374.221	7.04
374.669	7.03
375.116	7.02
375.564	6.99
376.012	6.98
376.459	6.97
376.907	6.96
377.354	6.96
377.801	6.96
378.249	6.96
378.696	6.96
379.143	6.95
379.591	6.96
380.038	6.97
380.485	6.97
380.932	6.98
381.379	6.98
381.826	6.99
382.273	6.98
382.72	6.98
383.166	6.97
383.613	6.97
384.06	6.97
384.506	6.96
384.953	6.95
385.4	6.96
385.846	6.96
386.292	6.98
386.739	6.98
387.185	7
387.631	7.01
388.078	7.03
388.524	7.02
388.97	7.02
389.416	7.02
389.862	7.02
390.308	7.04
390.754	7.05
391.2	7.06
391.645	7.08
392.091	7.09
392.537	7.12
392.983	7.15
393.428	7.18
393.874	7.21
394.319	7.25
394.765	7.27
395.21	7.28
395.655	7.31
396.101	7.33
396.546	7.35
396.991	7.36
397.436	7.36
397.881	7.37
398.326	7.41
398.771	7.43
399.216	7.47
399.661	7.52
400.106	7.57
400.551	7.57
400.995	7.58
401.44	7.59
401.885	7.61
402.329	7.62
402.774	7.63
403.218	7.64
403.663	7.65
404.107	7.67
404.551	7.67
404.995	7.67
405.44	7.68
405.884	7.69
406.328	7.71
406.772	7.73
407.216	7.76
407.66	7.77
408.104	7.8
408.547	7.81
408.991	7.8
409.435	7.8
409.879	7.81
410.322	7.83
410.766	7.85
411.209	7.86
411.653	7.87
412.096	7.86
412.54	7.87
412.983	7.86
413.426	7.87
413.869	7.89
414.312	7.93
414.756	7.96
415.199	7.98
415.642	8.01
416.085	8.04
416.527	8.08
416.97	8.11
417.413	8.11
417.856	8.11
418.298	8.11
418.741	8.11
419.184	8.1
419.626	8.09
420.069	8.09
420.511	8.08
420.953	8.07
421.396	8.07
421.838	8.08
422.28	8.11
422.722	8.15
423.164	8.17
423.606	8.18
424.048	8.19
424.49	8.21
424.932	8.21
425.374	8.24
425.816	8.23
426.258	8.2
426.699	8.16
427.141	8.12
427.582	8.1
428.024	8.08
428.465	8.1
428.907	8.1
429.348	8.09
429.789	8.08
430.231	8.04
430.672	8.04
431.113	8.08
431.554	8.1
431.995	8.13
432.436	8.13
432.877	8.13
433.318	8.11
433.759	8.1
434.2	8.12
434.64	8.13
435.081	8.14
435.522	8.15
435.962	8.17
436.403	8.19
436.843	8.21
437.284	8.24
437.724	8.27
438.164	8.29
438.604	8.31
439.045	8.3
439.485	8.32
439.925	8.35
440.365	8.36
440.805	8.37
441.245	8.35
441.685	8.37
442.125	8.38
442.564	8.39
443.004	8.42
443.444	8.45
443.883	8.5
444.323	8.5
444.762	8.56
445.202	8.61
445.641	8.65
446.081	8.73
446.52	8.74
446.959	8.78
447.398	8.84
447.837	8.9
448.276	8.93
448.716	8.98
449.154	9.05
449.593	9.08
450.032	9.13
450.471	9.17
450.91	9.17
451.349	9.22
451.787	9.24
452.226	9.23
452.664	9.24
453.103	9.24
453.541	9.24
453.98	9.23
454.418	9.23
454.856	9.19
455.295	9.18
455.733	9.18
456.171	9.16
456.609	9.16
457.047	9.17
457.485	9.15
457.923	9.14
458.361	9.12
458.798	9.13
459.236	9.11
459.674	9.1
460.111	9.09
460.549	9.08
460.987	9.07
461.424	9.06
461.862	9.06
462.299	9.06
462.736	9.07
463.173	9.08
463.611	9.07
464.048	9.09
464.485	9.1
464.922	9.1
465.359	9.11
465.796	9.09
466.233	9.12
466.67	9.1
467.106	9.09
467.543	9.1
467.98	9.1
468.416	9.11
468.853	9.12
469.29	9.13
469.726	9.14
470.162	9.13
470.599	9.16
471.035	9.16
471.471	9.17
471.907	9.19
472.344	9.21
472.78	9.2
473.216	9.21
473.652	9.2
474.088	9.22
474.523	9.22
474.959	9.24
475.395	9.23
475.831	9.24
476.266	9.25
476.702	9.26
477.138	9.25
477.573	9.26
478.008	9.26
478.444	9.27
478.879	9.29
479.314	9.29
479.75	9.31
480.185	9.32
480.62	9.32
481.055	9.34
481.49	9.33
481.925	9.34
482.36	9.34
482.795	9.33
483.229	9.33
483.664	9.34
484.099	9.35
484.534	9.35
484.968	9.37
485.403	9.38
485.837	9.38
486.271	9.4
486.706	9.42
487.14	9.45
487.574	9.48
488.009	9.53
488.443	9.56
488.877	9.6
489.311	9.64
489.745	9.68
490.179	9.74
490.613	9.8
491.046	9.86
491.48	9.93
491.914	10
492.348	10.07
492.781	10.14
493.215	10.21
493.648	10.31
494.082	10.41
494.515	10.5
494.948	10.6
495.382	10.7
495.815	10.82
496.248	10.94
496.681	11.05
497.114	11.17
497.547	11.31
497.98	11.44
498.413	11.57
498.846	11.71
499.279	11.86
499.711	12.02
500.144	12.2
500.577	12.36
501.009	12.53
501.442	12.71
501.874	12.91
502.306	13.12
502.739	13.32
503.171	13.55
503.603	13.77
504.036	14.02
504.468	14.27
504.9	14.54
505.332	14.82
505.764	15.1
506.196	15.4
506.627	15.72
507.059	16.02
507.491	16.36
507.923	16.69
508.354	17.04
508.786	17.37
509.217	17.7
509.649	18.05
510.08	18.42
510.512	18.78
510.943	19.15
511.374	19.51
511.805	19.88
512.237	20.26
512.668	20.65
513.099	21.03
513.53	21.45
513.961	21.86
514.391	22.25
514.822	22.64
515.253	23.05
515.684	23.45
516.114	23.86
516.545	24.25
516.975	24.67
517.406	25.09
517.836	25.5
518.267	25.9
518.697	26.32
519.127	26.73
519.558	27.12
519.988	27.52
520.418	27.91
520.848	28.29
521.278	28.69
521.708	28.98
522.138	29.32
522.567	29.67
522.997	30.01
523.427	30.33
523.857	30.64
524.286	30.95
524.716	31.26
525.145	31.56
525.575	31.85
526.004	32.1
526.433	32.44
526.863	32.7
527.292	32.94
527.721	33.18
528.15	33.4
528.579	33.61
529.008	33.84
529.437	34.04
529.866	34.22
530.295	34.42
530.724	34.61
531.152	34.77
531.581	34.93
532.01	35.06
532.438	35.19
532.867	35.36
533.295	35.48
533.723	35.61
534.152	35.71
534.58	35.79
535.008	35.85
535.436	35.94
535.865	36.02
536.293	36.1
536.721	36.18
537.149	36.24
537.576	36.28
538.004	36.32
538.432	36.34
538.86	36.37
539.287	36.45
539.715	36.5
540.143	36.51
540.57	36.56
540.998	36.6
541.425	36.63
541.852	36.65
542.28	36.69
542.707	36.76
543.134	36.8
543.561	36.82
543.988	36.85
544.415	36.86
544.842	36.9
545.269	36.91
545.696	36.92
546.123	36.94
546.549	37
546.976	37.04
547.403	37.03
547.829	37.07
548.256	37.1
548.682	37.09
549.108	37.12
549.535	37.14
549.961	37.14
550.387	37.13
550.813	37.12
551.24	37.09
551.666	37.08
552.092	37.1
552.518	37.06
552.943	37.05
553.369	37.04
553.795	37.03
554.221	36.97
554.646	36.95
555.072	36.92
555.498	36.89
555.923	36.84
556.349	36.75
556.774	36.66
557.199	36.61
557.625	36.54
558.05	36.45
558.475	36.33
558.9	36.27
559.325	36.17
559.75	36.05
560.175	35.95
560.6	35.82
561.025	35.73
561.449	35.6
561.874	35.46
562.299	35.3
562.723	35.17
563.148	35.04
563.572	34.88
563.997	34.72
564.421	34.56
564.846	34.39
565.27	34.24
565.694	34.05
566.118	33.88
566.542	33.7
566.966	33.52
567.39	33.31
567.814	33.09
568.238	32.85
568.662	32.64
569.086	32.41
569.509	32.2
569.933	31.95
570.357	31.71
570.78	31.46
571.204	31.21
571.627	30.98
572.05	30.78
572.474	30.59
572.897	30.4
573.32	30.18
573.743	30
574.166	29.8
574.589	29.61
575.012	29.47
575.435	29.3
575.858	29.17
576.281	29.03
576.704	28.86
577.126	28.73
577.549	28.59
577.972	28.47
578.394	28.34
578.817	28.21
579.239	28.1
579.661	27.97
580.084	27.84
580.506	27.7
580.928	27.6
581.35	27.5
581.772	27.38
582.194	27.27
582.616	27.16
583.038	27.05
583.46	26.98
583.882	26.89
584.303	26.81
584.725	26.74
585.147	26.64
585.568	26.54
585.99	26.45
586.411	26.37
586.833	26.3
587.254	26.22
587.675	26.16
588.096	26.09
588.518	26.02
588.939	25.94
589.36	25.87
589.781	25.83
590.202	25.77
590.623	25.7
591.043	25.64
591.464	25.57
591.885	25.52
592.305	25.47
592.726	25.42
593.147	25.39
593.567	25.32
593.987	25.3
594.408	25.26
594.828	25.23
595.248	25.19
595.669	25.15
596.089	25.14
596.509	25.09
596.929	25.05
597.349	24.98
597.769	24.91
598.189	24.89
598.608	24.83
599.028	24.77
599.448	24.71
599.867	24.65
600.287	24.58
600.706	24.51
601.126	24.44
601.545	24.36
601.965	24.3
602.384	24.24
602.803	24.12
603.222	24.06
603.641	23.98
604.061	23.89
604.48	23.79
604.898	23.7
605.317	23.59
605.736	23.5
606.155	23.4
606.574	23.3
606.992	23.18
607.411	23.09
607.829	22.93
608.248	22.82
608.666	22.72
609.085	22.61
609.503	22.52
609.921	22.41
610.339	22.3
610.758	22.18
611.176	22.07
611.594	21.97
612.012	21.86
612.43	21.79
612.847	21.68
613.265	21.58
613.683	21.46
614.101	21.34
614.518	21.24
614.936	21.14
615.353	21.05
615.771	20.93
616.188	20.84
616.606	20.73
617.023	20.65
617.44	20.56
617.857	20.47
618.274	20.41
618.691	20.34
619.108	20.29
619.525	20.23
619.942	20.19
620.359	20.15
620.776	20.11
621.192	20.08
621.609	20.03
622.026	20.01
622.442	19.96
622.859	19.92
623.275	19.89
623.691	19.86
624.108	19.82
624.524	19.78
624.94	19.77
625.356	19.74
625.772	19.73
626.188	19.73
626.604	19.69
627.02	19.68
627.436	19.68
627.852	19.65
628.268	19.61
628.683	19.58
629.099	19.57
629.514	19.54
629.93	19.49
630.345	19.45
630.761	19.38
631.176	19.34
631.591	19.28
632.007	19.2
632.422	19.13
632.837	19.06
633.252	18.98
633.667	18.87
634.082	18.78
634.497	18.67
634.911	18.54
635.326	18.42
635.741	18.27
636.155	18.14
636.57	18
636.984	17.85
637.399	17.69
637.813	17.52
638.228	17.34
638.642	17.15
639.056	16.97
639.47	16.8
639.884	16.61
640.298	16.43
640.712	16.24
641.126	16.06
641.54	15.88
641.954	15.72
642.368	15.53
642.781	15.35
643.195	15.17
643.609	15
644.022	14.84
644.436	14.68
644.849	14.55
645.262	14.42
645.676	14.27
646.089	14.13
646.502	14.01
646.915	13.91
647.328	13.81
647.741	13.72
648.154	13.65
648.567	13.56
648.98	13.51
649.393	13.42
649.805	13.33
650.218	13.27
650.631	13.2
651.043	13.15
651.456	13.11
651.868	13.05
652.28	12.99
652.693	12.91
653.105	12.85
653.517	12.77
653.929	12.71
654.341	12.65
654.753	12.57
655.165	12.49
655.577	12.38
655.989	12.25
656.401	12.15
656.813	12.04
657.224	11.93
657.636	11.82
658.047	11.7
658.459	11.58
658.87	11.46
659.282	11.35
659.693	11.24
660.104	11.13
660.515	11.02
660.926	10.92
661.338	10.81
661.749	10.7
662.159	10.57
662.57	10.46
662.981	10.35
663.392	10.23
663.803	10.13
664.213	10.02
664.624	9.93
665.035	9.84
665.445	9.76
665.855	9.69
666.266	9.62
666.676	9.57
667.086	9.53
667.497	9.49
667.907	9.45
668.317	9.4
668.727	9.36
669.137	9.34
669.547	9.33
669.956	9.3
670.366	9.3
670.776	9.29
671.186	9.29
671.595	9.28
672.005	9.28
672.414	9.29
672.824	9.32
673.233	9.35
673.642	9.36
674.052	9.37
674.461	9.39
674.87	9.42
675.279	9.44
675.688	9.46
676.097	9.5
676.506	9.53
676.915	9.57
677.323	9.6
677.732	9.64
678.141	9.7
678.549	9.78
678.958	9.86
679.366	9.93
679.775	10.02
680.183	10.13
680.592	10.24
681	10.35
681.408	10.5
681.816	10.65
682.224	10.82
682.632	11.02
683.04	11.23
683.448	11.45
683.856	11.73
684.264	12
684.671	12.34
685.079	12.68
685.487	13.07
685.894	13.46
686.302	13.88
686.709	14.36
687.116	14.86
687.524	15.39
687.931	15.96
688.338	16.55
688.745	17.18
689.152	17.83
689.559	18.52
689.966	19.21
690.373	19.97
690.78	20.74
691.187	21.51
691.593	22.27
692	23.06
692.407	23.85
692.813	24.66
693.22	25.47
693.626	26.28
694.032	27.09
694.439	27.91
694.845	28.68
695.251	29.48
695.657	30.26
696.063	31.05
696.469	31.83
696.875	32.58
697.281	33.29
697.687	34.04
698.093	34.77
698.498	35.49
698.904	36.19
699.31	36.87
699.715	37.53
700.12	38.21
700.526	38.86
700.931	39.47
701.337	40.12
701.742	40.72
702.147	41.32
702.552	41.89
702.957	42.47
703.362	43.04
703.767	43.61
704.172	44.15
704.577	44.69
704.981	45.19
705.386	45.7
705.791	46.17
706.195	46.69
706.6	47.15
707.004	47.61
707.408	48.05
707.813	48.45
708.217	48.84
708.621	49.29
709.025	49.69
709.43	50.09
709.834	50.52
710.237	50.93
710.641	51.31
711.045	51.67
711.449	52.02
711.853	52.37
712.256	52.74
712.66	53.12
713.064	53.42
713.467	53.75
713.87	54.08
714.274	54.38
714.677	54.66
715.08	54.96
715.484	55.28
715.887	55.58
716.29	55.87
716.693	56.13
717.096	56.4
717.499	56.68
717.901	56.92
718.304	57.19
718.707	57.38
719.109	57.65
719.512	57.9
719.915	58.1
720.317	58.34
720.719	58.57
721.122	58.8
721.524	58.99
721.926	59.22
722.328	59.42
722.731	59.62
723.133	59.84
723.535	60.05
723.937	60.23
724.338	60.39
724.74	60.55
725.142	60.59
725.544	60.77
725.945	60.92
726.347	61.06
726.748	61.2
727.15	61.34
727.551	61.48
727.952	61.56
728.354	61.72
728.755	61.86
729.156	61.97
729.557	62.18
729.958	62.28
730.359	62.38
730.76	62.47
731.161	62.57
731.562	62.64
731.962	62.72
732.363	62.79
732.763	62.87
733.164	62.94
733.564	63.01
733.965	63.06
734.365	63.09
734.766	63.14
735.166	63.16
735.566	63.16
735.966	63.17
736.366	63.23
736.766	63.28
737.166	63.27
737.566	63.28
737.966	63.34
738.365	63.4
738.765	63.46
739.165	63.45
739.564	63.52
739.964	63.57
740.363	63.65
740.763	63.62
741.162	63.62
741.561	63.69
741.96	63.72
742.36	63.73
742.759	63.72
743.158	63.72
743.557	63.8
743.955	63.84
744.354	63.89
744.753	63.93
745.152	63.97
745.55	64.04
745.949	64.05
746.348	64.09
746.746	64.14
747.144	64.24
747.543	64.28
747.941	64.37
748.339	64.43
748.737	64.5
749.136	64.54
749.534	64.61
749.932	64.6
750.33	64.62
750.727	64.66
751.125	64.68
751.523	64.62
751.921	64.63
752.318	64.58
752.716	64.53
753.113	64.45
753.511	64.37
753.908	64.34
754.305	64.31
754.703	64.24
755.1	64.2
755.497	64.14
755.894	64.1
756.291	64.07
756.688	64.07
757.085	64.04
757.482	64.03
757.878	64.07
758.275	64.05
758.672	64.08
759.068	64.13
759.465	64.11
759.861	64.12
760.258	64.13
760.654	64.1
761.05	64.06
761.447	64.07
761.843	64.03
762.239	63.97
762.635	63.96
763.031	63.95
763.427	63.9
763.822	63.9
764.218	63.88
764.614	63.85
765.01	63.88
765.405	63.84
765.801	63.8
766.196	63.83
766.592	63.87
766.987	63.84
767.382	63.82
767.778	63.83
768.173	63.81
768.568	63.79
768.963	63.78
769.358	63.75
769.753	63.8
770.148	63.78
770.542	63.75
770.937	63.71
771.332	63.7
771.726	63.7
772.121	63.66
772.515	63.66
772.91	63.69
773.304	63.7
773.699	63.68
774.093	63.65
774.487	63.7
774.881	63.73
775.275	63.77
775.669	63.82
776.063	63.8
776.457	63.82
776.851	63.8
777.245	63.8
777.638	63.81
778.032	63.86
778.425	63.88
778.819	63.88
779.212	63.81
779.606	63.75
779.999	63.72
780.392	63.73
780.786	63.73
781.179	63.73
781.572	63.71
781.965	63.73
782.358	63.65
782.751	63.66
783.143	63.68
783.536	63.76
783.929	63.79
784.322	63.83
784.714	63.81
785.107	63.83
785.499	63.84
785.891	63.83
786.284	63.8
786.676	63.84
787.068	63.84
787.46	63.8
787.852	63.77
788.245	63.81
788.636	63.79
789.028	63.79
789.42	63.82
789.812	63.82
790.204	63.8
790.595	63.8
790.987	63.79
791.378	63.78
791.77	63.83
792.161	63.83
792.553	63.81
792.944	63.87
793.335	63.9
793.726	63.85
794.117	63.84
794.508	63.93
794.899	63.94
795.29	63.97
795.681	63.96
796.072	63.92
796.463	63.93
796.853	63.92
797.244	63.9
797.634	63.87
798.025	63.96
798.415	64
798.806	63.96
799.196	63.98
799.586	64.01
799.976	64
800.366	64.02
800.756	64.03
801.146	64.06
801.536	64.04
801.926	64.1
802.316	64.07
802.706	64.11
803.095	64.13
803.485	64.15
803.874	64.16
804.264	64.23
804.653	64.25
805.043	64.25
805.432	64.25
805.821	64.27
806.21	64.29
806.599	64.31
806.988	64.31
807.377	64.35
807.766	64.33
808.155	64.3
808.544	64.27
808.933	64.27
809.321	64.34
809.71	64.35
810.098	64.33
810.487	64.35
810.875	64.34
811.264	64.36
811.652	64.33
812.04	64.39
812.428	64.44
812.816	64.49
813.204	64.51
813.592	64.49
813.98	64.5
814.368	64.49
814.756	64.48
815.144	64.51
815.531	64.51
815.919	64.53
816.306	64.51
816.694	64.5
817.081	64.49
817.469	64.51
817.856	64.56
818.243	64.59
818.63	64.66
819.017	64.71
819.404	64.7
819.791	64.71
820.178	64.75
820.565	64.77
820.952	64.74
821.339	64.78
821.725	64.83
822.112	64.83
822.498	64.84
822.885	64.82
823.271	64.83
823.657	64.84
824.044	64.81
824.43	64.78
824.816	64.8
825.202	64.8
825.588	64.78
825.974	64.73
826.36	64.7
826.746	64.72
827.132	64.71
827.517	64.69
827.903	64.71
828.289	64.74
828.674	64.74
829.06	64.76
829.445	64.79
829.83	64.8
830.216	64.81
830.601	64.79
830.986	64.76
831.371	64.8
831.756	64.8
832.141	64.78
832.526	64.76
832.911	64.8
833.295	64.8
833.68	64.77
834.065	64.76
834.449	64.75
834.834	64.74
835.218	64.74
835.603	64.7
835.987	64.69
836.371	64.7
836.755	64.7
837.139	64.63
837.524	64.59
837.908	64.56
838.291	64.54
838.675	64.53
839.059	64.53
839.443	64.53
839.827	64.53
840.21	64.5
840.594	64.48
840.977	64.45
841.361	64.47
841.744	64.48
842.127	64.49
842.511	64.5
842.894	64.51
843.277	64.52
843.66	64.53
844.043	64.53
844.426	64.53
844.809	64.51
845.191	64.49
845.574	64.46
845.957	64.41
846.339	64.39
846.722	64.37
847.104	64.35
847.487	64.33
847.869	64.29
848.252	64.27
848.634	64.29
849.016	64.27
849.398	64.28
849.78	64.29
850.162	64.31
850.544	64.34
850.926	64.34
851.307	64.34
851.689	64.31
852.071	64.31
852.452	64.3
852.834	64.26
853.215	64.27
853.597	64.26
853.978	64.22
854.359	64.23
854.741	64.21
855.122	64.23
855.503	64.23
855.884	64.25
856.265	64.27
856.646	64.25
857.026	64.27
857.407	64.24
857.788	64.26
858.169	64.3
858.549	64.32
858.93	64.32
859.31	64.29
859.69	64.26
860.071	64.25
860.451	64.25
860.831	64.26
861.211	64.24
861.591	64.28
861.971	64.26
862.351	64.24
862.731	64.23
863.111	64.19
863.491	64.22
863.87	64.23
864.25	64.24
864.629	64.22
865.009	64.25
865.388	64.24
865.768	64.19
866.147	64.18
866.526	64.16
866.905	64.15
867.284	64.2
867.663	64.21
868.042	64.2
868.421	64.16
868.8	64.18
869.179	64.16
869.558	64.17
869.936	64.18
870.315	64.18
870.693	64.19
871.072	64.17
871.45	64.13
871.828	64.09
872.207	64.14
872.585	64.16
872.963	64.13
873.341	64.13
873.719	64.16
874.097	64.13
874.475	64.14
874.853	64.14
875.23	64.15
875.608	64.17
875.986	64.17
876.363	64.16
876.741	64.14
877.118	64.13
877.495	64.14
877.873	64.09
878.25	64.1
878.627	64.13
879.004	64.17
879.381	64.19
879.758	64.18
880.135	64.19
880.512	64.22
880.889	64.23
881.265	64.26
881.642	64.27
882.019	64.28
882.395	64.28
882.772	64.27
883.148	64.25
883.524	64.24
883.901	64.21
884.277	64.2
884.653	64.21
885.029	64.17
885.405	64.15
885.781	64.13
886.157	64.15
886.532	64.16
886.908	64.16
887.284	64.19
887.659	64.2
888.035	64.21
888.411	64.18
888.786	64.14
889.161	64.18
889.537	64.21
889.912	64.15
890.287	64.11
890.662	64.08
891.037	63.99
891.412	63.9
891.787	63.87
892.162	63.85
892.536	63.85
892.911	63.83
893.286	63.75
893.66	63.7
894.035	63.69
894.409	63.69
894.784	63.69
895.158	63.71
895.532	63.71
895.906	63.69
896.281	63.63
896.655	63.59
897.029	63.57
897.402	63.59
897.776	63.58
898.15	63.57
898.524	63.52
898.898	63.45
899.271	63.43
899.645	63.43
900.018	63.4
900.392	63.42
900.765	63.43
901.138	63.45
901.511	63.42
901.884	63.44
902.258	63.46
902.631	63.48
903.003	63.51
903.376	63.48
903.749	63.5
904.122	63.53
904.495	63.55
904.867	63.54
905.24	63.5
905.612	63.47
905.985	63.41
906.357	63.36
906.729	63.35
907.102	63.36
907.474	63.34
907.846	63.32
908.218	63.27
908.59	63.19
908.962	63.18
909.334	63.15
909.705	63.15
910.077	63.13
910.449	63.16
910.82	63.15
911.192	63.09
911.563	63.1
911.935	63.09
912.306	63.1
912.677	63.13
913.048	63.12
913.419	63.07
913.79	63.08
914.161	63.08
914.532	63.03
914.903	63.04
915.274	63.03
915.645	63.05
916.015	63.06
916.386	63.05
916.756	63.02
917.127	63
917.497	63.04
917.868	63.04
918.238	63.05
918.608	63.06
918.978	63
919.348	62.95
919.718	62.93
920.088	62.9
920.458	62.93
920.828	62.94
921.198	62.96
921.567	62.94
921.937	62.93
922.306	62.93
922.676	62.93
923.045	62.9
923.415	62.93
923.784	62.92
924.153	62.94
924.522	62.88
924.891	62.88
925.26	62.82
925.629	62.83
925.998	62.81
926.367	62.79
926.736	62.75
927.104	62.8
927.473	62.8
927.842	62.76
928.21	62.73
928.578	62.71
928.947	62.65
929.315	62.65
929.683	62.63
930.051	62.63
930.42	62.56
930.788	62.58
931.156	62.49
931.523	62.46
931.891	62.35
932.259	62.27
932.627	62.17
932.994	62.12
933.362	61.99
933.729	61.86
934.097	61.75
934.464	61.65
934.831	61.47
935.199	61.43
935.566	61.3
935.933	61.27
936.3	61.11
936.667	61.01
937.034	60.86
937.401	60.81
937.767	60.76
938.134	60.66
938.501	60.58
938.867	60.62
939.234	60.59
939.6	60.59
939.967	60.61
940.333	60.81
940.699	60.95
941.065	61.12
941.431	61.25
941.798	61.32
942.163	61.5
942.529	61.68
942.895	61.78
943.261	61.9
943.627	62.07
943.992	62.13
944.358	62.22
944.723	62.25
945.089	62.34
945.454	62.41
945.82	62.45
946.185	62.54
946.55	62.62
946.915	62.68
947.28	62.64
947.645	62.62
948.01	62.71
948.375	62.7
948.74	62.64
949.104	62.62
949.469	62.52
949.834	62.53
950.198	62.42
950.562	62.33
950.927	62.25
951.291	62.23
951.655	62.14
952.02	62.1
952.384	62.09
952.748	62.11
953.112	61.95
953.476	62.02
953.839	61.96
954.203	61.88
954.567	61.92
954.931	62.01
955.294	61.92
955.658	61.91
956.021	61.79
956.385	61.76
956.748	61.72
957.111	61.77
957.474	61.72
957.837	61.73
958.2	61.73
958.563	61.61
958.926	61.46
959.289	61.52
959.652	61.5
960.015	61.54
960.377	61.44
960.74	61.39
961.102	61.36
961.465	61.28
961.827	61.09
962.189	61.06
962.552	60.97
962.914	60.89
963.276	60.77
963.638	60.68
964	60.62
964.362	60.59
964.724	60.53
965.085	60.48
965.447	60.41
965.809	60.41
966.17	60.45
966.532	60.49
966.893	60.52
967.255	60.49
967.616	60.5
967.977	60.44
968.338	60.39
968.699	60.34
969.061	60.35
969.421	60.36
969.782	60.43
970.143	60.3
970.504	60.26
970.865	60.14
971.225	60.15
971.586	60.24
971.946	60.21
972.307	60.22
972.667	60.29
973.027	60.28
973.388	60.29
973.748	60.23
974.108	60.25
974.468	60.28
974.828	60.37
975.188	60.48
975.548	60.37
975.907	60.41
976.267	60.35
976.627	60.29
976.986	60.21
977.346	60.18
977.705	60.24
978.064	60.24
978.424	60.23
978.783	60.18
979.142	60.12
979.501	60.03
979.86	60.02
980.219	60.01
980.578	59.96
980.937	60.01
981.296	60.05
981.654	59.97
982.013	60.06
982.371	60.05
982.73	60.01
983.088	59.87
983.447	60.08
983.805	60
984.163	60.1
984.521	60.13
984.879	60.04
985.237	60.13
985.595	60.17
985.953	60.09
986.311	60.16
986.669	60.23
987.026	60.32
987.384	60.16
987.741	60.25
988.099	60.15
988.456	60.2
988.814	60.25
989.171	60.11
989.528	60.12
989.885	60.08
990.242	59.88
990.599	59.85
990.956	59.84
991.313	59.88
991.67	59.88
992.027	59.8
992.383	59.68
992.74	59.66
993.096	59.65
993.453	59.5
993.809	59.56
994.165	59.68
994.522	59.63
994.878	59.49
995.234	59.44
995.59	59.41
995.946	59.53
996.302	59.51
996.658	59.58
997.013	59.58
997.369	59.71
997.725	59.65
998.08	59.58
998.436	59.72
998.791	59.8
999.147	59.78
999.502	59.67
999.857	59.72
1000.212	59.77
1000.567	59.92
1000.922	59.92
1001.277	59.76
1001.632	59.84
1001.987	59.95
1002.342	59.85
1002.696	59.97
1003.051	59.99
1003.406	59.96
1003.76	59.98
1004.114	60.11
1004.469	59.88
1004.823	59.89
1005.177	60.24
1005.531	60.05
1005.885	59.97
1006.239	59.9
1006.593	59.72
1006.947	59.44
1007.301	59.63
1007.655	59.62
1008.008	59.33
1008.362	59.4
1008.715	59.3
1009.069	58.96
1009.422	58.83
1009.776	58.69
1010.129	58.56
1010.482	58.6
1010.835	58.85
1011.188	58.69
1011.541	58.41
1011.894	58.44
1012.247	58.43
1012.6	58.51
1012.952	58.43
1013.305	58.56
1013.657	58.54
1014.01	58.79
1014.362	58.75
1014.715	58.55
1015.067	58.78
1015.419	58.97
1015.771	59.35
1016.123	59.04
1016.475	59.06
1016.827	59.26
1017.179	59.11
1017.531	59.19
1017.883	59.12
1018.234	59.08
1018.586	59.01
1018.938	58.71
1019.289	58.5
1019.64	58.4
1019.992	58.72
1020.343	58.57
1020.694	58.13
1021.045	58.44
1021.396	58.46
1021.747	58.51
1022.098	58.68
1022.449	58.8
1022.8	58.47
1023.151	58.57
1023.501	58.15
1023.852	58.11
1024.202	58.11
1024.553	58.11
1024.903	57.58
1025.253	57.55
1025.604	57.63
1025.954	57.16
1026.304	57.82
1026.654	58.24
1027.004	58.36
1027.354	58.86
1027.703	58.68
1028.053	58.4
1028.403	58.1
1028.753	58.77
1029.102	58.72
1029.452	58.51
1029.801	58.75
1030.15	58.1
1030.499	58.08
897.758	157.62
901.051	157.48
904.343	162.7
907.636	157.84
910.928	159.51
914.22	161.59
917.511	153.33
920.803	152.25
924.094	144.29
927.384	145.62
930.675	140.99
933.965	138.73
937.255	140.54
940.544	131.9
943.834	131.49
947.123	126.98
950.411	123.68
953.7	125.77
956.988	120.78
960.276	119.21
963.563	121.5
966.851	118.06
970.138	116.25
973.424	110.53
976.711	111.05
979.997	109.65
983.283	106.2
986.568	103.25
989.853	101.73
993.138	99.6
996.423	101.09
999.708	98.35
1002.992	98.28
1006.275	97.58
1009.559	97.01
1012.842	95.46
1016.125	90.95
1019.408	91.92
1022.69	92.89
1025.972	92.4
1029.254	91.46
1032.536	89.22
1035.817	87.33
1039.098	87.38
1042.379	86.67
1045.659	86.99
1048.939	85.07
1052.219	86.94
1055.498	85.54
1058.778	83.74
1062.057	82.56
1065.335	82.79
1068.614	82.74
1071.892	82
1075.17	81.45
1078.447	80.85
1081.724	79.74
1085.001	78.61
1088.278	78.71
1091.554	79.23
1094.83	78.64
1098.106	78.74
1101.382	77.63
1104.657	77.2
1107.932	76.77
1111.206	76.56
1114.481	76.48
1117.755	75.36
1121.029	76.25
1124.302	74.69
1127.575	74.28
1130.848	74.05
1134.121	72.93
1137.393	73.58
1140.665	73.17
1143.937	72.71
1147.208	71.92
1150.48	71.08
1153.75	71.26
1157.021	70.32
1160.291	70.25
1163.561	69.48
1166.831	70.3
1170.101	70.68
1173.37	69.37
1176.639	68.77
1179.907	68.19
1183.176	67.79
1186.444	67.77
1189.711	68.11
1192.979	69.06
1196.246	68.9
1199.513	68.74
1202.78	67.23
1206.046	67.53
1209.312	67.8
1212.578	68.14
1215.843	69.85
1219.108	69.48
1222.373	70.27
1225.638	70.57
1228.902	71.28
1232.166	71.59
1235.43	72.54
1238.693	74.43
1241.956	74.32
1245.219	75.84
1248.482	76.39
1251.744	75.48
1255.006	76.61
1258.268	74.14
1261.529	74.37
1264.79	73.61
1268.051	73.72
1271.312	73.35
1274.572	72.23
1277.832	71.69
1281.092	72.19
1284.351	71
1287.61	70.64
1290.869	70.89
1294.128	71.48
1297.386	71.31
1300.644	70.58
1303.902	69.38
1307.159	68.72
1310.416	69.17
1313.673	69.7
1316.93	68.35
1320.186	69.11
1323.442	69.86
1326.697	68.77
1329.953	69.62
1333.208	69.86
1336.463	71.53
1339.717	72.94
1342.972	74.35
1346.226	74.42
1349.479	73.47
1352.733	75.27
1355.986	74.85
1359.238	75.76
1362.491	75.92
1365.743	75.76
1368.995	78.32
1372.247	74.3
1375.498	73.51
1378.749	73.89
1382	73.54
1385.251	72.86
1388.501	72.49
1391.751	73.51
1395	71.06
1398.25	72.5
1401.499	71.6
1404.748	67.12
1407.996	69.2
1411.244	69.14
1414.492	67.07
1417.74	65.08
1420.987	64.97
1424.234	63.43
1427.481	59.7
1430.728	59.1
1433.974	56.96
1437.22	57.11
1440.465	54.92
1443.711	53.35
1446.956	52.42
1450.201	51.03
1453.445	49.73
1456.689	48.31
1459.933	47.34
1463.177	46.17
1466.42	45.9
1469.663	45.13
1472.906	43.22
1476.148	42.14
1479.391	42.21
1482.633	41.66
1485.874	42.16
1489.115	42.13
1492.356	42.16
1495.597	41.75
1498.838	43.21
1502.078	42.94
1505.318	43.03
1508.557	42.65
1511.797	44.18
1515.036	43.73
1518.274	44.09
1521.513	44.82
1524.751	44.39
1527.989	44.85
1531.227	45.51
1534.464	45.26
1537.701	45.4
1540.938	45.3
1544.174	45.62
1547.41	46.21
1550.646	47.06
1553.882	47.07
1557.117	46.56
1560.352	46.94
1563.587	47
1566.821	47.22
1570.055	47.26
1573.289	47.69
1576.523	47.66
1579.756	48.5
1582.989	48.21
1586.222	47.88
1589.454	48.37
1592.686	48.58
1595.918	48.68
1599.15	48.64
1602.381	48.65
1605.612	49.39
1608.843	48.88
1612.073	49.55
1615.303	49.32
1618.533	49.22
1621.762	48.87
1624.992	48.98
1628.221	48.82
1631.449	48.9
1634.678	49.75
1637.906	49.36
1641.134	49.1
1644.361	49.5
1647.588	49.23
1650.815	49.57
1654.042	49.84
1657.269	49.96
1660.495	50.06
1663.72	50.25
1666.946	50.6
1670.171	50.22
1673.396	50.81
1676.621	50.77
1679.845	51.16
1683.069	50.8
1686.293	50.74
1689.517	50.43
1692.74	51.02
1695.963	50.55
1699.185	50.9
1702.408	50.15
1705.63	50.15
1708.852	50.08
1712.073	50.41
1715.294	50.04
1718.515	50.66
1721.736	50.13
1724.956	50.49
1728.176	50.14
1731.396	50.72
1734.616	50.23
1737.835	50.72
1741.054	50.66
1744.272	50.52
1747.491	49.93
1750.709	50.36
1753.927	50.15
1757.144	50.29
1760.361	49.73
1763.578	49.57
1766.795	49.31
1770.011	49.21
1773.227	49.37
1776.443	49.21
1779.658	48.57
1782.874	49.65
1786.089	48.26
1789.303	48.49
1792.518	49.06
1795.732	49.43
1798.945	50.05
1802.159	49.97
1805.372	50.12
1808.585	50.41
1811.797	50.12
1815.01	51.15
1818.222	50.09
1821.434	51.75
1824.645	50.98
1827.856	50.85
1831.067	50.46
1834.278	50.77
1837.488	51.01
1840.698	51.4
1843.908	51.11
1847.117	51.19
1850.326	50.87
1853.535	51.64
1856.744	50.16
1859.952	50.71
1863.16	49.76
1866.368	49.4
1869.575	48.6
1872.782	47.47
1875.989	45.16
1879.196	44.53
1882.402	43.75
1885.608	43.3
1888.814	41.16
1892.019	40.91
1895.224	39.48
1898.429	39.17
1901.634	38.7
1904.838	37.6
1908.042	37.36
1911.246	37.27
1914.449	37.02
1917.652	36.08
1920.855	35.53
1924.058	35.38
1927.26	34
1930.462	35.56
1933.664	34.66
1936.865	36.01
1940.066	34.96
1943.267	34.45
1946.467	35.41
1949.668	35.05
1952.868	35.53
1956.067	35.6
1959.267	36.47
1962.466	36.85
1965.665	35.74
1968.863	37.46
1972.061	36.18
1975.259	38.3
1978.457	38.44
1981.654	37.9
1984.852	38.87
1988.048	39.76
1991.245	40.28
1994.441	40.79
1997.637	41.56
2000.833	43.72
2004.028	42.95
2007.223	44.43
2010.418	45.05
2013.613	47.31
2016.807	49.62
2020.001	50.94
2023.194	52.25
2026.388	53.49
2029.581	55.98
2032.774	57.7
2035.966	58.43
2039.158	60.87
2042.35	60.6
2045.542	62.32
2048.733	63.51
2051.924	62.78
2055.115	61.63
2058.306	61.84
2061.496	61.02
2064.686	61.05
2067.875	61.33
2071.065	62.87
2074.254	61.8
2077.442	65
2080.631	63.9
2083.819	65.13
2087.007	68.34
2090.195	70.68
2093.382	69.63
2096.569	72.23
2099.756	72
2102.942	73.62
2106.128	74.1
2109.314	77.1
2112.5	76.6
2115.685	73.86
2118.87	74.22
2122.055	74.17
2125.239	73.21
2128.424	77.8
2131.608	74.87
2134.791	75.42
2137.974	76.14
2141.157	76.73
2144.34	75.74
2147.523	78.84
2150.705	82.91
2153.887	82.14
2157.068	82.83
2160.25	84.56
2163.431	83.72
2166.611	87.15
2169.792	88.9
2172.972	89.67
2176.152	89.31
2179.331	90.29
2182.511	88.46
2185.69	90.88
2188.868	90.6
2192.047	95.34
2195.225	97.69
2198.403	94.92
2201.58	97.21
2204.758	98.01
2207.935	96.1
2211.111	96.51
2214.288	98.06
2217.464	100.72
2220.64	99.73
2223.815	101
2226.991	96.56
2230.166	98.11
2233.34	102.82
2236.515	99.09
2239.689	99.85
2242.863	101.98
2246.036	102.32
2249.209	100.02
2252.382	97.67
2255.555	101.33
2258.727	103.53
2261.9	104.17
2265.071	102.04
2268.243	101.27
2271.414	108.25
2274.585	108.9
2277.756	112.4
2280.926	110.97
2284.096	115.74
2287.266	118.69
2290.436	119.77
2293.605	120.9
2296.774	122.9
2299.942	124.44
2303.111	133.7
2306.279	132.58
2309.447	134.33
2312.614	132.44
2315.781	137.1
2318.948	137.65
2322.115	137.39
2325.281	136.81
2328.447	139.81
2331.613	144.39
2334.779	147.35
2337.944	138.32
2341.109	141.2
2344.274	140.95
2347.438	145.65
2350.602	147.99
2353.766	154.23
2356.929	155.31
2360.092	161.94
2363.255	160.4
2366.418	163.14
2369.58	166.28
2372.742	173.25
2375.904	174.21
2379.066	176.36
2382.227	183.89
2385.388	182.86
2388.548	184.43
2391.709	184.99
2394.869	180.77
2398.029	188.6
2401.188	179.68
2404.347	181.84
2407.506	186.28
2410.665	177.16
2413.823	185.33
2416.981	184.88
2420.139	183.85
2423.296	189.68
2426.453	193.34
2429.61	193.34
2432.767	195.07
2435.923	214.32
2439.079	210.34
2442.235	211.3
2445.391	223.72
2448.546	216.33
2451.701	224.17
2454.855	230.13
2458.009	214.4
2461.163	219.83
2464.317	221.38
2467.471	216.73
2470.624	216.12
2473.777	209.63
2476.929	211.81
2480.082	212.76
2483.234	223.45
2486.385	230.29
2489.537	240.07
2492.688	249.28
2495.839	240.41
2498.989	253.03
2502.14	249.75
2505.29	249.55
2508.439	259.61
2511.589	257.73
2514.738	257.02
2517.887	251.87
2521.035	235.44
2524.183	235.93
2527.331	239.19
2530.479	242.78
2533.627	236.65
