Data from C_2_dec_ct_2n_074_Splice17_06.txt Node
Date: Sat Feb 29 14:22:09 EST 2020
User: sa697716
Spectrometer: FLMS03696
Trigger mode: 0
Integration Time (sec): 3.180400E-1
Scans to average: 20
Electric dark correction enabled: true
Nonlinearity correction enabled: true
Boxcar width: 5
XAxis mode: Wavelengths
Number of Pixels in Spectrum: 2048
>>>>>Begin Spectral Data<<<<<
187.83	53.07
188.298	52.94
188.766	50.9
189.233	61.01
189.701	68.78
190.169	58.26
190.636	61.29
191.104	18.5
191.571	-28.28
192.039	-20.81
192.506	668.94
192.974	12493.89
193.441	-1048.38
193.908	175.96
194.375	326.69
194.842	256.74
195.31	97.14
195.777	96.07
196.244	24.63
196.711	42.99
197.177	42.23
197.644	42.85
198.111	43.07
198.578	44.77
199.045	44.57
199.511	44.83
199.978	46.12
200.445	45.96
200.911	45.81
201.378	46.07
201.844	46.13
202.31	46.38
202.777	46.55
203.243	47.41
203.709	47.54
204.176	47.83
204.642	48.09
205.108	47.9
205.574	48.23
206.04	48.61
206.506	48.87
206.972	49.19
207.438	49.26
207.903	49.38
208.369	48.65
208.835	48.05
209.301	47.73
209.766	47.29
210.232	47.45
210.697	47.24
211.163	46.57
211.628	46.14
212.094	45.68
212.559	45.04
213.024	44.66
213.49	43.89
213.955	43.71
214.42	43.19
214.885	42.51
215.35	41.45
215.815	40.37
216.28	39.45
216.745	38.35
217.21	37.04
217.675	35.71
218.14	34.27
218.604	33.16
219.069	32.11
219.534	31.1
219.998	30.26
220.463	29.59
220.927	28.97
221.392	28.37
221.856	27.8
222.32	27.23
222.785	26.82
223.249	26.42
223.713	26.09
224.177	25.65
224.642	25.32
225.106	25.01
225.57	24.67
226.034	24.33
226.497	24
226.961	23.68
227.425	23.36
227.889	23.04
228.353	22.74
228.816	22.43
229.28	22.14
229.744	21.88
230.207	21.59
230.671	21.29
231.134	21.01
231.597	20.74
232.061	20.48
232.524	20.25
232.987	19.99
233.45	19.73
233.914	19.47
234.377	19.24
234.84	19.01
235.303	18.81
235.766	18.58
236.229	18.39
236.691	18.21
237.154	18.01
237.617	17.81
238.08	17.63
238.542	17.46
239.005	17.3
239.468	17.12
239.93	16.95
240.393	16.78
240.855	16.63
241.317	16.47
241.78	16.3
242.242	16.15
242.704	16.01
243.166	15.86
243.629	15.7
244.091	15.56
244.553	15.43
245.015	15.31
245.477	15.17
245.939	15.03
246.4	14.9
246.862	14.77
247.324	14.66
247.786	14.56
248.247	14.44
248.709	14.33
249.17	14.23
249.632	14.11
250.093	13.97
250.555	13.87
251.016	13.78
251.477	13.69
251.939	13.59
252.4	13.49
252.861	13.4
253.322	13.32
253.783	13.25
254.244	13.17
254.705	13.09
255.166	13.05
255.627	12.97
256.088	12.89
256.549	12.83
257.009	12.77
257.47	12.71
257.931	12.64
258.391	12.56
258.852	12.48
259.312	12.42
259.773	12.34
260.233	12.27
260.694	12.2
261.154	12.12
261.614	12.04
262.074	11.98
262.534	11.9
262.994	11.83
263.455	11.76
263.915	11.7
264.374	11.64
264.834	11.59
265.294	11.53
265.754	11.47
266.214	11.42
266.673	11.38
267.133	11.32
267.593	11.28
268.052	11.22
268.512	11.18
268.971	11.14
269.431	11.1
269.89	11.05
270.349	11.01
270.809	10.98
271.268	10.95
271.727	10.92
272.186	10.87
272.645	10.82
273.104	10.79
273.563	10.76
274.022	10.71
274.481	10.66
274.94	10.62
275.399	10.57
275.857	10.51
276.316	10.46
276.775	10.39
277.233	10.35
277.692	10.31
278.15	10.25
278.609	10.2
279.067	10.15
279.525	10.1
279.984	10.06
280.442	10.02
280.9	9.98
281.358	9.94
281.816	9.91
282.274	9.87
282.732	9.84
283.19	9.81
283.648	9.79
284.106	9.76
284.564	9.75
285.021	9.74
285.479	9.71
285.937	9.7
286.394	9.69
286.852	9.68
287.309	9.67
287.767	9.65
288.224	9.63
288.682	9.6
289.139	9.58
289.596	9.54
290.053	9.49
290.511	9.45
290.968	9.4
291.425	9.35
291.882	9.31
292.339	9.26
292.796	9.22
293.252	9.17
293.709	9.14
294.166	9.1
294.623	9.07
295.079	9.05
295.536	9.02
295.992	9
296.449	8.98
296.905	8.93
297.362	8.9
297.818	8.87
298.274	8.85
298.731	8.82
299.187	8.78
299.643	8.76
300.099	8.73
300.555	8.7
301.011	8.67
301.467	8.64
301.923	8.63
302.379	8.6
302.835	8.58
303.291	8.55
303.746	8.53
304.202	8.51
304.658	8.48
305.113	8.45
305.569	8.44
306.024	8.41
306.479	8.39
306.935	8.38
307.39	8.38
307.845	8.36
308.301	8.36
308.756	8.35
309.211	8.35
309.666	8.34
310.121	8.34
310.576	8.32
311.031	8.31
311.486	8.31
311.94	8.29
312.395	8.29
312.85	8.28
313.305	8.27
313.759	8.25
314.214	8.23
314.668	8.23
315.123	8.22
315.577	8.22
316.032	8.21
316.486	8.19
316.94	8.18
317.394	8.15
317.849	8.14
318.303	8.12
318.757	8.1
319.211	8.08
319.665	8.05
320.119	8.02
320.572	8.01
321.026	7.99
321.48	7.97
321.934	7.95
322.387	7.93
322.841	7.91
323.295	7.89
323.748	7.88
324.202	7.87
324.655	7.85
325.108	7.82
325.562	7.8
326.015	7.77
326.468	7.76
326.921	7.74
327.374	7.72
327.827	7.71
328.28	7.7
328.733	7.67
329.186	7.65
329.639	7.63
330.092	7.62
330.545	7.61
330.997	7.61
331.45	7.6
331.903	7.59
332.355	7.58
332.808	7.57
333.26	7.56
333.713	7.57
334.165	7.56
334.617	7.58
335.069	7.58
335.522	7.58
335.974	7.58
336.426	7.58
336.878	7.57
337.33	7.58
337.782	7.59
338.234	7.57
338.686	7.56
339.137	7.57
339.589	7.56
340.041	7.55
340.493	7.53
340.944	7.52
341.396	7.5
341.847	7.49
342.299	7.45
342.75	7.42
343.201	7.4
343.653	7.38
344.104	7.34
344.555	7.31
345.006	7.28
345.457	7.25
345.908	7.23
346.359	7.21
346.81	7.2
347.261	7.19
347.712	7.19
348.163	7.17
348.613	7.16
349.064	7.14
349.515	7.13
349.965	7.12
350.416	7.12
350.866	7.12
351.317	7.11
351.767	7.11
352.217	7.11
352.668	7.1
353.118	7.11
353.568	7.12
354.018	7.13
354.468	7.13
354.918	7.14
355.368	7.13
355.818	7.13
356.268	7.13
356.718	7.13
357.168	7.12
357.617	7.12
358.067	7.1
358.517	7.09
358.966	7.09
359.416	7.09
359.865	7.08
360.315	7.08
360.764	7.07
361.213	7.07
361.663	7.06
362.112	7.06
362.561	7.05
363.01	7.05
363.459	7.05
363.908	7.03
364.357	7.02
364.806	7.01
365.255	7
365.703	6.99
366.152	6.98
366.601	6.98
367.05	6.97
367.498	6.97
367.947	6.97
368.395	6.97
368.844	6.96
369.292	6.97
369.74	6.97
370.189	6.97
370.637	6.97
371.085	6.98
371.533	6.98
371.981	6.98
372.429	6.97
372.877	6.97
373.325	6.96
373.773	6.97
374.221	6.97
374.669	6.97
375.116	6.96
375.564	6.95
376.012	6.94
376.459	6.95
376.907	6.95
377.354	6.95
377.801	6.96
378.249	6.96
378.696	6.97
379.143	6.96
379.591	6.97
380.038	6.99
380.485	7.02
380.932	7.04
381.379	7.03
381.826	7.05
382.273	7.06
382.72	7.07
383.166	7.08
383.613	7.11
384.06	7.13
384.506	7.14
384.953	7.15
385.4	7.16
385.846	7.16
386.292	7.2
386.739	7.23
387.185	7.26
387.631	7.3
388.078	7.33
388.524	7.35
388.97	7.37
389.416	7.38
389.862	7.4
390.308	7.43
390.754	7.47
391.2	7.49
391.645	7.52
392.091	7.54
392.537	7.57
392.983	7.61
393.428	7.65
393.874	7.71
394.319	7.76
394.765	7.8
395.21	7.82
395.655	7.85
396.101	7.9
396.546	7.93
396.991	7.96
397.436	7.98
397.881	8.01
398.326	8.04
398.771	8.08
399.216	8.12
399.661	8.17
400.106	8.23
400.551	8.27
400.995	8.29
401.44	8.29
401.885	8.31
402.329	8.34
402.774	8.35
403.218	8.37
403.663	8.39
404.107	8.41
404.551	8.41
404.995	8.42
405.44	8.42
405.884	8.44
406.328	8.47
406.772	8.51
407.216	8.54
407.66	8.57
408.104	8.59
408.547	8.6
408.991	8.59
409.435	8.61
409.879	8.62
410.322	8.64
410.766	8.66
411.209	8.67
411.653	8.65
412.096	8.65
412.54	8.66
412.983	8.66
413.426	8.68
413.869	8.7
414.312	8.73
414.756	8.76
415.199	8.8
415.642	8.84
416.085	8.87
416.527	8.91
416.97	8.94
417.413	8.95
417.856	8.95
418.298	8.93
418.741	8.94
419.184	8.92
419.626	8.91
420.069	8.89
420.511	8.87
420.953	8.85
421.396	8.85
421.838	8.84
422.28	8.86
422.722	8.89
423.164	8.9
423.606	8.93
424.048	8.91
424.49	8.93
424.932	8.94
425.374	8.96
425.816	8.95
426.258	8.92
426.699	8.89
427.141	8.84
427.582	8.82
428.024	8.82
428.465	8.81
428.907	8.84
429.348	8.84
429.789	8.84
430.231	8.82
430.672	8.83
431.113	8.88
431.554	8.91
431.995	8.94
432.436	8.95
432.877	8.96
433.318	8.96
433.759	8.95
434.2	8.96
434.64	8.97
435.081	8.99
435.522	9.02
435.962	9.04
436.403	9.06
436.843	9.09
437.284	9.11
437.724	9.16
438.164	9.18
438.604	9.22
439.045	9.23
439.485	9.25
439.925	9.28
440.365	9.28
440.805	9.28
441.245	9.28
441.685	9.31
442.125	9.33
442.564	9.35
443.004	9.38
443.444	9.42
443.883	9.46
444.323	9.5
444.762	9.56
445.202	9.64
445.641	9.69
446.081	9.78
446.52	9.83
446.959	9.91
447.398	9.98
447.837	10.04
448.276	10.08
448.716	10.13
449.154	10.19
449.593	10.25
450.032	10.28
450.471	10.33
450.91	10.34
451.349	10.38
451.787	10.4
452.226	10.41
452.664	10.43
453.103	10.44
453.541	10.47
453.98	10.47
454.418	10.46
454.856	10.45
455.295	10.43
455.733	10.43
456.171	10.42
456.609	10.41
457.047	10.39
457.485	10.39
457.923	10.37
458.361	10.34
458.798	10.35
459.236	10.34
459.674	10.35
460.111	10.35
460.549	10.34
460.987	10.34
461.424	10.33
461.862	10.34
462.299	10.33
462.736	10.33
463.173	10.33
463.611	10.3
464.048	10.31
464.485	10.29
464.922	10.29
465.359	10.28
465.796	10.25
466.233	10.26
466.67	10.25
467.106	10.23
467.543	10.24
467.98	10.27
468.416	10.31
468.853	10.31
469.29	10.34
469.726	10.35
470.162	10.35
470.599	10.39
471.035	10.4
471.471	10.4
471.907	10.43
472.344	10.43
472.78	10.42
473.216	10.39
473.652	10.39
474.088	10.41
474.523	10.41
474.959	10.44
475.395	10.43
475.831	10.44
476.266	10.46
476.702	10.47
477.138	10.48
477.573	10.47
478.008	10.47
478.444	10.48
478.879	10.46
479.314	10.46
479.75	10.45
480.185	10.47
480.62	10.48
481.055	10.48
481.49	10.46
481.925	10.46
482.36	10.45
482.795	10.45
483.229	10.46
483.664	10.45
484.099	10.46
484.534	10.48
484.968	10.49
485.403	10.49
485.837	10.49
486.271	10.51
486.706	10.54
487.14	10.6
487.574	10.63
488.009	10.67
488.443	10.72
488.877	10.77
489.311	10.81
489.745	10.86
490.179	10.91
490.613	10.98
491.046	11.06
491.48	11.13
491.914	11.19
492.348	11.28
492.781	11.35
493.215	11.43
493.648	11.53
494.082	11.62
494.515	11.74
494.948	11.87
495.382	11.99
495.815	12.11
496.248	12.25
496.681	12.39
497.114	12.54
497.547	12.69
497.98	12.87
498.413	13.03
498.846	13.21
499.279	13.39
499.711	13.56
500.144	13.75
500.577	13.96
501.009	14.16
501.442	14.39
501.874	14.62
502.306	14.86
502.739	15.1
503.171	15.36
503.603	15.64
504.036	15.92
504.468	16.23
504.9	16.54
505.332	16.86
505.764	17.19
506.196	17.52
506.627	17.87
507.059	18.24
507.491	18.61
507.923	18.98
508.354	19.36
508.786	19.74
509.217	20.12
509.649	20.54
510.08	20.97
510.512	21.38
510.943	21.81
511.374	22.26
511.805	22.7
512.237	23.15
512.668	23.59
513.099	24.06
513.53	24.54
513.961	25.02
514.391	25.49
514.822	25.95
515.253	26.43
515.684	26.89
516.114	27.35
516.545	27.83
516.975	28.32
517.406	28.8
517.836	29.26
518.267	29.72
518.697	30.19
519.127	30.66
519.558	31.14
519.988	31.6
520.418	32.06
520.848	32.52
521.278	32.96
521.708	33.33
522.138	33.73
522.567	34.14
522.997	34.53
523.427	34.91
523.857	35.27
524.286	35.62
524.716	35.97
525.145	36.31
525.575	36.61
526.004	36.93
526.433	37.29
526.863	37.61
527.292	37.91
527.721	38.2
528.15	38.47
528.579	38.75
529.008	39
529.437	39.24
529.866	39.46
530.295	39.68
530.724	39.91
531.152	40.11
531.581	40.3
532.01	40.45
532.438	40.6
532.867	40.75
533.295	40.88
533.723	41.01
534.152	41.13
534.58	41.26
535.008	41.36
535.436	41.44
535.865	41.54
536.293	41.63
536.721	41.73
537.149	41.82
537.576	41.88
538.004	41.97
538.432	42.02
538.86	42.1
539.287	42.15
539.715	42.22
540.143	42.27
540.57	42.31
540.998	42.37
541.425	42.42
541.852	42.46
542.28	42.49
542.707	42.53
543.134	42.57
543.561	42.58
543.988	42.62
544.415	42.65
544.842	42.69
545.269	42.75
545.696	42.76
546.123	42.79
546.549	42.82
546.976	42.91
547.403	42.92
547.829	42.95
548.256	42.99
548.682	43.02
549.108	43.05
549.535	43.09
549.961	43.09
550.387	43.11
550.813	43.09
551.24	43.1
551.666	43.09
552.092	43.1
552.518	43.1
552.943	43.1
553.369	43.07
553.795	43.03
554.221	42.98
554.646	42.96
555.072	42.92
555.498	42.88
555.923	42.84
556.349	42.76
556.774	42.68
557.199	42.61
557.625	42.52
558.05	42.42
558.475	42.32
558.9	42.24
559.325	42.12
559.75	42.02
560.175	41.89
560.6	41.75
561.025	41.63
561.449	41.48
561.874	41.34
562.299	41.19
562.723	41.06
563.148	40.89
563.572	40.72
563.997	40.55
564.421	40.33
564.846	40.15
565.27	39.95
565.694	39.72
566.118	39.51
566.542	39.28
566.966	39.05
567.39	38.78
567.814	38.54
568.238	38.28
568.662	38.03
569.086	37.79
569.509	37.55
569.933	37.27
570.357	37.02
570.78	36.75
571.204	36.51
571.627	36.26
572.05	36.05
572.474	35.82
572.897	35.6
573.32	35.38
573.743	35.16
574.166	34.92
574.589	34.73
575.012	34.52
575.435	34.33
575.858	34.15
576.281	33.97
576.704	33.79
577.126	33.61
577.549	33.47
577.972	33.31
578.394	33.16
578.817	33.01
579.239	32.88
579.661	32.75
580.084	32.63
580.506	32.49
580.928	32.37
581.35	32.25
581.772	32.15
582.194	32.01
582.616	31.89
583.038	31.78
583.46	31.69
583.882	31.58
584.303	31.48
584.725	31.36
585.147	31.24
585.568	31.12
585.99	31.02
586.411	30.91
586.833	30.82
587.254	30.73
587.675	30.65
588.096	30.59
588.518	30.51
588.939	30.47
589.36	30.39
589.781	30.34
590.202	30.29
590.623	30.22
591.043	30.17
591.464	30.11
591.885	30.05
592.305	30
592.726	29.93
593.147	29.87
593.567	29.8
593.987	29.79
594.408	29.73
594.828	29.67
595.248	29.64
595.669	29.6
596.089	29.55
596.509	29.51
596.929	29.47
597.349	29.41
597.769	29.35
598.189	29.29
598.608	29.2
599.028	29.15
599.448	29.09
599.867	29.02
600.287	28.94
600.706	28.85
601.126	28.75
601.545	28.66
601.965	28.57
602.384	28.5
602.803	28.4
603.222	28.3
603.641	28.19
604.061	28.07
604.48	27.96
604.898	27.84
605.317	27.74
605.736	27.62
606.155	27.48
606.574	27.35
606.992	27.19
607.411	27.07
607.829	26.91
608.248	26.78
608.666	26.65
609.085	26.51
609.503	26.37
609.921	26.23
610.339	26.12
610.758	25.99
611.176	25.84
611.594	25.72
612.012	25.6
612.43	25.51
612.847	25.39
613.265	25.27
613.683	25.15
614.101	25.03
614.518	24.9
614.936	24.77
615.353	24.67
615.771	24.57
616.188	24.47
616.606	24.36
617.023	24.25
617.44	24.12
617.857	24.01
618.274	23.92
618.691	23.84
619.108	23.77
619.525	23.7
619.942	23.62
620.359	23.57
620.776	23.5
621.192	23.45
621.609	23.41
622.026	23.4
622.442	23.38
622.859	23.35
623.275	23.32
623.691	23.28
624.108	23.26
624.524	23.24
624.94	23.2
625.356	23.17
625.772	23.16
626.188	23.14
626.604	23.11
627.02	23.07
627.436	23.03
627.852	23.01
628.268	22.98
628.683	22.93
629.099	22.89
629.514	22.86
629.93	22.82
630.345	22.76
630.761	22.69
631.176	22.63
631.591	22.56
632.007	22.5
632.422	22.43
632.837	22.34
633.252	22.25
633.667	22.13
634.082	22.03
634.497	21.9
634.911	21.77
635.326	21.64
635.741	21.48
636.155	21.34
636.57	21.16
636.984	20.95
637.399	20.76
637.813	20.57
638.228	20.39
638.642	20.21
639.056	20.01
639.47	19.8
639.884	19.57
640.298	19.37
640.712	19.14
641.126	18.93
641.54	18.73
641.954	18.54
642.368	18.32
642.781	18.1
643.195	17.86
643.609	17.67
644.022	17.47
644.436	17.28
644.849	17.09
645.262	16.93
645.676	16.76
646.089	16.59
646.502	16.42
646.915	16.29
647.328	16.15
647.741	16.01
648.154	15.89
648.567	15.78
648.98	15.68
649.393	15.59
649.805	15.49
650.218	15.4
650.631	15.33
651.043	15.26
651.456	15.18
651.868	15.1
652.28	15.04
652.693	14.94
653.105	14.85
653.517	14.74
653.929	14.64
654.341	14.53
654.753	14.42
655.165	14.29
655.577	14.15
655.989	14.01
656.401	13.85
656.813	13.7
657.224	13.56
657.636	13.42
658.047	13.27
658.459	13.1
658.87	12.93
659.282	12.78
659.693	12.62
660.104	12.45
660.515	12.29
660.926	12.16
661.338	12.01
661.749	11.86
662.159	11.7
662.57	11.56
662.981	11.43
663.392	11.3
663.803	11.17
664.213	11.06
664.624	10.96
665.035	10.86
665.445	10.75
665.855	10.66
666.266	10.57
666.676	10.49
667.086	10.41
667.497	10.35
667.907	10.29
668.317	10.24
668.727	10.18
669.137	10.15
669.547	10.11
669.956	10.07
670.366	10.05
670.776	10.03
671.186	10.02
671.595	10.02
672.005	10.01
672.414	10.01
672.824	10
673.233	10.01
673.642	10
674.052	10.02
674.461	10.03
674.87	10.05
675.279	10.07
675.688	10.1
676.097	10.14
676.506	10.17
676.915	10.23
677.323	10.29
677.732	10.36
678.141	10.44
678.549	10.52
678.958	10.62
679.366	10.71
679.775	10.83
680.183	10.96
680.592	11.09
681	11.24
681.408	11.41
681.816	11.6
682.224	11.81
682.632	12.06
683.04	12.34
683.448	12.63
683.856	12.97
684.264	13.34
684.671	13.74
685.079	14.18
685.487	14.68
685.894	15.21
686.302	15.77
686.709	16.35
687.116	16.97
687.524	17.63
687.931	18.32
688.338	19.07
688.745	19.86
689.152	20.67
689.559	21.51
689.966	22.34
690.373	23.23
690.78	24.13
691.187	25.05
691.593	25.97
692	26.92
692.407	27.87
692.813	28.79
693.22	29.72
693.626	30.69
694.032	31.62
694.439	32.6
694.845	33.52
695.251	34.45
695.657	35.36
696.063	36.27
696.469	37.19
696.875	38.04
697.281	38.94
697.687	39.81
698.093	40.65
698.498	41.49
698.904	42.28
699.31	43.06
699.715	43.84
700.12	44.6
700.526	45.34
700.931	46.03
701.337	46.75
701.742	47.39
702.147	48.04
702.552	48.67
702.957	49.3
703.362	49.92
703.767	50.54
704.172	51.15
704.577	51.72
704.981	52.29
705.386	52.83
705.791	53.39
706.195	53.93
706.6	54.45
707.004	54.99
707.408	55.46
707.813	55.95
708.217	56.41
708.621	56.84
709.025	57.29
709.43	57.71
709.834	58.19
710.237	58.59
710.641	59.03
711.045	59.43
711.449	59.8
711.853	60.19
712.256	60.58
712.66	60.95
713.064	61.37
713.467	61.74
713.87	62.1
714.274	62.44
714.677	62.78
715.08	63.11
715.484	63.47
715.887	63.78
716.29	64.09
716.693	64.34
717.096	64.66
717.499	64.91
717.901	65.17
718.304	65.44
718.707	65.7
719.109	66.01
719.512	66.3
719.915	66.56
720.317	66.84
720.719	67.09
721.122	67.35
721.524	67.56
721.926	67.81
722.328	68.06
722.731	68.33
723.133	68.56
723.535	68.75
723.937	68.94
724.338	69.06
724.74	69.22
725.142	69.29
725.544	69.44
725.945	69.58
726.347	69.77
726.748	69.87
727.15	69.97
727.551	70.08
727.952	70.2
728.354	70.31
728.755	70.45
729.156	70.57
729.557	70.78
729.958	70.94
730.359	71.07
730.76	71.12
731.161	71.22
731.562	71.33
731.962	71.43
732.363	71.48
732.763	71.59
733.164	71.67
733.564	71.73
733.965	71.78
734.365	71.8
734.766	71.86
735.166	71.9
735.566	71.93
735.966	71.95
736.366	71.97
736.766	72.04
737.166	72.08
737.566	72.14
737.966	72.18
738.365	72.24
738.765	72.31
739.165	72.36
739.564	72.46
739.964	72.52
740.363	72.56
740.763	72.62
741.162	72.63
741.561	72.65
741.96	72.69
742.36	72.76
742.759	72.8
743.158	72.82
743.557	72.87
743.955	72.93
744.354	72.98
744.753	73.05
745.152	73.1
745.55	73.16
745.949	73.22
746.348	73.28
746.746	73.32
747.144	73.4
747.543	73.42
747.941	73.47
748.339	73.52
748.737	73.57
749.136	73.58
749.534	73.59
749.932	73.6
750.33	73.6
750.727	73.61
751.125	73.61
751.523	73.58
751.921	73.59
752.318	73.57
752.716	73.5
753.113	73.45
753.511	73.43
753.908	73.41
754.305	73.38
754.703	73.33
755.1	73.29
755.497	73.25
755.894	73.2
756.291	73.19
756.688	73.15
757.085	73.12
757.482	73.12
757.878	73.1
758.275	73.1
758.672	73.08
759.068	73.06
759.465	73.04
759.861	73.02
760.258	72.96
760.654	72.94
761.05	72.95
761.447	72.92
761.843	72.83
762.239	72.77
762.635	72.75
763.031	72.74
763.427	72.71
763.822	72.67
764.218	72.65
764.614	72.69
765.01	72.63
765.405	72.6
765.801	72.61
766.196	72.66
766.592	72.74
766.987	72.75
767.382	72.77
767.778	72.8
768.173	72.85
768.568	72.84
768.963	72.82
769.358	72.85
769.753	72.89
770.148	72.92
770.542	72.9
770.937	72.85
771.332	72.84
771.726	72.8
772.121	72.76
772.515	72.74
772.91	72.76
773.304	72.78
773.699	72.8
774.093	72.79
774.487	72.78
774.881	72.84
775.275	72.86
775.669	72.87
776.063	72.83
776.457	72.87
776.851	72.86
777.245	72.9
777.638	72.93
778.032	72.93
778.425	72.92
778.819	72.92
779.212	72.87
779.606	72.88
779.999	72.86
780.392	72.91
780.786	72.88
781.179	72.95
781.572	72.91
781.965	72.89
782.358	72.85
782.751	72.83
783.143	72.87
783.536	72.9
783.929	72.93
784.322	72.98
784.714	73.01
785.107	73.04
785.499	73.05
785.891	73.04
786.284	72.99
786.676	73.03
787.068	72.99
787.46	72.92
787.852	72.89
788.245	72.86
788.636	72.83
789.028	72.8
789.42	72.75
789.812	72.72
790.204	72.68
790.595	72.71
790.987	72.71
791.378	72.76
791.77	72.83
792.161	72.83
792.553	72.82
792.944	72.87
793.335	72.88
793.726	72.86
794.117	72.8
794.508	72.86
794.899	72.87
795.29	72.86
795.681	72.87
796.072	72.87
796.463	72.86
796.853	72.89
797.244	72.88
797.634	72.88
798.025	72.94
798.415	73.03
798.806	73.06
799.196	73.14
799.586	73.2
799.976	73.25
800.366	73.3
800.756	73.34
801.146	73.37
801.536	73.38
801.926	73.4
802.316	73.46
802.706	73.5
803.095	73.55
803.485	73.53
803.874	73.51
804.264	73.53
804.653	73.53
805.043	73.57
805.432	73.55
805.821	73.56
806.21	73.61
806.599	73.68
806.988	73.64
807.377	73.63
807.766	73.63
808.155	73.63
808.544	73.62
808.933	73.62
809.321	73.65
809.71	73.7
810.098	73.74
810.487	73.71
810.875	73.68
811.264	73.74
811.652	73.74
812.04	73.76
812.428	73.79
812.816	73.83
813.204	73.84
813.592	73.82
813.98	73.85
814.368	73.86
814.756	73.9
815.144	73.89
815.531	73.89
815.919	73.89
816.306	73.88
816.694	73.9
817.081	73.87
817.469	73.91
817.856	73.97
818.243	73.97
818.63	74.02
819.017	74.03
819.404	74.04
819.791	74.04
820.178	74.11
820.565	74.13
820.952	74.13
821.339	74.16
821.725	74.18
822.112	74.17
822.498	74.15
822.885	74.1
823.271	74.11
823.657	74.12
824.044	74.1
824.43	74.09
824.816	74.07
825.202	74.06
825.588	74.02
825.974	73.95
826.36	73.91
826.746	73.95
827.132	73.94
827.517	73.94
827.903	73.94
828.289	73.93
828.674	73.92
829.06	73.92
829.445	73.93
829.83	73.98
830.216	74.01
830.601	74.01
830.986	73.98
831.371	74.02
831.756	73.95
832.141	73.97
832.526	73.96
832.911	73.95
833.295	73.95
833.68	73.94
834.065	73.92
834.449	73.92
834.834	73.91
835.218	73.91
835.603	73.93
835.987	73.94
836.371	73.95
836.755	73.96
837.139	73.94
837.524	73.94
837.908	73.91
838.291	73.92
838.675	73.92
839.059	73.91
839.443	73.91
839.827	73.88
840.21	73.93
840.594	73.91
840.977	73.86
841.361	73.9
841.744	73.91
842.127	73.92
842.511	73.9
842.894	73.87
843.277	73.87
843.66	73.85
844.043	73.85
844.426	73.83
844.809	73.81
845.191	73.81
845.574	73.77
845.957	73.73
846.339	73.73
846.722	73.71
847.104	73.7
847.487	73.73
847.869	73.71
848.252	73.7
848.634	73.71
849.016	73.73
849.398	73.72
849.78	73.74
850.162	73.78
850.544	73.8
850.926	73.8
851.307	73.85
851.689	73.8
852.071	73.79
852.452	73.79
852.834	73.74
853.215	73.73
853.597	73.76
853.978	73.72
854.359	73.68
854.741	73.66
855.122	73.65
855.503	73.66
855.884	73.66
856.265	73.66
856.646	73.66
857.026	73.69
857.407	73.61
857.788	73.58
858.169	73.61
858.549	73.63
858.93	73.6
859.31	73.6
859.69	73.56
860.071	73.56
860.451	73.56
860.831	73.59
861.211	73.56
861.591	73.63
861.971	73.66
862.351	73.66
862.731	73.65
863.111	73.64
863.491	73.66
863.87	73.67
864.25	73.72
864.629	73.7
865.009	73.68
865.388	73.68
865.768	73.64
866.147	73.62
866.526	73.57
866.905	73.6
867.284	73.66
867.663	73.63
868.042	73.61
868.421	73.56
868.8	73.56
869.179	73.53
869.558	73.54
869.936	73.53
870.315	73.53
870.693	73.59
871.072	73.53
871.45	73.49
871.828	73.46
872.207	73.5
872.585	73.5
872.963	73.45
873.341	73.46
873.719	73.46
874.097	73.45
874.475	73.45
874.853	73.41
875.23	73.45
875.608	73.45
875.986	73.51
876.363	73.48
876.741	73.46
877.118	73.51
877.495	73.53
877.873	73.48
878.25	73.48
878.627	73.49
879.004	73.51
879.381	73.51
879.758	73.51
880.135	73.53
880.512	73.55
880.889	73.61
881.265	73.67
881.642	73.68
882.019	73.74
882.395	73.75
882.772	73.77
883.148	73.76
883.524	73.78
883.901	73.77
884.277	73.74
884.653	73.74
885.029	73.74
885.405	73.69
885.781	73.65
886.157	73.64
886.532	73.65
886.908	73.66
887.284	73.66
887.659	73.62
888.035	73.64
888.411	73.62
888.786	73.61
889.161	73.59
889.537	73.58
889.912	73.56
890.287	73.5
890.662	73.47
891.037	73.37
891.412	73.32
891.787	73.29
892.162	73.23
892.536	73.2
892.911	73.14
893.286	73.07
893.66	73.01
894.035	72.95
894.409	72.95
894.784	72.9
895.158	72.89
895.532	72.86
895.906	72.81
896.281	72.77
896.655	72.76
897.029	72.75
897.402	72.75
897.776	72.75
898.15	72.81
898.524	72.8
898.898	72.76
899.271	72.79
899.645	72.79
900.018	72.8
900.392	72.83
900.765	72.81
901.138	72.82
901.511	72.81
901.884	72.81
902.258	72.74
902.631	72.74
903.003	72.78
903.376	72.75
903.749	72.77
904.122	72.79
904.495	72.8
904.867	72.77
905.24	72.73
905.612	72.71
905.985	72.69
906.357	72.68
906.729	72.63
907.102	72.63
907.474	72.63
907.846	72.6
908.218	72.58
908.59	72.52
908.962	72.51
909.334	72.52
909.705	72.52
910.077	72.49
910.449	72.52
910.82	72.55
911.192	72.51
911.563	72.49
911.935	72.47
912.306	72.47
912.677	72.48
913.048	72.49
913.419	72.49
913.79	72.48
914.161	72.48
914.532	72.47
914.903	72.44
915.274	72.42
915.645	72.46
916.015	72.5
916.386	72.49
916.756	72.45
917.127	72.44
917.497	72.41
917.868	72.41
918.238	72.45
918.608	72.42
918.978	72.41
919.348	72.42
919.718	72.39
920.088	72.34
920.458	72.34
920.828	72.34
921.198	72.34
921.567	72.31
921.937	72.32
922.306	72.27
922.676	72.28
923.045	72.24
923.415	72.19
923.784	72.19
924.153	72.13
924.522	72.11
924.891	72.08
925.26	72.04
925.629	72.05
925.998	72.01
926.367	72.01
926.736	71.98
927.104	71.98
927.473	71.97
927.842	71.93
928.21	71.99
928.578	71.99
928.947	71.99
929.315	71.98
929.683	71.93
930.051	71.91
930.42	71.83
930.788	71.77
931.156	71.8
931.523	71.77
931.891	71.65
932.259	71.52
932.627	71.32
932.994	71.17
933.362	70.99
933.729	70.9
934.097	70.78
934.464	70.7
934.831	70.61
935.199	70.47
935.566	70.31
935.933	70.25
936.3	70.11
936.667	70.1
937.034	69.99
937.401	69.99
937.767	69.94
938.134	69.84
938.501	69.76
938.867	69.7
939.234	69.69
939.6	69.75
939.967	69.83
940.333	69.99
940.699	70.13
941.065	70.44
941.431	70.56
941.798	70.64
942.163	70.83
942.529	70.94
942.895	71.08
943.261	71.13
943.627	71.21
943.992	71.36
944.358	71.43
944.723	71.49
945.089	71.49
945.454	71.6
945.82	71.65
946.185	71.67
946.55	71.89
946.915	72.01
947.28	72.15
947.645	72.14
948.01	72.13
948.375	72.1
948.74	72.06
949.104	72.09
949.469	71.98
949.834	72.01
950.198	71.88
950.562	71.76
950.927	71.66
951.291	71.6
951.655	71.59
952.02	71.52
952.384	71.6
952.748	71.59
953.112	71.51
953.476	71.54
953.839	71.48
954.203	71.49
954.567	71.42
954.931	71.41
955.294	71.32
955.658	71.28
956.021	71.21
956.385	71.23
956.748	71.13
957.111	71.1
957.474	71.08
957.837	71.07
958.2	71.07
958.563	71.06
958.926	70.98
959.289	71.03
959.652	70.97
960.015	70.87
960.377	70.75
960.74	70.7
961.102	70.65
961.465	70.66
961.827	70.52
962.189	70.46
962.552	70.34
962.914	70.33
963.276	70.24
963.638	70.25
964	70.31
964.362	70.25
964.724	70.32
965.085	70.31
965.447	70.12
965.809	70.13
966.17	70.17
966.532	70.28
966.893	70.26
967.255	70.2
967.616	70.22
967.977	70.14
968.338	70.1
968.699	70.01
969.061	69.95
969.421	70.01
969.782	70.04
970.143	69.95
970.504	69.86
970.865	69.71
971.225	69.7
971.586	69.66
971.946	69.74
972.307	69.75
972.667	69.87
973.027	69.8
973.388	69.78
973.748	69.83
974.108	69.76
974.468	69.8
974.828	69.94
975.188	69.95
975.548	69.95
975.907	69.92
976.267	69.89
976.627	69.77
976.986	69.82
977.346	69.8
977.705	69.7
978.064	69.83
978.424	69.72
978.783	69.68
979.142	69.56
979.501	69.51
979.86	69.49
980.219	69.36
980.578	69.28
980.937	69.31
981.296	69.31
981.654	69.39
982.013	69.34
982.371	69.34
982.73	69.32
983.088	69.39
983.447	69.42
983.805	69.34
984.163	69.49
984.521	69.54
984.879	69.49
985.237	69.48
985.595	69.48
985.953	69.46
986.311	69.58
986.669	69.56
987.026	69.6
987.384	69.59
987.741	69.7
988.099	69.6
988.456	69.62
988.814	69.55
989.171	69.54
989.528	69.37
989.885	69.33
990.242	69.23
990.599	69.24
990.956	69.15
991.313	69.07
991.67	69.02
992.027	68.97
992.383	69.07
992.74	69.07
993.096	69.04
993.453	69
993.809	69.06
994.165	69.06
994.522	69.06
994.878	69.03
995.234	68.94
995.59	68.81
995.946	68.91
996.302	68.71
996.658	68.82
997.013	68.9
997.369	69.06
997.725	69.05
998.08	69.09
998.436	69.23
998.791	69.28
999.147	69.45
999.502	69.52
999.857	69.48
1000.212	69.55
1000.567	69.48
1000.922	69.45
1001.277	69.31
1001.632	69.32
1001.987	69.18
1002.342	69.05
1002.696	69.1
1003.051	68.9
1003.406	68.86
1003.76	68.74
1004.114	68.89
1004.469	68.8
1004.823	68.69
1005.177	68.83
1005.531	68.69
1005.885	68.91
1006.239	68.79
1006.593	68.66
1006.947	68.59
1007.301	68.57
1007.655	68.79
1008.008	68.55
1008.362	68.63
1008.715	68.77
1009.069	68.67
1009.422	68.49
1009.776	68.25
1010.129	68.04
1010.482	68.18
1010.835	68.48
1011.188	68.46
1011.541	67.89
1011.894	67.97
1012.247	67.88
1012.6	67.85
1012.952	67.98
1013.305	68.19
1013.657	68.15
1014.01	68.65
1014.362	68.51
1014.715	68.07
1015.067	68.03
1015.419	68.61
1015.771	68.55
1016.123	68.6
1016.475	68.35
1016.827	68.1
1017.179	67.9
1017.531	67.99
1017.883	68.14
1018.234	67.92
1018.586	68.03
1018.938	68.08
1019.289	67.82
1019.64	67.84
1019.992	68.1
1020.343	68.52
1020.694	68.42
1021.045	68.58
1021.396	68.23
1021.747	67.87
1022.098	67.97
1022.449	67.91
1022.8	67.74
1023.151	67.75
1023.501	67.82
1023.852	67.58
1024.202	67.21
1024.553	67.1
1024.903	66.72
1025.253	66.84
1025.604	66.69
1025.954	66.72
1026.304	67.37
1026.654	67.84
1027.004	68.26
1027.354	68.06
1027.703	67.48
1028.053	67.45
1028.403	67.64
1028.753	68.05
1029.102	68.3
1029.452	68.32
1029.801	68.41
1030.15	67.92
1030.499	67.58
897.758	201.03
901.051	205.11
904.343	210.24
907.636	204.06
910.928	206.34
914.22	207.45
917.511	195.49
920.803	198.04
924.094	190.24
927.384	191.31
930.675	183.6
933.965	182.05
937.255	182.88
940.544	173.6
943.834	170.96
947.123	165.04
950.411	160.73
953.7	162.49
956.988	153.58
960.276	152.35
963.563	154.16
966.851	151.72
970.138	149.71
973.424	141.18
976.711	142.84
979.997	140.49
983.283	136.96
986.568	133.28
989.853	132.83
993.138	130.61
996.423	130.43
999.708	126.13
1002.992	126.41
1006.275	125.29
1009.559	124.81
1012.842	121.64
1016.125	118.27
1019.408	118.18
1022.69	119.64
1025.972	117.58
1029.254	116.08
1032.536	113.38
1035.817	112.63
1039.098	111.18
1042.379	110.1
1045.659	110.06
1048.939	109.56
1052.219	109.54
1055.498	108.98
1058.778	106.52
1062.057	106.16
1065.335	106.38
1068.614	105.83
1071.892	104.56
1075.17	102.86
1078.447	102.85
1081.724	102.56
1085.001	99.95
1088.278	100.93
1091.554	100.28
1094.83	100.18
1098.106	99.5
1101.382	99.24
1104.657	98.68
1107.932	98.66
1111.206	99.41
1114.481	98.64
1117.755	97.32
1121.029	98.41
1124.302	96.4
1127.575	96.56
1130.848	96
1134.121	95.05
1137.393	94.65
1140.665	94.45
1143.937	93.4
1147.208	93.77
1150.48	92.64
1153.75	92.55
1157.021	91.83
1160.291	92.26
1163.561	91.58
1166.831	91.93
1170.101	91.59
1173.37	90.59
1176.639	90.3
1179.907	90.51
1183.176	89.15
1186.444	88.81
1189.711	88.49
1192.979	88.9
1196.246	88.9
1199.513	88.66
1202.78	87.75
1206.046	88.21
1209.312	89.02
1212.578	88.8
1215.843	89.54
1219.108	89.61
1222.373	91.17
1225.638	92.27
1228.902	92.9
1232.166	94.1
1235.43	93.57
1238.693	95.63
1241.956	96.5
1245.219	97.73
1248.482	99.13
1251.744	98.46
1255.006	99.25
1258.268	96.96
1261.529	96.29
1264.79	95.95
1268.051	95.4
1271.312	96.53
1274.572	94.48
1277.832	93.47
1281.092	93.15
1284.351	91.62
1287.61	91.61
1290.869	92.06
1294.128	92.68
1297.386	92.6
1300.644	90.83
1303.902	89.86
1307.159	89.17
1310.416	89.92
1313.673	90.65
1316.93	89.94
1320.186	91.12
1323.442	91.22
1326.697	90.81
1329.953	89.42
1333.208	90.57
1336.463	94
1339.717	94.81
1342.972	95.24
1346.226	96.43
1349.479	95.87
1352.733	98.13
1355.986	97.96
1359.238	99.21
1362.491	98.12
1365.743	103.22
1368.995	103.33
1372.247	96.54
1375.498	95.11
1378.749	96.8
1382	96.42
1385.251	95.15
1388.501	95.02
1391.751	94.11
1395	93.66
1398.25	95.21
1401.499	90.52
1404.748	87.96
1407.996	90.94
1411.244	91.43
1414.492	90.36
1417.74	87.63
1420.987	86.01
1424.234	83.97
1427.481	82.13
1430.728	79.88
1433.974	76.86
1437.22	77.47
1440.465	75.46
1443.711	74.64
1446.956	72.33
1450.201	70.57
1453.445	67.07
1456.689	66.72
1459.933	66.07
1463.177	64
1466.42	63.34
1469.663	63.05
1472.906	61.39
1476.148	60.1
1479.391	59.9
1482.633	59.75
1485.874	59.91
1489.115	61.26
1492.356	60.89
1495.597	60.66
1498.838	61.63
1502.078	61.77
1505.318	61.76
1508.557	60.88
1511.797	62.22
1515.036	62.06
1518.274	62.72
1521.513	63.01
1524.751	62.97
1527.989	63.51
1531.227	63.42
1534.464	63.84
1537.701	64.16
1540.938	63.98
1544.174	65.27
1547.41	65.58
1550.646	66.24
1553.882	65.95
1557.117	66.61
1560.352	66.66
1563.587	66.83
1566.821	67
1570.055	66.96
1573.289	67.48
1576.523	67.51
1579.756	68.03
1582.989	68.11
1586.222	67.94
1589.454	68.85
1592.686	68.62
1595.918	68.26
1599.15	68.32
1602.381	68.76
1605.612	69.11
1608.843	68.51
1612.073	69.18
1615.303	68.96
1618.533	69.15
1621.762	69
1624.992	68.72
1628.221	68.32
1631.449	69.2
1634.678	69.59
1637.906	69.25
1641.134	69.11
1644.361	69.6
1647.588	69.29
1650.815	69.47
1654.042	69.26
1657.269	69.48
1660.495	69.85
1663.72	69.94
1666.946	69.75
1670.171	69.81
1673.396	70.31
1676.621	70.25
1679.845	70.7
1683.069	70.39
1686.293	70.37
1689.517	69.85
1692.74	70.28
1695.963	69.54
1699.185	70.04
1702.408	69.28
1705.63	69.25
1708.852	69.32
1712.073	69.35
1715.294	68.68
1718.515	70.01
1721.736	69.39
1724.956	70.41
1728.176	69.97
1731.396	70.28
1734.616	69.85
1737.835	70.61
1741.054	70.13
1744.272	69.31
1747.491	69.24
1750.709	69.48
1753.927	68.36
1757.144	69.02
1760.361	68.42
1763.578	68.67
1766.795	68.85
1770.011	68.54
1773.227	68.47
1776.443	69.03
1779.658	68.83
1782.874	69.46
1786.089	68.89
1789.303	69.17
1792.518	69.18
1795.732	69.42
1798.945	70.11
1802.159	69.49
1805.372	69.59
1808.585	70.14
1811.797	69.57
1815.01	70.55
1818.222	70.06
1821.434	70.69
1824.645	70.29
1827.856	70.61
1831.067	70.01
1834.278	69.47
1837.488	69.89
1840.698	70.86
1843.908	70.39
1847.117	70.69
1850.326	70.17
1853.535	70.18
1856.744	68.76
1859.952	69.23
1863.16	67.82
1866.368	67.15
1869.575	66.15
1872.782	64.79
1875.989	61.29
1879.196	59.99
1882.402	57.72
1885.608	57.05
1888.814	54.57
1892.019	53.68
1895.224	51.49
1898.429	50.56
1901.634	48.93
1904.838	47.3
1908.042	46.42
1911.246	46.39
1914.449	45.85
1917.652	45.07
1920.855	44.1
1924.058	44.09
1927.26	42.44
1930.462	43.41
1933.664	42.66
1936.865	43.41
1940.066	42.68
1943.267	42.31
1946.467	42.93
1949.668	42.25
1952.868	42.64
1956.067	43
1959.267	43.99
1962.466	44.71
1965.665	44.35
1968.863	45.7
1972.061	46
1975.259	47.64
1978.457	48.34
1981.654	48.59
1984.852	49.77
1988.048	50.77
1991.245	51.51
1994.441	52.24
1997.637	52.81
2000.833	55.74
2004.028	55.19
2007.223	56.27
2010.418	57.57
2013.613	60.55
2016.807	62.4
2020.001	64.7
2023.194	67.37
2026.388	69.2
2029.581	72.52
2032.774	75.48
2035.966	75.36
2039.158	78.76
2042.35	79.15
2045.542	81.83
2048.733	84.91
2051.924	85.06
2055.115	84.5
2058.306	84.07
2061.496	84.82
2064.686	82.68
2067.875	84.83
2071.065	86.07
2074.254	84.65
2077.442	88.7
2080.631	87.92
2083.819	87.12
2087.007	90.4
2090.195	92.35
2093.382	92.84
2096.569	94.27
2099.756	95.71
2102.942	95.24
2106.128	96.54
2109.314	101.27
2112.5	100.28
2115.685	96.04
2118.87	96.28
2122.055	98.09
2125.239	97.95
2128.424	100.72
2131.608	99.96
2134.791	100.89
2137.974	102.13
2141.157	102.79
2144.34	99.98
2147.523	105.06
2150.705	110.91
2153.887	109.89
2157.068	108.67
2160.25	111.13
2163.431	111.54
2166.611	111.93
2169.792	112.1
2172.972	114.46
2176.152	113.33
2179.331	117.35
2182.511	114.63
2185.69	117.07
2188.868	120.03
2192.047	123.73
2195.225	126.03
2198.403	124.74
2201.58	123.24
2204.758	129.23
2207.935	126.54
2211.111	130.05
2214.288	128.57
2217.464	129.44
2220.64	131.18
2223.815	129.12
2226.991	128.26
2230.166	128.34
2233.34	131.9
2236.515	135.17
2239.689	132.31
2242.863	134.5
2246.036	134.09
2249.209	135.51
2252.382	132.65
2255.555	133.34
2258.727	138.01
2261.9	137.6
2265.071	138.42
2268.243	136.56
2271.414	140.94
2274.585	142.85
2277.756	144.42
2280.926	148.89
2284.096	150.94
2287.266	156.77
2290.436	155.03
2293.605	157.3
2296.774	162.13
2299.942	164.87
2303.111	172.93
2306.279	174.5
2309.447	176.76
2312.614	173.01
2315.781	172
2318.948	176.47
2322.115	178.06
2325.281	180.76
2328.447	184.69
2331.613	182.74
2334.779	183.48
2337.944	178.98
2341.109	183.57
2344.274	181.07
2347.438	188.66
2350.602	192.06
2353.766	199.55
2356.929	199.05
2360.092	208.17
2363.255	202.46
2366.418	208.37
2369.58	211.97
2372.742	221.92
2375.904	221.06
2379.066	228.15
2382.227	234.22
2385.388	234.8
2388.548	222.1
2391.709	221.12
2394.869	217.63
2398.029	227.97
2401.188	225.46
2404.347	231.17
2407.506	235.25
2410.665	224.77
2413.823	231.31
2416.981	236.31
2420.139	228.42
2423.296	247.24
2426.453	259.55
2429.61	260.11
2432.767	266.15
2435.923	279.47
2439.079	269.29
2442.235	267.05
2445.391	281.1
2448.546	276.21
2451.701	285.33
2454.855	302.59
2458.009	273.36
2461.163	279.27
2464.317	278.56
2467.471	272.13
2470.624	279.23
2473.777	269.82
2476.929	267.57
2480.082	271.31
2483.234	283.1
2486.385	296.75
2489.537	305.07
2492.688	327.13
2495.839	324.53
2498.989	331.17
2502.14	329.07
2505.29	316.82
2508.439	348.01
2511.589	349.21
2514.738	343.18
2517.887	338.03
2521.035	307.12
2524.183	300.69
2527.331	301.49
2530.479	287.76
2533.627	290.56
