Data from C_2_dec_nc_4n_070_Splice17_01.txt Node
Date: Sat Feb 29 14:23:42 EST 2020
User: sa697716
Spectrometer: FLMS03696
Trigger mode: 0
Integration Time (sec): 3.180400E-1
Scans to average: 20
Electric dark correction enabled: true
Nonlinearity correction enabled: true
Boxcar width: 5
XAxis mode: Wavelengths
Number of Pixels in Spectrum: 2048
>>>>>Begin Spectral Data<<<<<
187.83	32.28
188.298	23.25
188.766	38.69
189.233	34.63
189.701	48.03
190.169	54.11
190.636	41.57
191.104	26.54
191.571	130.24
192.039	326.58
192.506	-75.59
192.974	2560.97
193.441	37.92
193.908	106.8
194.375	85.19
194.842	196.2
195.31	91.45
195.777	47.62
196.244	30.34
196.711	37.43
197.177	36.13
197.644	34.41
198.111	32.6
198.578	32.43
199.045	31.9
199.511	32.15
199.978	32.34
200.445	32.75
200.911	32.56
201.378	32.42
201.844	31.82
202.31	31.96
202.777	32.29
203.243	33
203.709	33.25
204.176	33.07
204.642	33.11
205.108	32.92
205.574	32.7
206.04	32.48
206.506	31.95
206.972	32.12
207.438	31.34
207.903	30.68
208.369	29.74
208.835	29.08
209.301	28.62
209.766	27.99
210.232	27.11
210.697	26.2
211.163	25.62
211.628	25.39
212.094	24.71
212.559	23.98
213.024	23.53
213.49	22.82
213.955	22.17
214.42	21.51
214.885	20.49
215.35	19.48
215.815	18.24
216.28	16.79
216.745	15.21
217.21	13.47
217.675	12
218.14	10.41
218.604	9.22
219.069	8.22
219.534	7.31
219.998	6.59
220.463	6.03
220.927	5.57
221.392	5.15
221.856	4.75
222.32	4.47
222.785	4.25
223.249	4.07
223.713	3.88
224.177	3.67
224.642	3.55
225.106	3.39
225.57	3.25
226.034	3.13
226.497	2.98
226.961	2.87
227.425	2.73
227.889	2.63
228.353	2.52
228.816	2.45
229.28	2.36
229.744	2.29
230.207	2.24
230.671	2.17
231.134	2.12
231.597	2.07
232.061	2.02
232.524	2
232.987	1.96
233.45	1.93
233.914	1.89
234.377	1.88
234.84	1.83
235.303	1.81
235.766	1.8
236.229	1.78
236.691	1.78
237.154	1.78
237.617	1.75
238.08	1.72
238.542	1.71
239.005	1.69
239.468	1.67
239.93	1.67
240.393	1.64
240.855	1.61
241.317	1.59
241.78	1.58
242.242	1.54
242.704	1.53
243.166	1.53
243.629	1.5
244.091	1.5
244.553	1.48
245.015	1.47
245.477	1.45
245.939	1.44
246.4	1.4
246.862	1.39
247.324	1.39
247.786	1.38
248.247	1.37
248.709	1.37
249.17	1.35
249.632	1.33
250.093	1.29
250.555	1.28
251.016	1.28
251.477	1.27
251.939	1.25
252.4	1.23
252.861	1.22
253.322	1.19
253.783	1.19
254.244	1.18
254.705	1.17
255.166	1.18
255.627	1.18
256.088	1.16
256.549	1.16
257.009	1.15
257.47	1.14
257.931	1.13
258.391	1.12
258.852	1.1
259.312	1.09
259.773	1.08
260.233	1.05
260.694	1.04
261.154	1.03
261.614	1.02
262.074	1.01
262.534	0.99
262.994	0.99
263.455	0.98
263.915	0.97
264.374	0.96
264.834	0.96
265.294	0.95
265.754	0.94
266.214	0.93
266.673	0.92
267.133	0.92
267.593	0.91
268.052	0.9
268.512	0.89
268.971	0.89
269.431	0.89
269.89	0.88
270.349	0.87
270.809	0.88
271.268	0.87
271.727	0.88
272.186	0.87
272.645	0.87
273.104	0.88
273.563	0.88
274.022	0.88
274.481	0.88
274.94	0.88
275.399	0.89
275.857	0.89
276.316	0.88
276.775	0.88
277.233	0.88
277.692	0.88
278.15	0.88
278.609	0.87
279.067	0.87
279.525	0.87
279.984	0.87
280.442	0.87
280.9	0.87
281.358	0.87
281.816	0.87
282.274	0.87
282.732	0.88
283.19	0.9
283.648	0.91
284.106	0.91
284.564	0.91
285.021	0.92
285.479	0.92
285.937	0.93
286.394	0.92
286.852	0.93
287.309	0.93
287.767	0.92
288.224	0.91
288.682	0.9
289.139	0.9
289.596	0.89
290.053	0.87
290.511	0.86
290.968	0.86
291.425	0.85
291.882	0.84
292.339	0.84
292.796	0.83
293.252	0.83
293.709	0.83
294.166	0.82
294.623	0.82
295.079	0.83
295.536	0.82
295.992	0.82
296.449	0.82
296.905	0.82
297.362	0.82
297.818	0.82
298.274	0.81
298.731	0.81
299.187	0.81
299.643	0.81
300.099	0.81
300.555	0.81
301.011	0.81
301.467	0.8
301.923	0.8
302.379	0.81
302.835	0.81
303.291	0.81
303.746	0.81
304.202	0.8
304.658	0.79
305.113	0.79
305.569	0.8
306.024	0.81
306.479	0.81
306.935	0.81
307.39	0.82
307.845	0.83
308.301	0.83
308.756	0.84
309.211	0.86
309.666	0.87
310.121	0.87
310.576	0.87
311.031	0.87
311.486	0.87
311.94	0.87
312.395	0.87
312.85	0.87
313.305	0.88
313.759	0.87
314.214	0.86
314.668	0.86
315.123	0.87
315.577	0.87
316.032	0.86
316.486	0.85
316.94	0.84
317.394	0.84
317.849	0.84
318.303	0.84
318.757	0.83
319.211	0.83
319.665	0.83
320.119	0.83
320.572	0.84
321.026	0.84
321.48	0.85
321.934	0.86
322.387	0.86
322.841	0.86
323.295	0.86
323.748	0.86
324.202	0.86
324.655	0.87
325.108	0.86
325.562	0.85
326.015	0.84
326.468	0.83
326.921	0.83
327.374	0.83
327.827	0.82
328.28	0.82
328.733	0.82
329.186	0.83
329.639	0.82
330.092	0.82
330.545	0.83
330.997	0.84
331.45	0.85
331.903	0.84
332.355	0.84
332.808	0.85
333.26	0.85
333.713	0.85
334.165	0.85
334.617	0.86
335.069	0.87
335.522	0.88
335.974	0.88
336.426	0.89
336.878	0.89
337.33	0.89
337.782	0.9
338.234	0.9
338.686	0.9
339.137	0.9
339.589	0.89
340.041	0.89
340.493	0.88
340.944	0.88
341.396	0.88
341.847	0.88
342.299	0.87
342.75	0.86
343.201	0.86
343.653	0.85
344.104	0.85
344.555	0.85
345.006	0.85
345.457	0.85
345.908	0.85
346.359	0.85
346.81	0.86
347.261	0.85
347.712	0.86
348.163	0.87
348.613	0.86
349.064	0.85
349.515	0.85
349.965	0.84
350.416	0.85
350.866	0.85
351.317	0.84
351.767	0.83
352.217	0.83
352.668	0.83
353.118	0.83
353.568	0.84
354.018	0.85
354.468	0.85
354.918	0.86
355.368	0.87
355.818	0.87
356.268	0.88
356.718	0.89
357.168	0.89
357.617	0.89
358.067	0.89
358.517	0.88
358.966	0.88
359.416	0.9
359.865	0.89
360.315	0.89
360.764	0.89
361.213	0.88
361.663	0.88
362.112	0.9
362.561	0.9
363.01	0.91
363.459	0.91
363.908	0.91
364.357	0.91
364.806	0.91
365.255	0.92
365.703	0.92
366.152	0.93
366.601	0.94
367.05	0.94
367.498	0.94
367.947	0.94
368.395	0.95
368.844	0.96
369.292	0.96
369.74	0.96
370.189	0.95
370.637	0.96
371.085	0.97
371.533	0.96
371.981	0.96
372.429	0.96
372.877	0.96
373.325	0.94
373.773	0.94
374.221	0.95
374.669	0.95
375.116	0.95
375.564	0.95
376.012	0.95
376.459	0.95
376.907	0.96
377.354	0.96
377.801	0.97
378.249	0.99
378.696	1
379.143	1.01
379.591	1.03
380.038	1.06
380.485	1.07
380.932	1.09
381.379	1.11
381.826	1.14
382.273	1.17
382.72	1.21
383.166	1.25
383.613	1.3
384.06	1.35
384.506	1.42
384.953	1.5
385.4	1.62
385.846	1.75
386.292	1.91
386.739	2.06
387.185	2.26
387.631	2.42
388.078	2.55
388.524	2.66
388.97	2.78
389.416	2.93
389.862	3.15
390.308	3.42
390.754	3.73
391.2	4.02
391.645	4.25
392.091	4.45
392.537	4.7
392.983	5.1
393.428	5.67
393.874	6.36
394.319	7.09
394.765	7.81
395.21	8.53
395.655	9.3
396.101	10.14
396.546	11.11
396.991	12.17
397.436	13.26
397.881	14.34
398.326	15.34
398.771	16.28
399.216	17.18
399.661	17.99
400.106	18.72
400.551	19.33
400.995	19.88
401.44	20.34
401.885	20.78
402.329	21.27
402.774	21.77
403.218	22.38
403.663	23.05
404.107	23.75
404.551	24.48
404.995	25.15
405.44	25.8
405.884	26.49
406.328	27.34
406.772	28.34
407.216	29.33
407.66	30.24
408.104	31.03
408.547	31.69
408.991	32.3
409.435	32.99
409.879	33.79
410.322	34.75
410.766	35.71
411.209	36.6
411.653	37.37
412.096	38.06
412.54	38.71
412.983	39.4
413.426	40.17
413.869	40.97
414.312	41.77
414.756	42.54
415.199	43.15
415.642	43.75
416.085	44.28
416.527	44.69
416.97	44.97
417.413	45.1
417.856	45.08
418.298	45.04
418.741	45.09
419.184	45.19
419.626	45.38
420.069	45.67
420.511	45.94
420.953	46.18
421.396	46.55
421.838	47.13
422.28	47.87
422.722	48.66
423.164	49.44
423.606	50.07
424.048	50.54
424.49	50.73
424.932	50.47
425.374	49.73
425.816	48.65
426.258	47.6
426.699	46.9
427.141	46.83
427.582	47.38
428.024	48.18
428.465	49.11
428.907	49.98
429.348	50.8
429.789	51.93
430.231	53.74
430.672	56.27
431.113	59.03
431.554	61.7
431.995	63.75
432.436	65.22
432.877	66.31
433.318	67.15
433.759	68.14
434.2	69.45
434.64	71.12
435.081	72.72
435.522	74.08
435.962	75.22
436.403	76.17
436.843	77.1
437.284	78.09
437.724	79.23
438.164	80.58
438.604	82.11
439.045	83.62
439.485	84.97
439.925	86.13
440.365	87.1
440.805	87.84
441.245	88.45
441.685	89.09
442.125	89.93
442.564	90.91
443.004	92.03
443.444	93.15
443.883	94.36
444.323	95.63
444.762	96.9
445.202	98.36
445.641	100.06
446.081	102.07
446.52	104.04
446.959	105.82
447.398	107.16
447.837	108.11
448.276	108.57
448.716	108.98
449.154	109.46
449.593	109.88
450.032	110.14
450.471	110.07
450.91	109.86
451.349	109.66
451.787	109.6
452.226	109.72
452.664	109.93
453.103	110.24
453.541	110.45
453.98	110.27
454.418	110.08
454.856	109.74
455.295	109.52
455.733	109.29
456.171	109.11
456.609	108.94
457.047	108.84
457.485	108.89
457.923	109.09
458.361	109.44
458.798	109.98
459.236	110.52
459.674	111.04
460.111	111.57
460.549	112.08
460.987	112.65
461.424	113.21
461.862	113.76
462.299	114.2
462.736	114.75
463.173	115.51
463.611	116.36
464.048	117.45
464.485	118.79
464.922	120.21
465.359	121.54
465.796	122.72
466.233	123.97
466.67	125.44
467.106	127.29
467.543	129.27
467.98	131.07
468.416	132.72
468.853	134.1
469.29	135.46
469.726	136.88
470.162	138.49
470.599	140.07
471.035	141.41
471.471	142.38
471.907	142.94
472.344	143.36
472.78	143.8
473.216	144.36
473.652	144.87
474.088	145.23
474.523	145.4
474.959	145.45
475.395	145.52
475.831	145.56
476.266	145.69
476.702	145.77
477.138	145.71
477.573	145.4
478.008	144.88
478.444	144.23
478.879	143.42
479.314	142.52
479.75	141.45
480.185	140.21
480.62	138.6
481.055	136.32
481.49	133.44
481.925	130.34
482.36	127.63
482.795	125.35
483.229	123.64
483.664	122.25
484.099	120.96
484.534	119.9
484.968	119.08
485.403	118.81
485.837	119.15
486.271	119.97
486.706	120.85
487.14	121.37
487.574	121.47
488.009	121.36
488.443	121.24
488.877	121.13
489.311	121.03
489.745	120.97
490.179	120.95
490.613	120.9
491.046	120.94
491.48	121.11
491.914	121.54
492.348	122.16
492.781	122.64
493.215	123
493.648	123.26
494.082	123.41
494.515	123.57
494.948	123.62
495.382	123.66
495.815	123.6
496.248	123.48
496.681	123.21
497.114	122.94
497.547	122.74
497.98	122.78
498.413	123.06
498.846	123.39
499.279	123.65
499.711	123.83
500.144	124.19
500.577	124.81
501.009	125.77
501.442	126.94
501.874	128.1
502.306	129.22
502.739	130.03
503.171	130.74
503.603	131.45
504.036	132.23
504.468	133.22
504.9	134.18
505.332	134.95
505.764	135.55
506.196	136.05
506.627	136.73
507.059	137.5
507.491	138.33
507.923	139.17
508.354	139.96
508.786	140.62
509.217	141.03
509.649	141.46
510.08	141.9
510.512	142.46
510.943	143.06
511.374	143.44
511.805	143.38
512.237	142.96
512.668	142.38
513.099	141.97
513.53	141.7
513.961	141.56
514.391	141.57
514.822	141.9
515.253	142.28
515.684	142.75
516.114	143.41
516.545	144.45
516.975	146.12
517.406	147.96
517.836	149.63
518.267	151.07
518.697	152.49
519.127	153.87
519.558	155.07
519.988	156.13
520.418	157.06
520.848	157.84
521.278	158.45
521.708	158.49
522.138	158.2
522.567	158.01
522.997	157.99
523.427	158.21
523.857	158.39
524.286	158.7
524.716	159.04
525.145	159.29
525.575	159.55
526.004	160.07
526.433	161.02
526.863	162.27
527.292	163.41
527.721	164.2
528.15	164.5
528.579	164.59
529.008	164.45
529.437	164.24
529.866	164.05
530.295	164.01
530.724	164.01
531.152	163.96
531.581	163.88
532.01	163.68
532.438	163.58
532.867	163.72
533.295	163.92
533.723	164.08
534.152	164.15
534.58	164.11
535.008	163.77
535.436	163.18
535.865	162.44
536.293	161.73
536.721	161.32
537.149	161.16
537.576	161.07
538.004	160.98
538.432	160.88
538.86	160.87
539.287	161.06
539.715	161.49
540.143	162.05
540.57	162.8
540.998	163.63
541.425	164.36
541.852	165.05
542.28	165.58
542.707	166.13
543.134	166.6
543.561	166.93
543.988	167.31
544.415	167.73
544.842	168.17
545.269	168.62
545.696	168.99
546.123	169.4
546.549	169.77
546.976	170.19
547.403	170.62
547.829	171.17
548.256	171.71
548.682	172.04
549.108	172.39
549.535	172.76
549.961	173.06
550.387	173.4
550.813	173.72
551.24	173.99
551.666	174.18
552.092	174.15
552.518	174
552.943	173.92
553.369	173.87
553.795	173.61
554.221	173.05
554.646	172.33
555.072	171.56
555.498	170.78
555.923	170.16
556.349	169.64
556.774	169.28
557.199	168.91
557.625	168.5
558.05	168.05
558.475	167.67
558.9	167.5
559.325	167.37
559.75	167.13
560.175	166.82
560.6	166.25
561.025	165.49
561.449	164.58
561.874	163.7
562.299	162.95
562.723	162.21
563.148	161.46
563.572	160.6
563.997	159.63
564.421	158.68
564.846	157.72
565.27	156.87
565.694	155.92
566.118	154.93
566.542	153.94
566.966	152.84
567.39	151.85
567.814	150.96
568.238	150.19
568.662	149.68
569.086	149.17
569.509	148.79
569.933	148.35
570.357	147.98
570.78	147.71
571.204	147.4
571.627	147.2
572.05	146.99
572.474	146.72
572.897	146.46
573.32	146.02
573.743	145.63
574.166	145.11
574.589	144.72
575.012	144.59
575.435	144.58
575.858	144.74
576.281	144.87
576.704	144.99
577.126	145.18
577.549	145.47
577.972	145.97
578.394	146.45
578.817	147.05
579.239	147.75
579.661	148.26
580.084	148.73
580.506	149.07
580.928	149.3
581.35	149.53
581.772	149.68
582.194	149.74
582.616	149.79
583.038	149.92
583.46	150.01
583.882	149.7
584.303	149.15
584.725	148.32
585.147	147.48
585.568	146.91
585.99	146.59
586.411	146.44
586.833	146.33
587.254	146.21
587.675	146.13
588.096	146.14
588.518	146.4
588.939	146.93
589.36	147.76
589.781	148.63
590.202	149.3
590.623	149.7
591.043	149.91
591.464	150.1
591.885	150.28
592.305	150.37
592.726	150.38
593.147	150.39
593.567	150.26
593.987	150.14
594.408	149.99
594.828	149.81
595.248	149.66
595.669	149.4
596.089	149.01
596.509	148.49
596.929	147.88
597.349	147.2
597.769	146.53
598.189	146.01
598.608	145.53
599.028	145.11
599.448	144.75
599.867	144.36
600.287	144.05
600.706	143.67
601.126	143.37
601.545	143.13
601.965	142.98
602.384	142.83
602.803	142.62
603.222	142.33
603.641	142
604.061	141.6
604.48	141.14
604.898	140.76
605.317	140.42
605.736	140
606.155	139.57
606.574	139.21
606.992	138.89
607.411	138.55
607.829	138.23
608.248	137.95
608.666	137.65
609.085	137.37
609.503	136.99
609.921	136.72
610.339	136.58
610.758	136.39
611.176	136.08
611.594	135.66
612.012	135.23
612.43	134.8
612.847	134.43
613.265	134.21
613.683	134.08
614.101	133.96
614.518	133.87
614.936	133.7
615.353	133.63
615.771	133.64
616.188	133.76
616.606	133.85
617.023	133.96
617.44	133.99
617.857	133.85
618.274	133.64
618.691	133.4
619.108	133.11
619.525	132.81
619.942	132.42
620.359	131.93
620.776	131.4
621.192	130.89
621.609	130.44
622.026	130.03
622.442	129.76
622.859	129.37
623.275	129.02
623.691	128.6
624.108	128.28
624.524	127.99
624.94	127.76
625.356	127.47
625.772	127.32
626.188	127.13
626.604	126.89
627.02	126.57
627.436	126.37
627.852	126.25
628.268	126.26
628.683	126.25
629.099	126.27
629.514	126.26
629.93	126.37
630.345	126.47
630.761	126.6
631.176	126.63
631.591	126.73
632.007	126.82
632.422	126.95
632.837	127.04
633.252	127.12
633.667	127.2
634.082	127.33
634.497	127.45
634.911	127.42
635.326	127.27
635.741	127.21
636.155	127.11
636.57	126.96
636.984	126.72
637.399	126.43
637.813	126.19
638.228	125.92
638.642	125.61
639.056	125.28
639.47	125.1
639.884	124.94
640.298	124.77
640.712	124.6
641.126	124.46
641.54	124.31
641.954	124.12
642.368	123.81
642.781	123.53
643.195	123.24
643.609	122.97
644.022	122.63
644.436	122.25
644.849	121.79
645.262	121.29
645.676	120.86
646.089	120.6
646.502	120.39
646.915	120.25
647.328	120.07
647.741	119.95
648.154	119.86
648.567	119.76
648.98	119.76
649.393	119.86
649.805	119.99
650.218	119.99
650.631	119.67
651.043	119.1
651.456	118.01
651.868	116.61
652.28	115.15
652.693	113.91
653.105	112.95
653.517	112.27
653.929	111.79
654.341	111.44
654.753	111.26
655.165	111.26
655.577	111.53
655.989	112.38
656.401	113.47
656.813	114.71
657.224	115.67
657.636	116.41
658.047	116.9
658.459	117.1
658.87	117.19
659.282	117.16
659.693	117.1
660.104	117.02
660.515	116.85
660.926	116.84
661.338	116.68
661.749	116.52
662.159	116.29
662.57	116
662.981	115.79
663.392	115.58
663.803	115.39
664.213	115.24
664.624	115.1
665.035	114.9
665.445	114.64
665.855	114.34
666.266	114.04
666.676	113.74
667.086	113.47
667.497	113.15
667.907	112.85
668.317	112.6
668.727	112.32
669.137	112.02
669.547	111.73
669.956	111.49
670.366	111.31
670.776	111.08
671.186	110.92
671.595	110.76
672.005	110.68
672.414	110.57
672.824	110.41
673.233	110.29
673.642	110.15
674.052	110.1
674.461	110.03
674.87	109.96
675.279	109.97
675.688	109.89
676.097	109.85
676.506	109.8
676.915	109.79
677.323	109.84
677.732	109.89
678.141	109.95
678.549	109.98
678.958	110.04
679.366	110.08
679.775	110.03
680.183	110.01
680.592	110.02
681	110.02
681.408	109.96
681.816	109.62
682.224	108.68
682.632	107.17
683.04	105.24
683.448	103.43
683.856	101.86
684.264	100.47
684.671	99.15
685.079	97.89
685.487	96.71
685.894	95.8
686.302	95.27
686.709	95.47
687.116	96.41
687.524	97.95
687.931	99.47
688.338	100.89
688.745	102.26
689.152	103.65
689.559	104.93
689.966	106.12
690.373	107.19
690.78	108.13
691.187	109.07
691.593	109.86
692	110.6
692.407	111.3
692.813	111.98
693.22	112.53
693.626	113.05
694.032	113.56
694.439	114.09
694.845	114.48
695.251	114.88
695.657	115.12
696.063	115.32
696.469	115.4
696.875	115.36
697.281	115.24
697.687	115.16
698.093	115.11
698.498	115.13
698.904	115.15
699.31	115.26
699.715	115.46
700.12	115.71
700.526	116.07
700.931	116.4
701.337	116.72
701.742	117.09
702.147	117.52
702.552	117.92
702.957	118.29
703.362	118.66
703.767	118.96
704.172	119.18
704.577	119.33
704.981	119.41
705.386	119.53
705.791	119.74
706.195	119.88
706.6	119.96
707.004	120.07
707.408	120.1
707.813	120.12
708.217	120.07
708.621	120.05
709.025	120.1
709.43	120.14
709.834	120.16
710.237	120.08
710.641	120.02
711.045	119.88
711.449	119.69
711.853	119.43
712.256	118.98
712.66	118.32
713.064	117.46
713.467	116.33
713.87	115.03
714.274	113.56
714.677	111.98
715.08	110.37
715.484	108.89
715.887	107.47
716.29	106.33
716.693	105.65
717.096	105.51
717.499	105.73
717.901	106.23
718.304	106.98
718.707	107.75
719.109	108.53
719.512	109.23
719.915	109.84
720.317	110.31
720.719	110.63
721.122	110.67
721.524	110.48
721.926	110.17
722.328	109.78
722.731	109.33
723.133	109
723.535	108.79
723.937	108.72
724.338	108.54
724.74	108.49
725.142	108.28
725.544	108.22
725.945	108.16
726.347	108.08
726.748	107.91
727.15	107.84
727.551	107.94
727.952	108.12
728.354	108.38
728.755	108.8
729.156	109.27
729.557	109.94
729.958	110.47
730.359	110.92
730.76	111.27
731.161	111.68
731.562	112.01
731.962	112.23
732.363	112.32
732.763	112.38
733.164	112.37
733.564	112.25
733.965	111.97
734.365	111.58
734.766	111.24
735.166	110.9
735.566	110.62
735.966	110.35
736.366	110.03
736.766	109.75
737.166	109.37
737.566	108.99
737.966	108.64
738.365	108.44
738.765	108.39
739.165	108.3
739.564	108.24
739.964	108.16
740.363	108.02
740.763	107.92
741.162	107.87
741.561	107.86
741.96	107.86
742.36	107.88
742.759	107.77
743.158	107.6
743.557	107.47
743.955	107.34
744.354	107.2
744.753	107.08
745.152	106.89
745.55	106.63
745.949	106.38
746.348	106.11
746.746	105.81
747.144	105.56
747.543	105.31
747.941	105.07
748.339	104.87
748.737	104.62
749.136	104.4
749.534	104.27
749.932	104.17
750.33	104.04
750.727	103.87
751.125	103.68
751.523	103.45
751.921	103.24
752.318	102.98
752.716	102.66
753.113	102.34
753.511	101.98
753.908	101.55
754.305	100.9
754.703	99.67
755.1	97.36
755.497	93.63
755.894	88.56
756.291	82.66
756.688	76.59
757.085	70.92
757.482	65.76
757.878	60.89
758.275	55.99
758.672	51.16
759.068	46.91
759.465	43.9
759.861	42.65
760.258	43.12
760.654	44.83
761.05	47.13
761.447	49.41
761.843	51.6
762.239	53.89
762.635	56.65
763.031	59.93
763.427	63.53
763.822	67.24
764.218	70.87
764.614	74.27
765.01	77.4
765.405	80.21
765.801	82.75
766.196	84.96
766.592	86.83
766.987	88.28
767.382	89.36
767.778	90.16
768.173	90.73
768.568	91.15
768.963	91.45
769.358	91.63
769.753	91.8
770.148	91.83
770.542	91.71
770.937	91.55
771.332	91.48
771.726	91.4
772.121	91.31
772.515	91.23
772.91	91.09
773.304	90.86
773.699	90.67
774.093	90.43
774.487	90.27
774.881	90.16
775.275	90.01
775.669	89.8
776.063	89.55
776.457	89.24
776.851	88.93
777.245	88.67
777.638	88.57
778.032	88.38
778.425	88.2
778.819	87.91
779.212	87.59
779.606	87.27
779.999	86.97
780.392	86.7
780.786	86.45
781.179	86.21
781.572	85.91
781.965	85.56
782.358	85.21
782.751	84.88
783.143	84.57
783.536	84.37
783.929	84.07
784.322	83.74
784.714	83.41
785.107	83.02
785.499	82.58
785.891	82.2
786.284	81.7
786.676	81.28
787.068	80.77
787.46	80.31
787.852	79.78
788.245	79.29
788.636	78.77
789.028	78.18
789.42	77.69
789.812	77.26
790.204	76.72
790.595	76.29
790.987	75.82
791.378	75.45
791.77	75.1
792.161	74.74
792.553	74.4
792.944	74.18
793.335	73.97
793.726	73.72
794.117	73.46
794.508	73.28
794.899	73.01
795.29	72.75
795.681	72.39
796.072	72.01
796.463	71.55
796.853	71.15
797.244	70.72
797.634	70.26
798.025	69.82
798.415	69.32
798.806	68.8
799.196	68.36
799.586	67.86
799.976	67.4
800.366	66.93
800.756	66.53
801.146	66.1
801.536	65.65
801.926	65.22
802.316	64.83
802.706	64.5
803.095	64.11
803.485	63.72
803.874	63.32
804.264	62.92
804.653	62.48
805.043	62.02
805.432	61.5
805.821	60.97
806.21	60.52
806.599	60.01
806.988	59.45
807.377	58.93
807.766	58.34
808.155	57.74
808.544	57.1
808.933	56.45
809.321	55.79
809.71	55.09
810.098	54.33
810.487	53.46
810.875	52.57
811.264	51.67
811.652	50.7
812.04	49.71
812.428	48.77
812.816	47.93
813.204	47.11
813.592	46.32
813.98	45.58
814.368	44.91
814.756	44.31
815.144	43.75
815.531	43.27
815.919	42.94
816.306	42.74
816.694	42.6
817.081	42.43
817.469	42.24
817.856	42
818.243	41.6
818.63	41.14
819.017	40.64
819.404	40.26
819.791	39.92
820.178	39.6
820.565	39.26
820.952	38.87
821.339	38.49
821.725	38.18
822.112	37.95
822.498	37.86
822.885	37.84
823.271	37.8
823.657	37.64
824.044	37.37
824.43	37.07
824.816	36.68
825.202	36.31
825.588	35.96
825.974	35.61
826.36	35.25
826.746	34.9
827.132	34.52
827.517	34.19
827.903	33.92
828.289	33.64
828.674	33.35
829.06	33.13
829.445	32.88
829.83	32.64
830.216	32.41
830.601	32.22
830.986	32.03
831.371	31.88
831.756	31.73
832.141	31.56
832.526	31.44
832.911	31.32
833.295	31.22
833.68	31.08
834.065	30.99
834.449	30.81
834.834	30.64
835.218	30.46
835.603	30.31
835.987	30.13
836.371	30
836.755	29.82
837.139	29.67
837.524	29.48
837.908	29.31
838.291	29.12
838.675	28.98
839.059	28.82
839.443	28.65
839.827	28.46
840.21	28.31
840.594	28.13
840.977	27.99
841.361	27.82
841.744	27.69
842.127	27.53
842.511	27.37
842.894	27.22
843.277	27.08
843.66	26.94
844.043	26.82
844.426	26.67
844.809	26.49
845.191	26.26
845.574	26.02
845.957	25.75
846.339	25.54
846.722	25.33
847.104	25.13
847.487	24.94
847.869	24.76
848.252	24.57
848.634	24.39
849.016	24.23
849.398	24.01
849.78	23.76
850.162	23.5
850.544	23.26
850.926	23.04
851.307	22.86
851.689	22.7
852.071	22.54
852.452	22.38
852.834	22.27
853.215	22.15
853.597	22.13
853.978	22.19
854.359	22.28
854.741	22.35
855.122	22.38
855.503	22.35
855.884	22.32
856.265	22.25
856.646	22.2
857.026	22.11
857.407	22.01
857.788	21.93
858.169	21.84
858.549	21.74
858.93	21.62
859.31	21.53
859.69	21.4
860.071	21.29
860.451	21.19
860.831	21.05
861.211	20.9
861.591	20.72
861.971	20.46
862.351	20.24
862.731	20.03
863.111	19.83
863.491	19.65
863.87	19.49
864.25	19.34
864.629	19.18
865.009	19.07
865.388	18.99
865.768	18.97
866.147	18.99
866.526	19.01
866.905	19.02
867.284	19.01
867.663	18.99
868.042	18.96
868.421	18.91
868.8	18.87
869.179	18.83
869.558	18.78
869.936	18.72
870.315	18.65
870.693	18.6
871.072	18.52
871.45	18.44
871.828	18.38
872.207	18.33
872.585	18.27
872.963	18.22
873.341	18.15
873.719	18.09
874.097	18.04
874.475	18.02
874.853	17.94
875.23	17.87
875.608	17.81
875.986	17.74
876.363	17.65
876.741	17.59
877.118	17.51
877.495	17.45
877.873	17.36
878.25	17.26
878.627	17.18
879.004	17.13
879.381	17.08
879.758	17.01
880.135	16.94
880.512	16.91
880.889	16.87
881.265	16.84
881.642	16.77
882.019	16.72
882.395	16.67
882.772	16.6
883.148	16.5
883.524	16.44
883.901	16.4
884.277	16.35
884.653	16.29
885.029	16.2
885.405	16.12
885.781	16.07
886.157	16.01
886.532	15.97
886.908	15.93
887.284	15.9
887.659	15.86
888.035	15.8
888.411	15.74
888.786	15.66
889.161	15.59
889.537	15.51
889.912	15.44
890.287	15.36
890.662	15.24
891.037	15.13
891.412	15
891.787	14.87
892.162	14.72
892.536	14.58
892.911	14.45
893.286	14.3
893.66	14.18
894.035	14.03
894.409	13.87
894.784	13.72
895.158	13.57
895.532	13.42
895.906	13.3
896.281	13.17
896.655	13.04
897.029	12.91
897.402	12.81
897.776	12.69
898.15	12.6
898.524	12.54
898.898	12.5
899.271	12.49
899.645	12.5
900.018	12.5
900.392	12.54
900.765	12.61
901.138	12.7
901.511	12.77
901.884	12.83
902.258	12.88
902.631	12.91
903.003	12.92
903.376	12.92
903.749	12.89
904.122	12.85
904.495	12.76
904.867	12.64
905.24	12.55
905.612	12.43
905.985	12.34
906.357	12.25
906.729	12.17
907.102	12.11
907.474	12.05
907.846	11.98
908.218	11.94
908.59	11.91
908.962	11.92
909.334	11.88
909.705	11.86
910.077	11.81
910.449	11.81
910.82	11.81
911.192	11.79
911.563	11.74
911.935	11.71
912.306	11.7
912.677	11.68
913.048	11.64
913.419	11.6
913.79	11.56
914.161	11.55
914.532	11.52
914.903	11.51
915.274	11.5
915.645	11.54
916.015	11.58
916.386	11.58
916.756	11.58
917.127	11.63
917.497	11.69
917.868	11.75
918.238	11.79
918.608	11.8
918.978	11.8
919.348	11.8
919.718	11.77
920.088	11.72
920.458	11.7
920.828	11.69
921.198	11.65
921.567	11.6
921.937	11.57
922.306	11.55
922.676	11.51
923.045	11.47
923.415	11.44
923.784	11.42
924.153	11.42
924.522	11.35
924.891	11.27
925.26	11.2
925.629	11.13
925.998	11.03
926.367	10.94
926.736	10.84
927.104	10.7
927.473	10.58
927.842	10.4
928.21	10.23
928.578	10.06
928.947	9.89
929.315	9.69
929.683	9.48
930.051	9.29
930.42	9.05
930.788	8.83
931.156	8.69
931.523	8.47
931.891	8.36
932.259	8.25
932.627	8.11
932.994	8.04
933.362	7.96
933.729	7.93
934.097	7.92
934.464	7.95
934.831	8
935.199	8.03
935.566	8.16
935.933	8.27
936.3	8.39
936.667	8.58
937.034	8.7
937.401	8.85
937.767	9.06
938.134	9.2
938.501	9.38
938.867	9.59
939.234	9.81
939.6	9.92
939.967	10.01
940.333	10.1
940.699	10.23
941.065	10.28
941.431	10.33
941.798	10.32
942.163	10.36
942.529	10.36
942.895	10.29
943.261	10.17
943.627	10.18
943.992	10.21
944.358	10.16
944.723	10.08
945.089	10.12
945.454	10.17
945.82	10.1
946.185	10.12
946.55	10.09
946.915	10.11
947.28	10.12
947.645	10.08
948.01	9.97
948.375	9.92
948.74	9.87
949.104	9.84
949.469	9.81
949.834	9.81
950.198	9.76
950.562	9.77
950.927	9.66
951.291	9.64
951.655	9.57
952.02	9.47
952.384	9.51
952.748	9.47
953.112	9.38
953.476	9.37
953.839	9.35
954.203	9.26
954.567	9.17
954.931	9.2
955.294	9.17
955.658	9.15
956.021	9.17
956.385	9.17
956.748	9.16
957.111	9.15
957.474	9.1
957.837	9.07
958.2	9.1
958.563	9.18
958.926	9.18
959.289	9.17
959.652	9.17
960.015	9.16
960.377	9.12
960.74	9.13
961.102	9.15
961.465	9.15
961.827	9.07
962.189	9.06
962.552	9.01
962.914	8.95
963.276	8.9
963.638	8.92
964	8.98
964.362	8.96
964.724	9
965.085	9
965.447	9.05
965.809	9.12
966.17	9.24
966.532	9.33
966.893	9.43
967.255	9.49
967.616	9.53
967.977	9.56
968.338	9.6
968.699	9.61
969.061	9.6
969.421	9.63
969.782	9.66
970.143	9.56
970.504	9.51
970.865	9.49
971.225	9.48
971.586	9.51
971.946	9.49
972.307	9.55
972.667	9.55
973.027	9.62
973.388	9.57
973.748	9.52
974.108	9.52
974.468	9.54
974.828	9.55
975.188	9.59
975.548	9.54
975.907	9.58
976.267	9.56
976.627	9.58
976.986	9.58
977.346	9.67
977.705	9.76
978.064	9.84
978.424	9.87
978.783	9.9
979.142	9.97
979.501	10.03
979.86	10
980.219	9.96
980.578	9.98
980.937	10.01
981.296	9.95
981.654	10
982.013	9.99
982.371	10
982.73	10.02
983.088	10
983.447	10.05
983.805	10.13
984.163	10.17
984.521	10.2
984.879	10.26
985.237	10.41
985.595	10.41
985.953	10.51
986.311	10.53
986.669	10.57
987.026	10.58
987.384	10.54
987.741	10.62
988.099	10.61
988.456	10.74
988.814	10.77
989.171	10.73
989.528	10.73
989.885	10.71
990.242	10.8
990.599	10.81
990.956	10.94
991.313	10.9
991.67	10.86
992.027	10.96
992.383	10.9
992.74	10.8
993.096	10.77
993.453	10.86
993.809	10.83
994.165	10.85
994.522	10.78
994.878	10.7
995.234	10.86
995.59	10.87
995.946	10.94
996.302	10.87
996.658	11.05
997.013	11.17
997.369	11.22
997.725	11.25
998.08	11.14
998.436	11.28
998.791	11.25
999.147	11.16
999.502	11.18
999.857	11.18
1000.212	11.26
1000.567	11.2
1000.922	11.21
1001.277	11.21
1001.632	11.36
1001.987	11.35
1002.342	11.41
1002.696	11.47
1003.051	11.42
1003.406	11.49
1003.76	11.51
1004.114	11.58
1004.469	11.64
1004.823	11.68
1005.177	11.68
1005.531	11.62
1005.885	11.68
1006.239	11.54
1006.593	11.59
1006.947	11.74
1007.301	11.88
1007.655	11.91
1008.008	11.88
1008.362	11.83
1008.715	11.82
1009.069	11.93
1009.422	11.89
1009.776	12.06
1010.129	12.09
1010.482	12.39
1010.835	12.62
1011.188	12.57
1011.541	12.64
1011.894	12.85
1012.247	12.9
1012.6	12.85
1012.952	12.95
1013.305	13.15
1013.657	13.33
1014.01	13.57
1014.362	13.43
1014.715	13.32
1015.067	13.62
1015.419	13.74
1015.771	13.85
1016.123	13.92
1016.475	14.25
1016.827	14.35
1017.179	14.26
1017.531	14.35
1017.883	14.72
1018.234	14.66
1018.586	14.66
1018.938	14.34
1019.289	14.08
1019.64	14.45
1019.992	14.74
1020.343	14.92
1020.694	14.89
1021.045	15.06
1021.396	15.06
1021.747	15.07
1022.098	15.56
1022.449	15.53
1022.8	15.38
1023.151	15.55
1023.501	15.33
1023.852	15.5
1024.202	15.57
1024.553	15.86
1024.903	15.75
1025.253	15.8
1025.604	15.99
1025.954	15.82
1026.304	16.73
1026.654	17.48
1027.004	17.95
1027.354	18.09
1027.703	18.13
1028.053	18.01
1028.403	17.88
1028.753	18.28
1029.102	18.75
1029.452	18.9
1029.801	19.33
1030.15	19.05
1030.499	19.12
897.758	152.23
901.051	156.06
904.343	160.85
907.636	156.46
910.928	159.89
914.22	158.72
917.511	153.47
920.803	149.65
924.094	141.7
927.384	146.85
930.675	140.73
933.965	139.39
937.255	138.49
940.544	130.66
943.834	128.25
947.123	121.66
950.411	120.13
953.7	122.5
956.988	116.18
960.276	114.77
963.563	118.03
966.851	114.72
970.138	111.43
973.424	106.36
976.711	109.3
979.997	107.33
983.283	105.03
986.568	102.67
989.853	100.32
993.138	98.36
996.423	101.34
999.708	96.94
1002.992	98.33
1006.275	97.98
1009.559	97.68
1012.842	94.19
1016.125	91.05
1019.408	91.38
1022.69	92.43
1025.972	91.91
1029.254	92.54
1032.536	89.4
1035.817	86.43
1039.098	86.05
1042.379	85.66
1045.659	85.61
1048.939	85.08
1052.219	85.49
1055.498	85.86
1058.778	83.64
1062.057	82.78
1065.335	81.74
1068.614	81.4
1071.892	82.78
1075.17	81.35
1078.447	80.85
1081.724	80.4
1085.001	78.38
1088.278	79.68
1091.554	78.45
1094.83	78.61
1098.106	78.71
1101.382	77.66
1104.657	77.82
1107.932	76.88
1111.206	77.83
1114.481	76.81
1117.755	75.48
1121.029	76.63
1124.302	74.92
1127.575	74.43
1130.848	73.61
1134.121	73.08
1137.393	73.5
1140.665	73.39
1143.937	72.84
1147.208	71.41
1150.48	71.55
1153.75	71.61
1157.021	70.77
1160.291	70.84
1163.561	70.31
1166.831	71.64
1170.101	71.04
1173.37	70.26
1176.639	69.74
1179.907	69.29
1183.176	69.15
1186.444	68.71
1189.711	68.86
1192.979	69.31
1196.246	69.16
1199.513	69.2
1202.78	68.21
1206.046	68.57
1209.312	69.11
1212.578	68.91
1215.843	69.94
1219.108	69.33
1222.373	70.61
1225.638	71.23
1228.902	71.69
1232.166	72.75
1235.43	72.83
1238.693	73.73
1241.956	74.37
1245.219	75.31
1248.482	75.43
1251.744	75.33
1255.006	76.39
1258.268	73.91
1261.529	73.86
1264.79	73.22
1268.051	72.91
1271.312	73.21
1274.572	72.29
1277.832	71.11
1281.092	70.97
1284.351	70.35
1287.61	70.23
1290.869	70.07
1294.128	70.92
1297.386	69.72
1300.644	69.5
1303.902	68.94
1307.159	68.11
1310.416	68.35
1313.673	69.09
1316.93	68.6
1320.186	68.93
1323.442	69.33
1326.697	69.78
1329.953	69.42
1333.208	71.35
1336.463	72.01
1339.717	72.19
1342.972	73.33
1346.226	74.01
1349.479	73.43
1352.733	74.96
1355.986	75.01
1359.238	75.99
1362.491	74.42
1365.743	74.95
1368.995	76.96
1372.247	74.39
1375.498	73.6
1378.749	74.41
1382	74.48
1385.251	73.76
1388.501	73.32
1391.751	73.4
1395	70.99
1398.25	71.9
1401.499	71.42
1404.748	66.99
1407.996	68.28
1411.244	68.28
1414.492	67.48
1417.74	64.08
1420.987	64.05
1424.234	62.94
1427.481	59
1430.728	57.6
1433.974	55.58
1437.22	54.99
1440.465	54.07
1443.711	52.83
1446.956	51.89
1450.201	49.98
1453.445	48.03
1456.689	46.96
1459.933	46.05
1463.177	45.03
1466.42	45.32
1469.663	44.73
1472.906	43.26
1476.148	40.81
1479.391	41.27
1482.633	40.42
1485.874	40.88
1489.115	41.54
1492.356	41.08
1495.597	40.63
1498.838	42.2
1502.078	41.77
1505.318	41.84
1508.557	41.75
1511.797	43.58
1515.036	43.32
1518.274	44.22
1521.513	43.98
1524.751	43.81
1527.989	44.44
1531.227	44.76
1534.464	44.79
1537.701	45.1
1540.938	45.04
1544.174	45.13
1547.41	45.62
1550.646	46.12
1553.882	45.76
1557.117	46.5
1560.352	46.35
1563.587	46.62
1566.821	46.7
1570.055	47.18
1573.289	47.44
1576.523	47.79
1579.756	48.48
1582.989	48.46
1586.222	48.04
1589.454	48.43
1592.686	48.54
1595.918	48.62
1599.15	48.54
1602.381	48.68
1605.612	48.82
1608.843	48.47
1612.073	48.76
1615.303	49.12
1618.533	49.43
1621.762	49.13
1624.992	49.13
1628.221	48.75
1631.449	49.61
1634.678	49.75
1637.906	49.75
1641.134	49.94
1644.361	50.42
1647.588	50.19
1650.815	50.23
1654.042	49.84
1657.269	50.36
1660.495	50.83
1663.72	50.77
1666.946	50.28
1670.171	50.69
1673.396	51.27
1676.621	50.61
1679.845	51.23
1683.069	51.25
1686.293	51.08
1689.517	50.95
1692.74	51.09
1695.963	50.52
1699.185	51.04
1702.408	51
1705.63	50.78
1708.852	50.42
1712.073	50.89
1715.294	50.29
1718.515	50.68
1721.736	50.55
1724.956	50.78
1728.176	50.59
1731.396	50.71
1734.616	50.65
1737.835	50.58
1741.054	50.53
1744.272	50.31
1747.491	50.05
1750.709	50.24
1753.927	49.83
1757.144	49.76
1760.361	49.51
1763.578	49.51
1766.795	49.66
1770.011	49.64
1773.227	49.59
1776.443	49.57
1779.658	49.33
1782.874	49.94
1786.089	48.71
1789.303	48.77
1792.518	49.27
1795.732	49.63
1798.945	50.25
1802.159	50.01
1805.372	49.88
1808.585	50.56
1811.797	50.29
1815.01	50.95
1818.222	50.37
1821.434	52.11
1824.645	51.58
1827.856	51.37
1831.067	50.93
1834.278	50.82
1837.488	51.4
1840.698	51.73
1843.908	51.32
1847.117	51.64
1850.326	51.37
1853.535	51.88
1856.744	50.78
1859.952	50.92
1863.16	50.1
1866.368	49.87
1869.575	48.89
1872.782	47.65
1875.989	45.1
1879.196	44.36
1882.402	42.97
1885.608	42.48
1888.814	40.1
1892.019	39.28
1895.224	37.92
1898.429	38.03
1901.634	36.56
1904.838	35.72
1908.042	35.52
1911.246	36.06
1914.449	36.03
1917.652	34.99
1920.855	34.91
1924.058	33.95
1927.26	32.54
1930.462	33.6
1933.664	32.36
1936.865	33.6
1940.066	32.26
1943.267	31.45
1946.467	31.81
1949.668	31.62
1952.868	32.17
1956.067	31.57
1959.267	33.3
1962.466	33.94
1965.665	33.65
1968.863	34.76
1972.061	34.05
1975.259	36.2
1978.457	35.84
1981.654	35.11
1984.852	36.04
1988.048	36.95
1991.245	36.99
1994.441	37.59
1997.637	37.78
2000.833	40.08
2004.028	39.42
2007.223	41.01
2010.418	42.06
2013.613	44.31
2016.807	46.78
2020.001	47.07
2023.194	48.31
2026.388	51.59
2029.581	52.14
2032.774	54.45
2035.966	54.08
2039.158	57.1
2042.35	56.22
2045.542	56.51
2048.733	61.26
2051.924	60.84
2055.115	60.43
2058.306	60.99
2061.496	60.05
2064.686	61.41
2067.875	61.58
2071.065	63.53
2074.254	61.47
2077.442	64.55
2080.631	64.52
2083.819	62.93
2087.007	65.63
2090.195	67.85
2093.382	67.54
2096.569	68.55
2099.756	71.35
2102.942	73.07
2106.128	71.99
2109.314	75.26
2112.5	75.08
2115.685	72.48
2118.87	71.97
2122.055	71.92
2125.239	71.5
2128.424	74.67
2131.608	72.19
2134.791	70.31
2137.974	70.14
2141.157	72.67
2144.34	72.16
2147.523	75.51
2150.705	79.63
2153.887	80.23
2157.068	80.82
2160.25	82.83
2163.431	81.44
2166.611	85.21
2169.792	86.55
2172.972	88.93
2176.152	87.56
2179.331	89.54
2182.511	88.06
2185.69	89.71
2188.868	92.23
2192.047	93.06
2195.225	94.89
2198.403	93.32
2201.58	94.38
2204.758	97.19
2207.935	95.04
2211.111	95.72
2214.288	96.68
2217.464	98.6
2220.64	98.21
2223.815	96.7
2226.991	95.59
2230.166	96.87
2233.34	99.77
2236.515	95
2239.689	94.42
2242.863	96.12
2246.036	97.45
2249.209	94.53
2252.382	94.34
2255.555	99.05
2258.727	100.64
2261.9	102.42
2265.071	101.97
2268.243	102.44
2271.414	109.56
2274.585	110.44
2277.756	112.73
2280.926	113.32
2284.096	115.01
2287.266	114.07
2290.436	111.05
2293.605	113.13
2296.774	118.38
2299.942	118.72
2303.111	124.09
2306.279	126.56
2309.447	123.93
2312.614	123.46
2315.781	122.32
2318.948	127.01
2322.115	130.19
2325.281	135.56
2328.447	136.58
2331.613	135.24
2334.779	138.59
2337.944	131.06
2341.109	129.6
2344.274	133.6
2347.438	138.75
2350.602	142.87
2353.766	152.19
2356.929	151.73
2360.092	150.52
2363.255	150.53
2366.418	151.59
2369.58	154.99
2372.742	158.94
2375.904	161.49
2379.066	164.11
2382.227	163.24
2385.388	164.79
2388.548	157.94
2391.709	159.8
2394.869	159.43
2398.029	166.08
2401.188	160.54
2404.347	160.14
2407.506	171.27
2410.665	159.6
2413.823	166.71
2416.981	172.13
2420.139	170.54
2423.296	180.3
2426.453	186.04
2429.61	177.88
2432.767	179.88
2435.923	196.01
2439.079	196.12
2442.235	196.33
2445.391	208.9
2448.546	200.02
2451.701	207.88
2454.855	212.58
2458.009	193.22
2461.163	198.89
2464.317	208.44
2467.471	203.65
2470.624	206.99
2473.777	198.8
2476.929	202.81
2480.082	203.05
2483.234	213.27
2486.385	224.7
2489.537	231.69
2492.688	248.1
2495.839	242.99
2498.989	249.61
2502.14	247.56
2505.29	243.95
2508.439	251.78
2511.589	251.12
2514.738	257.56
2517.887	257.39
2521.035	231.56
2524.183	225.88
2527.331	226.25
2530.479	219.49
2533.627	221.91
