Data from C_2_hir_wi_4n_078_Splice17_09.txt Node
Date: Sat Feb 29 14:20:02 EST 2020
User: sa697716
Spectrometer: FLMS03696
Trigger mode: 0
Integration Time (sec): 3.180400E-1
Scans to average: 20
Electric dark correction enabled: true
Nonlinearity correction enabled: true
Boxcar width: 5
XAxis mode: Wavelengths
Number of Pixels in Spectrum: 2048
>>>>>Begin Spectral Data<<<<<
187.83	33.38
188.298	20.54
188.766	24.88
189.233	15.88
189.701	22.42
190.169	24.84
190.636	16.5
191.104	-12.71
191.571	-19.2
192.039	71.4
192.506	27.64
192.974	5823.17
193.441	-378.53
193.908	46.42
194.375	-18.03
194.842	39.2
195.31	16.94
195.777	4.73
196.244	33.92
196.711	42.93
197.177	43.24
197.644	43.8
198.111	43.8
198.578	44.57
199.045	46.37
199.511	46.99
199.978	46.84
200.445	46.85
200.911	46.47
201.378	46.76
201.844	47.58
202.31	48.22
202.777	48.14
203.243	48.74
203.709	48.52
204.176	47.76
204.642	47.54
205.108	47.84
205.574	48.24
206.04	48.42
206.506	48.13
206.972	47.84
207.438	47.09
207.903	47.49
208.369	46.61
208.835	46.65
209.301	46.39
209.766	45.64
210.232	44.8
210.697	44.12
211.163	43.56
211.628	42.6
212.094	42.05
212.559	41.47
213.024	40.31
213.49	39.65
213.955	38.71
214.42	38
214.885	36.9
215.35	35.82
215.815	33.85
216.28	32.27
216.745	30.6
217.21	28.59
217.675	26.81
218.14	25.18
218.604	23.7
219.069	22.35
219.534	21.15
219.998	20.26
220.463	19.44
220.927	18.78
221.392	18.16
221.856	17.59
222.32	17.14
222.785	16.67
223.249	16.36
223.713	16.04
224.177	15.7
224.642	15.44
225.106	15.16
225.57	14.88
226.034	14.67
226.497	14.43
226.961	14.21
227.425	13.99
227.889	13.82
228.353	13.62
228.816	13.43
229.28	13.26
229.744	13.09
230.207	12.94
230.671	12.78
231.134	12.61
231.597	12.44
232.061	12.32
232.524	12.2
232.987	12.05
233.45	11.91
233.914	11.78
234.377	11.67
234.84	11.56
235.303	11.42
235.766	11.3
236.229	11.2
236.691	11.11
237.154	11
237.617	10.88
238.08	10.8
238.542	10.7
239.005	10.59
239.468	10.48
239.93	10.38
240.393	10.3
240.855	10.2
241.317	10.11
241.78	10.04
242.242	9.94
242.704	9.86
243.166	9.75
243.629	9.66
244.091	9.59
244.553	9.52
245.015	9.44
245.477	9.36
245.939	9.29
246.4	9.21
246.862	9.14
247.324	9.08
247.786	9.01
248.247	8.95
248.709	8.89
249.17	8.81
249.632	8.73
250.093	8.65
250.555	8.58
251.016	8.53
251.477	8.46
251.939	8.39
252.4	8.34
252.861	8.28
253.322	8.22
253.783	8.19
254.244	8.14
254.705	8.1
255.166	8.08
255.627	8.05
256.088	7.99
256.549	7.95
257.009	7.9
257.47	7.85
257.931	7.81
258.391	7.76
258.852	7.7
259.312	7.65
259.773	7.61
260.233	7.54
260.694	7.49
261.154	7.45
261.614	7.41
262.074	7.37
262.534	7.31
262.994	7.27
263.455	7.23
263.915	7.19
264.374	7.14
264.834	7.08
265.294	7.05
265.754	7.01
266.214	6.97
266.673	6.93
267.133	6.9
267.593	6.87
268.052	6.83
268.512	6.8
268.971	6.77
269.431	6.75
269.89	6.73
270.349	6.71
270.809	6.69
271.268	6.67
271.727	6.65
272.186	6.62
272.645	6.59
273.104	6.57
273.563	6.55
274.022	6.53
274.481	6.5
274.94	6.47
275.399	6.45
275.857	6.42
276.316	6.39
276.775	6.36
277.233	6.34
277.692	6.31
278.15	6.28
278.609	6.26
279.067	6.23
279.525	6.2
279.984	6.18
280.442	6.15
280.9	6.15
281.358	6.12
281.816	6.11
282.274	6.1
282.732	6.09
283.19	6.08
283.648	6.07
284.106	6.07
284.564	6.07
285.021	6.07
285.479	6.07
285.937	6.07
286.394	6.06
286.852	6.06
287.309	6.05
287.767	6.04
288.224	6.03
288.682	6.01
289.139	6
289.596	5.96
290.053	5.93
290.511	5.89
290.968	5.87
291.425	5.85
291.882	5.82
292.339	5.8
292.796	5.77
293.252	5.74
293.709	5.72
294.166	5.7
294.623	5.68
295.079	5.67
295.536	5.66
295.992	5.65
296.449	5.63
296.905	5.61
297.362	5.59
297.818	5.58
298.274	5.56
298.731	5.55
299.187	5.54
299.643	5.53
300.099	5.52
300.555	5.49
301.011	5.47
301.467	5.45
301.923	5.45
302.379	5.44
302.835	5.43
303.291	5.42
303.746	5.41
304.202	5.4
304.658	5.39
305.113	5.38
305.569	5.37
306.024	5.36
306.479	5.35
306.935	5.34
307.39	5.34
307.845	5.33
308.301	5.32
308.756	5.32
309.211	5.32
309.666	5.32
310.121	5.31
310.576	5.31
311.031	5.3
311.486	5.3
311.94	5.3
312.395	5.29
312.85	5.3
313.305	5.29
313.759	5.28
314.214	5.28
314.668	5.27
315.123	5.27
315.577	5.27
316.032	5.27
316.486	5.26
316.94	5.25
317.394	5.23
317.849	5.22
318.303	5.21
318.757	5.19
319.211	5.16
319.665	5.16
320.119	5.14
320.572	5.14
321.026	5.12
321.48	5.11
321.934	5.1
322.387	5.1
322.841	5.09
323.295	5.08
323.748	5.08
324.202	5.07
324.655	5.05
325.108	5.04
325.562	5.02
326.015	5.01
326.468	5
326.921	4.98
327.374	4.96
327.827	4.95
328.28	4.94
328.733	4.93
329.186	4.93
329.639	4.91
330.092	4.91
330.545	4.91
330.997	4.9
331.45	4.9
331.903	4.91
332.355	4.9
332.808	4.9
333.26	4.9
333.713	4.91
334.165	4.91
334.617	4.92
335.069	4.92
335.522	4.93
335.974	4.94
336.426	4.96
336.878	4.95
337.33	4.95
337.782	4.97
338.234	4.96
338.686	4.95
339.137	4.96
339.589	4.95
340.041	4.95
340.493	4.93
340.944	4.92
341.396	4.9
341.847	4.88
342.299	4.87
342.75	4.84
343.201	4.83
343.653	4.81
344.104	4.79
344.555	4.77
345.006	4.75
345.457	4.74
345.908	4.72
346.359	4.72
346.81	4.72
347.261	4.71
347.712	4.7
348.163	4.7
348.613	4.69
349.064	4.67
349.515	4.66
349.965	4.65
350.416	4.65
350.866	4.65
351.317	4.64
351.767	4.62
352.217	4.61
352.668	4.61
353.118	4.6
353.568	4.62
354.018	4.64
354.468	4.63
354.918	4.64
355.368	4.63
355.818	4.64
356.268	4.64
356.718	4.65
357.168	4.66
357.617	4.66
358.067	4.67
358.517	4.66
358.966	4.66
359.416	4.67
359.865	4.67
360.315	4.69
360.764	4.69
361.213	4.68
361.663	4.68
362.112	4.68
362.561	4.7
363.01	4.71
363.459	4.7
363.908	4.71
364.357	4.71
364.806	4.72
365.255	4.74
365.703	4.75
366.152	4.77
366.601	4.78
367.05	4.79
367.498	4.79
367.947	4.79
368.395	4.82
368.844	4.82
369.292	4.83
369.74	4.84
370.189	4.86
370.637	4.87
371.085	4.88
371.533	4.89
371.981	4.91
372.429	4.92
372.877	4.95
373.325	4.96
373.773	4.98
374.221	5
374.669	5.02
375.116	5.03
375.564	5.05
376.012	5.07
376.459	5.08
376.907	5.1
377.354	5.12
377.801	5.14
378.249	5.16
378.696	5.19
379.143	5.22
379.591	5.24
380.038	5.28
380.485	5.29
380.932	5.31
381.379	5.34
381.826	5.38
382.273	5.41
382.72	5.44
383.166	5.47
383.613	5.5
384.06	5.52
384.506	5.55
384.953	5.57
385.4	5.6
385.846	5.62
386.292	5.67
386.739	5.69
387.185	5.74
387.631	5.77
388.078	5.81
388.524	5.82
388.97	5.85
389.416	5.87
389.862	5.9
390.308	5.92
390.754	5.95
391.2	5.99
391.645	6.02
392.091	6.05
392.537	6.09
392.983	6.13
393.428	6.19
393.874	6.24
394.319	6.28
394.765	6.31
395.21	6.33
395.655	6.37
396.101	6.4
396.546	6.43
396.991	6.45
397.436	6.46
397.881	6.47
398.326	6.51
398.771	6.54
399.216	6.59
399.661	6.64
400.106	6.7
400.551	6.72
400.995	6.73
401.44	6.74
401.885	6.75
402.329	6.76
402.774	6.76
403.218	6.76
403.663	6.77
404.107	6.77
404.551	6.79
404.995	6.78
405.44	6.79
405.884	6.81
406.328	6.83
406.772	6.86
407.216	6.88
407.66	6.91
408.104	6.93
408.547	6.94
408.991	6.94
409.435	6.93
409.879	6.95
410.322	6.96
410.766	6.98
411.209	6.99
411.653	6.99
412.096	7
412.54	7.01
412.983	7.02
413.426	7.03
413.869	7.05
414.312	7.08
414.756	7.09
415.199	7.1
415.642	7.13
416.085	7.16
416.527	7.18
416.97	7.19
417.413	7.19
417.856	7.18
418.298	7.17
418.741	7.18
419.184	7.17
419.626	7.17
420.069	7.18
420.511	7.17
420.953	7.16
421.396	7.15
421.838	7.15
422.28	7.19
422.722	7.2
423.164	7.2
423.606	7.21
424.048	7.21
424.49	7.24
424.932	7.24
425.374	7.24
425.816	7.24
426.258	7.23
426.699	7.19
427.141	7.14
427.582	7.13
428.024	7.15
428.465	7.15
428.907	7.16
429.348	7.13
429.789	7.13
430.231	7.12
430.672	7.12
431.113	7.14
431.554	7.18
431.995	7.22
432.436	7.21
432.877	7.21
433.318	7.19
433.759	7.19
434.2	7.21
434.64	7.24
435.081	7.24
435.522	7.25
435.962	7.27
436.403	7.29
436.843	7.31
437.284	7.32
437.724	7.36
438.164	7.38
438.604	7.41
439.045	7.43
439.485	7.44
439.925	7.46
440.365	7.46
440.805	7.48
441.245	7.48
441.685	7.51
442.125	7.56
442.564	7.58
443.004	7.64
443.444	7.67
443.883	7.7
444.323	7.72
444.762	7.77
445.202	7.85
445.641	7.88
446.081	7.93
446.52	7.95
446.959	7.99
447.398	8.03
447.837	8.06
448.276	8.1
448.716	8.14
449.154	8.2
449.593	8.25
450.032	8.27
450.471	8.29
450.91	8.33
451.349	8.37
451.787	8.4
452.226	8.4
452.664	8.4
453.103	8.41
453.541	8.42
453.98	8.42
454.418	8.4
454.856	8.38
455.295	8.38
455.733	8.34
456.171	8.31
456.609	8.3
457.047	8.28
457.485	8.28
457.923	8.26
458.361	8.26
458.798	8.27
459.236	8.26
459.674	8.27
460.111	8.26
460.549	8.26
460.987	8.26
461.424	8.27
461.862	8.26
462.299	8.24
462.736	8.23
463.173	8.21
463.611	8.19
464.048	8.2
464.485	8.2
464.922	8.2
465.359	8.22
465.796	8.19
466.233	8.19
466.67	8.2
467.106	8.2
467.543	8.22
467.98	8.22
468.416	8.24
468.853	8.23
469.29	8.24
469.726	8.24
470.162	8.24
470.599	8.25
471.035	8.26
471.471	8.27
471.907	8.28
472.344	8.29
472.78	8.3
473.216	8.31
473.652	8.32
474.088	8.34
474.523	8.36
474.959	8.37
475.395	8.38
475.831	8.37
476.266	8.36
476.702	8.38
477.138	8.37
477.573	8.37
478.008	8.36
478.444	8.35
478.879	8.34
479.314	8.33
479.75	8.32
480.185	8.33
480.62	8.34
481.055	8.35
481.49	8.34
481.925	8.34
482.36	8.32
482.795	8.31
483.229	8.32
483.664	8.31
484.099	8.32
484.534	8.33
484.968	8.33
485.403	8.33
485.837	8.34
486.271	8.36
486.706	8.38
487.14	8.42
487.574	8.45
488.009	8.49
488.443	8.51
488.877	8.55
489.311	8.57
489.745	8.61
490.179	8.66
490.613	8.7
491.046	8.75
491.48	8.81
491.914	8.85
492.348	8.91
492.781	8.96
493.215	9.03
493.648	9.11
494.082	9.21
494.515	9.29
494.948	9.38
495.382	9.49
495.815	9.59
496.248	9.71
496.681	9.83
497.114	9.95
497.547	10.08
497.98	10.21
498.413	10.35
498.846	10.48
499.279	10.64
499.711	10.8
500.144	10.95
500.577	11.11
501.009	11.29
501.442	11.48
501.874	11.68
502.306	11.88
502.739	12.08
503.171	12.31
503.603	12.55
504.036	12.8
504.468	13.05
504.9	13.32
505.332	13.59
505.764	13.87
506.196	14.16
506.627	14.45
507.059	14.77
507.491	15.1
507.923	15.43
508.354	15.78
508.786	16.11
509.217	16.47
509.649	16.84
510.08	17.23
510.512	17.6
510.943	17.98
511.374	18.38
511.805	18.77
512.237	19.19
512.668	19.59
513.099	20.01
513.53	20.43
513.961	20.88
514.391	21.29
514.822	21.72
515.253	22.17
515.684	22.61
516.114	23.05
516.545	23.48
516.975	23.94
517.406	24.39
517.836	24.83
518.267	25.29
518.697	25.73
519.127	26.16
519.558	26.58
519.988	26.99
520.418	27.45
520.848	27.87
521.278	28.29
521.708	28.62
522.138	28.99
522.567	29.37
522.997	29.74
523.427	30.1
523.857	30.45
524.286	30.82
524.716	31.16
525.145	31.47
525.575	31.77
526.004	32.09
526.433	32.45
526.863	32.76
527.292	33.04
527.721	33.31
528.15	33.55
528.579	33.81
529.008	34.06
529.437	34.31
529.866	34.53
530.295	34.77
530.724	34.99
531.152	35.19
531.581	35.38
532.01	35.56
532.438	35.71
532.867	35.9
533.295	36.05
533.723	36.17
534.152	36.28
534.58	36.38
535.008	36.47
535.436	36.56
535.865	36.64
536.293	36.71
536.721	36.78
537.149	36.85
537.576	36.9
538.004	36.97
538.432	37.04
538.86	37.1
539.287	37.16
539.715	37.22
540.143	37.28
540.57	37.32
540.998	37.41
541.425	37.46
541.852	37.51
542.28	37.54
542.707	37.59
543.134	37.64
543.561	37.67
543.988	37.72
544.415	37.76
544.842	37.81
545.269	37.87
545.696	37.9
546.123	37.94
546.549	37.98
546.976	38.03
547.403	38.04
547.829	38.07
548.256	38.13
548.682	38.15
549.108	38.16
549.535	38.18
549.961	38.18
550.387	38.19
550.813	38.17
551.24	38.18
551.666	38.2
552.092	38.21
552.518	38.21
552.943	38.19
553.369	38.2
553.795	38.19
554.221	38.15
554.646	38.12
555.072	38.04
555.498	37.99
555.923	37.94
556.349	37.85
556.774	37.79
557.199	37.71
557.625	37.64
558.05	37.54
558.475	37.45
558.9	37.37
559.325	37.26
559.75	37.18
560.175	37.07
560.6	36.93
561.025	36.84
561.449	36.67
561.874	36.52
562.299	36.35
562.723	36.2
563.148	36.02
563.572	35.86
563.997	35.69
564.421	35.49
564.846	35.32
565.27	35.15
565.694	34.93
566.118	34.73
566.542	34.52
566.966	34.32
567.39	34.08
567.814	33.86
568.238	33.6
568.662	33.36
569.086	33.13
569.509	32.88
569.933	32.63
570.357	32.38
570.78	32.15
571.204	31.9
571.627	31.65
572.05	31.45
572.474	31.22
572.897	31.02
573.32	30.79
573.743	30.59
574.166	30.39
574.589	30.2
575.012	30.02
575.435	29.81
575.858	29.67
576.281	29.5
576.704	29.33
577.126	29.17
577.549	29.04
577.972	28.9
578.394	28.75
578.817	28.61
579.239	28.5
579.661	28.38
580.084	28.27
580.506	28.12
580.928	28.01
581.35	27.9
581.772	27.8
582.194	27.67
582.616	27.57
583.038	27.46
583.46	27.36
583.882	27.28
584.303	27.18
584.725	27.09
585.147	26.98
585.568	26.88
585.99	26.81
586.411	26.72
586.833	26.63
587.254	26.54
587.675	26.46
588.096	26.39
588.518	26.3
588.939	26.24
589.36	26.17
589.781	26.13
590.202	26.08
590.623	25.99
591.043	25.94
591.464	25.88
591.885	25.83
592.305	25.8
592.726	25.76
593.147	25.72
593.567	25.66
593.987	25.62
594.408	25.55
594.828	25.51
595.248	25.49
595.669	25.45
596.089	25.41
596.509	25.34
596.929	25.28
597.349	25.22
597.769	25.16
598.189	25.12
598.608	25.07
599.028	25.03
599.448	24.97
599.867	24.88
600.287	24.8
600.706	24.73
601.126	24.67
601.545	24.59
601.965	24.52
602.384	24.44
602.803	24.34
603.222	24.24
603.641	24.13
604.061	24.01
604.48	23.92
604.898	23.81
605.317	23.7
605.736	23.57
606.155	23.45
606.574	23.31
606.992	23.19
607.411	23.06
607.829	22.91
608.248	22.8
608.666	22.69
609.085	22.57
609.503	22.44
609.921	22.31
610.339	22.2
610.758	22.09
611.176	21.98
611.594	21.84
612.012	21.7
612.43	21.62
612.847	21.5
613.265	21.38
613.683	21.25
614.101	21.13
614.518	21.02
614.936	20.92
615.353	20.81
615.771	20.72
616.188	20.64
616.606	20.54
617.023	20.45
617.44	20.35
617.857	20.27
618.274	20.19
618.691	20.12
619.108	20.05
619.525	19.98
619.942	19.92
620.359	19.86
620.776	19.79
621.192	19.74
621.609	19.68
622.026	19.63
622.442	19.59
622.859	19.55
623.275	19.54
623.691	19.52
624.108	19.49
624.524	19.47
624.94	19.43
625.356	19.44
625.772	19.42
626.188	19.42
626.604	19.39
627.02	19.37
627.436	19.37
627.852	19.34
628.268	19.3
628.683	19.25
629.099	19.24
629.514	19.22
629.93	19.18
630.345	19.14
630.761	19.09
631.176	19.05
631.591	18.99
632.007	18.91
632.422	18.84
632.837	18.77
633.252	18.69
633.667	18.58
634.082	18.47
634.497	18.33
634.911	18.21
635.326	18.09
635.741	17.96
636.155	17.83
636.57	17.7
636.984	17.53
637.399	17.36
637.813	17.19
638.228	17
638.642	16.83
639.056	16.66
639.47	16.46
639.884	16.27
640.298	16.08
640.712	15.88
641.126	15.68
641.54	15.49
641.954	15.3
642.368	15.12
642.781	14.94
643.195	14.74
643.609	14.57
644.022	14.38
644.436	14.2
644.849	14.04
645.262	13.88
645.676	13.72
646.089	13.58
646.502	13.43
646.915	13.3
647.328	13.19
647.741	13.07
648.154	12.97
648.567	12.89
648.98	12.79
649.393	12.72
649.805	12.64
650.218	12.56
650.631	12.48
651.043	12.42
651.456	12.35
651.868	12.27
652.28	12.2
652.693	12.11
653.105	12.04
653.517	11.94
653.929	11.85
654.341	11.76
654.753	11.66
655.165	11.55
655.577	11.43
655.989	11.31
656.401	11.18
656.813	11.04
657.224	10.92
657.636	10.8
658.047	10.67
658.459	10.52
658.87	10.37
659.282	10.24
659.693	10.08
660.104	9.94
660.515	9.79
660.926	9.66
661.338	9.53
661.749	9.38
662.159	9.23
662.57	9.11
662.981	8.99
663.392	8.87
663.803	8.76
664.213	8.66
664.624	8.58
665.035	8.49
665.445	8.41
665.855	8.34
666.266	8.27
666.676	8.2
667.086	8.13
667.497	8.07
667.907	8.02
668.317	7.98
668.727	7.94
669.137	7.89
669.547	7.88
669.956	7.86
670.366	7.86
670.776	7.83
671.186	7.82
671.595	7.83
672.005	7.84
672.414	7.85
672.824	7.85
673.233	7.88
673.642	7.89
674.052	7.9
674.461	7.92
674.87	7.93
675.279	7.96
675.688	7.99
676.097	8.03
676.506	8.06
676.915	8.1
677.323	8.17
677.732	8.22
678.141	8.29
678.549	8.36
678.958	8.44
679.366	8.52
679.775	8.63
680.183	8.75
680.592	8.87
681	9
681.408	9.16
681.816	9.32
682.224	9.52
682.632	9.72
683.04	9.96
683.448	10.2
683.856	10.49
684.264	10.81
684.671	11.16
685.079	11.54
685.487	11.96
685.894	12.41
686.302	12.9
686.709	13.42
687.116	13.98
687.524	14.58
687.931	15.22
688.338	15.9
688.745	16.62
689.152	17.36
689.559	18.13
689.966	18.91
690.373	19.75
690.78	20.62
691.187	21.5
691.593	22.38
692	23.27
692.407	24.18
692.813	25.08
693.22	25.98
693.626	26.9
694.032	27.8
694.439	28.73
694.845	29.62
695.251	30.5
695.657	31.37
696.063	32.26
696.469	33.14
696.875	33.97
697.281	34.81
697.687	35.64
698.093	36.44
698.498	37.25
698.904	38.03
699.31	38.78
699.715	39.56
700.12	40.29
700.526	41.01
700.931	41.7
701.337	42.41
701.742	43.07
702.147	43.74
702.552	44.4
702.957	45.03
703.362	45.67
703.767	46.3
704.172	46.88
704.577	47.45
704.981	48.02
705.386	48.57
705.791	49.13
706.195	49.65
706.6	50.14
707.004	50.64
707.408	51.12
707.813	51.58
708.217	52.04
708.621	52.5
709.025	52.94
709.43	53.36
709.834	53.83
710.237	54.22
710.641	54.67
711.045	55.07
711.449	55.46
711.853	55.87
712.256	56.26
712.66	56.63
713.064	56.99
713.467	57.33
713.87	57.69
714.274	58.03
714.677	58.36
715.08	58.66
715.484	59
715.887	59.33
716.29	59.63
716.693	59.96
717.096	60.28
717.499	60.57
717.901	60.86
718.304	61.16
718.707	61.43
719.109	61.73
719.512	62.03
719.915	62.28
720.317	62.56
720.719	62.8
721.122	63.02
721.524	63.24
721.926	63.49
722.328	63.71
722.731	63.92
723.133	64.12
723.535	64.34
723.937	64.52
724.338	64.69
724.74	64.84
725.142	64.92
725.544	65.08
725.945	65.21
726.347	65.38
726.748	65.52
727.15	65.64
727.551	65.79
727.952	65.88
728.354	66.03
728.755	66.17
729.156	66.31
729.557	66.53
729.958	66.69
730.359	66.81
730.76	66.9
731.161	67.04
731.562	67.16
731.962	67.23
732.363	67.32
732.763	67.4
733.164	67.46
733.564	67.52
733.965	67.56
734.365	67.56
734.766	67.64
735.166	67.68
735.566	67.66
735.966	67.7
736.366	67.74
736.766	67.78
737.166	67.82
737.566	67.89
737.966	67.98
738.365	68.03
738.765	68.13
739.165	68.15
739.564	68.15
739.964	68.22
740.363	68.25
740.763	68.29
741.162	68.36
741.561	68.41
741.96	68.45
742.36	68.45
742.759	68.44
743.158	68.41
743.557	68.46
743.955	68.56
744.354	68.62
744.753	68.69
745.152	68.7
745.55	68.71
745.949	68.75
746.348	68.77
746.746	68.78
747.144	68.9
747.543	68.96
747.941	69.03
748.339	69.1
748.737	69.18
749.136	69.19
749.534	69.27
749.932	69.32
750.33	69.35
750.727	69.38
751.125	69.42
751.523	69.4
751.921	69.44
752.318	69.41
752.716	69.36
753.113	69.32
753.511	69.28
753.908	69.23
754.305	69.19
754.703	69.12
755.1	69.1
755.497	69.07
755.894	69.04
756.291	69
756.688	68.98
757.085	68.96
757.482	68.93
757.878	68.94
758.275	68.96
758.672	68.97
759.068	69.01
759.465	69
759.861	69.01
760.258	69
760.654	68.96
761.05	68.96
761.447	68.97
761.843	68.92
762.239	68.88
762.635	68.84
763.031	68.81
763.427	68.79
763.822	68.71
764.218	68.67
764.614	68.65
765.01	68.65
765.405	68.63
765.801	68.61
766.196	68.61
766.592	68.62
766.987	68.65
767.382	68.67
767.778	68.65
768.173	68.68
768.568	68.67
768.963	68.7
769.358	68.71
769.753	68.74
770.148	68.72
770.542	68.71
770.937	68.74
771.332	68.71
771.726	68.66
772.121	68.62
772.515	68.63
772.91	68.65
773.304	68.6
773.699	68.58
774.093	68.5
774.487	68.52
774.881	68.56
775.275	68.55
775.669	68.58
776.063	68.57
776.457	68.59
776.851	68.53
777.245	68.55
777.638	68.59
778.032	68.59
778.425	68.64
778.819	68.62
779.212	68.57
779.606	68.55
779.999	68.51
780.392	68.53
780.786	68.57
781.179	68.64
781.572	68.62
781.965	68.63
782.358	68.6
782.751	68.6
783.143	68.66
783.536	68.76
783.929	68.79
784.322	68.82
784.714	68.85
785.107	68.87
785.499	68.86
785.891	68.89
786.284	68.87
786.676	68.95
787.068	68.94
787.46	68.91
787.852	68.85
788.245	68.89
788.636	68.93
789.028	68.9
789.42	68.85
789.812	68.88
790.204	68.8
790.595	68.83
790.987	68.8
791.378	68.87
791.77	68.89
792.161	68.93
792.553	68.93
792.944	68.93
793.335	68.98
793.726	68.97
794.117	68.93
794.508	69.03
794.899	69.04
795.29	69.04
795.681	69
796.072	68.98
796.463	68.95
796.853	68.94
797.244	68.91
797.634	68.89
798.025	68.93
798.415	68.97
798.806	68.98
799.196	69.02
799.586	69.05
799.976	69.07
800.366	69.11
800.756	69.14
801.146	69.11
801.536	69.14
801.926	69.15
802.316	69.17
802.706	69.21
803.095	69.22
803.485	69.26
803.874	69.27
804.264	69.33
804.653	69.28
805.043	69.29
805.432	69.27
805.821	69.29
806.21	69.32
806.599	69.37
806.988	69.34
807.377	69.39
807.766	69.35
808.155	69.37
808.544	69.31
808.933	69.34
809.321	69.39
809.71	69.45
810.098	69.44
810.487	69.48
810.875	69.45
811.264	69.48
811.652	69.44
812.04	69.5
812.428	69.54
812.816	69.6
813.204	69.64
813.592	69.61
813.98	69.64
814.368	69.67
814.756	69.68
815.144	69.74
815.531	69.74
815.919	69.74
816.306	69.68
816.694	69.66
817.081	69.64
817.469	69.63
817.856	69.71
818.243	69.7
818.63	69.73
819.017	69.69
819.404	69.64
819.791	69.67
820.178	69.71
820.565	69.74
820.952	69.73
821.339	69.75
821.725	69.78
822.112	69.76
822.498	69.78
822.885	69.74
823.271	69.79
823.657	69.77
824.044	69.75
824.43	69.81
824.816	69.8
825.202	69.78
825.588	69.79
825.974	69.78
826.36	69.78
826.746	69.8
827.132	69.8
827.517	69.82
827.903	69.83
828.289	69.84
828.674	69.8
829.06	69.82
829.445	69.88
829.83	69.85
830.216	69.85
830.601	69.82
830.986	69.79
831.371	69.81
831.756	69.74
832.141	69.78
832.526	69.74
832.911	69.74
833.295	69.75
833.68	69.71
834.065	69.75
834.449	69.72
834.834	69.71
835.218	69.68
835.603	69.68
835.987	69.7
836.371	69.71
836.755	69.72
837.139	69.7
837.524	69.7
837.908	69.66
838.291	69.63
838.675	69.65
839.059	69.65
839.443	69.65
839.827	69.63
840.21	69.65
840.594	69.61
840.977	69.57
841.361	69.56
841.744	69.51
842.127	69.52
842.511	69.48
842.894	69.44
843.277	69.44
843.66	69.46
844.043	69.48
844.426	69.44
844.809	69.42
845.191	69.4
845.574	69.4
845.957	69.39
846.339	69.39
846.722	69.41
847.104	69.41
847.487	69.42
847.869	69.38
848.252	69.37
848.634	69.42
849.016	69.42
849.398	69.44
849.78	69.45
850.162	69.46
850.544	69.47
850.926	69.46
851.307	69.47
851.689	69.44
852.071	69.44
852.452	69.42
852.834	69.34
853.215	69.37
853.597	69.36
853.978	69.33
854.359	69.3
854.741	69.28
855.122	69.29
855.503	69.3
855.884	69.33
856.265	69.32
856.646	69.31
857.026	69.37
857.407	69.34
857.788	69.37
858.169	69.37
858.549	69.41
858.93	69.42
859.31	69.41
859.69	69.39
860.071	69.37
860.451	69.36
860.831	69.37
861.211	69.36
861.591	69.36
861.971	69.36
862.351	69.38
862.731	69.38
863.111	69.37
863.491	69.39
863.87	69.39
864.25	69.4
864.629	69.42
865.009	69.44
865.388	69.41
865.768	69.4
866.147	69.38
866.526	69.39
866.905	69.41
867.284	69.41
867.663	69.4
868.042	69.42
868.421	69.43
868.8	69.43
869.179	69.42
869.558	69.45
869.936	69.43
870.315	69.43
870.693	69.41
871.072	69.38
871.45	69.36
871.828	69.34
872.207	69.35
872.585	69.34
872.963	69.31
873.341	69.32
873.719	69.3
874.097	69.3
874.475	69.27
874.853	69.27
875.23	69.27
875.608	69.29
875.986	69.3
876.363	69.28
876.741	69.29
877.118	69.29
877.495	69.29
877.873	69.28
878.25	69.31
878.627	69.34
879.004	69.33
879.381	69.36
879.758	69.34
880.135	69.36
880.512	69.33
880.889	69.34
881.265	69.36
881.642	69.35
882.019	69.36
882.395	69.35
882.772	69.35
883.148	69.37
883.524	69.36
883.901	69.36
884.277	69.35
884.653	69.38
885.029	69.37
885.405	69.35
885.781	69.35
886.157	69.37
886.532	69.36
886.908	69.38
887.284	69.37
887.659	69.36
888.035	69.38
888.411	69.35
888.786	69.32
889.161	69.29
889.537	69.28
889.912	69.24
890.287	69.18
890.662	69.12
891.037	69.06
891.412	69.03
891.787	68.97
892.162	68.91
892.536	68.91
892.911	68.86
893.286	68.83
893.66	68.76
894.035	68.73
894.409	68.73
894.784	68.72
895.158	68.71
895.532	68.7
895.906	68.68
896.281	68.65
896.655	68.62
897.029	68.62
897.402	68.61
897.776	68.62
898.15	68.62
898.524	68.59
898.898	68.57
899.271	68.56
899.645	68.53
900.018	68.51
900.392	68.5
900.765	68.52
901.138	68.54
901.511	68.57
901.884	68.54
902.258	68.55
902.631	68.56
903.003	68.59
903.376	68.59
903.749	68.62
904.122	68.65
904.495	68.68
904.867	68.64
905.24	68.62
905.612	68.64
905.985	68.66
906.357	68.63
906.729	68.6
907.102	68.6
907.474	68.62
907.846	68.56
908.218	68.49
908.59	68.46
908.962	68.45
909.334	68.45
909.705	68.39
910.077	68.35
910.449	68.37
910.82	68.36
911.192	68.34
911.563	68.3
911.935	68.33
912.306	68.35
912.677	68.36
913.048	68.35
913.419	68.33
913.79	68.32
914.161	68.31
914.532	68.3
914.903	68.3
915.274	68.31
915.645	68.3
916.015	68.31
916.386	68.33
916.756	68.25
917.127	68.25
917.497	68.26
917.868	68.22
918.238	68.27
918.608	68.3
918.978	68.26
919.348	68.21
919.718	68.16
920.088	68.15
920.458	68.16
920.828	68.21
921.198	68.22
921.567	68.15
921.937	68.19
922.306	68.11
922.676	68.11
923.045	68.07
923.415	68.08
923.784	68.13
924.153	68.12
924.522	68.07
924.891	68.02
925.26	67.97
925.629	67.99
925.998	67.99
926.367	67.99
926.736	67.9
927.104	67.92
927.473	67.89
927.842	67.85
928.21	67.87
928.578	67.83
928.947	67.88
929.315	67.89
929.683	67.91
930.051	67.84
930.42	67.81
930.788	67.79
931.156	67.73
931.523	67.72
931.891	67.64
932.259	67.5
932.627	67.39
932.994	67.28
933.362	67.13
933.729	66.98
934.097	66.87
934.464	66.77
934.831	66.7
935.199	66.68
935.566	66.51
935.933	66.47
936.3	66.32
936.667	66.3
937.034	66.16
937.401	66.14
937.767	66.05
938.134	66.08
938.501	66.04
938.867	66.03
939.234	66
939.6	66.06
939.967	66.13
940.333	66.34
940.699	66.45
941.065	66.68
941.431	66.81
941.798	67
942.163	67.08
942.529	67.27
942.895	67.41
943.261	67.53
943.627	67.72
943.992	67.78
944.358	67.86
944.723	67.97
945.089	67.99
945.454	68.08
945.82	68.13
946.185	68.21
946.55	68.32
946.915	68.33
947.28	68.33
947.645	68.28
948.01	68.24
948.375	68.27
948.74	68.12
949.104	68.07
949.469	67.94
949.834	67.92
950.198	67.76
950.562	67.64
950.927	67.61
951.291	67.58
951.655	67.48
952.02	67.49
952.384	67.45
952.748	67.51
953.112	67.46
953.476	67.44
953.839	67.28
954.203	67.21
954.567	67.08
954.931	67.01
955.294	66.97
955.658	66.96
956.021	66.88
956.385	66.85
956.748	66.75
957.111	66.72
957.474	66.73
957.837	66.76
958.2	66.73
958.563	66.76
958.926	66.69
959.289	66.64
959.652	66.6
960.015	66.53
960.377	66.44
960.74	66.4
961.102	66.38
961.465	66.33
961.827	66.16
962.189	66.13
962.552	66.04
962.914	65.95
963.276	65.93
963.638	65.86
964	65.87
964.362	65.92
964.724	65.92
965.085	65.91
965.447	65.82
965.809	65.84
966.17	65.93
966.532	66.03
966.893	66.1
967.255	66.1
967.616	66.14
967.977	66.17
968.338	66.07
968.699	66
969.061	65.89
969.421	65.94
969.782	66.04
970.143	65.97
970.504	65.89
970.865	65.76
971.225	65.67
971.586	65.64
971.946	65.6
972.307	65.59
972.667	65.7
973.027	65.8
973.388	65.72
973.748	65.72
974.108	65.64
974.468	65.61
974.828	65.72
975.188	65.72
975.548	65.67
975.907	65.68
976.267	65.69
976.627	65.67
976.986	65.56
977.346	65.57
977.705	65.53
978.064	65.58
978.424	65.59
978.783	65.6
979.142	65.61
979.501	65.69
979.86	65.64
980.219	65.62
980.578	65.55
980.937	65.62
981.296	65.57
981.654	65.67
982.013	65.69
982.371	65.65
982.73	65.52
983.088	65.46
983.447	65.39
983.805	65.36
984.163	65.41
984.521	65.2
984.879	65.13
985.237	65.2
985.595	65.07
985.953	65.04
986.311	65.14
986.669	65.2
987.026	65.32
987.384	65.45
987.741	65.48
988.099	65.35
988.456	65.56
988.814	65.68
989.171	65.64
989.528	65.52
989.885	65.46
990.242	65.37
990.599	65.45
990.956	65.46
991.313	65.41
991.67	65.53
992.027	65.44
992.383	65.46
992.74	65.46
993.096	65.47
993.453	65.68
993.809	65.87
994.165	65.96
994.522	65.83
994.878	65.67
995.234	65.53
995.59	65.28
995.946	65.43
996.302	65.4
996.658	65.35
997.013	65.41
997.369	65.35
997.725	65.21
998.08	65.14
998.436	65.27
998.791	65.27
999.147	65.41
999.502	65.5
999.857	65.67
1000.212	65.62
1000.567	65.68
1000.922	65.66
1001.277	65.64
1001.632	65.75
1001.987	65.73
1002.342	65.51
1002.696	65.7
1003.051	65.48
1003.406	65.34
1003.76	65.18
1004.114	65.14
1004.469	64.99
1004.823	64.94
1005.177	65.06
1005.531	64.9
1005.885	64.85
1006.239	64.87
1006.593	64.58
1006.947	64.61
1007.301	64.62
1007.655	64.58
1008.008	64.37
1008.362	64.37
1008.715	64.57
1009.069	64.35
1009.422	64.14
1009.776	64.16
1010.129	64.22
1010.482	64.5
1010.835	64.71
1011.188	64.81
1011.541	64.75
1011.894	65.02
1012.247	65.01
1012.6	64.78
1012.952	64.82
1013.305	65.04
1013.657	65.1
1014.01	65.28
1014.362	65.1
1014.715	64.93
1015.067	64.88
1015.419	65.01
1015.771	65.28
1016.123	65.38
1016.475	65.48
1016.827	65.66
1017.179	65.67
1017.531	65.69
1017.883	65.93
1018.234	66.09
1018.586	65.99
1018.938	65.77
1019.289	65.9
1019.64	65.82
1019.992	66.03
1020.343	65.89
1020.694	65.74
1021.045	65.73
1021.396	65.74
1021.747	65.25
1022.098	65.35
1022.449	65.39
1022.8	65.77
1023.151	65.42
1023.501	65.24
1023.852	65.22
1024.202	65.16
1024.553	64.91
1024.903	64.93
1025.253	64.99
1025.604	64.99
1025.954	64.49
1026.304	64.97
1026.654	64.61
1027.004	64.81
1027.354	64.76
1027.703	64.6
1028.053	64.24
1028.403	64.42
1028.753	64.67
1029.102	64.46
1029.452	64.53
1029.801	64.73
1030.15	64.36
1030.499	64.68
897.758	217.43
901.051	217.6
904.343	224.01
907.636	219.2
910.928	218.39
914.22	219.26
917.511	212.46
920.803	210.24
924.094	199.72
927.384	204.38
930.675	200.19
933.965	197.26
937.255	198.81
940.544	189.66
943.834	184.44
947.123	180.64
950.411	175.99
953.7	176.02
956.988	171.19
960.276	165.85
963.563	167.44
966.851	159.85
970.138	158.29
973.424	149.58
976.711	150.23
979.997	149.75
983.283	146.16
986.568	142.59
989.853	141.37
993.138	136.03
996.423	138.55
999.708	133.62
1002.992	135.04
1006.275	132
1009.559	131.73
1012.842	128.64
1016.125	123.69
1019.408	122.46
1022.69	124.19
1025.972	121.5
1029.254	121.65
1032.536	118.66
1035.817	115
1039.098	113.92
1042.379	114.69
1045.659	114.74
1048.939	112.68
1052.219	112.18
1055.498	112.3
1058.778	109.23
1062.057	108.77
1065.335	108.14
1068.614	106.82
1071.892	107.59
1075.17	106.7
1078.447	105.05
1081.724	105.09
1085.001	103.66
1088.278	103.25
1091.554	104.14
1094.83	103.32
1098.106	102.08
1101.382	101.42
1104.657	101.46
1107.932	101.66
1111.206	101.76
1114.481	100.43
1117.755	98.3
1121.029	98.8
1124.302	97.98
1127.575	96.23
1130.848	96.38
1134.121	96.37
1137.393	96.05
1140.665	95.56
1143.937	94.2
1147.208	93.08
1150.48	92.9
1153.75	92.37
1157.021	91.56
1160.291	91.86
1163.561	90.62
1166.831	91.38
1170.101	90.66
1173.37	89.8
1176.639	89.33
1179.907	88.96
1183.176	88.74
1186.444	88.22
1189.711	88.54
1192.979	88.61
1196.246	88.48
1199.513	88.88
1202.78	87.78
1206.046	88.21
1209.312	88.57
1212.578	88.66
1215.843	90.73
1219.108	90.35
1222.373	91.78
1225.638	92.58
1228.902	94.16
1232.166	96.03
1235.43	95.95
1238.693	97.59
1241.956	99.33
1245.219	101.4
1248.482	101.85
1251.744	100.34
1255.006	100.76
1258.268	98.06
1261.529	97.69
1264.79	96.34
1268.051	95.42
1271.312	95.77
1274.572	94.48
1277.832	92.84
1281.092	92.07
1284.351	91.48
1287.61	91.11
1290.869	91.55
1294.128	91.93
1297.386	91.45
1300.644	91.33
1303.902	89.84
1307.159	89.12
1310.416	89.29
1313.673	90.32
1316.93	89.86
1320.186	90.23
1323.442	90.84
1326.697	90.23
1329.953	89.12
1333.208	90.73
1336.463	92.29
1339.717	93.69
1342.972	94.06
1346.226	95.17
1349.479	94.13
1352.733	96.32
1355.986	96.38
1359.238	96.76
1362.491	97.09
1365.743	101.33
1368.995	100.51
1372.247	96.82
1375.498	94.92
1378.749	96.82
1382	97.77
1385.251	95.91
1388.501	95.75
1391.751	95.84
1395	94.88
1398.25	94.78
1401.499	93.55
1404.748	91.99
1407.996	91.2
1411.244	92.26
1414.492	90.73
1417.74	85.71
1420.987	84.74
1424.234	81.83
1427.481	78.54
1430.728	76.68
1433.974	73.27
1437.22	71.25
1440.465	68.55
1443.711	67.58
1446.956	65.06
1450.201	62.81
1453.445	60.56
1456.689	59.3
1459.933	57.99
1463.177	56.34
1466.42	55.18
1469.663	55.02
1472.906	53.1
1476.148	51.82
1479.391	51.83
1482.633	51.52
1485.874	51.77
1489.115	52.01
1492.356	51.7
1495.597	51.71
1498.838	52.2
1502.078	52.66
1505.318	52.75
1508.557	52.23
1511.797	54.09
1515.036	54.02
1518.274	54.35
1521.513	54.45
1524.751	54.18
1527.989	54.93
1531.227	55.08
1534.464	56.13
1537.701	55.9
1540.938	55.79
1544.174	56.94
1547.41	56.64
1550.646	57.04
1553.882	57.23
1557.117	58.3
1560.352	58.45
1563.587	58.97
1566.821	58.98
1570.055	58.62
1573.289	59.23
1576.523	59.36
1579.756	59.02
1582.989	59.98
1586.222	60.04
1589.454	60.44
1592.686	60.29
1595.918	60.19
1599.15	59.97
1602.381	60.6
1605.612	60.93
1608.843	61.05
1612.073	61.73
1615.303	62.63
1618.533	62.26
1621.762	62.02
1624.992	61.81
1628.221	61.51
1631.449	62.3
1634.678	62.77
1637.906	62.09
1641.134	62.32
1644.361	62.38
1647.588	62.02
1650.815	62.08
1654.042	62.29
1657.269	62.57
1660.495	62.99
1663.72	62.62
1666.946	62.64
1670.171	62.61
1673.396	63.55
1676.621	63.17
1679.845	63.91
1683.069	63.6
1686.293	63.29
1689.517	63.19
1692.74	63.48
1695.963	63.19
1699.185	63.87
1702.408	63.34
1705.63	63.18
1708.852	63.38
1712.073	63.02
1715.294	62.31
1718.515	63.33
1721.736	63.21
1724.956	63.03
1728.176	62.71
1731.396	62.83
1734.616	63.19
1737.835	63.42
1741.054	62.8
1744.272	62.2
1747.491	62.49
1750.709	62.3
1753.927	61.56
1757.144	61.61
1760.361	61.3
1763.578	61.43
1766.795	61.74
1770.011	60.9
1773.227	60.57
1776.443	61.13
1779.658	60.64
1782.874	61.34
1786.089	60.75
1789.303	60.68
1792.518	60.75
1795.732	61.3
1798.945	61.68
1802.159	61.29
1805.372	61.59
1808.585	62.65
1811.797	61.9
1815.01	62.51
1818.222	62.11
1821.434	62.91
1824.645	62.75
1827.856	62.8
1831.067	62.31
1834.278	61.94
1837.488	62.64
1840.698	62.49
1843.908	61.96
1847.117	63.07
1850.326	62.47
1853.535	62.74
1856.744	61.74
1859.952	61.75
1863.16	60.89
1866.368	59.5
1869.575	59.16
1872.782	56.86
1875.989	55.21
1879.196	54.01
1882.402	51.47
1885.608	51.56
1888.814	49.09
1892.019	48.74
1895.224	46.91
1898.429	46.63
1901.634	46.17
1904.838	45.18
1908.042	45.04
1911.246	45.37
1914.449	45.45
1917.652	44.98
1920.855	45.01
1924.058	43.72
1927.26	42.34
1930.462	43.09
1933.664	43.14
1936.865	44.17
1940.066	42.28
1943.267	42.82
1946.467	42.17
1949.668	41.81
1952.868	43.17
1956.067	42.57
1959.267	44.76
1962.466	45.27
1965.665	46.28
1968.863	46.94
1972.061	46.75
1975.259	48.02
1978.457	48.31
1981.654	48.97
1984.852	50.11
1988.048	50.02
1991.245	50.76
1994.441	51.64
1997.637	52.33
2000.833	52.69
2004.028	52.43
2007.223	53.83
2010.418	56.36
2013.613	59.04
2016.807	61.02
2020.001	62.09
2023.194	64.5
2026.388	66.83
2029.581	70.09
2032.774	71.5
2035.966	74.32
2039.158	77.31
2042.35	77.68
2045.542	78.85
2048.733	80.5
2051.924	79.74
2055.115	80.86
2058.306	80.78
2061.496	80.62
2064.686	80.51
2067.875	81.89
2071.065	82.88
2074.254	82.4
2077.442	85.02
2080.631	84.33
2083.819	85.01
2087.007	89.56
2090.195	90.47
2093.382	90.33
2096.569	91.67
2099.756	93.18
2102.942	95
2106.128	95.22
2109.314	99.04
2112.5	99.59
2115.685	97.06
2118.87	97.37
2122.055	98.43
2125.239	99.45
2128.424	102.81
2131.608	100.87
2134.791	99.05
2137.974	101.74
2141.157	103.08
2144.34	101.36
2147.523	104.54
2150.705	111.03
2153.887	110.34
2157.068	110.87
2160.25	112.96
2163.431	112.67
2166.611	115.22
2169.792	117.77
2172.972	119.34
2176.152	120.76
2179.331	122.65
2182.511	122.57
2185.69	123.95
2188.868	127.85
2192.047	130.44
2195.225	133.55
2198.403	129.85
2201.58	130.86
2204.758	135.87
2207.935	132.18
2211.111	135.64
2214.288	137.15
2217.464	136.35
2220.64	137.46
2223.815	136.05
2226.991	130.38
2230.166	132.39
2233.34	139.51
2236.515	137.65
2239.689	135.54
2242.863	139.55
2246.036	136.36
2249.209	136.12
2252.382	137.05
2255.555	141.49
2258.727	143.12
2261.9	148.72
2265.071	148.58
2268.243	149.11
2271.414	156.49
2274.585	159.48
2277.756	157.48
2280.926	164.9
2284.096	168
2287.266	169.35
2290.436	165.95
2293.605	172.13
2296.774	178.56
2299.942	177.74
2303.111	182.64
2306.279	187.01
2309.447	186.62
2312.614	186.32
2315.781	186.12
2318.948	187.01
2322.115	191.75
2325.281	195.52
2328.447	193.71
2331.613	197.07
2334.779	201.05
2337.944	199.29
2341.109	201.88
2344.274	204.66
2347.438	210.15
2350.602	218.45
2353.766	229.6
2356.929	227.09
2360.092	239.85
2363.255	236.18
2366.418	238.32
2369.58	242.34
2372.742	249.29
2375.904	248.77
2379.066	255.18
2382.227	271.23
2385.388	258.24
2388.548	252.48
2391.709	253.38
2394.869	251.97
2398.029	254.8
2401.188	249.74
2404.347	253.05
2407.506	261.04
2410.665	252.49
2413.823	257.85
2416.981	258.04
2420.139	253.11
2423.296	268.85
2426.453	284.76
2429.61	267.19
2432.767	285.42
2435.923	303.49
2439.079	297.63
2442.235	298.31
2445.391	311.57
2448.546	300.18
2451.701	317.85
2454.855	334.22
2458.009	303.33
2461.163	308.07
2464.317	314.86
2467.471	310.52
2470.624	314.38
2473.777	306.99
2476.929	305.78
2480.082	305.59
2483.234	325.5
2486.385	334.14
2489.537	341.27
2492.688	366.26
2495.839	357.78
2498.989	375.3
2502.14	372.32
2505.29	361.37
2508.439	389.43
2511.589	389.57
2514.738	397.29
2517.887	387.73
2521.035	361.66
2524.183	353.78
2527.331	358.58
2530.479	350.46
2533.627	354.74
