Data from C_2_hir_il_4n_054_Splice17_16.txt Node
Date: Sat Feb 29 14:32:45 EST 2020
User: sa697716
Spectrometer: FLMS03696
Trigger mode: 0
Integration Time (sec): 3.180400E-1
Scans to average: 20
Electric dark correction enabled: true
Nonlinearity correction enabled: true
Boxcar width: 5
XAxis mode: Wavelengths
Number of Pixels in Spectrum: 2048
>>>>>Begin Spectral Data<<<<<
187.83	-14.89
188.298	-28.53
188.766	-4.46
189.233	-17.5
189.701	-16.82
190.169	-10.79
190.636	-24.62
191.104	-57.07
191.571	-259.15
192.039	-25.19
192.506	258.98
192.974	3394.46
193.441	-186.15
193.908	93.72
194.375	59.9
194.842	18.69
195.31	44.93
195.777	42.01
196.244	9.31
196.711	17.06
197.177	16.29
197.644	16.96
198.111	16.57
198.578	16.68
199.045	17.3
199.511	18.07
199.978	18.34
200.445	18
200.911	18.28
201.378	18.63
201.844	19.18
202.31	19.59
202.777	20.36
203.243	21.12
203.709	21.62
204.176	21.75
204.642	21.58
205.108	21.68
205.574	22.14
206.04	22.06
206.506	21.99
206.972	22.03
207.438	22.15
207.903	21.89
208.369	21.94
208.835	21.78
209.301	21.34
209.766	21.2
210.232	21.51
210.697	21.48
211.163	21.62
211.628	21.44
212.094	20.99
212.559	20.51
213.024	20.35
213.49	20.14
213.955	20.19
214.42	20.37
214.885	20.27
215.35	19.69
215.815	19
216.28	18.44
216.745	18.24
217.21	17.69
217.675	17.25
218.14	16.57
218.604	15.84
219.069	15.35
219.534	14.85
219.998	14.54
220.463	14.32
220.927	14.08
221.392	13.81
221.856	13.54
222.32	13.36
222.785	13.16
223.249	13
223.713	12.93
224.177	12.76
224.642	12.68
225.106	12.55
225.57	12.39
226.034	12.27
226.497	12.15
226.961	11.99
227.425	11.84
227.889	11.7
228.353	11.56
228.816	11.42
229.28	11.27
229.744	11.13
230.207	10.98
230.671	10.83
231.134	10.7
231.597	10.58
232.061	10.48
232.524	10.38
232.987	10.26
233.45	10.14
233.914	10.03
234.377	9.94
234.84	9.84
235.303	9.75
235.766	9.66
236.229	9.58
236.691	9.5
237.154	9.41
237.617	9.32
238.08	9.26
238.542	9.17
239.005	9.08
239.468	8.98
239.93	8.92
240.393	8.85
240.855	8.78
241.317	8.7
241.78	8.63
242.242	8.55
242.704	8.48
243.166	8.42
243.629	8.36
244.091	8.3
244.553	8.27
245.015	8.18
245.477	8.12
245.939	8.06
246.4	8
246.862	7.94
247.324	7.9
247.786	7.86
248.247	7.8
248.709	7.76
249.17	7.72
249.632	7.65
250.093	7.6
250.555	7.57
251.016	7.53
251.477	7.49
251.939	7.45
252.4	7.42
252.861	7.38
253.322	7.35
253.783	7.32
254.244	7.28
254.705	7.26
255.166	7.25
255.627	7.22
256.088	7.18
256.549	7.17
257.009	7.14
257.47	7.11
257.931	7.08
258.391	7.05
258.852	7.01
259.312	7
259.773	6.97
260.233	6.94
260.694	6.92
261.154	6.9
261.614	6.87
262.074	6.85
262.534	6.82
262.994	6.81
263.455	6.79
263.915	6.78
264.374	6.75
264.834	6.73
265.294	6.7
265.754	6.67
266.214	6.65
266.673	6.64
267.133	6.62
267.593	6.61
268.052	6.58
268.512	6.57
268.971	6.55
269.431	6.55
269.89	6.54
270.349	6.53
270.809	6.52
271.268	6.51
271.727	6.5
272.186	6.48
272.645	6.47
273.104	6.46
273.563	6.45
274.022	6.44
274.481	6.43
274.94	6.41
275.399	6.41
275.857	6.4
276.316	6.39
276.775	6.37
277.233	6.36
277.692	6.35
278.15	6.33
278.609	6.31
279.067	6.28
279.525	6.26
279.984	6.25
280.442	6.23
280.9	6.2
281.358	6.19
281.816	6.18
282.274	6.17
282.732	6.16
283.19	6.14
283.648	6.14
284.106	6.13
284.564	6.14
285.021	6.13
285.479	6.13
285.937	6.12
286.394	6.12
286.852	6.12
287.309	6.1
287.767	6.1
288.224	6.09
288.682	6.08
289.139	6.08
289.596	6.06
290.053	6.04
290.511	6.02
290.968	6.01
291.425	5.99
291.882	5.97
292.339	5.95
292.796	5.94
293.252	5.92
293.709	5.9
294.166	5.88
294.623	5.86
295.079	5.85
295.536	5.84
295.992	5.81
296.449	5.81
296.905	5.79
297.362	5.78
297.818	5.77
298.274	5.76
298.731	5.75
299.187	5.74
299.643	5.73
300.099	5.72
300.555	5.7
301.011	5.69
301.467	5.68
301.923	5.67
302.379	5.66
302.835	5.65
303.291	5.64
303.746	5.64
304.202	5.62
304.658	5.62
305.113	5.61
305.569	5.6
306.024	5.6
306.479	5.59
306.935	5.58
307.39	5.58
307.845	5.56
308.301	5.56
308.756	5.55
309.211	5.56
309.666	5.56
310.121	5.56
310.576	5.57
311.031	5.56
311.486	5.57
311.94	5.57
312.395	5.57
312.85	5.57
313.305	5.56
313.759	5.56
314.214	5.54
314.668	5.54
315.123	5.55
315.577	5.55
316.032	5.54
316.486	5.54
316.94	5.54
317.394	5.53
317.849	5.53
318.303	5.54
318.757	5.53
319.211	5.52
319.665	5.51
320.119	5.49
320.572	5.49
321.026	5.48
321.48	5.46
321.934	5.46
322.387	5.46
322.841	5.45
323.295	5.44
323.748	5.44
324.202	5.43
324.655	5.43
325.108	5.42
325.562	5.4
326.015	5.39
326.468	5.38
326.921	5.36
327.374	5.35
327.827	5.34
328.28	5.33
328.733	5.32
329.186	5.31
329.639	5.3
330.092	5.29
330.545	5.28
330.997	5.27
331.45	5.27
331.903	5.26
332.355	5.26
332.808	5.27
333.26	5.27
333.713	5.28
334.165	5.28
334.617	5.29
335.069	5.3
335.522	5.31
335.974	5.31
336.426	5.32
336.878	5.32
337.33	5.32
337.782	5.32
338.234	5.31
338.686	5.3
339.137	5.3
339.589	5.3
340.041	5.3
340.493	5.3
340.944	5.3
341.396	5.3
341.847	5.29
342.299	5.28
342.75	5.26
343.201	5.25
343.653	5.25
344.104	5.24
344.555	5.23
345.006	5.22
345.457	5.2
345.908	5.19
346.359	5.18
346.81	5.18
347.261	5.16
347.712	5.18
348.163	5.18
348.613	5.16
349.064	5.15
349.515	5.15
349.965	5.14
350.416	5.13
350.866	5.14
351.317	5.13
351.767	5.14
352.217	5.14
352.668	5.13
353.118	5.12
353.568	5.14
354.018	5.15
354.468	5.15
354.918	5.16
355.368	5.17
355.818	5.16
356.268	5.16
356.718	5.17
357.168	5.17
357.617	5.18
358.067	5.18
358.517	5.18
358.966	5.19
359.416	5.2
359.865	5.21
360.315	5.22
360.764	5.24
361.213	5.25
361.663	5.26
362.112	5.29
362.561	5.3
363.01	5.33
363.459	5.34
363.908	5.35
364.357	5.36
364.806	5.38
365.255	5.4
365.703	5.42
366.152	5.46
366.601	5.48
367.05	5.51
367.498	5.54
367.947	5.58
368.395	5.64
368.844	5.68
369.292	5.73
369.74	5.78
370.189	5.83
370.637	5.87
371.085	5.93
371.533	5.98
371.981	6.04
372.429	6.09
372.877	6.14
373.325	6.19
373.773	6.25
374.221	6.33
374.669	6.39
375.116	6.43
375.564	6.49
376.012	6.56
376.459	6.64
376.907	6.72
377.354	6.79
377.801	6.85
378.249	6.92
378.696	7
379.143	7.07
379.591	7.14
380.038	7.22
380.485	7.31
380.932	7.37
381.379	7.43
381.826	7.49
382.273	7.56
382.72	7.64
383.166	7.72
383.613	7.79
384.06	7.84
384.506	7.9
384.953	7.96
385.4	8
385.846	8.06
386.292	8.12
386.739	8.17
387.185	8.23
387.631	8.28
388.078	8.32
388.524	8.35
388.97	8.39
389.416	8.43
389.862	8.46
390.308	8.49
390.754	8.52
391.2	8.55
391.645	8.59
392.091	8.61
392.537	8.62
392.983	8.64
393.428	8.68
393.874	8.7
394.319	8.72
394.765	8.73
395.21	8.73
395.655	8.73
396.101	8.73
396.546	8.73
396.991	8.73
397.436	8.72
397.881	8.72
398.326	8.73
398.771	8.74
399.216	8.74
399.661	8.75
400.106	8.77
400.551	8.76
400.995	8.75
401.44	8.72
401.885	8.7
402.329	8.69
402.774	8.65
403.218	8.63
403.663	8.59
404.107	8.58
404.551	8.57
404.995	8.53
405.44	8.49
405.884	8.46
406.328	8.44
406.772	8.43
407.216	8.42
407.66	8.41
408.104	8.39
408.547	8.37
408.991	8.33
409.435	8.29
409.879	8.28
410.322	8.27
410.766	8.27
411.209	8.25
411.653	8.22
412.096	8.2
412.54	8.18
412.983	8.15
413.426	8.14
413.869	8.14
414.312	8.14
414.756	8.14
415.199	8.15
415.642	8.16
416.085	8.17
416.527	8.18
416.97	8.19
417.413	8.18
417.856	8.17
418.298	8.15
418.741	8.14
419.184	8.13
419.626	8.1
420.069	8.09
420.511	8.06
420.953	8.03
421.396	8.02
421.838	8
422.28	8.02
422.722	8.02
423.164	8.02
423.606	8.02
424.048	8.01
424.49	8.02
424.932	8.01
425.374	8.01
425.816	8
426.258	7.98
426.699	7.95
427.141	7.9
427.582	7.87
428.024	7.84
428.465	7.83
428.907	7.81
429.348	7.79
429.789	7.78
430.231	7.75
430.672	7.76
431.113	7.75
431.554	7.75
431.995	7.75
432.436	7.76
432.877	7.76
433.318	7.77
433.759	7.76
434.2	7.75
434.64	7.76
435.081	7.75
435.522	7.76
435.962	7.78
436.403	7.79
436.843	7.81
437.284	7.83
437.724	7.87
438.164	7.87
438.604	7.9
439.045	7.92
439.485	7.93
439.925	7.98
440.365	7.96
440.805	7.96
441.245	7.96
441.685	7.98
442.125	8
442.564	8.01
443.004	8.03
443.444	8.04
443.883	8.05
444.323	8.07
444.762	8.1
445.202	8.17
445.641	8.2
446.081	8.26
446.52	8.29
446.959	8.29
447.398	8.32
447.837	8.38
448.276	8.38
448.716	8.41
449.154	8.46
449.593	8.48
450.032	8.49
450.471	8.51
450.91	8.51
451.349	8.53
451.787	8.56
452.226	8.55
452.664	8.54
453.103	8.58
453.541	8.61
453.98	8.61
454.418	8.61
454.856	8.6
455.295	8.59
455.733	8.59
456.171	8.59
456.609	8.59
457.047	8.61
457.485	8.61
457.923	8.6
458.361	8.59
458.798	8.59
459.236	8.59
459.674	8.6
460.111	8.62
460.549	8.62
460.987	8.63
461.424	8.63
461.862	8.64
462.299	8.64
462.736	8.65
463.173	8.65
463.611	8.65
464.048	8.65
464.485	8.63
464.922	8.63
465.359	8.64
465.796	8.61
466.233	8.62
466.67	8.62
467.106	8.61
467.543	8.63
467.98	8.61
468.416	8.62
468.853	8.63
469.29	8.67
469.726	8.68
470.162	8.68
470.599	8.72
471.035	8.76
471.471	8.74
471.907	8.76
472.344	8.75
472.78	8.77
473.216	8.76
473.652	8.77
474.088	8.79
474.523	8.78
474.959	8.77
475.395	8.77
475.831	8.74
476.266	8.75
476.702	8.75
477.138	8.74
477.573	8.74
478.008	8.73
478.444	8.72
478.879	8.71
479.314	8.71
479.75	8.72
480.185	8.73
480.62	8.73
481.055	8.74
481.49	8.75
481.925	8.77
482.36	8.77
482.795	8.79
483.229	8.8
483.664	8.81
484.099	8.84
484.534	8.84
484.968	8.85
485.403	8.86
485.837	8.88
486.271	8.91
486.706	8.93
487.14	8.97
487.574	9
488.009	9.04
488.443	9.08
488.877	9.12
489.311	9.17
489.745	9.24
490.179	9.29
490.613	9.34
491.046	9.41
491.48	9.48
491.914	9.54
492.348	9.61
492.781	9.68
493.215	9.77
493.648	9.86
494.082	9.96
494.515	10.05
494.948	10.15
495.382	10.27
495.815	10.38
496.248	10.5
496.681	10.63
497.114	10.76
497.547	10.9
497.98	11.04
498.413	11.16
498.846	11.3
499.279	11.45
499.711	11.61
500.144	11.78
500.577	11.94
501.009	12.11
501.442	12.29
501.874	12.49
502.306	12.69
502.739	12.88
503.171	13.11
503.603	13.35
504.036	13.59
504.468	13.85
504.9	14.09
505.332	14.35
505.764	14.62
506.196	14.89
506.627	15.16
507.059	15.43
507.491	15.74
507.923	16.02
508.354	16.3
508.786	16.62
509.217	16.91
509.649	17.24
510.08	17.57
510.512	17.9
510.943	18.24
511.374	18.58
511.805	18.92
512.237	19.27
512.668	19.64
513.099	20
513.53	20.35
513.961	20.72
514.391	21.07
514.822	21.42
515.253	21.77
515.684	22.1
516.114	22.46
516.545	22.81
516.975	23.16
517.406	23.51
517.836	23.85
518.267	24.2
518.697	24.51
519.127	24.87
519.558	25.19
519.988	25.51
520.418	25.84
520.848	26.14
521.278	26.47
521.708	26.74
522.138	27.01
522.567	27.28
522.997	27.56
523.427	27.84
523.857	28.09
524.286	28.35
524.716	28.6
525.145	28.84
525.575	29.06
526.004	29.28
526.433	29.51
526.863	29.72
527.292	29.94
527.721	30.11
528.15	30.27
528.579	30.44
529.008	30.61
529.437	30.76
529.866	30.92
530.295	31.08
530.724	31.24
531.152	31.37
531.581	31.5
532.01	31.61
532.438	31.74
532.867	31.88
533.295	32
533.723	32.12
534.152	32.22
534.58	32.31
535.008	32.38
535.436	32.44
535.865	32.51
536.293	32.6
536.721	32.65
537.149	32.71
537.576	32.75
538.004	32.79
538.432	32.82
538.86	32.86
539.287	32.89
539.715	32.94
540.143	32.98
540.57	33.01
540.998	33.03
541.425	33.05
541.852	33.07
542.28	33.1
542.707	33.13
543.134	33.14
543.561	33.15
543.988	33.18
544.415	33.2
544.842	33.22
545.269	33.24
545.696	33.29
546.123	33.31
546.549	33.35
546.976	33.37
547.403	33.41
547.829	33.44
548.256	33.47
548.682	33.48
549.108	33.51
549.535	33.54
549.961	33.54
550.387	33.53
550.813	33.55
551.24	33.56
551.666	33.58
552.092	33.58
552.518	33.58
552.943	33.58
553.369	33.57
553.795	33.57
554.221	33.55
554.646	33.54
555.072	33.52
555.498	33.5
555.923	33.45
556.349	33.4
556.774	33.36
557.199	33.33
557.625	33.27
558.05	33.21
558.475	33.14
558.9	33.07
559.325	33
559.75	32.94
560.175	32.86
560.6	32.77
561.025	32.7
561.449	32.6
561.874	32.5
562.299	32.4
562.723	32.31
563.148	32.21
563.572	32.11
563.997	32
564.421	31.85
564.846	31.75
565.27	31.62
565.694	31.5
566.118	31.36
566.542	31.22
566.966	31.09
567.39	30.93
567.814	30.77
568.238	30.61
568.662	30.46
569.086	30.31
569.509	30.12
569.933	29.96
570.357	29.78
570.78	29.62
571.204	29.45
571.627	29.28
572.05	29.13
572.474	28.97
572.897	28.82
573.32	28.66
573.743	28.51
574.166	28.39
574.589	28.24
575.012	28.13
575.435	27.99
575.858	27.86
576.281	27.73
576.704	27.62
577.126	27.5
577.549	27.41
577.972	27.31
578.394	27.2
578.817	27.08
579.239	27
579.661	26.91
580.084	26.83
580.506	26.75
580.928	26.68
581.35	26.6
581.772	26.55
582.194	26.46
582.616	26.37
583.038	26.3
583.46	26.24
583.882	26.15
584.303	26.06
584.725	26
585.147	25.91
585.568	25.82
585.99	25.74
586.411	25.66
586.833	25.57
587.254	25.52
587.675	25.44
588.096	25.39
588.518	25.34
588.939	25.3
589.36	25.24
589.781	25.19
590.202	25.16
590.623	25.12
591.043	25.07
591.464	25.04
591.885	25
592.305	24.97
592.726	24.91
593.147	24.89
593.567	24.82
593.987	24.79
594.408	24.75
594.828	24.72
595.248	24.69
595.669	24.65
596.089	24.63
596.509	24.58
596.929	24.53
597.349	24.49
597.769	24.44
598.189	24.43
598.608	24.36
599.028	24.32
599.448	24.28
599.867	24.21
600.287	24.15
600.706	24.09
601.126	24.04
601.545	23.99
601.965	23.93
602.384	23.87
602.803	23.78
603.222	23.72
603.641	23.66
604.061	23.59
604.48	23.51
604.898	23.44
605.317	23.38
605.736	23.3
606.155	23.22
606.574	23.14
606.992	23.04
607.411	22.96
607.829	22.84
608.248	22.76
608.666	22.67
609.085	22.58
609.503	22.49
609.921	22.39
610.339	22.3
610.758	22.21
611.176	22.12
611.594	22.04
612.012	21.97
612.43	21.92
612.847	21.83
613.265	21.75
613.683	21.66
614.101	21.57
614.518	21.48
614.936	21.4
615.353	21.31
615.771	21.23
616.188	21.15
616.606	21.07
617.023	21.01
617.44	20.93
617.857	20.84
618.274	20.76
618.691	20.7
619.108	20.66
619.525	20.61
619.942	20.57
620.359	20.54
620.776	20.49
621.192	20.44
621.609	20.39
622.026	20.36
622.442	20.34
622.859	20.31
623.275	20.3
623.691	20.27
624.108	20.25
624.524	20.23
624.94	20.19
625.356	20.16
625.772	20.16
626.188	20.17
626.604	20.14
627.02	20.13
627.436	20.12
627.852	20.09
628.268	20.07
628.683	20.04
629.099	20.03
629.514	20.01
629.93	19.99
630.345	19.95
630.761	19.88
631.176	19.85
631.591	19.78
632.007	19.72
632.422	19.66
632.837	19.58
633.252	19.49
633.667	19.37
634.082	19.27
634.497	19.14
634.911	19.02
635.326	18.92
635.741	18.79
636.155	18.66
636.57	18.52
636.984	18.36
637.399	18.21
637.813	18.05
638.228	17.9
638.642	17.75
639.056	17.59
639.47	17.4
639.884	17.23
640.298	17.04
640.712	16.87
641.126	16.69
641.54	16.52
641.954	16.36
642.368	16.19
642.781	16
643.195	15.81
643.609	15.63
644.022	15.48
644.436	15.31
644.849	15.15
645.262	15.02
645.676	14.87
646.089	14.73
646.502	14.6
646.915	14.49
647.328	14.38
647.741	14.29
648.154	14.21
648.567	14.13
648.98	14.06
649.393	14
649.805	13.9
650.218	13.84
650.631	13.78
651.043	13.72
651.456	13.66
651.868	13.6
652.28	13.54
652.693	13.46
653.105	13.39
653.517	13.32
653.929	13.26
654.341	13.19
654.753	13.1
655.165	13.01
655.577	12.9
655.989	12.8
656.401	12.68
656.813	12.55
657.224	12.44
657.636	12.32
658.047	12.18
658.459	12.04
658.87	11.9
659.282	11.77
659.693	11.63
660.104	11.51
660.515	11.37
660.926	11.25
661.338	11.12
661.749	10.98
662.159	10.85
662.57	10.72
662.981	10.59
663.392	10.48
663.803	10.37
664.213	10.25
664.624	10.15
665.035	10.04
665.445	9.94
665.855	9.85
666.266	9.79
666.676	9.69
667.086	9.63
667.497	9.56
667.907	9.5
668.317	9.43
668.727	9.38
669.137	9.34
669.547	9.32
669.956	9.28
670.366	9.26
670.776	9.24
671.186	9.23
671.595	9.23
672.005	9.24
672.414	9.23
672.824	9.25
673.233	9.28
673.642	9.29
674.052	9.31
674.461	9.32
674.87	9.35
675.279	9.36
675.688	9.39
676.097	9.42
676.506	9.46
676.915	9.52
677.323	9.57
677.732	9.62
678.141	9.68
678.549	9.76
678.958	9.88
679.366	9.97
679.775	10.1
680.183	10.22
680.592	10.36
681	10.51
681.408	10.67
681.816	10.85
682.224	11.07
682.632	11.29
683.04	11.53
683.448	11.79
683.856	12.08
684.264	12.4
684.671	12.76
685.079	13.12
685.487	13.54
685.894	13.97
686.302	14.43
686.709	14.91
687.116	15.41
687.524	15.96
687.931	16.5
688.338	17.1
688.745	17.69
689.152	18.31
689.559	18.95
689.966	19.57
690.373	20.23
690.78	20.9
691.187	21.56
691.593	22.25
692	22.92
692.407	23.61
692.813	24.29
693.22	24.97
693.626	25.62
694.032	26.29
694.439	26.97
694.845	27.61
695.251	28.25
695.657	28.88
696.063	29.51
696.469	30.13
696.875	30.7
697.281	31.25
697.687	31.83
698.093	32.39
698.498	32.92
698.904	33.48
699.31	33.98
699.715	34.5
700.12	35
700.526	35.47
700.931	35.93
701.337	36.41
701.742	36.86
702.147	37.32
702.552	37.78
702.957	38.2
703.362	38.61
703.767	39.01
704.172	39.39
704.577	39.77
704.981	40.14
705.386	40.52
705.791	40.87
706.195	41.2
706.6	41.5
707.004	41.79
707.408	42.1
707.813	42.38
708.217	42.64
708.621	42.93
709.025	43.2
709.43	43.43
709.834	43.7
710.237	43.93
710.641	44.2
711.045	44.46
711.449	44.7
711.853	44.94
712.256	45.19
712.66	45.47
713.064	45.7
713.467	45.91
713.87	46.17
714.274	46.38
714.677	46.62
715.08	46.82
715.484	47.03
715.887	47.23
716.29	47.41
716.693	47.58
717.096	47.75
717.499	47.92
717.901	48.09
718.304	48.25
718.707	48.4
719.109	48.56
719.512	48.72
719.915	48.87
720.317	49.01
720.719	49.12
721.122	49.27
721.524	49.4
721.926	49.56
722.328	49.68
722.731	49.81
723.133	49.93
723.535	50.04
723.937	50.13
724.338	50.2
724.74	50.31
725.142	50.35
725.544	50.43
725.945	50.52
726.347	50.6
726.748	50.67
727.15	50.72
727.551	50.81
727.952	50.84
728.354	50.9
728.755	51.01
729.156	51.07
729.557	51.24
729.958	51.33
730.359	51.39
730.76	51.46
731.161	51.55
731.562	51.63
731.962	51.68
732.363	51.75
732.763	51.83
733.164	51.84
733.564	51.88
733.965	51.9
734.365	51.91
734.766	51.94
735.166	51.94
735.566	51.92
735.966	51.89
736.366	51.91
736.766	51.96
737.166	52
737.566	52.03
737.966	52.02
738.365	52.02
738.765	52.06
739.165	52.05
739.564	52.08
739.964	52.1
740.363	52.18
740.763	52.16
741.162	52.11
741.561	52.1
741.96	52.11
742.36	52.16
742.759	52.14
743.158	52.14
743.557	52.16
743.955	52.17
744.354	52.2
744.753	52.18
745.152	52.22
745.55	52.31
745.949	52.33
746.348	52.37
746.746	52.41
747.144	52.48
747.543	52.53
747.941	52.6
748.339	52.67
748.737	52.72
749.136	52.75
749.534	52.79
749.932	52.78
750.33	52.77
750.727	52.77
751.125	52.73
751.523	52.72
751.921	52.71
752.318	52.7
752.716	52.65
753.113	52.6
753.511	52.58
753.908	52.56
754.305	52.52
754.703	52.52
755.1	52.48
755.497	52.5
755.894	52.5
756.291	52.48
756.688	52.44
757.085	52.46
757.482	52.45
757.878	52.44
758.275	52.45
758.672	52.5
759.068	52.51
759.465	52.53
759.861	52.51
760.258	52.47
760.654	52.44
761.05	52.43
761.447	52.39
761.843	52.33
762.239	52.32
762.635	52.27
763.031	52.23
763.427	52.16
763.822	52.14
764.218	52.12
764.614	52.07
765.01	52.06
765.405	52.05
765.801	52.02
766.196	52.04
766.592	52
766.987	52.02
767.382	52.01
767.778	52.03
768.173	52.02
768.568	51.95
768.963	51.98
769.358	51.97
769.753	51.97
770.148	51.96
770.542	51.94
770.937	51.93
771.332	51.91
771.726	51.88
772.121	51.84
772.515	51.81
772.91	51.86
773.304	51.85
773.699	51.82
774.093	51.8
774.487	51.8
774.881	51.85
775.275	51.88
775.669	51.88
776.063	51.87
776.457	51.85
776.851	51.84
777.245	51.83
777.638	51.83
778.032	51.83
778.425	51.82
778.819	51.84
779.212	51.77
779.606	51.73
779.999	51.72
780.392	51.73
780.786	51.77
781.179	51.81
781.572	51.79
781.965	51.85
782.358	51.84
782.751	51.86
783.143	51.87
783.536	51.93
783.929	51.97
784.322	51.99
784.714	52.02
785.107	52.02
785.499	52.03
785.891	52.04
786.284	51.97
786.676	52.03
787.068	52.02
787.46	51.99
787.852	51.98
788.245	51.97
788.636	51.98
789.028	51.92
789.42	51.89
789.812	51.89
790.204	51.87
790.595	51.92
790.987	51.92
791.378	51.94
791.77	51.98
792.161	51.98
792.553	51.96
792.944	52
793.335	52.04
793.726	52.06
794.117	52.09
794.508	52.12
794.899	52.07
795.29	52.07
795.681	52.06
796.072	52.05
796.463	52.02
796.853	52.01
797.244	51.96
797.634	51.96
798.025	51.98
798.415	51.96
798.806	51.98
799.196	52.05
799.586	52.02
799.976	52.07
800.366	52.09
800.756	52.13
801.146	52.14
801.536	52.12
801.926	52.13
802.316	52.13
802.706	52.15
803.095	52.15
803.485	52.13
803.874	52.17
804.264	52.16
804.653	52.15
805.043	52.17
805.432	52.16
805.821	52.2
806.21	52.21
806.599	52.25
806.988	52.22
807.377	52.24
807.766	52.24
808.155	52.24
808.544	52.23
808.933	52.26
809.321	52.28
809.71	52.36
810.098	52.39
810.487	52.41
810.875	52.37
811.264	52.42
811.652	52.4
812.04	52.44
812.428	52.45
812.816	52.49
813.204	52.5
813.592	52.5
813.98	52.48
814.368	52.43
814.756	52.47
815.144	52.54
815.531	52.53
815.919	52.54
816.306	52.53
816.694	52.55
817.081	52.55
817.469	52.55
817.856	52.59
818.243	52.61
818.63	52.68
819.017	52.69
819.404	52.66
819.791	52.68
820.178	52.7
820.565	52.7
820.952	52.72
821.339	52.75
821.725	52.78
822.112	52.78
822.498	52.79
822.885	52.78
823.271	52.82
823.657	52.85
824.044	52.88
824.43	52.87
824.816	52.9
825.202	52.87
825.588	52.86
825.974	52.87
826.36	52.85
826.746	52.87
827.132	52.84
827.517	52.85
827.903	52.85
828.289	52.85
828.674	52.85
829.06	52.85
829.445	52.9
829.83	52.89
830.216	52.88
830.601	52.86
830.986	52.84
831.371	52.89
831.756	52.82
832.141	52.83
832.526	52.82
832.911	52.85
833.295	52.86
833.68	52.83
834.065	52.86
834.449	52.82
834.834	52.79
835.218	52.78
835.603	52.76
835.987	52.76
836.371	52.74
836.755	52.69
837.139	52.65
837.524	52.62
837.908	52.59
838.291	52.56
838.675	52.57
839.059	52.59
839.443	52.58
839.827	52.57
840.21	52.58
840.594	52.55
840.977	52.54
841.361	52.53
841.744	52.54
842.127	52.52
842.511	52.51
842.894	52.5
843.277	52.53
843.66	52.55
844.043	52.53
844.426	52.49
844.809	52.5
845.191	52.52
845.574	52.52
845.957	52.5
846.339	52.5
846.722	52.49
847.104	52.47
847.487	52.46
847.869	52.45
848.252	52.45
848.634	52.48
849.016	52.5
849.398	52.5
849.78	52.5
850.162	52.53
850.544	52.57
850.926	52.54
851.307	52.59
851.689	52.54
852.071	52.52
852.452	52.55
852.834	52.52
853.215	52.49
853.597	52.49
853.978	52.45
854.359	52.41
854.741	52.39
855.122	52.4
855.503	52.39
855.884	52.41
856.265	52.42
856.646	52.41
857.026	52.41
857.407	52.39
857.788	52.39
858.169	52.43
858.549	52.46
858.93	52.47
859.31	52.46
859.69	52.44
860.071	52.44
860.451	52.45
860.831	52.44
861.211	52.44
861.591	52.48
861.971	52.47
862.351	52.48
862.731	52.47
863.111	52.48
863.491	52.52
863.87	52.51
864.25	52.51
864.629	52.48
865.009	52.48
865.388	52.48
865.768	52.45
866.147	52.48
866.526	52.44
866.905	52.44
867.284	52.43
867.663	52.42
868.042	52.42
868.421	52.41
868.8	52.41
869.179	52.41
869.558	52.42
869.936	52.42
870.315	52.4
870.693	52.42
871.072	52.38
871.45	52.38
871.828	52.35
872.207	52.37
872.585	52.38
872.963	52.38
873.341	52.36
873.719	52.38
874.097	52.39
874.475	52.4
874.853	52.37
875.23	52.39
875.608	52.39
875.986	52.38
876.363	52.36
876.741	52.33
877.118	52.33
877.495	52.34
877.873	52.3
878.25	52.27
878.627	52.26
879.004	52.28
879.381	52.28
879.758	52.24
880.135	52.27
880.512	52.3
880.889	52.33
881.265	52.37
881.642	52.36
882.019	52.38
882.395	52.39
882.772	52.41
883.148	52.42
883.524	52.44
883.901	52.45
884.277	52.43
884.653	52.43
885.029	52.4
885.405	52.36
885.781	52.37
886.157	52.36
886.532	52.36
886.908	52.35
887.284	52.35
887.659	52.33
888.035	52.35
888.411	52.37
888.786	52.35
889.161	52.37
889.537	52.4
889.912	52.35
890.287	52.33
890.662	52.3
891.037	52.25
891.412	52.21
891.787	52.19
892.162	52.17
892.536	52.14
892.911	52.11
893.286	52.06
893.66	52.03
894.035	52.02
894.409	52.03
894.784	52.02
895.158	52.02
895.532	52.01
895.906	51.98
896.281	51.96
896.655	51.92
897.029	51.92
897.402	51.93
897.776	51.86
898.15	51.86
898.524	51.83
898.898	51.8
899.271	51.79
899.645	51.79
900.018	51.79
900.392	51.8
900.765	51.8
901.138	51.81
901.511	51.77
901.884	51.82
902.258	51.8
902.631	51.76
903.003	51.78
903.376	51.73
903.749	51.72
904.122	51.71
904.495	51.69
904.867	51.66
905.24	51.65
905.612	51.64
905.985	51.63
906.357	51.61
906.729	51.63
907.102	51.61
907.474	51.64
907.846	51.63
908.218	51.58
908.59	51.56
908.962	51.56
909.334	51.55
909.705	51.53
910.077	51.47
910.449	51.49
910.82	51.45
911.192	51.44
911.563	51.43
911.935	51.4
912.306	51.44
912.677	51.44
913.048	51.43
913.419	51.4
913.79	51.44
914.161	51.46
914.532	51.44
914.903	51.44
915.274	51.44
915.645	51.46
916.015	51.51
916.386	51.47
916.756	51.45
917.127	51.44
917.497	51.42
917.868	51.4
918.238	51.39
918.608	51.42
918.978	51.45
919.348	51.43
919.718	51.4
920.088	51.38
920.458	51.43
920.828	51.46
921.198	51.48
921.567	51.48
921.937	51.48
922.306	51.5
922.676	51.47
923.045	51.43
923.415	51.43
923.784	51.45
924.153	51.41
924.522	51.34
924.891	51.31
925.26	51.29
925.629	51.34
925.998	51.31
926.367	51.28
926.736	51.26
927.104	51.27
927.473	51.26
927.842	51.22
928.21	51.26
928.578	51.25
928.947	51.23
929.315	51.19
929.683	51.19
930.051	51.17
930.42	51.1
930.788	51.1
931.156	51.05
931.523	51.01
931.891	50.95
932.259	50.85
932.627	50.78
932.994	50.75
933.362	50.71
933.729	50.55
934.097	50.52
934.464	50.45
934.831	50.36
935.199	50.3
935.566	50.21
935.933	50.15
936.3	50.06
936.667	50.01
937.034	49.89
937.401	49.79
937.767	49.76
938.134	49.61
938.501	49.6
938.867	49.62
939.234	49.6
939.6	49.63
939.967	49.66
940.333	49.81
940.699	49.94
941.065	50.03
941.431	50.08
941.798	50.21
942.163	50.38
942.529	50.51
942.895	50.51
943.261	50.62
943.627	50.72
943.992	50.78
944.358	50.73
944.723	50.71
945.089	50.8
945.454	50.93
945.82	50.9
946.185	50.91
946.55	50.91
946.915	50.99
947.28	50.92
947.645	50.87
948.01	50.92
948.375	50.94
948.74	50.9
949.104	50.87
949.469	50.8
949.834	50.79
950.198	50.77
950.562	50.72
950.927	50.6
951.291	50.62
951.655	50.64
952.02	50.56
952.384	50.58
952.748	50.61
953.112	50.54
953.476	50.5
953.839	50.44
954.203	50.37
954.567	50.4
954.931	50.44
955.294	50.36
955.658	50.24
956.021	50.2
956.385	50.21
956.748	50.17
957.111	50.16
957.474	50.12
957.837	50.15
958.2	50.11
958.563	50.05
958.926	49.96
959.289	49.94
959.652	50
960.015	49.98
960.377	49.86
960.74	49.8
961.102	49.77
961.465	49.81
961.827	49.69
962.189	49.67
962.552	49.59
962.914	49.6
963.276	49.61
963.638	49.54
964	49.55
964.362	49.57
964.724	49.61
965.085	49.59
965.447	49.53
965.809	49.52
966.17	49.53
966.532	49.58
966.893	49.56
967.255	49.53
967.616	49.47
967.977	49.45
968.338	49.38
968.699	49.28
969.061	49.19
969.421	49.16
969.782	49.16
970.143	49.1
970.504	49.08
970.865	49.05
971.225	49.05
971.586	49.15
971.946	49.1
972.307	49.12
972.667	49.23
973.027	49.37
973.388	49.38
973.748	49.4
974.108	49.39
974.468	49.4
974.828	49.42
975.188	49.41
975.548	49.39
975.907	49.41
976.267	49.4
976.627	49.27
976.986	49.16
977.346	49.1
977.705	49.16
978.064	49.22
978.424	49.19
978.783	49.18
979.142	49.14
979.501	49.08
979.86	49.01
980.219	48.9
980.578	48.88
980.937	48.93
981.296	48.97
981.654	48.89
982.013	48.83
982.371	48.83
982.73	48.77
983.088	48.7
983.447	48.69
983.805	48.69
984.163	48.82
984.521	48.81
984.879	48.9
985.237	48.95
985.595	48.93
985.953	48.93
986.311	48.94
986.669	49.04
987.026	49.08
987.384	49.07
987.741	49.2
988.099	49.14
988.456	49.19
988.814	49.04
989.171	48.99
989.528	48.97
989.885	48.87
990.242	48.91
990.599	48.86
990.956	48.89
991.313	48.95
991.67	48.95
992.027	48.87
992.383	48.94
992.74	49.03
993.096	48.94
993.453	48.97
993.809	49.08
994.165	48.97
994.522	48.94
994.878	48.87
995.234	48.75
995.59	48.62
995.946	48.69
996.302	48.58
996.658	48.5
997.013	48.65
997.369	48.66
997.725	48.61
998.08	48.57
998.436	48.64
998.791	48.62
999.147	48.68
999.502	48.75
999.857	48.68
1000.212	48.61
1000.567	48.6
1000.922	48.53
1001.277	48.49
1001.632	48.54
1001.987	48.59
1002.342	48.56
1002.696	48.59
1003.051	48.49
1003.406	48.32
1003.76	48.28
1004.114	48.41
1004.469	48.34
1004.823	48.34
1005.177	48.39
1005.531	48.29
1005.885	48.51
1006.239	48.47
1006.593	48.46
1006.947	48.44
1007.301	48.58
1007.655	48.69
1008.008	48.42
1008.362	48.33
1008.715	48.27
1009.069	48.12
1009.422	48.02
1009.776	47.72
1010.129	47.56
1010.482	47.57
1010.835	47.65
1011.188	47.43
1011.541	47.22
1011.894	47.24
1012.247	47.29
1012.6	47.28
1012.952	47.47
1013.305	47.46
1013.657	47.36
1014.01	47.51
1014.362	47.47
1014.715	47.22
1015.067	47.33
1015.419	47.4
1015.771	47.53
1016.123	47.49
1016.475	47.53
1016.827	47.34
1017.179	47.3
1017.531	47.34
1017.883	47.04
1018.234	46.86
1018.586	46.92
1018.938	46.69
1019.289	46.51
1019.64	46.66
1019.992	47.04
1020.343	46.75
1020.694	46.53
1021.045	46.65
1021.396	46.62
1021.747	46.85
1022.098	46.74
1022.449	46.81
1022.8	47.04
1023.151	46.93
1023.501	46.52
1023.852	46.09
1024.202	46.33
1024.553	46.55
1024.903	46.33
1025.253	46.41
1025.604	46.41
1025.954	46.4
1026.304	46.62
1026.654	46.48
1027.004	46.97
1027.354	47.33
1027.703	47.16
1028.053	46.9
1028.403	46.39
1028.753	46.56
1029.102	46.42
1029.452	46.28
1029.801	46.38
1030.15	46.14
1030.499	46.2
897.758	464.35
901.051	470.78
904.343	476.99
907.636	469.71
910.928	462.47
914.22	469.8
917.511	458.9
920.803	436.74
924.094	419.17
927.384	426.47
930.675	409.43
933.965	405.18
937.255	407.96
940.544	388.45
943.834	367.42
947.123	362.48
950.411	342.04
953.7	337.48
956.988	329.01
960.276	314.45
963.563	310.09
966.851	294.76
970.138	289.94
973.424	268.39
976.711	264.5
979.997	259.86
983.283	253.47
986.568	246.91
989.853	238.25
993.138	228.55
996.423	227.82
999.708	220.63
1002.992	221.35
1006.275	214.32
1009.559	212.99
1012.842	207.17
1016.125	200.54
1019.408	196.58
1022.69	196.44
1025.972	195.23
1029.254	192.32
1032.536	186.74
1035.817	181.83
1039.098	179.97
1042.379	176.86
1045.659	175.19
1048.939	174.82
1052.219	170.98
1055.498	169.14
1058.778	165.64
1062.057	162.23
1065.335	161.74
1068.614	160.05
1071.892	158.82
1075.17	155.63
1078.447	153.69
1081.724	152.53
1085.001	149.18
1088.278	149.29
1091.554	147.98
1094.83	146.72
1098.106	145.77
1101.382	144.17
1104.657	143.28
1107.932	142.53
1111.206	142.02
1114.481	140
1117.755	138.59
1121.029	138.23
1124.302	137.1
1127.575	134.93
1130.848	134.41
1134.121	132.66
1137.393	132.3
1140.665	131.14
1143.937	129.8
1147.208	127.43
1150.48	127.63
1153.75	126.34
1157.021	125.16
1160.291	124.17
1163.561	123.95
1166.831	123.97
1170.101	123.48
1173.37	122.1
1176.639	121.19
1179.907	120.92
1183.176	121.17
1186.444	120.9
1189.711	120.08
1192.979	121.34
1196.246	121.73
1199.513	121.47
1202.78	120.3
1206.046	120.77
1209.312	121.27
1212.578	122.65
1215.843	124.12
1219.108	124.98
1222.373	126.64
1225.638	129.04
1228.902	131.33
1232.166	134.85
1235.43	136.12
1238.693	140.35
1241.956	142.81
1245.219	146.13
1248.482	146.94
1251.744	146.76
1255.006	147.63
1258.268	144.35
1261.529	143.1
1264.79	139.56
1268.051	136.98
1271.312	136.44
1274.572	133.28
1277.832	130.39
1281.092	128.62
1284.351	126.02
1287.61	125.83
1290.869	125.23
1294.128	124.67
1297.386	124.43
1300.644	123.73
1303.902	122.41
1307.159	120.88
1310.416	121.77
1313.673	123.35
1316.93	125.38
1320.186	127.23
1323.442	128.13
1326.697	130.56
1329.953	130.45
1333.208	133.6
1336.463	139.4
1339.717	142.63
1342.972	148.5
1346.226	152.21
1349.479	152.97
1352.733	158.26
1355.986	161.44
1359.238	164.87
1362.491	164.05
1365.743	171.53
1368.995	174.12
1372.247	171.05
1375.498	169.58
1378.749	175.72
1382	175.17
1385.251	174.05
1388.501	174.26
1391.751	175.13
1395	172.5
1398.25	174.03
1401.499	172.81
1404.748	169.82
1407.996	166.08
1411.244	165.95
1414.492	162.99
1417.74	158.55
1420.987	153.68
1424.234	150.42
1427.481	144.13
1430.728	140.95
1433.974	136.69
1437.22	131.59
1440.465	127.39
1443.711	124.19
1446.956	121.14
1450.201	115.73
1453.445	110.85
1456.689	108.78
1459.933	104.69
1463.177	99.9
1466.42	98.65
1469.663	95.27
1472.906	92.8
1476.148	90.39
1479.391	88.69
1482.633	87.14
1485.874	86.12
1489.115	84.99
1492.356	83.92
1495.597	82.47
1498.838	83.06
1502.078	82.03
1505.318	81.69
1508.557	81.14
1511.797	80.57
1515.036	80.76
1518.274	79.78
1521.513	79.44
1524.751	78.94
1527.989	79.46
1531.227	79.47
1534.464	79.43
1537.701	79.11
1540.938	78.92
1544.174	79.35
1547.41	79.59
1550.646	79.42
1553.882	79.81
1557.117	79.2
1560.352	79.62
1563.587	78.8
1566.821	78.96
1570.055	78.55
1573.289	78.72
1576.523	78.52
1579.756	78.26
1582.989	78.27
1586.222	77.88
1589.454	78.43
1592.686	79
1595.918	78.18
1599.15	78.2
1602.381	78.29
1605.612	78.51
1608.843	78.21
1612.073	79.19
1615.303	79.16
1618.533	78.72
1621.762	79.06
1624.992	79.22
1628.221	78.98
1631.449	79.66
1634.678	80.17
1637.906	79.92
1641.134	80.23
1644.361	80.49
1647.588	80.16
1650.815	80.67
1654.042	81.03
1657.269	80.92
1660.495	81.11
1663.72	81.06
1666.946	81.31
1670.171	81.46
1673.396	82.43
1676.621	82.27
1679.845	81.92
1683.069	81.96
1686.293	81.6
1689.517	81.84
1692.74	82.13
1695.963	81.95
1699.185	82.31
1702.408	82.25
1705.63	82.1
1708.852	82.15
1712.073	82.02
1715.294	82.44
1718.515	82.8
1721.736	82.84
1724.956	83.59
1728.176	83.2
1731.396	83.47
1734.616	83.44
1737.835	83.39
1741.054	83.4
1744.272	83.04
1747.491	83.14
1750.709	83.58
1753.927	83.44
1757.144	84.2
1760.361	83.54
1763.578	84.57
1766.795	84.47
1770.011	84.88
1773.227	85.04
1776.443	85.81
1779.658	85.8
1782.874	86.5
1786.089	86.12
1789.303	86.45
1792.518	85.97
1795.732	86.91
1798.945	87.27
1802.159	87.57
1805.372	88.16
1808.585	89.23
1811.797	89.22
1815.01	89.98
1818.222	90.38
1821.434	91.72
1824.645	91.44
1827.856	93.57
1831.067	93.31
1834.278	93.39
1837.488	94.24
1840.698	95.06
1843.908	94.77
1847.117	96.29
1850.326	96.77
1853.535	96.98
1856.744	96.73
1859.952	98.66
1863.16	97.66
1866.368	97.24
1869.575	98.11
1872.782	97.09
1875.989	95.54
1879.196	95.37
1882.402	94.35
1885.608	94.86
1888.814	94.56
1892.019	94.98
1895.224	93.02
1898.429	94.33
1901.634	94.62
1904.838	94.94
1908.042	95.96
1911.246	96.5
1914.449	97.09
1917.652	95.49
1920.855	95.71
1924.058	95.33
1927.26	95.25
1930.462	96.23
1933.664	95.76
1936.865	96.66
1940.066	94.44
1943.267	93.49
1946.467	94.57
1949.668	94.54
1952.868	95.63
1956.067	95.62
1959.267	95.43
1962.466	95.99
1965.665	96.83
1968.863	96.92
1972.061	97.13
1975.259	99.6
1978.457	102.09
1981.654	101.52
1984.852	102.41
1988.048	103.63
1991.245	104.7
1994.441	107.35
1997.637	108.62
2000.833	111.41
2004.028	112.14
2007.223	115.25
2010.418	117.88
2013.613	122.24
2016.807	126.36
2020.001	127.85
2023.194	131.28
2026.388	136.55
2029.581	142.94
2032.774	148.43
2035.966	152.02
2039.158	157.09
2042.35	159.69
2045.542	160.51
2048.733	165.72
2051.924	165.91
2055.115	170.8
2058.306	172.94
2061.496	175.08
2064.686	176.75
2067.875	174.3
2071.065	177.73
2074.254	177.84
2077.442	183.48
2080.631	186.43
2083.819	186.42
2087.007	192.37
2090.195	194.45
2093.382	194.59
2096.569	195.49
2099.756	197.94
2102.942	203.16
2106.128	204.44
2109.314	208.14
2112.5	207.76
2115.685	207.12
2118.87	207.44
2122.055	207.92
2125.239	211.82
2128.424	218.51
2131.608	214.06
2134.791	212.68
2137.974	214.9
2141.157	217.3
2144.34	216.89
2147.523	220.27
2150.705	226
2153.887	223.83
2157.068	226.17
2160.25	227.66
2163.431	227.01
2166.611	233.25
2169.792	238.2
2172.972	240.22
2176.152	239.25
2179.331	244.38
2182.511	245.86
2185.69	250.01
2188.868	259.66
2192.047	265.77
2195.225	271.11
2198.403	269.61
2201.58	267.33
2204.758	275.74
2207.935	279.21
2211.111	286.41
2214.288	288.9
2217.464	292.36
2220.64	290.42
2223.815	292.64
2226.991	288.82
2230.166	290.13
2233.34	303.98
2236.515	309.11
2239.689	305.61
2242.863	309.18
2246.036	303.02
2249.209	310.05
2252.382	309.42
2255.555	321.18
2258.727	322.99
2261.9	331.91
2265.071	338.06
2268.243	333.91
2271.414	346.2
2274.585	352.22
2277.756	352.76
2280.926	372.59
2284.096	369.04
2287.266	369.06
2290.436	365.77
2293.605	374.06
2296.774	385.71
2299.942	385.62
2303.111	401.61
2306.279	411.87
2309.447	413.28
2312.614	417
2315.781	420.57
2318.948	430.58
2322.115	439.8
2325.281	458.15
2328.447	450.1
2331.613	458.17
2334.779	465.89
2337.944	465.63
2341.109	472.03
2344.274	479.24
2347.438	490.36
2350.602	498.92
2353.766	536.23
2356.929	536.66
2360.092	548.18
2363.255	557.84
2366.418	562.96
2369.58	572.3
2372.742	571.54
2375.904	570.18
2379.066	583.31
2382.227	613.08
2385.388	611.18
2388.548	577.2
2391.709	573.51
2394.869	584.97
2398.029	584.83
2401.188	587
2404.347	599.82
2407.506	622.72
2410.665	599.2
2413.823	605.91
2416.981	610.42
2420.139	581
2423.296	623.7
2426.453	664.29
2429.61	636.76
2432.767	676.9
2435.923	696.98
2439.079	679.07
2442.235	693.31
2445.391	708.63
2448.546	695.1
2451.701	736.94
2454.855	790.73
2458.009	698.29
2461.163	709.1
2464.317	716.59
2467.471	705.13
2470.624	730.94
2473.777	715.38
2476.929	692.82
2480.082	740.7
2483.234	779.46
2486.385	782.2
2489.537	803.47
2492.688	881.17
2495.839	870.97
2498.989	901.72
2502.14	903.98
2505.29	864.01
2508.439	947.35
2511.589	968.46
2514.738	946.42
2517.887	936.17
2521.035	879.53
2524.183	872.53
2527.331	869.51
2530.479	847.75
2533.627	861.31
