Data from C_2_dec_nc_4n_070_Splice17_15.txt Node
Date: Sat Feb 29 14:24:09 EST 2020
User: sa697716
Spectrometer: FLMS03696
Trigger mode: 0
Integration Time (sec): 3.180400E-1
Scans to average: 20
Electric dark correction enabled: true
Nonlinearity correction enabled: true
Boxcar width: 5
XAxis mode: Wavelengths
Number of Pixels in Spectrum: 2048
>>>>>Begin Spectral Data<<<<<
187.83	100.55
188.298	102.68
188.766	80.26
189.233	74.36
189.701	90.11
190.169	87
190.636	87.47
191.104	72.39
191.571	192.61
192.039	136.66
192.506	-59.33
192.974	3953.68
193.441	-278.18
193.908	88.99
194.375	48.55
194.842	80.19
195.31	18.02
195.777	-25.49
196.244	5.01
196.711	33.56
197.177	35.52
197.644	36.8
198.111	35.92
198.578	35.7
199.045	36.04
199.511	36.54
199.978	37.99
200.445	38.43
200.911	38.82
201.378	39.08
201.844	39.31
202.31	39.91
202.777	40.2
203.243	41.02
203.709	41.52
204.176	41.47
204.642	41.55
205.108	40.91
205.574	41.39
206.04	41.72
206.506	42.07
206.972	41.81
207.438	41.41
207.903	41.52
208.369	41.02
208.835	41.07
209.301	40.81
209.766	40.85
210.232	40.96
210.697	40.6
211.163	39.93
211.628	39.13
212.094	39.13
212.559	38.55
213.024	38.15
213.49	37.96
213.955	37.6
214.42	36.99
214.885	36.3
215.35	35.81
215.815	34.98
216.28	34.35
216.745	33.9
217.21	32.93
217.675	32.38
218.14	31.57
218.604	30.63
219.069	30
219.534	29.44
219.998	29
220.463	28.44
220.927	28.06
221.392	27.58
221.856	27.11
222.32	26.74
222.785	26.3
223.249	25.98
223.713	25.72
224.177	25.39
224.642	25.06
225.106	24.7
225.57	24.41
226.034	24.12
226.497	23.84
226.961	23.54
227.425	23.25
227.889	22.97
228.353	22.66
228.816	22.42
229.28	22.13
229.744	21.89
230.207	21.63
230.671	21.4
231.134	21.11
231.597	20.86
232.061	20.64
232.524	20.43
232.987	20.22
233.45	19.98
233.914	19.72
234.377	19.51
234.84	19.32
235.303	19.11
235.766	18.89
236.229	18.69
236.691	18.52
237.154	18.33
237.617	18.13
238.08	17.97
238.542	17.79
239.005	17.63
239.468	17.43
239.93	17.25
240.393	17.12
240.855	16.98
241.317	16.84
241.78	16.71
242.242	16.56
242.704	16.42
243.166	16.28
243.629	16.17
244.091	16.03
244.553	15.94
245.015	15.83
245.477	15.69
245.939	15.59
246.4	15.47
246.862	15.35
247.324	15.27
247.786	15.17
248.247	15.07
248.709	14.97
249.17	14.88
249.632	14.76
250.093	14.64
250.555	14.55
251.016	14.46
251.477	14.38
251.939	14.31
252.4	14.22
252.861	14.14
253.322	14.07
253.783	14.01
254.244	13.96
254.705	13.92
255.166	13.9
255.627	13.85
256.088	13.79
256.549	13.73
257.009	13.68
257.47	13.64
257.931	13.58
258.391	13.52
258.852	13.45
259.312	13.38
259.773	13.31
260.233	13.22
260.694	13.16
261.154	13.09
261.614	13.04
262.074	12.97
262.534	12.9
262.994	12.84
263.455	12.79
263.915	12.73
264.374	12.67
264.834	12.62
265.294	12.57
265.754	12.51
266.214	12.46
266.673	12.4
267.133	12.35
267.593	12.32
268.052	12.28
268.512	12.24
268.971	12.2
269.431	12.16
269.89	12.11
270.349	12.08
270.809	12.05
271.268	12.01
271.727	11.97
272.186	11.93
272.645	11.88
273.104	11.83
273.563	11.79
274.022	11.75
274.481	11.71
274.94	11.66
275.399	11.62
275.857	11.58
276.316	11.52
276.775	11.47
277.233	11.42
277.692	11.37
278.15	11.32
278.609	11.26
279.067	11.21
279.525	11.17
279.984	11.12
280.442	11.07
280.9	11.02
281.358	10.97
281.816	10.93
282.274	10.89
282.732	10.85
283.19	10.81
283.648	10.77
284.106	10.73
284.564	10.7
285.021	10.67
285.479	10.64
285.937	10.62
286.394	10.6
286.852	10.56
287.309	10.54
287.767	10.51
288.224	10.48
288.682	10.45
289.139	10.42
289.596	10.38
290.053	10.33
290.511	10.28
290.968	10.23
291.425	10.18
291.882	10.15
292.339	10.1
292.796	10.05
293.252	10.01
293.709	9.96
294.166	9.92
294.623	9.88
295.079	9.85
295.536	9.81
295.992	9.77
296.449	9.74
296.905	9.7
297.362	9.66
297.818	9.63
298.274	9.6
298.731	9.57
299.187	9.54
299.643	9.51
300.099	9.47
300.555	9.44
301.011	9.41
301.467	9.37
301.923	9.35
302.379	9.32
302.835	9.29
303.291	9.26
303.746	9.22
304.202	9.19
304.658	9.15
305.113	9.12
305.569	9.1
306.024	9.07
306.479	9.04
306.935	9
307.39	8.98
307.845	8.96
308.301	8.94
308.756	8.92
309.211	8.91
309.666	8.89
310.121	8.86
310.576	8.85
311.031	8.83
311.486	8.82
311.94	8.8
312.395	8.78
312.85	8.76
313.305	8.75
313.759	8.73
314.214	8.71
314.668	8.69
315.123	8.68
315.577	8.65
316.032	8.65
316.486	8.62
316.94	8.6
317.394	8.57
317.849	8.55
318.303	8.52
318.757	8.5
319.211	8.47
319.665	8.44
320.119	8.42
320.572	8.4
321.026	8.37
321.48	8.35
321.934	8.33
322.387	8.31
322.841	8.29
323.295	8.26
323.748	8.23
324.202	8.21
324.655	8.19
325.108	8.17
325.562	8.13
326.015	8.1
326.468	8.07
326.921	8.04
327.374	8.02
327.827	7.99
328.28	7.96
328.733	7.94
329.186	7.93
329.639	7.9
330.092	7.89
330.545	7.87
330.997	7.85
331.45	7.83
331.903	7.82
332.355	7.8
332.808	7.8
333.26	7.8
333.713	7.8
334.165	7.79
334.617	7.79
335.069	7.78
335.522	7.78
335.974	7.79
336.426	7.79
336.878	7.8
337.33	7.8
337.782	7.8
338.234	7.8
338.686	7.78
339.137	7.76
339.589	7.75
340.041	7.73
340.493	7.71
340.944	7.69
341.396	7.67
341.847	7.64
342.299	7.61
342.75	7.57
343.201	7.54
343.653	7.51
344.104	7.49
344.555	7.47
345.006	7.46
345.457	7.43
345.908	7.41
346.359	7.4
346.81	7.39
347.261	7.37
347.712	7.36
348.163	7.35
348.613	7.34
349.064	7.32
349.515	7.3
349.965	7.28
350.416	7.27
350.866	7.25
351.317	7.24
351.767	7.23
352.217	7.23
352.668	7.22
353.118	7.22
353.568	7.22
354.018	7.22
354.468	7.22
354.918	7.23
355.368	7.23
355.818	7.23
356.268	7.23
356.718	7.23
357.168	7.21
357.617	7.2
358.067	7.19
358.517	7.18
358.966	7.19
359.416	7.19
359.865	7.18
360.315	7.18
360.764	7.18
361.213	7.17
361.663	7.16
362.112	7.17
362.561	7.17
363.01	7.18
363.459	7.17
363.908	7.15
364.357	7.15
364.806	7.14
365.255	7.13
365.703	7.12
366.152	7.11
366.601	7.1
367.05	7.09
367.498	7.07
367.947	7.07
368.395	7.07
368.844	7.06
369.292	7.05
369.74	7.04
370.189	7.04
370.637	7.04
371.085	7.05
371.533	7.05
371.981	7.05
372.429	7.04
372.877	7.03
373.325	7.01
373.773	7.02
374.221	7.02
374.669	7.01
375.116	7
375.564	6.99
376.012	6.97
376.459	6.97
376.907	6.96
377.354	6.96
377.801	6.96
378.249	6.96
378.696	6.96
379.143	6.96
379.591	6.96
380.038	6.97
380.485	6.98
380.932	6.98
381.379	6.96
381.826	6.97
382.273	6.97
382.72	6.97
383.166	6.97
383.613	6.97
384.06	6.96
384.506	6.97
384.953	6.96
385.4	6.96
385.846	6.96
386.292	6.98
386.739	6.98
387.185	7
387.631	7
388.078	7.02
388.524	7.01
388.97	7.02
389.416	7.02
389.862	7.02
390.308	7.03
390.754	7.05
391.2	7.06
391.645	7.08
392.091	7.1
392.537	7.11
392.983	7.12
393.428	7.16
393.874	7.19
394.319	7.22
394.765	7.24
395.21	7.25
395.655	7.26
396.101	7.27
396.546	7.29
396.991	7.3
397.436	7.31
397.881	7.33
398.326	7.36
398.771	7.38
399.216	7.43
399.661	7.48
400.106	7.53
400.551	7.56
400.995	7.57
401.44	7.58
401.885	7.6
402.329	7.61
402.774	7.61
403.218	7.62
403.663	7.62
404.107	7.61
404.551	7.62
404.995	7.62
405.44	7.62
405.884	7.64
406.328	7.65
406.772	7.68
407.216	7.69
407.66	7.73
408.104	7.75
408.547	7.76
408.991	7.76
409.435	7.76
409.879	7.77
410.322	7.78
410.766	7.81
411.209	7.84
411.653	7.83
412.096	7.85
412.54	7.84
412.983	7.85
413.426	7.88
413.869	7.9
414.312	7.94
414.756	7.97
415.199	7.99
415.642	8.02
416.085	8.04
416.527	8.07
416.97	8.1
417.413	8.11
417.856	8.11
418.298	8.1
418.741	8.11
419.184	8.1
419.626	8.1
420.069	8.1
420.511	8.09
420.953	8.08
421.396	8.07
421.838	8.08
422.28	8.1
422.722	8.13
423.164	8.14
423.606	8.16
424.048	8.15
424.49	8.17
424.932	8.18
425.374	8.19
425.816	8.19
426.258	8.16
426.699	8.12
427.141	8.08
427.582	8.06
428.024	8.05
428.465	8.06
428.907	8.07
429.348	8.07
429.789	8.06
430.231	8.05
430.672	8.06
431.113	8.09
431.554	8.11
431.995	8.14
432.436	8.15
432.877	8.13
433.318	8.11
433.759	8.11
434.2	8.09
434.64	8.1
435.081	8.1
435.522	8.1
435.962	8.11
436.403	8.14
436.843	8.17
437.284	8.2
437.724	8.25
438.164	8.26
438.604	8.28
439.045	8.31
439.485	8.33
439.925	8.35
440.365	8.37
440.805	8.38
441.245	8.38
441.685	8.4
442.125	8.39
442.564	8.4
443.004	8.45
443.444	8.46
443.883	8.49
444.323	8.51
444.762	8.56
445.202	8.62
445.641	8.64
446.081	8.69
446.52	8.73
446.959	8.78
447.398	8.85
447.837	8.88
448.276	8.92
448.716	8.98
449.154	9.02
449.593	9.05
450.032	9.1
450.471	9.15
450.91	9.18
451.349	9.21
451.787	9.21
452.226	9.21
452.664	9.21
453.103	9.22
453.541	9.21
453.98	9.2
454.418	9.21
454.856	9.16
455.295	9.14
455.733	9.11
456.171	9.11
456.609	9.11
457.047	9.11
457.485	9.11
457.923	9.1
458.361	9.08
458.798	9.1
459.236	9.09
459.674	9.1
460.111	9.11
460.549	9.11
460.987	9.11
461.424	9.1
461.862	9.09
462.299	9.07
462.736	9.07
463.173	9.07
463.611	9.05
464.048	9.06
464.485	9.04
464.922	9.03
465.359	9.04
465.796	9
466.233	9
466.67	8.99
467.106	9.01
467.543	9.02
467.98	9.04
468.416	9.07
468.853	9.08
469.29	9.1
469.726	9.12
470.162	9.13
470.599	9.16
471.035	9.21
471.471	9.22
471.907	9.22
472.344	9.25
472.78	9.25
473.216	9.25
473.652	9.25
474.088	9.29
474.523	9.27
474.959	9.26
475.395	9.28
475.831	9.26
476.266	9.28
476.702	9.29
477.138	9.29
477.573	9.3
478.008	9.3
478.444	9.3
478.879	9.28
479.314	9.29
479.75	9.31
480.185	9.3
480.62	9.31
481.055	9.32
481.49	9.31
481.925	9.31
482.36	9.29
482.795	9.29
483.229	9.3
483.664	9.32
484.099	9.33
484.534	9.35
484.968	9.37
485.403	9.38
485.837	9.4
486.271	9.41
486.706	9.44
487.14	9.49
487.574	9.51
488.009	9.55
488.443	9.58
488.877	9.61
489.311	9.64
489.745	9.68
490.179	9.73
490.613	9.78
491.046	9.86
491.48	9.92
491.914	9.98
492.348	10.05
492.781	10.12
493.215	10.2
493.648	10.3
494.082	10.4
494.515	10.49
494.948	10.58
495.382	10.68
495.815	10.79
496.248	10.9
496.681	11
497.114	11.11
497.547	11.25
497.98	11.39
498.413	11.53
498.846	11.68
499.279	11.83
499.711	12
500.144	12.17
500.577	12.34
501.009	12.53
501.442	12.73
501.874	12.94
502.306	13.14
502.739	13.34
503.171	13.56
503.603	13.81
504.036	14.06
504.468	14.32
504.9	14.59
505.332	14.86
505.764	15.14
506.196	15.43
506.627	15.74
507.059	16.04
507.491	16.38
507.923	16.7
508.354	17.01
508.786	17.35
509.217	17.67
509.649	18.02
510.08	18.39
510.512	18.74
510.943	19.12
511.374	19.49
511.805	19.87
512.237	20.24
512.668	20.62
513.099	21.01
513.53	21.42
513.961	21.82
514.391	22.21
514.822	22.6
515.253	23.01
515.684	23.4
516.114	23.8
516.545	24.21
516.975	24.64
517.406	25.06
517.836	25.47
518.267	25.87
518.697	26.3
519.127	26.72
519.558	27.11
519.988	27.5
520.418	27.88
520.848	28.27
521.278	28.66
521.708	28.97
522.138	29.3
522.567	29.65
522.997	29.98
523.427	30.31
523.857	30.6
524.286	30.91
524.716	31.21
525.145	31.51
525.575	31.76
526.004	32.02
526.433	32.35
526.863	32.63
527.292	32.87
527.721	33.12
528.15	33.33
528.579	33.55
529.008	33.76
529.437	33.97
529.866	34.15
530.295	34.34
530.724	34.54
531.152	34.71
531.581	34.85
532.01	34.99
532.438	35.14
532.867	35.28
533.295	35.44
533.723	35.56
534.152	35.68
534.58	35.78
535.008	35.87
535.436	35.93
535.865	36.02
536.293	36.09
536.721	36.16
537.149	36.2
537.576	36.24
538.004	36.28
538.432	36.34
538.86	36.37
539.287	36.43
539.715	36.47
540.143	36.5
540.57	36.51
540.998	36.56
541.425	36.57
541.852	36.61
542.28	36.64
542.707	36.7
543.134	36.7
543.561	36.73
543.988	36.75
544.415	36.79
544.842	36.83
545.269	36.89
545.696	36.92
546.123	36.98
546.549	37.01
546.976	37.04
547.403	37.02
547.829	37.07
548.256	37.1
548.682	37.12
549.108	37.13
549.535	37.13
549.961	37.12
550.387	37.11
550.813	37.09
551.24	37.08
551.666	37.09
552.092	37.1
552.518	37.08
552.943	37.06
553.369	37.05
553.795	37.03
554.221	37.01
554.646	36.96
555.072	36.94
555.498	36.91
555.923	36.87
556.349	36.77
556.774	36.7
557.199	36.65
557.625	36.56
558.05	36.44
558.475	36.35
558.9	36.26
559.325	36.18
559.75	36.08
560.175	35.96
560.6	35.81
561.025	35.71
561.449	35.58
561.874	35.44
562.299	35.29
562.723	35.17
563.148	35.03
563.572	34.88
563.997	34.71
564.421	34.54
564.846	34.37
565.27	34.2
565.694	34.01
566.118	33.83
566.542	33.63
566.966	33.45
567.39	33.23
567.814	32.99
568.238	32.74
568.662	32.52
569.086	32.28
569.509	32.08
569.933	31.85
570.357	31.64
570.78	31.41
571.204	31.2
571.627	30.99
572.05	30.79
572.474	30.6
572.897	30.42
573.32	30.23
573.743	30.05
574.166	29.85
574.589	29.68
575.012	29.51
575.435	29.35
575.858	29.2
576.281	29.07
576.704	28.91
577.126	28.76
577.549	28.64
577.972	28.52
578.394	28.36
578.817	28.22
579.239	28.1
579.661	27.97
580.084	27.85
580.506	27.71
580.928	27.58
581.35	27.49
581.772	27.4
582.194	27.29
582.616	27.18
583.038	27.11
583.46	27.02
583.882	26.92
584.303	26.83
584.725	26.75
585.147	26.64
585.568	26.53
585.99	26.44
586.411	26.34
586.833	26.25
587.254	26.16
587.675	26.08
588.096	26.03
588.518	25.96
588.939	25.89
589.36	25.8
589.781	25.77
590.202	25.71
590.623	25.65
591.043	25.6
591.464	25.54
591.885	25.49
592.305	25.45
592.726	25.4
593.147	25.37
593.567	25.32
593.987	25.31
594.408	25.25
594.828	25.21
595.248	25.18
595.669	25.14
596.089	25.12
596.509	25.06
596.929	24.99
597.349	24.93
597.769	24.88
598.189	24.85
598.608	24.77
599.028	24.72
599.448	24.68
599.867	24.62
600.287	24.56
600.706	24.48
601.126	24.42
601.545	24.37
601.965	24.31
602.384	24.23
602.803	24.14
603.222	24.06
603.641	23.97
604.061	23.87
604.48	23.78
604.898	23.67
605.317	23.59
605.736	23.5
606.155	23.37
606.574	23.26
606.992	23.16
607.411	23.07
607.829	22.93
608.248	22.83
608.666	22.73
609.085	22.6
609.503	22.49
609.921	22.36
610.339	22.26
610.758	22.15
611.176	22.03
611.594	21.92
612.012	21.8
612.43	21.73
612.847	21.63
613.265	21.53
613.683	21.43
614.101	21.33
614.518	21.23
614.936	21.12
615.353	21.04
615.771	20.96
616.188	20.88
616.606	20.79
617.023	20.7
617.44	20.61
617.857	20.53
618.274	20.47
618.691	20.38
619.108	20.32
619.525	20.27
619.942	20.22
620.359	20.15
620.776	20.09
621.192	20.04
621.609	19.99
622.026	19.96
622.442	19.92
622.859	19.88
623.275	19.89
623.691	19.85
624.108	19.82
624.524	19.79
624.94	19.79
625.356	19.78
625.772	19.76
626.188	19.75
626.604	19.72
627.02	19.7
627.436	19.67
627.852	19.63
628.268	19.6
628.683	19.58
629.099	19.54
629.514	19.49
629.93	19.44
630.345	19.38
630.761	19.33
631.176	19.28
631.591	19.23
632.007	19.16
632.422	19.1
632.837	19.03
633.252	18.95
633.667	18.85
634.082	18.75
634.497	18.65
634.911	18.53
635.326	18.4
635.741	18.27
636.155	18.13
636.57	17.96
636.984	17.8
637.399	17.61
637.813	17.42
638.228	17.27
638.642	17.11
639.056	16.93
639.47	16.76
639.884	16.58
640.298	16.41
640.712	16.22
641.126	16.05
641.54	15.88
641.954	15.73
642.368	15.57
642.781	15.39
643.195	15.19
643.609	15.03
644.022	14.87
644.436	14.72
644.849	14.56
645.262	14.42
645.676	14.29
646.089	14.16
646.502	14.03
646.915	13.92
647.328	13.81
647.741	13.71
648.154	13.62
648.567	13.52
648.98	13.44
649.393	13.38
649.805	13.31
650.218	13.24
650.631	13.18
651.043	13.13
651.456	13.07
651.868	13.01
652.28	12.97
652.693	12.89
653.105	12.83
653.517	12.76
653.929	12.7
654.341	12.64
654.753	12.56
655.165	12.48
655.577	12.38
655.989	12.28
656.401	12.16
656.813	12.05
657.224	11.94
657.636	11.84
658.047	11.73
658.459	11.58
658.87	11.45
659.282	11.33
659.693	11.19
660.104	11.07
660.515	10.95
660.926	10.84
661.338	10.72
661.749	10.6
662.159	10.48
662.57	10.37
662.981	10.27
663.392	10.16
663.803	10.08
664.213	10
664.624	9.92
665.035	9.84
665.445	9.78
665.855	9.7
666.266	9.64
666.676	9.6
667.086	9.54
667.497	9.49
667.907	9.45
668.317	9.41
668.727	9.38
669.137	9.36
669.547	9.35
669.956	9.31
670.366	9.31
670.776	9.29
671.186	9.27
671.595	9.27
672.005	9.28
672.414	9.28
672.824	9.29
673.233	9.31
673.642	9.31
674.052	9.32
674.461	9.33
674.87	9.36
675.279	9.39
675.688	9.41
676.097	9.44
676.506	9.48
676.915	9.52
677.323	9.57
677.732	9.63
678.141	9.69
678.549	9.76
678.958	9.85
679.366	9.92
679.775	10.04
680.183	10.15
680.592	10.27
681	10.39
681.408	10.54
681.816	10.68
682.224	10.85
682.632	11.04
683.04	11.25
683.448	11.47
683.856	11.72
684.264	11.98
684.671	12.3
685.079	12.66
685.487	13.03
685.894	13.43
686.302	13.87
686.709	14.33
687.116	14.83
687.524	15.36
687.931	15.93
688.338	16.54
688.745	17.17
689.152	17.82
689.559	18.48
689.966	19.18
690.373	19.91
690.78	20.65
691.187	21.43
691.593	22.21
692	22.99
692.407	23.78
692.813	24.59
693.22	25.4
693.626	26.2
694.032	26.99
694.439	27.82
694.845	28.63
695.251	29.43
695.657	30.21
696.063	31
696.469	31.78
696.875	32.53
697.281	33.26
697.687	34.01
698.093	34.74
698.498	35.48
698.904	36.14
699.31	36.82
699.715	37.51
700.12	38.16
700.526	38.82
700.931	39.44
701.337	40.09
701.742	40.71
702.147	41.32
702.552	41.91
702.957	42.48
703.362	43.1
703.767	43.63
704.172	44.18
704.577	44.7
704.981	45.2
705.386	45.73
705.791	46.23
706.195	46.7
706.6	47.15
707.004	47.59
707.408	48.04
707.813	48.42
708.217	48.85
708.621	49.26
709.025	49.68
709.43	50.08
709.834	50.48
710.237	50.84
710.641	51.23
711.045	51.59
711.449	51.97
711.853	52.32
712.256	52.71
712.66	53.09
713.064	53.42
713.467	53.76
713.87	54.09
714.274	54.4
714.677	54.73
715.08	55.01
715.484	55.33
715.887	55.63
716.29	55.93
716.693	56.19
717.096	56.44
717.499	56.72
717.901	56.95
718.304	57.2
718.707	57.41
719.109	57.68
719.512	57.97
719.915	58.18
720.317	58.41
720.719	58.58
721.122	58.79
721.524	59.01
721.926	59.2
722.328	59.45
722.731	59.64
723.133	59.87
723.535	60.03
723.937	60.19
724.338	60.35
724.74	60.54
725.142	60.63
725.544	60.79
725.945	60.93
726.347	61.12
726.748	61.2
727.15	61.32
727.551	61.46
727.952	61.57
728.354	61.71
728.755	61.84
729.156	61.91
729.557	62.14
729.958	62.26
730.359	62.34
730.76	62.37
731.161	62.49
731.562	62.57
731.962	62.64
732.363	62.73
732.763	62.82
733.164	62.89
733.564	62.96
733.965	62.99
734.365	63.02
734.766	63.07
735.166	63.12
735.566	63.16
735.966	63.19
736.366	63.21
736.766	63.24
737.166	63.26
737.566	63.31
737.966	63.37
738.365	63.4
738.765	63.47
739.165	63.51
739.564	63.53
739.964	63.59
740.363	63.63
740.763	63.68
741.162	63.72
741.561	63.75
741.96	63.79
742.36	63.83
742.759	63.85
743.158	63.83
743.557	63.88
743.955	63.97
744.354	64
744.753	64.05
745.152	64.06
745.55	64.08
745.949	64.14
746.348	64.17
746.746	64.2
747.144	64.28
747.543	64.33
747.941	64.42
748.339	64.44
748.737	64.5
749.136	64.52
749.534	64.59
749.932	64.63
750.33	64.63
750.727	64.64
751.125	64.63
751.523	64.6
751.921	64.66
752.318	64.6
752.716	64.59
753.113	64.54
753.511	64.5
753.908	64.45
754.305	64.39
754.703	64.35
755.1	64.31
755.497	64.31
755.894	64.28
756.291	64.23
756.688	64.21
757.085	64.17
757.482	64.17
757.878	64.18
758.275	64.16
758.672	64.19
759.068	64.21
759.465	64.21
759.861	64.19
760.258	64.17
760.654	64.16
761.05	64.14
761.447	64.12
761.843	64.07
762.239	64.04
762.635	64.03
763.031	64.01
763.427	63.94
763.822	63.92
764.218	63.91
764.614	63.91
765.01	63.87
765.405	63.87
765.801	63.86
766.196	63.82
766.592	63.8
766.987	63.79
767.382	63.77
767.778	63.8
768.173	63.8
768.568	63.74
768.963	63.73
769.358	63.74
769.753	63.74
770.148	63.74
770.542	63.77
770.937	63.78
771.332	63.77
771.726	63.74
772.121	63.72
772.515	63.76
772.91	63.82
773.304	63.82
773.699	63.77
774.093	63.76
774.487	63.79
774.881	63.81
775.275	63.81
775.669	63.82
776.063	63.83
776.457	63.83
776.851	63.77
777.245	63.73
777.638	63.75
778.032	63.8
778.425	63.79
778.819	63.73
779.212	63.69
779.606	63.67
779.999	63.64
780.392	63.64
780.786	63.64
781.179	63.69
781.572	63.69
781.965	63.66
782.358	63.65
782.751	63.67
783.143	63.72
783.536	63.77
783.929	63.77
784.322	63.84
784.714	63.84
785.107	63.89
785.499	63.87
785.891	63.86
786.284	63.87
786.676	63.88
787.068	63.89
787.46	63.89
787.852	63.87
788.245	63.9
788.636	63.89
789.028	63.87
789.42	63.8
789.812	63.82
790.204	63.82
790.595	63.85
790.987	63.83
791.378	63.8
791.77	63.82
792.161	63.83
792.553	63.83
792.944	63.85
793.335	63.89
793.726	63.92
794.117	63.9
794.508	63.95
794.899	63.96
795.29	63.98
795.681	64.02
796.072	64.03
796.463	64.01
796.853	64.03
797.244	64.03
797.634	64.02
798.025	64.03
798.415	64.07
798.806	64.07
799.196	64.09
799.586	64.08
799.976	64.09
800.366	64.1
800.756	64.12
801.146	64.08
801.536	64.07
801.926	64.1
802.316	64.12
802.706	64.14
803.095	64.15
803.485	64.15
803.874	64.18
804.264	64.23
804.653	64.23
805.043	64.26
805.432	64.27
805.821	64.26
806.21	64.29
806.599	64.34
806.988	64.35
807.377	64.41
807.766	64.44
808.155	64.45
808.544	64.44
808.933	64.45
809.321	64.5
809.71	64.56
810.098	64.59
810.487	64.59
810.875	64.56
811.264	64.59
811.652	64.53
812.04	64.53
812.428	64.55
812.816	64.58
813.204	64.61
813.592	64.6
813.98	64.61
814.368	64.6
814.756	64.61
815.144	64.63
815.531	64.61
815.919	64.62
816.306	64.6
816.694	64.64
817.081	64.61
817.469	64.61
817.856	64.65
818.243	64.63
818.63	64.68
819.017	64.68
819.404	64.68
819.791	64.72
820.178	64.73
820.565	64.76
820.952	64.74
821.339	64.78
821.725	64.81
822.112	64.79
822.498	64.81
822.885	64.8
823.271	64.83
823.657	64.85
824.044	64.83
824.43	64.88
824.816	64.86
825.202	64.83
825.588	64.84
825.974	64.83
826.36	64.85
826.746	64.88
827.132	64.84
827.517	64.84
827.903	64.83
828.289	64.85
828.674	64.82
829.06	64.84
829.445	64.88
829.83	64.89
830.216	64.87
830.601	64.82
830.986	64.78
831.371	64.82
831.756	64.76
832.141	64.79
832.526	64.73
832.911	64.77
833.295	64.75
833.68	64.7
834.065	64.69
834.449	64.67
834.834	64.67
835.218	64.67
835.603	64.65
835.987	64.65
836.371	64.66
836.755	64.69
837.139	64.64
837.524	64.66
837.908	64.64
838.291	64.56
838.675	64.54
839.059	64.54
839.443	64.52
839.827	64.52
840.21	64.54
840.594	64.48
840.977	64.45
841.361	64.46
841.744	64.48
842.127	64.47
842.511	64.5
842.894	64.52
843.277	64.53
843.66	64.53
844.043	64.52
844.426	64.49
844.809	64.49
845.191	64.5
845.574	64.48
845.957	64.39
846.339	64.42
846.722	64.44
847.104	64.42
847.487	64.43
847.869	64.43
848.252	64.4
848.634	64.43
849.016	64.45
849.398	64.45
849.78	64.45
850.162	64.5
850.544	64.49
850.926	64.47
851.307	64.47
851.689	64.43
852.071	64.42
852.452	64.43
852.834	64.41
853.215	64.39
853.597	64.38
853.978	64.36
854.359	64.34
854.741	64.32
855.122	64.33
855.503	64.34
855.884	64.38
856.265	64.36
856.646	64.32
857.026	64.35
857.407	64.32
857.788	64.33
858.169	64.32
858.549	64.31
858.93	64.35
859.31	64.34
859.69	64.32
860.071	64.3
860.451	64.3
860.831	64.31
861.211	64.28
861.591	64.28
861.971	64.26
862.351	64.29
862.731	64.26
863.111	64.23
863.491	64.24
863.87	64.22
864.25	64.25
864.629	64.21
865.009	64.22
865.388	64.19
865.768	64.19
866.147	64.23
866.526	64.22
866.905	64.24
867.284	64.22
867.663	64.19
868.042	64.21
868.421	64.22
868.8	64.26
869.179	64.25
869.558	64.29
869.936	64.28
870.315	64.25
870.693	64.24
871.072	64.21
871.45	64.21
871.828	64.22
872.207	64.24
872.585	64.17
872.963	64.12
873.341	64.13
873.719	64.1
874.097	64.08
874.475	64.06
874.853	64.03
875.23	64.03
875.608	64.07
875.986	64.05
876.363	64.03
876.741	64.08
877.118	64.12
877.495	64.12
877.873	64.14
878.25	64.17
878.627	64.19
879.004	64.24
879.381	64.3
879.758	64.25
880.135	64.27
880.512	64.29
880.889	64.27
881.265	64.28
881.642	64.32
882.019	64.35
882.395	64.36
882.772	64.35
883.148	64.33
883.524	64.32
883.901	64.32
884.277	64.31
884.653	64.3
885.029	64.28
885.405	64.25
885.781	64.2
886.157	64.19
886.532	64.19
886.908	64.23
887.284	64.23
887.659	64.23
888.035	64.26
888.411	64.23
888.786	64.22
889.161	64.22
889.537	64.24
889.912	64.21
890.287	64.17
890.662	64.14
891.037	64.07
891.412	64.04
891.787	64.01
892.162	63.96
892.536	63.94
892.911	63.91
893.286	63.84
893.66	63.8
894.035	63.77
894.409	63.72
894.784	63.71
895.158	63.69
895.532	63.65
895.906	63.59
896.281	63.54
896.655	63.52
897.029	63.48
897.402	63.47
897.776	63.47
898.15	63.48
898.524	63.48
898.898	63.43
899.271	63.42
899.645	63.42
900.018	63.42
900.392	63.47
900.765	63.49
901.138	63.51
901.511	63.52
901.884	63.54
902.258	63.5
902.631	63.51
903.003	63.55
903.376	63.54
903.749	63.53
904.122	63.54
904.495	63.51
904.867	63.5
905.24	63.45
905.612	63.44
905.985	63.34
906.357	63.31
906.729	63.28
907.102	63.25
907.474	63.25
907.846	63.26
908.218	63.23
908.59	63.21
908.962	63.19
909.334	63.18
909.705	63.19
910.077	63.23
910.449	63.25
910.82	63.25
911.192	63.21
911.563	63.2
911.935	63.18
912.306	63.18
912.677	63.16
913.048	63.14
913.419	63.12
913.79	63.1
914.161	63.07
914.532	63.07
914.903	63.11
915.274	63.1
915.645	63.12
916.015	63.1
916.386	63.09
916.756	63.06
917.127	63.08
917.497	63.08
917.868	63.08
918.238	63.1
918.608	63.11
918.978	63.04
919.348	63
919.718	62.96
920.088	62.98
920.458	62.98
920.828	63
921.198	62.99
921.567	63.02
921.937	62.98
922.306	62.95
922.676	62.93
923.045	62.89
923.415	62.9
923.784	62.92
924.153	62.87
924.522	62.84
924.891	62.86
925.26	62.79
925.629	62.75
925.998	62.75
926.367	62.76
926.736	62.69
927.104	62.74
927.473	62.76
927.842	62.72
928.21	62.75
928.578	62.76
928.947	62.72
929.315	62.69
929.683	62.67
930.051	62.62
930.42	62.53
930.788	62.52
931.156	62.46
931.523	62.43
931.891	62.3
932.259	62.23
932.627	62.06
932.994	61.99
933.362	61.93
933.729	61.76
934.097	61.68
934.464	61.58
934.831	61.45
935.199	61.37
935.566	61.18
935.933	61.17
936.3	61.02
936.667	60.97
937.034	60.81
937.401	60.75
937.767	60.77
938.134	60.72
938.501	60.77
938.867	60.84
939.234	60.88
939.6	60.93
939.967	60.99
940.333	61.18
940.699	61.33
941.065	61.49
941.431	61.57
941.798	61.72
942.163	61.8
942.529	61.9
942.895	62.05
943.261	62.09
943.627	62.25
943.992	62.3
944.358	62.25
944.723	62.32
945.089	62.47
945.454	62.53
945.82	62.44
946.185	62.58
946.55	62.7
946.915	62.62
947.28	62.66
947.645	62.64
948.01	62.62
948.375	62.68
948.74	62.65
949.104	62.6
949.469	62.56
949.834	62.6
950.198	62.51
950.562	62.36
950.927	62.29
951.291	62.22
951.655	62.2
952.02	62.19
952.384	62.18
952.748	62.17
953.112	62.1
953.476	62.13
953.839	62.09
954.203	61.99
954.567	61.95
954.931	61.92
955.294	61.86
955.658	61.8
956.021	61.77
956.385	61.69
956.748	61.61
957.111	61.59
957.474	61.5
957.837	61.49
958.2	61.47
958.563	61.47
958.926	61.45
959.289	61.5
959.652	61.42
960.015	61.34
960.377	61.32
960.74	61.29
961.102	61.21
961.465	61.26
961.827	61.09
962.189	61.08
962.552	61.04
962.914	61.01
963.276	60.95
963.638	60.95
964	60.9
964.362	60.81
964.724	60.76
965.085	60.74
965.447	60.62
965.809	60.69
966.17	60.65
966.532	60.64
966.893	60.6
967.255	60.54
967.616	60.53
967.977	60.54
968.338	60.53
968.699	60.49
969.061	60.47
969.421	60.47
969.782	60.49
970.143	60.52
970.504	60.48
970.865	60.41
971.225	60.33
971.586	60.38
971.946	60.4
972.307	60.35
972.667	60.39
973.027	60.43
973.388	60.35
973.748	60.26
974.108	60.21
974.468	60.22
974.828	60.2
975.188	60.33
975.548	60.31
975.907	60.32
976.267	60.39
976.627	60.28
976.986	60.23
977.346	60.3
977.705	60.35
978.064	60.34
978.424	60.27
978.783	60.37
979.142	60.27
979.501	60.17
979.86	60.13
980.219	60.06
980.578	60.14
980.937	60.15
981.296	60.06
981.654	60.1
982.013	60.17
982.371	60.12
982.73	60.01
983.088	60.04
983.447	60.05
983.805	60.02
984.163	60.07
984.521	60.03
984.879	60.02
985.237	60.13
985.595	60.08
985.953	60.04
986.311	60.13
986.669	60.19
987.026	60.25
987.384	60.33
987.741	60.37
988.099	60.38
988.456	60.41
988.814	60.45
989.171	60.41
989.528	60.36
989.885	60.26
990.242	60.32
990.599	60.29
990.956	60.2
991.313	60.15
991.67	60
992.027	59.84
992.383	59.88
992.74	59.7
993.096	59.66
993.453	59.6
993.809	59.64
994.165	59.55
994.522	59.58
994.878	59.57
995.234	59.51
995.59	59.61
995.946	59.68
996.302	59.5
996.658	59.62
997.013	59.63
997.369	59.66
997.725	59.71
998.08	59.69
998.436	59.72
998.791	59.73
999.147	59.8
999.502	59.72
999.857	59.7
1000.212	59.8
1000.567	59.88
1000.922	59.89
1001.277	59.92
1001.632	59.83
1001.987	59.62
1002.342	59.56
1002.696	59.55
1003.051	59.31
1003.406	59.32
1003.76	59.37
1004.114	59.29
1004.469	59.06
1004.823	59
1005.177	59.16
1005.531	59.1
1005.885	59.29
1006.239	59.14
1006.593	59.03
1006.947	58.98
1007.301	59.08
1007.655	58.99
1008.008	58.94
1008.362	59.01
1008.715	58.97
1009.069	58.61
1009.422	58.43
1009.776	58.52
1010.129	58.4
1010.482	58.5
1010.835	58.8
1011.188	58.46
1011.541	58.15
1011.894	58.36
1012.247	58.3
1012.6	58.34
1012.952	58.46
1013.305	58.62
1013.657	58.69
1014.01	58.9
1014.362	58.7
1014.715	58.46
1015.067	58.8
1015.419	59.13
1015.771	59.07
1016.123	59.03
1016.475	59.14
1016.827	59.18
1017.179	59.26
1017.531	59.05
1017.883	59.27
1018.234	59.43
1018.586	59.39
1018.938	59.16
1019.289	58.95
1019.64	58.98
1019.992	59.14
1020.343	58.99
1020.694	58.63
1021.045	58.66
1021.396	58.48
1021.747	58.22
1022.098	58.26
1022.449	58.17
1022.8	58.23
1023.151	58.43
1023.501	58.27
1023.852	58.15
1024.202	58.29
1024.553	58.57
1024.903	58.38
1025.253	58.69
1025.604	58.54
1025.954	58.58
1026.304	59.02
1026.654	59.09
1027.004	59.25
1027.354	59.38
1027.703	59.3
1028.053	59.04
1028.403	58.76
1028.753	58.9
1029.102	58.54
1029.452	58.61
1029.801	58.35
1030.15	58.12
1030.499	58
897.758	153.11
901.051	153.95
904.343	162.1
907.636	158.77
910.928	159.47
914.22	160.86
917.511	154.8
920.803	151.68
924.094	144.92
927.384	147.87
930.675	143.13
933.965	140.97
937.255	140.23
940.544	130.51
943.834	128.94
947.123	124.67
950.411	123.65
953.7	125.71
956.988	122.02
960.276	118.48
963.563	122.01
966.851	117.53
970.138	115.26
973.424	110.93
976.711	111.87
979.997	109.28
983.283	107.29
986.568	102.92
989.853	101.36
993.138	99.04
996.423	100.83
999.708	97.05
1002.992	97.82
1006.275	96.85
1009.559	95.78
1012.842	94.09
1016.125	90.91
1019.408	91.38
1022.69	91.85
1025.972	91.26
1029.254	90.4
1032.536	88.58
1035.817	86.25
1039.098	86.47
1042.379	86.54
1045.659	87.03
1048.939	85.35
1052.219	86.28
1055.498	84.84
1058.778	83.94
1062.057	81.93
1065.335	81.92
1068.614	81.13
1071.892	81.29
1075.17	80.07
1078.447	78.93
1081.724	78.46
1085.001	76.85
1088.278	77.06
1091.554	77.67
1094.83	76.68
1098.106	77.37
1101.382	76.42
1104.657	76.73
1107.932	76.08
1111.206	76.31
1114.481	75.82
1117.755	74.56
1121.029	75.68
1124.302	74.67
1127.575	74.3
1130.848	74.14
1134.121	73.27
1137.393	73.54
1140.665	73.48
1143.937	73.21
1147.208	71.77
1150.48	71.25
1153.75	71.24
1157.021	70.69
1160.291	70.77
1163.561	69.8
1166.831	70.6
1170.101	70.62
1173.37	69.97
1176.639	68.94
1179.907	68.65
1183.176	68.73
1186.444	68.86
1189.711	69.19
1192.979	69.48
1196.246	68.92
1199.513	68.86
1202.78	67.76
1206.046	67.61
1209.312	67.81
1212.578	68.09
1215.843	69.3
1219.108	68.6
1222.373	69.38
1225.638	69.59
1228.902	70.26
1232.166	71.31
1235.43	71.56
1238.693	73.14
1241.956	73.54
1245.219	75.29
1248.482	75.47
1251.744	74.25
1255.006	76.89
1258.268	74.44
1261.529	74.5
1264.79	73.66
1268.051	72.63
1271.312	73.29
1274.572	71.81
1277.832	70.47
1281.092	70.59
1284.351	70.01
1287.61	70.39
1290.869	69.05
1294.128	69.56
1297.386	69.18
1300.644	68.85
1303.902	68.05
1307.159	67.18
1310.416	67.58
1313.673	69.21
1316.93	68.22
1320.186	68.46
1323.442	69.01
1326.697	69.2
1329.953	69.47
1333.208	70.31
1336.463	72.01
1339.717	73.31
1342.972	74.44
1346.226	75.29
1349.479	74.38
1352.733	75.86
1355.986	76.06
1359.238	75.99
1362.491	75.51
1365.743	76.31
1368.995	78.66
1372.247	74.87
1375.498	74.24
1378.749	74.85
1382	73.53
1385.251	73.03
1388.501	71.93
1391.751	72.37
1395	70.41
1398.25	72.08
1401.499	70.81
1404.748	66.58
1407.996	67.78
1411.244	67.99
1414.492	65.75
1417.74	64.55
1420.987	63.66
1424.234	62.97
1427.481	59.15
1430.728	58.27
1433.974	56.79
1437.22	54.79
1440.465	53.86
1443.711	52.34
1446.956	51.47
1450.201	50.34
1453.445	48.25
1456.689	47.23
1459.933	46.52
1463.177	45.23
1466.42	45.91
1469.663	44.32
1472.906	43.8
1476.148	41.86
1479.391	41.86
1482.633	41.24
1485.874	41.58
1489.115	42.03
1492.356	41.55
1495.597	40.96
1498.838	42.84
1502.078	41.97
1505.318	42.3
1508.557	41.62
1511.797	43.52
1515.036	43.26
1518.274	43.55
1521.513	44.04
1524.751	43.63
1527.989	44.57
1531.227	44.83
1534.464	44.52
1537.701	44.66
1540.938	44.49
1544.174	45.56
1547.41	45.56
1550.646	46.19
1553.882	45.94
1557.117	46.22
1560.352	46.49
1563.587	46.52
1566.821	46.66
1570.055	46.86
1573.289	47.31
1576.523	47.31
1579.756	47.47
1582.989	47.75
1586.222	47.2
1589.454	48.99
1592.686	48.51
1595.918	48.63
1599.15	48.48
1602.381	48.94
1605.612	49.36
1608.843	49.14
1612.073	49.69
1615.303	50.1
1618.533	49.65
1621.762	49.61
1624.992	48.55
1628.221	48.56
1631.449	49.06
1634.678	49.36
1637.906	48.76
1641.134	48.77
1644.361	48.96
1647.588	49.04
1650.815	48.87
1654.042	49.34
1657.269	49.44
1660.495	49.64
1663.72	49.59
1666.946	49.73
1670.171	49.95
1673.396	50.63
1676.621	50.41
1679.845	51.23
1683.069	50.29
1686.293	50.53
1689.517	50.01
1692.74	50.68
1695.963	50.32
1699.185	50.86
1702.408	50.39
1705.63	50.15
1708.852	50.12
1712.073	50.19
1715.294	49.48
1718.515	50.84
1721.736	50.34
1724.956	50.68
1728.176	50.41
1731.396	50.41
1734.616	50.27
1737.835	50.15
1741.054	50.25
1744.272	50.25
1747.491	49.68
1750.709	50.28
1753.927	49.64
1757.144	49.8
1760.361	49.62
1763.578	49.62
1766.795	49.91
1770.011	49.66
1773.227	49.7
1776.443	49.78
1779.658	48.98
1782.874	50
1786.089	48.58
1789.303	48.78
1792.518	49.43
1795.732	49.22
1798.945	49.86
1802.159	49.41
1805.372	49.46
1808.585	49.8
1811.797	49.27
1815.01	50.15
1818.222	49.68
1821.434	50.7
1824.645	50.35
1827.856	49.54
1831.067	49.72
1834.278	50.02
1837.488	50.69
1840.698	50.98
1843.908	50.9
1847.117	51.27
1850.326	51.05
1853.535	50.8
1856.744	50.19
1859.952	50.19
1863.16	49.58
1866.368	49.2
1869.575	47.71
1872.782	46.99
1875.989	44.13
1879.196	43.92
1882.402	42.36
1885.608	41.95
1888.814	40.88
1892.019	39.91
1895.224	38.82
1898.429	38.6
1901.634	37.68
1904.838	36.58
1908.042	35.85
1911.246	36.53
1914.449	35.94
1917.652	35.83
1920.855	35.54
1924.058	34.81
1927.26	33.79
1930.462	34.7
1933.664	34.19
1936.865	35.36
1940.066	34.36
1943.267	34.09
1946.467	34.94
1949.668	34.76
1952.868	34.6
1956.067	34.31
1959.267	35.57
1962.466	35.83
1965.665	35.31
1968.863	36.44
1972.061	35.8
1975.259	37.7
1978.457	37.76
1981.654	36.87
1984.852	37.24
1988.048	38.74
1991.245	39.02
1994.441	39.52
1997.637	39.97
2000.833	41.87
2004.028	41.22
2007.223	42.05
2010.418	42.21
2013.613	45.2
2016.807	47.85
2020.001	48.73
2023.194	50.4
2026.388	52.13
2029.581	53.64
2032.774	56.44
2035.966	56.45
2039.158	59.22
2042.35	58.81
2045.542	61.04
2048.733	61.98
2051.924	61.45
2055.115	61.01
2058.306	60.57
2061.496	60.67
2064.686	61.03
2067.875	60.15
2071.065	62.79
2074.254	60.56
2077.442	64.64
2080.631	63.71
2083.819	63.71
2087.007	66.36
2090.195	69.31
2093.382	68.59
2096.569	69.92
2099.756	71.39
2102.942	73.4
2106.128	72.83
2109.314	77.2
2112.5	76.48
2115.685	73.03
2118.87	72.93
2122.055	74.29
2125.239	73.29
2128.424	77.66
2131.608	74.43
2134.791	74.73
2137.974	74.48
2141.157	76.04
2144.34	74.51
2147.523	76.91
2150.705	82.26
2153.887	82.47
2157.068	81.95
2160.25	83.65
2163.431	83.34
2166.611	86.97
2169.792	87.61
2172.972	90.76
2176.152	88.69
2179.331	90.48
2182.511	90.22
2185.69	91.87
2188.868	92.36
2192.047	95.27
2195.225	97.95
2198.403	94.35
2201.58	95.42
2204.758	98.74
2207.935	95.77
2211.111	99.01
2214.288	99.68
2217.464	100.99
2220.64	99.89
2223.815	99.76
2226.991	99.01
2230.166	99.34
2233.34	103.77
2236.515	102.02
2239.689	100.49
2242.863	102.15
2246.036	102.42
2249.209	101.02
2252.382	100.28
2255.555	104.65
2258.727	107.85
2261.9	107.1
2265.071	105.8
2268.243	104.47
2271.414	109.23
2274.585	109.89
2277.756	112.73
2280.926	108.74
2284.096	110.56
2287.266	111.53
2290.436	111.15
2293.605	112.24
2296.774	113.9
2299.942	114.69
2303.111	124.92
2306.279	124.96
2309.447	126.31
2312.614	122.38
2315.781	126.26
2318.948	133.44
2322.115	133.65
2325.281	137.74
2328.447	136.55
2331.613	139.45
2334.779	143.71
2337.944	135.08
2341.109	137.91
2344.274	135.1
2347.438	142.12
2350.602	148.33
2353.766	154.98
2356.929	154.64
2360.092	158.01
2363.255	157.92
2366.418	161.46
2369.58	164.91
2372.742	163.53
2375.904	166.01
2379.066	172.03
2382.227	176.99
2385.388	177.89
2388.548	166.97
2391.709	171.24
2394.869	166.55
2398.029	175.23
2401.188	166
2404.347	167.17
2407.506	176.77
2410.665	168
2413.823	168.69
2416.981	172.15
2420.139	168.43
2423.296	182.42
2426.453	178.77
2429.61	180.62
2432.767	182.83
2435.923	201.02
2439.079	199.56
2442.235	201.21
2445.391	208.91
2448.546	210.51
2451.701	216.96
2454.855	222.5
2458.009	200.55
2461.163	211.91
2464.317	209.21
2467.471	207.55
2470.624	211.9
2473.777	202
2476.929	206.81
2480.082	211.94
2483.234	219.17
2486.385	227.54
2489.537	235.1
2492.688	245.45
2495.839	243.65
2498.989	258.12
2502.14	254.66
2505.29	247.77
2508.439	264.06
2511.589	260.08
2514.738	260.7
2517.887	259.49
2521.035	237.61
2524.183	239.94
2527.331	244.21
2530.479	241.1
2533.627	237.76
