Data from C_2_div_wi_4n_062_Splice17_02.txt Node
Date: Sat Feb 29 14:28:51 EST 2020
User: sa697716
Spectrometer: FLMS03696
Trigger mode: 0
Integration Time (sec): 3.180400E-1
Scans to average: 20
Electric dark correction enabled: true
Nonlinearity correction enabled: true
Boxcar width: 5
XAxis mode: Wavelengths
Number of Pixels in Spectrum: 2048
>>>>>Begin Spectral Data<<<<<
187.83	30.67
188.298	-4.03
188.766	5.71
189.233	5.63
189.701	18.21
190.169	24.31
190.636	33.61
191.104	7
191.571	42.27
192.039	130.13
192.506	-14.13
192.974	5701.49
193.441	146.93
193.908	21.7
194.375	-45.77
194.842	84.08
195.31	50.51
195.777	71.04
196.244	20.07
196.711	20.27
197.177	17.27
197.644	17.56
198.111	16.41
198.578	15.7
199.045	16.6
199.511	17.06
199.978	17.55
200.445	17.21
200.911	17.06
201.378	16.85
201.844	16.72
202.31	17.57
202.777	17.7
203.243	18.19
203.709	18.9
204.176	18.28
204.642	18.3
205.108	17.66
205.574	18.02
206.04	18.03
206.506	17.96
206.972	17.9
207.438	17.46
207.903	17.84
208.369	17.41
208.835	16.97
209.301	17.2
209.766	16.96
210.232	16.82
210.697	16.56
211.163	16.45
211.628	16.27
212.094	16.29
212.559	15.74
213.024	15.12
213.49	15.07
213.955	14.88
214.42	14.52
214.885	14.15
215.35	13.84
215.815	13.16
216.28	12.54
216.745	12.13
217.21	11.33
217.675	10.95
218.14	10.24
218.604	9.73
219.069	9.31
219.534	8.86
219.998	8.62
220.463	8.31
220.927	8.1
221.392	7.87
221.856	7.56
222.32	7.39
222.785	7.15
223.249	7.07
223.713	6.94
224.177	6.75
224.642	6.66
225.106	6.51
225.57	6.36
226.034	6.27
226.497	6.16
226.961	6.08
227.425	5.97
227.889	5.89
228.353	5.76
228.816	5.68
229.28	5.6
229.744	5.52
230.207	5.45
230.671	5.39
231.134	5.31
231.597	5.24
232.061	5.18
232.524	5.12
232.987	5.06
233.45	5.01
233.914	4.95
234.377	4.91
234.84	4.86
235.303	4.79
235.766	4.74
236.229	4.7
236.691	4.67
237.154	4.62
237.617	4.57
238.08	4.53
238.542	4.49
239.005	4.45
239.468	4.38
239.93	4.35
240.393	4.32
240.855	4.27
241.317	4.24
241.78	4.21
242.242	4.16
242.704	4.12
243.166	4.08
243.629	4.03
244.091	3.98
244.553	3.96
245.015	3.93
245.477	3.89
245.939	3.86
246.4	3.81
246.862	3.78
247.324	3.77
247.786	3.76
248.247	3.73
248.709	3.72
249.17	3.71
249.632	3.68
250.093	3.64
250.555	3.61
251.016	3.6
251.477	3.57
251.939	3.55
252.4	3.52
252.861	3.49
253.322	3.46
253.783	3.44
254.244	3.42
254.705	3.4
255.166	3.4
255.627	3.39
256.088	3.36
256.549	3.35
257.009	3.33
257.47	3.31
257.931	3.29
258.391	3.27
258.852	3.25
259.312	3.22
259.773	3.21
260.233	3.18
260.694	3.16
261.154	3.14
261.614	3.12
262.074	3.11
262.534	3.09
262.994	3.08
263.455	3.07
263.915	3.04
264.374	3.03
264.834	3.02
265.294	3
265.754	2.98
266.214	2.98
266.673	2.96
267.133	2.94
267.593	2.93
268.052	2.91
268.512	2.9
268.971	2.88
269.431	2.87
269.89	2.86
270.349	2.85
270.809	2.84
271.268	2.83
271.727	2.82
272.186	2.81
272.645	2.79
273.104	2.8
273.563	2.79
274.022	2.79
274.481	2.78
274.94	2.76
275.399	2.75
275.857	2.75
276.316	2.74
276.775	2.72
277.233	2.71
277.692	2.71
278.15	2.69
278.609	2.67
279.067	2.66
279.525	2.65
279.984	2.64
280.442	2.63
280.9	2.62
281.358	2.61
281.816	2.6
282.274	2.59
282.732	2.59
283.19	2.59
283.648	2.59
284.106	2.58
284.564	2.57
285.021	2.56
285.479	2.55
285.937	2.54
286.394	2.54
286.852	2.53
287.309	2.53
287.767	2.52
288.224	2.51
288.682	2.5
289.139	2.5
289.596	2.49
290.053	2.48
290.511	2.47
290.968	2.47
291.425	2.47
291.882	2.46
292.339	2.45
292.796	2.44
293.252	2.43
293.709	2.42
294.166	2.41
294.623	2.4
295.079	2.39
295.536	2.39
295.992	2.37
296.449	2.37
296.905	2.35
297.362	2.34
297.818	2.34
298.274	2.34
298.731	2.33
299.187	2.33
299.643	2.32
300.099	2.31
300.555	2.3
301.011	2.3
301.467	2.29
301.923	2.3
302.379	2.3
302.835	2.29
303.291	2.29
303.746	2.29
304.202	2.28
304.658	2.28
305.113	2.28
305.569	2.27
306.024	2.27
306.479	2.27
306.935	2.26
307.39	2.26
307.845	2.26
308.301	2.26
308.756	2.26
309.211	2.26
309.666	2.26
310.121	2.26
310.576	2.25
311.031	2.25
311.486	2.26
311.94	2.26
312.395	2.25
312.85	2.25
313.305	2.25
313.759	2.25
314.214	2.25
314.668	2.24
315.123	2.24
315.577	2.24
316.032	2.24
316.486	2.23
316.94	2.23
317.394	2.22
317.849	2.22
318.303	2.22
318.757	2.21
319.211	2.2
319.665	2.19
320.119	2.18
320.572	2.19
321.026	2.18
321.48	2.18
321.934	2.18
322.387	2.17
322.841	2.17
323.295	2.16
323.748	2.16
324.202	2.16
324.655	2.17
325.108	2.16
325.562	2.14
326.015	2.14
326.468	2.14
326.921	2.12
327.374	2.12
327.827	2.11
328.28	2.1
328.733	2.08
329.186	2.08
329.639	2.07
330.092	2.06
330.545	2.06
330.997	2.07
331.45	2.06
331.903	2.06
332.355	2.06
332.808	2.06
333.26	2.06
333.713	2.07
334.165	2.08
334.617	2.08
335.069	2.09
335.522	2.09
335.974	2.09
336.426	2.09
336.878	2.08
337.33	2.09
337.782	2.1
338.234	2.09
338.686	2.09
339.137	2.09
339.589	2.09
340.041	2.08
340.493	2.07
340.944	2.06
341.396	2.07
341.847	2.06
342.299	2.05
342.75	2.03
343.201	2.03
343.653	2.02
344.104	2.01
344.555	2.01
345.006	2
345.457	2
345.908	1.99
346.359	1.99
346.81	1.99
347.261	1.99
347.712	1.99
348.163	1.99
348.613	1.98
349.064	1.97
349.515	1.96
349.965	1.96
350.416	1.95
350.866	1.96
351.317	1.95
351.767	1.95
352.217	1.94
352.668	1.94
353.118	1.94
353.568	1.95
354.018	1.97
354.468	1.97
354.918	1.97
355.368	1.98
355.818	1.97
356.268	1.97
356.718	1.97
357.168	1.97
357.617	1.95
358.067	1.95
358.517	1.94
358.966	1.95
359.416	1.96
359.865	1.96
360.315	1.95
360.764	1.97
361.213	1.96
361.663	1.97
362.112	1.99
362.561	2
363.01	2.01
363.459	2.01
363.908	2.01
364.357	2.01
364.806	2.02
365.255	2.03
365.703	2.03
366.152	2.03
366.601	2.05
367.05	2.05
367.498	2.05
367.947	2.05
368.395	2.07
368.844	2.07
369.292	2.08
369.74	2.09
370.189	2.1
370.637	2.11
371.085	2.13
371.533	2.14
371.981	2.15
372.429	2.15
372.877	2.16
373.325	2.17
373.773	2.19
374.221	2.2
374.669	2.21
375.116	2.21
375.564	2.21
376.012	2.22
376.459	2.23
376.907	2.26
377.354	2.29
377.801	2.31
378.249	2.33
378.696	2.36
379.143	2.39
379.591	2.42
380.038	2.45
380.485	2.5
380.932	2.53
381.379	2.55
381.826	2.58
382.273	2.6
382.72	2.64
383.166	2.67
383.613	2.71
384.06	2.74
384.506	2.77
384.953	2.82
385.4	2.86
385.846	2.91
386.292	2.98
386.739	3.04
387.185	3.12
387.631	3.18
388.078	3.24
388.524	3.26
388.97	3.31
389.416	3.37
389.862	3.43
390.308	3.51
390.754	3.62
391.2	3.72
391.645	3.81
392.091	3.87
392.537	3.95
392.983	4.08
393.428	4.26
393.874	4.47
394.319	4.68
394.765	4.89
395.21	5.1
395.655	5.32
396.101	5.55
396.546	5.82
396.991	6.13
397.436	6.42
397.881	6.72
398.326	7.03
398.771	7.3
399.216	7.57
399.661	7.82
400.106	8.05
400.551	8.23
400.995	8.4
401.44	8.54
401.885	8.67
402.329	8.84
402.774	8.99
403.218	9.16
403.663	9.33
404.107	9.53
404.551	9.76
404.995	9.96
405.44	10.15
405.884	10.35
406.328	10.58
406.772	10.87
407.216	11.15
407.66	11.4
408.104	11.63
408.547	11.85
408.991	12.02
409.435	12.21
409.879	12.42
410.322	12.7
410.766	12.98
411.209	13.26
411.653	13.48
412.096	13.69
412.54	13.9
412.983	14.1
413.426	14.34
413.869	14.58
414.312	14.83
414.756	15.07
415.199	15.25
415.642	15.43
416.085	15.6
416.527	15.78
416.97	15.88
417.413	15.94
417.856	15.95
418.298	15.94
418.741	15.97
419.184	16.03
419.626	16.1
420.069	16.2
420.511	16.3
420.953	16.38
421.396	16.5
421.838	16.69
422.28	16.93
422.722	17.2
423.164	17.46
423.606	17.68
424.048	17.82
424.49	17.89
424.932	17.86
425.374	17.71
425.816	17.42
426.258	17.1
426.699	16.88
427.141	16.86
427.582	17.03
428.024	17.3
428.465	17.61
428.907	17.92
429.348	18.23
429.789	18.58
430.231	19.09
430.672	19.87
431.113	20.73
431.554	21.58
431.995	22.23
432.436	22.69
432.877	23
433.318	23.28
433.759	23.57
434.2	23.94
434.64	24.45
435.081	24.95
435.522	25.36
435.962	25.72
436.403	26.02
436.843	26.3
437.284	26.64
437.724	27.03
438.164	27.43
438.604	27.91
439.045	28.39
439.485	28.82
439.925	29.19
440.365	29.49
440.805	29.73
441.245	29.94
441.685	30.14
442.125	30.37
442.564	30.66
443.004	30.99
443.444	31.34
443.883	31.71
444.323	32.08
444.762	32.49
445.202	32.95
445.641	33.46
446.081	34.09
446.52	34.7
446.959	35.27
447.398	35.74
447.837	36.05
448.276	36.19
448.716	36.32
449.154	36.46
449.593	36.59
450.032	36.69
450.471	36.7
450.91	36.58
451.349	36.51
451.787	36.46
452.226	36.42
452.664	36.46
453.103	36.56
453.541	36.63
453.98	36.59
454.418	36.48
454.856	36.36
455.295	36.28
455.733	36.23
456.171	36.17
456.609	36.12
457.047	36.09
457.485	36.09
457.923	36.13
458.361	36.21
458.798	36.36
459.236	36.53
459.674	36.67
460.111	36.79
460.549	36.92
460.987	37.09
461.424	37.22
461.862	37.38
462.299	37.5
462.736	37.65
463.173	37.84
463.611	38.11
464.048	38.42
464.485	38.82
464.922	39.26
465.359	39.66
465.796	39.99
466.233	40.38
466.67	40.81
467.106	41.37
467.543	41.97
467.98	42.53
468.416	43.02
468.853	43.48
469.29	43.92
469.726	44.35
470.162	44.86
470.599	45.38
471.035	45.81
471.471	46.14
471.907	46.35
472.344	46.51
472.78	46.67
473.216	46.9
473.652	47.08
474.088	47.2
474.523	47.32
474.959	47.38
475.395	47.45
475.831	47.51
476.266	47.62
476.702	47.71
477.138	47.76
477.573	47.74
478.008	47.63
478.444	47.52
478.879	47.38
479.314	47.14
479.75	46.87
480.185	46.55
480.62	46.11
481.055	45.44
481.49	44.57
481.925	43.64
482.36	42.78
482.795	42.06
483.229	41.52
483.664	41.1
484.099	40.76
484.534	40.47
484.968	40.26
485.403	40.21
485.837	40.39
486.271	40.73
486.706	41.1
487.14	41.38
487.574	41.51
488.009	41.55
488.443	41.58
488.877	41.59
489.311	41.61
489.745	41.64
490.179	41.7
490.613	41.74
491.046	41.81
491.48	41.93
491.914	42.12
492.348	42.37
492.781	42.59
493.215	42.77
493.648	42.93
494.082	43.08
494.515	43.21
494.948	43.3
495.382	43.38
495.815	43.42
496.248	43.43
496.681	43.42
497.114	43.41
497.547	43.43
497.98	43.53
498.413	43.71
498.846	43.92
499.279	44.09
499.711	44.24
500.144	44.46
500.577	44.75
501.009	45.17
501.442	45.67
501.874	46.19
502.306	46.68
502.739	47.07
503.171	47.43
503.603	47.78
504.036	48.17
504.468	48.63
504.9	49.09
505.332	49.51
505.764	49.87
506.196	50.2
506.627	50.58
507.059	51
507.491	51.47
507.923	51.91
508.354	52.35
508.786	52.77
509.217	53.1
509.649	53.45
510.08	53.8
510.512	54.17
510.943	54.57
511.374	54.92
511.805	55.12
512.237	55.2
512.668	55.23
513.099	55.33
513.53	55.48
513.961	55.65
514.391	55.9
514.822	56.24
515.253	56.64
515.684	57.05
516.114	57.52
516.545	58.11
516.975	58.95
517.406	59.84
517.836	60.68
518.267	61.42
518.697	62.19
519.127	62.92
519.558	63.6
519.988	64.22
520.418	64.8
520.848	65.33
521.278	65.82
521.708	66.03
522.138	66.2
522.567	66.4
522.997	66.63
523.427	66.93
523.857	67.23
524.286	67.58
524.716	67.92
525.145	68.24
525.575	68.58
526.004	68.98
526.433	69.59
526.863	70.25
527.292	70.85
527.721	71.37
528.15	71.71
528.579	71.95
529.008	72.13
529.437	72.28
529.866	72.41
530.295	72.57
530.724	72.75
531.152	72.92
531.581	73.03
532.01	73.13
532.438	73.25
532.867	73.47
533.295	73.7
533.723	73.94
534.152	74.13
534.58	74.28
535.008	74.32
535.436	74.28
535.865	74.18
536.293	74.09
536.721	74.09
537.149	74.18
537.576	74.27
538.004	74.38
538.432	74.46
538.86	74.57
539.287	74.76
539.715	75.03
540.143	75.33
540.57	75.7
540.998	76.11
541.425	76.47
541.852	76.82
542.28	77.13
542.707	77.44
543.134	77.73
543.561	77.95
543.988	78.22
544.415	78.49
544.842	78.78
545.269	79.04
545.696	79.26
546.123	79.54
546.549	79.8
546.976	80.04
547.403	80.28
547.829	80.56
548.256	80.84
548.682	81.03
549.108	81.26
549.535	81.47
549.961	81.66
550.387	81.85
550.813	82.02
551.24	82.19
551.666	82.34
552.092	82.43
552.518	82.46
552.943	82.52
553.369	82.59
553.795	82.56
554.221	82.44
554.646	82.27
555.072	82.08
555.498	81.88
555.923	81.69
556.349	81.52
556.774	81.39
557.199	81.29
557.625	81.14
558.05	80.95
558.475	80.79
558.9	80.69
559.325	80.61
559.75	80.46
560.175	80.29
560.6	80.05
561.025	79.73
561.449	79.36
561.874	78.97
562.299	78.61
562.723	78.3
563.148	77.94
563.572	77.55
563.997	77.12
564.421	76.67
564.846	76.22
565.27	75.79
565.694	75.34
566.118	74.88
566.542	74.41
566.966	73.92
567.39	73.42
567.814	72.97
568.238	72.6
568.662	72.29
569.086	72.02
569.509	71.78
569.933	71.52
570.357	71.32
570.78	71.15
571.204	70.99
571.627	70.88
572.05	70.81
572.474	70.72
572.897	70.62
573.32	70.49
573.743	70.36
574.166	70.2
574.589	70.07
575.012	70.04
575.435	70.04
575.858	70.09
576.281	70.14
576.704	70.17
577.126	70.22
577.549	70.27
577.972	70.42
578.394	70.54
578.817	70.72
579.239	70.92
579.661	71.04
580.084	71.16
580.506	71.23
580.928	71.25
581.35	71.27
581.772	71.25
582.194	71.22
582.616	71.16
583.038	71.12
583.46	71.08
583.882	70.89
584.303	70.62
584.725	70.25
585.147	69.84
585.568	69.52
585.99	69.26
586.411	69.1
586.833	68.92
587.254	68.74
587.675	68.59
588.096	68.43
588.518	68.36
588.939	68.4
589.36	68.51
589.781	68.66
590.202	68.72
590.623	68.73
591.043	68.62
591.464	68.51
591.885	68.39
592.305	68.25
592.726	68.06
593.147	67.88
593.567	67.66
593.987	67.43
594.408	67.19
594.828	66.96
595.248	66.71
595.669	66.45
596.089	66.13
596.509	65.79
596.929	65.41
597.349	65.03
597.769	64.66
598.189	64.3
598.608	63.98
599.028	63.7
599.448	63.44
599.867	63.18
600.287	62.95
600.706	62.71
601.126	62.48
601.545	62.27
601.965	62.11
602.384	61.95
602.803	61.78
603.222	61.57
603.641	61.37
604.061	61.13
604.48	60.87
604.898	60.63
605.317	60.43
605.736	60.2
606.155	59.96
606.574	59.73
606.992	59.51
607.411	59.28
607.829	59.05
608.248	58.85
608.666	58.65
609.085	58.46
609.503	58.21
609.921	58
610.339	57.84
610.758	57.67
611.176	57.47
611.594	57.22
612.012	56.97
612.43	56.74
612.847	56.5
613.265	56.3
613.683	56.16
614.101	56.02
614.518	55.89
614.936	55.73
615.353	55.61
615.771	55.52
616.188	55.48
616.606	55.45
617.023	55.43
617.44	55.36
617.857	55.25
618.274	55.1
618.691	54.98
619.108	54.79
619.525	54.62
619.942	54.4
620.359	54.17
620.776	53.91
621.192	53.63
621.609	53.38
622.026	53.17
622.442	52.99
622.859	52.78
623.275	52.58
623.691	52.38
624.108	52.19
624.524	52.02
624.94	51.87
625.356	51.71
625.772	51.62
626.188	51.5
626.604	51.36
627.02	51.21
627.436	51.09
627.852	50.99
628.268	50.95
628.683	50.92
629.099	50.91
629.514	50.86
629.93	50.83
630.345	50.8
630.761	50.77
631.176	50.76
631.591	50.72
632.007	50.72
632.422	50.7
632.837	50.69
633.252	50.64
633.667	50.59
634.082	50.57
634.497	50.55
634.911	50.46
635.326	50.33
635.741	50.21
636.155	50.09
636.57	49.91
636.984	49.7
637.399	49.49
637.813	49.29
638.228	49.09
638.642	48.87
639.056	48.63
639.47	48.45
639.884	48.3
640.298	48.14
640.712	47.96
641.126	47.81
641.54	47.63
641.954	47.48
642.368	47.25
642.781	47.02
643.195	46.8
643.609	46.6
644.022	46.38
644.436	46.15
644.849	45.87
645.262	45.59
645.676	45.31
646.089	45.16
646.502	44.97
646.915	44.85
647.328	44.72
647.741	44.57
648.154	44.47
648.567	44.36
648.98	44.28
649.393	44.24
649.805	44.23
650.218	44.16
650.631	44
651.043	43.73
651.456	43.28
651.868	42.7
652.28	42.11
652.693	41.57
653.105	41.13
653.517	40.8
653.929	40.54
654.341	40.34
654.753	40.18
655.165	40.05
655.577	40.03
655.989	40.21
656.401	40.51
656.813	40.82
657.224	41.09
657.636	41.25
658.047	41.31
658.459	41.24
658.87	41.14
659.282	41.03
659.693	40.9
660.104	40.74
660.515	40.56
660.926	40.39
661.338	40.22
661.749	40
662.159	39.79
662.57	39.55
662.981	39.34
663.392	39.11
663.803	38.89
664.213	38.69
664.624	38.5
665.035	38.31
665.445	38.11
665.855	37.9
666.266	37.69
666.676	37.48
667.086	37.28
667.497	37.09
667.907	36.91
668.317	36.71
668.727	36.52
669.137	36.35
669.547	36.17
669.956	36
670.366	35.86
670.776	35.7
671.186	35.57
671.595	35.44
672.005	35.35
672.414	35.22
672.824	35.14
673.233	35.07
673.642	34.96
674.052	34.87
674.461	34.79
674.87	34.73
675.279	34.7
675.688	34.65
676.097	34.6
676.506	34.57
676.915	34.57
677.323	34.55
677.732	34.53
678.141	34.56
678.549	34.6
678.958	34.66
679.366	34.67
679.775	34.69
680.183	34.75
680.592	34.82
681	34.88
681.408	34.93
681.816	34.93
682.224	34.78
682.632	34.45
683.04	33.99
683.448	33.56
683.856	33.24
684.264	32.98
684.671	32.74
685.079	32.54
685.487	32.41
685.894	32.35
686.302	32.42
686.709	32.72
687.116	33.28
687.524	34.04
687.931	34.84
688.338	35.64
688.745	36.47
689.152	37.3
689.559	38.11
689.966	38.89
690.373	39.69
690.78	40.47
691.187	41.25
691.593	41.98
692	42.74
692.407	43.46
692.813	44.16
693.22	44.81
693.626	45.47
694.032	46.13
694.439	46.81
694.845	47.41
695.251	48.02
695.657	48.59
696.063	49.16
696.469	49.66
696.875	50.12
697.281	50.54
697.687	51.02
698.093	51.45
698.498	51.91
698.904	52.36
699.31	52.86
699.715	53.35
700.12	53.85
700.526	54.39
700.931	54.92
701.337	55.47
701.742	56
702.147	56.51
702.552	57.05
702.957	57.55
703.362	58.05
703.767	58.49
704.172	58.94
704.577	59.35
704.981	59.72
705.386	60.07
705.791	60.44
706.195	60.82
706.6	61.15
707.004	61.5
707.408	61.83
707.813	62.13
708.217	62.41
708.621	62.68
709.025	62.96
709.43	63.22
709.834	63.51
710.237	63.75
710.641	63.99
711.045	64.23
711.449	64.39
711.853	64.56
712.256	64.68
712.66	64.71
713.064	64.65
713.467	64.54
713.87	64.34
714.274	64.08
714.677	63.77
715.08	63.42
715.484	63.14
715.887	62.89
716.29	62.69
716.693	62.63
717.096	62.76
717.499	63.01
717.901	63.35
718.304	63.78
718.707	64.24
719.109	64.72
719.512	65.2
719.915	65.59
720.317	65.91
720.719	66.2
721.122	66.38
721.524	66.5
721.926	66.59
722.328	66.64
722.731	66.63
723.133	66.67
723.535	66.73
723.937	66.82
724.338	66.88
724.74	67.01
725.142	66.98
725.544	67.09
725.945	67.15
726.347	67.27
726.748	67.28
727.15	67.38
727.551	67.49
727.952	67.61
728.354	67.79
728.755	68
729.156	68.21
729.557	68.6
729.958	68.88
730.359	69.12
730.76	69.28
731.161	69.51
731.562	69.71
731.962	69.86
732.363	69.95
732.763	70.04
733.164	70.12
733.564	70.17
733.965	70.15
734.365	70.03
734.766	69.96
735.166	69.87
735.566	69.82
735.966	69.72
736.366	69.64
736.766	69.58
737.166	69.51
737.566	69.41
737.966	69.34
738.365	69.27
738.765	69.32
739.165	69.32
739.564	69.35
739.964	69.34
740.363	69.35
740.763	69.33
741.162	69.33
741.561	69.35
741.96	69.4
742.36	69.41
742.759	69.39
743.158	69.34
743.557	69.36
743.955	69.39
744.354	69.37
744.753	69.35
745.152	69.31
745.55	69.32
745.949	69.25
746.348	69.14
746.746	69.09
747.144	69.05
747.543	69.01
747.941	68.95
748.339	68.9
748.737	68.86
749.136	68.81
749.534	68.82
749.932	68.78
750.33	68.73
750.727	68.69
751.125	68.64
751.523	68.56
751.921	68.47
752.318	68.38
752.716	68.22
753.113	68.09
753.511	67.96
753.908	67.8
754.305	67.53
754.703	67.11
755.1	66.33
755.497	65.04
755.894	63.32
756.291	61.28
756.688	59.15
757.085	57.16
757.482	55.35
757.878	53.61
758.275	51.9
758.672	50.23
759.068	48.74
759.465	47.67
759.861	47.17
760.258	47.25
760.654	47.79
761.05	48.58
761.447	49.36
761.843	50.07
762.239	50.85
762.635	51.75
763.031	52.87
763.427	54.09
763.822	55.36
764.218	56.62
764.614	57.82
765.01	58.93
765.405	59.87
765.801	60.74
766.196	61.54
766.592	62.2
766.987	62.72
767.382	63.07
767.778	63.33
768.173	63.56
768.568	63.66
768.963	63.74
769.358	63.81
769.753	63.89
770.148	63.9
770.542	63.82
770.937	63.74
771.332	63.7
771.726	63.68
772.121	63.62
772.515	63.56
772.91	63.54
773.304	63.47
773.699	63.38
774.093	63.26
774.487	63.21
774.881	63.21
775.275	63.15
775.669	63.1
776.063	63.01
776.457	62.89
776.851	62.74
777.245	62.64
777.638	62.57
778.032	62.51
778.425	62.43
778.819	62.31
779.212	62.16
779.606	62.06
779.999	61.93
780.392	61.82
780.786	61.76
781.179	61.69
781.572	61.6
781.965	61.46
782.358	61.33
782.751	61.25
783.143	61.17
783.536	61.12
783.929	61.03
784.322	60.92
784.714	60.8
785.107	60.68
785.499	60.53
785.891	60.36
786.284	60.23
786.676	60.11
787.068	59.91
787.46	59.74
787.852	59.56
788.245	59.38
788.636	59.24
789.028	59.06
789.42	58.88
789.812	58.73
790.204	58.53
790.595	58.34
790.987	58.17
791.378	58.05
791.77	57.95
792.161	57.85
792.553	57.74
792.944	57.66
793.335	57.62
793.726	57.53
794.117	57.47
794.508	57.44
794.899	57.39
795.29	57.29
795.681	57.17
796.072	57.04
796.463	56.84
796.853	56.7
797.244	56.53
797.634	56.33
798.025	56.16
798.415	55.99
798.806	55.85
799.196	55.7
799.586	55.53
799.976	55.41
800.366	55.25
800.756	55.14
801.146	55
801.536	54.86
801.926	54.73
802.316	54.61
802.706	54.53
803.095	54.36
803.485	54.24
803.874	54.14
804.264	53.98
804.653	53.85
805.043	53.68
805.432	53.52
805.821	53.31
806.21	53.18
806.599	53.05
806.988	52.86
807.377	52.72
807.766	52.54
808.155	52.34
808.544	52.13
808.933	51.93
809.321	51.76
809.71	51.56
810.098	51.34
810.487	51.07
810.875	50.75
811.264	50.43
811.652	50.1
812.04	49.76
812.428	49.48
812.816	49.22
813.204	48.92
813.592	48.62
813.98	48.36
814.368	48.16
814.756	47.95
815.144	47.77
815.531	47.62
815.919	47.5
816.306	47.43
816.694	47.36
817.081	47.29
817.469	47.25
817.856	47.22
818.243	47.1
818.63	46.98
819.017	46.88
819.404	46.76
819.791	46.65
820.178	46.54
820.565	46.45
820.952	46.33
821.339	46.23
821.725	46.14
822.112	46.04
822.498	46.01
822.885	45.97
823.271	45.94
823.657	45.92
824.044	45.84
824.43	45.77
824.816	45.61
825.202	45.48
825.588	45.34
825.974	45.22
826.36	45.08
826.746	44.96
827.132	44.81
827.517	44.69
827.903	44.56
828.289	44.46
828.674	44.34
829.06	44.3
829.445	44.25
829.83	44.17
830.216	44.1
830.601	44.06
830.986	44.01
831.371	44.01
831.756	43.92
832.141	43.89
832.526	43.86
832.911	43.85
833.295	43.82
833.68	43.75
834.065	43.72
834.449	43.67
834.834	43.59
835.218	43.53
835.603	43.47
835.987	43.43
836.371	43.38
836.755	43.31
837.139	43.23
837.524	43.15
837.908	43.09
838.291	43.02
838.675	42.95
839.059	42.89
839.443	42.83
839.827	42.76
840.21	42.75
840.594	42.67
840.977	42.62
841.361	42.54
841.744	42.49
842.127	42.43
842.511	42.37
842.894	42.31
843.277	42.28
843.66	42.2
844.043	42.16
844.426	42.05
844.809	41.99
845.191	41.92
845.574	41.84
845.957	41.74
846.339	41.66
846.722	41.6
847.104	41.55
847.487	41.49
847.869	41.44
848.252	41.35
848.634	41.33
849.016	41.3
849.398	41.24
849.78	41.17
850.162	41.11
850.544	41.05
850.926	40.96
851.307	40.9
851.689	40.8
852.071	40.75
852.452	40.72
852.834	40.65
853.215	40.6
853.597	40.58
853.978	40.57
854.359	40.58
854.741	40.6
855.122	40.61
855.503	40.63
855.884	40.62
856.265	40.59
856.646	40.56
857.026	40.56
857.407	40.49
857.788	40.47
858.169	40.48
858.549	40.46
858.93	40.42
859.31	40.4
859.69	40.34
860.071	40.32
860.451	40.3
860.831	40.24
861.211	40.17
861.591	40.14
861.971	40.05
862.351	39.97
862.731	39.88
863.111	39.79
863.491	39.73
863.87	39.66
864.25	39.61
864.629	39.55
865.009	39.52
865.388	39.48
865.768	39.45
866.147	39.45
866.526	39.43
866.905	39.44
867.284	39.44
867.663	39.45
868.042	39.45
868.421	39.44
868.8	39.44
869.179	39.42
869.558	39.4
869.936	39.39
870.315	39.38
870.693	39.37
871.072	39.34
871.45	39.29
871.828	39.25
872.207	39.23
872.585	39.17
872.963	39.15
873.341	39.13
873.719	39.12
874.097	39.08
874.475	39.05
874.853	39.01
875.23	39.01
875.608	39.02
875.986	38.98
876.363	38.96
876.741	38.97
877.118	38.92
877.495	38.9
877.873	38.84
878.25	38.83
878.627	38.83
879.004	38.83
879.381	38.8
879.758	38.76
880.135	38.79
880.512	38.76
880.889	38.74
881.265	38.75
881.642	38.73
882.019	38.74
882.395	38.73
882.772	38.7
883.148	38.69
883.524	38.67
883.901	38.66
884.277	38.62
884.653	38.6
885.029	38.58
885.405	38.56
885.781	38.53
886.157	38.55
886.532	38.54
886.908	38.53
887.284	38.52
887.659	38.52
888.035	38.5
888.411	38.49
888.786	38.46
889.161	38.44
889.537	38.41
889.912	38.38
890.287	38.33
890.662	38.28
891.037	38.24
891.412	38.19
891.787	38.13
892.162	38.07
892.536	38.02
892.911	37.98
893.286	37.91
893.66	37.87
894.035	37.81
894.409	37.75
894.784	37.68
895.158	37.63
895.532	37.55
895.906	37.48
896.281	37.43
896.655	37.38
897.029	37.3
897.402	37.27
897.776	37.21
898.15	37.19
898.524	37.16
898.898	37.13
899.271	37.1
899.645	37.1
900.018	37.1
900.392	37.1
900.765	37.12
901.138	37.16
901.511	37.16
901.884	37.19
902.258	37.17
902.631	37.19
903.003	37.21
903.376	37.19
903.749	37.17
904.122	37.18
904.495	37.15
904.867	37.13
905.24	37.06
905.612	37.03
905.985	36.98
906.357	36.93
906.729	36.89
907.102	36.86
907.474	36.83
907.846	36.82
908.218	36.77
908.59	36.74
908.962	36.68
909.334	36.71
909.705	36.68
910.077	36.67
910.449	36.67
910.82	36.65
911.192	36.64
911.563	36.61
911.935	36.56
912.306	36.55
912.677	36.55
913.048	36.55
913.419	36.47
913.79	36.46
914.161	36.43
914.532	36.43
914.903	36.45
915.274	36.44
915.645	36.5
916.015	36.53
916.386	36.51
916.756	36.5
917.127	36.52
917.497	36.55
917.868	36.55
918.238	36.56
918.608	36.56
918.978	36.51
919.348	36.5
919.718	36.46
920.088	36.43
920.458	36.45
920.828	36.44
921.198	36.46
921.567	36.45
921.937	36.46
922.306	36.46
922.676	36.44
923.045	36.42
923.415	36.41
923.784	36.4
924.153	36.39
924.522	36.35
924.891	36.32
925.26	36.22
925.629	36.17
925.998	36.15
926.367	36.12
926.736	36.09
927.104	36.06
927.473	36
927.842	35.89
928.21	35.88
928.578	35.78
928.947	35.71
929.315	35.68
929.683	35.61
930.051	35.48
930.42	35.34
930.788	35.24
931.156	35.13
931.523	35.02
931.891	34.92
932.259	34.78
932.627	34.7
932.994	34.64
933.362	34.53
933.729	34.41
934.097	34.39
934.464	34.37
934.831	34.3
935.199	34.29
935.566	34.28
935.933	34.28
936.3	34.28
936.667	34.3
937.034	34.29
937.401	34.26
937.767	34.33
938.134	34.36
938.501	34.36
938.867	34.4
939.234	34.44
939.6	34.47
939.967	34.57
940.333	34.64
940.699	34.68
941.065	34.76
941.431	34.86
941.798	34.95
942.163	34.91
942.529	34.92
942.895	35
943.261	35.01
943.627	34.99
943.992	35.01
944.358	34.97
944.723	34.99
945.089	35.03
945.454	35.06
945.82	35.02
946.185	35.09
946.55	35.18
946.915	35.19
947.28	35.21
947.645	35.24
948.01	35.2
948.375	35.26
948.74	35.22
949.104	35.23
949.469	35.18
949.834	35.12
950.198	35.06
950.562	35.03
950.927	34.97
951.291	34.95
951.655	34.99
952.02	34.96
952.384	34.93
952.748	34.91
953.112	34.82
953.476	34.84
953.839	34.84
954.203	34.79
954.567	34.74
954.931	34.76
955.294	34.74
955.658	34.67
956.021	34.61
956.385	34.58
956.748	34.55
957.111	34.57
957.474	34.54
957.837	34.5
958.2	34.52
958.563	34.5
958.926	34.47
959.289	34.48
959.652	34.5
960.015	34.47
960.377	34.46
960.74	34.43
961.102	34.41
961.465	34.39
961.827	34.3
962.189	34.31
962.552	34.29
962.914	34.28
963.276	34.3
963.638	34.22
964	34.23
964.362	34.22
964.724	34.25
965.085	34.28
965.447	34.23
965.809	34.3
966.17	34.26
966.532	34.29
966.893	34.3
967.255	34.23
967.616	34.24
967.977	34.27
968.338	34.24
968.699	34.26
969.061	34.19
969.421	34.29
969.782	34.35
970.143	34.41
970.504	34.37
970.865	34.31
971.225	34.28
971.586	34.35
971.946	34.34
972.307	34.38
972.667	34.41
973.027	34.46
973.388	34.41
973.748	34.35
974.108	34.29
974.468	34.26
974.828	34.32
975.188	34.39
975.548	34.32
975.907	34.34
976.267	34.37
976.627	34.34
976.986	34.33
977.346	34.34
977.705	34.3
978.064	34.36
978.424	34.39
978.783	34.37
979.142	34.34
979.501	34.28
979.86	34.24
980.219	34.08
980.578	34.05
980.937	34
981.296	33.91
981.654	33.99
982.013	33.96
982.371	33.92
982.73	33.96
983.088	33.9
983.447	33.99
983.805	33.96
984.163	34.11
984.521	34.08
984.879	34.15
985.237	34.26
985.595	34.23
985.953	34.27
986.311	34.37
986.669	34.31
987.026	34.34
987.384	34.26
987.741	34.34
988.099	34.19
988.456	34.29
988.814	34.2
989.171	34.12
989.528	34.1
989.885	34
990.242	33.95
990.599	33.97
990.956	33.94
991.313	33.98
991.67	34.03
992.027	34.04
992.383	34.05
992.74	34.06
993.096	34
993.453	34.01
993.809	34.02
994.165	34.06
994.522	33.95
994.878	34
995.234	33.97
995.59	33.8
995.946	33.86
996.302	33.73
996.658	33.78
997.013	33.92
997.369	33.82
997.725	33.85
998.08	33.67
998.436	33.8
998.791	33.71
999.147	33.71
999.502	33.86
999.857	33.86
1000.212	33.78
1000.567	33.73
1000.922	33.6
1001.277	33.7
1001.632	33.8
1001.987	33.91
1002.342	33.76
1002.696	33.77
1003.051	33.57
1003.406	33.36
1003.76	33.29
1004.114	33.36
1004.469	33.33
1004.823	33.33
1005.177	33.44
1005.531	33.23
1005.885	33.09
1006.239	33.14
1006.593	33.12
1006.947	33.37
1007.301	33.34
1007.655	33.45
1008.008	33.3
1008.362	33.32
1008.715	33.39
1009.069	33.32
1009.422	33.23
1009.776	33.38
1010.129	33.24
1010.482	33.39
1010.835	33.26
1011.188	33.31
1011.541	33.02
1011.894	33.17
1012.247	33.02
1012.6	33.02
1012.952	32.88
1013.305	32.98
1013.657	33.14
1014.01	33.32
1014.362	33.31
1014.715	33.32
1015.067	33.4
1015.419	33.61
1015.771	33.88
1016.123	33.81
1016.475	33.67
1016.827	33.87
1017.179	33.89
1017.531	33.83
1017.883	33.79
1018.234	33.55
1018.586	33.59
1018.938	33.36
1019.289	32.9
1019.64	32.87
1019.992	32.99
1020.343	33.01
1020.694	32.77
1021.045	32.98
1021.396	32.73
1021.747	32.82
1022.098	33.22
1022.449	33.35
1022.8	33.35
1023.151	33.58
1023.501	33.39
1023.852	33.42
1024.202	33.28
1024.553	33.37
1024.903	32.97
1025.253	33.08
1025.604	33.11
1025.954	32.76
1026.304	32.92
1026.654	33.22
1027.004	33.55
1027.354	33.45
1027.703	33.45
1028.053	33.64
1028.403	33.11
1028.753	33.26
1029.102	32.94
1029.452	32.46
1029.801	32.26
1030.15	31.8
1030.499	31.62
897.758	315.34
901.051	315.58
904.343	324.73
907.636	320.3
910.928	319.48
914.22	320.96
917.511	315.25
920.803	303.55
924.094	286.93
927.384	291.49
930.675	282.68
933.965	280.15
937.255	279.13
940.544	263.66
943.834	252.26
947.123	246.02
950.411	236.19
953.7	233.16
956.988	225.39
960.276	220.04
963.563	222.03
966.851	209.22
970.138	204.41
973.424	194.82
976.711	194.39
979.997	187.69
983.283	184.29
986.568	179.36
989.853	175.54
993.138	169.15
996.423	170.29
999.708	162.68
1002.992	164.33
1006.275	161.81
1009.559	160.96
1012.842	156.12
1016.125	152.35
1019.408	150.25
1022.69	149.42
1025.972	148.27
1029.254	146.15
1032.536	141.76
1035.817	138.36
1039.098	136.26
1042.379	135.28
1045.659	133.54
1048.939	132.29
1052.219	131.7
1055.498	130.04
1058.778	128.35
1062.057	126.65
1065.335	126.11
1068.614	123.42
1071.892	123.2
1075.17	121.18
1078.447	118.92
1081.724	118.09
1085.001	115.27
1088.278	116.06
1091.554	114.31
1094.83	113.88
1098.106	112.57
1101.382	112.11
1104.657	113.04
1107.932	112.04
1111.206	112.42
1114.481	111.69
1117.755	110.37
1121.029	111.73
1124.302	108.84
1127.575	108.94
1130.848	108.11
1134.121	106.82
1137.393	106.89
1140.665	105.78
1143.937	104.69
1147.208	103.08
1150.48	101.95
1153.75	102.16
1157.021	101.01
1160.291	101.47
1163.561	100.48
1166.831	100.43
1170.101	100.03
1173.37	99.39
1176.639	99.17
1179.907	98.95
1183.176	98.66
1186.444	98.82
1189.711	97.77
1192.979	98.28
1196.246	98.57
1199.513	98.47
1202.78	98.04
1206.046	98.46
1209.312	97.77
1212.578	97.83
1215.843	99.41
1219.108	99.74
1222.373	100.99
1225.638	103.44
1228.902	105.42
1232.166	106.8
1235.43	107.02
1238.693	109.82
1241.956	111.25
1245.219	113.44
1248.482	115.21
1251.744	114.25
1255.006	115.69
1258.268	112.95
1261.529	111.68
1264.79	108.64
1268.051	107.59
1271.312	108.3
1274.572	105.86
1277.832	104.8
1281.092	104.54
1284.351	102.13
1287.61	102.25
1290.869	101.71
1294.128	102.05
1297.386	100.69
1300.644	100.6
1303.902	99.49
1307.159	98.69
1310.416	99.68
1313.673	100.07
1316.93	100.02
1320.186	102.14
1323.442	102.41
1326.697	102.74
1329.953	102.8
1333.208	105.76
1336.463	109.25
1339.717	111.39
1342.972	113.88
1346.226	116.26
1349.479	116.86
1352.733	120.7
1355.986	120.27
1359.238	122.99
1362.491	123.35
1365.743	126.96
1368.995	127.97
1372.247	128.06
1375.498	126.92
1378.749	130.73
1382	129.34
1385.251	127.79
1388.501	126.81
1391.751	128.64
1395	125.35
1398.25	127.42
1401.499	126.76
1404.748	124.86
1407.996	119.81
1411.244	119.66
1414.492	118.5
1417.74	115.9
1420.987	112.19
1424.234	110.83
1427.481	106.33
1430.728	105.15
1433.974	100.48
1437.22	97.93
1440.465	94.71
1443.711	92.7
1446.956	90.41
1450.201	86.99
1453.445	82.23
1456.689	81
1459.933	78.27
1463.177	75.32
1466.42	74.58
1469.663	72.77
1472.906	70.15
1476.148	68.34
1479.391	66.9
1482.633	65.46
1485.874	65.1
1489.115	65.13
1492.356	64.61
1495.597	63.58
1498.838	64.58
1502.078	63.53
1505.318	63.79
1508.557	63.45
1511.797	63.66
1515.036	64.22
1518.274	64.67
1521.513	63.99
1524.751	63.69
1527.989	64.77
1531.227	65.11
1534.464	64.93
1537.701	64.68
1540.938	64.47
1544.174	65.09
1547.41	65.58
1550.646	65.3
1553.882	65.31
1557.117	65.11
1560.352	65.75
1563.587	65.21
1566.821	65.1
1570.055	64.8
1573.289	65.24
1576.523	65.26
1579.756	65.35
1582.989	65.26
1586.222	65.48
1589.454	65.37
1592.686	66.07
1595.918	65.19
1599.15	65.16
1602.381	65.41
1605.612	65.73
1608.843	65.5
1612.073	66.35
1615.303	65.9
1618.533	65.95
1621.762	66.28
1624.992	66.27
1628.221	65.82
1631.449	66.91
1634.678	66.74
1637.906	67.3
1641.134	67.32
1644.361	67.58
1647.588	67.27
1650.815	67.97
1654.042	68.25
1657.269	67.93
1660.495	68.84
1663.72	69.14
1666.946	68.78
1670.171	69.42
1673.396	69.64
1676.621	69.52
1679.845	70.06
1683.069	69.1
1686.293	69.14
1689.517	68.81
1692.74	69.09
1695.963	68.85
1699.185	68.79
1702.408	69.02
1705.63	68.91
1708.852	69.22
1712.073	69.21
1715.294	68.81
1718.515	70.59
1721.736	70.48
1724.956	70.45
1728.176	70.24
1731.396	70.34
1734.616	70.74
1737.835	70.62
1741.054	70.58
1744.272	69.76
1747.491	70.02
1750.709	70.29
1753.927	69.82
1757.144	69.56
1760.361	69.53
1763.578	70.07
1766.795	70.16
1770.011	69.8
1773.227	69.9
1776.443	70.05
1779.658	69.92
1782.874	70.2
1786.089	69.54
1789.303	69.45
1792.518	70
1795.732	70.83
1798.945	71.39
1802.159	71.08
1805.372	71.38
1808.585	72.12
1811.797	72.41
1815.01	73.5
1818.222	73.81
1821.434	74.78
1824.645	74.85
1827.856	75.76
1831.067	75.72
1834.278	75.39
1837.488	76.78
1840.698	77.05
1843.908	77.21
1847.117	77.71
1850.326	77.53
1853.535	77.23
1856.744	77.36
1859.952	77.49
1863.16	76.62
1866.368	75.95
1869.575	75.77
1872.782	73.94
1875.989	71.96
1879.196	71.33
1882.402	70.1
1885.608	69.82
1888.814	69.15
1892.019	68.56
1895.224	67.35
1898.429	67.37
1901.634	66.76
1904.838	66.52
1908.042	67.15
1911.246	66.8
1914.449	66.7
1917.652	66.15
1920.855	66.33
1924.058	65.79
1927.26	64.66
1930.462	66.11
1933.664	64.94
1936.865	66.91
1940.066	65.16
1943.267	64.73
1946.467	65.57
1949.668	65.16
1952.868	65.29
1956.067	65.1
1959.267	65.06
1962.466	65.7
1965.665	66.1
1968.863	67.74
1972.061	66.39
1975.259	69.51
1978.457	69.36
1981.654	70.3
1984.852	71.7
1988.048	72.81
1991.245	73.67
1994.441	76
1997.637	77.09
2000.833	78.74
2004.028	79.08
2007.223	81.32
2010.418	82.48
2013.613	86.88
2016.807	89.4
2020.001	90.23
2023.194	93.8
2026.388	96.59
2029.581	101.56
2032.774	104.93
2035.966	107.03
2039.158	110.16
2042.35	110.93
2045.542	113.59
2048.733	117.21
2051.924	118.89
2055.115	119.93
2058.306	119.91
2061.496	122.04
2064.686	120.84
2067.875	121.89
2071.065	123.04
2074.254	122.25
2077.442	128.05
2080.631	128.52
2083.819	129.03
2087.007	132.57
2090.195	135.3
2093.382	136.3
2096.569	137.74
2099.756	139.75
2102.942	141.33
2106.128	142.86
2109.314	147.42
2112.5	146.3
2115.685	142.62
2118.87	143.54
2122.055	143.64
2125.239	146.17
2128.424	150.12
2131.608	146.98
2134.791	146.12
2137.974	148.68
2141.157	151.8
2144.34	150.47
2147.523	154.86
2150.705	160.35
2153.887	159.08
2157.068	158.96
2160.25	162.32
2163.431	160.17
2166.611	163.59
2169.792	167.96
2172.972	168.81
2176.152	169.38
2179.331	173.19
2182.511	172.9
2185.69	175.84
2188.868	179.07
2192.047	185.35
2195.225	187.27
2198.403	187.71
2201.58	189.16
2204.758	193.64
2207.935	194.59
2211.111	197.11
2214.288	197.17
2217.464	198.91
2220.64	199.43
2223.815	202.51
2226.991	199.51
2230.166	201.33
2233.34	210.67
2236.515	209.24
2239.689	209.26
2242.863	213.09
2246.036	209.91
2249.209	212.17
2252.382	212.36
2255.555	220.38
2258.727	222.03
2261.9	224.27
2265.071	226.99
2268.243	224.69
2271.414	236.43
2274.585	239.93
2277.756	240.39
2280.926	246.57
2284.096	251.64
2287.266	250.33
2290.436	248.88
2293.605	253.86
2296.774	265.75
2299.942	268.37
2303.111	272.7
2306.279	280.09
2309.447	280.42
2312.614	283.56
2315.781	291.88
2318.948	295.38
2322.115	303.43
2325.281	310.89
2328.447	307.65
2331.613	308.01
2334.779	309.58
2337.944	312.69
2341.109	315.18
2344.274	320.61
2347.438	325.77
2350.602	334.44
2353.766	350.39
2356.929	349.95
2360.092	359.42
2363.255	363.75
2366.418	369.29
2369.58	376.04
2372.742	375.15
2375.904	375.43
2379.066	382.04
2382.227	397.83
2385.388	390.31
2388.548	372.37
2391.709	370.31
2394.869	378.75
2398.029	383.86
2401.188	375.69
2404.347	388.52
2407.506	408.41
2410.665	387.07
2413.823	395.54
2416.981	398.46
2420.139	385.22
2423.296	419.46
2426.453	445.24
2429.61	428.1
2432.767	449.34
2435.923	478.99
2439.079	462.85
2442.235	468.06
2445.391	491.95
2448.546	481.09
2451.701	503.28
2454.855	536.91
2458.009	478.83
2461.163	484.13
2464.317	492.74
2467.471	487.42
2470.624	491.86
2473.777	482
2476.929	472.74
2480.082	490.35
2483.234	517.88
2486.385	529.84
2489.537	544.14
2492.688	588.82
2495.839	584.08
2498.989	594.4
2502.14	588.57
2505.29	581.04
2508.439	631.42
2511.589	642.66
2514.738	634.62
2517.887	623.86
2521.035	580.7
2524.183	574.71
2527.331	573.74
2530.479	559.17
2533.627	569.09
