Data from C_2_dec_on_6n_058_Splice17_01.txt Node
Date: Sat Feb 29 14:30:23 EST 2020
User: sa697716
Spectrometer: FLMS03696
Trigger mode: 0
Integration Time (sec): 3.180400E-1
Scans to average: 20
Electric dark correction enabled: true
Nonlinearity correction enabled: true
Boxcar width: 5
XAxis mode: Wavelengths
Number of Pixels in Spectrum: 2048
>>>>>Begin Spectral Data<<<<<
187.83	25.12
188.298	24.69
188.766	46.71
189.233	38.86
189.701	56.05
190.169	65.09
190.636	68.47
191.104	86.22
191.571	530.96
192.039	390.02
192.506	-568.12
192.974	-1846.08
193.441	573.56
193.908	84.48
194.375	88.49
194.842	280.08
195.31	187.47
195.777	94.88
196.244	-12.33
196.711	0.58
197.177	-3.58
197.644	-2.15
198.111	-3.96
198.578	-3.95
199.045	-4.44
199.511	-3.98
199.978	-3
200.445	-3.14
200.911	-2.47
201.378	-1.63
201.844	-1.75
202.31	-1.19
202.777	-1.12
203.243	-0.45
203.709	0.39
204.176	0.36
204.642	0.72
205.108	0.09
205.574	0.7
206.04	1.07
206.506	1.24
206.972	1.37
207.438	0.97
207.903	1.35
208.369	1.15
208.835	1.25
209.301	1.69
209.766	1.69
210.232	1.95
210.697	1.79
211.163	1.8
211.628	1.79
212.094	1.91
212.559	2.08
213.024	1.76
213.49	1.74
213.955	1.78
214.42	1.65
214.885	1.47
215.35	1.64
215.815	1.46
216.28	1.43
216.745	1.59
217.21	1.57
217.675	1.65
218.14	1.72
218.604	1.73
219.069	1.66
219.534	1.55
219.998	1.49
220.463	1.45
220.927	1.49
221.392	1.41
221.856	1.37
222.32	1.33
222.785	1.31
223.249	1.28
223.713	1.26
224.177	1.23
224.642	1.26
225.106	1.28
225.57	1.26
226.034	1.26
226.497	1.28
226.961	1.25
227.425	1.2
227.889	1.22
228.353	1.19
228.816	1.19
229.28	1.15
229.744	1.17
230.207	1.17
230.671	1.16
231.134	1.14
231.597	1.12
232.061	1.1
232.524	1.14
232.987	1.13
233.45	1.12
233.914	1.12
234.377	1.14
234.84	1.12
235.303	1.11
235.766	1.11
236.229	1.1
236.691	1.11
237.154	1.12
237.617	1.09
238.08	1.07
238.542	1.07
239.005	1.06
239.468	1.05
239.93	1.05
240.393	1.04
240.855	1.02
241.317	1.02
241.78	1.01
242.242	0.99
242.704	0.99
243.166	0.99
243.629	0.98
244.091	0.97
244.553	0.98
245.015	0.97
245.477	0.96
245.939	0.96
246.4	0.95
246.862	0.95
247.324	0.96
247.786	0.96
248.247	0.96
248.709	0.95
249.17	0.95
249.632	0.94
250.093	0.92
250.555	0.91
251.016	0.92
251.477	0.92
251.939	0.91
252.4	0.91
252.861	0.9
253.322	0.9
253.783	0.91
254.244	0.91
254.705	0.9
255.166	0.91
255.627	0.92
256.088	0.9
256.549	0.9
257.009	0.9
257.47	0.9
257.931	0.9
258.391	0.9
258.852	0.89
259.312	0.89
259.773	0.9
260.233	0.89
260.694	0.88
261.154	0.89
261.614	0.88
262.074	0.89
262.534	0.88
262.994	0.88
263.455	0.89
263.915	0.88
264.374	0.88
264.834	0.88
265.294	0.88
265.754	0.88
266.214	0.88
266.673	0.88
267.133	0.87
267.593	0.88
268.052	0.87
268.512	0.86
268.971	0.86
269.431	0.86
269.89	0.86
270.349	0.85
270.809	0.86
271.268	0.86
271.727	0.86
272.186	0.86
272.645	0.85
273.104	0.86
273.563	0.87
274.022	0.87
274.481	0.86
274.94	0.86
275.399	0.87
275.857	0.87
276.316	0.87
276.775	0.86
277.233	0.86
277.692	0.87
278.15	0.86
278.609	0.85
279.067	0.85
279.525	0.84
279.984	0.84
280.442	0.84
280.9	0.83
281.358	0.83
281.816	0.84
282.274	0.83
282.732	0.83
283.19	0.83
283.648	0.83
284.106	0.83
284.564	0.84
285.021	0.83
285.479	0.83
285.937	0.82
286.394	0.83
286.852	0.82
287.309	0.82
287.767	0.82
288.224	0.82
288.682	0.82
289.139	0.82
289.596	0.82
290.053	0.82
290.511	0.82
290.968	0.83
291.425	0.83
291.882	0.82
292.339	0.82
292.796	0.82
293.252	0.81
293.709	0.8
294.166	0.8
294.623	0.8
295.079	0.8
295.536	0.79
295.992	0.79
296.449	0.79
296.905	0.78
297.362	0.78
297.818	0.78
298.274	0.78
298.731	0.78
299.187	0.78
299.643	0.78
300.099	0.79
300.555	0.78
301.011	0.78
301.467	0.78
301.923	0.79
302.379	0.8
302.835	0.8
303.291	0.8
303.746	0.79
304.202	0.78
304.658	0.78
305.113	0.78
305.569	0.78
306.024	0.78
306.479	0.78
306.935	0.78
307.39	0.77
307.845	0.77
308.301	0.77
308.756	0.77
309.211	0.77
309.666	0.78
310.121	0.77
310.576	0.77
311.031	0.76
311.486	0.76
311.94	0.76
312.395	0.76
312.85	0.75
313.305	0.76
313.759	0.76
314.214	0.75
314.668	0.76
315.123	0.76
315.577	0.76
316.032	0.76
316.486	0.76
316.94	0.76
317.394	0.76
317.849	0.76
318.303	0.76
318.757	0.76
319.211	0.76
319.665	0.76
320.119	0.76
320.572	0.76
321.026	0.77
321.48	0.77
321.934	0.77
322.387	0.78
322.841	0.78
323.295	0.78
323.748	0.78
324.202	0.78
324.655	0.77
325.108	0.76
325.562	0.76
326.015	0.75
326.468	0.74
326.921	0.73
327.374	0.74
327.827	0.73
328.28	0.73
328.733	0.73
329.186	0.73
329.639	0.73
330.092	0.72
330.545	0.71
330.997	0.72
331.45	0.72
331.903	0.72
332.355	0.72
332.808	0.72
333.26	0.72
333.713	0.71
334.165	0.71
334.617	0.71
335.069	0.72
335.522	0.73
335.974	0.73
336.426	0.74
336.878	0.73
337.33	0.72
337.782	0.72
338.234	0.72
338.686	0.72
339.137	0.72
339.589	0.72
340.041	0.72
340.493	0.71
340.944	0.71
341.396	0.71
341.847	0.71
342.299	0.71
342.75	0.7
343.201	0.71
343.653	0.71
344.104	0.71
344.555	0.71
345.006	0.71
345.457	0.71
345.908	0.71
346.359	0.71
346.81	0.72
347.261	0.72
347.712	0.73
348.163	0.72
348.613	0.72
349.064	0.71
349.515	0.7
349.965	0.69
350.416	0.69
350.866	0.7
351.317	0.7
351.767	0.69
352.217	0.69
352.668	0.69
353.118	0.7
353.568	0.71
354.018	0.71
354.468	0.72
354.918	0.74
355.368	0.74
355.818	0.73
356.268	0.74
356.718	0.73
357.168	0.73
357.617	0.73
358.067	0.72
358.517	0.71
358.966	0.71
359.416	0.72
359.865	0.71
360.315	0.71
360.764	0.72
361.213	0.72
361.663	0.73
362.112	0.74
362.561	0.74
363.01	0.75
363.459	0.75
363.908	0.75
364.357	0.75
364.806	0.76
365.255	0.77
365.703	0.76
366.152	0.76
366.601	0.76
367.05	0.75
367.498	0.75
367.947	0.75
368.395	0.76
368.844	0.75
369.292	0.76
369.74	0.75
370.189	0.75
370.637	0.76
371.085	0.78
371.533	0.78
371.981	0.79
372.429	0.78
372.877	0.78
373.325	0.77
373.773	0.78
374.221	0.78
374.669	0.78
375.116	0.78
375.564	0.78
376.012	0.78
376.459	0.78
376.907	0.8
377.354	0.81
377.801	0.82
378.249	0.83
378.696	0.85
379.143	0.86
379.591	0.87
380.038	0.88
380.485	0.89
380.932	0.9
381.379	0.9
381.826	0.91
382.273	0.92
382.72	0.92
383.166	0.94
383.613	0.95
384.06	0.97
384.506	0.99
384.953	1.02
385.4	1.05
385.846	1.09
386.292	1.15
386.739	1.2
387.185	1.27
387.631	1.34
388.078	1.4
388.524	1.45
388.97	1.52
389.416	1.6
389.862	1.7
390.308	1.83
390.754	1.99
391.2	2.15
391.645	2.29
392.091	2.41
392.537	2.54
392.983	2.76
393.428	3.05
393.874	3.42
394.319	3.82
394.765	4.24
395.21	4.66
395.655	5.11
396.101	5.61
396.546	6.16
396.991	6.79
397.436	7.43
397.881	8.07
398.326	8.7
398.771	9.28
399.216	9.84
399.661	10.36
400.106	10.83
400.551	11.25
400.995	11.62
401.44	11.93
401.885	12.24
402.329	12.55
402.774	12.88
403.218	13.25
403.663	13.65
404.107	14.1
404.551	14.55
404.995	14.97
405.44	15.37
405.884	15.77
406.328	16.28
406.772	16.86
407.216	17.45
407.66	17.99
408.104	18.47
408.547	18.86
408.991	19.22
409.435	19.62
409.879	20.08
410.322	20.61
410.766	21.18
411.209	21.7
411.653	22.13
412.096	22.53
412.54	22.89
412.983	23.27
413.426	23.71
413.869	24.16
414.312	24.59
414.756	24.99
415.199	25.33
415.642	25.65
416.085	25.93
416.527	26.15
416.97	26.26
417.413	26.31
417.856	26.27
418.298	26.22
418.741	26.2
419.184	26.22
419.626	26.28
420.069	26.4
420.511	26.5
420.953	26.59
421.396	26.76
421.838	27.04
422.28	27.42
422.722	27.83
423.164	28.23
423.606	28.55
424.048	28.76
424.49	28.86
424.932	28.71
425.374	28.29
425.816	27.68
426.258	27.04
426.699	26.59
427.141	26.47
427.582	26.67
428.024	27.04
428.465	27.47
428.907	27.93
429.348	28.31
429.789	28.86
430.231	29.75
430.672	31.05
431.113	32.51
431.554	33.9
431.995	34.98
432.436	35.73
432.877	36.26
433.318	36.67
433.759	37.11
434.2	37.71
434.64	38.48
435.081	39.25
435.522	39.84
435.962	40.32
436.403	40.72
436.843	41.07
437.284	41.47
437.724	41.9
438.164	42.48
438.604	43.14
439.045	43.81
439.485	44.39
439.925	44.87
440.365	45.24
440.805	45.5
441.245	45.66
441.685	45.88
442.125	46.14
442.564	46.5
443.004	46.84
443.444	47.21
443.883	47.64
444.323	48.11
444.762	48.59
445.202	49.17
445.641	49.85
446.081	50.7
446.52	51.49
446.959	52.21
447.398	52.79
447.837	53.14
448.276	53.27
448.716	53.3
449.154	53.35
449.593	53.38
450.032	53.37
450.471	53.2
450.91	52.92
451.349	52.68
451.787	52.49
452.226	52.34
452.664	52.26
453.103	52.28
453.541	52.28
453.98	52.11
454.418	51.9
454.856	51.62
455.295	51.39
455.733	51.17
456.171	50.97
456.609	50.78
457.047	50.64
457.485	50.58
457.923	50.57
458.361	50.62
458.798	50.78
459.236	50.91
459.674	51.02
460.111	51.17
460.549	51.3
460.987	51.45
461.424	51.6
461.862	51.75
462.299	51.84
462.736	51.99
463.173	52.2
463.611	52.48
464.048	52.86
464.485	53.37
464.922	53.9
465.359	54.41
465.796	54.82
466.233	55.25
466.67	55.75
467.106	56.44
467.543	57.17
467.98	57.87
468.416	58.48
468.853	59.02
469.29	59.52
469.726	60.02
470.162	60.59
470.599	61.23
471.035	61.78
471.471	62.1
471.907	62.27
472.344	62.35
472.78	62.4
473.216	62.56
473.652	62.71
474.088	62.8
474.523	62.82
474.959	62.79
475.395	62.76
475.831	62.7
476.266	62.72
476.702	62.75
477.138	62.71
477.573	62.63
478.008	62.4
478.444	62.11
478.879	61.78
479.314	61.37
479.75	60.9
480.185	60.32
480.62	59.64
481.055	58.67
481.49	57.4
481.925	56.01
482.36	54.74
482.795	53.65
483.229	52.83
483.664	52.14
484.099	51.55
484.534	51.06
484.968	50.69
485.403	50.51
485.837	50.62
486.271	50.96
486.706	51.36
487.14	51.6
487.574	51.68
488.009	51.62
488.443	51.55
488.877	51.48
489.311	51.41
489.745	51.36
490.179	51.31
490.613	51.26
491.046	51.22
491.48	51.27
491.914	51.42
492.348	51.65
492.781	51.85
493.215	51.97
493.648	52.06
494.082	52.08
494.515	52.08
494.948	52.04
495.382	52
495.815	51.94
496.248	51.82
496.681	51.63
497.114	51.41
497.547	51.25
497.98	51.18
498.413	51.23
498.846	51.32
499.279	51.39
499.711	51.43
500.144	51.52
500.577	51.71
501.009	52.06
501.442	52.54
501.874	53.08
502.306	53.55
502.739	53.92
503.171	54.2
503.603	54.48
504.036	54.8
504.468	55.2
504.9	55.61
505.332	55.94
505.764	56.2
506.196	56.4
506.627	56.65
507.059	56.98
507.491	57.36
507.923	57.74
508.354	58.1
508.786	58.4
509.217	58.62
509.649	58.81
510.08	59.02
510.512	59.24
510.943	59.51
511.374	59.69
511.805	59.68
512.237	59.5
512.668	59.22
513.099	59.01
513.53	58.9
513.961	58.81
514.391	58.84
514.822	58.99
515.253	59.25
515.684	59.51
516.114	59.85
516.545	60.36
516.975	61.14
517.406	62.06
517.836	62.93
518.267	63.71
518.697	64.47
519.127	65.21
519.558	65.9
519.988	66.53
520.418	67.1
520.848	67.62
521.278	68.01
521.708	68.18
522.138	68.17
522.567	68.13
522.997	68.18
523.427	68.36
523.857	68.57
524.286	68.82
524.716	69.05
525.145	69.26
525.575	69.46
526.004	69.78
526.433	70.32
526.863	71
527.292	71.67
527.721	72.16
528.15	72.4
528.579	72.51
529.008	72.48
529.437	72.43
529.866	72.37
530.295	72.4
530.724	72.44
531.152	72.43
531.581	72.45
532.01	72.39
532.438	72.38
532.867	72.46
533.295	72.55
533.723	72.68
534.152	72.77
534.58	72.8
535.008	72.66
535.436	72.42
535.865	72.06
536.293	71.71
536.721	71.52
537.149	71.43
537.576	71.4
538.004	71.39
538.432	71.33
538.86	71.31
539.287	71.36
539.715	71.55
540.143	71.81
540.57	72.15
540.998	72.55
541.425	72.91
541.852	73.21
542.28	73.48
542.707	73.7
543.134	73.9
543.561	74.04
543.988	74.23
544.415	74.39
544.842	74.58
545.269	74.81
545.696	74.93
546.123	75.1
546.549	75.26
546.976	75.41
547.403	75.63
547.829	75.87
548.256	76.08
548.682	76.19
549.108	76.33
549.535	76.44
549.961	76.5
550.387	76.63
550.813	76.75
551.24	76.83
551.666	76.9
552.092	76.82
552.518	76.69
552.943	76.62
553.369	76.53
553.795	76.36
554.221	76.05
554.646	75.67
555.072	75.25
555.498	74.78
555.923	74.44
556.349	74.09
556.774	73.85
557.199	73.62
557.625	73.37
558.05	73.12
558.475	72.88
558.9	72.75
559.325	72.62
559.75	72.45
560.175	72.29
560.6	71.97
561.025	71.6
561.449	71.16
561.874	70.72
562.299	70.3
562.723	69.9
563.148	69.52
563.572	69.09
563.997	68.63
564.421	68.15
564.846	67.66
565.27	67.24
565.694	66.79
566.118	66.31
566.542	65.83
566.966	65.34
567.39	64.88
567.814	64.45
568.238	64.1
568.662	63.83
569.086	63.6
569.509	63.38
569.933	63.14
570.357	62.91
570.78	62.73
571.204	62.56
571.627	62.42
572.05	62.27
572.474	62.08
572.897	61.88
573.32	61.61
573.743	61.34
574.166	61.05
574.589	60.8
575.012	60.65
575.435	60.53
575.858	60.48
576.281	60.44
576.704	60.39
577.126	60.38
577.549	60.38
577.972	60.47
578.394	60.56
578.817	60.72
579.239	60.84
579.661	60.92
580.084	61.01
580.506	61.01
580.928	60.96
581.35	60.86
581.772	60.73
582.194	60.54
582.616	60.36
583.038	60.21
583.46	60.01
583.882	59.7
584.303	59.29
584.725	58.7
585.147	58.1
585.568	57.58
585.99	57.17
586.411	56.86
586.833	56.59
587.254	56.31
587.675	56.02
588.096	55.78
588.518	55.62
588.939	55.56
589.36	55.68
589.781	55.84
590.202	55.91
590.623	55.88
591.043	55.76
591.464	55.62
591.885	55.47
592.305	55.33
592.726	55.15
593.147	54.97
593.567	54.75
593.987	54.55
594.408	54.31
594.828	54.12
595.248	53.94
595.669	53.74
596.089	53.51
596.509	53.22
596.929	52.89
597.349	52.53
597.769	52.21
598.189	51.96
598.608	51.68
599.028	51.47
599.448	51.28
599.867	51.07
600.287	50.89
600.706	50.7
601.126	50.55
601.545	50.38
601.965	50.23
602.384	50.1
602.803	49.96
603.222	49.77
603.641	49.53
604.061	49.27
604.48	49
604.898	48.72
605.317	48.45
605.736	48.14
606.155	47.87
606.574	47.61
606.992	47.32
607.411	47.04
607.829	46.73
608.248	46.48
608.666	46.22
609.085	45.93
609.503	45.64
609.921	45.37
610.339	45.16
610.758	44.95
611.176	44.7
611.594	44.42
612.012	44.11
612.43	43.85
612.847	43.57
613.265	43.35
613.683	43.19
614.101	43.06
614.518	42.92
614.936	42.76
615.353	42.6
615.771	42.53
616.188	42.48
616.606	42.43
617.023	42.39
617.44	42.34
617.857	42.22
618.274	42.08
618.691	41.9
619.108	41.71
619.525	41.52
619.942	41.31
620.359	41.05
620.776	40.75
621.192	40.49
621.609	40.25
622.026	40.03
622.442	39.86
622.859	39.65
623.275	39.46
623.691	39.25
624.108	39.05
624.524	38.88
624.94	38.7
625.356	38.54
625.772	38.4
626.188	38.26
626.604	38.08
627.02	37.9
627.436	37.75
627.852	37.63
628.268	37.59
628.683	37.53
629.099	37.5
629.514	37.45
629.93	37.43
630.345	37.41
630.761	37.4
631.176	37.41
631.591	37.37
632.007	37.36
632.422	37.37
632.837	37.32
633.252	37.3
633.667	37.25
634.082	37.27
634.497	37.26
634.911	37.2
635.326	37.12
635.741	37.03
636.155	36.95
636.57	36.83
636.984	36.7
637.399	36.54
637.813	36.39
638.228	36.23
638.642	36.05
639.056	35.88
639.47	35.74
639.884	35.61
640.298	35.47
640.712	35.32
641.126	35.21
641.54	35.08
641.954	34.95
642.368	34.79
642.781	34.63
643.195	34.45
643.609	34.26
644.022	34.08
644.436	33.89
644.849	33.72
645.262	33.52
645.676	33.32
646.089	33.17
646.502	33.05
646.915	32.93
647.328	32.82
647.741	32.72
648.154	32.65
648.567	32.57
648.98	32.53
649.393	32.48
649.805	32.47
650.218	32.41
650.631	32.3
651.043	32.1
651.456	31.78
651.868	31.33
652.28	30.87
652.693	30.43
653.105	30.09
653.517	29.82
653.929	29.6
654.341	29.41
654.753	29.29
655.165	29.18
655.577	29.16
655.989	29.27
656.401	29.51
656.813	29.8
657.224	30.02
657.636	30.17
658.047	30.22
658.459	30.21
658.87	30.14
659.282	30.08
659.693	29.99
660.104	29.88
660.515	29.79
660.926	29.68
661.338	29.53
661.749	29.39
662.159	29.23
662.57	29.09
662.981	28.94
663.392	28.8
663.803	28.64
664.213	28.52
664.624	28.41
665.035	28.27
665.445	28.15
665.855	28.01
666.266	27.87
666.676	27.72
667.086	27.54
667.497	27.39
667.907	27.25
668.317	27.11
668.727	26.95
669.137	26.8
669.547	26.66
669.956	26.51
670.366	26.4
670.776	26.27
671.186	26.16
671.595	26.08
672.005	26
672.414	25.93
672.824	25.84
673.233	25.77
673.642	25.67
674.052	25.59
674.461	25.52
674.87	25.47
675.279	25.42
675.688	25.36
676.097	25.3
676.506	25.26
676.915	25.2
677.323	25.18
677.732	25.17
678.141	25.16
678.549	25.16
678.958	25.17
679.366	25.13
679.775	25.09
680.183	25.07
680.592	25.08
681	25.06
681.408	25.04
681.816	24.95
682.224	24.75
682.632	24.42
683.04	23.97
683.448	23.53
683.856	23.16
684.264	22.85
684.671	22.55
685.079	22.26
685.487	22.01
685.894	21.81
686.302	21.71
686.709	21.78
687.116	22.02
687.524	22.42
687.931	22.85
688.338	23.29
688.745	23.73
689.152	24.18
689.559	24.6
689.966	25.01
690.373	25.41
690.78	25.79
691.187	26.13
691.593	26.48
692	26.84
692.407	27.18
692.813	27.49
693.22	27.78
693.626	28.05
694.032	28.33
694.439	28.63
694.845	28.9
695.251	29.17
695.657	29.42
696.063	29.64
696.469	29.81
696.875	29.96
697.281	30.09
697.687	30.25
698.093	30.4
698.498	30.57
698.904	30.73
699.31	30.93
699.715	31.14
700.12	31.35
700.526	31.6
700.931	31.83
701.337	32.09
701.742	32.33
702.147	32.58
702.552	32.82
702.957	33.05
703.362	33.31
703.767	33.52
704.172	33.73
704.577	33.88
704.981	34.04
705.386	34.22
705.791	34.39
706.195	34.56
706.6	34.72
707.004	34.89
707.408	35.06
707.813	35.17
708.217	35.27
708.621	35.37
709.025	35.5
709.43	35.61
709.834	35.73
710.237	35.81
710.641	35.9
711.045	35.96
711.449	36.02
711.853	36.04
712.256	36.03
712.66	35.95
713.064	35.82
713.467	35.63
713.87	35.37
714.274	35.06
714.677	34.71
715.08	34.33
715.484	33.98
715.887	33.64
716.29	33.38
716.693	33.23
717.096	33.26
717.499	33.41
717.901	33.65
718.304	33.93
718.707	34.26
719.109	34.56
719.512	34.87
719.915	35.16
720.317	35.4
720.719	35.57
721.122	35.7
721.524	35.73
721.926	35.69
722.328	35.61
722.731	35.58
723.133	35.51
723.535	35.53
723.937	35.54
724.338	35.55
724.74	35.58
725.142	35.53
725.544	35.56
725.945	35.6
726.347	35.65
726.748	35.67
727.15	35.67
727.551	35.78
727.952	35.86
728.354	36.04
728.755	36.24
729.156	36.47
729.557	36.81
729.958	37.04
730.359	37.23
730.76	37.38
731.161	37.58
731.562	37.76
731.962	37.88
732.363	37.96
732.763	38.01
733.164	38.03
733.564	38.01
733.965	37.96
734.365	37.88
734.766	37.82
735.166	37.74
735.566	37.68
735.966	37.61
736.366	37.53
736.766	37.49
737.166	37.39
737.566	37.33
737.966	37.29
738.365	37.23
738.765	37.24
739.165	37.26
739.564	37.29
739.964	37.28
740.363	37.29
740.763	37.31
741.162	37.32
741.561	37.36
741.96	37.39
742.36	37.41
742.759	37.43
743.158	37.4
743.557	37.38
743.955	37.38
744.354	37.38
744.753	37.37
745.152	37.3
745.55	37.24
745.949	37.19
746.348	37.15
746.746	37.09
747.144	37.03
747.543	36.96
747.941	36.92
748.339	36.86
748.737	36.83
749.136	36.77
749.534	36.8
749.932	36.8
750.33	36.78
750.727	36.74
751.125	36.7
751.523	36.67
751.921	36.64
752.318	36.57
752.716	36.51
753.113	36.42
753.511	36.33
753.908	36.2
754.305	36.03
754.703	35.7
755.1	35.03
755.497	33.91
755.894	32.33
756.291	30.48
756.688	28.52
757.085	26.65
757.482	24.93
757.878	23.32
758.275	21.71
758.672	20.1
759.068	18.65
759.465	17.58
759.861	17.06
760.258	17.1
760.654	17.57
761.05	18.3
761.447	19.03
761.843	19.76
762.239	20.51
762.635	21.43
763.031	22.5
763.427	23.68
763.822	24.94
764.218	26.17
764.614	27.34
765.01	28.4
765.405	29.38
765.801	30.29
766.196	31.1
766.592	31.76
766.987	32.3
767.382	32.74
767.778	33.06
768.173	33.3
768.568	33.45
768.963	33.59
769.358	33.73
769.753	33.81
770.148	33.83
770.542	33.79
770.937	33.79
771.332	33.73
771.726	33.69
772.121	33.63
772.515	33.59
772.91	33.58
773.304	33.53
773.699	33.44
774.093	33.35
774.487	33.31
774.881	33.3
775.275	33.24
775.669	33.22
776.063	33.12
776.457	33.05
776.851	32.95
777.245	32.87
777.638	32.78
778.032	32.72
778.425	32.64
778.819	32.55
779.212	32.42
779.606	32.35
779.999	32.23
780.392	32.15
780.786	32.08
781.179	32.03
781.572	31.91
781.965	31.8
782.358	31.68
782.751	31.57
783.143	31.45
783.536	31.39
783.929	31.27
784.322	31.16
784.714	31.04
785.107	30.89
785.499	30.76
785.891	30.62
786.284	30.51
786.676	30.37
787.068	30.24
787.46	30.09
787.852	29.91
788.245	29.74
788.636	29.6
789.028	29.42
789.42	29.26
789.812	29.1
790.204	28.92
790.595	28.74
790.987	28.58
791.378	28.44
791.77	28.33
792.161	28.2
792.553	28.06
792.944	27.94
793.335	27.85
793.726	27.76
794.117	27.69
794.508	27.66
794.899	27.57
795.29	27.46
795.681	27.35
796.072	27.2
796.463	27.04
796.853	26.91
797.244	26.77
797.634	26.61
798.025	26.46
798.415	26.27
798.806	26.08
799.196	25.94
799.586	25.8
799.976	25.64
800.366	25.49
800.756	25.39
801.146	25.26
801.536	25.12
801.926	25.02
802.316	24.92
802.706	24.81
803.095	24.69
803.485	24.55
803.874	24.39
804.264	24.27
804.653	24.15
805.043	24
805.432	23.81
805.821	23.61
806.21	23.42
806.599	23.25
806.988	23.07
807.377	22.88
807.766	22.69
808.155	22.53
808.544	22.31
808.933	22.1
809.321	21.89
809.71	21.71
810.098	21.48
810.487	21.22
810.875	20.93
811.264	20.62
811.652	20.29
812.04	19.98
812.428	19.66
812.816	19.39
813.204	19.1
813.592	18.83
813.98	18.55
814.368	18.34
814.756	18.12
815.144	17.93
815.531	17.76
815.919	17.64
816.306	17.55
816.694	17.52
817.081	17.44
817.469	17.39
817.856	17.3
818.243	17.18
818.63	17.02
819.017	16.86
819.404	16.72
819.791	16.63
820.178	16.53
820.565	16.43
820.952	16.28
821.339	16.15
821.725	16.06
822.112	15.98
822.498	15.96
822.885	15.95
823.271	15.94
823.657	15.9
824.044	15.82
824.43	15.73
824.816	15.59
825.202	15.48
825.588	15.38
825.974	15.26
826.36	15.13
826.746	15.01
827.132	14.9
827.517	14.8
827.903	14.7
828.289	14.6
828.674	14.51
829.06	14.46
829.445	14.39
829.83	14.3
830.216	14.23
830.601	14.17
830.986	14.12
831.371	14.06
831.756	14
832.141	13.94
832.526	13.9
832.911	13.89
833.295	13.85
833.68	13.79
834.065	13.75
834.449	13.71
834.834	13.63
835.218	13.56
835.603	13.49
835.987	13.45
836.371	13.4
836.755	13.36
837.139	13.29
837.524	13.22
837.908	13.17
838.291	13.13
838.675	13.06
839.059	13.04
839.443	13.01
839.827	12.95
840.21	12.89
840.594	12.84
840.977	12.76
841.361	12.7
841.744	12.66
842.127	12.61
842.511	12.56
842.894	12.51
843.277	12.47
843.66	12.42
844.043	12.38
844.426	12.34
844.809	12.29
845.191	12.25
845.574	12.18
845.957	12.08
846.339	12.01
846.722	11.95
847.104	11.89
847.487	11.81
847.869	11.74
848.252	11.69
848.634	11.62
849.016	11.57
849.398	11.49
849.78	11.39
850.162	11.31
850.544	11.23
850.926	11.16
851.307	11.1
851.689	11.03
852.071	10.99
852.452	10.93
852.834	10.89
853.215	10.85
853.597	10.85
853.978	10.86
854.359	10.89
854.741	10.9
855.122	10.89
855.503	10.87
855.884	10.86
856.265	10.84
856.646	10.81
857.026	10.79
857.407	10.74
857.788	10.71
858.169	10.68
858.549	10.65
858.93	10.6
859.31	10.57
859.69	10.52
860.071	10.5
860.451	10.46
860.831	10.42
861.211	10.35
861.591	10.3
861.971	10.21
862.351	10.15
862.731	10.06
863.111	10
863.491	9.94
863.87	9.9
864.25	9.86
864.629	9.8
865.009	9.75
865.388	9.73
865.768	9.72
866.147	9.74
866.526	9.74
866.905	9.74
867.284	9.74
867.663	9.74
868.042	9.73
868.421	9.71
868.8	9.69
869.179	9.69
869.558	9.68
869.936	9.66
870.315	9.63
870.693	9.62
871.072	9.6
871.45	9.58
871.828	9.56
872.207	9.53
872.585	9.5
872.963	9.48
873.341	9.47
873.719	9.43
874.097	9.43
874.475	9.43
874.853	9.4
875.23	9.39
875.608	9.36
875.986	9.33
876.363	9.32
876.741	9.31
877.118	9.28
877.495	9.25
877.873	9.22
878.25	9.19
878.627	9.16
879.004	9.15
879.381	9.13
879.758	9.11
880.135	9.11
880.512	9.1
880.889	9.08
881.265	9.08
881.642	9.05
882.019	9.05
882.395	9.02
882.772	8.99
883.148	8.97
883.524	8.94
883.901	8.93
884.277	8.91
884.653	8.89
885.029	8.87
885.405	8.84
885.781	8.83
886.157	8.82
886.532	8.82
886.908	8.81
887.284	8.79
887.659	8.78
888.035	8.76
888.411	8.74
888.786	8.73
889.161	8.7
889.537	8.67
889.912	8.64
890.287	8.61
890.662	8.57
891.037	8.53
891.412	8.49
891.787	8.45
892.162	8.4
892.536	8.35
892.911	8.3
893.286	8.26
893.66	8.22
894.035	8.17
894.409	8.12
894.784	8.07
895.158	8.03
895.532	7.96
895.906	7.91
896.281	7.87
896.655	7.82
897.029	7.76
897.402	7.71
897.776	7.66
898.15	7.63
898.524	7.6
898.898	7.58
899.271	7.57
899.645	7.59
900.018	7.59
900.392	7.59
900.765	7.6
901.138	7.63
901.511	7.67
901.884	7.7
902.258	7.72
902.631	7.73
903.003	7.73
903.376	7.72
903.749	7.72
904.122	7.71
904.495	7.68
904.867	7.66
905.24	7.63
905.612	7.58
905.985	7.57
906.357	7.52
906.729	7.5
907.102	7.49
907.474	7.46
907.846	7.42
908.218	7.39
908.59	7.37
908.962	7.36
909.334	7.35
909.705	7.32
910.077	7.29
910.449	7.29
910.82	7.27
911.192	7.27
911.563	7.25
911.935	7.23
912.306	7.22
912.677	7.21
913.048	7.2
913.419	7.17
913.79	7.15
914.161	7.13
914.532	7.12
914.903	7.12
915.274	7.09
915.645	7.14
916.015	7.15
916.386	7.17
916.756	7.17
917.127	7.18
917.497	7.22
917.868	7.27
918.238	7.28
918.608	7.29
918.978	7.3
919.348	7.33
919.718	7.3
920.088	7.28
920.458	7.27
920.828	7.28
921.198	7.27
921.567	7.26
921.937	7.24
922.306	7.27
922.676	7.26
923.045	7.22
923.415	7.18
923.784	7.18
924.153	7.18
924.522	7.19
924.891	7.16
925.26	7.14
925.629	7.11
925.998	7.08
926.367	7.02
926.736	6.96
927.104	6.96
927.473	6.94
927.842	6.86
928.21	6.8
928.578	6.7
928.947	6.64
929.315	6.55
929.683	6.48
930.051	6.4
930.42	6.3
930.788	6.21
931.156	6.12
931.523	6.05
931.891	5.98
932.259	5.92
932.627	5.86
932.994	5.84
933.362	5.82
933.729	5.78
934.097	5.76
934.464	5.77
934.831	5.82
935.199	5.82
935.566	5.89
935.933	5.91
936.3	5.95
936.667	6.02
937.034	6.04
937.401	6.05
937.767	6.12
938.134	6.15
938.501	6.19
938.867	6.21
939.234	6.31
939.6	6.3
939.967	6.35
940.333	6.4
940.699	6.47
941.065	6.43
941.431	6.4
941.798	6.35
942.163	6.35
942.529	6.33
942.895	6.35
943.261	6.25
943.627	6.22
943.992	6.22
944.358	6.15
944.723	6.06
945.089	6.07
945.454	6.11
945.82	6.08
946.185	6.11
946.55	6.12
946.915	6.07
947.28	6.09
947.645	6.09
948.01	6.08
948.375	6.12
948.74	6.12
949.104	6.17
949.469	6.17
949.834	6.2
950.198	6.22
950.562	6.22
950.927	6.17
951.291	6.18
951.655	6.13
952.02	6.1
952.384	6.12
952.748	6.08
953.112	6.05
953.476	6.04
953.839	6.02
954.203	5.95
954.567	5.9
954.931	5.96
955.294	5.96
955.658	5.94
956.021	5.98
956.385	5.98
956.748	6
957.111	6.02
957.474	6.06
957.837	6.07
958.2	6.14
958.563	6.21
958.926	6.19
959.289	6.19
959.652	6.26
960.015	6.24
960.377	6.21
960.74	6.19
961.102	6.16
961.465	6.14
961.827	6.08
962.189	6.02
962.552	5.99
962.914	5.97
963.276	5.93
963.638	5.89
964	5.94
964.362	5.94
964.724	6
965.085	6.02
965.447	6.05
965.809	6.11
966.17	6.24
966.532	6.28
966.893	6.31
967.255	6.36
967.616	6.39
967.977	6.39
968.338	6.4
968.699	6.38
969.061	6.36
969.421	6.36
969.782	6.36
970.143	6.33
970.504	6.27
970.865	6.21
971.225	6.15
971.586	6.15
971.946	6.12
972.307	6.13
972.667	6.14
973.027	6.18
973.388	6.15
973.748	6.11
974.108	6.05
974.468	6.09
974.828	6.16
975.188	6.19
975.548	6.17
975.907	6.21
976.267	6.21
976.627	6.18
976.986	6.12
977.346	6.17
977.705	6.24
978.064	6.27
978.424	6.31
978.783	6.28
979.142	6.28
979.501	6.28
979.86	6.21
980.219	6.14
980.578	6.18
980.937	6.25
981.296	6.21
981.654	6.13
982.013	6.13
982.371	6.08
982.73	6.08
983.088	6.11
983.447	6.08
983.805	6.14
984.163	6.24
984.521	6.29
984.879	6.28
985.237	6.28
985.595	6.41
985.953	6.44
986.311	6.52
986.669	6.48
987.026	6.44
987.384	6.44
987.741	6.46
988.099	6.43
988.456	6.52
988.814	6.56
989.171	6.58
989.528	6.41
989.885	6.33
990.242	6.2
990.599	6.21
990.956	6.24
991.313	6.17
991.67	6.13
992.027	6.09
992.383	6
992.74	5.94
993.096	5.75
993.453	5.88
993.809	5.88
994.165	6.03
994.522	5.99
994.878	6
995.234	6.1
995.59	5.99
995.946	5.98
996.302	5.86
996.658	5.86
997.013	5.99
997.369	5.95
997.725	5.88
998.08	5.67
998.436	5.78
998.791	5.79
999.147	5.76
999.502	5.9
999.857	5.93
1000.212	5.83
1000.567	5.78
1000.922	5.8
1001.277	5.76
1001.632	6.05
1001.987	6.1
1002.342	6.07
1002.696	6.04
1003.051	5.89
1003.406	5.8
1003.76	5.82
1004.114	5.93
1004.469	6.09
1004.823	6.13
1005.177	6.26
1005.531	6.02
1005.885	6.05
1006.239	5.98
1006.593	5.84
1006.947	6.02
1007.301	6.07
1007.655	6.17
1008.008	6.11
1008.362	5.97
1008.715	5.89
1009.069	5.74
1009.422	5.68
1009.776	5.78
1010.129	5.82
1010.482	6.02
1010.835	5.87
1011.188	5.68
1011.541	5.51
1011.894	5.43
1012.247	5.29
1012.6	5.26
1012.952	5.15
1013.305	5.01
1013.657	4.89
1014.01	4.9
1014.362	4.74
1014.715	4.78
1015.067	4.98
1015.419	5.08
1015.771	5.38
1016.123	5.47
1016.475	5.64
1016.827	5.85
1017.179	6.06
1017.531	6.11
1017.883	5.97
1018.234	6
1018.586	6.07
1018.938	5.72
1019.289	5.38
1019.64	5.27
1019.992	5.22
1020.343	5.12
1020.694	4.91
1021.045	4.69
1021.396	4.66
1021.747	4.86
1022.098	4.99
1022.449	5.14
1022.8	5.3
1023.151	5.29
1023.501	5.1
1023.852	5.33
1024.202	5.47
1024.553	5.75
1024.903	6.17
1025.253	5.92
1025.604	5.86
1025.954	5.57
1026.304	5.88
1026.654	6.03
1027.004	6.4
1027.354	6.46
1027.703	6.21
1028.053	5.47
1028.403	5.26
1028.753	5.16
1029.102	5.6
1029.452	5.76
1029.801	6.19
1030.15	5.8
1030.499	5.88
897.758	385.49
901.051	390.2
904.343	396.17
907.636	389.39
910.928	385.24
914.22	389.41
917.511	377.93
920.803	364.4
924.094	347.78
927.384	352.19
930.675	339.57
933.965	338.06
937.255	337.55
940.544	320.52
943.834	307.12
947.123	302.46
950.411	287
953.7	286.46
956.988	276.19
960.276	267.66
963.563	264.8
966.851	251.36
970.138	246.79
973.424	231.21
976.711	230.55
979.997	224.12
983.283	219.29
986.568	213.54
989.853	206.45
993.138	199.8
996.423	196.52
999.708	191.01
1002.992	192.01
1006.275	186.54
1009.559	185.6
1012.842	180.15
1016.125	174.85
1019.408	171.59
1022.69	170.55
1025.972	169.27
1029.254	166.1
1032.536	163.59
1035.817	158.82
1039.098	155.19
1042.379	155.31
1045.659	152.93
1048.939	151.23
1052.219	148.78
1055.498	145.42
1058.778	143.9
1062.057	141.86
1065.335	141.31
1068.614	138.75
1071.892	137.91
1075.17	136.44
1078.447	131.98
1081.724	132.12
1085.001	129.01
1088.278	129.57
1091.554	129.83
1094.83	128.71
1098.106	127.21
1101.382	126.03
1104.657	125.63
1107.932	125.04
1111.206	124.29
1114.481	123.83
1117.755	122.04
1121.029	122.43
1124.302	120.53
1127.575	118.98
1130.848	118.04
1134.121	116.47
1137.393	116.36
1140.665	116.16
1143.937	114.45
1147.208	113.32
1150.48	112.7
1153.75	112.29
1157.021	111.78
1160.291	111.28
1163.561	110.51
1166.831	110.14
1170.101	109.78
1173.37	108.84
1176.639	107.8
1179.907	107.69
1183.176	107.08
1186.444	107.07
1189.711	106.47
1192.979	105.33
1196.246	106.59
1199.513	106.77
1202.78	105.43
1206.046	105.68
1209.312	107.14
1212.578	107.67
1215.843	108.27
1219.108	110.18
1222.373	111.89
1225.638	113.09
1228.902	116.53
1232.166	117.74
1235.43	119.08
1238.693	123.75
1241.956	125.68
1245.219	128.13
1248.482	128.1
1251.744	128.84
1255.006	129.31
1258.268	124.92
1261.529	124.48
1264.79	122.6
1268.051	119.77
1271.312	119.56
1274.572	116.9
1277.832	115.5
1281.092	112.97
1284.351	111.62
1287.61	111.18
1290.869	110.57
1294.128	111.05
1297.386	110.27
1300.644	109.12
1303.902	108.94
1307.159	107.53
1310.416	108.5
1313.673	109.16
1316.93	110.38
1320.186	112.43
1323.442	113.43
1326.697	113.99
1329.953	114.81
1333.208	117.79
1336.463	121.97
1339.717	125.12
1342.972	129.22
1346.226	132.44
1349.479	132.68
1352.733	137.03
1355.986	138.55
1359.238	141.04
1362.491	141.48
1365.743	146.12
1368.995	148.36
1372.247	148.32
1375.498	146.95
1378.749	152.56
1382	152.01
1385.251	151.24
1388.501	151.48
1391.751	152.8
1395	150.72
1398.25	153.14
1401.499	152.14
1404.748	150.01
1407.996	145.17
1411.244	145.04
1414.492	142.57
1417.74	138.17
1420.987	134.7
1424.234	131.56
1427.481	125.83
1430.728	123.94
1433.974	118.49
1437.22	115.86
1440.465	112.2
1443.711	109.64
1446.956	106.55
1450.201	102.59
1453.445	97.53
1456.689	95.72
1459.933	92.88
1463.177	89.44
1466.42	87.3
1469.663	86.05
1472.906	82.89
1476.148	80.16
1479.391	78.48
1482.633	77.01
1485.874	76.02
1489.115	76.14
1492.356	74.57
1495.597	73.31
1498.838	74.15
1502.078	73.46
1505.318	72.89
1508.557	72.3
1511.797	72.73
1515.036	72.8
1518.274	73.14
1521.513	72.54
1524.751	71.79
1527.989	72.48
1531.227	72.53
1534.464	72.15
1537.701	71.82
1540.938	71.44
1544.174	72.09
1547.41	72.28
1550.646	72.08
1553.882	71.57
1557.117	71.7
1560.352	71.93
1563.587	71.45
1566.821	71.47
1570.055	70.99
1573.289	71.17
1576.523	71.39
1579.756	71.04
1582.989	71.08
1586.222	71.31
1589.454	71.82
1592.686	71.91
1595.918	71.43
1599.15	71.59
1602.381	71.89
1605.612	72.35
1608.843	72.31
1612.073	72.47
1615.303	72.82
1618.533	72.58
1621.762	71.97
1624.992	72.12
1628.221	71.51
1631.449	72.35
1634.678	72.7
1637.906	72.33
1641.134	72.67
1644.361	72.81
1647.588	72.54
1650.815	72.73
1654.042	72.81
1657.269	73.27
1660.495	73.49
1663.72	73.88
1666.946	73.32
1670.171	73.72
1673.396	74.08
1676.621	73.9
1679.845	74.26
1683.069	74.41
1686.293	74.22
1689.517	74.05
1692.74	74.35
1695.963	73.92
1699.185	74.28
1702.408	74.29
1705.63	74.03
1708.852	74.67
1712.073	74.64
1715.294	74.46
1718.515	75.1
1721.736	75.12
1724.956	75.36
1728.176	75.07
1731.396	75.48
1734.616	75.51
1737.835	76.03
1741.054	75.82
1744.272	75.34
1747.491	75.24
1750.709	75.46
1753.927	75.25
1757.144	75.41
1760.361	75.78
1763.578	76.14
1766.795	76.31
1770.011	76.32
1773.227	76.48
1776.443	77.29
1779.658	76.94
1782.874	77.54
1786.089	77.41
1789.303	77.64
1792.518	77.78
1795.732	78.67
1798.945	79.31
1802.159	79.38
1805.372	79.71
1808.585	80.36
1811.797	80.45
1815.01	81.76
1818.222	82.15
1821.434	82.57
1824.645	82.42
1827.856	83.97
1831.067	83.17
1834.278	82.9
1837.488	83.97
1840.698	84.93
1843.908	84.92
1847.117	85.11
1850.326	84.89
1853.535	86.22
1856.744	86.76
1859.952	88.11
1863.16	87.11
1866.368	87.18
1869.575	88.12
1872.782	86.86
1875.989	84.31
1879.196	84.69
1882.402	84.35
1885.608	84.65
1888.814	83.18
1892.019	84.02
1895.224	82.4
1898.429	82.7
1901.634	82.48
1904.838	82.32
1908.042	82.61
1911.246	83.73
1914.449	83.25
1917.652	83.23
1920.855	83.17
1924.058	82.59
1927.26	81.38
1930.462	82.59
1933.664	82.44
1936.865	83.18
1940.066	82.23
1943.267	81.18
1946.467	82.64
1949.668	82.23
1952.868	82.12
1956.067	82.14
1959.267	82.85
1962.466	82.95
1965.665	82.86
1968.863	83.71
1972.061	83.98
1975.259	85.86
1978.457	87.54
1981.654	87.32
1984.852	88.88
1988.048	89.98
1991.245	91.82
1994.441	92.75
1997.637	94.65
2000.833	96.92
2004.028	97.5
2007.223	99.65
2010.418	101.56
2013.613	106.01
2016.807	108.8
2020.001	111.34
2023.194	113.66
2026.388	116.32
2029.581	124.53
2032.774	128.42
2035.966	131.08
2039.158	134.49
2042.35	137.03
2045.542	139.47
2048.733	143.84
2051.924	143.11
2055.115	145.05
2058.306	147.39
2061.496	149.29
2064.686	147.72
2067.875	146.72
2071.065	151.17
2074.254	151.15
2077.442	154.84
2080.631	157.25
2083.819	157.79
2087.007	162.27
2090.195	164.02
2093.382	164.35
2096.569	165.54
2099.756	166.95
2102.942	171.06
2106.128	171.16
2109.314	176.56
2112.5	177.51
2115.685	173.13
2118.87	173.8
2122.055	176.89
2125.239	180.2
2128.424	184.58
2131.608	180.93
2134.791	180.87
2137.974	182.49
2141.157	185.19
2144.34	183.66
2147.523	186.85
2150.705	193.67
2153.887	194.06
2157.068	194.53
2160.25	197.06
2163.431	196.39
2166.611	201.36
2169.792	204.73
2172.972	208.02
2176.152	207.18
2179.331	211.51
2182.511	214.16
2185.69	215.94
2188.868	220.33
2192.047	227.42
2195.225	230.93
2198.403	229.94
2201.58	230.32
2204.758	237.75
2207.935	235.87
2211.111	244.04
2214.288	245.53
2217.464	246.94
2220.64	247.97
2223.815	249.14
2226.991	243.69
2230.166	245.57
2233.34	257.53
2236.515	258.51
2239.689	256.17
2242.863	263.77
2246.036	257.91
2249.209	262.47
2252.382	260.49
2255.555	270.53
2258.727	273.78
2261.9	282.94
2265.071	285.17
2268.243	281.27
2271.414	293.79
2274.585	298.62
2277.756	299.24
2280.926	310.22
2284.096	310.66
2287.266	311.97
2290.436	309.49
2293.605	314.28
2296.774	325.96
2299.942	325.47
2303.111	337.04
2306.279	345.11
2309.447	344.86
2312.614	347.91
2315.781	350.87
2318.948	354.81
2322.115	364.9
2325.281	377.74
2328.447	374.41
2331.613	373.51
2334.779	380.73
2337.944	380.72
2341.109	384.55
2344.274	392.82
2347.438	397.38
2350.602	409.96
2353.766	440.76
2356.929	438.65
2360.092	447.96
2363.255	453.92
2366.418	462.25
2369.58	469.89
2372.742	472.16
2375.904	472.39
2379.066	484.74
2382.227	508.38
2385.388	504.58
2388.548	476.82
2391.709	474.66
2394.869	489.56
2398.029	491.42
2401.188	484.87
2404.347	499.62
2407.506	518.99
2410.665	493.91
2413.823	498.42
2416.981	503.37
2420.139	482.4
2423.296	523.44
2426.453	551.51
2429.61	519.57
2432.767	551.67
2435.923	579.48
2439.079	563.45
2442.235	573.98
2445.391	595.07
2448.546	586.1
2451.701	620.55
2454.855	654.49
2458.009	575.37
2461.163	594.92
2464.317	611.91
2467.471	601.12
2470.624	612.75
2473.777	599.54
2476.929	585.74
2480.082	620.55
2483.234	651.6
2486.385	657.31
2489.537	680.79
2492.688	745.06
2495.839	723.77
2498.989	744.97
2502.14	739.55
2505.29	715.2
2508.439	786.58
2511.589	800.1
2514.738	779.16
2517.887	774.08
2521.035	723.81
2524.183	714.44
2527.331	715.44
2530.479	702.27
2533.627	710.32
