Data from C_2_div_il_4n_082_Splice17_17.txt Node
Date: Sat Feb 29 14:18:39 EST 2020
User: sa697716
Spectrometer: FLMS03696
Trigger mode: 0
Integration Time (sec): 3.180400E-1
Scans to average: 20
Electric dark correction enabled: true
Nonlinearity correction enabled: true
Boxcar width: 5
XAxis mode: Wavelengths
Number of Pixels in Spectrum: 2048
>>>>>Begin Spectral Data<<<<<
187.83	108.86
188.298	111.03
188.766	101.24
189.233	89.63
189.701	97.67
190.169	81.41
190.636	77.89
191.104	63.48
191.571	92.67
192.039	72.31
192.506	-85.72
192.974	3753.48
193.441	28.94
193.908	66.79
194.375	-10.11
194.842	113.32
195.31	56.37
195.777	30.63
196.244	29.43
196.711	39.51
197.177	36.49
197.644	36.4
198.111	35.86
198.578	36.45
199.045	37.06
199.511	37.26
199.978	37.53
200.445	36.86
200.911	37.34
201.378	37.62
201.844	37.92
202.31	38.3
202.777	38.76
203.243	39.6
203.709	40.1
204.176	39.81
204.642	39.85
205.108	39.85
205.574	40.82
206.04	40.94
206.506	40.64
206.972	40.29
207.438	39.91
207.903	40.1
208.369	39.27
208.835	38.65
209.301	38.11
209.766	37.5
210.232	36.96
210.697	35.55
211.163	34.79
211.628	34.27
212.094	33.7
212.559	33.39
213.024	32.59
213.49	31.9
213.955	31.28
214.42	30.65
214.885	29.74
215.35	28.48
215.815	27.25
216.28	25.86
216.745	24.22
217.21	22.52
217.675	20.89
218.14	19.35
218.604	17.96
219.069	16.79
219.534	15.82
219.998	15.02
220.463	14.35
220.927	13.78
221.392	13.23
221.856	12.78
222.32	12.38
222.785	12.07
223.249	11.79
223.713	11.55
224.177	11.3
224.642	11.11
225.106	10.92
225.57	10.7
226.034	10.53
226.497	10.33
226.961	10.13
227.425	9.95
227.889	9.77
228.353	9.61
228.816	9.44
229.28	9.26
229.744	9.12
230.207	8.98
230.671	8.83
231.134	8.68
231.597	8.56
232.061	8.46
232.524	8.38
232.987	8.26
233.45	8.13
233.914	8.04
234.377	7.98
234.84	7.86
235.303	7.77
235.766	7.7
236.229	7.62
236.691	7.55
237.154	7.47
237.617	7.37
238.08	7.28
238.542	7.22
239.005	7.15
239.468	7.07
239.93	7
240.393	6.92
240.855	6.84
241.317	6.79
241.78	6.73
242.242	6.66
242.704	6.61
243.166	6.56
243.629	6.5
244.091	6.44
244.553	6.38
245.015	6.33
245.477	6.27
245.939	6.22
246.4	6.16
246.862	6.1
247.324	6.07
247.786	6.02
248.247	5.98
248.709	5.93
249.17	5.88
249.632	5.84
250.093	5.78
250.555	5.74
251.016	5.72
251.477	5.68
251.939	5.64
252.4	5.6
252.861	5.56
253.322	5.52
253.783	5.5
254.244	5.47
254.705	5.44
255.166	5.43
255.627	5.4
256.088	5.35
256.549	5.33
257.009	5.3
257.47	5.27
257.931	5.24
258.391	5.21
258.852	5.16
259.312	5.14
259.773	5.1
260.233	5.06
260.694	5.02
261.154	5
261.614	4.96
262.074	4.94
262.534	4.9
262.994	4.87
263.455	4.85
263.915	4.83
264.374	4.79
264.834	4.77
265.294	4.75
265.754	4.71
266.214	4.69
266.673	4.67
267.133	4.64
267.593	4.63
268.052	4.6
268.512	4.58
268.971	4.55
269.431	4.54
269.89	4.52
270.349	4.5
270.809	4.49
271.268	4.48
271.727	4.46
272.186	4.45
272.645	4.43
273.104	4.42
273.563	4.41
274.022	4.4
274.481	4.38
274.94	4.37
275.399	4.36
275.857	4.34
276.316	4.33
276.775	4.31
277.233	4.3
277.692	4.29
278.15	4.27
278.609	4.25
279.067	4.24
279.525	4.22
279.984	4.21
280.442	4.2
280.9	4.18
281.358	4.17
281.816	4.16
282.274	4.14
282.732	4.13
283.19	4.13
283.648	4.12
284.106	4.11
284.564	4.11
285.021	4.11
285.479	4.1
285.937	4.1
286.394	4.09
286.852	4.09
287.309	4.08
287.767	4.08
288.224	4.07
288.682	4.06
289.139	4.05
289.596	4.03
290.053	4.01
290.511	3.99
290.968	3.98
291.425	3.97
291.882	3.95
292.339	3.93
292.796	3.91
293.252	3.89
293.709	3.87
294.166	3.86
294.623	3.84
295.079	3.83
295.536	3.82
295.992	3.8
296.449	3.79
296.905	3.77
297.362	3.76
297.818	3.75
298.274	3.74
298.731	3.73
299.187	3.72
299.643	3.71
300.099	3.7
300.555	3.7
301.011	3.69
301.467	3.67
301.923	3.67
302.379	3.66
302.835	3.65
303.291	3.64
303.746	3.64
304.202	3.62
304.658	3.61
305.113	3.6
305.569	3.59
306.024	3.59
306.479	3.59
306.935	3.58
307.39	3.59
307.845	3.58
308.301	3.58
308.756	3.58
309.211	3.59
309.666	3.59
310.121	3.6
310.576	3.6
311.031	3.59
311.486	3.59
311.94	3.59
312.395	3.59
312.85	3.6
313.305	3.6
313.759	3.59
314.214	3.58
314.668	3.58
315.123	3.57
315.577	3.56
316.032	3.56
316.486	3.55
316.94	3.55
317.394	3.54
317.849	3.53
318.303	3.52
318.757	3.51
319.211	3.5
319.665	3.49
320.119	3.48
320.572	3.47
321.026	3.46
321.48	3.45
321.934	3.45
322.387	3.44
322.841	3.43
323.295	3.41
323.748	3.42
324.202	3.42
324.655	3.42
325.108	3.42
325.562	3.41
326.015	3.4
326.468	3.38
326.921	3.37
327.374	3.38
327.827	3.38
328.28	3.38
328.733	3.35
329.186	3.34
329.639	3.34
330.092	3.33
330.545	3.34
330.997	3.33
331.45	3.33
331.903	3.33
332.355	3.32
332.808	3.32
333.26	3.32
333.713	3.33
334.165	3.34
334.617	3.34
335.069	3.34
335.522	3.34
335.974	3.35
336.426	3.36
336.878	3.36
337.33	3.36
337.782	3.37
338.234	3.36
338.686	3.36
339.137	3.37
339.589	3.36
340.041	3.37
340.493	3.36
340.944	3.35
341.396	3.35
341.847	3.34
342.299	3.32
342.75	3.3
343.201	3.28
343.653	3.27
344.104	3.26
344.555	3.25
345.006	3.23
345.457	3.22
345.908	3.22
346.359	3.22
346.81	3.22
347.261	3.22
347.712	3.23
348.163	3.23
348.613	3.22
349.064	3.21
349.515	3.2
349.965	3.2
350.416	3.2
350.866	3.18
351.317	3.17
351.767	3.16
352.217	3.15
352.668	3.16
353.118	3.16
353.568	3.17
354.018	3.18
354.468	3.18
354.918	3.19
355.368	3.19
355.818	3.19
356.268	3.2
356.718	3.21
357.168	3.2
357.617	3.2
358.067	3.19
358.517	3.2
358.966	3.2
359.416	3.21
359.865	3.21
360.315	3.21
360.764	3.21
361.213	3.21
361.663	3.22
362.112	3.24
362.561	3.24
363.01	3.25
363.459	3.25
363.908	3.25
364.357	3.24
364.806	3.25
365.255	3.26
365.703	3.26
366.152	3.27
366.601	3.28
367.05	3.29
367.498	3.3
367.947	3.31
368.395	3.33
368.844	3.33
369.292	3.35
369.74	3.37
370.189	3.38
370.637	3.4
371.085	3.43
371.533	3.44
371.981	3.46
372.429	3.47
372.877	3.49
373.325	3.5
373.773	3.53
374.221	3.55
374.669	3.57
375.116	3.59
375.564	3.6
376.012	3.62
376.459	3.64
376.907	3.68
377.354	3.71
377.801	3.74
378.249	3.77
378.696	3.81
379.143	3.85
379.591	3.89
380.038	3.94
380.485	3.99
380.932	4.03
381.379	4.07
381.826	4.12
382.273	4.16
382.72	4.21
383.166	4.25
383.613	4.28
384.06	4.32
384.506	4.36
384.953	4.4
385.4	4.44
385.846	4.49
386.292	4.54
386.739	4.58
387.185	4.64
387.631	4.69
388.078	4.74
388.524	4.79
388.97	4.83
389.416	4.88
389.862	4.93
390.308	4.99
390.754	5.04
391.2	5.09
391.645	5.15
392.091	5.19
392.537	5.25
392.983	5.31
393.428	5.37
393.874	5.44
394.319	5.5
394.765	5.55
395.21	5.58
395.655	5.64
396.101	5.69
396.546	5.73
396.991	5.78
397.436	5.82
397.881	5.87
398.326	5.93
398.771	5.98
399.216	6.04
399.661	6.1
400.106	6.16
400.551	6.2
400.995	6.23
401.44	6.25
401.885	6.28
402.329	6.32
402.774	6.34
403.218	6.35
403.663	6.37
404.107	6.4
404.551	6.42
404.995	6.44
405.44	6.46
405.884	6.49
406.328	6.51
406.772	6.53
407.216	6.55
407.66	6.58
408.104	6.6
408.547	6.63
408.991	6.63
409.435	6.65
409.879	6.65
410.322	6.68
410.766	6.7
411.209	6.73
411.653	6.74
412.096	6.74
412.54	6.76
412.983	6.76
413.426	6.78
413.869	6.8
414.312	6.84
414.756	6.88
415.199	6.89
415.642	6.94
416.085	6.97
416.527	7.01
416.97	7.06
417.413	7.08
417.856	7.09
418.298	7.08
418.741	7.09
419.184	7.08
419.626	7.08
420.069	7.08
420.511	7.07
420.953	7.05
421.396	7.06
421.838	7.05
422.28	7.08
422.722	7.1
423.164	7.12
423.606	7.14
424.048	7.14
424.49	7.15
424.932	7.15
425.374	7.16
425.816	7.16
426.258	7.12
426.699	7.1
427.141	7.07
427.582	7.07
428.024	7.05
428.465	7.05
428.907	7.09
429.348	7.07
429.789	7.07
430.231	7.06
430.672	7.06
431.113	7.07
431.554	7.08
431.995	7.12
432.436	7.11
432.877	7.11
433.318	7.1
433.759	7.07
434.2	7.09
434.64	7.1
435.081	7.1
435.522	7.13
435.962	7.16
436.403	7.2
436.843	7.2
437.284	7.25
437.724	7.28
438.164	7.32
438.604	7.37
439.045	7.37
439.485	7.39
439.925	7.41
440.365	7.42
440.805	7.44
441.245	7.42
441.685	7.46
442.125	7.48
442.564	7.51
443.004	7.52
443.444	7.53
443.883	7.57
444.323	7.62
444.762	7.67
445.202	7.73
445.641	7.76
446.081	7.81
446.52	7.82
446.959	7.85
447.398	7.9
447.837	7.99
448.276	8.03
448.716	8.08
449.154	8.13
449.593	8.16
450.032	8.2
450.471	8.25
450.91	8.29
451.349	8.35
451.787	8.38
452.226	8.37
452.664	8.35
453.103	8.37
453.541	8.36
453.98	8.35
454.418	8.35
454.856	8.33
455.295	8.32
455.733	8.29
456.171	8.27
456.609	8.26
457.047	8.25
457.485	8.24
457.923	8.22
458.361	8.21
458.798	8.21
459.236	8.2
459.674	8.2
460.111	8.19
460.549	8.18
460.987	8.19
461.424	8.17
461.862	8.17
462.299	8.18
462.736	8.18
463.173	8.17
463.611	8.15
464.048	8.15
464.485	8.15
464.922	8.15
465.359	8.17
465.796	8.14
466.233	8.16
466.67	8.16
467.106	8.16
467.543	8.17
467.98	8.19
468.416	8.24
468.853	8.25
469.29	8.26
469.726	8.26
470.162	8.26
470.599	8.27
471.035	8.29
471.471	8.29
471.907	8.31
472.344	8.32
472.78	8.33
473.216	8.31
473.652	8.31
474.088	8.33
474.523	8.35
474.959	8.37
475.395	8.37
475.831	8.37
476.266	8.38
476.702	8.38
477.138	8.37
477.573	8.37
478.008	8.37
478.444	8.37
478.879	8.37
479.314	8.36
479.75	8.35
480.185	8.35
480.62	8.37
481.055	8.37
481.49	8.36
481.925	8.37
482.36	8.36
482.795	8.37
483.229	8.38
483.664	8.39
484.099	8.4
484.534	8.41
484.968	8.41
485.403	8.42
485.837	8.43
486.271	8.44
486.706	8.47
487.14	8.5
487.574	8.52
488.009	8.55
488.443	8.59
488.877	8.63
489.311	8.67
489.745	8.72
490.179	8.76
490.613	8.8
491.046	8.86
491.48	8.9
491.914	8.96
492.348	9.02
492.781	9.08
493.215	9.14
493.648	9.22
494.082	9.31
494.515	9.38
494.948	9.47
495.382	9.57
495.815	9.66
496.248	9.76
496.681	9.87
497.114	9.98
497.547	10.1
497.98	10.21
498.413	10.34
498.846	10.46
499.279	10.6
499.711	10.76
500.144	10.9
500.577	11.06
501.009	11.21
501.442	11.38
501.874	11.56
502.306	11.74
502.739	11.91
503.171	12.1
503.603	12.32
504.036	12.54
504.468	12.77
504.9	13
505.332	13.24
505.764	13.49
506.196	13.76
506.627	14.02
507.059	14.29
507.491	14.58
507.923	14.86
508.354	15.14
508.786	15.42
509.217	15.69
509.649	16
510.08	16.33
510.512	16.63
510.943	16.94
511.374	17.27
511.805	17.59
512.237	17.93
512.668	18.27
513.099	18.63
513.53	18.99
513.961	19.35
514.391	19.71
514.822	20.04
515.253	20.41
515.684	20.75
516.114	21.12
516.545	21.49
516.975	21.84
517.406	22.21
517.836	22.54
518.267	22.89
518.697	23.24
519.127	23.58
519.558	23.92
519.988	24.27
520.418	24.61
520.848	24.93
521.278	25.25
521.708	25.51
522.138	25.8
522.567	26.11
522.997	26.41
523.427	26.7
523.857	26.98
524.286	27.25
524.716	27.51
525.145	27.76
525.575	28.04
526.004	28.29
526.433	28.59
526.863	28.82
527.292	29.04
527.721	29.25
528.15	29.44
528.579	29.64
529.008	29.8
529.437	29.98
529.866	30.14
530.295	30.27
530.724	30.44
531.152	30.58
531.581	30.74
532.01	30.88
532.438	31.01
532.867	31.16
533.295	31.27
533.723	31.4
534.152	31.51
534.58	31.59
535.008	31.68
535.436	31.74
535.865	31.82
536.293	31.89
536.721	31.94
537.149	32
537.576	32.05
538.004	32.1
538.432	32.14
538.86	32.18
539.287	32.24
539.715	32.29
540.143	32.34
540.57	32.37
540.998	32.41
541.425	32.46
541.852	32.49
542.28	32.51
542.707	32.57
543.134	32.6
543.561	32.62
543.988	32.66
544.415	32.69
544.842	32.71
545.269	32.74
545.696	32.77
546.123	32.79
546.549	32.82
546.976	32.85
547.403	32.86
547.829	32.91
548.256	32.93
548.682	32.93
549.108	32.96
549.535	32.97
549.961	32.98
550.387	32.99
550.813	32.99
551.24	33.01
551.666	33.02
552.092	33.02
552.518	33.01
552.943	33.02
553.369	33.01
553.795	33
554.221	33
554.646	32.97
555.072	32.93
555.498	32.9
555.923	32.86
556.349	32.79
556.774	32.74
557.199	32.68
557.625	32.62
558.05	32.57
558.475	32.48
558.9	32.39
559.325	32.29
559.75	32.2
560.175	32.1
560.6	32.02
561.025	31.93
561.449	31.83
561.874	31.74
562.299	31.63
562.723	31.5
563.148	31.38
563.572	31.3
563.997	31.19
564.421	31.07
564.846	30.94
565.27	30.81
565.694	30.67
566.118	30.51
566.542	30.35
566.966	30.19
567.39	30.03
567.814	29.87
568.238	29.66
568.662	29.47
569.086	29.27
569.509	29.09
569.933	28.87
570.357	28.69
570.78	28.5
571.204	28.31
571.627	28.13
572.05	27.96
572.474	27.79
572.897	27.65
573.32	27.47
573.743	27.33
574.166	27.17
574.589	27.02
575.012	26.89
575.435	26.76
575.858	26.64
576.281	26.52
576.704	26.4
577.126	26.28
577.549	26.17
577.972	26.08
578.394	25.97
578.817	25.87
579.239	25.79
579.661	25.69
580.084	25.59
580.506	25.48
580.928	25.38
581.35	25.28
581.772	25.21
582.194	25.11
582.616	25.03
583.038	24.95
583.46	24.86
583.882	24.77
584.303	24.7
584.725	24.63
585.147	24.55
585.568	24.47
585.99	24.4
586.411	24.32
586.833	24.26
587.254	24.19
587.675	24.14
588.096	24.09
588.518	24.02
588.939	23.96
589.36	23.89
589.781	23.85
590.202	23.8
590.623	23.75
591.043	23.7
591.464	23.65
591.885	23.61
592.305	23.57
592.726	23.53
593.147	23.5
593.567	23.44
593.987	23.41
594.408	23.38
594.828	23.34
595.248	23.32
595.669	23.3
596.089	23.26
596.509	23.2
596.929	23.13
597.349	23.08
597.769	23.05
598.189	23.03
598.608	22.98
599.028	22.93
599.448	22.87
599.867	22.81
600.287	22.74
600.706	22.67
601.126	22.62
601.545	22.57
601.965	22.51
602.384	22.45
602.803	22.35
603.222	22.29
603.641	22.22
604.061	22.15
604.48	22.06
604.898	22
605.317	21.92
605.736	21.82
606.155	21.72
606.574	21.63
606.992	21.52
607.411	21.45
607.829	21.32
608.248	21.21
608.666	21.12
609.085	21.03
609.503	20.93
609.921	20.84
610.339	20.76
610.758	20.68
611.176	20.58
611.594	20.48
612.012	20.37
612.43	20.31
612.847	20.23
613.265	20.14
613.683	20.04
614.101	19.95
614.518	19.85
614.936	19.75
615.353	19.67
615.771	19.59
616.188	19.54
616.606	19.45
617.023	19.39
617.44	19.32
617.857	19.23
618.274	19.18
618.691	19.11
619.108	19.07
619.525	19.02
619.942	18.96
620.359	18.92
620.776	18.87
621.192	18.83
621.609	18.78
622.026	18.75
622.442	18.73
622.859	18.71
623.275	18.69
623.691	18.65
624.108	18.62
624.524	18.61
624.94	18.59
625.356	18.57
625.772	18.57
626.188	18.56
626.604	18.53
627.02	18.53
627.436	18.52
627.852	18.48
628.268	18.46
628.683	18.43
629.099	18.41
629.514	18.4
629.93	18.37
630.345	18.32
630.761	18.26
631.176	18.22
631.591	18.17
632.007	18.11
632.422	18.07
632.837	18.02
633.252	17.95
633.667	17.84
634.082	17.74
634.497	17.63
634.911	17.52
635.326	17.42
635.741	17.29
636.155	17.15
636.57	17.02
636.984	16.86
637.399	16.68
637.813	16.53
638.228	16.38
638.642	16.23
639.056	16.09
639.47	15.93
639.884	15.75
640.298	15.58
640.712	15.41
641.126	15.24
641.54	15.07
641.954	14.94
642.368	14.77
642.781	14.6
643.195	14.43
643.609	14.26
644.022	14.09
644.436	13.95
644.849	13.8
645.262	13.67
645.676	13.53
646.089	13.4
646.502	13.26
646.915	13.16
647.328	13.04
647.741	12.95
648.154	12.86
648.567	12.77
648.98	12.71
649.393	12.64
649.805	12.56
650.218	12.49
650.631	12.41
651.043	12.36
651.456	12.31
651.868	12.26
652.28	12.19
652.693	12.12
653.105	12.06
653.517	11.98
653.929	11.91
654.341	11.83
654.753	11.73
655.165	11.65
655.577	11.53
655.989	11.41
656.401	11.3
656.813	11.18
657.224	11.07
657.636	10.95
658.047	10.81
658.459	10.68
658.87	10.56
659.282	10.44
659.693	10.3
660.104	10.18
660.515	10.07
660.926	9.94
661.338	9.82
661.749	9.67
662.159	9.55
662.57	9.43
662.981	9.31
663.392	9.2
663.803	9.1
664.213	9
664.624	8.9
665.035	8.8
665.445	8.73
665.855	8.65
666.266	8.61
666.676	8.54
667.086	8.49
667.497	8.42
667.907	8.37
668.317	8.31
668.727	8.27
669.137	8.24
669.547	8.21
669.956	8.16
670.366	8.13
670.776	8.09
671.186	8.08
671.595	8.09
672.005	8.09
672.414	8.09
672.824	8.1
673.233	8.12
673.642	8.12
674.052	8.13
674.461	8.15
674.87	8.18
675.279	8.21
675.688	8.25
676.097	8.26
676.506	8.29
676.915	8.34
677.323	8.4
677.732	8.47
678.141	8.54
678.549	8.62
678.958	8.71
679.366	8.79
679.775	8.91
680.183	9.01
680.592	9.14
681	9.28
681.408	9.43
681.816	9.59
682.224	9.78
682.632	10
683.04	10.22
683.448	10.48
683.856	10.77
684.264	11.07
684.671	11.43
685.079	11.8
685.487	12.2
685.894	12.64
686.302	13.1
686.709	13.56
687.116	14.07
687.524	14.61
687.931	15.15
688.338	15.74
688.745	16.36
689.152	16.99
689.559	17.63
689.966	18.31
690.373	19
690.78	19.66
691.187	20.37
691.593	21.07
692	21.78
692.407	22.51
692.813	23.23
693.22	23.94
693.626	24.65
694.032	25.36
694.439	26.06
694.845	26.75
695.251	27.47
695.657	28.16
696.063	28.85
696.469	29.53
696.875	30.16
697.281	30.77
697.687	31.43
698.093	32.05
698.498	32.66
698.904	33.26
699.31	33.81
699.715	34.38
700.12	34.91
700.526	35.45
700.931	35.94
701.337	36.46
701.742	36.97
702.147	37.43
702.552	37.91
702.957	38.37
703.362	38.8
703.767	39.25
704.172	39.67
704.577	40.1
704.981	40.5
705.386	40.91
705.791	41.33
706.195	41.73
706.6	42.07
707.004	42.42
707.408	42.79
707.813	43.15
708.217	43.48
708.621	43.82
709.025	44.16
709.43	44.46
709.834	44.8
710.237	45.06
710.641	45.38
711.045	45.72
711.449	46.04
711.853	46.32
712.256	46.62
712.66	46.91
713.064	47.19
713.467	47.46
713.87	47.72
714.274	48
714.677	48.28
715.08	48.48
715.484	48.71
715.887	48.96
716.29	49.21
716.693	49.4
717.096	49.62
717.499	49.83
717.901	50.01
718.304	50.23
718.707	50.4
719.109	50.59
719.512	50.81
719.915	50.99
720.317	51.17
720.719	51.29
721.122	51.48
721.524	51.65
721.926	51.81
722.328	51.98
722.731	52.15
723.133	52.28
723.535	52.43
723.937	52.59
724.338	52.74
724.74	52.86
725.142	52.87
725.544	52.98
725.945	53.08
726.347	53.23
726.748	53.33
727.15	53.42
727.551	53.52
727.952	53.59
728.354	53.65
728.755	53.73
729.156	53.83
729.557	54.04
729.958	54.15
730.359	54.22
730.76	54.26
731.161	54.35
731.562	54.43
731.962	54.5
732.363	54.58
732.763	54.68
733.164	54.72
733.564	54.77
733.965	54.81
734.365	54.82
734.766	54.87
735.166	54.91
735.566	54.92
735.966	54.9
736.366	54.94
736.766	54.98
737.166	54.99
737.566	55.01
737.966	55.03
738.365	55.05
738.765	55.13
739.165	55.17
739.564	55.2
739.964	55.23
740.363	55.31
740.763	55.31
741.162	55.32
741.561	55.33
741.96	55.35
742.36	55.39
742.759	55.39
743.158	55.39
743.557	55.41
743.955	55.46
744.354	55.5
744.753	55.51
745.152	55.55
745.55	55.58
745.949	55.63
746.348	55.66
746.746	55.67
747.144	55.73
747.543	55.76
747.941	55.83
748.339	55.88
748.737	55.92
749.136	55.95
749.534	56
749.932	55.98
750.33	56
750.727	56.03
751.125	56.07
751.523	56.06
751.921	56.07
752.318	56.04
752.716	56.01
753.113	55.98
753.511	55.96
753.908	55.91
754.305	55.89
754.703	55.83
755.1	55.8
755.497	55.75
755.894	55.73
756.291	55.68
756.688	55.65
757.085	55.64
757.482	55.67
757.878	55.66
758.275	55.67
758.672	55.71
759.068	55.75
759.465	55.73
759.861	55.74
760.258	55.71
760.654	55.71
761.05	55.68
761.447	55.66
761.843	55.61
762.239	55.59
762.635	55.58
763.031	55.54
763.427	55.49
763.822	55.47
764.218	55.43
764.614	55.45
765.01	55.47
765.405	55.46
765.801	55.44
766.196	55.46
766.592	55.45
766.987	55.48
767.382	55.48
767.778	55.5
768.173	55.49
768.568	55.5
768.963	55.47
769.358	55.44
769.753	55.48
770.148	55.49
770.542	55.46
770.937	55.42
771.332	55.39
771.726	55.37
772.121	55.34
772.515	55.36
772.91	55.34
773.304	55.32
773.699	55.33
774.093	55.29
774.487	55.29
774.881	55.3
775.275	55.35
775.669	55.35
776.063	55.34
776.457	55.34
776.851	55.32
777.245	55.32
777.638	55.35
778.032	55.38
778.425	55.37
778.819	55.36
779.212	55.36
779.606	55.36
779.999	55.34
780.392	55.34
780.786	55.36
781.179	55.39
781.572	55.4
781.965	55.44
782.358	55.4
782.751	55.41
783.143	55.44
783.536	55.44
783.929	55.45
784.322	55.44
784.714	55.47
785.107	55.49
785.499	55.5
785.891	55.49
786.284	55.46
786.676	55.48
787.068	55.5
787.46	55.46
787.852	55.46
788.245	55.45
788.636	55.52
789.028	55.49
789.42	55.47
789.812	55.48
790.204	55.48
790.595	55.48
790.987	55.47
791.378	55.46
791.77	55.53
792.161	55.49
792.553	55.49
792.944	55.49
793.335	55.5
793.726	55.51
794.117	55.5
794.508	55.53
794.899	55.56
795.29	55.56
795.681	55.56
796.072	55.54
796.463	55.54
796.853	55.57
797.244	55.56
797.634	55.56
798.025	55.54
798.415	55.57
798.806	55.58
799.196	55.63
799.586	55.65
799.976	55.67
800.366	55.66
800.756	55.72
801.146	55.72
801.536	55.72
801.926	55.74
802.316	55.82
802.706	55.85
803.095	55.84
803.485	55.83
803.874	55.84
804.264	55.88
804.653	55.87
805.043	55.88
805.432	55.84
805.821	55.81
806.21	55.87
806.599	55.87
806.988	55.87
807.377	55.9
807.766	55.87
808.155	55.89
808.544	55.87
808.933	55.9
809.321	55.94
809.71	56.02
810.098	56.05
810.487	56.01
810.875	55.96
811.264	55.97
811.652	55.96
812.04	55.97
812.428	56
812.816	56.05
813.204	56.08
813.592	56.03
813.98	56.02
814.368	56.05
814.756	56.08
815.144	56.13
815.531	56.13
815.919	56.13
816.306	56.16
816.694	56.17
817.081	56.12
817.469	56.16
817.856	56.25
818.243	56.24
818.63	56.29
819.017	56.33
819.404	56.32
819.791	56.38
820.178	56.39
820.565	56.4
820.952	56.38
821.339	56.44
821.725	56.43
822.112	56.41
822.498	56.43
822.885	56.41
823.271	56.42
823.657	56.41
824.044	56.4
824.43	56.43
824.816	56.43
825.202	56.44
825.588	56.44
825.974	56.41
826.36	56.42
826.746	56.46
827.132	56.43
827.517	56.43
827.903	56.43
828.289	56.44
828.674	56.43
829.06	56.44
829.445	56.47
829.83	56.44
830.216	56.46
830.601	56.44
830.986	56.41
831.371	56.44
831.756	56.4
832.141	56.41
832.526	56.4
832.911	56.42
833.295	56.39
833.68	56.38
834.065	56.39
834.449	56.34
834.834	56.34
835.218	56.34
835.603	56.32
835.987	56.31
836.371	56.32
836.755	56.29
837.139	56.26
837.524	56.25
837.908	56.22
838.291	56.19
838.675	56.19
839.059	56.19
839.443	56.17
839.827	56.14
840.21	56.2
840.594	56.19
840.977	56.18
841.361	56.17
841.744	56.19
842.127	56.19
842.511	56.21
842.894	56.24
843.277	56.22
843.66	56.22
844.043	56.24
844.426	56.2
844.809	56.19
845.191	56.18
845.574	56.17
845.957	56.17
846.339	56.18
846.722	56.18
847.104	56.16
847.487	56.17
847.869	56.14
848.252	56.12
848.634	56.12
849.016	56.14
849.398	56.15
849.78	56.14
850.162	56.12
850.544	56.12
850.926	56.11
851.307	56.14
851.689	56.11
852.071	56.15
852.452	56.17
852.834	56.15
853.215	56.15
853.597	56.15
853.978	56.15
854.359	56.14
854.741	56.14
855.122	56.13
855.503	56.12
855.884	56.11
856.265	56.09
856.646	56.08
857.026	56.1
857.407	56.05
857.788	56.06
858.169	56.04
858.549	56.08
858.93	56.08
859.31	56.1
859.69	56.08
860.071	56.11
860.451	56.11
860.831	56.1
861.211	56.11
861.591	56.15
861.971	56.14
862.351	56.18
862.731	56.13
863.111	56.13
863.491	56.14
863.87	56.13
864.25	56.13
864.629	56.14
865.009	56.17
865.388	56.16
865.768	56.13
866.147	56.14
866.526	56.12
866.905	56.16
867.284	56.15
867.663	56.14
868.042	56.16
868.421	56.16
868.8	56.15
869.179	56.15
869.558	56.12
869.936	56.14
870.315	56.15
870.693	56.18
871.072	56.14
871.45	56.15
871.828	56.15
872.207	56.15
872.585	56.14
872.963	56.13
873.341	56.14
873.719	56.14
874.097	56.15
874.475	56.14
874.853	56.08
875.23	56.1
875.608	56.08
875.986	56.09
876.363	56.09
876.741	56.09
877.118	56.06
877.495	56.07
877.873	56.07
878.25	56.04
878.627	56.05
879.004	56.1
879.381	56.12
879.758	56.13
880.135	56.13
880.512	56.13
880.889	56.15
881.265	56.2
881.642	56.17
882.019	56.19
882.395	56.24
882.772	56.24
883.148	56.22
883.524	56.23
883.901	56.2
884.277	56.21
884.653	56.22
885.029	56.22
885.405	56.21
885.781	56.22
886.157	56.21
886.532	56.21
886.908	56.21
887.284	56.22
887.659	56.18
888.035	56.19
888.411	56.17
888.786	56.17
889.161	56.16
889.537	56.13
889.912	56.09
890.287	56.07
890.662	56.02
891.037	55.97
891.412	55.92
891.787	55.9
892.162	55.85
892.536	55.83
892.911	55.79
893.286	55.73
893.66	55.71
894.035	55.71
894.409	55.68
894.784	55.69
895.158	55.68
895.532	55.68
895.906	55.68
896.281	55.66
896.655	55.62
897.029	55.6
897.402	55.61
897.776	55.59
898.15	55.55
898.524	55.55
898.898	55.5
899.271	55.5
899.645	55.47
900.018	55.44
900.392	55.49
900.765	55.51
901.138	55.52
901.511	55.51
901.884	55.52
902.258	55.51
902.631	55.51
903.003	55.53
903.376	55.53
903.749	55.58
904.122	55.61
904.495	55.56
904.867	55.55
905.24	55.54
905.612	55.52
905.985	55.5
906.357	55.49
906.729	55.48
907.102	55.47
907.474	55.48
907.846	55.45
908.218	55.42
908.59	55.4
908.962	55.43
909.334	55.4
909.705	55.4
910.077	55.41
910.449	55.44
910.82	55.45
911.192	55.45
911.563	55.38
911.935	55.36
912.306	55.35
912.677	55.37
913.048	55.31
913.419	55.34
913.79	55.33
914.161	55.33
914.532	55.31
914.903	55.31
915.274	55.26
915.645	55.33
916.015	55.36
916.386	55.36
916.756	55.3
917.127	55.31
917.497	55.3
917.868	55.27
918.238	55.29
918.608	55.3
918.978	55.3
919.348	55.29
919.718	55.22
920.088	55.23
920.458	55.25
920.828	55.28
921.198	55.32
921.567	55.29
921.937	55.34
922.306	55.31
922.676	55.32
923.045	55.27
923.415	55.31
923.784	55.34
924.153	55.29
924.522	55.28
924.891	55.26
925.26	55.19
925.629	55.2
925.998	55.19
926.367	55.2
926.736	55.15
927.104	55.16
927.473	55.09
927.842	55.05
928.21	55.1
928.578	55.07
928.947	55.02
929.315	55.04
929.683	55.01
930.051	54.97
930.42	54.94
930.788	54.9
931.156	54.84
931.523	54.83
931.891	54.8
932.259	54.68
932.627	54.59
932.994	54.56
933.362	54.48
933.729	54.42
934.097	54.34
934.464	54.24
934.831	54.17
935.199	54.12
935.566	54.04
935.933	53.98
936.3	53.88
936.667	53.8
937.034	53.71
937.401	53.61
937.767	53.6
938.134	53.58
938.501	53.56
938.867	53.61
939.234	53.64
939.6	53.64
939.967	53.75
940.333	53.92
940.699	54.11
941.065	54.23
941.431	54.39
941.798	54.49
942.163	54.6
942.529	54.7
942.895	54.79
943.261	54.9
943.627	55.04
943.992	55.05
944.358	55.04
944.723	55
945.089	55.09
945.454	55.13
945.82	55.08
946.185	55.17
946.55	55.3
946.915	55.28
947.28	55.2
947.645	55.12
948.01	55.1
948.375	55.1
948.74	55.1
949.104	55.1
949.469	55
949.834	55.03
950.198	54.87
950.562	54.77
950.927	54.77
951.291	54.79
951.655	54.76
952.02	54.74
952.384	54.74
952.748	54.71
953.112	54.64
953.476	54.68
953.839	54.56
954.203	54.49
954.567	54.47
954.931	54.41
955.294	54.32
955.658	54.28
956.021	54.25
956.385	54.21
956.748	54.19
957.111	54.2
957.474	54.15
957.837	54.2
958.2	54.23
958.563	54.19
958.926	54.07
959.289	54.14
959.652	54.18
960.015	54.13
960.377	54.09
960.74	54.05
961.102	53.93
961.465	53.87
961.827	53.71
962.189	53.65
962.552	53.58
962.914	53.63
963.276	53.55
963.638	53.52
964	53.56
964.362	53.54
964.724	53.47
965.085	53.47
965.447	53.44
965.809	53.47
966.17	53.52
966.532	53.5
966.893	53.47
967.255	53.4
967.616	53.33
967.977	53.27
968.338	53.22
968.699	53.17
969.061	53.18
969.421	53.2
969.782	53.2
970.143	53.11
970.504	53.08
970.865	53.03
971.225	53.05
971.586	53.11
971.946	53.09
972.307	53.08
972.667	53.14
973.027	53.18
973.388	53.19
973.748	53.2
974.108	53.25
974.468	53.3
974.828	53.36
975.188	53.38
975.548	53.34
975.907	53.32
976.267	53.28
976.627	53.25
976.986	53.19
977.346	53.18
977.705	53.27
978.064	53.24
978.424	53.19
978.783	53.17
979.142	53.07
979.501	53.02
979.86	53.04
980.219	53.02
980.578	53.03
980.937	53.09
981.296	53.03
981.654	52.98
982.013	53.05
982.371	53.08
982.73	53.1
983.088	53.18
983.447	53.21
983.805	53.15
984.163	53.2
984.521	53.12
984.879	53.05
985.237	53.08
985.595	53.1
985.953	53.06
986.311	53.03
986.669	52.99
987.026	53.03
987.384	53.02
987.741	53.16
988.099	53.15
988.456	53.26
988.814	53.31
989.171	53.25
989.528	53.13
989.885	53.06
990.242	53.05
990.599	53.05
990.956	52.99
991.313	52.94
991.67	52.87
992.027	52.78
992.383	52.71
992.74	52.62
993.096	52.67
993.453	52.65
993.809	52.69
994.165	52.63
994.522	52.67
994.878	52.74
995.234	52.71
995.59	52.51
995.946	52.68
996.302	52.68
996.658	52.75
997.013	52.66
997.369	52.7
997.725	52.88
998.08	52.99
998.436	53.03
998.791	52.96
999.147	52.95
999.502	53.04
999.857	53.13
1000.212	53.21
1000.567	53.1
1000.922	53.17
1001.277	53.11
1001.632	52.99
1001.987	52.79
1002.342	52.71
1002.696	52.76
1003.051	52.74
1003.406	52.8
1003.76	52.56
1004.114	52.58
1004.469	52.59
1004.823	52.71
1005.177	52.89
1005.531	52.69
1005.885	52.91
1006.239	52.84
1006.593	52.72
1006.947	52.77
1007.301	52.9
1007.655	53
1008.008	52.67
1008.362	52.76
1008.715	52.78
1009.069	52.57
1009.422	52.62
1009.776	52.7
1010.129	52.73
1010.482	52.85
1010.835	53.07
1011.188	53
1011.541	52.75
1011.894	52.92
1012.247	52.73
1012.6	52.56
1012.952	52.93
1013.305	52.98
1013.657	52.81
1014.01	52.96
1014.362	53.1
1014.715	52.73
1015.067	52.88
1015.419	53.18
1015.771	53.52
1016.123	53.76
1016.475	53.92
1016.827	53.94
1017.179	54.12
1017.531	54.23
1017.883	54.21
1018.234	53.88
1018.586	54.13
1018.938	53.79
1019.289	53.82
1019.64	53.86
1019.992	54.01
1020.343	53.82
1020.694	53.68
1021.045	53.45
1021.396	53.52
1021.747	53.48
1022.098	53.78
1022.449	53.71
1022.8	53.46
1023.151	53.3
1023.501	52.94
1023.852	52.86
1024.202	53.05
1024.553	52.87
1024.903	52.89
1025.253	52.95
1025.604	52.91
1025.954	52.77
1026.304	53.27
1026.654	53.67
1027.004	53.96
1027.354	54.09
1027.703	53.95
1028.053	53.98
1028.403	53.99
1028.753	54.27
1029.102	54.23
1029.452	54.41
1029.801	54.6
1030.15	54.19
1030.499	54.43
897.758	230.89
901.051	230.08
904.343	236.05
907.636	229.14
910.928	228.44
914.22	234.38
917.511	224.64
920.803	222.88
924.094	212.04
927.384	212.14
930.675	203.94
933.965	200.22
937.255	203.14
940.544	192.28
943.834	187.68
947.123	183.59
950.411	174.97
953.7	175.78
956.988	168.39
960.276	163.86
963.563	165.13
966.851	160.63
970.138	156.58
973.424	147.35
976.711	148.5
979.997	145.79
983.283	142.94
986.568	138.19
989.853	135.81
993.138	133.6
996.423	133.61
999.708	130.14
1002.992	129.59
1006.275	128.41
1009.559	128.44
1012.842	126.14
1016.125	122.24
1019.408	118.94
1022.69	119.78
1025.972	117.67
1029.254	116.52
1032.536	114.2
1035.817	110.32
1039.098	109.07
1042.379	108.67
1045.659	107.93
1048.939	104.98
1052.219	104.7
1055.498	105.22
1058.778	102.94
1062.057	102.34
1065.335	101.84
1068.614	101.36
1071.892	101.93
1075.17	100.75
1078.447	99.27
1081.724	99
1085.001	97.3
1088.278	97.16
1091.554	96.67
1094.83	96.83
1098.106	95.98
1101.382	94.42
1104.657	94.49
1107.932	93.61
1111.206	92.75
1114.481	92.63
1117.755	90.61
1121.029	91.31
1124.302	90
1127.575	90.59
1130.848	89.31
1134.121	88.54
1137.393	88.96
1140.665	87.14
1143.937	86.13
1147.208	86.24
1150.48	85.3
1153.75	85.16
1157.021	84.07
1160.291	84.04
1163.561	81.66
1166.831	83.17
1170.101	82.94
1173.37	81.7
1176.639	81.7
1179.907	82.09
1183.176	80.7
1186.444	80.48
1189.711	80.44
1192.979	80.31
1196.246	81.17
1199.513	80.85
1202.78	79.8
1206.046	79.44
1209.312	80.86
1212.578	80.64
1215.843	81.58
1219.108	82.2
1222.373	83.36
1225.638	84.43
1228.902	86.84
1232.166	87
1235.43	88.77
1238.693	90.16
1241.956	92.48
1245.219	94.5
1248.482	95.24
1251.744	93.86
1255.006	95.72
1258.268	93.28
1261.529	92.53
1264.79	90.2
1268.051	90.07
1271.312	88.68
1274.572	87.61
1277.832	86.15
1281.092	84.64
1284.351	83.81
1287.61	83.95
1290.869	83.5
1294.128	83.9
1297.386	83.15
1300.644	83.39
1303.902	81.33
1307.159	81.39
1310.416	81.82
1313.673	82.67
1316.93	82.42
1320.186	83.23
1323.442	83.21
1326.697	83.16
1329.953	82.6
1333.208	84.42
1336.463	86.72
1339.717	89.05
1342.972	91.95
1346.226	91.7
1349.479	91.07
1352.733	94.7
1355.986	93.83
1359.238	95.47
1362.491	94.99
1365.743	97.28
1368.995	98.62
1372.247	93.45
1375.498	92.31
1378.749	91.86
1382	92.68
1385.251	91.2
1388.501	90.59
1391.751	91.87
1395	90.95
1398.25	91.39
1401.499	90.19
1404.748	87.11
1407.996	89.19
1411.244	88.94
1414.492	87.86
1417.74	83.75
1420.987	83.35
1424.234	80.57
1427.481	77.52
1430.728	76.1
1433.974	73.37
1437.22	71.77
1440.465	68.58
1443.711	66.1
1446.956	64.82
1450.201	62
1453.445	60.02
1456.689	57.93
1459.933	56.95
1463.177	54.62
1466.42	53.52
1469.663	52.35
1472.906	50.66
1476.148	50.02
1479.391	49.65
1482.633	48.72
1485.874	48.99
1489.115	48.93
1492.356	48.08
1495.597	47.38
1498.838	48.22
1502.078	48.09
1505.318	48.38
1508.557	48.22
1511.797	48.72
1515.036	48.73
1518.274	49.34
1521.513	48.75
1524.751	48.74
1527.989	49.97
1531.227	49.76
1534.464	50.07
1537.701	50.32
1540.938	49.88
1544.174	50.19
1547.41	51.06
1550.646	50.94
1553.882	50.63
1557.117	51.63
1560.352	51.89
1563.587	51.59
1566.821	52.01
1570.055	52.02
1573.289	52.45
1576.523	52.73
1579.756	53.22
1582.989	52.99
1586.222	53.09
1589.454	53.81
1592.686	53.49
1595.918	53.16
1599.15	53.56
1602.381	53.72
1605.612	54.2
1608.843	53.66
1612.073	54.74
1615.303	55.03
1618.533	54.89
1621.762	55.17
1624.992	54.61
1628.221	54.76
1631.449	55.48
1634.678	55.62
1637.906	55.48
1641.134	55.16
1644.361	55.66
1647.588	54.82
1650.815	54.77
1654.042	55.01
1657.269	55.07
1660.495	55.77
1663.72	55.72
1666.946	55.68
1670.171	55.83
1673.396	56.28
1676.621	56.06
1679.845	56.48
1683.069	56.74
1686.293	56.34
1689.517	56.55
1692.74	56.68
1695.963	56.33
1699.185	56.48
1702.408	56.39
1705.63	56.12
1708.852	56.58
1712.073	56.65
1715.294	56.27
1718.515	57.01
1721.736	57.14
1724.956	56.93
1728.176	56.89
1731.396	56.99
1734.616	57.2
1737.835	57
1741.054	56.63
1744.272	55.91
1747.491	55.98
1750.709	56.21
1753.927	55.34
1757.144	55.08
1760.361	54.98
1763.578	54.83
1766.795	55.19
1770.011	55.29
1773.227	55.21
1776.443	55.81
1779.658	55.65
1782.874	56.15
1786.089	55.36
1789.303	55.49
1792.518	56.37
1795.732	56.16
1798.945	57.21
1802.159	56.7
1805.372	56.48
1808.585	57.39
1811.797	56.47
1815.01	57.78
1818.222	57.8
1821.434	58.16
1824.645	58.12
1827.856	57.98
1831.067	58.17
1834.278	58.1
1837.488	58.52
1840.698	58.55
1843.908	58.23
1847.117	59.36
1850.326	58.29
1853.535	57.77
1856.744	58.14
1859.952	58.01
1863.16	57.52
1866.368	56.79
1869.575	56.28
1872.782	54.17
1875.989	53.11
1879.196	52.55
1882.402	51.26
1885.608	51.21
1888.814	50.22
1892.019	49.39
1895.224	48.06
1898.429	48.04
1901.634	47.41
1904.838	46.26
1908.042	47.3
1911.246	47.6
1914.449	47.63
1917.652	47.05
1920.855	46.35
1924.058	46.38
1927.26	45.11
1930.462	46.29
1933.664	46.21
1936.865	46.84
1940.066	45.42
1943.267	45.88
1946.467	45.34
1949.668	45.23
1952.868	45.35
1956.067	45.77
1959.267	46.49
1962.466	47.02
1965.665	47.53
1968.863	47.2
1972.061	47.66
1975.259	49.99
1978.457	48.94
1981.654	49.82
1984.852	50.22
1988.048	51.22
1991.245	52.18
1994.441	52.56
1997.637	54.07
2000.833	56
2004.028	56.04
2007.223	56.11
2010.418	57.28
2013.613	61.41
2016.807	62.77
2020.001	64.4
2023.194	66.21
2026.388	68.04
2029.581	71.66
2032.774	73.3
2035.966	72.9
2039.158	76.93
2042.35	78.85
2045.542	80.4
2048.733	83.15
2051.924	83.22
2055.115	83.82
2058.306	84.86
2061.496	84.42
2064.686	86.35
2067.875	87.32
2071.065	89.46
2074.254	88.75
2077.442	91.92
2080.631	91.03
2083.819	91.09
2087.007	95.66
2090.195	96.67
2093.382	95.55
2096.569	97.89
2099.756	98.59
2102.942	99.33
2106.128	100.65
2109.314	102.6
2112.5	102.73
2115.685	103.21
2118.87	102.98
2122.055	101.23
2125.239	103.32
2128.424	108.61
2131.608	106.84
2134.791	106.68
2137.974	107.48
2141.157	108.59
2144.34	108.41
2147.523	114.3
2150.705	117.96
2153.887	116.18
2157.068	118.87
2160.25	120.23
2163.431	119.48
2166.611	122.26
2169.792	121.1
2172.972	125.4
2176.152	124.35
2179.331	127.78
2182.511	124.08
2185.69	124.88
2188.868	128.91
2192.047	133.29
2195.225	136.61
2198.403	134.54
2201.58	134.14
2204.758	141.6
2207.935	138.44
2211.111	142.7
2214.288	143.03
2217.464	143.8
2220.64	146.57
2223.815	146.12
2226.991	143.27
2230.166	142.88
2233.34	149.01
2236.515	151.65
2239.689	147.59
2242.863	152.91
2246.036	151.79
2249.209	151.32
2252.382	148.76
2255.555	154.39
2258.727	158.12
2261.9	159.62
2265.071	161.57
2268.243	160.3
2271.414	165.75
2274.585	170.04
2277.756	167.7
2280.926	171.86
2284.096	177.91
2287.266	183.83
2290.436	179.95
2293.605	182.25
2296.774	189.46
2299.942	190.99
2303.111	196.03
2306.279	203.18
2309.447	202.13
2312.614	201.25
2315.781	204.54
2318.948	208.88
2322.115	212.33
2325.281	218.44
2328.447	215.33
2331.613	217.74
2334.779	219.95
2337.944	219.73
2341.109	217.63
2344.274	221.01
2347.438	232.44
2350.602	237.31
2353.766	246.19
2356.929	245.21
2360.092	257.37
2363.255	261.85
2366.418	265.34
2369.58	267.44
2372.742	276.51
2375.904	276.11
2379.066	286.57
2382.227	287.26
2385.388	285.24
2388.548	274.85
2391.709	274.11
2394.869	269.44
2398.029	273.22
2401.188	275.82
2404.347	282.53
2407.506	287.58
2410.665	276.25
2413.823	281.6
2416.981	289.75
2420.139	281.49
2423.296	299.77
2426.453	316.77
2429.61	303.28
2432.767	320.61
2435.923	332.65
2439.079	325.13
2442.235	327.88
2445.391	341.5
2448.546	329.2
2451.701	343.73
2454.855	358.7
2458.009	324.61
2461.163	329.22
2464.317	335.61
2467.471	330.16
2470.624	335.43
2473.777	332.59
2476.929	328.44
2480.082	333.7
2483.234	355.57
2486.385	365.92
2489.537	375.07
2492.688	399.97
2495.839	401.33
2498.989	415.25
2502.14	416.24
2505.29	401.85
2508.439	423.99
2511.589	431.05
2514.738	435.68
2517.887	428.21
2521.035	393.66
2524.183	390.99
2527.331	396.57
2530.479	380.09
2533.627	385.5
