Data from C_2_dec_oh_4n_046_Splice17_01.txt Node
Date: Sat Feb 29 14:35:34 EST 2020
User: sa697716
Spectrometer: FLMS03696
Trigger mode: 0
Integration Time (sec): 3.180400E-1
Scans to average: 20
Electric dark correction enabled: true
Nonlinearity correction enabled: true
Boxcar width: 5
XAxis mode: Wavelengths
Number of Pixels in Spectrum: 2048
>>>>>Begin Spectral Data<<<<<
187.83	97.96
188.298	93.46
188.766	76.57
189.233	79.64
189.701	83.33
190.169	81.25
190.636	77.43
191.104	83.02
191.571	268.46
192.039	157.75
192.506	256.57
192.974	3716.27
193.441	209.76
193.908	16.83
194.375	-18.21
194.842	51.7
195.31	86.35
195.777	14.96
196.244	-0.45
196.711	4.06
197.177	2.25
197.644	3.59
198.111	3.21
198.578	3.59
199.045	3.8
199.511	3.96
199.978	4.16
200.445	3.43
200.911	4.01
201.378	4.37
201.844	4.53
202.31	4.91
202.777	5.01
203.243	5.48
203.709	6.21
204.176	5.79
204.642	6.08
205.108	6.2
205.574	6.72
206.04	6.54
206.506	6.35
206.972	6.37
207.438	6.41
207.903	7.08
208.369	6.94
208.835	6.41
209.301	6.85
209.766	7.16
210.232	7.09
210.697	6.92
211.163	7.3
211.628	7.22
212.094	7.55
212.559	7.54
213.024	7.11
213.49	7.18
213.955	7.51
214.42	7.4
214.885	7.09
215.35	7.29
215.815	7.3
216.28	7.13
216.745	7.43
217.21	7.36
217.675	7.24
218.14	7.01
218.604	6.94
219.069	6.88
219.534	6.79
219.998	6.66
220.463	6.54
220.927	6.46
221.392	6.44
221.856	6.34
222.32	6.24
222.785	6.18
223.249	6.16
223.713	6.1
224.177	6
224.642	5.94
225.106	5.9
225.57	5.83
226.034	5.8
226.497	5.71
226.961	5.62
227.425	5.54
227.889	5.5
228.353	5.43
228.816	5.38
229.28	5.29
229.744	5.25
230.207	5.21
230.671	5.18
231.134	5.11
231.597	5.05
232.061	5.01
232.524	4.97
232.987	4.93
233.45	4.88
233.914	4.84
234.377	4.82
234.84	4.77
235.303	4.72
235.766	4.67
236.229	4.64
236.691	4.61
237.154	4.57
237.617	4.52
238.08	4.47
238.542	4.42
239.005	4.38
239.468	4.33
239.93	4.29
240.393	4.26
240.855	4.21
241.317	4.18
241.78	4.15
242.242	4.11
242.704	4.08
243.166	4.05
243.629	4.03
244.091	4.01
244.553	3.99
245.015	3.97
245.477	3.93
245.939	3.91
246.4	3.88
246.862	3.85
247.324	3.84
247.786	3.83
248.247	3.81
248.709	3.8
249.17	3.79
249.632	3.75
250.093	3.72
250.555	3.71
251.016	3.7
251.477	3.68
251.939	3.66
252.4	3.64
252.861	3.62
253.322	3.6
253.783	3.58
254.244	3.55
254.705	3.54
255.166	3.54
255.627	3.53
256.088	3.52
256.549	3.5
257.009	3.49
257.47	3.48
257.931	3.46
258.391	3.44
258.852	3.42
259.312	3.42
259.773	3.41
260.233	3.39
260.694	3.37
261.154	3.36
261.614	3.36
262.074	3.35
262.534	3.34
262.994	3.33
263.455	3.33
263.915	3.32
264.374	3.31
264.834	3.3
265.294	3.29
265.754	3.28
266.214	3.27
266.673	3.26
267.133	3.25
267.593	3.25
268.052	3.24
268.512	3.23
268.971	3.21
269.431	3.21
269.89	3.2
270.349	3.2
270.809	3.2
271.268	3.2
271.727	3.19
272.186	3.19
272.645	3.18
273.104	3.18
273.563	3.18
274.022	3.18
274.481	3.17
274.94	3.15
275.399	3.15
275.857	3.14
276.316	3.12
276.775	3.12
277.233	3.1
277.692	3.09
278.15	3.07
278.609	3.06
279.067	3.04
279.525	3.02
279.984	3.02
280.442	3.01
280.9	2.99
281.358	2.98
281.816	2.97
282.274	2.96
282.732	2.95
283.19	2.95
283.648	2.94
284.106	2.94
284.564	2.94
285.021	2.93
285.479	2.92
285.937	2.91
286.394	2.89
286.852	2.89
287.309	2.88
287.767	2.87
288.224	2.86
288.682	2.85
289.139	2.85
289.596	2.85
290.053	2.84
290.511	2.83
290.968	2.83
291.425	2.83
291.882	2.82
292.339	2.81
292.796	2.81
293.252	2.8
293.709	2.8
294.166	2.79
294.623	2.78
295.079	2.77
295.536	2.76
295.992	2.75
296.449	2.74
296.905	2.73
297.362	2.72
297.818	2.72
298.274	2.71
298.731	2.71
299.187	2.7
299.643	2.69
300.099	2.69
300.555	2.68
301.011	2.67
301.467	2.67
301.923	2.67
302.379	2.66
302.835	2.65
303.291	2.64
303.746	2.63
304.202	2.61
304.658	2.6
305.113	2.6
305.569	2.59
306.024	2.59
306.479	2.58
306.935	2.57
307.39	2.57
307.845	2.57
308.301	2.57
308.756	2.57
309.211	2.58
309.666	2.58
310.121	2.57
310.576	2.56
311.031	2.56
311.486	2.57
311.94	2.57
312.395	2.56
312.85	2.55
313.305	2.55
313.759	2.55
314.214	2.55
314.668	2.55
315.123	2.55
315.577	2.55
316.032	2.55
316.486	2.54
316.94	2.52
317.394	2.52
317.849	2.52
318.303	2.52
318.757	2.51
319.211	2.5
319.665	2.5
320.119	2.49
320.572	2.5
321.026	2.49
321.48	2.5
321.934	2.5
322.387	2.49
322.841	2.49
323.295	2.48
323.748	2.48
324.202	2.48
324.655	2.47
325.108	2.47
325.562	2.45
326.015	2.45
326.468	2.43
326.921	2.42
327.374	2.42
327.827	2.41
328.28	2.4
328.733	2.39
329.186	2.39
329.639	2.38
330.092	2.37
330.545	2.37
330.997	2.36
331.45	2.36
331.903	2.36
332.355	2.36
332.808	2.36
333.26	2.36
333.713	2.35
334.165	2.35
334.617	2.35
335.069	2.35
335.522	2.35
335.974	2.34
336.426	2.34
336.878	2.34
337.33	2.33
337.782	2.33
338.234	2.33
338.686	2.32
339.137	2.32
339.589	2.32
340.041	2.32
340.493	2.31
340.944	2.32
341.396	2.31
341.847	2.31
342.299	2.31
342.75	2.29
343.201	2.29
343.653	2.29
344.104	2.29
344.555	2.28
345.006	2.28
345.457	2.27
345.908	2.26
346.359	2.27
346.81	2.27
347.261	2.27
347.712	2.29
348.163	2.28
348.613	2.27
349.064	2.25
349.515	2.25
349.965	2.25
350.416	2.24
350.866	2.23
351.317	2.23
351.767	2.22
352.217	2.21
352.668	2.21
353.118	2.2
353.568	2.21
354.018	2.22
354.468	2.22
354.918	2.22
355.368	2.23
355.818	2.23
356.268	2.24
356.718	2.23
357.168	2.23
357.617	2.22
358.067	2.21
358.517	2.2
358.966	2.2
359.416	2.2
359.865	2.2
360.315	2.19
360.764	2.19
361.213	2.18
361.663	2.17
362.112	2.18
362.561	2.18
363.01	2.19
363.459	2.19
363.908	2.19
364.357	2.18
364.806	2.18
365.255	2.19
365.703	2.19
366.152	2.2
366.601	2.21
367.05	2.2
367.498	2.2
367.947	2.2
368.395	2.21
368.844	2.2
369.292	2.2
369.74	2.21
370.189	2.2
370.637	2.2
371.085	2.2
371.533	2.2
371.981	2.2
372.429	2.19
372.877	2.19
373.325	2.18
373.773	2.18
374.221	2.18
374.669	2.18
375.116	2.17
375.564	2.17
376.012	2.16
376.459	2.16
376.907	2.16
377.354	2.16
377.801	2.16
378.249	2.16
378.696	2.17
379.143	2.17
379.591	2.18
380.038	2.19
380.485	2.2
380.932	2.2
381.379	2.19
381.826	2.2
382.273	2.21
382.72	2.22
383.166	2.23
383.613	2.24
384.06	2.26
384.506	2.28
384.953	2.29
385.4	2.32
385.846	2.36
386.292	2.41
386.739	2.45
387.185	2.52
387.631	2.57
388.078	2.61
388.524	2.64
388.97	2.67
389.416	2.71
389.862	2.77
390.308	2.84
390.754	2.92
391.2	3.01
391.645	3.08
392.091	3.12
392.537	3.18
392.983	3.29
393.428	3.43
393.874	3.61
394.319	3.81
394.765	3.99
395.21	4.18
395.655	4.38
396.101	4.6
396.546	4.84
396.991	5.11
397.436	5.39
397.881	5.67
398.326	5.95
398.771	6.21
399.216	6.45
399.661	6.67
400.106	6.9
400.551	7.07
400.995	7.22
401.44	7.35
401.885	7.49
402.329	7.65
402.774	7.79
403.218	7.95
403.663	8.1
404.107	8.3
404.551	8.5
404.995	8.67
405.44	8.84
405.884	9.03
406.328	9.25
406.772	9.5
407.216	9.77
407.66	10.01
408.104	10.22
408.547	10.42
408.991	10.57
409.435	10.75
409.879	10.97
410.322	11.22
410.766	11.48
411.209	11.72
411.653	11.92
412.096	12.08
412.54	12.26
412.983	12.43
413.426	12.63
413.869	12.84
414.312	13.06
414.756	13.24
415.199	13.4
415.642	13.57
416.085	13.72
416.527	13.84
416.97	13.92
417.413	13.96
417.856	13.96
418.298	13.95
418.741	13.97
419.184	13.97
419.626	14.02
420.069	14.08
420.511	14.13
420.953	14.21
421.396	14.28
421.838	14.43
422.28	14.61
422.722	14.84
423.164	15.03
423.606	15.18
424.048	15.32
424.49	15.39
424.932	15.34
425.374	15.15
425.816	14.84
426.258	14.56
426.699	14.34
427.141	14.28
427.582	14.37
428.024	14.55
428.465	14.78
428.907	15
429.348	15.19
429.789	15.45
430.231	15.89
430.672	16.51
431.113	17.2
431.554	17.85
431.995	18.38
432.436	18.77
432.877	19.03
433.318	19.23
433.759	19.45
434.2	19.73
434.64	20.1
435.081	20.46
435.522	20.76
435.962	21.02
436.403	21.25
436.843	21.42
437.284	21.6
437.724	21.82
438.164	22.09
438.604	22.42
439.045	22.77
439.485	23.07
439.925	23.32
440.365	23.56
440.805	23.7
441.245	23.79
441.685	23.91
442.125	24.05
442.564	24.25
443.004	24.48
443.444	24.7
443.883	24.92
444.323	25.18
444.762	25.46
445.202	25.76
445.641	26.1
446.081	26.54
446.52	26.98
446.959	27.4
447.398	27.74
447.837	27.93
448.276	27.99
448.716	28.05
449.154	28.1
449.593	28.13
450.032	28.15
450.471	28.14
450.91	28.04
451.349	27.93
451.787	27.86
452.226	27.81
452.664	27.79
453.103	27.85
453.541	27.83
453.98	27.8
454.418	27.69
454.856	27.55
455.295	27.43
455.733	27.34
456.171	27.25
456.609	27.15
457.047	27.07
457.485	27.06
457.923	27.07
458.361	27.15
458.798	27.23
459.236	27.34
459.674	27.42
460.111	27.51
460.549	27.59
460.987	27.7
461.424	27.81
461.862	27.92
462.299	28
462.736	28.1
463.173	28.2
463.611	28.35
464.048	28.54
464.485	28.79
464.922	29.07
465.359	29.32
465.796	29.54
466.233	29.78
466.67	30.03
467.106	30.36
467.543	30.73
467.98	31.07
468.416	31.4
468.853	31.7
469.29	32
469.726	32.29
470.162	32.63
470.599	32.98
471.035	33.29
471.471	33.49
471.907	33.61
472.344	33.67
472.78	33.77
473.216	33.88
473.652	33.98
474.088	34.06
474.523	34.11
474.959	34.12
475.395	34.14
475.831	34.16
476.266	34.21
476.702	34.24
477.138	34.25
477.573	34.24
478.008	34.16
478.444	34.03
478.879	33.87
479.314	33.67
479.75	33.46
480.185	33.18
480.62	32.82
481.055	32.32
481.49	31.68
481.925	30.98
482.36	30.33
482.795	29.76
483.229	29.36
483.664	29.03
484.099	28.75
484.534	28.49
484.968	28.32
485.403	28.26
485.837	28.34
486.271	28.55
486.706	28.79
487.14	28.96
487.574	29.03
488.009	29.04
488.443	29.01
488.877	29
489.311	28.98
489.745	28.99
490.179	29.01
490.613	29.01
491.046	29.03
491.48	29.09
491.914	29.18
492.348	29.35
492.781	29.5
493.215	29.62
493.648	29.71
494.082	29.77
494.515	29.82
494.948	29.82
495.382	29.85
495.815	29.87
496.248	29.84
496.681	29.78
497.114	29.72
497.547	29.67
497.98	29.7
498.413	29.79
498.846	29.91
499.279	30.02
499.711	30.12
500.144	30.23
500.577	30.42
501.009	30.7
501.442	31.06
501.874	31.44
502.306	31.8
502.739	32.08
503.171	32.33
503.603	32.57
504.036	32.85
504.468	33.19
504.9	33.56
505.332	33.86
505.764	34.13
506.196	34.39
506.627	34.64
507.059	34.96
507.491	35.33
507.923	35.68
508.354	36.05
508.786	36.37
509.217	36.61
509.649	36.84
510.08	37.08
510.512	37.35
510.943	37.65
511.374	37.91
511.805	38.07
512.237	38.09
512.668	38.06
513.099	38.08
513.53	38.15
513.961	38.31
514.391	38.49
514.822	38.76
515.253	39.09
515.684	39.43
516.114	39.83
516.545	40.33
516.975	41.04
517.406	41.85
517.836	42.6
518.267	43.28
518.697	43.96
519.127	44.67
519.558	45.35
519.988	45.97
520.418	46.54
520.848	47.11
521.278	47.59
521.708	47.89
522.138	48.04
522.567	48.21
522.997	48.43
523.427	48.7
523.857	48.97
524.286	49.31
524.716	49.63
525.145	49.95
525.575	50.23
526.004	50.61
526.433	51.12
526.863	51.75
527.292	52.35
527.721	52.84
528.15	53.14
528.579	53.34
529.008	53.45
529.437	53.54
529.866	53.6
530.295	53.71
530.724	53.82
531.152	53.93
531.581	54.04
532.01	54.11
532.438	54.19
532.867	54.34
533.295	54.55
533.723	54.72
534.152	54.83
534.58	54.93
535.008	54.93
535.436	54.82
535.865	54.65
536.293	54.45
536.721	54.34
537.149	54.32
537.576	54.37
538.004	54.35
538.432	54.35
538.86	54.38
539.287	54.5
539.715	54.69
540.143	54.93
540.57	55.22
540.998	55.54
541.425	55.84
541.852	56.11
542.28	56.35
542.707	56.6
543.134	56.82
543.561	56.97
543.988	57.12
544.415	57.28
544.842	57.45
545.269	57.65
545.696	57.81
546.123	57.95
546.549	58.12
546.976	58.26
547.403	58.41
547.829	58.61
548.256	58.79
548.682	58.92
549.108	59.05
549.535	59.19
549.961	59.3
550.387	59.4
550.813	59.51
551.24	59.58
551.666	59.65
552.092	59.62
552.518	59.55
552.943	59.52
553.369	59.45
553.795	59.31
554.221	59.09
554.646	58.79
555.072	58.5
555.498	58.16
555.923	57.9
556.349	57.64
556.774	57.47
557.199	57.32
557.625	57.09
558.05	56.91
558.475	56.73
558.9	56.58
559.325	56.49
559.75	56.35
560.175	56.23
560.6	55.98
561.025	55.68
561.449	55.32
561.874	54.9
562.299	54.59
562.723	54.26
563.148	53.96
563.572	53.66
563.997	53.26
564.421	52.89
564.846	52.49
565.27	52.13
565.694	51.76
566.118	51.36
566.542	51
566.966	50.59
567.39	50.2
567.814	49.83
568.238	49.48
568.662	49.25
569.086	49
569.509	48.8
569.933	48.56
570.357	48.33
570.78	48.17
571.204	47.98
571.627	47.8
572.05	47.61
572.474	47.41
572.897	47.18
573.32	46.89
573.743	46.6
574.166	46.3
574.589	46.04
575.012	45.85
575.435	45.69
575.858	45.59
576.281	45.48
576.704	45.38
577.126	45.25
577.549	45.19
577.972	45.2
578.394	45.22
578.817	45.24
579.239	45.27
579.661	45.28
580.084	45.26
580.506	45.18
580.928	45.07
581.35	44.95
581.772	44.84
582.194	44.67
582.616	44.5
583.038	44.33
583.46	44.16
583.882	43.87
584.303	43.52
584.725	43.06
585.147	42.59
585.568	42.21
585.99	41.91
586.411	41.62
586.833	41.37
587.254	41.13
587.675	40.92
588.096	40.74
588.518	40.64
588.939	40.59
589.36	40.64
589.781	40.76
590.202	40.79
590.623	40.74
591.043	40.66
591.464	40.56
591.885	40.45
592.305	40.32
592.726	40.18
593.147	40.05
593.567	39.88
593.987	39.73
594.408	39.54
594.828	39.42
595.248	39.29
595.669	39.14
596.089	38.97
596.509	38.77
596.929	38.55
597.349	38.3
597.769	38.06
598.189	37.87
598.608	37.69
599.028	37.55
599.448	37.4
599.867	37.25
600.287	37.12
600.706	36.98
601.126	36.85
601.545	36.72
601.965	36.62
602.384	36.52
602.803	36.38
603.222	36.21
603.641	36.03
604.061	35.82
604.48	35.61
604.898	35.37
605.317	35.14
605.736	34.9
606.155	34.66
606.574	34.42
606.992	34.17
607.411	33.96
607.829	33.7
608.248	33.48
608.666	33.24
609.085	33
609.503	32.74
609.921	32.53
610.339	32.33
610.758	32.14
611.176	31.91
611.594	31.67
612.012	31.41
612.43	31.19
612.847	30.96
613.265	30.8
613.683	30.64
614.101	30.51
614.518	30.37
614.936	30.23
615.353	30.1
615.771	30.03
616.188	29.98
616.606	29.91
617.023	29.88
617.44	29.8
617.857	29.7
618.274	29.58
618.691	29.44
619.108	29.31
619.525	29.17
619.942	28.98
620.359	28.8
620.776	28.6
621.192	28.42
621.609	28.23
622.026	28.08
622.442	27.92
622.859	27.77
623.275	27.65
623.691	27.51
624.108	27.35
624.524	27.25
624.94	27.13
625.356	27.01
625.772	26.92
626.188	26.84
626.604	26.72
627.02	26.62
627.436	26.53
627.852	26.44
628.268	26.38
628.683	26.33
629.099	26.3
629.514	26.27
629.93	26.24
630.345	26.2
630.761	26.17
631.176	26.14
631.591	26.11
632.007	26.08
632.422	26.06
632.837	26.04
633.252	25.99
633.667	25.95
634.082	25.92
634.497	25.88
634.911	25.81
635.326	25.72
635.741	25.62
636.155	25.54
636.57	25.44
636.984	25.3
637.399	25.15
637.813	25.02
638.228	24.89
638.642	24.73
639.056	24.58
639.47	24.45
639.884	24.32
640.298	24.22
640.712	24.08
641.126	23.95
641.54	23.84
641.954	23.74
642.368	23.6
642.781	23.46
643.195	23.31
643.609	23.17
644.022	23.03
644.436	22.87
644.849	22.69
645.262	22.54
645.676	22.38
646.089	22.24
646.502	22.12
646.915	22.02
647.328	21.94
647.741	21.85
648.154	21.77
648.567	21.7
648.98	21.67
649.393	21.63
649.805	21.58
650.218	21.54
650.631	21.47
651.043	21.34
651.456	21.11
651.868	20.82
652.28	20.52
652.693	20.25
653.105	20.03
653.517	19.83
653.929	19.69
654.341	19.58
654.753	19.48
655.165	19.39
655.577	19.33
655.989	19.37
656.401	19.48
656.813	19.61
657.224	19.7
657.636	19.76
658.047	19.76
658.459	19.72
658.87	19.65
659.282	19.57
659.693	19.48
660.104	19.4
660.515	19.31
660.926	19.21
661.338	19.11
661.749	19
662.159	18.88
662.57	18.75
662.981	18.62
663.392	18.5
663.803	18.4
664.213	18.31
664.624	18.24
665.035	18.14
665.445	18.04
665.855	17.92
666.266	17.84
666.676	17.72
667.086	17.62
667.497	17.51
667.907	17.39
668.317	17.3
668.727	17.18
669.137	17.08
669.547	16.97
669.956	16.88
670.366	16.81
670.776	16.71
671.186	16.65
671.595	16.6
672.005	16.58
672.414	16.55
672.824	16.48
673.233	16.46
673.642	16.41
674.052	16.38
674.461	16.34
674.87	16.3
675.279	16.28
675.688	16.26
676.097	16.23
676.506	16.2
676.915	16.17
677.323	16.18
677.732	16.17
678.141	16.18
678.549	16.2
678.958	16.23
679.366	16.24
679.775	16.25
680.183	16.26
680.592	16.29
681	16.32
681.408	16.35
681.816	16.34
682.224	16.28
682.632	16.14
683.04	15.93
683.448	15.73
683.856	15.57
684.264	15.47
684.671	15.38
685.079	15.31
685.487	15.26
685.894	15.26
686.302	15.32
686.709	15.48
687.116	15.76
687.524	16.14
687.931	16.59
688.338	17.05
688.745	17.51
689.152	17.98
689.559	18.47
689.966	18.95
690.373	19.46
690.78	19.94
691.187	20.43
691.593	20.93
692	21.4
692.407	21.93
692.813	22.42
693.22	22.9
693.626	23.38
694.032	23.86
694.439	24.37
694.845	24.83
695.251	25.3
695.657	25.77
696.063	26.21
696.469	26.65
696.875	27.02
697.281	27.39
697.687	27.78
698.093	28.15
698.498	28.54
698.904	28.93
699.31	29.35
699.715	29.78
700.12	30.18
700.526	30.64
700.931	31.06
701.337	31.5
701.742	31.94
702.147	32.37
702.552	32.8
702.957	33.19
703.362	33.59
703.767	33.95
704.172	34.3
704.577	34.66
704.981	34.99
705.386	35.34
705.791	35.69
706.195	36
706.6	36.3
707.004	36.59
707.408	36.88
707.813	37.17
708.217	37.43
708.621	37.69
709.025	37.95
709.43	38.22
709.834	38.47
710.237	38.69
710.641	38.96
711.045	39.2
711.449	39.43
711.853	39.63
712.256	39.79
712.66	39.91
713.064	39.98
713.467	39.97
713.87	39.89
714.274	39.78
714.677	39.63
715.08	39.46
715.484	39.29
715.887	39.15
716.29	39.08
716.693	39.03
717.096	39.17
717.499	39.39
717.901	39.69
718.304	40.05
718.707	40.44
719.109	40.8
719.512	41.14
719.915	41.44
720.317	41.77
720.719	42
721.122	42.23
721.524	42.36
721.926	42.44
722.328	42.51
722.731	42.55
723.133	42.6
723.535	42.7
723.937	42.82
724.338	42.92
724.74	43.01
725.142	43.05
725.544	43.15
725.945	43.25
726.347	43.36
726.748	43.4
727.15	43.51
727.551	43.63
727.952	43.79
728.354	43.97
728.755	44.2
729.156	44.42
729.557	44.74
729.958	44.98
730.359	45.23
730.76	45.42
731.161	45.62
731.562	45.8
731.962	45.95
732.363	46.07
732.763	46.18
733.164	46.27
733.564	46.34
733.965	46.36
734.365	46.33
734.766	46.28
735.166	46.25
735.566	46.25
735.966	46.22
736.366	46.2
736.766	46.16
737.166	46.14
737.566	46.07
737.966	46.03
738.365	46.01
738.765	46.05
739.165	46.08
739.564	46.12
739.964	46.13
740.363	46.16
740.763	46.2
741.162	46.24
741.561	46.28
741.96	46.33
742.36	46.39
742.759	46.4
743.158	46.38
743.557	46.4
743.955	46.43
744.354	46.45
744.753	46.45
745.152	46.43
745.55	46.43
745.949	46.4
746.348	46.37
746.746	46.3
747.144	46.28
747.543	46.29
747.941	46.27
748.339	46.24
748.737	46.26
749.136	46.22
749.534	46.23
749.932	46.21
750.33	46.21
750.727	46.19
751.125	46.2
751.523	46.2
751.921	46.18
752.318	46.14
752.716	46.1
753.113	46.01
753.511	46
753.908	45.92
754.305	45.79
754.703	45.52
755.1	44.99
755.497	44.09
755.894	42.8
756.291	41.26
756.688	39.66
757.085	38.1
757.482	36.69
757.878	35.35
758.275	34.03
758.672	32.74
759.068	31.56
759.465	30.68
759.861	30.23
760.258	30.26
760.654	30.67
761.05	31.29
761.447	31.94
761.843	32.56
762.239	33.19
762.635	33.96
763.031	34.88
763.427	35.88
763.822	36.95
764.218	38.02
764.614	39.04
765.01	40.02
765.405	40.88
765.801	41.65
766.196	42.37
766.592	42.99
766.987	43.49
767.382	43.88
767.778	44.19
768.173	44.45
768.568	44.6
768.963	44.76
769.358	44.87
769.753	44.99
770.148	45.05
770.542	45.06
770.937	45.07
771.332	45.08
771.726	45.11
772.121	45.13
772.515	45.14
772.91	45.14
773.304	45.1
773.699	45.03
774.093	44.96
774.487	44.95
774.881	44.94
775.275	44.92
775.669	44.89
776.063	44.8
776.457	44.73
776.851	44.63
777.245	44.62
777.638	44.57
778.032	44.57
778.425	44.54
778.819	44.47
779.212	44.38
779.606	44.31
779.999	44.24
780.392	44.2
780.786	44.13
781.179	44.09
781.572	44
781.965	43.94
782.358	43.83
782.751	43.72
783.143	43.66
783.536	43.61
783.929	43.56
784.322	43.46
784.714	43.36
785.107	43.29
785.499	43.19
785.891	43.1
786.284	43.01
786.676	42.93
787.068	42.82
787.46	42.67
787.852	42.54
788.245	42.41
788.636	42.3
789.028	42.15
789.42	41.99
789.812	41.86
790.204	41.67
790.595	41.53
790.987	41.35
791.378	41.27
791.77	41.2
792.161	41.09
792.553	41
792.944	40.9
793.335	40.86
793.726	40.78
794.117	40.72
794.508	40.68
794.899	40.58
795.29	40.52
795.681	40.39
796.072	40.28
796.463	40.14
796.853	39.98
797.244	39.84
797.634	39.69
798.025	39.56
798.415	39.41
798.806	39.3
799.196	39.19
799.586	39.08
799.976	38.95
800.366	38.78
800.756	38.66
801.146	38.54
801.536	38.44
801.926	38.31
802.316	38.21
802.706	38.1
803.095	37.97
803.485	37.85
803.874	37.7
804.264	37.61
804.653	37.47
805.043	37.36
805.432	37.21
805.821	37.06
806.21	36.94
806.599	36.81
806.988	36.64
807.377	36.46
807.766	36.3
808.155	36.17
808.544	36
808.933	35.82
809.321	35.64
809.71	35.46
810.098	35.21
810.487	34.94
810.875	34.67
811.264	34.43
811.652	34.15
812.04	33.85
812.428	33.54
812.816	33.25
813.204	33.04
813.592	32.78
813.98	32.54
814.368	32.36
814.756	32.19
815.144	32.03
815.531	31.87
815.919	31.77
816.306	31.68
816.694	31.68
817.081	31.61
817.469	31.55
817.856	31.48
818.243	31.4
818.63	31.27
819.017	31.15
819.404	31.01
819.791	30.93
820.178	30.82
820.565	30.73
820.952	30.57
821.339	30.49
821.725	30.41
822.112	30.37
822.498	30.33
822.885	30.34
823.271	30.34
823.657	30.33
824.044	30.24
824.43	30.18
824.816	30.09
825.202	30.02
825.588	29.92
825.974	29.77
826.36	29.65
826.746	29.55
827.132	29.43
827.517	29.31
827.903	29.21
828.289	29.13
828.674	29.04
829.06	28.96
829.445	28.88
829.83	28.8
830.216	28.76
830.601	28.7
830.986	28.62
831.371	28.6
831.756	28.54
832.141	28.48
832.526	28.43
832.911	28.43
833.295	28.41
833.68	28.38
834.065	28.38
834.449	28.32
834.834	28.27
835.218	28.22
835.603	28.14
835.987	28.11
836.371	28.09
836.755	28.04
837.139	27.95
837.524	27.9
837.908	27.83
838.291	27.74
838.675	27.71
839.059	27.66
839.443	27.61
839.827	27.54
840.21	27.49
840.594	27.45
840.977	27.39
841.361	27.37
841.744	27.31
842.127	27.29
842.511	27.26
842.894	27.22
843.277	27.18
843.66	27.13
844.043	27.12
844.426	27.06
844.809	27.01
845.191	26.94
845.574	26.85
845.957	26.77
846.339	26.68
846.722	26.6
847.104	26.56
847.487	26.51
847.869	26.47
848.252	26.42
848.634	26.37
849.016	26.33
849.398	26.29
849.78	26.22
850.162	26.17
850.544	26.11
850.926	26.02
851.307	25.95
851.689	25.88
852.071	25.83
852.452	25.77
852.834	25.73
853.215	25.69
853.597	25.67
853.978	25.68
854.359	25.69
854.741	25.71
855.122	25.73
855.503	25.73
855.884	25.73
856.265	25.7
856.646	25.68
857.026	25.64
857.407	25.61
857.788	25.57
858.169	25.52
858.549	25.49
858.93	25.45
859.31	25.44
859.69	25.4
860.071	25.38
860.451	25.34
860.831	25.31
861.211	25.27
861.591	25.23
861.971	25.14
862.351	25.1
862.731	25.03
863.111	24.96
863.491	24.9
863.87	24.85
864.25	24.81
864.629	24.75
865.009	24.7
865.388	24.68
865.768	24.65
866.147	24.66
866.526	24.67
866.905	24.68
867.284	24.68
867.663	24.69
868.042	24.69
868.421	24.65
868.8	24.68
869.179	24.68
869.558	24.66
869.936	24.66
870.315	24.66
870.693	24.66
871.072	24.62
871.45	24.59
871.828	24.54
872.207	24.51
872.585	24.51
872.963	24.48
873.341	24.46
873.719	24.43
874.097	24.4
874.475	24.38
874.853	24.34
875.23	24.32
875.608	24.31
875.986	24.29
876.363	24.28
876.741	24.26
877.118	24.23
877.495	24.19
877.873	24.16
878.25	24.15
878.627	24.14
879.004	24.14
879.381	24.14
879.758	24.12
880.135	24.11
880.512	24.1
880.889	24.1
881.265	24.09
881.642	24.08
882.019	24.08
882.395	24.05
882.772	24.03
883.148	24
883.524	23.99
883.901	23.99
884.277	23.99
884.653	23.99
885.029	23.97
885.405	23.94
885.781	23.93
886.157	23.91
886.532	23.92
886.908	23.92
887.284	23.92
887.659	23.9
888.035	23.87
888.411	23.84
888.786	23.8
889.161	23.77
889.537	23.77
889.912	23.73
890.287	23.72
890.662	23.68
891.037	23.64
891.412	23.57
891.787	23.52
892.162	23.49
892.536	23.44
892.911	23.4
893.286	23.35
893.66	23.28
894.035	23.23
894.409	23.17
894.784	23.1
895.158	23.04
895.532	23
895.906	22.95
896.281	22.9
896.655	22.84
897.029	22.78
897.402	22.72
897.776	22.68
898.15	22.66
898.524	22.61
898.898	22.6
899.271	22.58
899.645	22.57
900.018	22.57
900.392	22.58
900.765	22.61
901.138	22.65
901.511	22.69
901.884	22.71
902.258	22.71
902.631	22.73
903.003	22.74
903.376	22.77
903.749	22.76
904.122	22.74
904.495	22.71
904.867	22.65
905.24	22.62
905.612	22.56
905.985	22.52
906.357	22.48
906.729	22.44
907.102	22.41
907.474	22.36
907.846	22.33
908.218	22.31
908.59	22.31
908.962	22.31
909.334	22.29
909.705	22.31
910.077	22.28
910.449	22.29
910.82	22.25
911.192	22.25
911.563	22.21
911.935	22.2
912.306	22.19
912.677	22.21
913.048	22.2
913.419	22.18
913.79	22.15
914.161	22.16
914.532	22.14
914.903	22.15
915.274	22.15
915.645	22.16
916.015	22.16
916.386	22.16
916.756	22.12
917.127	22.14
917.497	22.15
917.868	22.15
918.238	22.19
918.608	22.21
918.978	22.22
919.348	22.21
919.718	22.21
920.088	22.21
920.458	22.2
920.828	22.21
921.198	22.19
921.567	22.16
921.937	22.17
922.306	22.12
922.676	22.1
923.045	22.06
923.415	22.04
923.784	22.02
924.153	22.03
924.522	22.02
924.891	21.98
925.26	21.98
925.629	21.96
925.998	21.92
926.367	21.91
926.736	21.87
927.104	21.83
927.473	21.82
927.842	21.73
928.21	21.67
928.578	21.59
928.947	21.53
929.315	21.43
929.683	21.37
930.051	21.29
930.42	21.18
930.788	21.08
931.156	21.04
931.523	20.94
931.891	20.9
932.259	20.82
932.627	20.74
932.994	20.66
933.362	20.61
933.729	20.54
934.097	20.5
934.464	20.48
934.831	20.45
935.199	20.41
935.566	20.4
935.933	20.4
936.3	20.38
936.667	20.45
937.034	20.46
937.401	20.5
937.767	20.55
938.134	20.55
938.501	20.61
938.867	20.65
939.234	20.71
939.6	20.72
939.967	20.79
940.333	20.85
940.699	20.89
941.065	20.91
941.431	20.88
941.798	20.89
942.163	20.94
942.529	20.98
942.895	21.03
943.261	21.06
943.627	21.08
943.992	21.1
944.358	21.1
944.723	21.02
945.089	21.09
945.454	21.15
945.82	21.1
946.185	21.09
946.55	21.04
946.915	21.09
947.28	21.05
947.645	21.04
948.01	21
948.375	20.98
948.74	21.01
949.104	21.02
949.469	20.98
949.834	20.98
950.198	21.01
950.562	21.02
950.927	20.96
951.291	20.93
951.655	20.92
952.02	20.89
952.384	20.92
952.748	20.84
953.112	20.81
953.476	20.82
953.839	20.84
954.203	20.82
954.567	20.78
954.931	20.74
955.294	20.72
955.658	20.69
956.021	20.7
956.385	20.67
956.748	20.71
957.111	20.66
957.474	20.65
957.837	20.64
958.2	20.56
958.563	20.58
958.926	20.56
959.289	20.55
959.652	20.59
960.015	20.61
960.377	20.58
960.74	20.57
961.102	20.58
961.465	20.61
961.827	20.54
962.189	20.56
962.552	20.55
962.914	20.54
963.276	20.51
963.638	20.45
964	20.41
964.362	20.42
964.724	20.46
965.085	20.45
965.447	20.41
965.809	20.46
966.17	20.5
966.532	20.49
966.893	20.53
967.255	20.62
967.616	20.63
967.977	20.65
968.338	20.58
968.699	20.52
969.061	20.47
969.421	20.48
969.782	20.44
970.143	20.45
970.504	20.47
970.865	20.4
971.225	20.36
971.586	20.41
971.946	20.46
972.307	20.53
972.667	20.61
973.027	20.66
973.388	20.64
973.748	20.67
974.108	20.61
974.468	20.62
974.828	20.7
975.188	20.63
975.548	20.58
975.907	20.55
976.267	20.55
976.627	20.47
976.986	20.42
977.346	20.44
977.705	20.38
978.064	20.38
978.424	20.34
978.783	20.37
979.142	20.41
979.501	20.42
979.86	20.39
980.219	20.32
980.578	20.32
980.937	20.39
981.296	20.4
981.654	20.43
982.013	20.4
982.371	20.4
982.73	20.32
983.088	20.33
983.447	20.37
983.805	20.33
984.163	20.35
984.521	20.34
984.879	20.34
985.237	20.33
985.595	20.38
985.953	20.44
986.311	20.51
986.669	20.5
987.026	20.46
987.384	20.38
987.741	20.49
988.099	20.44
988.456	20.45
988.814	20.4
989.171	20.42
989.528	20.35
989.885	20.24
990.242	20.18
990.599	20.2
990.956	20.24
991.313	20.19
991.67	20.08
992.027	20.15
992.383	20.21
992.74	20.18
993.096	20.11
993.453	20.2
993.809	20.21
994.165	20.25
994.522	20.17
994.878	20.11
995.234	20.15
995.59	20.12
995.946	20.12
996.302	20.04
996.658	20.08
997.013	20.14
997.369	20.1
997.725	20.03
998.08	19.98
998.436	20.12
998.791	20.19
999.147	20.18
999.502	20.27
999.857	20.21
1000.212	20.12
1000.567	20.15
1000.922	20.07
1001.277	20.01
1001.632	20.2
1001.987	20.07
1002.342	20.01
1002.696	19.87
1003.051	19.82
1003.406	19.71
1003.76	19.78
1004.114	19.92
1004.469	19.8
1004.823	19.76
1005.177	19.75
1005.531	19.59
1005.885	19.79
1006.239	19.63
1006.593	19.64
1006.947	19.65
1007.301	19.67
1007.655	19.77
1008.008	19.69
1008.362	19.73
1008.715	19.75
1009.069	19.86
1009.422	19.92
1009.776	19.77
1010.129	19.78
1010.482	19.97
1010.835	19.97
1011.188	19.88
1011.541	19.54
1011.894	19.48
1012.247	19.51
1012.6	19.53
1012.952	19.27
1013.305	19.24
1013.657	19.49
1014.01	19.77
1014.362	19.6
1014.715	19.54
1015.067	19.66
1015.419	19.9
1015.771	20.08
1016.123	19.95
1016.475	19.85
1016.827	20.19
1017.179	20.13
1017.531	19.8
1017.883	19.59
1018.234	19.39
1018.586	19.38
1018.938	19.14
1019.289	18.76
1019.64	18.8
1019.992	19.02
1020.343	18.98
1020.694	18.77
1021.045	18.78
1021.396	18.91
1021.747	18.85
1022.098	19.29
1022.449	19.4
1022.8	19.51
1023.151	19.56
1023.501	19.42
1023.852	19.11
1024.202	19.23
1024.553	19.22
1024.903	19.4
1025.253	19.22
1025.604	19.5
1025.954	19
1026.304	19.45
1026.654	19.71
1027.004	20.2
1027.354	19.98
1027.703	20.08
1028.053	19.82
1028.403	19.3
1028.753	19.07
1029.102	19.38
1029.452	19.4
1029.801	19.88
1030.15	19.44
1030.499	19.24
897.758	490.28
901.051	493.56
904.343	504.55
907.636	493.3
910.928	486.39
914.22	497.19
917.511	484.86
920.803	467.12
924.094	447.9
927.384	454.18
930.675	439
933.965	431.96
937.255	436.49
940.544	414.76
943.834	396.28
947.123	389.81
950.411	370.37
953.7	366.96
956.988	357.69
960.276	342.97
963.563	340.57
966.851	322.04
970.138	318.27
973.424	296.5
976.711	292.9
979.997	287.72
983.283	281.23
986.568	272.08
989.853	265.02
993.138	255.36
996.423	253.67
999.708	245.27
1002.992	247.62
1006.275	239.7
1009.559	237.68
1012.842	232.03
1016.125	225.13
1019.408	220.89
1022.69	221.09
1025.972	218.06
1029.254	214.64
1032.536	210.37
1035.817	204.71
1039.098	202.43
1042.379	200.35
1045.659	198.05
1048.939	197.59
1052.219	195.49
1055.498	193.09
1058.778	189.26
1062.057	187.43
1065.335	185.93
1068.614	183.88
1071.892	182.27
1075.17	178.94
1078.447	175.61
1081.724	175.21
1085.001	170.18
1088.278	170.66
1091.554	169.5
1094.83	168.62
1098.106	166.09
1101.382	165.45
1104.657	165.4
1107.932	164.55
1111.206	163.31
1114.481	162.6
1117.755	161.03
1121.029	162.24
1124.302	158.82
1127.575	157.12
1130.848	156.34
1134.121	155.18
1137.393	154.95
1140.665	153.55
1143.937	152.09
1147.208	150.96
1150.48	150.29
1153.75	149.82
1157.021	148.09
1160.291	148.08
1163.561	147.73
1166.831	147.02
1170.101	146.61
1173.37	145.15
1176.639	143.73
1179.907	144.34
1183.176	144.49
1186.444	144.13
1189.711	143.04
1192.979	143.81
1196.246	144.4
1199.513	144.3
1202.78	144.14
1206.046	144.12
1209.312	145.27
1212.578	145.85
1215.843	147.34
1219.108	147.34
1222.373	149.27
1225.638	151.84
1228.902	154.12
1232.166	158.13
1235.43	160.06
1238.693	163
1241.956	166.46
1245.219	169.85
1248.482	171.55
1251.744	170.99
1255.006	172.23
1258.268	169.03
1261.529	167.14
1264.79	164.35
1268.051	159.92
1271.312	158.89
1274.572	156.42
1277.832	152.9
1281.092	151.65
1284.351	149.02
1287.61	148.61
1290.869	147.77
1294.128	147.09
1297.386	147.05
1300.644	146.05
1303.902	145.27
1307.159	144.26
1310.416	145.57
1313.673	147.31
1316.93	147.5
1320.186	149.4
1323.442	150.75
1326.697	152.36
1329.953	153.31
1333.208	156.16
1336.463	161.49
1339.717	164.9
1342.972	171.96
1346.226	174.82
1349.479	175.55
1352.733	181.61
1355.986	185.42
1359.238	188.69
1362.491	190.6
1365.743	194.8
1368.995	198.98
1372.247	196.98
1375.498	195.03
1378.749	198.36
1382	200.04
1385.251	198.21
1388.501	197.39
1391.751	198.3
1395	195.48
1398.25	196.48
1401.499	196.83
1404.748	193.09
1407.996	189.19
1411.244	190.44
1414.492	187.53
1417.74	180.5
1420.987	176.29
1424.234	173.31
1427.481	167.2
1430.728	163.91
1433.974	158.22
1437.22	154.01
1440.465	149.28
1443.711	146.13
1446.956	141.87
1450.201	136.82
1453.445	132.12
1456.689	129.31
1459.933	125.16
1463.177	120.16
1466.42	118.69
1469.663	116.2
1472.906	112.96
1476.148	110.32
1479.391	108.54
1482.633	107.08
1485.874	105.9
1489.115	104.85
1492.356	103.64
1495.597	102.05
1498.838	102.68
1502.078	101.8
1505.318	101.46
1508.557	100.95
1511.797	100.44
1515.036	100.15
1518.274	99.48
1521.513	98.99
1524.751	98.51
1527.989	100.24
1531.227	100.36
1534.464	100.16
1537.701	99.67
1540.938	99.22
1544.174	100.29
1547.41	100.45
1550.646	100.74
1553.882	101.1
1557.117	100.85
1560.352	100.75
1563.587	99.81
1566.821	99.93
1570.055	99.52
1573.289	99.77
1576.523	99.78
1579.756	99.23
1582.989	99.74
1586.222	99.33
1589.454	99.94
1592.686	100.7
1595.918	100.57
1599.15	100.41
1602.381	100.66
1605.612	100.89
1608.843	100.7
1612.073	102.19
1615.303	102.06
1618.533	101.54
1621.762	102.26
1624.992	101.21
1628.221	100.68
1631.449	101.91
1634.678	101.61
1637.906	101.9
1641.134	102.25
1644.361	102.43
1647.588	101.5
1650.815	102.04
1654.042	102.28
1657.269	101.5
1660.495	102.65
1663.72	102.89
1666.946	102.28
1670.171	103.23
1673.396	103.53
1676.621	103.69
1679.845	104.07
1683.069	103.98
1686.293	103.64
1689.517	104
1692.74	104.53
1695.963	104.31
1699.185	104.76
1702.408	104.49
1705.63	104.32
1708.852	104.84
1712.073	104.23
1715.294	104.08
1718.515	104.49
1721.736	104.42
1724.956	104.84
1728.176	104.46
1731.396	105.05
1734.616	104.7
1737.835	105.14
1741.054	105.32
1744.272	104.46
1747.491	104.53
1750.709	105.32
1753.927	105.33
1757.144	105.72
1760.361	105.23
1763.578	106.43
1766.795	106.29
1770.011	106.72
1773.227	107.56
1776.443	107.77
1779.658	107.79
1782.874	108.57
1786.089	107.97
1789.303	108.3
1792.518	108.93
1795.732	109.55
1798.945	110.22
1802.159	110.01
1805.372	110.8
1808.585	111.17
1811.797	111.84
1815.01	113.11
1818.222	113.69
1821.434	114.98
1824.645	115.42
1827.856	116.3
1831.067	116.6
1834.278	117.66
1837.488	118.23
1840.698	119.34
1843.908	118.98
1847.117	119.67
1850.326	120.08
1853.535	120.95
1856.744	121.07
1859.952	121.84
1863.16	121.63
1866.368	121.17
1869.575	119.74
1872.782	119.98
1875.989	117.65
1879.196	118.13
1882.402	116.38
1885.608	116.41
1888.814	114.78
1892.019	114.66
1895.224	112.78
1898.429	112.31
1901.634	112.65
1904.838	112.94
1908.042	112.52
1911.246	113.2
1914.449	112.35
1917.652	111.12
1920.855	111.63
1924.058	111.1
1927.26	110.42
1930.462	111.44
1933.664	111.34
1936.865	111.79
1940.066	109.67
1943.267	109.58
1946.467	110.01
1949.668	109.7
1952.868	111.64
1956.067	111.27
1959.267	110.88
1962.466	111.38
1965.665	112.72
1968.863	113.83
1972.061	113.99
1975.259	116.5
1978.457	118.22
1981.654	117.82
1984.852	119.59
1988.048	120.88
1991.245	121.67
1994.441	125.51
1997.637	127.42
2000.833	129.22
2004.028	130.01
2007.223	133.36
2010.418	136.26
2013.613	140.74
2016.807	145.02
2020.001	146.89
2023.194	151.57
2026.388	157.15
2029.581	164.32
2032.774	168.46
2035.966	172.45
2039.158	177.5
2042.35	179.86
2045.542	183.7
2048.733	189.7
2051.924	192.93
2055.115	195.79
2058.306	196.71
2061.496	199.2
2064.686	197.93
2067.875	199.5
2071.065	200.58
2074.254	201.78
2077.442	206.3
2080.631	207.02
2083.819	207.64
2087.007	211.8
2090.195	215.13
2093.382	216.22
2096.569	216.98
2099.756	222.44
2102.942	224.72
2106.128	230.9
2109.314	232.58
2112.5	234.69
2115.685	229.78
2118.87	230.38
2122.055	230.6
2125.239	234.46
2128.424	240.53
2131.608	236.43
2134.791	236.5
2137.974	238.39
2141.157	239.02
2144.34	238.47
2147.523	244.68
2150.705	254.75
2153.887	253.09
2157.068	255.13
2160.25	256.74
2163.431	254.94
2166.611	262.21
2169.792	264.83
2172.972	267.75
2176.152	268.06
2179.331	275.81
2182.511	273.22
2185.69	276.5
2188.868	285.25
2192.047	292.45
2195.225	299.22
2198.403	298.39
2201.58	295.45
2204.758	306.26
2207.935	308.18
2211.111	315.35
2214.288	315.62
2217.464	319.36
2220.64	319.5
2223.815	320.04
2226.991	313.05
2230.166	314.82
2233.34	326.53
2236.515	337.36
2239.689	329.9
2242.863	335.84
2246.036	332.18
2249.209	337.38
2252.382	337.2
2255.555	349.59
2258.727	353.07
2261.9	365.76
2265.071	370.14
2268.243	367.81
2271.414	372.77
2274.585	383.45
2277.756	384.74
2280.926	400.5
2284.096	402.6
2287.266	403.15
2290.436	394.71
2293.605	404.21
2296.774	416.69
2299.942	422.28
2303.111	430.42
2306.279	445.85
2309.447	440.37
2312.614	442.11
2315.781	446.81
2318.948	453.05
2322.115	462.9
2325.281	488.07
2328.447	481.31
2331.613	486.6
2334.779	487.53
2337.944	494
2341.109	499.17
2344.274	505.37
2347.438	514.7
2350.602	524.85
2353.766	560.7
2356.929	562.62
2360.092	568.71
2363.255	571.92
2366.418	577.13
2369.58	584.84
2372.742	600.77
2375.904	594.12
2379.066	611.07
2382.227	647.08
2385.388	643.52
2388.548	607.27
2391.709	600.58
2394.869	617.15
2398.029	621.06
2401.188	619.54
2404.347	637.78
2407.506	648.93
2410.665	626.22
2413.823	635.14
2416.981	633.83
2420.139	605.64
2423.296	653.24
2426.453	704.6
2429.61	670.48
2432.767	711.87
2435.923	737.88
2439.079	716.93
2442.235	729.01
2445.391	750.84
2448.546	738.73
2451.701	780.23
2454.855	835.7
2458.009	741.93
2461.163	745.17
2464.317	752.36
2467.471	738.1
2470.624	758.46
2473.777	745.14
2476.929	728.21
2480.082	766.14
2483.234	806.96
2486.385	813.51
2489.537	832.53
2492.688	913.12
2495.839	902.29
2498.989	930.69
2502.14	929.22
2505.29	894.55
2508.439	988.39
2511.589	1001.79
2514.738	983.8
2517.887	973.22
2521.035	910.62
2524.183	897.55
2527.331	885.94
2530.479	858.59
2533.627	879.56
