Data from C_2_div_il_4n_082_Splice17_20.txt Node
Date: Sat Feb 29 14:18:45 EST 2020
User: sa697716
Spectrometer: FLMS03696
Trigger mode: 0
Integration Time (sec): 3.180400E-1
Scans to average: 20
Electric dark correction enabled: true
Nonlinearity correction enabled: true
Boxcar width: 5
XAxis mode: Wavelengths
Number of Pixels in Spectrum: 2048
>>>>>Begin Spectral Data<<<<<
187.83	48.1
188.298	28.36
188.766	44.78
189.233	35.62
189.701	36.74
190.169	37.95
190.636	46.8
191.104	19.53
191.571	29.1
192.039	137.38
192.506	285.61
192.974	11657.95
193.441	-491.02
193.908	142.12
194.375	157.68
194.842	116.95
195.31	47.12
195.777	47.2
196.244	7.34
196.711	32.03
197.177	35.15
197.644	34.37
198.111	34.84
198.578	35.45
199.045	36.3
199.511	36.46
199.978	37.81
200.445	37.94
200.911	38.48
201.378	39.41
201.844	40.14
202.31	40.46
202.777	41.01
203.243	41.45
203.709	41.95
204.176	41.96
204.642	42.32
205.108	41.9
205.574	41.89
206.04	41.73
206.506	41.38
206.972	41.12
207.438	40.7
207.903	40.42
208.369	39.66
208.835	39.33
209.301	38.94
209.766	38.35
210.232	37.73
210.697	37.19
211.163	36.42
211.628	35.16
212.094	34.48
212.559	33.57
213.024	32.7
213.49	31.99
213.955	31.45
214.42	30.73
214.885	29.72
215.35	28.87
215.815	27.34
216.28	26.07
216.745	24.8
217.21	23.01
217.675	21.61
218.14	20.06
218.604	18.67
219.069	17.51
219.534	16.34
219.998	15.48
220.463	14.71
220.927	14.17
221.392	13.64
221.856	13.12
222.32	12.7
222.785	12.33
223.249	12.03
223.713	11.79
224.177	11.45
224.642	11.27
225.106	11.05
225.57	10.84
226.034	10.62
226.497	10.42
226.961	10.24
227.425	10.05
227.889	9.89
228.353	9.7
228.816	9.52
229.28	9.36
229.744	9.2
230.207	9.06
230.671	8.91
231.134	8.79
231.597	8.63
232.061	8.52
232.524	8.41
232.987	8.28
233.45	8.17
233.914	8.08
234.377	8
234.84	7.89
235.303	7.8
235.766	7.71
236.229	7.63
236.691	7.57
237.154	7.49
237.617	7.41
238.08	7.34
238.542	7.27
239.005	7.2
239.468	7.13
239.93	7.07
240.393	7
240.855	6.92
241.317	6.85
241.78	6.8
242.242	6.72
242.704	6.66
243.166	6.59
243.629	6.52
244.091	6.46
244.553	6.4
245.015	6.34
245.477	6.29
245.939	6.25
246.4	6.19
246.862	6.14
247.324	6.11
247.786	6.06
248.247	6.02
248.709	5.99
249.17	5.95
249.632	5.9
250.093	5.84
250.555	5.8
251.016	5.76
251.477	5.72
251.939	5.68
252.4	5.64
252.861	5.61
253.322	5.57
253.783	5.54
254.244	5.5
254.705	5.48
255.166	5.47
255.627	5.44
256.088	5.4
256.549	5.38
257.009	5.35
257.47	5.31
257.931	5.27
258.391	5.24
258.852	5.2
259.312	5.17
259.773	5.14
260.233	5.09
260.694	5.06
261.154	5.03
261.614	4.98
262.074	4.96
262.534	4.92
262.994	4.9
263.455	4.87
263.915	4.84
264.374	4.82
264.834	4.79
265.294	4.77
265.754	4.73
266.214	4.72
266.673	4.69
267.133	4.67
267.593	4.66
268.052	4.63
268.512	4.61
268.971	4.59
269.431	4.57
269.89	4.55
270.349	4.54
270.809	4.53
271.268	4.51
271.727	4.5
272.186	4.49
272.645	4.47
273.104	4.45
273.563	4.44
274.022	4.43
274.481	4.41
274.94	4.4
275.399	4.38
275.857	4.36
276.316	4.34
276.775	4.32
277.233	4.31
277.692	4.3
278.15	4.28
278.609	4.26
279.067	4.24
279.525	4.24
279.984	4.23
280.442	4.22
280.9	4.21
281.358	4.19
281.816	4.18
282.274	4.16
282.732	4.16
283.19	4.16
283.648	4.15
284.106	4.15
284.564	4.14
285.021	4.13
285.479	4.13
285.937	4.13
286.394	4.13
286.852	4.13
287.309	4.12
287.767	4.11
288.224	4.09
288.682	4.08
289.139	4.06
289.596	4.04
290.053	4.02
290.511	4
290.968	3.99
291.425	3.97
291.882	3.94
292.339	3.93
292.796	3.91
293.252	3.9
293.709	3.89
294.166	3.88
294.623	3.86
295.079	3.85
295.536	3.84
295.992	3.83
296.449	3.81
296.905	3.8
297.362	3.78
297.818	3.77
298.274	3.76
298.731	3.75
299.187	3.74
299.643	3.73
300.099	3.72
300.555	3.7
301.011	3.69
301.467	3.68
301.923	3.67
302.379	3.67
302.835	3.66
303.291	3.65
303.746	3.64
304.202	3.64
304.658	3.63
305.113	3.62
305.569	3.63
306.024	3.62
306.479	3.63
306.935	3.62
307.39	3.62
307.845	3.61
308.301	3.62
308.756	3.62
309.211	3.62
309.666	3.61
310.121	3.6
310.576	3.6
311.031	3.6
311.486	3.59
311.94	3.59
312.395	3.59
312.85	3.59
313.305	3.58
313.759	3.58
314.214	3.58
314.668	3.58
315.123	3.6
315.577	3.6
316.032	3.59
316.486	3.59
316.94	3.58
317.394	3.57
317.849	3.56
318.303	3.56
318.757	3.55
319.211	3.52
319.665	3.51
320.119	3.49
320.572	3.49
321.026	3.48
321.48	3.47
321.934	3.46
322.387	3.46
322.841	3.45
323.295	3.43
323.748	3.44
324.202	3.44
324.655	3.43
325.108	3.42
325.562	3.4
326.015	3.4
326.468	3.38
326.921	3.37
327.374	3.36
327.827	3.35
328.28	3.34
328.733	3.33
329.186	3.33
329.639	3.33
330.092	3.33
330.545	3.33
330.997	3.33
331.45	3.33
331.903	3.33
332.355	3.33
332.808	3.34
333.26	3.35
333.713	3.36
334.165	3.36
334.617	3.36
335.069	3.36
335.522	3.36
335.974	3.36
336.426	3.37
336.878	3.38
337.33	3.38
337.782	3.37
338.234	3.38
338.686	3.37
339.137	3.37
339.589	3.37
340.041	3.37
340.493	3.36
340.944	3.36
341.396	3.35
341.847	3.34
342.299	3.32
342.75	3.31
343.201	3.3
343.653	3.29
344.104	3.28
344.555	3.28
345.006	3.26
345.457	3.25
345.908	3.24
346.359	3.23
346.81	3.23
347.261	3.24
347.712	3.23
348.163	3.22
348.613	3.21
349.064	3.2
349.515	3.19
349.965	3.19
350.416	3.19
350.866	3.2
351.317	3.2
351.767	3.19
352.217	3.19
352.668	3.2
353.118	3.2
353.568	3.21
354.018	3.22
354.468	3.22
354.918	3.23
355.368	3.23
355.818	3.22
356.268	3.23
356.718	3.23
357.168	3.23
357.617	3.22
358.067	3.22
358.517	3.22
358.966	3.22
359.416	3.22
359.865	3.22
360.315	3.23
360.764	3.24
361.213	3.24
361.663	3.24
362.112	3.25
362.561	3.26
363.01	3.27
363.459	3.27
363.908	3.28
364.357	3.28
364.806	3.29
365.255	3.3
365.703	3.31
366.152	3.32
366.601	3.34
367.05	3.35
367.498	3.35
367.947	3.35
368.395	3.37
368.844	3.38
369.292	3.38
369.74	3.4
370.189	3.41
370.637	3.42
371.085	3.44
371.533	3.45
371.981	3.47
372.429	3.48
372.877	3.51
373.325	3.52
373.773	3.54
374.221	3.57
374.669	3.6
375.116	3.62
375.564	3.64
376.012	3.67
376.459	3.7
376.907	3.74
377.354	3.76
377.801	3.79
378.249	3.83
378.696	3.88
379.143	3.91
379.591	3.95
380.038	3.99
380.485	4.03
380.932	4.06
381.379	4.08
381.826	4.12
382.273	4.17
382.72	4.22
383.166	4.26
383.613	4.29
384.06	4.34
384.506	4.38
384.953	4.41
385.4	4.46
385.846	4.51
386.292	4.57
386.739	4.61
387.185	4.67
387.631	4.73
388.078	4.79
388.524	4.83
388.97	4.87
389.416	4.93
389.862	4.99
390.308	5.04
390.754	5.09
391.2	5.15
391.645	5.2
392.091	5.24
392.537	5.29
392.983	5.34
393.428	5.4
393.874	5.47
394.319	5.53
394.765	5.57
395.21	5.61
395.655	5.66
396.101	5.71
396.546	5.75
396.991	5.8
397.436	5.82
397.881	5.87
398.326	5.93
398.771	5.97
399.216	6.01
399.661	6.09
400.106	6.15
400.551	6.19
400.995	6.22
401.44	6.25
401.885	6.29
402.329	6.33
402.774	6.36
403.218	6.38
403.663	6.39
404.107	6.43
404.551	6.46
404.995	6.47
405.44	6.5
405.884	6.52
406.328	6.55
406.772	6.57
407.216	6.6
407.66	6.63
408.104	6.66
408.547	6.7
408.991	6.71
409.435	6.72
409.879	6.73
410.322	6.74
410.766	6.76
411.209	6.8
411.653	6.82
412.096	6.84
412.54	6.86
412.983	6.87
413.426	6.89
413.869	6.91
414.312	6.94
414.756	6.97
415.199	7.01
415.642	7.04
416.085	7.06
416.527	7.1
416.97	7.13
417.413	7.13
417.856	7.14
418.298	7.14
418.741	7.15
419.184	7.16
419.626	7.16
420.069	7.16
420.511	7.16
420.953	7.15
421.396	7.15
421.838	7.15
422.28	7.17
422.722	7.2
423.164	7.21
423.606	7.23
424.048	7.23
424.49	7.26
424.932	7.25
425.374	7.27
425.816	7.26
426.258	7.25
426.699	7.23
427.141	7.19
427.582	7.18
428.024	7.17
428.465	7.16
428.907	7.18
429.348	7.17
429.789	7.16
430.231	7.14
430.672	7.13
431.113	7.14
431.554	7.18
431.995	7.21
432.436	7.2
432.877	7.2
433.318	7.19
433.759	7.18
434.2	7.18
434.64	7.2
435.081	7.21
435.522	7.24
435.962	7.25
436.403	7.27
436.843	7.29
437.284	7.32
437.724	7.36
438.164	7.4
438.604	7.42
439.045	7.44
439.485	7.44
439.925	7.45
440.365	7.45
440.805	7.47
441.245	7.47
441.685	7.49
442.125	7.5
442.564	7.54
443.004	7.57
443.444	7.6
443.883	7.62
444.323	7.68
444.762	7.73
445.202	7.81
445.641	7.86
446.081	7.93
446.52	7.96
446.959	8
447.398	8.04
447.837	8.11
448.276	8.16
448.716	8.21
449.154	8.26
449.593	8.29
450.032	8.32
450.471	8.36
450.91	8.37
451.349	8.41
451.787	8.44
452.226	8.44
452.664	8.42
453.103	8.42
453.541	8.44
453.98	8.44
454.418	8.44
454.856	8.42
455.295	8.41
455.733	8.4
456.171	8.39
456.609	8.39
457.047	8.38
457.485	8.38
457.923	8.37
458.361	8.35
458.798	8.36
459.236	8.36
459.674	8.36
460.111	8.35
460.549	8.34
460.987	8.34
461.424	8.32
461.862	8.33
462.299	8.31
462.736	8.31
463.173	8.31
463.611	8.27
464.048	8.28
464.485	8.27
464.922	8.27
465.359	8.26
465.796	8.23
466.233	8.25
466.67	8.24
467.106	8.24
467.543	8.25
467.98	8.27
468.416	8.29
468.853	8.3
469.29	8.33
469.726	8.33
470.162	8.35
470.599	8.38
471.035	8.41
471.471	8.41
471.907	8.45
472.344	8.45
472.78	8.47
473.216	8.48
473.652	8.49
474.088	8.49
474.523	8.49
474.959	8.5
475.395	8.52
475.831	8.53
476.266	8.54
476.702	8.55
477.138	8.54
477.573	8.52
478.008	8.51
478.444	8.5
478.879	8.5
479.314	8.51
479.75	8.51
480.185	8.5
480.62	8.49
481.055	8.5
481.49	8.49
481.925	8.5
482.36	8.48
482.795	8.48
483.229	8.48
483.664	8.49
484.099	8.49
484.534	8.5
484.968	8.52
485.403	8.54
485.837	8.53
486.271	8.55
486.706	8.56
487.14	8.6
487.574	8.64
488.009	8.67
488.443	8.71
488.877	8.74
489.311	8.76
489.745	8.8
490.179	8.84
490.613	8.9
491.046	8.96
491.48	9.03
491.914	9.09
492.348	9.14
492.781	9.2
493.215	9.27
493.648	9.35
494.082	9.43
494.515	9.52
494.948	9.59
495.382	9.68
495.815	9.77
496.248	9.86
496.681	9.96
497.114	10.06
497.547	10.17
497.98	10.29
498.413	10.41
498.846	10.53
499.279	10.68
499.711	10.83
500.144	10.97
500.577	11.13
501.009	11.29
501.442	11.47
501.874	11.65
502.306	11.84
502.739	12.01
503.171	12.21
503.603	12.42
504.036	12.62
504.468	12.85
504.9	13.09
505.332	13.34
505.764	13.58
506.196	13.83
506.627	14.1
507.059	14.37
507.491	14.66
507.923	14.94
508.354	15.24
508.786	15.54
509.217	15.82
509.649	16.12
510.08	16.42
510.512	16.73
510.943	17.06
511.374	17.4
511.805	17.74
512.237	18.08
512.668	18.43
513.099	18.78
513.53	19.16
513.961	19.52
514.391	19.86
514.822	20.21
515.253	20.57
515.684	20.94
516.114	21.27
516.545	21.6
516.975	21.97
517.406	22.32
517.836	22.64
518.267	22.97
518.697	23.32
519.127	23.68
519.558	24.02
519.988	24.36
520.418	24.68
520.848	25.01
521.278	25.35
521.708	25.61
522.138	25.89
522.567	26.21
522.997	26.5
523.427	26.79
523.857	27.07
524.286	27.33
524.716	27.59
525.145	27.84
525.575	28.1
526.004	28.34
526.433	28.64
526.863	28.89
527.292	29.11
527.721	29.32
528.15	29.48
528.579	29.7
529.008	29.89
529.437	30.06
529.866	30.25
530.295	30.39
530.724	30.56
531.152	30.7
531.581	30.83
532.01	30.95
532.438	31.09
532.867	31.25
533.295	31.34
533.723	31.47
534.152	31.6
534.58	31.67
535.008	31.75
535.436	31.82
535.865	31.91
536.293	31.97
536.721	32.05
537.149	32.09
537.576	32.13
538.004	32.17
538.432	32.21
538.86	32.23
539.287	32.3
539.715	32.34
540.143	32.38
540.57	32.41
540.998	32.45
541.425	32.5
541.852	32.55
542.28	32.59
542.707	32.63
543.134	32.66
543.561	32.69
543.988	32.72
544.415	32.76
544.842	32.78
545.269	32.81
545.696	32.85
546.123	32.86
546.549	32.87
546.976	32.9
547.403	32.91
547.829	32.95
548.256	32.98
548.682	32.99
549.108	33.02
549.535	33.04
549.961	33.06
550.387	33.06
550.813	33.06
551.24	33.09
551.666	33.09
552.092	33.1
552.518	33.08
552.943	33.09
553.369	33.07
553.795	33.03
554.221	33.01
554.646	32.99
555.072	32.96
555.498	32.95
555.923	32.9
556.349	32.84
556.774	32.8
557.199	32.75
557.625	32.66
558.05	32.6
558.475	32.53
558.9	32.45
559.325	32.37
559.75	32.28
560.175	32.19
560.6	32.07
561.025	31.98
561.449	31.89
561.874	31.78
562.299	31.69
562.723	31.58
563.148	31.47
563.572	31.35
563.997	31.22
564.421	31.09
564.846	30.96
565.27	30.84
565.694	30.7
566.118	30.53
566.542	30.38
566.966	30.21
567.39	30.04
567.814	29.87
568.238	29.67
568.662	29.52
569.086	29.35
569.509	29.15
569.933	28.97
570.357	28.77
570.78	28.6
571.204	28.42
571.627	28.25
572.05	28.08
572.474	27.92
572.897	27.78
573.32	27.6
573.743	27.44
574.166	27.29
574.589	27.13
575.012	27.01
575.435	26.88
575.858	26.78
576.281	26.64
576.704	26.51
577.126	26.38
577.549	26.27
577.972	26.17
578.394	26.05
578.817	25.94
579.239	25.86
579.661	25.75
580.084	25.66
580.506	25.52
580.928	25.42
581.35	25.36
581.772	25.28
582.194	25.17
582.616	25.1
583.038	25.02
583.46	24.96
583.882	24.88
584.303	24.79
584.725	24.71
585.147	24.64
585.568	24.57
585.99	24.48
586.411	24.43
586.833	24.38
587.254	24.32
587.675	24.25
588.096	24.2
588.518	24.14
588.939	24.09
589.36	24.03
589.781	23.99
590.202	23.96
590.623	23.9
591.043	23.83
591.464	23.76
591.885	23.71
592.305	23.66
592.726	23.61
593.147	23.59
593.567	23.54
593.987	23.51
594.408	23.47
594.828	23.43
595.248	23.41
595.669	23.38
596.089	23.35
596.509	23.31
596.929	23.26
597.349	23.21
597.769	23.15
598.189	23.12
598.608	23.06
599.028	23.01
599.448	22.97
599.867	22.91
600.287	22.83
600.706	22.75
601.126	22.69
601.545	22.63
601.965	22.57
602.384	22.5
602.803	22.42
603.222	22.34
603.641	22.28
604.061	22.19
604.48	22.11
604.898	22.04
605.317	21.98
605.736	21.9
606.155	21.81
606.574	21.73
606.992	21.64
607.411	21.56
607.829	21.44
608.248	21.32
608.666	21.24
609.085	21.15
609.503	21.04
609.921	20.94
610.339	20.86
610.758	20.76
611.176	20.66
611.594	20.57
612.012	20.47
612.43	20.43
612.847	20.34
613.265	20.24
613.683	20.14
614.101	20.06
614.518	19.97
614.936	19.88
615.353	19.8
615.771	19.71
616.188	19.64
616.606	19.55
617.023	19.46
617.44	19.41
617.857	19.33
618.274	19.27
618.691	19.2
619.108	19.16
619.525	19.1
619.942	19.05
620.359	19.01
620.776	18.97
621.192	18.93
621.609	18.9
622.026	18.86
622.442	18.84
622.859	18.81
623.275	18.81
623.691	18.78
624.108	18.75
624.524	18.73
624.94	18.69
625.356	18.68
625.772	18.66
626.188	18.64
626.604	18.63
627.02	18.62
627.436	18.6
627.852	18.57
628.268	18.54
628.683	18.53
629.099	18.52
629.514	18.49
629.93	18.45
630.345	18.39
630.761	18.37
631.176	18.33
631.591	18.26
632.007	18.22
632.422	18.16
632.837	18.11
633.252	18.03
633.667	17.95
634.082	17.86
634.497	17.76
634.911	17.67
635.326	17.55
635.741	17.43
636.155	17.31
636.57	17.17
636.984	17.02
637.399	16.86
637.813	16.69
638.228	16.53
638.642	16.38
639.056	16.22
639.47	16.05
639.884	15.88
640.298	15.71
640.712	15.52
641.126	15.35
641.54	15.19
641.954	15.04
642.368	14.87
642.781	14.69
643.195	14.52
643.609	14.38
644.022	14.21
644.436	14.06
644.849	13.93
645.262	13.79
645.676	13.65
646.089	13.51
646.502	13.36
646.915	13.25
647.328	13.15
647.741	13.05
648.154	12.95
648.567	12.86
648.98	12.79
649.393	12.71
649.805	12.62
650.218	12.56
650.631	12.51
651.043	12.47
651.456	12.42
651.868	12.37
652.28	12.31
652.693	12.23
653.105	12.16
653.517	12.09
653.929	12.01
654.341	11.93
654.753	11.84
655.165	11.74
655.577	11.63
655.989	11.51
656.401	11.38
656.813	11.27
657.224	11.17
657.636	11.07
658.047	10.93
658.459	10.79
658.87	10.66
659.282	10.54
659.693	10.41
660.104	10.27
660.515	10.15
660.926	10.04
661.338	9.91
661.749	9.77
662.159	9.63
662.57	9.52
662.981	9.43
663.392	9.32
663.803	9.2
664.213	9.1
664.624	9.01
665.035	8.9
665.445	8.81
665.855	8.73
666.266	8.66
666.676	8.58
667.086	8.53
667.497	8.44
667.907	8.39
668.317	8.35
668.727	8.3
669.137	8.26
669.547	8.24
669.956	8.21
670.366	8.2
670.776	8.18
671.186	8.16
671.595	8.15
672.005	8.16
672.414	8.17
672.824	8.18
673.233	8.19
673.642	8.19
674.052	8.19
674.461	8.21
674.87	8.23
675.279	8.26
675.688	8.29
676.097	8.33
676.506	8.35
676.915	8.4
677.323	8.45
677.732	8.53
678.141	8.61
678.549	8.7
678.958	8.77
679.366	8.86
679.775	8.96
680.183	9.07
680.592	9.2
681	9.35
681.408	9.5
681.816	9.65
682.224	9.84
682.632	10.06
683.04	10.29
683.448	10.55
683.856	10.84
684.264	11.14
684.671	11.5
685.079	11.87
685.487	12.27
685.894	12.71
686.302	13.18
686.709	13.65
687.116	14.16
687.524	14.69
687.931	15.24
688.338	15.82
688.745	16.45
689.152	17.08
689.559	17.73
689.966	18.38
690.373	19.06
690.78	19.75
691.187	20.46
691.593	21.16
692	21.88
692.407	22.61
692.813	23.33
693.22	24.03
693.626	24.74
694.032	25.46
694.439	26.2
694.845	26.9
695.251	27.59
695.657	28.26
696.063	28.95
696.469	29.6
696.875	30.22
697.281	30.83
697.687	31.47
698.093	32.06
698.498	32.69
698.904	33.24
699.31	33.82
699.715	34.4
700.12	34.95
700.526	35.48
700.931	36
701.337	36.51
701.742	37.01
702.147	37.49
702.552	37.99
702.957	38.43
703.362	38.9
703.767	39.33
704.172	39.74
704.577	40.16
704.981	40.58
705.386	41
705.791	41.43
706.195	41.83
706.6	42.19
707.004	42.54
707.408	42.91
707.813	43.23
708.217	43.58
708.621	43.92
709.025	44.26
709.43	44.56
709.834	44.89
710.237	45.17
710.641	45.48
711.045	45.77
711.449	46.05
711.853	46.3
712.256	46.6
712.66	46.86
713.064	47.13
713.467	47.36
713.87	47.62
714.274	47.89
714.677	48.1
715.08	48.35
715.484	48.61
715.887	48.85
716.29	49.1
716.693	49.31
717.096	49.54
717.499	49.76
717.901	49.93
718.304	50.16
718.707	50.32
719.109	50.55
719.512	50.75
719.915	50.93
720.317	51.1
720.719	51.27
721.122	51.44
721.524	51.61
721.926	51.79
722.328	52
722.731	52.14
723.133	52.29
723.535	52.44
723.937	52.57
724.338	52.69
724.74	52.84
725.142	52.87
725.544	52.96
725.945	53.09
726.347	53.17
726.748	53.25
727.15	53.35
727.551	53.44
727.952	53.53
728.354	53.64
728.755	53.73
729.156	53.82
729.557	53.98
729.958	54.09
730.359	54.16
730.76	54.25
731.161	54.31
731.562	54.38
731.962	54.46
732.363	54.52
732.763	54.58
733.164	54.61
733.564	54.64
733.965	54.67
734.365	54.69
734.766	54.73
735.166	54.75
735.566	54.81
735.966	54.84
736.366	54.87
736.766	54.9
737.166	54.93
737.566	54.98
737.966	55.04
738.365	55.09
738.765	55.13
739.165	55.11
739.564	55.14
739.964	55.14
740.363	55.17
740.763	55.17
741.162	55.19
741.561	55.22
741.96	55.26
742.36	55.28
742.759	55.3
743.158	55.34
743.557	55.41
743.955	55.46
744.354	55.5
744.753	55.55
745.152	55.58
745.55	55.61
745.949	55.62
746.348	55.66
746.746	55.7
747.144	55.75
747.543	55.76
747.941	55.84
748.339	55.91
748.737	55.98
749.136	55.99
749.534	56.07
749.932	56.12
750.33	56.14
750.727	56.14
751.125	56.13
751.523	56.08
751.921	56.11
752.318	56.06
752.716	55.99
753.113	55.97
753.511	55.92
753.908	55.88
754.305	55.81
754.703	55.81
755.1	55.76
755.497	55.74
755.894	55.78
756.291	55.73
756.688	55.73
757.085	55.71
757.482	55.68
757.878	55.7
758.275	55.7
758.672	55.71
759.068	55.68
759.465	55.7
759.861	55.7
760.258	55.68
760.654	55.69
761.05	55.68
761.447	55.64
761.843	55.6
762.239	55.56
762.635	55.52
763.031	55.51
763.427	55.47
763.822	55.46
764.218	55.44
764.614	55.43
765.01	55.41
765.405	55.37
765.801	55.37
766.196	55.41
766.592	55.42
766.987	55.42
767.382	55.4
767.778	55.4
768.173	55.39
768.568	55.37
768.963	55.3
769.358	55.33
769.753	55.35
770.148	55.36
770.542	55.35
770.937	55.34
771.332	55.31
771.726	55.3
772.121	55.27
772.515	55.27
772.91	55.3
773.304	55.35
773.699	55.3
774.093	55.25
774.487	55.27
774.881	55.27
775.275	55.26
775.669	55.27
776.063	55.28
776.457	55.29
776.851	55.27
777.245	55.27
777.638	55.25
778.032	55.26
778.425	55.31
778.819	55.31
779.212	55.29
779.606	55.28
779.999	55.26
780.392	55.28
780.786	55.35
781.179	55.39
781.572	55.38
781.965	55.42
782.358	55.38
782.751	55.39
783.143	55.37
783.536	55.4
783.929	55.48
784.322	55.54
784.714	55.53
785.107	55.51
785.499	55.49
785.891	55.5
786.284	55.47
786.676	55.53
787.068	55.52
787.46	55.52
787.852	55.53
788.245	55.49
788.636	55.49
789.028	55.52
789.42	55.51
789.812	55.51
790.204	55.47
790.595	55.46
790.987	55.47
791.378	55.49
791.77	55.53
792.161	55.56
792.553	55.53
792.944	55.55
793.335	55.57
793.726	55.55
794.117	55.52
794.508	55.58
794.899	55.62
795.29	55.61
795.681	55.57
796.072	55.54
796.463	55.47
796.853	55.49
797.244	55.48
797.634	55.46
798.025	55.46
798.415	55.51
798.806	55.51
799.196	55.51
799.586	55.54
799.976	55.59
800.366	55.64
800.756	55.68
801.146	55.69
801.536	55.68
801.926	55.71
802.316	55.75
802.706	55.75
803.095	55.76
803.485	55.8
803.874	55.81
804.264	55.82
804.653	55.78
805.043	55.79
805.432	55.74
805.821	55.76
806.21	55.75
806.599	55.79
806.988	55.78
807.377	55.77
807.766	55.74
808.155	55.76
808.544	55.74
808.933	55.76
809.321	55.83
809.71	55.91
810.098	55.9
810.487	55.95
810.875	55.93
811.264	56
811.652	56.03
812.04	56.06
812.428	56.05
812.816	56.1
813.204	56.1
813.592	56.05
813.98	56.06
814.368	56.07
814.756	56.08
815.144	56.11
815.531	56.11
815.919	56.1
816.306	56.11
816.694	56.16
817.081	56.14
817.469	56.23
817.856	56.29
818.243	56.3
818.63	56.36
819.017	56.37
819.404	56.35
819.791	56.34
820.178	56.33
820.565	56.35
820.952	56.32
821.339	56.36
821.725	56.35
822.112	56.34
822.498	56.36
822.885	56.38
823.271	56.4
823.657	56.41
824.044	56.44
824.43	56.49
824.816	56.45
825.202	56.46
825.588	56.48
825.974	56.45
826.36	56.44
826.746	56.44
827.132	56.39
827.517	56.37
827.903	56.39
828.289	56.38
828.674	56.37
829.06	56.41
829.445	56.45
829.83	56.44
830.216	56.43
830.601	56.42
830.986	56.43
831.371	56.46
831.756	56.44
832.141	56.41
832.526	56.41
832.911	56.4
833.295	56.39
833.68	56.4
834.065	56.38
834.449	56.36
834.834	56.33
835.218	56.28
835.603	56.27
835.987	56.26
836.371	56.28
836.755	56.26
837.139	56.24
837.524	56.2
837.908	56.13
838.291	56.14
838.675	56.15
839.059	56.16
839.443	56.18
839.827	56.15
840.21	56.17
840.594	56.15
840.977	56.12
841.361	56.1
841.744	56.13
842.127	56.14
842.511	56.11
842.894	56.1
843.277	56.13
843.66	56.12
844.043	56.14
844.426	56.11
844.809	56.11
845.191	56.13
845.574	56.14
845.957	56.09
846.339	56.08
846.722	56.09
847.104	56.07
847.487	56.08
847.869	56.08
848.252	56.08
848.634	56.09
849.016	56.09
849.398	56.1
849.78	56.11
850.162	56.17
850.544	56.2
850.926	56.2
851.307	56.2
851.689	56.17
852.071	56.17
852.452	56.18
852.834	56.16
853.215	56.18
853.597	56.19
853.978	56.17
854.359	56.14
854.741	56.1
855.122	56.09
855.503	56.1
855.884	56.1
856.265	56.1
856.646	56.08
857.026	56.11
857.407	56.07
857.788	56.08
858.169	56.09
858.549	56.11
858.93	56.13
859.31	56.14
859.69	56.12
860.071	56.11
860.451	56.11
860.831	56.1
861.211	56.08
861.591	56.11
861.971	56.09
862.351	56.12
862.731	56.1
863.111	56.11
863.491	56.1
863.87	56.11
864.25	56.11
864.629	56.13
865.009	56.13
865.388	56.12
865.768	56.11
866.147	56.13
866.526	56.1
866.905	56.08
867.284	56.09
867.663	56.12
868.042	56.13
868.421	56.14
868.8	56.12
869.179	56.13
869.558	56.15
869.936	56.16
870.315	56.16
870.693	56.17
871.072	56.17
871.45	56.18
871.828	56.14
872.207	56.12
872.585	56.09
872.963	56.1
873.341	56.12
873.719	56.1
874.097	56.09
874.475	56.07
874.853	56.04
875.23	56.06
875.608	56.05
875.986	56.06
876.363	56.07
876.741	56.12
877.118	56.09
877.495	56.07
877.873	56.05
878.25	56.04
878.627	56.07
879.004	56.1
879.381	56.08
879.758	56.07
880.135	56.07
880.512	56.1
880.889	56.1
881.265	56.1
881.642	56.11
882.019	56.15
882.395	56.15
882.772	56.14
883.148	56.14
883.524	56.18
883.901	56.16
884.277	56.13
884.653	56.1
885.029	56.09
885.405	56.09
885.781	56.07
886.157	56.06
886.532	56.06
886.908	56.05
887.284	56.05
887.659	56.05
888.035	56.03
888.411	56.03
888.786	56.01
889.161	56.01
889.537	56
889.912	55.98
890.287	55.96
890.662	55.92
891.037	55.88
891.412	55.83
891.787	55.79
892.162	55.77
892.536	55.78
892.911	55.76
893.286	55.71
893.66	55.71
894.035	55.68
894.409	55.68
894.784	55.67
895.158	55.68
895.532	55.66
895.906	55.64
896.281	55.63
896.655	55.58
897.029	55.56
897.402	55.54
897.776	55.51
898.15	55.5
898.524	55.45
898.898	55.42
899.271	55.4
899.645	55.4
900.018	55.39
900.392	55.38
900.765	55.42
901.138	55.44
901.511	55.46
901.884	55.47
902.258	55.47
902.631	55.5
903.003	55.53
903.376	55.51
903.749	55.55
904.122	55.58
904.495	55.58
904.867	55.55
905.24	55.53
905.612	55.5
905.985	55.48
906.357	55.48
906.729	55.45
907.102	55.48
907.474	55.5
907.846	55.44
908.218	55.41
908.59	55.37
908.962	55.38
909.334	55.37
909.705	55.37
910.077	55.36
910.449	55.39
910.82	55.37
911.192	55.34
911.563	55.27
911.935	55.26
912.306	55.24
912.677	55.24
913.048	55.21
913.419	55.21
913.79	55.18
914.161	55.16
914.532	55.15
914.903	55.18
915.274	55.14
915.645	55.23
916.015	55.26
916.386	55.26
916.756	55.25
917.127	55.29
917.497	55.28
917.868	55.3
918.238	55.34
918.608	55.31
918.978	55.29
919.348	55.27
919.718	55.21
920.088	55.2
920.458	55.22
920.828	55.25
921.198	55.25
921.567	55.25
921.937	55.27
922.306	55.21
922.676	55.23
923.045	55.2
923.415	55.19
923.784	55.21
924.153	55.19
924.522	55.18
924.891	55.15
925.26	55.08
925.629	55.08
925.998	55.07
926.367	55.07
926.736	54.99
927.104	55.03
927.473	55.07
927.842	55.08
928.21	55.1
928.578	55.05
928.947	55.02
929.315	55.02
929.683	55
930.051	54.96
930.42	54.97
930.788	54.96
931.156	54.89
931.523	54.84
931.891	54.72
932.259	54.62
932.627	54.54
932.994	54.53
933.362	54.47
933.729	54.38
934.097	54.31
934.464	54.22
934.831	54.17
935.199	54.08
935.566	53.9
935.933	53.88
936.3	53.81
936.667	53.75
937.034	53.65
937.401	53.61
937.767	53.57
938.134	53.58
938.501	53.51
938.867	53.56
939.234	53.59
939.6	53.71
939.967	53.77
940.333	53.89
940.699	54.09
941.065	54.26
941.431	54.4
941.798	54.44
942.163	54.54
942.529	54.67
942.895	54.77
943.261	54.85
943.627	54.99
943.992	55.12
944.358	55.11
944.723	55.09
945.089	55.11
945.454	55.14
945.82	55.18
946.185	55.26
946.55	55.41
946.915	55.36
947.28	55.38
947.645	55.35
948.01	55.27
948.375	55.35
948.74	55.25
949.104	55.19
949.469	55.11
949.834	55.03
950.198	54.9
950.562	54.79
950.927	54.78
951.291	54.67
951.655	54.64
952.02	54.63
952.384	54.59
952.748	54.64
953.112	54.6
953.476	54.58
953.839	54.62
954.203	54.56
954.567	54.49
954.931	54.42
955.294	54.43
955.658	54.36
956.021	54.34
956.385	54.28
956.748	54.21
957.111	54.15
957.474	54.08
957.837	54.05
958.2	53.98
958.563	53.96
958.926	53.97
959.289	53.96
959.652	53.98
960.015	54
960.377	53.97
960.74	53.93
961.102	53.91
961.465	53.97
961.827	53.79
962.189	53.8
962.552	53.69
962.914	53.6
963.276	53.55
963.638	53.51
964	53.43
964.362	53.44
964.724	53.43
965.085	53.39
965.447	53.3
965.809	53.33
966.17	53.38
966.532	53.49
966.893	53.54
967.255	53.55
967.616	53.52
967.977	53.53
968.338	53.46
968.699	53.44
969.061	53.43
969.421	53.42
969.782	53.39
970.143	53.29
970.504	53.2
970.865	53.14
971.225	53.08
971.586	53.09
971.946	53.07
972.307	53.05
972.667	53.07
973.027	53.12
973.388	53.1
973.748	53.2
974.108	53.23
974.468	53.26
974.828	53.38
975.188	53.47
975.548	53.39
975.907	53.35
976.267	53.37
976.627	53.32
976.986	53.32
977.346	53.32
977.705	53.28
978.064	53.26
978.424	53.25
978.783	53.13
979.142	53.01
979.501	53.01
979.86	53.06
980.219	52.96
980.578	53.05
980.937	53.06
981.296	53.05
981.654	53.11
982.013	53.2
982.371	53.25
982.73	53.25
983.088	53.22
983.447	53.32
983.805	53.23
984.163	53.36
984.521	53.22
984.879	53.26
985.237	53.3
985.595	53.2
985.953	53.07
986.311	53.15
986.669	53.24
987.026	53.33
987.384	53.26
987.741	53.38
988.099	53.31
988.456	53.35
988.814	53.26
989.171	53.27
989.528	53.28
989.885	53.21
990.242	53.1
990.599	53.09
990.956	53.15
991.313	53.24
991.67	53.27
992.027	53.25
992.383	53.34
992.74	53.33
993.096	53.29
993.453	53.35
993.809	53.59
994.165	53.57
994.522	53.4
994.878	53.37
995.234	53.35
995.59	53.17
995.946	53.36
996.302	53.26
996.658	53.28
997.013	53.28
997.369	53.25
997.725	53.2
998.08	53.18
998.436	53.44
998.791	53.46
999.147	53.44
999.502	53.54
999.857	53.44
1000.212	53.41
1000.567	53.32
1000.922	53.39
1001.277	53.46
1001.632	53.49
1001.987	53.44
1002.342	53.29
1002.696	53.29
1003.051	53.09
1003.406	53.1
1003.76	53.03
1004.114	53.31
1004.469	53.46
1004.823	53.57
1005.177	53.61
1005.531	53.53
1005.885	53.63
1006.239	53.51
1006.593	53.44
1006.947	53.46
1007.301	53.52
1007.655	53.49
1008.008	53.33
1008.362	53.25
1008.715	53.18
1009.069	53
1009.422	52.94
1009.776	52.79
1010.129	52.86
1010.482	52.94
1010.835	53.3
1011.188	53.23
1011.541	53.14
1011.894	53.02
1012.247	53.05
1012.6	52.89
1012.952	52.98
1013.305	52.98
1013.657	53.2
1014.01	53.45
1014.362	53.47
1014.715	53.1
1015.067	53.23
1015.419	53.46
1015.771	53.63
1016.123	53.56
1016.475	53.7
1016.827	53.95
1017.179	54.02
1017.531	54.1
1017.883	53.92
1018.234	53.68
1018.586	53.6
1018.938	53.44
1019.289	53.39
1019.64	53.76
1019.992	54.06
1020.343	53.98
1020.694	53.61
1021.045	53.74
1021.396	53.58
1021.747	53.66
1022.098	53.83
1022.449	54.17
1022.8	54.07
1023.151	53.81
1023.501	53.38
1023.852	53.36
1024.202	53.38
1024.553	53.46
1024.903	53.38
1025.253	53.36
1025.604	53.42
1025.954	53.34
1026.304	53.86
1026.654	54.28
1027.004	54.91
1027.354	54.76
1027.703	54.36
1028.053	54.33
1028.403	54.61
1028.753	54.71
1029.102	54.81
1029.452	54.72
1029.801	54.83
1030.15	54.34
1030.499	54.12
897.758	228.73
901.051	223.44
904.343	232.71
907.636	225.99
910.928	224.32
914.22	229.31
917.511	220.22
920.803	217.48
924.094	208.01
927.384	208.42
930.675	202.39
933.965	197.91
937.255	202.79
940.544	190.76
943.834	186.02
947.123	182.92
950.411	173.6
953.7	172.88
956.988	168.22
960.276	163.72
963.563	165.33
966.851	160.56
970.138	157.4
973.424	148.2
976.711	148.65
979.997	147.34
983.283	143.67
986.568	140.28
989.853	136.66
993.138	134.73
996.423	132.94
999.708	129.41
1002.992	128.5
1006.275	127.38
1009.559	126.7
1012.842	123.94
1016.125	118.97
1019.408	116.61
1022.69	118.18
1025.972	116.71
1029.254	114.01
1032.536	112.87
1035.817	109.02
1039.098	108.51
1042.379	107.16
1045.659	107.55
1048.939	104.82
1052.219	104.92
1055.498	104.88
1058.778	102.58
1062.057	102.21
1065.335	102.62
1068.614	101.74
1071.892	101.92
1075.17	100.59
1078.447	99.63
1081.724	98.58
1085.001	97.42
1088.278	97.59
1091.554	97.72
1094.83	96.92
1098.106	96.41
1101.382	94.73
1104.657	94.69
1107.932	94.15
1111.206	93.69
1114.481	93.25
1117.755	91
1121.029	91.63
1124.302	90.32
1127.575	89.82
1130.848	89.26
1134.121	87.89
1137.393	88.45
1140.665	87.17
1143.937	86.05
1147.208	85.59
1150.48	84.84
1153.75	84.93
1157.021	84.87
1160.291	84.14
1163.561	82.52
1166.831	82.86
1170.101	83.04
1173.37	81.49
1176.639	81.2
1179.907	81.62
1183.176	80.32
1186.444	79.71
1189.711	79.88
1192.979	78.8
1196.246	79.98
1199.513	79.67
1202.78	79.78
1206.046	79.4
1209.312	80.5
1212.578	80.6
1215.843	81.21
1219.108	81.59
1222.373	83.46
1225.638	84.38
1228.902	86.23
1232.166	86.42
1235.43	88.12
1238.693	88.83
1241.956	90.69
1245.219	92.9
1248.482	93.12
1251.744	92.26
1255.006	93.17
1258.268	90.38
1261.529	90.16
1264.79	88.82
1268.051	88.26
1271.312	87.4
1274.572	86.68
1277.832	85.05
1281.092	83.82
1284.351	83.06
1287.61	82.93
1290.869	83.39
1294.128	83.72
1297.386	83.36
1300.644	83.1
1303.902	81.56
1307.159	81.02
1310.416	81.07
1313.673	82.22
1316.93	82.3
1320.186	83.2
1323.442	83.49
1326.697	83.11
1329.953	82.88
1333.208	84.13
1336.463	85.9
1339.717	88.31
1342.972	90.38
1346.226	91.38
1349.479	90.91
1352.733	93.35
1355.986	92.8
1359.238	94.42
1362.491	94.43
1365.743	95.5
1368.995	96.89
1372.247	93.05
1375.498	91.6
1378.749	92.74
1382	92.75
1385.251	91.61
1388.501	91.76
1391.751	92.32
1395	90.59
1398.25	91.15
1401.499	91.34
1404.748	87.88
1407.996	89.11
1411.244	88.96
1414.492	88.42
1417.74	83.77
1420.987	83.15
1424.234	80.36
1427.481	77.14
1430.728	76.15
1433.974	73.21
1437.22	71.59
1440.465	68.52
1443.711	66.64
1446.956	65.09
1450.201	61.9
1453.445	59.66
1456.689	57.82
1459.933	56.21
1463.177	53.98
1466.42	53
1469.663	52.02
1472.906	50.08
1476.148	49.41
1479.391	48.46
1482.633	47.79
1485.874	47.67
1489.115	47.92
1492.356	47.43
1495.597	47.06
1498.838	48.01
1502.078	47.9
1505.318	48.04
1508.557	47.65
1511.797	48.33
1515.036	49.05
1518.274	48.78
1521.513	48.59
1524.751	48.51
1527.989	49.3
1531.227	49.43
1534.464	49.7
1537.701	49.68
1540.938	49.22
1544.174	50.23
1547.41	50.57
1550.646	50.47
1553.882	50.74
1557.117	51.73
1560.352	51.66
1563.587	51.64
1566.821	51.78
1570.055	52.06
1573.289	52.46
1576.523	52.98
1579.756	52.88
1582.989	53.21
1586.222	53.07
1589.454	54.36
1592.686	53.7
1595.918	53.79
1599.15	53.92
1602.381	54.12
1605.612	54.25
1608.843	53.99
1612.073	54.42
1615.303	54.78
1618.533	54.8
1621.762	54.99
1624.992	53.91
1628.221	54.35
1631.449	54.82
1634.678	55.14
1637.906	54.82
1641.134	54.78
1644.361	55.2
1647.588	54.94
1650.815	54.89
1654.042	54.78
1657.269	54.81
1660.495	55.29
1663.72	55.43
1666.946	55.16
1670.171	55.27
1673.396	55.72
1676.621	55.63
1679.845	55.91
1683.069	56.01
1686.293	56.02
1689.517	56.24
1692.74	56.38
1695.963	56.22
1699.185	56.03
1702.408	56.45
1705.63	56.06
1708.852	56.58
1712.073	56.48
1715.294	56.31
1718.515	56.4
1721.736	56.3
1724.956	56.49
1728.176	56.54
1731.396	56.4
1734.616	56.82
1737.835	56.54
1741.054	56.29
1744.272	55.61
1747.491	55.5
1750.709	55.5
1753.927	55.23
1757.144	55.09
1760.361	54.51
1763.578	54.38
1766.795	54.77
1770.011	54.65
1773.227	54.49
1776.443	55
1779.658	54.85
1782.874	55.62
1786.089	55.07
1789.303	55.27
1792.518	55.61
1795.732	55.74
1798.945	56.66
1802.159	56.32
1805.372	56.24
1808.585	57.03
1811.797	56.32
1815.01	57.14
1818.222	56.97
1821.434	57.22
1824.645	57.38
1827.856	57.46
1831.067	57.41
1834.278	56.96
1837.488	57.69
1840.698	57.82
1843.908	57.51
1847.117	58.73
1850.326	58.15
1853.535	57.97
1856.744	58.1
1859.952	57.39
1863.16	57.07
1866.368	56.35
1869.575	56.36
1872.782	54.53
1875.989	53.28
1879.196	52.24
1882.402	50.48
1885.608	50.84
1888.814	49.42
1892.019	49.1
1895.224	48.14
1898.429	48.1
1901.634	47.18
1904.838	47.03
1908.042	47.26
1911.246	47.59
1914.449	48.5
1917.652	47.68
1920.855	46.78
1924.058	46.45
1927.26	45.4
1930.462	46.5
1933.664	46.51
1936.865	47.56
1940.066	45.05
1943.267	46.13
1946.467	44.96
1949.668	44.88
1952.868	44.9
1956.067	45.33
1959.267	46.41
1962.466	46.76
1965.665	46.75
1968.863	47.07
1972.061	46.74
1975.259	49.29
1978.457	47.93
1981.654	49.64
1984.852	49.69
1988.048	50.99
1991.245	51.97
1994.441	52.31
1997.637	53.9
2000.833	55.31
2004.028	54.38
2007.223	55.35
2010.418	56.22
2013.613	60.02
2016.807	61.25
2020.001	63.39
2023.194	65.31
2026.388	67.3
2029.581	70.23
2032.774	71.87
2035.966	72.49
2039.158	76.61
2042.35	78.2
2045.542	81.37
2048.733	83.57
2051.924	82.15
2055.115	82.13
2058.306	82.42
2061.496	82.22
2064.686	84.06
2067.875	85.32
2071.065	87.67
2074.254	86.21
2077.442	89.31
2080.631	87.42
2083.819	88.45
2087.007	93.56
2090.195	94.97
2093.382	94.9
2096.569	96.28
2099.756	97.86
2102.942	98.39
2106.128	99.79
2109.314	103.71
2112.5	104.3
2115.685	102.74
2118.87	102.28
2122.055	101.48
2125.239	103.7
2128.424	109.04
2131.608	106.6
2134.791	106.21
2137.974	107.48
2141.157	109.31
2144.34	107.82
2147.523	112.09
2150.705	116.79
2153.887	115.41
2157.068	117.73
2160.25	118.45
2163.431	117.25
2166.611	121.24
2169.792	118.45
2172.972	123.65
2176.152	122.38
2179.331	125.16
2182.511	122.48
2185.69	124.95
2188.868	125.57
2192.047	131.71
2195.225	134.93
2198.403	134.77
2201.58	133.78
2204.758	143.31
2207.935	138.42
2211.111	140.76
2214.288	141.76
2217.464	142.97
2220.64	144.71
2223.815	147.86
2226.991	141.35
2230.166	142.31
2233.34	145.71
2236.515	147.13
2239.689	142.33
2242.863	148.23
2246.036	148.9
2249.209	149.24
2252.382	146.43
2255.555	152.53
2258.727	155.13
2261.9	158.92
2265.071	159.4
2268.243	159.57
2271.414	166.68
2274.585	172.03
2277.756	169.02
2280.926	171.69
2284.096	177.82
2287.266	183.16
2290.436	179.85
2293.605	182.76
2296.774	190.41
2299.942	192.15
2303.111	196.66
2306.279	201.04
2309.447	201.72
2312.614	199.44
2315.781	201.34
2318.948	203.63
2322.115	208.05
2325.281	212.1
2328.447	210.28
2331.613	211.97
2334.779	214.29
2337.944	214.36
2341.109	213.81
2344.274	215.58
2347.438	226.18
2350.602	235.4
2353.766	245.27
2356.929	245.11
2360.092	253.09
2363.255	255.39
2366.418	258.38
2369.58	259.42
2372.742	267.6
2375.904	268.41
2379.066	277.13
2382.227	279.25
2385.388	276.01
2388.548	260.41
2391.709	258.07
2394.869	259.31
2398.029	260.41
2401.188	262.33
2404.347	271.26
2407.506	274.58
2410.665	264.07
2413.823	272.02
2416.981	279.22
2420.139	269.03
2423.296	294.32
2426.453	310.76
2429.61	301.72
2432.767	321.83
2435.923	335.5
2439.079	324.54
2442.235	325.14
2445.391	340.14
2448.546	326.15
2451.701	340.34
2454.855	358.6
2458.009	328.91
2461.163	333.93
2464.317	333.8
2467.471	327.99
2470.624	333.07
2473.777	330.71
2476.929	326.04
2480.082	332.84
2483.234	355.96
2486.385	361.23
2489.537	371.65
2492.688	391.5
2495.839	386.64
2498.989	398.82
2502.14	402.18
2505.29	392.92
2508.439	415.46
2511.589	424.63
2514.738	427.64
2517.887	414.82
2521.035	394.61
2524.183	384.73
2527.331	387.16
2530.479	379.21
2533.627	383.42
