Data from C_2_div_pa_2n_086_Splice17_02.txt Node
Date: Sat Feb 29 14:15:59 EST 2020
User: sa697716
Spectrometer: FLMS03696
Trigger mode: 0
Integration Time (sec): 3.180400E-1
Scans to average: 20
Electric dark correction enabled: true
Nonlinearity correction enabled: true
Boxcar width: 5
XAxis mode: Wavelengths
Number of Pixels in Spectrum: 2048
>>>>>Begin Spectral Data<<<<<
187.83	114.54
188.298	107.13
188.766	110.85
189.233	99.18
189.701	99.99
190.169	106.79
190.636	122.2
191.104	105.53
191.571	300.74
192.039	353.18
192.506	-377.2
192.974	317.16
193.441	528.46
193.908	57.79
194.375	-23.02
194.842	71.81
195.31	118.67
195.777	159.44
196.244	37.96
196.711	43.31
197.177	42.27
197.644	41.79
198.111	41.54
198.578	41.33
199.045	41.5
199.511	42.02
199.978	42.45
200.445	42.15
200.911	42.43
201.378	43.14
201.844	43.34
202.31	43.94
202.777	44.18
203.243	44.6
203.709	45.23
204.176	45.24
204.642	45.08
205.108	44.85
205.574	45.26
206.04	45.3
206.506	45.27
206.972	45.47
207.438	45.35
207.903	45.95
208.369	45.24
208.835	45.21
209.301	44.95
209.766	44.66
210.232	44.03
210.697	43.55
211.163	43.07
211.628	42.3
212.094	41.7
212.559	40.96
213.024	39.82
213.49	39.36
213.955	38.5
214.42	37.93
214.885	37.15
215.35	36.56
215.815	35.35
216.28	34.21
216.745	33.07
217.21	31.67
217.675	30.5
218.14	29.1
218.604	27.88
219.069	26.81
219.534	25.8
219.998	24.99
220.463	24.25
220.927	23.69
221.392	23.06
221.856	22.58
222.32	22.13
222.785	21.65
223.249	21.31
223.713	21.01
224.177	20.68
224.642	20.4
225.106	20.14
225.57	19.84
226.034	19.59
226.497	19.33
226.961	19.02
227.425	18.73
227.889	18.52
228.353	18.27
228.816	18.03
229.28	17.8
229.744	17.58
230.207	17.35
230.671	17.13
231.134	16.9
231.597	16.69
232.061	16.52
232.524	16.35
232.987	16.15
233.45	15.97
233.914	15.77
234.377	15.6
234.84	15.43
235.303	15.26
235.766	15.1
236.229	14.95
236.691	14.81
237.154	14.67
237.617	14.53
238.08	14.39
238.542	14.27
239.005	14.15
239.468	14.01
239.93	13.9
240.393	13.78
240.855	13.67
241.317	13.56
241.78	13.47
242.242	13.34
242.704	13.22
243.166	13.11
243.629	13
244.091	12.89
244.553	12.79
245.015	12.7
245.477	12.6
245.939	12.5
246.4	12.39
246.862	12.28
247.324	12.2
247.786	12.12
248.247	12.04
248.709	11.95
249.17	11.88
249.632	11.79
250.093	11.69
250.555	11.61
251.016	11.55
251.477	11.48
251.939	11.41
252.4	11.34
252.861	11.26
253.322	11.2
253.783	11.15
254.244	11.09
254.705	11.05
255.166	11.02
255.627	10.97
256.088	10.91
256.549	10.87
257.009	10.81
257.47	10.77
257.931	10.72
258.391	10.65
258.852	10.57
259.312	10.52
259.773	10.46
260.233	10.39
260.694	10.33
261.154	10.27
261.614	10.21
262.074	10.17
262.534	10.12
262.994	10.07
263.455	10.02
263.915	9.98
264.374	9.92
264.834	9.87
265.294	9.83
265.754	9.8
266.214	9.75
266.673	9.71
267.133	9.66
267.593	9.62
268.052	9.56
268.512	9.53
268.971	9.48
269.431	9.46
269.89	9.42
270.349	9.38
270.809	9.34
271.268	9.32
271.727	9.29
272.186	9.25
272.645	9.21
273.104	9.18
273.563	9.16
274.022	9.13
274.481	9.09
274.94	9.05
275.399	9.01
275.857	8.97
276.316	8.93
276.775	8.89
277.233	8.85
277.692	8.81
278.15	8.77
278.609	8.74
279.067	8.7
279.525	8.67
279.984	8.64
280.442	8.62
280.9	8.59
281.358	8.56
281.816	8.53
282.274	8.5
282.732	8.48
283.19	8.46
283.648	8.42
284.106	8.4
284.564	8.38
285.021	8.35
285.479	8.33
285.937	8.31
286.394	8.29
286.852	8.26
287.309	8.24
287.767	8.23
288.224	8.19
288.682	8.17
289.139	8.14
289.596	8.1
290.053	8.06
290.511	8.02
290.968	7.99
291.425	7.95
291.882	7.93
292.339	7.9
292.796	7.86
293.252	7.84
293.709	7.81
294.166	7.79
294.623	7.77
295.079	7.76
295.536	7.74
295.992	7.71
296.449	7.69
296.905	7.66
297.362	7.64
297.818	7.61
298.274	7.58
298.731	7.56
299.187	7.53
299.643	7.51
300.099	7.49
300.555	7.46
301.011	7.44
301.467	7.41
301.923	7.39
302.379	7.37
302.835	7.36
303.291	7.35
303.746	7.32
304.202	7.3
304.658	7.28
305.113	7.26
305.569	7.26
306.024	7.24
306.479	7.23
306.935	7.22
307.39	7.22
307.845	7.21
308.301	7.2
308.756	7.21
309.211	7.21
309.666	7.21
310.121	7.21
310.576	7.2
311.031	7.18
311.486	7.18
311.94	7.17
312.395	7.16
312.85	7.15
313.305	7.13
313.759	7.13
314.214	7.12
314.668	7.1
315.123	7.1
315.577	7.09
316.032	7.08
316.486	7.07
316.94	7.06
317.394	7.03
317.849	7.02
318.303	7
318.757	6.98
319.211	6.95
319.665	6.94
320.119	6.91
320.572	6.89
321.026	6.88
321.48	6.87
321.934	6.86
322.387	6.85
322.841	6.84
323.295	6.83
323.748	6.82
324.202	6.81
324.655	6.8
325.108	6.79
325.562	6.77
326.015	6.75
326.468	6.73
326.921	6.72
327.374	6.7
327.827	6.68
328.28	6.67
328.733	6.65
329.186	6.63
329.639	6.62
330.092	6.61
330.545	6.61
330.997	6.6
331.45	6.58
331.903	6.58
332.355	6.58
332.808	6.58
333.26	6.58
333.713	6.57
334.165	6.57
334.617	6.58
335.069	6.58
335.522	6.57
335.974	6.58
336.426	6.59
336.878	6.58
337.33	6.58
337.782	6.57
338.234	6.56
338.686	6.57
339.137	6.57
339.589	6.55
340.041	6.55
340.493	6.54
340.944	6.52
341.396	6.5
341.847	6.48
342.299	6.46
342.75	6.43
343.201	6.41
343.653	6.39
344.104	6.38
344.555	6.37
345.006	6.34
345.457	6.33
345.908	6.32
346.359	6.31
346.81	6.31
347.261	6.29
347.712	6.29
348.163	6.28
348.613	6.27
349.064	6.24
349.515	6.21
349.965	6.2
350.416	6.19
350.866	6.17
351.317	6.16
351.767	6.14
352.217	6.13
352.668	6.12
353.118	6.12
353.568	6.11
354.018	6.13
354.468	6.13
354.918	6.15
355.368	6.15
355.818	6.13
356.268	6.14
356.718	6.13
357.168	6.13
357.617	6.12
358.067	6.11
358.517	6.1
358.966	6.1
359.416	6.1
359.865	6.09
360.315	6.09
360.764	6.09
361.213	6.09
361.663	6.09
362.112	6.1
362.561	6.09
363.01	6.1
363.459	6.09
363.908	6.07
364.357	6.07
364.806	6.06
365.255	6.05
365.703	6.06
366.152	6.06
366.601	6.06
367.05	6.05
367.498	6.05
367.947	6.04
368.395	6.06
368.844	6.06
369.292	6.04
369.74	6.03
370.189	6.03
370.637	6.03
371.085	6.02
371.533	6.01
371.981	6.01
372.429	6
372.877	6
373.325	5.98
373.773	5.98
374.221	6
374.669	5.99
375.116	5.98
375.564	5.97
376.012	5.96
376.459	5.97
376.907	5.98
377.354	5.98
377.801	5.98
378.249	5.99
378.696	5.99
379.143	6
379.591	6.01
380.038	6.03
380.485	6.05
380.932	6.04
381.379	6.03
381.826	6.05
382.273	6.06
382.72	6.06
383.166	6.07
383.613	6.08
384.06	6.07
384.506	6.07
384.953	6.07
385.4	6.07
385.846	6.08
386.292	6.1
386.739	6.1
387.185	6.12
387.631	6.14
388.078	6.14
388.524	6.13
388.97	6.14
389.416	6.14
389.862	6.15
390.308	6.16
390.754	6.18
391.2	6.19
391.645	6.2
392.091	6.2
392.537	6.21
392.983	6.23
393.428	6.26
393.874	6.3
394.319	6.31
394.765	6.33
395.21	6.33
395.655	6.35
396.101	6.38
396.546	6.39
396.991	6.41
397.436	6.42
397.881	6.44
398.326	6.49
398.771	6.52
399.216	6.54
399.661	6.58
400.106	6.63
400.551	6.65
400.995	6.65
401.44	6.66
401.885	6.69
402.329	6.69
402.774	6.7
403.218	6.7
403.663	6.71
404.107	6.74
404.551	6.76
404.995	6.77
405.44	6.78
405.884	6.8
406.328	6.82
406.772	6.86
407.216	6.9
407.66	6.93
408.104	6.96
408.547	6.99
408.991	7
409.435	7.02
409.879	7.04
410.322	7.07
410.766	7.1
411.209	7.13
411.653	7.14
412.096	7.15
412.54	7.17
412.983	7.17
413.426	7.21
413.869	7.24
414.312	7.27
414.756	7.31
415.199	7.36
415.642	7.4
416.085	7.44
416.527	7.48
416.97	7.52
417.413	7.54
417.856	7.54
418.298	7.53
418.741	7.53
419.184	7.54
419.626	7.55
420.069	7.54
420.511	7.52
420.953	7.51
421.396	7.51
421.838	7.52
422.28	7.55
422.722	7.59
423.164	7.63
423.606	7.66
424.048	7.65
424.49	7.69
424.932	7.71
425.374	7.73
425.816	7.74
426.258	7.73
426.699	7.72
427.141	7.69
427.582	7.68
428.024	7.67
428.465	7.69
428.907	7.72
429.348	7.72
429.789	7.74
430.231	7.73
430.672	7.76
431.113	7.79
431.554	7.82
431.995	7.86
432.436	7.88
432.877	7.88
433.318	7.87
433.759	7.87
434.2	7.87
434.64	7.87
435.081	7.89
435.522	7.89
435.962	7.91
436.403	7.94
436.843	7.95
437.284	7.97
437.724	8
438.164	8.03
438.604	8.06
439.045	8.06
439.485	8.07
439.925	8.07
440.365	8.08
440.805	8.08
441.245	8.06
441.685	8.09
442.125	8.09
442.564	8.1
443.004	8.11
443.444	8.12
443.883	8.13
444.323	8.14
444.762	8.17
445.202	8.22
445.641	8.23
446.081	8.26
446.52	8.25
446.959	8.28
447.398	8.31
447.837	8.35
448.276	8.35
448.716	8.39
449.154	8.44
449.593	8.44
450.032	8.46
450.471	8.47
450.91	8.48
451.349	8.48
451.787	8.48
452.226	8.47
452.664	8.44
453.103	8.44
453.541	8.42
453.98	8.39
454.418	8.38
454.856	8.33
455.295	8.31
455.733	8.28
456.171	8.28
456.609	8.26
457.047	8.24
457.485	8.23
457.923	8.23
458.361	8.21
458.798	8.21
459.236	8.19
459.674	8.17
460.111	8.19
460.549	8.18
460.987	8.19
461.424	8.18
461.862	8.18
462.299	8.19
462.736	8.18
463.173	8.19
463.611	8.17
464.048	8.18
464.485	8.2
464.922	8.18
465.359	8.19
465.796	8.18
466.233	8.2
466.67	8.2
467.106	8.18
467.543	8.19
467.98	8.19
468.416	8.22
468.853	8.22
469.29	8.23
469.726	8.24
470.162	8.24
470.599	8.24
471.035	8.25
471.471	8.25
471.907	8.26
472.344	8.26
472.78	8.24
473.216	8.23
473.652	8.22
474.088	8.22
474.523	8.21
474.959	8.2
475.395	8.19
475.831	8.17
476.266	8.17
476.702	8.15
477.138	8.14
477.573	8.13
478.008	8.13
478.444	8.13
478.879	8.11
479.314	8.11
479.75	8.11
480.185	8.09
480.62	8.09
481.055	8.07
481.49	8.05
481.925	8.03
482.36	8.01
482.795	7.98
483.229	7.96
483.664	7.95
484.099	7.95
484.534	7.92
484.968	7.92
485.403	7.9
485.837	7.89
486.271	7.88
486.706	7.87
487.14	7.89
487.574	7.89
488.009	7.89
488.443	7.89
488.877	7.87
489.311	7.86
489.745	7.87
490.179	7.88
490.613	7.88
491.046	7.89
491.48	7.9
491.914	7.9
492.348	7.91
492.781	7.91
493.215	7.91
493.648	7.92
494.082	7.93
494.515	7.94
494.948	7.94
495.382	7.94
495.815	7.95
496.248	7.95
496.681	7.95
497.114	7.96
497.547	7.99
497.98	8.01
498.413	8.02
498.846	8.05
499.279	8.09
499.711	8.11
500.144	8.14
500.577	8.17
501.009	8.22
501.442	8.26
501.874	8.3
502.306	8.34
502.739	8.36
503.171	8.41
503.603	8.46
504.036	8.51
504.468	8.58
504.9	8.64
505.332	8.71
505.764	8.78
506.196	8.85
506.627	8.93
507.059	9
507.491	9.11
507.923	9.22
508.354	9.3
508.786	9.4
509.217	9.49
509.649	9.6
510.08	9.71
510.512	9.81
510.943	9.95
511.374	10.07
511.805	10.2
512.237	10.34
512.668	10.46
513.099	10.63
513.53	10.79
513.961	10.97
514.391	11.13
514.822	11.32
515.253	11.49
515.684	11.66
516.114	11.86
516.545	12.07
516.975	12.28
517.406	12.48
517.836	12.68
518.267	12.89
518.697	13.11
519.127	13.35
519.558	13.56
519.988	13.8
520.418	14.04
520.848	14.28
521.278	14.51
521.708	14.68
522.138	14.9
522.567	15.12
522.997	15.34
523.427	15.57
523.857	15.76
524.286	15.99
524.716	16.19
525.145	16.41
525.575	16.6
526.004	16.8
526.433	17.05
526.863	17.28
527.292	17.46
527.721	17.64
528.15	17.81
528.579	18
529.008	18.15
529.437	18.3
529.866	18.42
530.295	18.57
530.724	18.72
531.152	18.84
531.581	18.96
532.01	19.09
532.438	19.2
532.867	19.3
533.295	19.38
533.723	19.48
534.152	19.58
534.58	19.67
535.008	19.72
535.436	19.78
535.865	19.83
536.293	19.9
536.721	19.95
537.149	20
537.576	20.06
538.004	20.13
538.432	20.16
538.86	20.18
539.287	20.24
539.715	20.29
540.143	20.31
540.57	20.36
540.998	20.4
541.425	20.44
541.852	20.46
542.28	20.46
542.707	20.49
543.134	20.52
543.561	20.56
543.988	20.59
544.415	20.63
544.842	20.67
545.269	20.71
545.696	20.74
546.123	20.77
546.549	20.8
546.976	20.84
547.403	20.88
547.829	20.91
548.256	20.95
548.682	20.97
549.108	20.98
549.535	21
549.961	21
550.387	20.99
550.813	20.97
551.24	20.97
551.666	20.98
552.092	20.97
552.518	20.94
552.943	20.91
553.369	20.89
553.795	20.85
554.221	20.8
554.646	20.75
555.072	20.72
555.498	20.69
555.923	20.63
556.349	20.55
556.774	20.47
557.199	20.4
557.625	20.31
558.05	20.22
558.475	20.15
558.9	20.06
559.325	19.98
559.75	19.86
560.175	19.76
560.6	19.65
561.025	19.55
561.449	19.43
561.874	19.31
562.299	19.2
562.723	19.09
563.148	18.97
563.572	18.84
563.997	18.7
564.421	18.57
564.846	18.42
565.27	18.27
565.694	18.13
566.118	17.99
566.542	17.85
566.966	17.7
567.39	17.54
567.814	17.36
568.238	17.2
568.662	17.05
569.086	16.88
569.509	16.73
569.933	16.58
570.357	16.41
570.78	16.25
571.204	16.09
571.627	15.94
572.05	15.79
572.474	15.66
572.897	15.52
573.32	15.38
573.743	15.27
574.166	15.13
574.589	15
575.012	14.9
575.435	14.79
575.858	14.68
576.281	14.59
576.704	14.51
577.126	14.4
577.549	14.32
577.972	14.24
578.394	14.14
578.817	14.07
579.239	14.01
579.661	13.93
580.084	13.86
580.506	13.8
580.928	13.73
581.35	13.65
581.772	13.61
582.194	13.54
582.616	13.49
583.038	13.45
583.46	13.39
583.882	13.33
584.303	13.3
584.725	13.26
585.147	13.19
585.568	13.14
585.99	13.11
586.411	13.07
586.833	13.03
587.254	12.98
587.675	12.94
588.096	12.91
588.518	12.88
588.939	12.83
589.36	12.79
589.781	12.78
590.202	12.74
590.623	12.7
591.043	12.66
591.464	12.63
591.885	12.6
592.305	12.61
592.726	12.59
593.147	12.56
593.567	12.54
593.987	12.52
594.408	12.49
594.828	12.47
595.248	12.45
595.669	12.43
596.089	12.42
596.509	12.38
596.929	12.35
597.349	12.32
597.769	12.29
598.189	12.27
598.608	12.23
599.028	12.2
599.448	12.19
599.867	12.15
600.287	12.12
600.706	12.09
601.126	12.06
601.545	12.01
601.965	11.97
602.384	11.94
602.803	11.9
603.222	11.87
603.641	11.83
604.061	11.77
604.48	11.72
604.898	11.67
605.317	11.61
605.736	11.56
606.155	11.51
606.574	11.45
606.992	11.39
607.411	11.34
607.829	11.24
608.248	11.2
608.666	11.14
609.085	11.09
609.503	11.03
609.921	10.98
610.339	10.93
610.758	10.87
611.176	10.82
611.594	10.78
612.012	10.72
612.43	10.71
612.847	10.67
613.265	10.62
613.683	10.57
614.101	10.53
614.518	10.49
614.936	10.44
615.353	10.4
615.771	10.36
616.188	10.34
616.606	10.29
617.023	10.25
617.44	10.23
617.857	10.19
618.274	10.18
618.691	10.16
619.108	10.13
619.525	10.12
619.942	10.1
620.359	10.09
620.776	10.06
621.192	10.04
621.609	10.03
622.026	10.01
622.442	10
622.859	9.98
623.275	9.98
623.691	9.99
624.108	9.97
624.524	9.95
624.94	9.95
625.356	9.94
625.772	9.95
626.188	9.94
626.604	9.93
627.02	9.92
627.436	9.91
627.852	9.89
628.268	9.87
628.683	9.86
629.099	9.86
629.514	9.85
629.93	9.83
630.345	9.81
630.761	9.81
631.176	9.79
631.591	9.77
632.007	9.77
632.422	9.75
632.837	9.73
633.252	9.72
633.667	9.68
634.082	9.66
634.497	9.62
634.911	9.58
635.326	9.56
635.741	9.52
636.155	9.48
636.57	9.44
636.984	9.4
637.399	9.35
637.813	9.29
638.228	9.25
638.642	9.21
639.056	9.17
639.47	9.13
639.884	9.07
640.298	9.03
640.712	8.98
641.126	8.93
641.54	8.89
641.954	8.87
642.368	8.84
642.781	8.8
643.195	8.75
643.609	8.73
644.022	8.7
644.436	8.66
644.849	8.63
645.262	8.61
645.676	8.58
646.089	8.54
646.502	8.5
646.915	8.47
647.328	8.45
647.741	8.42
648.154	8.4
648.567	8.38
648.98	8.36
649.393	8.35
649.805	8.32
650.218	8.3
650.631	8.28
651.043	8.26
651.456	8.25
651.868	8.23
652.28	8.22
652.693	8.2
653.105	8.18
653.517	8.16
653.929	8.14
654.341	8.13
654.753	8.11
655.165	8.1
655.577	8.08
655.989	8.05
656.401	8.03
656.813	8.01
657.224	8
657.636	7.99
658.047	7.97
658.459	7.93
658.87	7.91
659.282	7.9
659.693	7.86
660.104	7.84
660.515	7.82
660.926	7.81
661.338	7.79
661.749	7.76
662.159	7.75
662.57	7.73
662.981	7.73
663.392	7.71
663.803	7.69
664.213	7.68
664.624	7.69
665.035	7.67
665.445	7.68
665.855	7.68
666.266	7.68
666.676	7.68
667.086	7.67
667.497	7.66
667.907	7.67
668.317	7.68
668.727	7.68
669.137	7.69
669.547	7.71
669.956	7.71
670.366	7.72
670.776	7.73
671.186	7.74
671.595	7.76
672.005	7.77
672.414	7.79
672.824	7.8
673.233	7.82
673.642	7.82
674.052	7.84
674.461	7.86
674.87	7.87
675.279	7.9
675.688	7.92
676.097	7.94
676.506	7.97
676.915	7.99
677.323	8.02
677.732	8.05
678.141	8.08
678.549	8.12
678.958	8.13
679.366	8.15
679.775	8.18
680.183	8.21
680.592	8.24
681	8.27
681.408	8.29
681.816	8.32
682.224	8.36
682.632	8.4
683.04	8.43
683.448	8.47
683.856	8.52
684.264	8.56
684.671	8.61
685.079	8.67
685.487	8.76
685.894	8.85
686.302	8.93
686.709	9.03
687.116	9.15
687.524	9.27
687.931	9.41
688.338	9.59
688.745	9.77
689.152	9.98
689.559	10.21
689.966	10.44
690.373	10.7
690.78	11
691.187	11.31
691.593	11.65
692	12
692.407	12.39
692.813	12.8
693.22	13.24
693.626	13.67
694.032	14.15
694.439	14.68
694.845	15.2
695.251	15.74
695.657	16.3
696.063	16.89
696.469	17.49
696.875	18.1
697.281	18.69
697.687	19.34
698.093	19.99
698.498	20.64
698.904	21.29
699.31	21.95
699.715	22.64
700.12	23.31
700.526	23.99
700.931	24.66
701.337	25.35
701.742	26.04
702.147	26.72
702.552	27.42
702.957	28.08
703.362	28.79
703.767	29.44
704.172	30.1
704.577	30.79
704.981	31.46
705.386	32.15
705.791	32.86
706.195	33.54
706.6	34.21
707.004	34.89
707.408	35.6
707.813	36.25
708.217	36.93
708.621	37.63
709.025	38.29
709.43	38.93
709.834	39.59
710.237	40.21
710.641	40.88
711.045	41.52
711.449	42.16
711.853	42.77
712.256	43.43
712.66	44.06
713.064	44.69
713.467	45.31
713.87	45.96
714.274	46.58
714.677	47.19
715.08	47.78
715.484	48.39
715.887	48.99
716.29	49.6
716.693	50.18
717.096	50.77
717.499	51.32
717.901	51.88
718.304	52.46
718.707	52.99
719.109	53.56
719.512	54.13
719.915	54.65
720.317	55.19
720.719	55.66
721.122	56.15
721.524	56.67
721.926	57.19
722.328	57.68
722.731	58.16
723.133	58.64
723.535	59.11
723.937	59.51
724.338	59.93
724.74	60.32
725.142	60.65
725.544	61.06
725.945	61.42
726.347	61.8
726.748	62.14
727.15	62.46
727.551	62.8
727.952	63.11
728.354	63.48
728.755	63.82
729.156	64.14
729.557	64.53
729.958	64.82
730.359	65.14
730.76	65.36
731.161	65.64
731.562	65.9
731.962	66.14
732.363	66.39
732.763	66.62
733.164	66.84
733.564	67.06
733.965	67.27
734.365	67.47
734.766	67.63
735.166	67.83
735.566	67.97
735.966	68.13
736.366	68.29
736.766	68.42
737.166	68.55
737.566	68.66
737.966	68.8
738.365	68.95
738.765	69.09
739.165	69.16
739.564	69.29
739.964	69.41
740.363	69.56
740.763	69.67
741.162	69.76
741.561	69.89
741.96	70.04
742.36	70.16
742.759	70.23
743.158	70.29
743.557	70.43
743.955	70.55
744.354	70.68
744.753	70.76
745.152	70.87
745.55	70.99
745.949	71.07
746.348	71.15
746.746	71.23
747.144	71.37
747.543	71.48
747.941	71.63
748.339	71.74
748.737	71.83
749.136	71.95
749.534	72.06
749.932	72.1
750.33	72.16
750.727	72.2
751.125	72.25
751.523	72.26
751.921	72.32
752.318	72.31
752.716	72.29
753.113	72.31
753.511	72.25
753.908	72.2
754.305	72.22
754.703	72.2
755.1	72.22
755.497	72.18
755.894	72.15
756.291	72.11
756.688	72.1
757.085	72.1
757.482	72.09
757.878	72.11
758.275	72.09
758.672	72.09
759.068	72.11
759.465	72.08
759.861	72.11
760.258	72.07
760.654	72.07
761.05	72.07
761.447	72.07
761.843	72.03
762.239	72.01
762.635	72.04
763.031	72.04
763.427	72.04
763.822	72.04
764.218	72.04
764.614	72.06
765.01	72.05
765.405	72.03
765.801	72.02
766.196	72.05
766.592	72.1
766.987	72.12
767.382	72.14
767.778	72.15
768.173	72.2
768.568	72.19
768.963	72.2
769.358	72.22
769.753	72.27
770.148	72.24
770.542	72.22
770.937	72.19
771.332	72.16
771.726	72.16
772.121	72.14
772.515	72.14
772.91	72.16
773.304	72.21
773.699	72.2
774.093	72.18
774.487	72.25
774.881	72.32
775.275	72.35
775.669	72.4
776.063	72.4
776.457	72.36
776.851	72.32
777.245	72.35
777.638	72.32
778.032	72.34
778.425	72.35
778.819	72.35
779.212	72.27
779.606	72.25
779.999	72.22
780.392	72.24
780.786	72.31
781.179	72.35
781.572	72.32
781.965	72.36
782.358	72.34
782.751	72.33
783.143	72.35
783.536	72.44
783.929	72.48
784.322	72.5
784.714	72.51
785.107	72.52
785.499	72.49
785.891	72.53
786.284	72.51
786.676	72.59
787.068	72.62
787.46	72.62
787.852	72.59
788.245	72.62
788.636	72.62
789.028	72.61
789.42	72.59
789.812	72.6
790.204	72.54
790.595	72.55
790.987	72.54
791.378	72.56
791.77	72.55
792.161	72.55
792.553	72.55
792.944	72.57
793.335	72.63
793.726	72.62
794.117	72.62
794.508	72.63
794.899	72.6
795.29	72.6
795.681	72.62
796.072	72.63
796.463	72.6
796.853	72.56
797.244	72.52
797.634	72.48
798.025	72.53
798.415	72.56
798.806	72.63
799.196	72.71
799.586	72.71
799.976	72.73
800.366	72.74
800.756	72.75
801.146	72.77
801.536	72.83
801.926	72.84
802.316	72.84
802.706	72.85
803.095	72.85
803.485	72.84
803.874	72.82
804.264	72.84
804.653	72.82
805.043	72.88
805.432	72.88
805.821	72.87
806.21	72.92
806.599	72.97
806.988	72.97
807.377	73.04
807.766	73.05
808.155	73.08
808.544	73.04
808.933	73.08
809.321	73.11
809.71	73.17
810.098	73.17
810.487	73.16
810.875	73.1
811.264	73.13
811.652	73.11
812.04	73.13
812.428	73.18
812.816	73.22
813.204	73.26
813.592	73.26
813.98	73.28
814.368	73.3
814.756	73.33
815.144	73.41
815.531	73.4
815.919	73.4
816.306	73.39
816.694	73.42
817.081	73.39
817.469	73.41
817.856	73.43
818.243	73.45
818.63	73.5
819.017	73.52
819.404	73.5
819.791	73.51
820.178	73.54
820.565	73.56
820.952	73.54
821.339	73.59
821.725	73.64
822.112	73.68
822.498	73.7
822.885	73.68
823.271	73.69
823.657	73.7
824.044	73.72
824.43	73.73
824.816	73.73
825.202	73.7
825.588	73.71
825.974	73.66
826.36	73.59
826.746	73.57
827.132	73.54
827.517	73.53
827.903	73.57
828.289	73.57
828.674	73.52
829.06	73.53
829.445	73.57
829.83	73.56
830.216	73.59
830.601	73.61
830.986	73.6
831.371	73.64
831.756	73.61
832.141	73.58
832.526	73.58
832.911	73.63
833.295	73.62
833.68	73.62
834.065	73.62
834.449	73.59
834.834	73.56
835.218	73.54
835.603	73.54
835.987	73.5
836.371	73.53
836.755	73.49
837.139	73.46
837.524	73.48
837.908	73.4
838.291	73.4
838.675	73.42
839.059	73.43
839.443	73.43
839.827	73.41
840.21	73.46
840.594	73.41
840.977	73.41
841.361	73.4
841.744	73.4
842.127	73.43
842.511	73.4
842.894	73.37
843.277	73.38
843.66	73.38
844.043	73.41
844.426	73.38
844.809	73.41
845.191	73.43
845.574	73.43
845.957	73.39
846.339	73.41
846.722	73.43
847.104	73.46
847.487	73.46
847.869	73.47
848.252	73.46
848.634	73.5
849.016	73.48
849.398	73.46
849.78	73.47
850.162	73.51
850.544	73.5
850.926	73.5
851.307	73.49
851.689	73.46
852.071	73.47
852.452	73.44
852.834	73.41
853.215	73.42
853.597	73.43
853.978	73.41
854.359	73.41
854.741	73.43
855.122	73.41
855.503	73.4
855.884	73.4
856.265	73.39
856.646	73.43
857.026	73.43
857.407	73.38
857.788	73.43
858.169	73.41
858.549	73.44
858.93	73.45
859.31	73.43
859.69	73.44
860.071	73.43
860.451	73.41
860.831	73.39
861.211	73.37
861.591	73.41
861.971	73.33
862.351	73.38
862.731	73.32
863.111	73.34
863.491	73.35
863.87	73.35
864.25	73.38
864.629	73.38
865.009	73.37
865.388	73.38
865.768	73.39
866.147	73.42
866.526	73.37
866.905	73.37
867.284	73.31
867.663	73.31
868.042	73.32
868.421	73.28
868.8	73.29
869.179	73.3
869.558	73.31
869.936	73.26
870.315	73.22
870.693	73.25
871.072	73.21
871.45	73.21
871.828	73.2
872.207	73.17
872.585	73.16
872.963	73.14
873.341	73.13
873.719	73.11
874.097	73.14
874.475	73.16
874.853	73.17
875.23	73.2
875.608	73.2
875.986	73.2
876.363	73.2
876.741	73.21
877.118	73.23
877.495	73.24
877.873	73.23
878.25	73.19
878.627	73.19
879.004	73.2
879.381	73.17
879.758	73.19
880.135	73.21
880.512	73.22
880.889	73.23
881.265	73.26
881.642	73.27
882.019	73.3
882.395	73.34
882.772	73.33
883.148	73.32
883.524	73.38
883.901	73.36
884.277	73.37
884.653	73.38
885.029	73.38
885.405	73.33
885.781	73.26
886.157	73.22
886.532	73.21
886.908	73.23
887.284	73.24
887.659	73.2
888.035	73.21
888.411	73.18
888.786	73.17
889.161	73.16
889.537	73.17
889.912	73.19
890.287	73.18
890.662	73.16
891.037	73.1
891.412	73.05
891.787	73.04
892.162	73
892.536	72.98
892.911	72.96
893.286	72.9
893.66	72.87
894.035	72.84
894.409	72.83
894.784	72.84
895.158	72.84
895.532	72.81
895.906	72.79
896.281	72.78
896.655	72.76
897.029	72.73
897.402	72.74
897.776	72.74
898.15	72.73
898.524	72.71
898.898	72.61
899.271	72.58
899.645	72.6
900.018	72.57
900.392	72.57
900.765	72.57
901.138	72.56
901.511	72.56
901.884	72.58
902.258	72.54
902.631	72.52
903.003	72.58
903.376	72.59
903.749	72.57
904.122	72.59
904.495	72.61
904.867	72.57
905.24	72.59
905.612	72.56
905.985	72.51
906.357	72.51
906.729	72.49
907.102	72.46
907.474	72.45
907.846	72.39
908.218	72.36
908.59	72.33
908.962	72.36
909.334	72.31
909.705	72.32
910.077	72.36
910.449	72.37
910.82	72.4
911.192	72.45
911.563	72.45
911.935	72.51
912.306	72.51
912.677	72.53
913.048	72.47
913.419	72.5
913.79	72.46
914.161	72.39
914.532	72.41
914.903	72.37
915.274	72.31
915.645	72.34
916.015	72.3
916.386	72.25
916.756	72.19
917.127	72.21
917.497	72.21
917.868	72.21
918.238	72.23
918.608	72.23
918.978	72.18
919.348	72.14
919.718	72.09
920.088	72.07
920.458	72.13
920.828	72.13
921.198	72.14
921.567	72.08
921.937	72.09
922.306	72.08
922.676	72.05
923.045	72.05
923.415	72.05
923.784	72.06
924.153	72
924.522	71.97
924.891	71.95
925.26	71.89
925.629	71.89
925.998	71.83
926.367	71.79
926.736	71.7
927.104	71.67
927.473	71.65
927.842	71.57
928.21	71.63
928.578	71.56
928.947	71.51
929.315	71.49
929.683	71.47
930.051	71.42
930.42	71.37
930.788	71.34
931.156	71.32
931.523	71.29
931.891	71.24
932.259	71.12
932.627	71.05
932.994	71
933.362	70.86
933.729	70.7
934.097	70.58
934.464	70.44
934.831	70.32
935.199	70.24
935.566	70.05
935.933	69.96
936.3	69.78
936.667	69.71
937.034	69.52
937.401	69.53
937.767	69.46
938.134	69.44
938.501	69.46
938.867	69.53
939.234	69.56
939.6	69.66
939.967	69.7
940.333	69.98
940.699	70.07
941.065	70.3
941.431	70.44
941.798	70.62
942.163	70.74
942.529	70.93
942.895	71.03
943.261	71.06
943.627	71.1
943.992	71.16
944.358	71.12
944.723	71.15
945.089	71.22
945.454	71.32
945.82	71.3
946.185	71.41
946.55	71.51
946.915	71.5
947.28	71.56
947.645	71.61
948.01	71.62
948.375	71.73
948.74	71.61
949.104	71.61
949.469	71.42
949.834	71.43
950.198	71.35
950.562	71.21
950.927	71.24
951.291	71.12
951.655	71.05
952.02	71.06
952.384	71.03
952.748	71.15
953.112	71.06
953.476	71.08
953.839	71.06
954.203	71.02
954.567	70.99
954.931	70.87
955.294	70.85
955.658	70.8
956.021	70.73
956.385	70.67
956.748	70.55
957.111	70.42
957.474	70.38
957.837	70.38
958.2	70.29
958.563	70.23
958.926	70.23
959.289	70.28
959.652	70.29
960.015	70.22
960.377	70.15
960.74	70.09
961.102	70.2
961.465	70.23
961.827	70.06
962.189	70.02
962.552	69.94
962.914	69.84
963.276	69.77
963.638	69.7
964	69.62
964.362	69.64
964.724	69.62
965.085	69.52
965.447	69.35
965.809	69.35
966.17	69.34
966.532	69.41
966.893	69.44
967.255	69.33
967.616	69.3
967.977	69.24
968.338	69.05
968.699	69
969.061	68.94
969.421	68.98
969.782	68.96
970.143	68.92
970.504	68.78
970.865	68.66
971.225	68.63
971.586	68.7
971.946	68.74
972.307	68.78
972.667	68.82
973.027	68.84
973.388	68.78
973.748	68.83
974.108	68.79
974.468	68.86
974.828	68.96
975.188	69.05
975.548	69.04
975.907	69.03
976.267	68.99
976.627	68.96
976.986	68.97
977.346	69.02
977.705	68.97
978.064	69.03
978.424	68.98
978.783	68.89
979.142	68.79
979.501	68.59
979.86	68.59
980.219	68.51
980.578	68.51
980.937	68.45
981.296	68.4
981.654	68.44
982.013	68.4
982.371	68.37
982.73	68.39
983.088	68.37
983.447	68.52
983.805	68.48
984.163	68.57
984.521	68.51
984.879	68.55
985.237	68.53
985.595	68.46
985.953	68.43
986.311	68.45
986.669	68.38
987.026	68.41
987.384	68.34
987.741	68.42
988.099	68.34
988.456	68.32
988.814	68.28
989.171	68.16
989.528	68.11
989.885	68.07
990.242	68.1
990.599	68.14
990.956	68.13
991.313	68.14
991.67	68.1
992.027	68.1
992.383	68.15
992.74	68.11
993.096	68.17
993.453	68.16
993.809	68.24
994.165	68.23
994.522	68.16
994.878	68.21
995.234	68.11
995.59	67.99
995.946	68.13
996.302	67.99
996.658	68.08
997.013	68.1
997.369	68.17
997.725	68.15
998.08	68.08
998.436	68.2
998.791	68.03
999.147	68.1
999.502	68.03
999.857	68.02
1000.212	67.84
1000.567	67.83
1000.922	67.91
1001.277	67.89
1001.632	67.95
1001.987	67.85
1002.342	67.74
1002.696	67.93
1003.051	67.85
1003.406	67.99
1003.76	67.78
1004.114	68.1
1004.469	68.05
1004.823	67.88
1005.177	68.09
1005.531	68.06
1005.885	68.15
1006.239	68.14
1006.593	67.85
1006.947	67.73
1007.301	67.61
1007.655	67.69
1008.008	67.6
1008.362	67.53
1008.715	67.56
1009.069	67.18
1009.422	66.97
1009.776	66.86
1010.129	66.89
1010.482	67.13
1010.835	67.46
1011.188	67.43
1011.541	67.26
1011.894	67.29
1012.247	67.25
1012.6	67.34
1012.952	67.39
1013.305	67.3
1013.657	67.38
1014.01	67.55
1014.362	67.46
1014.715	67.33
1015.067	67.5
1015.419	67.69
1015.771	67.82
1016.123	67.86
1016.475	67.82
1016.827	68.05
1017.179	68.13
1017.531	68.06
1017.883	68.08
1018.234	67.98
1018.586	67.88
1018.938	67.52
1019.289	67.52
1019.64	67.74
1019.992	67.65
1020.343	67.5
1020.694	67.12
1021.045	67.31
1021.396	67.3
1021.747	67.02
1022.098	67.24
1022.449	67.24
1022.8	67.51
1023.151	67.53
1023.501	67.04
1023.852	67.33
1024.202	67.22
1024.553	67.13
1024.903	66.75
1025.253	66.78
1025.604	66.59
1025.954	66.01
1026.304	66.48
1026.654	66.54
1027.004	66.47
1027.354	66.74
1027.703	66.45
1028.053	66.64
1028.403	67.02
1028.753	67.51
1029.102	67.51
1029.452	67.73
1029.801	68.23
1030.15	67.91
1030.499	67.89
897.758	289.51
901.051	290.87
904.343	296.45
907.636	289.92
910.928	284.84
914.22	292.1
917.511	284.72
920.803	271.95
924.094	262.79
927.384	263.08
930.675	255.15
933.965	250.56
937.255	255.63
940.544	243.19
943.834	234.16
947.123	231.02
950.411	219.43
953.7	217.31
956.988	213.63
960.276	206.09
963.563	204.96
966.851	197.47
970.138	195.84
973.424	181.93
976.711	181.09
979.997	177.9
983.283	174.55
986.568	168.9
989.853	166.25
993.138	160.18
996.423	159.63
999.708	155.41
1002.992	154.96
1006.275	153.67
1009.559	152.42
1012.842	149.4
1016.125	144.79
1019.408	142.6
1022.69	143.97
1025.972	141.35
1029.254	140.02
1032.536	137.08
1035.817	133.37
1039.098	133.01
1042.379	129.07
1045.659	128.74
1048.939	126.3
1052.219	126.42
1055.498	124.96
1058.778	121.21
1062.057	120.56
1065.335	120.3
1068.614	119.1
1071.892	118.52
1075.17	115.83
1078.447	115.67
1081.724	114.39
1085.001	112.61
1088.278	111.23
1091.554	111.19
1094.83	111.88
1098.106	111.16
1101.382	109.73
1104.657	109.76
1107.932	109.48
1111.206	109
1114.481	107.95
1117.755	106.77
1121.029	107.19
1124.302	106.65
1127.575	106.03
1130.848	104.9
1134.121	103.35
1137.393	103.72
1140.665	102.51
1143.937	101.29
1147.208	101.21
1150.48	100.19
1153.75	100.52
1157.021	98.82
1160.291	98.93
1163.561	97.63
1166.831	98.26
1170.101	98.19
1173.37	96.99
1176.639	96.19
1179.907	96.7
1183.176	95.83
1186.444	95.73
1189.711	94.48
1192.979	95.89
1196.246	95.39
1199.513	95.92
1202.78	95.49
1206.046	95.19
1209.312	96.29
1212.578	96.7
1215.843	97.71
1219.108	98.04
1222.373	99.56
1225.638	101.42
1228.902	102.84
1232.166	104.75
1235.43	104.67
1238.693	105.43
1241.956	107.5
1245.219	110.06
1248.482	110.82
1251.744	109.49
1255.006	110.63
1258.268	107.8
1261.529	107.14
1264.79	105.52
1268.051	104.43
1271.312	104.11
1274.572	103.73
1277.832	101.14
1281.092	99.53
1284.351	98.16
1287.61	98.08
1290.869	97.99
1294.128	97.9
1297.386	98.23
1300.644	97.14
1303.902	95.96
1307.159	96.13
1310.416	95.75
1313.673	97.69
1316.93	97.73
1320.186	99.01
1323.442	99.23
1326.697	99.55
1329.953	99.88
1333.208	100.66
1336.463	104.47
1339.717	106.67
1342.972	107.39
1346.226	110.27
1349.479	110.37
1352.733	113.88
1355.986	114.7
1359.238	117.13
1362.491	116.05
1365.743	119.66
1368.995	121.49
1372.247	118.32
1375.498	116.06
1378.749	120.84
1382	118.94
1385.251	118.39
1388.501	116.49
1391.751	116.18
1395	114.95
1398.25	116.53
1401.499	115.34
1404.748	113.22
1407.996	110.91
1411.244	112.23
1414.492	108.87
1417.74	105.53
1420.987	104.32
1424.234	103.07
1427.481	98.5
1430.728	96.64
1433.974	93.74
1437.22	90.98
1440.465	86.73
1443.711	85.35
1446.956	83
1450.201	80.35
1453.445	76.95
1456.689	73.9
1459.933	72.64
1463.177	70.55
1466.42	69.23
1469.663	67.58
1472.906	65.69
1476.148	64.46
1479.391	64.21
1482.633	63.45
1485.874	63.02
1489.115	63.1
1492.356	62.87
1495.597	61.71
1498.838	62.11
1502.078	61.65
1505.318	61.75
1508.557	61.04
1511.797	62.07
1515.036	61.28
1518.274	61.18
1521.513	61.76
1524.751	61.09
1527.989	61.53
1531.227	61.6
1534.464	62.35
1537.701	62.66
1540.938	62.06
1544.174	63.04
1547.41	63.33
1550.646	63.65
1553.882	63.59
1557.117	64.01
1560.352	64.62
1563.587	64.15
1566.821	64.33
1570.055	64.05
1573.289	64.25
1576.523	64.67
1579.756	64.74
1582.989	64.42
1586.222	64.86
1589.454	65
1592.686	64.67
1595.918	64.39
1599.15	64.68
1602.381	65.32
1605.612	65.51
1608.843	65.46
1612.073	65.84
1615.303	65.99
1618.533	66.27
1621.762	65.87
1624.992	66.23
1628.221	65.88
1631.449	66.43
1634.678	66.63
1637.906	66.36
1641.134	66.4
1644.361	66.4
1647.588	66.54
1650.815	66.51
1654.042	66.94
1657.269	67.14
1660.495	67.46
1663.72	67.81
1666.946	67.71
1670.171	67.97
1673.396	68.79
1676.621	68.52
1679.845	68.9
1683.069	68.48
1686.293	68.59
1689.517	68.22
1692.74	68.44
1695.963	68.1
1699.185	68.02
1702.408	68.16
1705.63	68.12
1708.852	67.46
1712.073	67.87
1715.294	67.59
1718.515	68.28
1721.736	67.96
1724.956	68.19
1728.176	67.82
1731.396	68.16
1734.616	67.98
1737.835	68.04
1741.054	67.72
1744.272	67.68
1747.491	67.18
1750.709	67.49
1753.927	67.07
1757.144	67.4
1760.361	67.29
1763.578	67.24
1766.795	67.56
1770.011	67.49
1773.227	67.36
1776.443	68.09
1779.658	67.6
1782.874	68.89
1786.089	68.22
1789.303	68.22
1792.518	69.02
1795.732	69.11
1798.945	70.01
1802.159	69.37
1805.372	70.17
1808.585	70.83
1811.797	69.99
1815.01	71.95
1818.222	71.38
1821.434	72.5
1824.645	72.21
1827.856	72.16
1831.067	72.24
1834.278	72.68
1837.488	73.1
1840.698	73.51
1843.908	73.55
1847.117	74.74
1850.326	73.46
1853.535	73.09
1856.744	73.32
1859.952	74.53
1863.16	73.83
1866.368	72.62
1869.575	72.67
1872.782	72.16
1875.989	69.8
1879.196	69.24
1882.402	67.92
1885.608	68
1888.814	67.24
1892.019	66.65
1895.224	64.66
1898.429	64.02
1901.634	63.99
1904.838	62.7
1908.042	62.22
1911.246	62.97
1914.449	63.07
1917.652	60.81
1920.855	60.66
1924.058	59.88
1927.26	58.15
1930.462	59.29
1933.664	58.79
1936.865	59.45
1940.066	58.11
1943.267	58.54
1946.467	58.64
1949.668	57.46
1952.868	59.3
1956.067	58.56
1959.267	61.2
1962.466	61.32
1965.665	61.51
1968.863	62.47
1972.061	63.69
1975.259	66.08
1978.457	65.67
1981.654	66.65
1984.852	67.96
1988.048	69.2
1991.245	71.18
1994.441	71.26
1997.637	72.91
2000.833	75.29
2004.028	74.7
2007.223	76.16
2010.418	77.14
2013.613	81.11
2016.807	82.81
2020.001	83.92
2023.194	87.46
2026.388	89.09
2029.581	94.16
2032.774	96.58
2035.966	97.96
2039.158	102.61
2042.35	102.47
2045.542	104.71
2048.733	110.02
2051.924	109.45
2055.115	113.04
2058.306	112.83
2061.496	112.66
2064.686	112.26
2067.875	112.67
2071.065	113.7
2074.254	113.21
2077.442	117.2
2080.631	117.67
2083.819	116.54
2087.007	120.95
2090.195	122.85
2093.382	120.73
2096.569	122.42
2099.756	125.3
2102.942	127
2106.128	129.29
2109.314	133.21
2112.5	133.95
2115.685	131.38
2118.87	130.96
2122.055	132.43
2125.239	133.63
2128.424	137.91
2131.608	137.31
2134.791	136.31
2137.974	136.49
2141.157	137.29
2144.34	135.58
2147.523	139.42
2150.705	145.69
2153.887	144.1
2157.068	143.99
2160.25	146.09
2163.431	148.59
2166.611	151.01
2169.792	152.76
2172.972	157.62
2176.152	158.66
2179.331	161.49
2182.511	161.06
2185.69	161.76
2188.868	165.88
2192.047	171.52
2195.225	173.14
2198.403	171.66
2201.58	168.61
2204.758	175.92
2207.935	173.8
2211.111	176.55
2214.288	178.39
2217.464	179.01
2220.64	183.97
2223.815	185.02
2226.991	180.84
2230.166	183.26
2233.34	187.92
2236.515	192.02
2239.689	187.53
2242.863	190.91
2246.036	190.14
2249.209	193.11
2252.382	192.47
2255.555	192.67
2258.727	196.42
2261.9	203.16
2265.071	203.38
2268.243	200.82
2271.414	211.89
2274.585	214.56
2277.756	213.23
2280.926	222.66
2284.096	224.84
2287.266	224.93
2290.436	225.41
2293.605	230
2296.774	235.92
2299.942	239.23
2303.111	250.79
2306.279	251.63
2309.447	250.15
2312.614	253.52
2315.781	253.58
2318.948	258.18
2322.115	266.61
2325.281	277.61
2328.447	273.8
2331.613	274.12
2334.779	275.34
2337.944	270.93
2341.109	274.33
2344.274	278.89
2347.438	289.04
2350.602	292.9
2353.766	306.15
2356.929	307.49
2360.092	319.05
2363.255	322.33
2366.418	325.88
2369.58	330.13
2372.742	339.26
2375.904	338.77
2379.066	351.78
2382.227	362.83
2385.388	362.09
2388.548	348.25
2391.709	346.71
2394.869	343.08
2398.029	349.24
2401.188	349.39
2404.347	356.7
2407.506	366.22
2410.665	354.81
2413.823	358.83
2416.981	358.82
2420.139	346.62
2423.296	373.99
2426.453	391.03
2429.61	372.8
2432.767	391.28
2435.923	409.07
2439.079	400.27
2442.235	410.75
2445.391	420.1
2448.546	414.11
2451.701	436.83
2454.855	461.41
2458.009	411.12
2461.163	417.5
2464.317	427.93
2467.471	418.16
2470.624	430.36
2473.777	419.61
2476.929	405.56
2480.082	423.49
2483.234	445.17
2486.385	455.84
2489.537	467.51
2492.688	509.48
2495.839	506.84
2498.989	524.55
2502.14	527.85
2505.29	501.85
2508.439	546.16
2511.589	558.42
2514.738	562.9
2517.887	550.91
2521.035	512.98
2524.183	505
2527.331	499.84
2530.479	485.28
2533.627	489.82
