Data from C_2_hir_wi_4n_078_Splice17_14.txt Node
Date: Sat Feb 29 14:20:14 EST 2020
User: sa697716
Spectrometer: FLMS03696
Trigger mode: 0
Integration Time (sec): 3.180400E-1
Scans to average: 20
Electric dark correction enabled: true
Nonlinearity correction enabled: true
Boxcar width: 5
XAxis mode: Wavelengths
Number of Pixels in Spectrum: 2048
>>>>>Begin Spectral Data<<<<<
187.83	64.3
188.298	56.01
188.766	57.43
189.233	58.99
189.701	67.06
190.169	80.47
190.636	75.95
191.104	72.69
191.571	191.95
192.039	299.42
192.506	-253.22
192.974	7008.91
193.441	-557.19
193.908	100.26
194.375	96.61
194.842	178.13
195.31	139.64
195.777	78.37
196.244	39.27
196.711	47.8
197.177	44.81
197.644	44.43
198.111	42.56
198.578	42.52
199.045	43.43
199.511	44.08
199.978	45.13
200.445	45.24
200.911	45.74
201.378	46.11
201.844	46.45
202.31	47.17
202.777	47.75
203.243	48.44
203.709	48.84
204.176	48.46
204.642	48.65
205.108	47.86
205.574	48.23
206.04	48.35
206.506	48.42
206.972	48.09
207.438	47.65
207.903	47.16
208.369	46.19
208.835	45.67
209.301	45.35
209.766	44.63
210.232	44.03
210.697	43.24
211.163	42.76
211.628	41.46
212.094	40.73
212.559	39.93
213.024	39.26
213.49	38.66
213.955	38.04
214.42	37.35
214.885	36.46
215.35	35.68
215.815	34.01
216.28	32.3
216.745	30.75
217.21	28.73
217.675	27.03
218.14	25.28
218.604	23.81
219.069	22.57
219.534	21.4
219.998	20.42
220.463	19.56
220.927	18.92
221.392	18.31
221.856	17.77
222.32	17.35
222.785	16.87
223.249	16.49
223.713	16.16
224.177	15.84
224.642	15.58
225.106	15.33
225.57	15.09
226.034	14.84
226.497	14.58
226.961	14.35
227.425	14.1
227.889	13.94
228.353	13.75
228.816	13.58
229.28	13.36
229.744	13.19
230.207	13.03
230.671	12.85
231.134	12.67
231.597	12.53
232.061	12.38
232.524	12.25
232.987	12.09
233.45	11.94
233.914	11.8
234.377	11.7
234.84	11.54
235.303	11.4
235.766	11.29
236.229	11.19
236.691	11.08
237.154	10.99
237.617	10.89
238.08	10.79
238.542	10.69
239.005	10.6
239.468	10.48
239.93	10.41
240.393	10.33
240.855	10.22
241.317	10.14
241.78	10.06
242.242	9.96
242.704	9.87
243.166	9.8
243.629	9.71
244.091	9.63
244.553	9.55
245.015	9.48
245.477	9.4
245.939	9.34
246.4	9.24
246.862	9.16
247.324	9.09
247.786	9.03
248.247	8.96
248.709	8.89
249.17	8.81
249.632	8.73
250.093	8.65
250.555	8.57
251.016	8.51
251.477	8.46
251.939	8.41
252.4	8.35
252.861	8.28
253.322	8.23
253.783	8.2
254.244	8.15
254.705	8.11
255.166	8.07
255.627	8.04
256.088	7.99
256.549	7.95
257.009	7.89
257.47	7.85
257.931	7.8
258.391	7.75
258.852	7.69
259.312	7.64
259.773	7.59
260.233	7.52
260.694	7.47
261.154	7.42
261.614	7.37
262.074	7.33
262.534	7.28
262.994	7.24
263.455	7.2
263.915	7.15
264.374	7.1
264.834	7.07
265.294	7.04
265.754	7
266.214	6.97
266.673	6.94
267.133	6.9
267.593	6.86
268.052	6.82
268.512	6.79
268.971	6.76
269.431	6.74
269.89	6.72
270.349	6.69
270.809	6.67
271.268	6.64
271.727	6.62
272.186	6.6
272.645	6.58
273.104	6.56
273.563	6.54
274.022	6.52
274.481	6.5
274.94	6.47
275.399	6.45
275.857	6.42
276.316	6.39
276.775	6.37
277.233	6.34
277.692	6.32
278.15	6.29
278.609	6.26
279.067	6.23
279.525	6.2
279.984	6.19
280.442	6.17
280.9	6.15
281.358	6.13
281.816	6.11
282.274	6.1
282.732	6.08
283.19	6.08
283.648	6.07
284.106	6.06
284.564	6.07
285.021	6.05
285.479	6.04
285.937	6.04
286.394	6.03
286.852	6.03
287.309	6.02
287.767	6.01
288.224	6
288.682	5.99
289.139	5.98
289.596	5.94
290.053	5.92
290.511	5.89
290.968	5.87
291.425	5.84
291.882	5.82
292.339	5.79
292.796	5.76
293.252	5.73
293.709	5.7
294.166	5.68
294.623	5.67
295.079	5.65
295.536	5.64
295.992	5.61
296.449	5.6
296.905	5.57
297.362	5.56
297.818	5.55
298.274	5.54
298.731	5.52
299.187	5.51
299.643	5.48
300.099	5.48
300.555	5.46
301.011	5.45
301.467	5.43
301.923	5.42
302.379	5.42
302.835	5.4
303.291	5.39
303.746	5.38
304.202	5.37
304.658	5.36
305.113	5.35
305.569	5.35
306.024	5.34
306.479	5.33
306.935	5.32
307.39	5.3
307.845	5.3
308.301	5.3
308.756	5.3
309.211	5.29
309.666	5.29
310.121	5.29
310.576	5.28
311.031	5.28
311.486	5.28
311.94	5.27
312.395	5.29
312.85	5.28
313.305	5.28
313.759	5.28
314.214	5.27
314.668	5.27
315.123	5.27
315.577	5.26
316.032	5.26
316.486	5.25
316.94	5.25
317.394	5.23
317.849	5.23
318.303	5.21
318.757	5.19
319.211	5.18
319.665	5.17
320.119	5.15
320.572	5.14
321.026	5.12
321.48	5.11
321.934	5.1
322.387	5.09
322.841	5.08
323.295	5.07
323.748	5.05
324.202	5.05
324.655	5.03
325.108	5.01
325.562	4.99
326.015	4.98
326.468	4.96
326.921	4.94
327.374	4.93
327.827	4.92
328.28	4.9
328.733	4.9
329.186	4.89
329.639	4.89
330.092	4.88
330.545	4.88
330.997	4.87
331.45	4.87
331.903	4.86
332.355	4.86
332.808	4.87
333.26	4.87
333.713	4.87
334.165	4.87
334.617	4.88
335.069	4.88
335.522	4.89
335.974	4.9
336.426	4.92
336.878	4.92
337.33	4.93
337.782	4.93
338.234	4.92
338.686	4.92
339.137	4.93
339.589	4.92
340.041	4.92
340.493	4.91
340.944	4.9
341.396	4.88
341.847	4.86
342.299	4.84
342.75	4.82
343.201	4.8
343.653	4.79
344.104	4.77
344.555	4.76
345.006	4.74
345.457	4.72
345.908	4.71
346.359	4.7
346.81	4.7
347.261	4.69
347.712	4.69
348.163	4.68
348.613	4.67
349.064	4.65
349.515	4.64
349.965	4.63
350.416	4.63
350.866	4.63
351.317	4.62
351.767	4.61
352.217	4.62
352.668	4.61
353.118	4.62
353.568	4.61
354.018	4.62
354.468	4.62
354.918	4.63
355.368	4.64
355.818	4.64
356.268	4.64
356.718	4.64
357.168	4.64
357.617	4.65
358.067	4.65
358.517	4.65
358.966	4.66
359.416	4.67
359.865	4.67
360.315	4.67
360.764	4.67
361.213	4.68
361.663	4.69
362.112	4.71
362.561	4.7
363.01	4.71
363.459	4.72
363.908	4.72
364.357	4.71
364.806	4.71
365.255	4.73
365.703	4.73
366.152	4.73
366.601	4.74
367.05	4.75
367.498	4.78
367.947	4.78
368.395	4.8
368.844	4.81
369.292	4.83
369.74	4.85
370.189	4.86
370.637	4.89
371.085	4.9
371.533	4.91
371.981	4.91
372.429	4.91
372.877	4.93
373.325	4.94
373.773	4.95
374.221	4.96
374.669	4.98
375.116	4.98
375.564	4.99
376.012	5.02
376.459	5.03
376.907	5.06
377.354	5.08
377.801	5.1
378.249	5.12
378.696	5.16
379.143	5.18
379.591	5.21
380.038	5.24
380.485	5.27
380.932	5.3
381.379	5.32
381.826	5.35
382.273	5.39
382.72	5.42
383.166	5.45
383.613	5.47
384.06	5.5
384.506	5.52
384.953	5.55
385.4	5.58
385.846	5.59
386.292	5.63
386.739	5.65
387.185	5.69
387.631	5.72
388.078	5.76
388.524	5.78
388.97	5.81
389.416	5.83
389.862	5.86
390.308	5.89
390.754	5.93
391.2	5.97
391.645	6.02
392.091	6.04
392.537	6.07
392.983	6.12
393.428	6.17
393.874	6.22
394.319	6.26
394.765	6.29
395.21	6.31
395.655	6.34
396.101	6.37
396.546	6.4
396.991	6.42
397.436	6.42
397.881	6.44
398.326	6.47
398.771	6.5
399.216	6.55
399.661	6.59
400.106	6.63
400.551	6.65
400.995	6.66
401.44	6.66
401.885	6.68
402.329	6.7
402.774	6.69
403.218	6.71
403.663	6.7
404.107	6.71
404.551	6.71
404.995	6.72
405.44	6.73
405.884	6.74
406.328	6.76
406.772	6.78
407.216	6.82
407.66	6.84
408.104	6.85
408.547	6.87
408.991	6.86
409.435	6.86
409.879	6.88
410.322	6.91
410.766	6.91
411.209	6.94
411.653	6.94
412.096	6.93
412.54	6.94
412.983	6.93
413.426	6.95
413.869	6.98
414.312	7.02
414.756	7.04
415.199	7.05
415.642	7.07
416.085	7.09
416.527	7.12
416.97	7.16
417.413	7.18
417.856	7.18
418.298	7.17
418.741	7.18
419.184	7.17
419.626	7.17
420.069	7.16
420.511	7.16
420.953	7.16
421.396	7.16
421.838	7.17
422.28	7.19
422.722	7.21
423.164	7.21
423.606	7.21
424.048	7.21
424.49	7.22
424.932	7.24
425.374	7.24
425.816	7.23
426.258	7.2
426.699	7.15
427.141	7.11
427.582	7.09
428.024	7.08
428.465	7.08
428.907	7.1
429.348	7.09
429.789	7.08
430.231	7.06
430.672	7.06
431.113	7.1
431.554	7.12
431.995	7.15
432.436	7.17
432.877	7.17
433.318	7.18
433.759	7.17
434.2	7.19
434.64	7.21
435.081	7.22
435.522	7.25
435.962	7.26
436.403	7.3
436.843	7.32
437.284	7.35
437.724	7.4
438.164	7.42
438.604	7.46
439.045	7.47
439.485	7.49
439.925	7.52
440.365	7.53
440.805	7.55
441.245	7.55
441.685	7.56
442.125	7.58
442.564	7.59
443.004	7.62
443.444	7.65
443.883	7.66
444.323	7.69
444.762	7.74
445.202	7.79
445.641	7.82
446.081	7.89
446.52	7.92
446.959	7.96
447.398	8.01
447.837	8.07
448.276	8.09
448.716	8.16
449.154	8.2
449.593	8.26
450.032	8.29
450.471	8.31
450.91	8.34
451.349	8.37
451.787	8.4
452.226	8.4
452.664	8.39
453.103	8.39
453.541	8.39
453.98	8.39
454.418	8.37
454.856	8.35
455.295	8.36
455.733	8.34
456.171	8.33
456.609	8.31
457.047	8.29
457.485	8.29
457.923	8.28
458.361	8.27
458.798	8.27
459.236	8.27
459.674	8.27
460.111	8.27
460.549	8.24
460.987	8.24
461.424	8.24
461.862	8.24
462.299	8.24
462.736	8.24
463.173	8.23
463.611	8.21
464.048	8.21
464.485	8.2
464.922	8.18
465.359	8.22
465.796	8.19
466.233	8.2
466.67	8.19
467.106	8.17
467.543	8.18
467.98	8.19
468.416	8.2
468.853	8.19
469.29	8.22
469.726	8.23
470.162	8.19
470.599	8.22
471.035	8.23
471.471	8.25
471.907	8.29
472.344	8.29
472.78	8.29
473.216	8.29
473.652	8.31
474.088	8.3
474.523	8.3
474.959	8.32
475.395	8.33
475.831	8.34
476.266	8.33
476.702	8.33
477.138	8.33
477.573	8.32
478.008	8.33
478.444	8.32
478.879	8.32
479.314	8.31
479.75	8.32
480.185	8.32
480.62	8.33
481.055	8.32
481.49	8.31
481.925	8.3
482.36	8.3
482.795	8.29
483.229	8.29
483.664	8.3
484.099	8.32
484.534	8.32
484.968	8.32
485.403	8.31
485.837	8.33
486.271	8.34
486.706	8.36
487.14	8.38
487.574	8.42
488.009	8.45
488.443	8.47
488.877	8.5
489.311	8.53
489.745	8.58
490.179	8.62
490.613	8.66
491.046	8.72
491.48	8.78
491.914	8.84
492.348	8.91
492.781	8.97
493.215	9.05
493.648	9.14
494.082	9.23
494.515	9.31
494.948	9.41
495.382	9.51
495.815	9.63
496.248	9.74
496.681	9.86
497.114	9.97
497.547	10.09
497.98	10.22
498.413	10.35
498.846	10.5
499.279	10.67
499.711	10.83
500.144	11
500.577	11.16
501.009	11.33
501.442	11.52
501.874	11.73
502.306	11.93
502.739	12.16
503.171	12.38
503.603	12.62
504.036	12.86
504.468	13.11
504.9	13.38
505.332	13.65
505.764	13.94
506.196	14.23
506.627	14.53
507.059	14.85
507.491	15.15
507.923	15.49
508.354	15.83
508.786	16.18
509.217	16.51
509.649	16.88
510.08	17.27
510.512	17.65
510.943	18.04
511.374	18.44
511.805	18.84
512.237	19.27
512.668	19.67
513.099	20.1
513.53	20.54
513.961	20.99
514.391	21.42
514.822	21.85
515.253	22.29
515.684	22.73
516.114	23.19
516.545	23.63
516.975	24.08
517.406	24.54
517.836	24.98
518.267	25.41
518.697	25.85
519.127	26.3
519.558	26.73
519.988	27.17
520.418	27.6
520.848	28.03
521.278	28.45
521.708	28.81
522.138	29.19
522.567	29.58
522.997	29.95
523.427	30.34
523.857	30.69
524.286	31.06
524.716	31.4
525.145	31.73
525.575	32.03
526.004	32.34
526.433	32.68
526.863	32.96
527.292	33.26
527.721	33.56
528.15	33.81
528.579	34.1
529.008	34.32
529.437	34.56
529.866	34.78
530.295	34.99
530.724	35.21
531.152	35.42
531.581	35.6
532.01	35.76
532.438	35.91
532.867	36.07
533.295	36.18
533.723	36.35
534.152	36.46
534.58	36.57
535.008	36.68
535.436	36.77
535.865	36.84
536.293	36.96
536.721	37.04
537.149	37.11
537.576	37.16
538.004	37.22
538.432	37.26
538.86	37.32
539.287	37.41
539.715	37.46
540.143	37.51
540.57	37.55
540.998	37.59
541.425	37.64
541.852	37.68
542.28	37.75
542.707	37.81
543.134	37.85
543.561	37.88
543.988	37.9
544.415	37.96
544.842	38.01
545.269	38.06
545.696	38.09
546.123	38.13
546.549	38.17
546.976	38.22
547.403	38.23
547.829	38.27
548.256	38.31
548.682	38.32
549.108	38.35
549.535	38.36
549.961	38.37
550.387	38.38
550.813	38.38
551.24	38.38
551.666	38.38
552.092	38.36
552.518	38.34
552.943	38.35
553.369	38.35
553.795	38.31
554.221	38.28
554.646	38.24
555.072	38.21
555.498	38.14
555.923	38.09
556.349	38.02
556.774	37.97
557.199	37.9
557.625	37.8
558.05	37.69
558.475	37.59
558.9	37.5
559.325	37.42
559.75	37.29
560.175	37.18
560.6	37.06
561.025	36.93
561.449	36.79
561.874	36.65
562.299	36.51
562.723	36.35
563.148	36.2
563.572	36.04
563.997	35.85
564.421	35.69
564.846	35.49
565.27	35.3
565.694	35.08
566.118	34.88
566.542	34.69
566.966	34.48
567.39	34.26
567.814	34.02
568.238	33.75
568.662	33.52
569.086	33.28
569.509	33.03
569.933	32.78
570.357	32.54
570.78	32.29
571.204	32.02
571.627	31.77
572.05	31.53
572.474	31.32
572.897	31.12
573.32	30.91
573.743	30.69
574.166	30.49
574.589	30.3
575.012	30.13
575.435	29.95
575.858	29.79
576.281	29.64
576.704	29.48
577.126	29.32
577.549	29.19
577.972	29.05
578.394	28.9
578.817	28.78
579.239	28.65
579.661	28.51
580.084	28.39
580.506	28.26
580.928	28.13
581.35	28.02
581.772	27.91
582.194	27.77
582.616	27.66
583.038	27.58
583.46	27.48
583.882	27.38
584.303	27.28
584.725	27.2
585.147	27.08
585.568	27
585.99	26.92
586.411	26.82
586.833	26.74
587.254	26.65
587.675	26.56
588.096	26.51
588.518	26.44
588.939	26.39
589.36	26.29
589.781	26.25
590.202	26.17
590.623	26.11
591.043	26.08
591.464	26.03
591.885	25.98
592.305	25.92
592.726	25.85
593.147	25.79
593.567	25.73
593.987	25.72
594.408	25.67
594.828	25.64
595.248	25.59
595.669	25.54
596.089	25.49
596.509	25.43
596.929	25.37
597.349	25.32
597.769	25.26
598.189	25.22
598.608	25.15
599.028	25.07
599.448	25.01
599.867	24.93
600.287	24.85
600.706	24.77
601.126	24.72
601.545	24.65
601.965	24.56
602.384	24.48
602.803	24.37
603.222	24.27
603.641	24.17
604.061	24.07
604.48	23.99
604.898	23.89
605.317	23.78
605.736	23.65
606.155	23.52
606.574	23.39
606.992	23.26
607.411	23.16
607.829	23
608.248	22.88
608.666	22.76
609.085	22.62
609.503	22.49
609.921	22.36
610.339	22.26
610.758	22.14
611.176	22.03
611.594	21.91
612.012	21.78
612.43	21.7
612.847	21.58
613.265	21.48
613.683	21.36
614.101	21.24
614.518	21.13
614.936	21.02
615.353	20.91
615.771	20.81
616.188	20.73
616.606	20.62
617.023	20.52
617.44	20.42
617.857	20.31
618.274	20.23
618.691	20.16
619.108	20.07
619.525	20
619.942	19.93
620.359	19.88
620.776	19.82
621.192	19.78
621.609	19.74
622.026	19.69
622.442	19.66
622.859	19.63
623.275	19.62
623.691	19.59
624.108	19.56
624.524	19.54
624.94	19.5
625.356	19.48
625.772	19.46
626.188	19.45
626.604	19.44
627.02	19.42
627.436	19.41
627.852	19.37
628.268	19.34
628.683	19.32
629.099	19.31
629.514	19.28
629.93	19.25
630.345	19.2
630.761	19.13
631.176	19.08
631.591	19.02
632.007	18.93
632.422	18.87
632.837	18.78
633.252	18.68
633.667	18.57
634.082	18.47
634.497	18.35
634.911	18.23
635.326	18.11
635.741	17.97
636.155	17.85
636.57	17.72
636.984	17.56
637.399	17.4
637.813	17.24
638.228	17.08
638.642	16.9
639.056	16.72
639.47	16.55
639.884	16.36
640.298	16.18
640.712	15.97
641.126	15.76
641.54	15.56
641.954	15.38
642.368	15.2
642.781	15
643.195	14.8
643.609	14.62
644.022	14.43
644.436	14.25
644.849	14.07
645.262	13.9
645.676	13.75
646.089	13.59
646.502	13.43
646.915	13.29
647.328	13.18
647.741	13.08
648.154	12.99
648.567	12.9
648.98	12.81
649.393	12.74
649.805	12.65
650.218	12.58
650.631	12.52
651.043	12.45
651.456	12.38
651.868	12.3
652.28	12.21
652.693	12.11
653.105	12.02
653.517	11.93
653.929	11.85
654.341	11.76
654.753	11.64
655.165	11.53
655.577	11.42
655.989	11.3
656.401	11.16
656.813	11.03
657.224	10.91
657.636	10.78
658.047	10.65
658.459	10.49
658.87	10.35
659.282	10.23
659.693	10.08
660.104	9.94
660.515	9.81
660.926	9.7
661.338	9.58
661.749	9.45
662.159	9.31
662.57	9.19
662.981	9.08
663.392	8.97
663.803	8.85
664.213	8.75
664.624	8.66
665.035	8.55
665.445	8.46
665.855	8.37
666.266	8.29
666.676	8.21
667.086	8.14
667.497	8.09
667.907	8.03
668.317	7.99
668.727	7.95
669.137	7.91
669.547	7.9
669.956	7.88
670.366	7.87
670.776	7.86
671.186	7.87
671.595	7.88
672.005	7.88
672.414	7.89
672.824	7.9
673.233	7.92
673.642	7.94
674.052	7.94
674.461	7.95
674.87	7.98
675.279	8.02
675.688	8.04
676.097	8.07
676.506	8.11
676.915	8.15
677.323	8.21
677.732	8.25
678.141	8.31
678.549	8.39
678.958	8.47
679.366	8.54
679.775	8.64
680.183	8.76
680.592	8.89
681	9.02
681.408	9.16
681.816	9.31
682.224	9.5
682.632	9.71
683.04	9.95
683.448	10.21
683.856	10.51
684.264	10.83
684.671	11.18
685.079	11.56
685.487	11.98
685.894	12.45
686.302	12.95
686.709	13.48
687.116	14.05
687.524	14.65
687.931	15.29
688.338	15.98
688.745	16.69
689.152	17.43
689.559	18.21
689.966	18.99
690.373	19.81
690.78	20.67
691.187	21.54
691.593	22.42
692	23.32
692.407	24.19
692.813	25.1
693.22	26.02
693.626	26.95
694.032	27.86
694.439	28.8
694.845	29.7
695.251	30.6
695.657	31.5
696.063	32.39
696.469	33.27
696.875	34.14
697.281	34.96
697.687	35.78
698.093	36.58
698.498	37.37
698.904	38.16
699.31	38.94
699.715	39.71
700.12	40.43
700.526	41.15
700.931	41.84
701.337	42.58
701.742	43.26
702.147	43.95
702.552	44.62
702.957	45.28
703.362	45.92
703.767	46.52
704.172	47.11
704.577	47.72
704.981	48.3
705.386	48.88
705.791	49.42
706.195	49.96
706.6	50.46
707.004	50.99
707.408	51.47
707.813	51.94
708.217	52.4
708.621	52.86
709.025	53.28
709.43	53.7
709.834	54.16
710.237	54.54
710.641	54.99
711.045	55.38
711.449	55.75
711.853	56.12
712.256	56.52
712.66	56.94
713.064	57.29
713.467	57.66
713.87	58.03
714.274	58.36
714.677	58.73
715.08	59.03
715.484	59.35
715.887	59.69
716.29	60.06
716.693	60.34
717.096	60.62
717.499	60.95
717.901	61.22
718.304	61.5
718.707	61.75
719.109	62.02
719.512	62.33
719.915	62.6
720.317	62.85
720.719	63.05
721.122	63.31
721.524	63.55
721.926	63.78
722.328	64.02
722.731	64.23
723.133	64.46
723.535	64.68
723.937	64.86
724.338	65.06
724.74	65.21
725.142	65.28
725.544	65.47
725.945	65.62
726.347	65.77
726.748	65.91
727.15	66.06
727.551	66.18
727.952	66.31
728.354	66.43
728.755	66.55
729.156	66.67
729.557	66.9
729.958	67.02
730.359	67.16
730.76	67.22
731.161	67.34
731.562	67.46
731.962	67.57
732.363	67.67
732.763	67.78
733.164	67.85
733.564	67.94
733.965	68
734.365	68.01
734.766	68.06
735.166	68.11
735.566	68.12
735.966	68.14
736.366	68.17
736.766	68.21
737.166	68.21
737.566	68.24
737.966	68.29
738.365	68.34
738.765	68.4
739.165	68.41
739.564	68.47
739.964	68.5
740.363	68.53
740.763	68.52
741.162	68.52
741.561	68.56
741.96	68.65
742.36	68.66
742.759	68.63
743.158	68.62
743.557	68.68
743.955	68.74
744.354	68.82
744.753	68.9
745.152	68.96
745.55	69.02
745.949	69.08
746.348	69.12
746.746	69.17
747.144	69.29
747.543	69.42
747.941	69.46
748.339	69.55
748.737	69.62
749.136	69.65
749.534	69.69
749.932	69.72
750.33	69.73
750.727	69.74
751.125	69.76
751.523	69.74
751.921	69.7
752.318	69.71
752.716	69.66
753.113	69.6
753.511	69.56
753.908	69.51
754.305	69.43
754.703	69.41
755.1	69.35
755.497	69.31
755.894	69.25
756.291	69.24
756.688	69.2
757.085	69.21
757.482	69.19
757.878	69.2
758.275	69.22
758.672	69.26
759.068	69.27
759.465	69.26
759.861	69.27
760.258	69.29
760.654	69.3
761.05	69.26
761.447	69.19
761.843	69.17
762.239	69.12
762.635	69.12
763.031	69.1
763.427	69.06
763.822	69.04
764.218	69.01
764.614	69
765.01	68.93
765.405	68.92
765.801	68.91
766.196	68.91
766.592	68.91
766.987	68.92
767.382	68.94
767.778	68.94
768.173	68.94
768.568	68.92
768.963	68.92
769.358	68.93
769.753	68.95
770.148	68.99
770.542	68.95
770.937	68.95
771.332	68.93
771.726	68.89
772.121	68.86
772.515	68.87
772.91	68.86
773.304	68.85
773.699	68.86
774.093	68.84
774.487	68.83
774.881	68.9
775.275	68.92
775.669	68.93
776.063	68.94
776.457	68.94
776.851	68.93
777.245	68.95
777.638	68.98
778.032	69.01
778.425	69.05
778.819	69.04
779.212	69
779.606	68.96
779.999	68.95
780.392	68.99
780.786	69.01
781.179	69.05
781.572	69.05
781.965	69.04
782.358	68.96
782.751	68.95
783.143	68.97
783.536	69.03
783.929	69.08
784.322	69.09
784.714	69.07
785.107	69.12
785.499	69.11
785.891	69.11
786.284	69.07
786.676	69.15
787.068	69.17
787.46	69.16
787.852	69.16
788.245	69.14
788.636	69.19
789.028	69.2
789.42	69.18
789.812	69.17
790.204	69.14
790.595	69.18
790.987	69.18
791.378	69.19
791.77	69.25
792.161	69.24
792.553	69.28
792.944	69.23
793.335	69.23
793.726	69.22
794.117	69.21
794.508	69.26
794.899	69.25
795.29	69.27
795.681	69.29
796.072	69.26
796.463	69.26
796.853	69.24
797.244	69.25
797.634	69.26
798.025	69.26
798.415	69.31
798.806	69.34
799.196	69.36
799.586	69.35
799.976	69.33
800.366	69.37
800.756	69.4
801.146	69.43
801.536	69.44
801.926	69.42
802.316	69.46
802.706	69.5
803.095	69.49
803.485	69.52
803.874	69.55
804.264	69.59
804.653	69.57
805.043	69.54
805.432	69.5
805.821	69.54
806.21	69.6
806.599	69.63
806.988	69.61
807.377	69.63
807.766	69.61
808.155	69.61
808.544	69.59
808.933	69.63
809.321	69.67
809.71	69.73
810.098	69.7
810.487	69.71
810.875	69.68
811.264	69.69
811.652	69.7
812.04	69.75
812.428	69.79
812.816	69.85
813.204	69.84
813.592	69.84
813.98	69.84
814.368	69.86
814.756	69.87
815.144	69.96
815.531	69.94
815.919	69.94
816.306	69.92
816.694	69.93
817.081	69.93
817.469	69.96
817.856	69.99
818.243	70
818.63	70.06
819.017	70.05
819.404	70.01
819.791	70.03
820.178	70.03
820.565	70.05
820.952	70.01
821.339	70.02
821.725	70.04
822.112	70.06
822.498	70.05
822.885	70.05
823.271	70.09
823.657	70.1
824.044	70.1
824.43	70.14
824.816	70.1
825.202	70.12
825.588	70.11
825.974	70.09
826.36	70.08
826.746	70.12
827.132	70.08
827.517	70.09
827.903	70.07
828.289	70.07
828.674	70.06
829.06	70.1
829.445	70.13
829.83	70.12
830.216	70.12
830.601	70.09
830.986	70.1
831.371	70.14
831.756	70.1
832.141	70.12
832.526	70.13
832.911	70.15
833.295	70.14
833.68	70.13
834.065	70.16
834.449	70.11
834.834	70.1
835.218	70.05
835.603	70.01
835.987	70
836.371	70
836.755	69.96
837.139	69.91
837.524	69.93
837.908	69.85
838.291	69.83
838.675	69.84
839.059	69.8
839.443	69.78
839.827	69.77
840.21	69.8
840.594	69.79
840.977	69.75
841.361	69.76
841.744	69.73
842.127	69.76
842.511	69.71
842.894	69.68
843.277	69.73
843.66	69.76
844.043	69.76
844.426	69.7
844.809	69.69
845.191	69.72
845.574	69.69
845.957	69.64
846.339	69.6
846.722	69.66
847.104	69.66
847.487	69.66
847.869	69.65
848.252	69.66
848.634	69.71
849.016	69.72
849.398	69.7
849.78	69.74
850.162	69.78
850.544	69.82
850.926	69.76
851.307	69.78
851.689	69.76
852.071	69.72
852.452	69.71
852.834	69.66
853.215	69.66
853.597	69.68
853.978	69.61
854.359	69.58
854.741	69.58
855.122	69.61
855.503	69.62
855.884	69.63
856.265	69.66
856.646	69.63
857.026	69.64
857.407	69.57
857.788	69.59
858.169	69.64
858.549	69.68
858.93	69.68
859.31	69.67
859.69	69.64
860.071	69.63
860.451	69.63
860.831	69.62
861.211	69.64
861.591	69.7
861.971	69.67
862.351	69.69
862.731	69.66
863.111	69.64
863.491	69.67
863.87	69.67
864.25	69.7
864.629	69.7
865.009	69.71
865.388	69.69
865.768	69.65
866.147	69.66
866.526	69.65
866.905	69.68
867.284	69.71
867.663	69.68
868.042	69.69
868.421	69.68
868.8	69.7
869.179	69.7
869.558	69.72
869.936	69.73
870.315	69.74
870.693	69.71
871.072	69.66
871.45	69.65
871.828	69.63
872.207	69.65
872.585	69.64
872.963	69.6
873.341	69.6
873.719	69.59
874.097	69.6
874.475	69.59
874.853	69.61
875.23	69.65
875.608	69.64
875.986	69.63
876.363	69.62
876.741	69.63
877.118	69.64
877.495	69.61
877.873	69.57
878.25	69.56
878.627	69.57
879.004	69.54
879.381	69.54
879.758	69.54
880.135	69.57
880.512	69.59
880.889	69.61
881.265	69.62
881.642	69.65
882.019	69.69
882.395	69.68
882.772	69.64
883.148	69.64
883.524	69.67
883.901	69.66
884.277	69.65
884.653	69.64
885.029	69.61
885.405	69.58
885.781	69.55
886.157	69.56
886.532	69.58
886.908	69.6
887.284	69.63
887.659	69.6
888.035	69.6
888.411	69.56
888.786	69.56
889.161	69.58
889.537	69.58
889.912	69.57
890.287	69.51
890.662	69.47
891.037	69.38
891.412	69.32
891.787	69.29
892.162	69.25
892.536	69.22
892.911	69.15
893.286	69.08
893.66	69.02
894.035	68.97
894.409	68.95
894.784	68.97
895.158	69
895.532	68.97
895.906	68.93
896.281	68.89
896.655	68.87
897.029	68.84
897.402	68.84
897.776	68.85
898.15	68.87
898.524	68.86
898.898	68.79
899.271	68.75
899.645	68.75
900.018	68.74
900.392	68.78
900.765	68.82
901.138	68.86
901.511	68.88
901.884	68.89
902.258	68.86
902.631	68.88
903.003	68.89
903.376	68.88
903.749	68.86
904.122	68.89
904.495	68.86
904.867	68.87
905.24	68.86
905.612	68.86
905.985	68.81
906.357	68.81
906.729	68.77
907.102	68.78
907.474	68.81
907.846	68.81
908.218	68.8
908.59	68.82
908.962	68.79
909.334	68.8
909.705	68.77
910.077	68.78
910.449	68.79
910.82	68.78
911.192	68.79
911.563	68.78
911.935	68.77
912.306	68.72
912.677	68.72
913.048	68.7
913.419	68.68
913.79	68.66
914.161	68.68
914.532	68.72
914.903	68.72
915.274	68.68
915.645	68.67
916.015	68.7
916.386	68.68
916.756	68.62
917.127	68.6
917.497	68.57
917.868	68.57
918.238	68.54
918.608	68.47
918.978	68.47
919.348	68.47
919.718	68.46
920.088	68.42
920.458	68.5
920.828	68.52
921.198	68.51
921.567	68.46
921.937	68.46
922.306	68.43
922.676	68.42
923.045	68.4
923.415	68.35
923.784	68.33
924.153	68.33
924.522	68.24
924.891	68.22
925.26	68.2
925.629	68.23
925.998	68.17
926.367	68.19
926.736	68.16
927.104	68.14
927.473	68.21
927.842	68.16
928.21	68.16
928.578	68.14
928.947	68.09
929.315	68.09
929.683	68.11
930.051	68.09
930.42	68.04
930.788	68
931.156	67.97
931.523	67.87
931.891	67.83
932.259	67.74
932.627	67.65
932.994	67.55
933.362	67.45
933.729	67.33
934.097	67.24
934.464	67.16
934.831	67.1
935.199	67
935.566	66.88
935.933	66.8
936.3	66.64
936.667	66.58
937.034	66.51
937.401	66.41
937.767	66.34
938.134	66.32
938.501	66.22
938.867	66.2
939.234	66.23
939.6	66.31
939.967	66.39
940.333	66.62
940.699	66.75
941.065	66.93
941.431	67.11
941.798	67.27
942.163	67.36
942.529	67.54
942.895	67.65
943.261	67.73
943.627	67.83
943.992	67.85
944.358	67.91
944.723	67.97
945.089	68.08
945.454	68.12
945.82	68.14
946.185	68.26
946.55	68.43
946.915	68.44
947.28	68.4
947.645	68.42
948.01	68.45
948.375	68.5
948.74	68.45
949.104	68.46
949.469	68.38
949.834	68.29
950.198	68.14
950.562	67.99
950.927	68.01
951.291	67.99
951.655	67.94
952.02	67.88
952.384	67.77
952.748	67.72
953.112	67.6
953.476	67.6
953.839	67.59
954.203	67.57
954.567	67.48
954.931	67.38
955.294	67.34
955.658	67.32
956.021	67.25
956.385	67.25
956.748	67.18
957.111	67.13
957.474	67.12
957.837	67.09
958.2	67.07
958.563	67.06
958.926	67.02
959.289	66.96
959.652	66.93
960.015	66.94
960.377	66.89
960.74	66.84
961.102	66.82
961.465	66.77
961.827	66.59
962.189	66.49
962.552	66.41
962.914	66.41
963.276	66.42
963.638	66.31
964	66.22
964.362	66.19
964.724	66.19
965.085	66.15
965.447	66.05
965.809	66.12
966.17	66.14
966.532	66.19
966.893	66.14
967.255	66.07
967.616	66.11
967.977	66.14
968.338	66.14
968.699	66.05
969.061	66.04
969.421	66.13
969.782	66.15
970.143	66.13
970.504	66.02
970.865	66
971.225	65.96
971.586	66.03
971.946	66.03
972.307	66.04
972.667	66.11
973.027	66.09
973.388	65.97
973.748	65.96
974.108	65.88
974.468	65.92
974.828	65.99
975.188	66.1
975.548	66
975.907	65.99
976.267	65.91
976.627	65.87
976.986	65.92
977.346	65.99
977.705	66.02
978.064	66.11
978.424	66.06
978.783	66.03
979.142	65.88
979.501	65.85
979.86	65.79
980.219	65.75
980.578	65.72
980.937	65.7
981.296	65.68
981.654	65.77
982.013	65.77
982.371	65.74
982.73	65.59
983.088	65.67
983.447	65.7
983.805	65.72
984.163	65.75
984.521	65.57
984.879	65.63
985.237	65.7
985.595	65.6
985.953	65.59
986.311	65.77
986.669	65.94
987.026	66.03
987.384	66.04
987.741	66.12
988.099	66.15
988.456	66.36
988.814	66.38
989.171	66.35
989.528	66.12
989.885	65.97
990.242	65.98
990.599	65.98
990.956	65.91
991.313	65.86
991.67	65.8
992.027	65.7
992.383	65.72
992.74	65.56
993.096	65.43
993.453	65.54
993.809	65.81
994.165	65.63
994.522	65.51
994.878	65.47
995.234	65.48
995.59	65.37
995.946	65.44
996.302	65.39
996.658	65.5
997.013	65.57
997.369	65.58
997.725	65.55
998.08	65.5
998.436	65.51
998.791	65.52
999.147	65.49
999.502	65.61
999.857	65.6
1000.212	65.47
1000.567	65.49
1000.922	65.45
1001.277	65.5
1001.632	65.61
1001.987	65.81
1002.342	65.96
1002.696	65.9
1003.051	65.75
1003.406	65.72
1003.76	65.69
1004.114	65.89
1004.469	65.74
1004.823	65.88
1005.177	66.07
1005.531	65.77
1005.885	65.75
1006.239	65.79
1006.593	65.74
1006.947	65.79
1007.301	65.75
1007.655	65.79
1008.008	65.62
1008.362	65.56
1008.715	65.46
1009.069	65.11
1009.422	65.06
1009.776	64.87
1010.129	64.65
1010.482	64.8
1010.835	64.95
1011.188	65
1011.541	64.79
1011.894	64.85
1012.247	64.91
1012.6	64.86
1012.952	64.96
1013.305	64.97
1013.657	64.9
1014.01	65.09
1014.362	65.15
1014.715	65.06
1015.067	64.99
1015.419	65.23
1015.771	65.58
1016.123	65.69
1016.475	65.9
1016.827	66.08
1017.179	66.22
1017.531	66.49
1017.883	66.71
1018.234	66.43
1018.586	66.52
1018.938	66.43
1019.289	66.34
1019.64	66.07
1019.992	65.9
1020.343	65.52
1020.694	65.12
1021.045	64.82
1021.396	64.5
1021.747	63.95
1022.098	64.14
1022.449	63.84
1022.8	63.9
1023.151	64.01
1023.501	64.27
1023.852	64.48
1024.202	64.78
1024.553	65.05
1024.903	65.43
1025.253	65.62
1025.604	65.7
1025.954	65.5
1026.304	66.26
1026.654	66.57
1027.004	66.54
1027.354	66.35
1027.703	66.23
1028.053	65.99
1028.403	65.92
1028.753	65.88
1029.102	65.7
1029.452	65.65
1029.801	65.48
1030.15	64.94
1030.499	64.62
897.758	215.71
901.051	222.77
904.343	225.6
907.636	221.91
910.928	223.11
914.22	222.87
917.511	215.87
920.803	214.95
924.094	205.08
927.384	206.79
930.675	206.08
933.965	201.58
937.255	198.79
940.544	191.42
943.834	188.43
947.123	182.76
950.411	177.72
953.7	178.05
956.988	170.58
960.276	167.12
963.563	168.22
966.851	161.45
970.138	157.9
973.424	150.76
976.711	151.39
979.997	148.72
983.283	145.45
986.568	142.06
989.853	139.75
993.138	136.81
996.423	138.19
999.708	133.5
1002.992	134.55
1006.275	133.36
1009.559	133.24
1012.842	129.45
1016.125	124.69
1019.408	123.55
1022.69	125.34
1025.972	123.57
1029.254	121.74
1032.536	118.67
1035.817	116.51
1039.098	114.24
1042.379	114.59
1045.659	114.17
1048.939	113.86
1052.219	113.18
1055.498	112.71
1058.778	110.08
1062.057	109.6
1065.335	110.03
1068.614	108.68
1071.892	109.21
1075.17	108.5
1078.447	106.95
1081.724	106.5
1085.001	103.73
1088.278	104.1
1091.554	104.06
1094.83	103.1
1098.106	102.2
1101.382	101.75
1104.657	101.27
1107.932	100.88
1111.206	100.61
1114.481	100.52
1117.755	97.63
1121.029	98.53
1124.302	97.49
1127.575	96.53
1130.848	96.76
1134.121	95.82
1137.393	95.87
1140.665	96.06
1143.937	94.34
1147.208	94.01
1150.48	93
1153.75	94.16
1157.021	93.1
1160.291	92.57
1163.561	92.29
1166.831	92.64
1170.101	92.3
1173.37	91.51
1176.639	90.58
1179.907	90.8
1183.176	89.84
1186.444	89.44
1189.711	89.42
1192.979	89.61
1196.246	90.09
1199.513	89.94
1202.78	89.22
1206.046	89.57
1209.312	89.43
1212.578	89.54
1215.843	90.9
1219.108	90.54
1222.373	91.98
1225.638	92.41
1228.902	93.82
1232.166	95.49
1235.43	95.53
1238.693	96.97
1241.956	98.43
1245.219	100.57
1248.482	101.34
1251.744	100.06
1255.006	101.38
1258.268	98.63
1261.529	98.46
1264.79	97.41
1268.051	96.12
1271.312	96.3
1274.572	94.7
1277.832	93.55
1281.092	92.53
1284.351	91.96
1287.61	91.62
1290.869	91.98
1294.128	92.33
1297.386	92.02
1300.644	91.07
1303.902	89.47
1307.159	89.38
1310.416	89.6
1313.673	90.2
1316.93	89.84
1320.186	90.53
1323.442	91.15
1326.697	90.66
1329.953	89.69
1333.208	90.45
1336.463	93.07
1339.717	95.2
1342.972	94.53
1346.226	96.26
1349.479	95.74
1352.733	98.36
1355.986	98.8
1359.238	99.5
1362.491	99.08
1365.743	102.92
1368.995	103.42
1372.247	98.82
1375.498	97.43
1378.749	99.71
1382	98.84
1385.251	96.8
1388.501	96.27
1391.751	95.1
1395	93.67
1398.25	95.08
1401.499	92.36
1404.748	90.5
1407.996	91.69
1411.244	91.74
1414.492	90.4
1417.74	86.75
1420.987	85.62
1424.234	82.4
1427.481	80.19
1430.728	78.92
1433.974	73.93
1437.22	73.07
1440.465	69.97
1443.711	67.91
1446.956	65.95
1450.201	63.64
1453.445	61.1
1456.689	60.01
1459.933	59.66
1463.177	56.56
1466.42	55.93
1469.663	56.24
1472.906	54.32
1476.148	53.19
1479.391	53.25
1482.633	52.9
1485.874	52.84
1489.115	53.31
1492.356	52.62
1495.597	52.07
1498.838	52.83
1502.078	52.74
1505.318	52.68
1508.557	52.21
1511.797	53.67
1515.036	53.2
1518.274	53.67
1521.513	54.05
1524.751	54.02
1527.989	55.06
1531.227	55.1
1534.464	56.18
1537.701	56.08
1540.938	55.73
1544.174	56.9
1547.41	57.01
1550.646	57.43
1553.882	57.38
1557.117	58.55
1560.352	58.31
1563.587	58.82
1566.821	59.01
1570.055	58.84
1573.289	59.58
1576.523	59.69
1579.756	59.37
1582.989	59.93
1586.222	60.28
1589.454	60.76
1592.686	60.54
1595.918	60.51
1599.15	60.1
1602.381	60.77
1605.612	61.05
1608.843	60.86
1612.073	61.76
1615.303	62.32
1618.533	62.46
1621.762	62.21
1624.992	61.89
1628.221	61.67
1631.449	62.41
1634.678	62.98
1637.906	62.42
1641.134	62.5
1644.361	62.72
1647.588	62.41
1650.815	62.63
1654.042	62.83
1657.269	62.78
1660.495	63.38
1663.72	63.37
1666.946	63.36
1670.171	63.38
1673.396	64.19
1676.621	63.86
1679.845	64.71
1683.069	64
1686.293	63.7
1689.517	63.25
1692.74	63.74
1695.963	63.28
1699.185	63.56
1702.408	63.24
1705.63	63.25
1708.852	63.39
1712.073	62.92
1715.294	62.02
1718.515	63.51
1721.736	63.47
1724.956	63.31
1728.176	62.95
1731.396	63.07
1734.616	63.21
1737.835	63.08
1741.054	62.75
1744.272	62.09
1747.491	62.64
1750.709	62.77
1753.927	62.12
1757.144	62.05
1760.361	61.91
1763.578	61.6
1766.795	62.07
1770.011	61.25
1773.227	61.58
1776.443	61.74
1779.658	61.22
1782.874	62.1
1786.089	60.84
1789.303	60.9
1792.518	61.03
1795.732	61.46
1798.945	62.21
1802.159	61.83
1805.372	62.26
1808.585	62.81
1811.797	62.03
1815.01	62.68
1818.222	61.91
1821.434	62.89
1824.645	62.36
1827.856	62.84
1831.067	62.52
1834.278	62.81
1837.488	63.08
1840.698	62.98
1843.908	62.39
1847.117	63.55
1850.326	63.49
1853.535	63.22
1856.744	62.44
1859.952	63.21
1863.16	62.04
1866.368	60.58
1869.575	59.33
1872.782	57.56
1875.989	55.47
1879.196	54.7
1882.402	52.03
1885.608	51.95
1888.814	50
1892.019	49.3
1895.224	47.37
1898.429	46.64
1901.634	46.07
1904.838	45.37
1908.042	44.77
1911.246	45.24
1914.449	44.7
1917.652	45.82
1920.855	44.97
1924.058	44.59
1927.26	43.48
1930.462	43.98
1933.664	44.31
1936.865	45.31
1940.066	43.89
1943.267	44.3
1946.467	44.42
1949.668	43.93
1952.868	43.58
1956.067	43.65
1959.267	44.74
1962.466	45.51
1965.665	45.92
1968.863	47.03
1972.061	46.86
1975.259	47.95
1978.457	47.87
1981.654	48.51
1984.852	49.67
1988.048	50.16
1991.245	50.66
1994.441	51.29
1997.637	52.61
2000.833	54.22
2004.028	53.36
2007.223	54.17
2010.418	56.22
2013.613	59.92
2016.807	61.36
2020.001	63.66
2023.194	65.17
2026.388	67.87
2029.581	71.49
2032.774	72.68
2035.966	74.39
2039.158	76.84
2042.35	78.03
2045.542	79.83
2048.733	82.22
2051.924	81.48
2055.115	80.64
2058.306	81.39
2061.496	81.45
2064.686	80.92
2067.875	82.4
2071.065	82.61
2074.254	82.51
2077.442	86.37
2080.631	85.92
2083.819	85.66
2087.007	90.8
2090.195	92.6
2093.382	92.33
2096.569	93.31
2099.756	95.48
2102.942	96.49
2106.128	97.92
2109.314	101.58
2112.5	101.06
2115.685	98.19
2118.87	98.71
2122.055	98.18
2125.239	98.37
2128.424	102.06
2131.608	100.24
2134.791	99.36
2137.974	101.77
2141.157	103.06
2144.34	101.58
2147.523	104.33
2150.705	110.15
2153.887	109.17
2157.068	110.44
2160.25	112.9
2163.431	113.45
2166.611	115.82
2169.792	118.37
2172.972	118.2
2176.152	119.71
2179.331	122.24
2182.511	122.05
2185.69	123.57
2188.868	127.66
2192.047	130.64
2195.225	134.12
2198.403	130.4
2201.58	131.14
2204.758	135.57
2207.935	135.89
2211.111	139.14
2214.288	140.59
2217.464	140.64
2220.64	142.49
2223.815	140.9
2226.991	138.5
2230.166	139.61
2233.34	146.04
2236.515	146.52
2239.689	142
2242.863	145.28
2246.036	142.47
2249.209	142.94
2252.382	142.77
2255.555	147.72
2258.727	150.5
2261.9	151.22
2265.071	151.2
2268.243	153.06
2271.414	158.37
2274.585	162.55
2277.756	160
2280.926	169.32
2284.096	171.46
2287.266	172.15
2290.436	168.59
2293.605	173.83
2296.774	182.6
2299.942	185.3
2303.111	188.24
2306.279	194.91
2309.447	194.61
2312.614	197.2
2315.781	191.96
2318.948	191.94
2322.115	198.85
2325.281	203.14
2328.447	201.04
2331.613	203.76
2334.779	203.66
2337.944	204.09
2341.109	206.12
2344.274	209.16
2347.438	215.05
2350.602	224.5
2353.766	235.6
2356.929	233.45
2360.092	242.48
2363.255	239.93
2366.418	240.23
2369.58	245.76
2372.742	253.34
2375.904	250.82
2379.066	258.13
2382.227	266.52
2385.388	257.34
2388.548	251.44
2391.709	250.49
2394.869	253.26
2398.029	257.16
2401.188	255.12
2404.347	259.92
2407.506	265.32
2410.665	255.26
2413.823	260.26
2416.981	262.06
2420.139	255.12
2423.296	273.12
2426.453	290.97
2429.61	275.27
2432.767	293.28
2435.923	307.33
2439.079	298.18
2442.235	300.65
2445.391	314.07
2448.546	302.45
2451.701	318.06
2454.855	334.76
2458.009	311.72
2461.163	313.03
2464.317	317.03
2467.471	311.51
2470.624	320.03
2473.777	314.94
2476.929	311.75
2480.082	314.54
2483.234	335.07
2486.385	343.64
2489.537	354.4
2492.688	372.41
2495.839	370.81
2498.989	386.52
2502.14	383.96
2505.29	368.04
2508.439	395.8
2511.589	395.21
2514.738	403.74
2517.887	399.85
2521.035	372.31
2524.183	363.6
2527.331	367.63
2530.479	357.18
2533.627	362.51
