Data from C_2_dec_on_6n_058_Splice17_20.txt Node
Date: Sat Feb 29 14:31:01 EST 2020
User: sa697716
Spectrometer: FLMS03696
Trigger mode: 0
Integration Time (sec): 3.180400E-1
Scans to average: 20
Electric dark correction enabled: true
Nonlinearity correction enabled: true
Boxcar width: 5
XAxis mode: Wavelengths
Number of Pixels in Spectrum: 2048
>>>>>Begin Spectral Data<<<<<
187.83	91.2
188.298	90.31
188.766	74.49
189.233	75.78
189.701	79.46
190.169	78.36
190.636	88.54
191.104	112.3
191.571	471.52
192.039	293.4
192.506	-158.34
192.974	2903.73
193.441	-89.27
193.908	27.08
194.375	-4.96
194.842	71.58
195.31	61.66
195.777	53.73
196.244	24.63
196.711	19.57
197.177	15.72
197.644	16.01
198.111	15.89
198.578	15.39
199.045	16
199.511	16.53
199.978	16.59
200.445	16.46
200.911	17.07
201.378	17.64
201.844	17.98
202.31	18.86
202.777	18.92
203.243	19.06
203.709	19.94
204.176	19.93
204.642	20.32
205.108	20.13
205.574	20.88
206.04	20.84
206.506	20.44
206.972	20.95
207.438	20.9
207.903	21.52
208.369	21.36
208.835	21.27
209.301	21.6
209.766	21.81
210.232	22.22
210.697	22
211.163	22.24
211.628	22.42
212.094	22.02
212.559	21.87
213.024	21.5
213.49	21.58
213.955	21.52
214.42	21.23
214.885	20.81
215.35	21.04
215.815	20.99
216.28	21.23
216.745	21.61
217.21	21.67
217.675	21.76
218.14	21.67
218.604	21.66
219.069	21.67
219.534	21.56
219.998	21.47
220.463	21.31
220.927	21.22
221.392	21.02
221.856	20.78
222.32	20.66
222.785	20.49
223.249	20.37
223.713	20.25
224.177	20.08
224.642	20
225.106	19.87
225.57	19.73
226.034	19.56
226.497	19.43
226.961	19.28
227.425	19.08
227.889	18.95
228.353	18.76
228.816	18.62
229.28	18.39
229.744	18.2
230.207	18.05
230.671	17.87
231.134	17.74
231.597	17.55
232.061	17.4
232.524	17.27
232.987	17.1
233.45	16.96
233.914	16.78
234.377	16.68
234.84	16.53
235.303	16.38
235.766	16.23
236.229	16.08
236.691	15.96
237.154	15.81
237.617	15.67
238.08	15.54
238.542	15.4
239.005	15.28
239.468	15.12
239.93	15
240.393	14.87
240.855	14.76
241.317	14.63
241.78	14.5
242.242	14.39
242.704	14.28
243.166	14.18
243.629	14.07
244.091	13.96
244.553	13.88
245.015	13.79
245.477	13.69
245.939	13.58
246.4	13.5
246.862	13.41
247.324	13.34
247.786	13.26
248.247	13.17
248.709	13.09
249.17	13.03
249.632	12.94
250.093	12.84
250.555	12.76
251.016	12.7
251.477	12.62
251.939	12.55
252.4	12.46
252.861	12.41
253.322	12.34
253.783	12.29
254.244	12.22
254.705	12.18
255.166	12.14
255.627	12.1
256.088	12.04
256.549	11.99
257.009	11.95
257.47	11.91
257.931	11.85
258.391	11.79
258.852	11.74
259.312	11.69
259.773	11.64
260.233	11.59
260.694	11.53
261.154	11.49
261.614	11.43
262.074	11.39
262.534	11.33
262.994	11.28
263.455	11.24
263.915	11.2
264.374	11.15
264.834	11.11
265.294	11.06
265.754	11.02
266.214	10.98
266.673	10.94
267.133	10.9
267.593	10.86
268.052	10.83
268.512	10.79
268.971	10.75
269.431	10.72
269.89	10.7
270.349	10.67
270.809	10.65
271.268	10.62
271.727	10.6
272.186	10.57
272.645	10.54
273.104	10.52
273.563	10.5
274.022	10.47
274.481	10.44
274.94	10.4
275.399	10.36
275.857	10.33
276.316	10.29
276.775	10.26
277.233	10.23
277.692	10.19
278.15	10.15
278.609	10.1
279.067	10.06
279.525	10.03
279.984	10
280.442	9.96
280.9	9.93
281.358	9.9
281.816	9.87
282.274	9.83
282.732	9.81
283.19	9.79
283.648	9.78
284.106	9.75
284.564	9.74
285.021	9.72
285.479	9.71
285.937	9.68
286.394	9.66
286.852	9.65
287.309	9.63
287.767	9.61
288.224	9.58
288.682	9.57
289.139	9.55
289.596	9.51
290.053	9.47
290.511	9.42
290.968	9.4
291.425	9.37
291.882	9.35
292.339	9.32
292.796	9.28
293.252	9.25
293.709	9.22
294.166	9.19
294.623	9.16
295.079	9.15
295.536	9.12
295.992	9.1
296.449	9.08
296.905	9.05
297.362	9.04
297.818	9.03
298.274	9.01
298.731	8.98
299.187	8.97
299.643	8.95
300.099	8.93
300.555	8.9
301.011	8.88
301.467	8.85
301.923	8.84
302.379	8.81
302.835	8.8
303.291	8.77
303.746	8.75
304.202	8.73
304.658	8.7
305.113	8.69
305.569	8.68
306.024	8.67
306.479	8.64
306.935	8.62
307.39	8.61
307.845	8.6
308.301	8.59
308.756	8.58
309.211	8.58
309.666	8.57
310.121	8.55
310.576	8.56
311.031	8.54
311.486	8.54
311.94	8.52
312.395	8.52
312.85	8.51
313.305	8.51
313.759	8.5
314.214	8.49
314.668	8.47
315.123	8.47
315.577	8.45
316.032	8.44
316.486	8.43
316.94	8.42
317.394	8.4
317.849	8.38
318.303	8.36
318.757	8.33
319.211	8.31
319.665	8.3
320.119	8.27
320.572	8.25
321.026	8.24
321.48	8.22
321.934	8.2
322.387	8.18
322.841	8.17
323.295	8.15
323.748	8.14
324.202	8.12
324.655	8.1
325.108	8.09
325.562	8.06
326.015	8.04
326.468	8.02
326.921	7.99
327.374	7.99
327.827	7.96
328.28	7.95
328.733	7.93
329.186	7.92
329.639	7.9
330.092	7.89
330.545	7.88
330.997	7.87
331.45	7.86
331.903	7.86
332.355	7.85
332.808	7.84
333.26	7.83
333.713	7.83
334.165	7.8
334.617	7.81
335.069	7.79
335.522	7.79
335.974	7.79
336.426	7.78
336.878	7.76
337.33	7.74
337.782	7.74
338.234	7.73
338.686	7.72
339.137	7.71
339.589	7.69
340.041	7.69
340.493	7.68
340.944	7.67
341.396	7.65
341.847	7.64
342.299	7.62
342.75	7.59
343.201	7.57
343.653	7.55
344.104	7.53
344.555	7.52
345.006	7.49
345.457	7.48
345.908	7.46
346.359	7.45
346.81	7.45
347.261	7.45
347.712	7.44
348.163	7.45
348.613	7.43
349.064	7.42
349.515	7.41
349.965	7.4
350.416	7.39
350.866	7.39
351.317	7.37
351.767	7.36
352.217	7.35
352.668	7.34
353.118	7.32
353.568	7.33
354.018	7.34
354.468	7.32
354.918	7.34
355.368	7.33
355.818	7.32
356.268	7.33
356.718	7.32
357.168	7.31
357.617	7.3
358.067	7.3
358.517	7.3
358.966	7.3
359.416	7.31
359.865	7.31
360.315	7.31
360.764	7.31
361.213	7.31
361.663	7.31
362.112	7.32
362.561	7.33
363.01	7.35
363.459	7.35
363.908	7.35
364.357	7.35
364.806	7.35
365.255	7.34
365.703	7.35
366.152	7.35
366.601	7.36
367.05	7.38
367.498	7.38
367.947	7.37
368.395	7.39
368.844	7.4
369.292	7.4
369.74	7.41
370.189	7.43
370.637	7.45
371.085	7.46
371.533	7.46
371.981	7.46
372.429	7.45
372.877	7.46
373.325	7.46
373.773	7.47
374.221	7.49
374.669	7.5
375.116	7.5
375.564	7.5
376.012	7.52
376.459	7.54
376.907	7.57
377.354	7.59
377.801	7.61
378.249	7.62
378.696	7.64
379.143	7.66
379.591	7.68
380.038	7.7
380.485	7.73
380.932	7.73
381.379	7.76
381.826	7.78
382.273	7.79
382.72	7.81
383.166	7.82
383.613	7.84
384.06	7.85
384.506	7.85
384.953	7.86
385.4	7.87
385.846	7.89
386.292	7.9
386.739	7.92
387.185	7.94
387.631	7.96
388.078	7.99
388.524	7.99
388.97	8.01
389.416	8.03
389.862	8.04
390.308	8.06
390.754	8.07
391.2	8.1
391.645	8.11
392.091	8.13
392.537	8.13
392.983	8.15
393.428	8.16
393.874	8.19
394.319	8.21
394.765	8.21
395.21	8.21
395.655	8.23
396.101	8.23
396.546	8.24
396.991	8.25
397.436	8.24
397.881	8.25
398.326	8.27
398.771	8.28
399.216	8.31
399.661	8.33
400.106	8.36
400.551	8.37
400.995	8.37
401.44	8.36
401.885	8.36
402.329	8.37
402.774	8.36
403.218	8.35
403.663	8.33
404.107	8.34
404.551	8.34
404.995	8.33
405.44	8.31
405.884	8.32
406.328	8.31
406.772	8.32
407.216	8.33
407.66	8.34
408.104	8.34
408.547	8.35
408.991	8.34
409.435	8.32
409.879	8.31
410.322	8.31
410.766	8.31
411.209	8.33
411.653	8.32
412.096	8.3
412.54	8.29
412.983	8.27
413.426	8.29
413.869	8.3
414.312	8.33
414.756	8.35
415.199	8.37
415.642	8.39
416.085	8.4
416.527	8.42
416.97	8.44
417.413	8.44
417.856	8.43
418.298	8.41
418.741	8.39
419.184	8.36
419.626	8.34
420.069	8.32
420.511	8.3
420.953	8.28
421.396	8.26
421.838	8.26
422.28	8.28
422.722	8.29
423.164	8.29
423.606	8.29
424.048	8.28
424.49	8.29
424.932	8.29
425.374	8.28
425.816	8.26
426.258	8.22
426.699	8.19
427.141	8.14
427.582	8.12
428.024	8.11
428.465	8.12
428.907	8.15
429.348	8.15
429.789	8.13
430.231	8.11
430.672	8.1
431.113	8.13
431.554	8.15
431.995	8.16
432.436	8.16
432.877	8.15
433.318	8.12
433.759	8.1
434.2	8.08
434.64	8.1
435.081	8.11
435.522	8.13
435.962	8.14
436.403	8.15
436.843	8.17
437.284	8.19
437.724	8.22
438.164	8.24
438.604	8.26
439.045	8.26
439.485	8.26
439.925	8.26
440.365	8.27
440.805	8.27
441.245	8.25
441.685	8.27
442.125	8.26
442.564	8.28
443.004	8.31
443.444	8.33
443.883	8.35
444.323	8.38
444.762	8.41
445.202	8.44
445.641	8.47
446.081	8.52
446.52	8.53
446.959	8.58
447.398	8.62
447.837	8.65
448.276	8.65
448.716	8.68
449.154	8.73
449.593	8.77
450.032	8.78
450.471	8.81
450.91	8.82
451.349	8.83
451.787	8.83
452.226	8.81
452.664	8.79
453.103	8.79
453.541	8.79
453.98	8.77
454.418	8.75
454.856	8.75
455.295	8.73
455.733	8.73
456.171	8.72
456.609	8.7
457.047	8.7
457.485	8.69
457.923	8.69
458.361	8.68
458.798	8.66
459.236	8.66
459.674	8.65
460.111	8.66
460.549	8.64
460.987	8.65
461.424	8.64
461.862	8.63
462.299	8.64
462.736	8.64
463.173	8.63
463.611	8.62
464.048	8.61
464.485	8.6
464.922	8.57
465.359	8.57
465.796	8.53
466.233	8.53
466.67	8.53
467.106	8.51
467.543	8.52
467.98	8.51
468.416	8.54
468.853	8.55
469.29	8.56
469.726	8.59
470.162	8.58
470.599	8.6
471.035	8.61
471.471	8.6
471.907	8.63
472.344	8.62
472.78	8.64
473.216	8.63
473.652	8.63
474.088	8.63
474.523	8.62
474.959	8.61
475.395	8.63
475.831	8.63
476.266	8.64
476.702	8.63
477.138	8.63
477.573	8.62
478.008	8.61
478.444	8.59
478.879	8.58
479.314	8.57
479.75	8.58
480.185	8.58
480.62	8.58
481.055	8.58
481.49	8.58
481.925	8.57
482.36	8.56
482.795	8.56
483.229	8.58
483.664	8.57
484.099	8.57
484.534	8.57
484.968	8.58
485.403	8.57
485.837	8.58
486.271	8.57
486.706	8.57
487.14	8.59
487.574	8.6
488.009	8.61
488.443	8.62
488.877	8.62
489.311	8.64
489.745	8.65
490.179	8.67
490.613	8.67
491.046	8.7
491.48	8.73
491.914	8.75
492.348	8.77
492.781	8.8
493.215	8.83
493.648	8.88
494.082	8.91
494.515	8.93
494.948	8.97
495.382	9.02
495.815	9.07
496.248	9.12
496.681	9.17
497.114	9.21
497.547	9.25
497.98	9.31
498.413	9.36
498.846	9.43
499.279	9.5
499.711	9.55
500.144	9.62
500.577	9.67
501.009	9.75
501.442	9.83
501.874	9.92
502.306	10.01
502.739	10.09
503.171	10.2
503.603	10.3
504.036	10.41
504.468	10.55
504.9	10.68
505.332	10.82
505.764	10.96
506.196	11.11
506.627	11.26
507.059	11.42
507.491	11.6
507.923	11.77
508.354	11.93
508.786	12.09
509.217	12.24
509.649	12.42
510.08	12.61
510.512	12.78
510.943	12.97
511.374	13.18
511.805	13.38
512.237	13.58
512.668	13.79
513.099	14.01
513.53	14.24
513.961	14.49
514.391	14.7
514.822	14.92
515.253	15.15
515.684	15.39
516.114	15.63
516.545	15.86
516.975	16.1
517.406	16.34
517.836	16.59
518.267	16.85
518.697	17.1
519.127	17.34
519.558	17.6
519.988	17.86
520.418	18.09
520.848	18.33
521.278	18.57
521.708	18.75
522.138	18.97
522.567	19.2
522.997	19.41
523.427	19.63
523.857	19.85
524.286	20.06
524.716	20.25
525.145	20.47
525.575	20.65
526.004	20.85
526.433	21.08
526.863	21.27
527.292	21.45
527.721	21.62
528.15	21.76
528.579	21.91
529.008	22.05
529.437	22.19
529.866	22.32
530.295	22.47
530.724	22.6
531.152	22.72
531.581	22.82
532.01	22.91
532.438	23.01
532.867	23.12
533.295	23.21
533.723	23.3
534.152	23.38
534.58	23.45
535.008	23.48
535.436	23.53
535.865	23.57
536.293	23.64
536.721	23.67
537.149	23.71
537.576	23.75
538.004	23.78
538.432	23.8
538.86	23.83
539.287	23.88
539.715	23.94
540.143	23.97
540.57	24.01
540.998	24.04
541.425	24.07
541.852	24.11
542.28	24.13
542.707	24.17
543.134	24.21
543.561	24.22
543.988	24.23
544.415	24.24
544.842	24.26
545.269	24.29
545.696	24.29
546.123	24.3
546.549	24.3
546.976	24.32
547.403	24.34
547.829	24.36
548.256	24.38
548.682	24.38
549.108	24.4
549.535	24.41
549.961	24.41
550.387	24.42
550.813	24.42
551.24	24.44
551.666	24.44
552.092	24.44
552.518	24.43
552.943	24.44
553.369	24.43
553.795	24.4
554.221	24.37
554.646	24.34
555.072	24.33
555.498	24.31
555.923	24.27
556.349	24.19
556.774	24.13
557.199	24.08
557.625	24
558.05	23.93
558.475	23.87
558.9	23.81
559.325	23.74
559.75	23.65
560.175	23.56
560.6	23.48
561.025	23.39
561.449	23.29
561.874	23.18
562.299	23.07
562.723	22.97
563.148	22.85
563.572	22.73
563.997	22.59
564.421	22.46
564.846	22.32
565.27	22.17
565.694	22.04
566.118	21.91
566.542	21.76
566.966	21.61
567.39	21.46
567.814	21.3
568.238	21.15
568.662	21.01
569.086	20.86
569.509	20.72
569.933	20.56
570.357	20.4
570.78	20.25
571.204	20.1
571.627	19.97
572.05	19.84
572.474	19.72
572.897	19.58
573.32	19.45
573.743	19.33
574.166	19.2
574.589	19.07
575.012	18.96
575.435	18.85
575.858	18.75
576.281	18.65
576.704	18.55
577.126	18.44
577.549	18.36
577.972	18.27
578.394	18.18
578.817	18.1
579.239	18.05
579.661	17.98
580.084	17.9
580.506	17.82
580.928	17.75
581.35	17.67
581.772	17.6
582.194	17.51
582.616	17.45
583.038	17.38
583.46	17.32
583.882	17.25
584.303	17.18
584.725	17.12
585.147	17.05
585.568	16.98
585.99	16.94
586.411	16.87
586.833	16.82
587.254	16.77
587.675	16.72
588.096	16.68
588.518	16.62
588.939	16.57
589.36	16.54
589.781	16.52
590.202	16.49
590.623	16.44
591.043	16.41
591.464	16.38
591.885	16.33
592.305	16.3
592.726	16.24
593.147	16.21
593.567	16.17
593.987	16.13
594.408	16.09
594.828	16.06
595.248	16.04
595.669	16.01
596.089	15.98
596.509	15.94
596.929	15.91
597.349	15.89
597.769	15.87
598.189	15.84
598.608	15.81
599.028	15.78
599.448	15.75
599.867	15.69
600.287	15.65
600.706	15.62
601.126	15.59
601.545	15.53
601.965	15.48
602.384	15.44
602.803	15.39
603.222	15.33
603.641	15.28
604.061	15.21
604.48	15.17
604.898	15.11
605.317	15.05
605.736	15
606.155	14.95
606.574	14.89
606.992	14.81
607.411	14.77
607.829	14.68
608.248	14.62
608.666	14.55
609.085	14.48
609.503	14.42
609.921	14.36
610.339	14.29
610.758	14.24
611.176	14.18
611.594	14.11
612.012	14.05
612.43	14.03
612.847	13.98
613.265	13.95
613.683	13.9
614.101	13.84
614.518	13.78
614.936	13.73
615.353	13.67
615.771	13.61
616.188	13.57
616.606	13.51
617.023	13.45
617.44	13.39
617.857	13.33
618.274	13.28
618.691	13.25
619.108	13.21
619.525	13.18
619.942	13.14
620.359	13.12
620.776	13.1
621.192	13.09
621.609	13.05
622.026	13.03
622.442	13
622.859	12.98
623.275	12.96
623.691	12.96
624.108	12.94
624.524	12.93
624.94	12.91
625.356	12.89
625.772	12.88
626.188	12.89
626.604	12.88
627.02	12.89
627.436	12.89
627.852	12.86
628.268	12.85
628.683	12.83
629.099	12.83
629.514	12.8
629.93	12.78
630.345	12.74
630.761	12.69
631.176	12.67
631.591	12.62
632.007	12.57
632.422	12.54
632.837	12.47
633.252	12.41
633.667	12.35
634.082	12.28
634.497	12.2
634.911	12.13
635.326	12.05
635.741	11.96
636.155	11.88
636.57	11.79
636.984	11.68
637.399	11.59
637.813	11.5
638.228	11.38
638.642	11.3
639.056	11.2
639.47	11.1
639.884	11
640.298	10.9
640.712	10.79
641.126	10.7
641.54	10.6
641.954	10.52
642.368	10.43
642.781	10.33
643.195	10.23
643.609	10.15
644.022	10.07
644.436	9.98
644.849	9.9
645.262	9.83
645.676	9.76
646.089	9.7
646.502	9.61
646.915	9.55
647.328	9.51
647.741	9.46
648.154	9.42
648.567	9.39
648.98	9.37
649.393	9.33
649.805	9.3
650.218	9.28
650.631	9.26
651.043	9.25
651.456	9.23
651.868	9.22
652.28	9.21
652.693	9.18
653.105	9.15
653.517	9.12
653.929	9.1
654.341	9.08
654.753	9.04
655.165	9
655.577	8.95
655.989	8.9
656.401	8.84
656.813	8.81
657.224	8.77
657.636	8.74
658.047	8.68
658.459	8.63
658.87	8.58
659.282	8.55
659.693	8.5
660.104	8.46
660.515	8.42
660.926	8.38
661.338	8.33
661.749	8.27
662.159	8.22
662.57	8.18
662.981	8.15
663.392	8.1
663.803	8.07
664.213	8.03
664.624	8.01
665.035	7.98
665.445	7.95
665.855	7.93
666.266	7.91
666.676	7.9
667.086	7.88
667.497	7.86
667.907	7.85
668.317	7.84
668.727	7.84
669.137	7.82
669.547	7.82
669.956	7.81
670.366	7.81
670.776	7.83
671.186	7.83
671.595	7.85
672.005	7.88
672.414	7.89
672.824	7.91
673.233	7.94
673.642	7.97
674.052	7.98
674.461	8.02
674.87	8.05
675.279	8.05
675.688	8.08
676.097	8.12
676.506	8.14
676.915	8.19
677.323	8.24
677.732	8.27
678.141	8.32
678.549	8.39
678.958	8.45
679.366	8.5
679.775	8.57
680.183	8.63
680.592	8.69
681	8.77
681.408	8.84
681.816	8.91
682.224	9
682.632	9.1
683.04	9.2
683.448	9.3
683.856	9.43
684.264	9.56
684.671	9.74
685.079	9.9
685.487	10.08
685.894	10.28
686.302	10.49
686.709	10.72
687.116	10.97
687.524	11.24
687.931	11.54
688.338	11.86
688.745	12.21
689.152	12.55
689.559	12.95
689.966	13.36
690.373	13.78
690.78	14.21
691.187	14.67
691.593	15.14
692	15.64
692.407	16.15
692.813	16.68
693.22	17.2
693.626	17.76
694.032	18.3
694.439	18.86
694.845	19.42
695.251	19.98
695.657	20.53
696.063	21.12
696.469	21.68
696.875	22.23
697.281	22.78
697.687	23.37
698.093	23.91
698.498	24.48
698.904	25.02
699.31	25.57
699.715	26.14
700.12	26.7
700.526	27.22
700.931	27.74
701.337	28.28
701.742	28.81
702.147	29.3
702.552	29.81
702.957	30.31
703.362	30.81
703.767	31.28
704.172	31.77
704.577	32.23
704.981	32.7
705.386	33.15
705.791	33.57
706.195	34.01
706.6	34.44
707.004	34.87
707.408	35.26
707.813	35.68
708.217	36.06
708.621	36.44
709.025	36.81
709.43	37.19
709.834	37.6
710.237	37.98
710.641	38.38
711.045	38.7
711.449	39.03
711.853	39.4
712.256	39.76
712.66	40.11
713.064	40.46
713.467	40.81
713.87	41.14
714.274	41.45
714.677	41.77
715.08	42.06
715.484	42.42
715.887	42.72
716.29	43
716.693	43.27
717.096	43.56
717.499	43.83
717.901	44.06
718.304	44.32
718.707	44.56
719.109	44.81
719.512	45.07
719.915	45.3
720.317	45.57
720.719	45.84
721.122	46.06
721.524	46.31
721.926	46.56
722.328	46.79
722.731	47.04
723.133	47.24
723.535	47.49
723.937	47.69
724.338	47.86
724.74	48.04
725.142	48.13
725.544	48.31
725.945	48.46
726.347	48.61
726.748	48.76
727.15	48.9
727.551	49.06
727.952	49.18
728.354	49.34
728.755	49.51
729.156	49.66
729.557	49.88
729.958	50.04
730.359	50.19
730.76	50.32
731.161	50.44
731.562	50.53
731.962	50.65
732.363	50.75
732.763	50.84
733.164	50.91
733.564	50.98
733.965	51.07
734.365	51.09
734.766	51.15
735.166	51.17
735.566	51.2
735.966	51.27
736.366	51.3
736.766	51.34
737.166	51.38
737.566	51.41
737.966	51.46
738.365	51.49
738.765	51.57
739.165	51.59
739.564	51.66
739.964	51.73
740.363	51.78
740.763	51.81
741.162	51.82
741.561	51.86
741.96	51.93
742.36	51.95
742.759	51.95
743.158	51.93
743.557	51.95
743.955	52.01
744.354	52.03
744.753	52.05
745.152	52.09
745.55	52.13
745.949	52.15
746.348	52.17
746.746	52.2
747.144	52.26
747.543	52.33
747.941	52.41
748.339	52.44
748.737	52.5
749.136	52.52
749.534	52.57
749.932	52.6
750.33	52.61
750.727	52.67
751.125	52.7
751.523	52.71
751.921	52.72
752.318	52.72
752.716	52.7
753.113	52.7
753.511	52.69
753.908	52.68
754.305	52.69
754.703	52.67
755.1	52.61
755.497	52.59
755.894	52.55
756.291	52.51
756.688	52.49
757.085	52.49
757.482	52.47
757.878	52.49
758.275	52.5
758.672	52.51
759.068	52.53
759.465	52.53
759.861	52.55
760.258	52.54
760.654	52.53
761.05	52.51
761.447	52.48
761.843	52.44
762.239	52.41
762.635	52.37
763.031	52.31
763.427	52.29
763.822	52.25
764.218	52.22
764.614	52.2
765.01	52.21
765.405	52.19
765.801	52.16
766.196	52.17
766.592	52.13
766.987	52.12
767.382	52.13
767.778	52.12
768.173	52.12
768.568	52.07
768.963	52.09
769.358	52.07
769.753	52.06
770.148	52.08
770.542	52.05
770.937	52.04
771.332	52.05
771.726	52.05
772.121	52.02
772.515	52.01
772.91	52.05
773.304	52.04
773.699	51.99
774.093	52.01
774.487	52.01
774.881	52.03
775.275	52.06
775.669	52.05
776.063	52.04
776.457	52.05
776.851	52.03
777.245	52.03
777.638	52.04
778.032	52.09
778.425	52.11
778.819	52.09
779.212	52.04
779.606	51.98
779.999	51.97
780.392	51.99
780.786	51.98
781.179	51.99
781.572	51.97
781.965	51.95
782.358	51.91
782.751	51.89
783.143	51.9
783.536	51.95
783.929	52.05
784.322	52.1
784.714	52.07
785.107	52.1
785.499	52.11
785.891	52.12
786.284	52.12
786.676	52.14
787.068	52.14
787.46	52.14
787.852	52.13
788.245	52.12
788.636	52.1
789.028	52.09
789.42	52.05
789.812	52.06
790.204	52.04
790.595	52.03
790.987	52.03
791.378	52.05
791.77	52.05
792.161	52.05
792.553	52
792.944	52.02
793.335	52.05
793.726	52.05
794.117	52.03
794.508	52.08
794.899	52.1
795.29	52.11
795.681	52.14
796.072	52.15
796.463	52.14
796.853	52.14
797.244	52.13
797.634	52.09
798.025	52.11
798.415	52.11
798.806	52.1
799.196	52.16
799.586	52.18
799.976	52.12
800.366	52.12
800.756	52.16
801.146	52.18
801.536	52.18
801.926	52.2
802.316	52.2
802.706	52.22
803.095	52.26
803.485	52.23
803.874	52.23
804.264	52.28
804.653	52.27
805.043	52.25
805.432	52.2
805.821	52.2
806.21	52.26
806.599	52.29
806.988	52.32
807.377	52.3
807.766	52.28
808.155	52.31
808.544	52.3
808.933	52.33
809.321	52.36
809.71	52.43
810.098	52.46
810.487	52.43
810.875	52.43
811.264	52.42
811.652	52.44
812.04	52.45
812.428	52.48
812.816	52.48
813.204	52.48
813.592	52.47
813.98	52.46
814.368	52.45
814.756	52.49
815.144	52.49
815.531	52.52
815.919	52.52
816.306	52.54
816.694	52.51
817.081	52.5
817.469	52.54
817.856	52.57
818.243	52.58
818.63	52.62
819.017	52.63
819.404	52.62
819.791	52.64
820.178	52.64
820.565	52.66
820.952	52.67
821.339	52.74
821.725	52.78
822.112	52.82
822.498	52.86
822.885	52.87
823.271	52.91
823.657	52.93
824.044	52.91
824.43	52.94
824.816	52.94
825.202	52.97
825.588	52.97
825.974	52.97
826.36	52.93
826.746	52.93
827.132	52.9
827.517	52.88
827.903	52.88
828.289	52.9
828.674	52.87
829.06	52.88
829.445	52.88
829.83	52.86
830.216	52.83
830.601	52.83
830.986	52.82
831.371	52.85
831.756	52.8
832.141	52.81
832.526	52.79
832.911	52.82
833.295	52.81
833.68	52.8
834.065	52.81
834.449	52.77
834.834	52.75
835.218	52.73
835.603	52.7
835.987	52.73
836.371	52.72
836.755	52.69
837.139	52.66
837.524	52.65
837.908	52.6
838.291	52.56
838.675	52.6
839.059	52.62
839.443	52.6
839.827	52.59
840.21	52.59
840.594	52.56
840.977	52.56
841.361	52.56
841.744	52.58
842.127	52.59
842.511	52.6
842.894	52.56
843.277	52.56
843.66	52.59
844.043	52.59
844.426	52.6
844.809	52.6
845.191	52.61
845.574	52.62
845.957	52.61
846.339	52.61
846.722	52.6
847.104	52.61
847.487	52.61
847.869	52.58
848.252	52.59
848.634	52.59
849.016	52.63
849.398	52.64
849.78	52.65
850.162	52.68
850.544	52.68
850.926	52.67
851.307	52.67
851.689	52.67
852.071	52.66
852.452	52.64
852.834	52.6
853.215	52.56
853.597	52.54
853.978	52.49
854.359	52.48
854.741	52.5
855.122	52.51
855.503	52.52
855.884	52.49
856.265	52.5
856.646	52.49
857.026	52.54
857.407	52.51
857.788	52.52
858.169	52.53
858.549	52.53
858.93	52.54
859.31	52.53
859.69	52.5
860.071	52.52
860.451	52.51
860.831	52.53
861.211	52.48
861.591	52.53
861.971	52.53
862.351	52.52
862.731	52.53
863.111	52.52
863.491	52.52
863.87	52.52
864.25	52.53
864.629	52.53
865.009	52.47
865.388	52.5
865.768	52.48
866.147	52.48
866.526	52.48
866.905	52.48
867.284	52.49
867.663	52.48
868.042	52.49
868.421	52.46
868.8	52.46
869.179	52.49
869.558	52.48
869.936	52.47
870.315	52.43
870.693	52.42
871.072	52.39
871.45	52.37
871.828	52.37
872.207	52.35
872.585	52.34
872.963	52.33
873.341	52.36
873.719	52.36
874.097	52.38
874.475	52.4
874.853	52.39
875.23	52.41
875.608	52.39
875.986	52.38
876.363	52.37
876.741	52.39
877.118	52.4
877.495	52.36
877.873	52.35
878.25	52.32
878.627	52.32
879.004	52.31
879.381	52.28
879.758	52.27
880.135	52.3
880.512	52.31
880.889	52.31
881.265	52.32
881.642	52.33
882.019	52.35
882.395	52.35
882.772	52.35
883.148	52.37
883.524	52.39
883.901	52.38
884.277	52.37
884.653	52.37
885.029	52.36
885.405	52.33
885.781	52.33
886.157	52.33
886.532	52.34
886.908	52.39
887.284	52.41
887.659	52.4
888.035	52.42
888.411	52.41
888.786	52.4
889.161	52.42
889.537	52.45
889.912	52.43
890.287	52.39
890.662	52.36
891.037	52.28
891.412	52.24
891.787	52.21
892.162	52.19
892.536	52.18
892.911	52.16
893.286	52.1
893.66	52.06
894.035	52.04
894.409	52.03
894.784	52.01
895.158	51.99
895.532	51.94
895.906	51.94
896.281	51.92
896.655	51.87
897.029	51.84
897.402	51.86
897.776	51.83
898.15	51.84
898.524	51.85
898.898	51.83
899.271	51.85
899.645	51.89
900.018	51.87
900.392	51.91
900.765	51.89
901.138	51.91
901.511	51.91
901.884	51.9
902.258	51.86
902.631	51.86
903.003	51.85
903.376	51.81
903.749	51.79
904.122	51.79
904.495	51.74
904.867	51.74
905.24	51.74
905.612	51.73
905.985	51.72
906.357	51.7
906.729	51.67
907.102	51.68
907.474	51.71
907.846	51.71
908.218	51.69
908.59	51.7
908.962	51.7
909.334	51.69
909.705	51.68
910.077	51.65
910.449	51.66
910.82	51.67
911.192	51.66
911.563	51.65
911.935	51.62
912.306	51.6
912.677	51.59
913.048	51.56
913.419	51.54
913.79	51.52
914.161	51.54
914.532	51.52
914.903	51.5
915.274	51.49
915.645	51.48
916.015	51.53
916.386	51.56
916.756	51.5
917.127	51.5
917.497	51.5
917.868	51.52
918.238	51.52
918.608	51.54
918.978	51.56
919.348	51.54
919.718	51.51
920.088	51.46
920.458	51.49
920.828	51.55
921.198	51.55
921.567	51.54
921.937	51.53
922.306	51.54
922.676	51.55
923.045	51.51
923.415	51.53
923.784	51.53
924.153	51.53
924.522	51.47
924.891	51.42
925.26	51.45
925.629	51.44
925.998	51.44
926.367	51.41
926.736	51.36
927.104	51.38
927.473	51.34
927.842	51.31
928.21	51.33
928.578	51.29
928.947	51.27
929.315	51.23
929.683	51.26
930.051	51.23
930.42	51.22
930.788	51.2
931.156	51.13
931.523	51.1
931.891	51.07
932.259	50.98
932.627	50.92
932.994	50.92
933.362	50.79
933.729	50.62
934.097	50.57
934.464	50.49
934.831	50.39
935.199	50.31
935.566	50.25
935.933	50.22
936.3	50.13
936.667	50.11
937.034	49.95
937.401	49.92
937.767	49.94
938.134	49.83
938.501	49.77
938.867	49.82
939.234	49.83
939.6	49.75
939.967	49.74
940.333	49.84
940.699	49.94
941.065	50.13
941.431	50.2
941.798	50.3
942.163	50.45
942.529	50.51
942.895	50.54
943.261	50.58
943.627	50.68
943.992	50.76
944.358	50.76
944.723	50.7
945.089	50.69
945.454	50.79
945.82	50.78
946.185	50.77
946.55	50.89
946.915	50.91
947.28	50.91
947.645	50.94
948.01	50.96
948.375	51.03
948.74	50.97
949.104	51
949.469	50.93
949.834	50.91
950.198	50.83
950.562	50.75
950.927	50.71
951.291	50.66
951.655	50.58
952.02	50.52
952.384	50.47
952.748	50.52
953.112	50.4
953.476	50.38
953.839	50.4
954.203	50.38
954.567	50.31
954.931	50.35
955.294	50.39
955.658	50.42
956.021	50.43
956.385	50.43
956.748	50.4
957.111	50.41
957.474	50.43
957.837	50.43
958.2	50.49
958.563	50.49
958.926	50.42
959.289	50.43
959.652	50.44
960.015	50.47
960.377	50.42
960.74	50.35
961.102	50.37
961.465	50.31
961.827	50.17
962.189	50.03
962.552	50.08
962.914	50.04
963.276	49.98
963.638	49.95
964	49.8
964.362	49.78
964.724	49.84
965.085	49.8
965.447	49.78
965.809	49.79
966.17	49.86
966.532	49.74
966.893	49.72
967.255	49.69
967.616	49.66
967.977	49.76
968.338	49.76
968.699	49.7
969.061	49.64
969.421	49.58
969.782	49.59
970.143	49.56
970.504	49.63
970.865	49.57
971.225	49.57
971.586	49.54
971.946	49.46
972.307	49.44
972.667	49.47
973.027	49.54
973.388	49.53
973.748	49.51
974.108	49.44
974.468	49.45
974.828	49.5
975.188	49.55
975.548	49.54
975.907	49.58
976.267	49.58
976.627	49.57
976.986	49.57
977.346	49.64
977.705	49.66
978.064	49.72
978.424	49.76
978.783	49.68
979.142	49.63
979.501	49.59
979.86	49.52
980.219	49.42
980.578	49.33
980.937	49.33
981.296	49.28
981.654	49.36
982.013	49.34
982.371	49.18
982.73	49.21
983.088	49.19
983.447	49.23
983.805	49.21
984.163	49.24
984.521	49.17
984.879	49.18
985.237	49.22
985.595	49.2
985.953	49.05
986.311	49.17
986.669	49.25
987.026	49.17
987.384	49.16
987.741	49.2
988.099	49.21
988.456	49.33
988.814	49.17
989.171	49.05
989.528	48.84
989.885	48.9
990.242	48.83
990.599	48.84
990.956	48.84
991.313	48.87
991.67	48.78
992.027	48.74
992.383	48.7
992.74	48.7
993.096	48.65
993.453	48.76
993.809	48.78
994.165	48.81
994.522	48.65
994.878	48.71
995.234	48.59
995.59	48.57
995.946	48.56
996.302	48.48
996.658	48.47
997.013	48.68
997.369	48.6
997.725	48.54
998.08	48.56
998.436	48.68
998.791	48.58
999.147	48.64
999.502	48.6
999.857	48.56
1000.212	48.63
1000.567	48.64
1000.922	48.52
1001.277	48.5
1001.632	48.64
1001.987	48.49
1002.342	48.37
1002.696	48.38
1003.051	48.22
1003.406	48.3
1003.76	48.23
1004.114	48.2
1004.469	48.06
1004.823	48.07
1005.177	48.23
1005.531	48
1005.885	48.01
1006.239	47.86
1006.593	47.7
1006.947	47.83
1007.301	47.8
1007.655	47.79
1008.008	47.69
1008.362	47.73
1008.715	47.6
1009.069	47.43
1009.422	47.37
1009.776	47.42
1010.129	47.44
1010.482	47.68
1010.835	47.59
1011.188	47.47
1011.541	47.32
1011.894	47.27
1012.247	47.24
1012.6	47.27
1012.952	47.23
1013.305	47.17
1013.657	47.13
1014.01	47.36
1014.362	47.34
1014.715	46.97
1015.067	47.06
1015.419	47.17
1015.771	47.32
1016.123	47.24
1016.475	47.13
1016.827	47.1
1017.179	47.1
1017.531	47.02
1017.883	46.93
1018.234	46.56
1018.586	46.69
1018.938	46.57
1019.289	46.45
1019.64	46.35
1019.992	46.35
1020.343	46.22
1020.694	46.05
1021.045	46.24
1021.396	46.16
1021.747	45.86
1022.098	45.92
1022.449	46.1
1022.8	45.8
1023.151	45.77
1023.501	45.63
1023.852	45.71
1024.202	45.63
1024.553	45.46
1024.903	45.19
1025.253	45.12
1025.604	45.09
1025.954	44.91
1026.304	45.06
1026.654	44.98
1027.004	45.27
1027.354	45.05
1027.703	44.52
1028.053	44.56
1028.403	44.33
1028.753	44.68
1029.102	44.47
1029.452	44.3
1029.801	44.33
1030.15	43.95
1030.499	44.1
897.758	425.09
901.051	425.75
904.343	431.96
907.636	428.54
910.928	422.39
914.22	426.1
917.511	414.11
920.803	401.58
924.094	382.66
927.384	385.58
930.675	374.95
933.965	369.12
937.255	374.1
940.544	355.58
943.834	340.17
947.123	335.28
950.411	318.28
953.7	318.23
956.988	305.02
960.276	296.76
963.563	295.11
966.851	277.37
970.138	273.54
973.424	254.27
976.711	250.98
979.997	242.69
983.283	237.95
986.568	231.51
989.853	224.59
993.138	217.18
996.423	215.91
999.708	207.18
1002.992	208.78
1006.275	204.09
1009.559	202.91
1012.842	197.77
1016.125	191.81
1019.408	188.47
1022.69	188.32
1025.972	185.74
1029.254	183.33
1032.536	178.03
1035.817	172.64
1039.098	170.5
1042.379	168
1045.659	165.73
1048.939	165.08
1052.219	162.16
1055.498	160.15
1058.778	157.09
1062.057	156.78
1065.335	154.79
1068.614	152.65
1071.892	152.28
1075.17	149.28
1078.447	146.2
1081.724	145.51
1085.001	141.91
1088.278	143.47
1091.554	141.84
1094.83	140.02
1098.106	137.54
1101.382	136.84
1104.657	136.09
1107.932	135.35
1111.206	135.2
1114.481	133.24
1117.755	132.42
1121.029	132.69
1124.302	129.27
1127.575	128.18
1130.848	128.27
1134.121	126.43
1137.393	126.28
1140.665	126.5
1143.937	125.31
1147.208	122.95
1150.48	122.98
1153.75	121.91
1157.021	121.18
1160.291	121.1
1163.561	120.27
1166.831	119.22
1170.101	118.73
1173.37	118.04
1176.639	116.56
1179.907	116.91
1183.176	116.63
1186.444	116.51
1189.711	116.01
1192.979	116.16
1196.246	117.08
1199.513	116.41
1202.78	116.61
1206.046	116.45
1209.312	117.02
1212.578	117.29
1215.843	118.24
1219.108	120.23
1222.373	122.28
1225.638	123.54
1228.902	126.1
1232.166	128.52
1235.43	130.01
1238.693	133.98
1241.956	137.38
1245.219	139.36
1248.482	140.61
1251.744	140.23
1255.006	140.53
1258.268	137.06
1261.529	136.42
1264.79	133.27
1268.051	130.97
1271.312	130.96
1274.572	128.32
1277.832	125.19
1281.092	124.01
1284.351	121.54
1287.61	121.15
1290.869	120.42
1294.128	120.2
1297.386	119.25
1300.644	118.92
1303.902	118.21
1307.159	117.08
1310.416	117.54
1313.673	118.92
1316.93	120.07
1320.186	122.1
1323.442	123.53
1326.697	125.02
1329.953	125
1333.208	128.72
1336.463	133.34
1339.717	135.51
1342.972	141.55
1346.226	144.79
1349.479	145.44
1352.733	150.48
1355.986	152.95
1359.238	155.69
1362.491	155.41
1365.743	162.55
1368.995	164.22
1372.247	163.53
1375.498	162.6
1378.749	165.96
1382	166.92
1385.251	165.17
1388.501	166.49
1391.751	167.71
1395	165.25
1398.25	166.86
1401.499	165.7
1404.748	163.94
1407.996	159.21
1411.244	159.79
1414.492	158.04
1417.74	152.83
1420.987	148.96
1424.234	144.34
1427.481	139.68
1430.728	137
1433.974	131.69
1437.22	128.16
1440.465	123.82
1443.711	120.62
1446.956	117.17
1450.201	113.42
1453.445	107.24
1456.689	105.54
1459.933	102.67
1463.177	97.89
1466.42	96.76
1469.663	94.48
1472.906	90.92
1476.148	88.23
1479.391	87.43
1482.633	85.55
1485.874	83.96
1489.115	84.24
1492.356	83.49
1495.597	81.96
1498.838	82.45
1502.078	81.19
1505.318	81.28
1508.557	80.59
1511.797	80.59
1515.036	80.16
1518.274	80.74
1521.513	80.02
1524.751	79.54
1527.989	79.38
1531.227	79.53
1534.464	79.16
1537.701	78.94
1540.938	78.6
1544.174	78.91
1547.41	79.62
1550.646	79.22
1553.882	78.53
1557.117	78.4
1560.352	78.42
1563.587	78.08
1566.821	77.97
1570.055	77.88
1573.289	77.68
1576.523	77.74
1579.756	77.6
1582.989	77.57
1586.222	77.52
1589.454	77.95
1592.686	78.38
1595.918	77.64
1599.15	77.86
1602.381	78.09
1605.612	78.23
1608.843	77.84
1612.073	78.66
1615.303	78.63
1618.533	78.23
1621.762	78.15
1624.992	78.49
1628.221	77.54
1631.449	78.43
1634.678	79.25
1637.906	79.01
1641.134	79.16
1644.361	79.78
1647.588	79.09
1650.815	79.64
1654.042	79.73
1657.269	80.07
1660.495	80.08
1663.72	80.66
1666.946	80.55
1670.171	80.21
1673.396	80.63
1676.621	81.15
1679.845	81.18
1683.069	81.12
1686.293	80.81
1689.517	80.97
1692.74	81.06
1695.963	80.83
1699.185	80.83
1702.408	80.77
1705.63	80.62
1708.852	80.76
1712.073	80.83
1715.294	80.81
1718.515	81.43
1721.736	81.57
1724.956	82.16
1728.176	81.76
1731.396	81.66
1734.616	81.96
1737.835	82.17
1741.054	81.9
1744.272	81.82
1747.491	80.87
1750.709	81.73
1753.927	81.69
1757.144	81.94
1760.361	81.16
1763.578	82.33
1766.795	82.82
1770.011	82.76
1773.227	83.03
1776.443	83.8
1779.658	83.74
1782.874	84.63
1786.089	83.67
1789.303	83.69
1792.518	84.12
1795.732	84.73
1798.945	84.93
1802.159	85.23
1805.372	85.87
1808.585	86.62
1811.797	87
1815.01	88.04
1818.222	88.41
1821.434	89.71
1824.645	90.1
1827.856	91.26
1831.067	91.5
1834.278	92.47
1837.488	92.91
1840.698	93.96
1843.908	93.82
1847.117	94.72
1850.326	94.94
1853.535	95.81
1856.744	96.14
1859.952	97.26
1863.16	96.49
1866.368	96.42
1869.575	96.08
1872.782	95.61
1875.989	93.63
1879.196	93.77
1882.402	92.36
1885.608	92.69
1888.814	91.44
1892.019	92.22
1895.224	90.41
1898.429	91.96
1901.634	91.38
1904.838	91.62
1908.042	92.41
1911.246	92.52
1914.449	92.47
1917.652	92.99
1920.855	93.56
1924.058	92.74
1927.26	91.71
1930.462	93.22
1933.664	91.71
1936.865	92.81
1940.066	91.32
1943.267	90.24
1946.467	91.69
1949.668	91.42
1952.868	91.42
1956.067	90.84
1959.267	91.65
1962.466	92.12
1965.665	91.52
1968.863	93.03
1972.061	93.77
1975.259	95.32
1978.457	96.35
1981.654	96.55
1984.852	97.99
1988.048	99.02
1991.245	99.43
1994.441	101.78
1997.637	103.21
2000.833	106.99
2004.028	106.79
2007.223	109.29
2010.418	111.78
2013.613	117.95
2016.807	120.59
2020.001	123.57
2023.194	126.19
2026.388	132.93
2029.581	138.33
2032.774	143.02
2035.966	145.09
2039.158	150.02
2042.35	150.72
2045.542	155.65
2048.733	158.77
2051.924	160.68
2055.115	161.96
2058.306	164.7
2061.496	165.48
2064.686	165.28
2067.875	165.33
2071.065	168.78
2074.254	168.89
2077.442	175.39
2080.631	174.92
2083.819	175.85
2087.007	178.7
2090.195	181.81
2093.382	181.56
2096.569	182.02
2099.756	185.41
2102.942	188.45
2106.128	190.42
2109.314	192.65
2112.5	191.79
2115.685	189.63
2118.87	190.97
2122.055	194.15
2125.239	195.8
2128.424	202.15
2131.608	198.38
2134.791	197.68
2137.974	199.56
2141.157	202.19
2144.34	202.72
2147.523	207.92
2150.705	213.7
2153.887	213.31
2157.068	213.57
2160.25	216.96
2163.431	215.58
2166.611	221.49
2169.792	225.36
2172.972	229.37
2176.152	228.01
2179.331	232.84
2182.511	231.91
2185.69	234.81
2188.868	242.12
2192.047	246.09
2195.225	250.62
2198.403	254.11
2201.58	252.09
2204.758	259.07
2207.935	258.68
2211.111	266.39
2214.288	267.59
2217.464	270.41
2220.64	273.4
2223.815	272.23
2226.991	270.64
2230.166	272.54
2233.34	278.15
2236.515	284.68
2239.689	284.52
2242.863	289.42
2246.036	285.23
2249.209	290.58
2252.382	289.44
2255.555	300.22
2258.727	302.26
2261.9	314.34
2265.071	316.27
2268.243	316.42
2271.414	324.13
2274.585	328.29
2277.756	328.52
2280.926	337.62
2284.096	343.59
2287.266	342.5
2290.436	336.68
2293.605	344.45
2296.774	353.74
2299.942	354.42
2303.111	366.31
2306.279	376.82
2309.447	377.12
2312.614	379.21
2315.781	388
2318.948	390.51
2322.115	403.76
2325.281	417.53
2328.447	414.15
2331.613	414.99
2334.779	422.85
2337.944	421.92
2341.109	428.08
2344.274	432.56
2347.438	446.19
2350.602	454.12
2353.766	487.84
2356.929	486.81
2360.092	501.01
2363.255	505.45
2366.418	512.36
2369.58	521.36
2372.742	529.03
2375.904	526.46
2379.066	543.67
2382.227	563.37
2385.388	560.63
2388.548	526.24
2391.709	524.63
2394.869	535.34
2398.029	537.74
2401.188	542.71
2404.347	554.02
2407.506	570.63
2410.665	543.16
2413.823	551.73
2416.981	557.36
2420.139	527.22
2423.296	577.02
2426.453	604.51
2429.61	580.08
2432.767	618.54
2435.923	631.44
2439.079	624.12
2442.235	631.95
2445.391	653.29
2448.546	635.41
2451.701	681.52
2454.855	733.88
2458.009	643.34
2461.163	666.99
2464.317	666.82
2467.471	653.04
2470.624	676.68
2473.777	652.34
2476.929	638.49
2480.082	680.91
2483.234	721.03
2486.385	726.32
2489.537	745.71
2492.688	815.03
2495.839	796.13
2498.989	826.39
2502.14	825.77
2505.29	792.44
2508.439	874.29
2511.589	891.04
2514.738	864.74
2517.887	852.82
2521.035	799.61
2524.183	791.36
2527.331	782.2
2530.479	762.5
2533.627	775.78
