Data from C_2_dec_oh_4n_046_Splice17_11.txt Node
Date: Sat Feb 29 14:35:55 EST 2020
User: sa697716
Spectrometer: FLMS03696
Trigger mode: 0
Integration Time (sec): 3.180400E-1
Scans to average: 20
Electric dark correction enabled: true
Nonlinearity correction enabled: true
Boxcar width: 5
XAxis mode: Wavelengths
Number of Pixels in Spectrum: 2048
>>>>>Begin Spectral Data<<<<<
187.83	75.33
188.298	79.46
188.766	76.47
189.233	83.06
189.701	98.07
190.169	94.47
190.636	115.04
191.104	141.26
191.571	522.05
192.039	344.35
192.506	-564.53
192.974	-2234.7
193.441	148.46
193.908	72.3
194.375	189.63
194.842	353.74
195.31	216.93
195.777	236.81
196.244	93.49
196.711	48.92
197.177	40.8
197.644	38.81
198.111	37.82
198.578	37.05
199.045	36.57
199.511	36.78
199.978	37.02
200.445	36.47
200.911	36.98
201.378	37.24
201.844	37.57
202.31	38.73
202.777	39.27
203.243	40.03
203.709	40.57
204.176	40.6
204.642	40.6
205.108	40.54
205.574	41.18
206.04	41.22
206.506	40.76
206.972	40.68
207.438	40.31
207.903	40.36
208.369	40.06
208.835	40.14
209.301	40.48
209.766	40.66
210.232	40.73
210.697	40.84
211.163	40.95
211.628	40.8
212.094	40.8
212.559	40.81
213.024	40.88
213.49	40.73
213.955	40.68
214.42	40.41
214.885	40.03
215.35	40.15
215.815	39.71
216.28	39.45
216.745	39.4
217.21	39.01
217.675	38.58
218.14	37.78
218.604	37.15
219.069	36.61
219.534	36.08
219.998	35.66
220.463	35.16
220.927	34.71
221.392	34.22
221.856	33.66
222.32	33.19
222.785	32.73
223.249	32.39
223.713	32.12
224.177	31.76
224.642	31.36
225.106	30.93
225.57	30.55
226.034	30.18
226.497	29.78
226.961	29.46
227.425	29.1
227.889	28.75
228.353	28.37
228.816	27.97
229.28	27.56
229.744	27.25
230.207	26.93
230.671	26.59
231.134	26.26
231.597	25.93
232.061	25.61
232.524	25.32
232.987	25.01
233.45	24.68
233.914	24.38
234.377	24.13
234.84	23.87
235.303	23.6
235.766	23.33
236.229	23.07
236.691	22.86
237.154	22.62
237.617	22.4
238.08	22.19
238.542	21.99
239.005	21.8
239.468	21.55
239.93	21.32
240.393	21.12
240.855	20.91
241.317	20.73
241.78	20.54
242.242	20.34
242.704	20.14
243.166	19.94
243.629	19.75
244.091	19.56
244.553	19.44
245.015	19.29
245.477	19.14
245.939	19.02
246.4	18.86
246.862	18.71
247.324	18.57
247.786	18.43
248.247	18.3
248.709	18.17
249.17	18.05
249.632	17.9
250.093	17.74
250.555	17.62
251.016	17.49
251.477	17.37
251.939	17.26
252.4	17.13
252.861	17.04
253.322	16.94
253.783	16.85
254.244	16.75
254.705	16.67
255.166	16.6
255.627	16.51
256.088	16.42
256.549	16.33
257.009	16.25
257.47	16.19
257.931	16.11
258.391	16.02
258.852	15.93
259.312	15.85
259.773	15.76
260.233	15.68
260.694	15.6
261.154	15.51
261.614	15.44
262.074	15.35
262.534	15.27
262.994	15.2
263.455	15.13
263.915	15.07
264.374	14.99
264.834	14.93
265.294	14.86
265.754	14.79
266.214	14.74
266.673	14.67
267.133	14.62
267.593	14.57
268.052	14.51
268.512	14.46
268.971	14.41
269.431	14.37
269.89	14.33
270.349	14.28
270.809	14.23
271.268	14.19
271.727	14.14
272.186	14.09
272.645	14.03
273.104	13.99
273.563	13.94
274.022	13.89
274.481	13.84
274.94	13.78
275.399	13.73
275.857	13.68
276.316	13.62
276.775	13.56
277.233	13.51
277.692	13.47
278.15	13.41
278.609	13.36
279.067	13.29
279.525	13.23
279.984	13.2
280.442	13.15
280.9	13.1
281.358	13.05
281.816	13
282.274	12.95
282.732	12.9
283.19	12.86
283.648	12.82
284.106	12.79
284.564	12.76
285.021	12.71
285.479	12.67
285.937	12.62
286.394	12.59
286.852	12.57
287.309	12.53
287.767	12.5
288.224	12.46
288.682	12.42
289.139	12.38
289.596	12.32
290.053	12.27
290.511	12.21
290.968	12.17
291.425	12.12
291.882	12.07
292.339	12.02
292.796	11.96
293.252	11.91
293.709	11.86
294.166	11.82
294.623	11.78
295.079	11.74
295.536	11.71
295.992	11.67
296.449	11.63
296.905	11.58
297.362	11.55
297.818	11.52
298.274	11.49
298.731	11.45
299.187	11.41
299.643	11.37
300.099	11.34
300.555	11.3
301.011	11.28
301.467	11.24
301.923	11.21
302.379	11.17
302.835	11.14
303.291	11.11
303.746	11.08
304.202	11.06
304.658	11.02
305.113	10.99
305.569	10.96
306.024	10.93
306.479	10.9
306.935	10.88
307.39	10.86
307.845	10.83
308.301	10.81
308.756	10.79
309.211	10.77
309.666	10.76
310.121	10.74
310.576	10.71
311.031	10.69
311.486	10.68
311.94	10.64
312.395	10.63
312.85	10.6
313.305	10.58
313.759	10.57
314.214	10.55
314.668	10.54
315.123	10.53
315.577	10.52
316.032	10.5
316.486	10.47
316.94	10.46
317.394	10.44
317.849	10.42
318.303	10.4
318.757	10.36
319.211	10.32
319.665	10.29
320.119	10.26
320.572	10.24
321.026	10.2
321.48	10.19
321.934	10.18
322.387	10.15
322.841	10.13
323.295	10.09
323.748	10.07
324.202	10.05
324.655	10.02
325.108	9.99
325.562	9.96
326.015	9.93
326.468	9.89
326.921	9.85
327.374	9.82
327.827	9.8
328.28	9.77
328.733	9.74
329.186	9.72
329.639	9.7
330.092	9.68
330.545	9.67
330.997	9.64
331.45	9.63
331.903	9.61
332.355	9.61
332.808	9.6
333.26	9.6
333.713	9.58
334.165	9.58
334.617	9.59
335.069	9.58
335.522	9.58
335.974	9.57
336.426	9.58
336.878	9.57
337.33	9.56
337.782	9.56
338.234	9.54
338.686	9.53
339.137	9.51
339.589	9.49
340.041	9.47
340.493	9.45
340.944	9.43
341.396	9.4
341.847	9.37
342.299	9.33
342.75	9.3
343.201	9.28
343.653	9.26
344.104	9.24
344.555	9.22
345.006	9.2
345.457	9.16
345.908	9.15
346.359	9.13
346.81	9.13
347.261	9.1
347.712	9.09
348.163	9.08
348.613	9.05
349.064	9.03
349.515	9
349.965	8.99
350.416	8.99
350.866	8.97
351.317	8.96
351.767	8.95
352.217	8.94
352.668	8.93
353.118	8.91
353.568	8.92
354.018	8.92
354.468	8.91
354.918	8.91
355.368	8.91
355.818	8.89
356.268	8.88
356.718	8.88
357.168	8.86
357.617	8.85
358.067	8.85
358.517	8.83
358.966	8.82
359.416	8.83
359.865	8.81
360.315	8.79
360.764	8.79
361.213	8.78
361.663	8.76
362.112	8.76
362.561	8.76
363.01	8.75
363.459	8.74
363.908	8.73
364.357	8.72
364.806	8.7
365.255	8.71
365.703	8.69
366.152	8.68
366.601	8.68
367.05	8.68
367.498	8.66
367.947	8.64
368.395	8.65
368.844	8.63
369.292	8.63
369.74	8.63
370.189	8.62
370.637	8.61
371.085	8.61
371.533	8.6
371.981	8.59
372.429	8.57
372.877	8.57
373.325	8.53
373.773	8.53
374.221	8.52
374.669	8.51
375.116	8.49
375.564	8.48
376.012	8.47
376.459	8.46
376.907	8.46
377.354	8.47
377.801	8.47
378.249	8.47
378.696	8.47
379.143	8.46
379.591	8.45
380.038	8.46
380.485	8.46
380.932	8.46
381.379	8.46
381.826	8.45
382.273	8.44
382.72	8.44
383.166	8.45
383.613	8.45
384.06	8.45
384.506	8.45
384.953	8.44
385.4	8.45
385.846	8.43
386.292	8.44
386.739	8.44
387.185	8.46
387.631	8.46
388.078	8.47
388.524	8.46
388.97	8.47
389.416	8.46
389.862	8.46
390.308	8.47
390.754	8.49
391.2	8.49
391.645	8.51
392.091	8.51
392.537	8.52
392.983	8.53
393.428	8.55
393.874	8.58
394.319	8.61
394.765	8.62
395.21	8.62
395.655	8.63
396.101	8.66
396.546	8.67
396.991	8.68
397.436	8.67
397.881	8.69
398.326	8.71
398.771	8.73
399.216	8.75
399.661	8.79
400.106	8.82
400.551	8.84
400.995	8.83
401.44	8.84
401.885	8.85
402.329	8.86
402.774	8.86
403.218	8.86
403.663	8.87
404.107	8.88
404.551	8.88
404.995	8.88
405.44	8.88
405.884	8.89
406.328	8.9
406.772	8.92
407.216	8.94
407.66	8.95
408.104	8.96
408.547	8.97
408.991	8.96
409.435	8.95
409.879	8.95
410.322	8.97
410.766	8.99
411.209	8.99
411.653	9
412.096	9
412.54	9.01
412.983	9
413.426	9.03
413.869	9.04
414.312	9.06
414.756	9.1
415.199	9.11
415.642	9.14
416.085	9.16
416.527	9.2
416.97	9.21
417.413	9.21
417.856	9.22
418.298	9.2
418.741	9.19
419.184	9.2
419.626	9.2
420.069	9.21
420.511	9.2
420.953	9.17
421.396	9.16
421.838	9.18
422.28	9.21
422.722	9.24
423.164	9.26
423.606	9.28
424.048	9.28
424.49	9.3
424.932	9.3
425.374	9.3
425.816	9.32
426.258	9.29
426.699	9.25
427.141	9.2
427.582	9.18
428.024	9.18
428.465	9.19
428.907	9.21
429.348	9.21
429.789	9.19
430.231	9.19
430.672	9.2
431.113	9.23
431.554	9.26
431.995	9.29
432.436	9.29
432.877	9.28
433.318	9.26
433.759	9.24
434.2	9.23
434.64	9.24
435.081	9.23
435.522	9.25
435.962	9.26
436.403	9.28
436.843	9.3
437.284	9.31
437.724	9.32
438.164	9.34
438.604	9.34
439.045	9.35
439.485	9.36
439.925	9.37
440.365	9.35
440.805	9.33
441.245	9.33
441.685	9.34
442.125	9.36
442.564	9.39
443.004	9.38
443.444	9.42
443.883	9.45
444.323	9.43
444.762	9.47
445.202	9.52
445.641	9.56
446.081	9.58
446.52	9.57
446.959	9.57
447.398	9.61
447.837	9.65
448.276	9.66
448.716	9.66
449.154	9.71
449.593	9.73
450.032	9.71
450.471	9.71
450.91	9.7
451.349	9.7
451.787	9.71
452.226	9.68
452.664	9.67
453.103	9.66
453.541	9.67
453.98	9.63
454.418	9.61
454.856	9.58
455.295	9.59
455.733	9.57
456.171	9.57
456.609	9.56
457.047	9.55
457.485	9.53
457.923	9.52
458.361	9.5
458.798	9.52
459.236	9.53
459.674	9.52
460.111	9.52
460.549	9.51
460.987	9.5
461.424	9.48
461.862	9.49
462.299	9.47
462.736	9.46
463.173	9.46
463.611	9.43
464.048	9.43
464.485	9.43
464.922	9.42
465.359	9.43
465.796	9.4
466.233	9.43
466.67	9.43
467.106	9.43
467.543	9.46
467.98	9.44
468.416	9.47
468.853	9.46
469.29	9.45
469.726	9.46
470.162	9.47
470.599	9.5
471.035	9.49
471.471	9.5
471.907	9.5
472.344	9.51
472.78	9.52
473.216	9.5
473.652	9.5
474.088	9.52
474.523	9.51
474.959	9.5
475.395	9.49
475.831	9.51
476.266	9.5
476.702	9.49
477.138	9.48
477.573	9.47
478.008	9.46
478.444	9.46
478.879	9.45
479.314	9.45
479.75	9.45
480.185	9.45
480.62	9.42
481.055	9.42
481.49	9.41
481.925	9.4
482.36	9.38
482.795	9.36
483.229	9.35
483.664	9.36
484.099	9.35
484.534	9.33
484.968	9.33
485.403	9.33
485.837	9.32
486.271	9.33
486.706	9.33
487.14	9.34
487.574	9.36
488.009	9.37
488.443	9.37
488.877	9.37
489.311	9.39
489.745	9.41
490.179	9.42
490.613	9.42
491.046	9.44
491.48	9.47
491.914	9.5
492.348	9.52
492.781	9.55
493.215	9.57
493.648	9.61
494.082	9.65
494.515	9.67
494.948	9.71
495.382	9.76
495.815	9.81
496.248	9.87
496.681	9.91
497.114	9.97
497.547	10.03
497.98	10.1
498.413	10.17
498.846	10.26
499.279	10.36
499.711	10.46
500.144	10.55
500.577	10.64
501.009	10.75
501.442	10.87
501.874	10.99
502.306	11.12
502.739	11.25
503.171	11.4
503.603	11.55
504.036	11.71
504.468	11.87
504.9	12.06
505.332	12.26
505.764	12.46
506.196	12.66
506.627	12.9
507.059	13.13
507.491	13.38
507.923	13.63
508.354	13.9
508.786	14.17
509.217	14.46
509.649	14.74
510.08	15.05
510.512	15.36
510.943	15.68
511.374	15.99
511.805	16.33
512.237	16.67
512.668	17.01
513.099	17.37
513.53	17.74
513.961	18.13
514.391	18.52
514.822	18.91
515.253	19.29
515.684	19.68
516.114	20.1
516.545	20.49
516.975	20.93
517.406	21.36
517.836	21.78
518.267	22.21
518.697	22.64
519.127	23.07
519.558	23.49
519.988	23.92
520.418	24.34
520.848	24.77
521.278	25.21
521.708	25.58
522.138	25.98
522.567	26.36
522.997	26.71
523.427	27.08
523.857	27.44
524.286	27.81
524.716	28.16
525.145	28.5
525.575	28.81
526.004	29.12
526.433	29.46
526.863	29.77
527.292	30.07
527.721	30.39
528.15	30.66
528.579	30.94
529.008	31.17
529.437	31.4
529.866	31.63
530.295	31.86
530.724	32.09
531.152	32.31
531.581	32.49
532.01	32.65
532.438	32.82
532.867	32.98
533.295	33.13
533.723	33.27
534.152	33.41
534.58	33.52
535.008	33.63
535.436	33.74
535.865	33.82
536.293	33.91
536.721	34.01
537.149	34.08
537.576	34.14
538.004	34.19
538.432	34.25
538.86	34.31
539.287	34.37
539.715	34.43
540.143	34.44
540.57	34.47
540.998	34.52
541.425	34.56
541.852	34.6
542.28	34.65
542.707	34.69
543.134	34.73
543.561	34.77
543.988	34.8
544.415	34.84
544.842	34.9
545.269	34.96
545.696	34.98
546.123	35.01
546.549	35.08
546.976	35.14
547.403	35.16
547.829	35.21
548.256	35.25
548.682	35.28
549.108	35.31
549.535	35.36
549.961	35.36
550.387	35.37
550.813	35.37
551.24	35.35
551.666	35.34
552.092	35.33
552.518	35.29
552.943	35.28
553.369	35.24
553.795	35.19
554.221	35.12
554.646	35.07
555.072	35.02
555.498	34.95
555.923	34.87
556.349	34.77
556.774	34.65
557.199	34.57
557.625	34.45
558.05	34.32
558.475	34.2
558.9	34.06
559.325	33.91
559.75	33.77
560.175	33.63
560.6	33.44
561.025	33.27
561.449	33.1
561.874	32.92
562.299	32.73
562.723	32.56
563.148	32.35
563.572	32.14
563.997	31.92
564.421	31.68
564.846	31.44
565.27	31.23
565.694	30.98
566.118	30.72
566.542	30.46
566.966	30.21
567.39	29.93
567.814	29.65
568.238	29.36
568.662	29.12
569.086	28.84
569.509	28.55
569.933	28.27
570.357	28.01
570.78	27.76
571.204	27.51
571.627	27.26
572.05	27.01
572.474	26.79
572.897	26.57
573.32	26.33
573.743	26.13
574.166	25.92
574.589	25.74
575.012	25.56
575.435	25.35
575.858	25.2
576.281	25.01
576.704	24.85
577.126	24.69
577.549	24.54
577.972	24.4
578.394	24.26
578.817	24.12
579.239	23.99
579.661	23.84
580.084	23.71
580.506	23.57
580.928	23.46
581.35	23.35
581.772	23.25
582.194	23.13
582.616	23.03
583.038	22.93
583.46	22.84
583.882	22.73
584.303	22.64
584.725	22.56
585.147	22.45
585.568	22.35
585.99	22.26
586.411	22.16
586.833	22.08
587.254	22
587.675	21.9
588.096	21.8
588.518	21.74
588.939	21.67
589.36	21.57
589.781	21.5
590.202	21.44
590.623	21.37
591.043	21.32
591.464	21.25
591.885	21.21
592.305	21.15
592.726	21.12
593.147	21.06
593.567	21.01
593.987	20.99
594.408	20.97
594.828	20.92
595.248	20.89
595.669	20.84
596.089	20.79
596.509	20.73
596.929	20.68
597.349	20.61
597.769	20.57
598.189	20.52
598.608	20.44
599.028	20.38
599.448	20.33
599.867	20.25
600.287	20.18
600.706	20.12
601.126	20.05
601.545	19.99
601.965	19.93
602.384	19.83
602.803	19.73
603.222	19.65
603.641	19.55
604.061	19.45
604.48	19.36
604.898	19.27
605.317	19.19
605.736	19.08
606.155	18.97
606.574	18.87
606.992	18.78
607.411	18.7
607.829	18.56
608.248	18.46
608.666	18.34
609.085	18.24
609.503	18.14
609.921	18.02
610.339	17.93
610.758	17.82
611.176	17.71
611.594	17.61
612.012	17.49
612.43	17.45
612.847	17.36
613.265	17.28
613.683	17.19
614.101	17.08
614.518	16.98
614.936	16.91
615.353	16.83
615.771	16.74
616.188	16.67
616.606	16.59
617.023	16.49
617.44	16.43
617.857	16.35
618.274	16.29
618.691	16.23
619.108	16.18
619.525	16.13
619.942	16.08
620.359	16.03
620.776	15.99
621.192	15.96
621.609	15.95
622.026	15.91
622.442	15.89
622.859	15.86
623.275	15.85
623.691	15.83
624.108	15.8
624.524	15.78
624.94	15.76
625.356	15.75
625.772	15.74
626.188	15.75
626.604	15.72
627.02	15.7
627.436	15.68
627.852	15.66
628.268	15.65
628.683	15.62
629.099	15.62
629.514	15.6
629.93	15.57
630.345	15.54
630.761	15.47
631.176	15.44
631.591	15.4
632.007	15.36
632.422	15.32
632.837	15.26
633.252	15.2
633.667	15.1
634.082	15.02
634.497	14.93
634.911	14.81
635.326	14.72
635.741	14.62
636.155	14.51
636.57	14.4
636.984	14.27
637.399	14.13
637.813	14.01
638.228	13.89
638.642	13.75
639.056	13.62
639.47	13.51
639.884	13.38
640.298	13.25
640.712	13.11
641.126	12.97
641.54	12.83
641.954	12.73
642.368	12.59
642.781	12.47
643.195	12.34
643.609	12.22
644.022	12.11
644.436	12
644.849	11.9
645.262	11.82
645.676	11.73
646.089	11.62
646.502	11.52
646.915	11.46
647.328	11.39
647.741	11.34
648.154	11.3
648.567	11.25
648.98	11.21
649.393	11.16
649.805	11.11
650.218	11.08
650.631	11.06
651.043	11.03
651.456	11
651.868	10.95
652.28	10.92
652.693	10.86
653.105	10.81
653.517	10.76
653.929	10.73
654.341	10.68
654.753	10.63
655.165	10.6
655.577	10.53
655.989	10.47
656.401	10.41
656.813	10.36
657.224	10.31
657.636	10.27
658.047	10.21
658.459	10.15
658.87	10.11
659.282	10.04
659.693	9.97
660.104	9.93
660.515	9.88
660.926	9.84
661.338	9.79
661.749	9.74
662.159	9.68
662.57	9.64
662.981	9.6
663.392	9.55
663.803	9.52
664.213	9.49
664.624	9.47
665.035	9.45
665.445	9.42
665.855	9.38
666.266	9.38
666.676	9.38
667.086	9.36
667.497	9.35
667.907	9.35
668.317	9.35
668.727	9.35
669.137	9.35
669.547	9.36
669.956	9.37
670.366	9.39
670.776	9.4
671.186	9.41
671.595	9.42
672.005	9.44
672.414	9.47
672.824	9.49
673.233	9.52
673.642	9.52
674.052	9.54
674.461	9.56
674.87	9.59
675.279	9.61
675.688	9.64
676.097	9.67
676.506	9.7
676.915	9.73
677.323	9.78
677.732	9.81
678.141	9.87
678.549	9.92
678.958	9.97
679.366	10
679.775	10.06
680.183	10.12
680.592	10.18
681	10.24
681.408	10.3
681.816	10.36
682.224	10.43
682.632	10.53
683.04	10.62
683.448	10.74
683.856	10.86
684.264	11.01
684.671	11.16
685.079	11.35
685.487	11.56
685.894	11.8
686.302	12.07
686.709	12.37
687.116	12.69
687.524	13.08
687.931	13.48
688.338	13.93
688.745	14.43
689.152	14.97
689.559	15.55
689.966	16.16
690.373	16.84
690.78	17.55
691.187	18.29
691.593	19.09
692	19.9
692.407	20.74
692.813	21.61
693.22	22.5
693.626	23.41
694.032	24.31
694.439	25.29
694.845	26.23
695.251	27.18
695.657	28.15
696.063	29.12
696.469	30.08
696.875	31.05
697.281	32.02
697.687	33.01
698.093	33.97
698.498	34.96
698.904	35.93
699.31	36.88
699.715	37.83
700.12	38.77
700.526	39.7
700.931	40.61
701.337	41.55
701.742	42.45
702.147	43.33
702.552	44.23
702.957	45.07
703.362	45.94
703.767	46.77
704.172	47.62
704.577	48.46
704.981	49.28
705.386	50.09
705.791	50.9
706.195	51.67
706.6	52.43
707.004	53.19
707.408	53.94
707.813	54.65
708.217	55.38
708.621	56.06
709.025	56.75
709.43	57.41
709.834	58.09
710.237	58.72
710.641	59.41
711.045	60.02
711.449	60.65
711.853	61.28
712.256	61.91
712.66	62.51
713.064	63.11
713.467	63.68
713.87	64.25
714.274	64.82
714.677	65.37
715.08	65.9
715.484	66.47
715.887	67.02
716.29	67.53
716.693	68.03
717.096	68.55
717.499	69.06
717.901	69.55
718.304	70.06
718.707	70.5
719.109	70.97
719.512	71.47
719.915	71.89
720.317	72.31
720.719	72.73
721.122	73.15
721.524	73.55
721.926	73.97
722.328	74.36
722.731	74.73
723.133	75.12
723.535	75.5
723.937	75.81
724.338	76.14
724.74	76.42
725.142	76.67
725.544	76.93
725.945	77.2
726.347	77.47
726.748	77.69
727.15	77.92
727.551	78.2
727.952	78.42
728.354	78.67
728.755	78.92
729.156	79.19
729.557	79.54
729.958	79.79
730.359	80.02
730.76	80.24
731.161	80.47
731.562	80.69
731.962	80.86
732.363	81.04
732.763	81.21
733.164	81.36
733.564	81.47
733.965	81.55
734.365	81.67
734.766	81.78
735.166	81.86
735.566	81.96
735.966	82.07
736.366	82.13
736.766	82.25
737.166	82.36
737.566	82.45
737.966	82.57
738.365	82.69
738.765	82.8
739.165	82.89
739.564	82.99
739.964	83.05
740.363	83.12
740.763	83.2
741.162	83.2
741.561	83.26
741.96	83.37
742.36	83.44
742.759	83.46
743.158	83.46
743.557	83.57
743.955	83.66
744.354	83.75
744.753	83.82
745.152	83.92
745.55	84.05
745.949	84.1
746.348	84.14
746.746	84.17
747.144	84.27
747.543	84.42
747.941	84.5
748.339	84.59
748.737	84.69
749.136	84.79
749.534	84.84
749.932	84.85
750.33	84.92
750.727	84.97
751.125	85.02
751.523	85.05
751.921	85.09
752.318	85.08
752.716	85.07
753.113	85.04
753.511	85
753.908	84.95
754.305	84.97
754.703	84.94
755.1	84.88
755.497	84.87
755.894	84.83
756.291	84.76
756.688	84.7
757.085	84.65
757.482	84.65
757.878	84.69
758.275	84.69
758.672	84.69
759.068	84.67
759.465	84.69
759.861	84.69
760.258	84.67
760.654	84.69
761.05	84.73
761.447	84.73
761.843	84.67
762.239	84.62
762.635	84.6
763.031	84.57
763.427	84.53
763.822	84.47
764.218	84.44
764.614	84.38
765.01	84.31
765.405	84.25
765.801	84.18
766.196	84.17
766.592	84.16
766.987	84.16
767.382	84.16
767.778	84.19
768.173	84.21
768.568	84.18
768.963	84.25
769.358	84.26
769.753	84.33
770.148	84.36
770.542	84.35
770.937	84.34
771.332	84.37
771.726	84.39
772.121	84.37
772.515	84.4
772.91	84.4
773.304	84.39
773.699	84.42
774.093	84.35
774.487	84.38
774.881	84.42
775.275	84.43
775.669	84.41
776.063	84.39
776.457	84.41
776.851	84.39
777.245	84.38
777.638	84.38
778.032	84.38
778.425	84.44
778.819	84.4
779.212	84.37
779.606	84.36
779.999	84.34
780.392	84.31
780.786	84.32
781.179	84.35
781.572	84.38
781.965	84.4
782.358	84.38
782.751	84.35
783.143	84.38
783.536	84.44
783.929	84.45
784.322	84.49
784.714	84.55
785.107	84.55
785.499	84.54
785.891	84.58
786.284	84.54
786.676	84.62
787.068	84.6
787.46	84.6
787.852	84.62
788.245	84.67
788.636	84.68
789.028	84.7
789.42	84.72
789.812	84.73
790.204	84.71
790.595	84.75
790.987	84.72
791.378	84.78
791.77	84.81
792.161	84.78
792.553	84.77
792.944	84.79
793.335	84.79
793.726	84.78
794.117	84.77
794.508	84.78
794.899	84.8
795.29	84.79
795.681	84.8
796.072	84.8
796.463	84.82
796.853	84.83
797.244	84.85
797.634	84.82
798.025	84.85
798.415	84.86
798.806	84.87
799.196	84.9
799.586	84.94
799.976	84.92
800.366	84.92
800.756	84.94
801.146	84.92
801.536	84.9
801.926	84.94
802.316	84.97
802.706	85.05
803.095	85.09
803.485	85.15
803.874	85.16
804.264	85.3
804.653	85.29
805.043	85.33
805.432	85.35
805.821	85.35
806.21	85.42
806.599	85.48
806.988	85.46
807.377	85.52
807.766	85.5
808.155	85.53
808.544	85.42
808.933	85.48
809.321	85.54
809.71	85.62
810.098	85.69
810.487	85.67
810.875	85.66
811.264	85.7
811.652	85.69
812.04	85.7
812.428	85.73
812.816	85.82
813.204	85.83
813.592	85.81
813.98	85.84
814.368	85.84
814.756	85.88
815.144	85.93
815.531	85.96
815.919	85.98
816.306	86.05
816.694	86.03
817.081	85.99
817.469	86.04
817.856	86.1
818.243	86.1
818.63	86.17
819.017	86.18
819.404	86.18
819.791	86.16
820.178	86.2
820.565	86.21
820.952	86.27
821.339	86.34
821.725	86.36
822.112	86.37
822.498	86.41
822.885	86.4
823.271	86.44
823.657	86.4
824.044	86.42
824.43	86.41
824.816	86.39
825.202	86.35
825.588	86.35
825.974	86.33
826.36	86.32
826.746	86.34
827.132	86.28
827.517	86.24
827.903	86.24
828.289	86.26
828.674	86.22
829.06	86.23
829.445	86.26
829.83	86.25
830.216	86.23
830.601	86.22
830.986	86.19
831.371	86.23
831.756	86.21
832.141	86.25
832.526	86.21
832.911	86.25
833.295	86.22
833.68	86.23
834.065	86.24
834.449	86.26
834.834	86.21
835.218	86.16
835.603	86.16
835.987	86.13
836.371	86.1
836.755	86.09
837.139	86.06
837.524	86.04
837.908	85.99
838.291	85.97
838.675	85.96
839.059	85.95
839.443	85.95
839.827	85.89
840.21	85.93
840.594	85.91
840.977	85.88
841.361	85.87
841.744	85.9
842.127	85.88
842.511	85.83
842.894	85.79
843.277	85.8
843.66	85.8
844.043	85.82
844.426	85.78
844.809	85.78
845.191	85.77
845.574	85.76
845.957	85.7
846.339	85.68
846.722	85.7
847.104	85.69
847.487	85.71
847.869	85.69
848.252	85.67
848.634	85.68
849.016	85.72
849.398	85.73
849.78	85.74
850.162	85.75
850.544	85.79
850.926	85.79
851.307	85.84
851.689	85.77
852.071	85.81
852.452	85.82
852.834	85.81
853.215	85.79
853.597	85.79
853.978	85.77
854.359	85.77
854.741	85.74
855.122	85.72
855.503	85.7
855.884	85.73
856.265	85.7
856.646	85.65
857.026	85.65
857.407	85.6
857.788	85.61
858.169	85.62
858.549	85.62
858.93	85.61
859.31	85.62
859.69	85.62
860.071	85.62
860.451	85.6
860.831	85.62
861.211	85.61
861.591	85.65
861.971	85.64
862.351	85.65
862.731	85.64
863.111	85.63
863.491	85.66
863.87	85.64
864.25	85.65
864.629	85.64
865.009	85.64
865.388	85.63
865.768	85.65
866.147	85.66
866.526	85.62
866.905	85.62
867.284	85.62
867.663	85.62
868.042	85.64
868.421	85.64
868.8	85.66
869.179	85.64
869.558	85.62
869.936	85.57
870.315	85.54
870.693	85.59
871.072	85.63
871.45	85.6
871.828	85.61
872.207	85.62
872.585	85.6
872.963	85.57
873.341	85.59
873.719	85.6
874.097	85.63
874.475	85.66
874.853	85.63
875.23	85.61
875.608	85.64
875.986	85.6
876.363	85.55
876.741	85.55
877.118	85.54
877.495	85.53
877.873	85.51
878.25	85.49
878.627	85.46
879.004	85.47
879.381	85.47
879.758	85.46
880.135	85.49
880.512	85.5
880.889	85.51
881.265	85.56
881.642	85.57
882.019	85.58
882.395	85.6
882.772	85.59
883.148	85.58
883.524	85.57
883.901	85.56
884.277	85.51
884.653	85.53
885.029	85.48
885.405	85.44
885.781	85.41
886.157	85.42
886.532	85.37
886.908	85.42
887.284	85.41
887.659	85.42
888.035	85.45
888.411	85.43
888.786	85.4
889.161	85.43
889.537	85.47
889.912	85.46
890.287	85.43
890.662	85.45
891.037	85.37
891.412	85.34
891.787	85.32
892.162	85.23
892.536	85.25
892.911	85.21
893.286	85.14
893.66	85.07
894.035	85.05
894.409	85.02
894.784	84.98
895.158	84.96
895.532	84.95
895.906	84.9
896.281	84.91
896.655	84.84
897.029	84.85
897.402	84.87
897.776	84.86
898.15	84.85
898.524	84.82
898.898	84.78
899.271	84.79
899.645	84.79
900.018	84.79
900.392	84.78
900.765	84.79
901.138	84.79
901.511	84.76
901.884	84.79
902.258	84.8
902.631	84.83
903.003	84.85
903.376	84.84
903.749	84.83
904.122	84.85
904.495	84.83
904.867	84.86
905.24	84.87
905.612	84.84
905.985	84.8
906.357	84.74
906.729	84.72
907.102	84.7
907.474	84.68
907.846	84.65
908.218	84.6
908.59	84.56
908.962	84.52
909.334	84.49
909.705	84.5
910.077	84.45
910.449	84.48
910.82	84.44
911.192	84.43
911.563	84.37
911.935	84.33
912.306	84.34
912.677	84.37
913.048	84.39
913.419	84.34
913.79	84.32
914.161	84.38
914.532	84.34
914.903	84.34
915.274	84.34
915.645	84.33
916.015	84.39
916.386	84.33
916.756	84.28
917.127	84.26
917.497	84.24
917.868	84.21
918.238	84.22
918.608	84.24
918.978	84.19
919.348	84.16
919.718	84.15
920.088	84.15
920.458	84.21
920.828	84.23
921.198	84.19
921.567	84.17
921.937	84.21
922.306	84.13
922.676	84.12
923.045	84.11
923.415	84.13
923.784	84.17
924.153	84.09
924.522	84.02
924.891	83.97
925.26	83.93
925.629	83.93
925.998	83.83
926.367	83.79
926.736	83.7
927.104	83.72
927.473	83.69
927.842	83.57
928.21	83.59
928.578	83.52
928.947	83.53
929.315	83.5
929.683	83.46
930.051	83.4
930.42	83.35
930.788	83.35
931.156	83.27
931.523	83.21
931.891	83.11
932.259	82.9
932.627	82.8
932.994	82.64
933.362	82.49
933.729	82.36
934.097	82.27
934.464	82.15
934.831	81.95
935.199	81.8
935.566	81.63
935.933	81.61
936.3	81.5
936.667	81.41
937.034	81.29
937.401	81.18
937.767	81.12
938.134	81.03
938.501	80.93
938.867	80.97
939.234	81.04
939.6	81.05
939.967	80.97
940.333	81.09
940.699	81.22
941.065	81.45
941.431	81.64
941.798	81.7
942.163	81.93
942.529	82.03
942.895	82.1
943.261	82.1
943.627	82.27
943.992	82.34
944.358	82.4
944.723	82.44
945.089	82.44
945.454	82.45
945.82	82.57
946.185	82.63
946.55	82.85
946.915	82.92
947.28	83
947.645	83.01
948.01	83.08
948.375	83.13
948.74	83.09
949.104	83.09
949.469	82.97
949.834	82.88
950.198	82.63
950.562	82.5
950.927	82.5
951.291	82.36
951.655	82.23
952.02	82.19
952.384	82.22
952.748	82.15
953.112	82.06
953.476	82.12
953.839	82.06
954.203	82
954.567	81.92
954.931	81.81
955.294	81.81
955.658	81.77
956.021	81.76
956.385	81.7
956.748	81.63
957.111	81.52
957.474	81.47
957.837	81.44
958.2	81.41
958.563	81.33
958.926	81.26
959.289	81.27
959.652	81.31
960.015	81.16
960.377	81.09
960.74	81.05
961.102	81.08
961.465	81.08
961.827	80.94
962.189	80.92
962.552	80.88
962.914	80.86
963.276	80.87
963.638	80.77
964	80.77
964.362	80.67
964.724	80.64
965.085	80.58
965.447	80.42
965.809	80.47
966.17	80.49
966.532	80.48
966.893	80.44
967.255	80.27
967.616	80.26
967.977	80.3
968.338	80.3
968.699	80.25
969.061	80.08
969.421	80.08
969.782	80.03
970.143	79.9
970.504	79.89
970.865	79.78
971.225	79.79
971.586	79.72
971.946	79.61
972.307	79.55
972.667	79.59
973.027	79.71
973.388	79.67
973.748	79.71
974.108	79.73
974.468	79.68
974.828	79.75
975.188	79.77
975.548	79.69
975.907	79.68
976.267	79.66
976.627	79.7
976.986	79.6
977.346	79.62
977.705	79.55
978.064	79.57
978.424	79.46
978.783	79.42
979.142	79.34
979.501	79.39
979.86	79.27
980.219	79.13
980.578	79.01
980.937	79.03
981.296	79.02
981.654	79.06
982.013	79.03
982.371	79.06
982.73	78.97
983.088	78.86
983.447	78.83
983.805	78.84
984.163	78.9
984.521	78.82
984.879	78.84
985.237	78.86
985.595	78.77
985.953	78.73
986.311	78.82
986.669	78.8
987.026	78.99
987.384	78.97
987.741	79.06
988.099	79.08
988.456	79.09
988.814	79.02
989.171	78.95
989.528	78.87
989.885	78.82
990.242	78.78
990.599	78.83
990.956	78.68
991.313	78.7
991.67	78.64
992.027	78.6
992.383	78.63
992.74	78.61
993.096	78.61
993.453	78.56
993.809	78.67
994.165	78.52
994.522	78.49
994.878	78.42
995.234	78.18
995.59	78.06
995.946	78.13
996.302	77.92
996.658	77.89
997.013	77.74
997.369	77.75
997.725	77.71
998.08	77.85
998.436	77.73
998.791	77.76
999.147	77.86
999.502	77.8
999.857	77.63
1000.212	77.64
1000.567	77.67
1000.922	77.8
1001.277	77.73
1001.632	77.59
1001.987	77.42
1002.342	77.61
1002.696	77.49
1003.051	77.38
1003.406	77.45
1003.76	77.4
1004.114	77.56
1004.469	77.32
1004.823	77.11
1005.177	77.17
1005.531	77.1
1005.885	77.12
1006.239	76.89
1006.593	76.83
1006.947	76.91
1007.301	76.82
1007.655	76.91
1008.008	76.59
1008.362	76.73
1008.715	76.86
1009.069	76.55
1009.422	76.4
1009.776	76.34
1010.129	76.1
1010.482	76.19
1010.835	76.23
1011.188	76.21
1011.541	75.93
1011.894	76.12
1012.247	76.03
1012.6	75.9
1012.952	76.09
1013.305	76.14
1013.657	76.01
1014.01	76.35
1014.362	76.44
1014.715	76.25
1015.067	76.24
1015.419	76.38
1015.771	76.39
1016.123	76.28
1016.475	76.3
1016.827	76.61
1017.179	76.47
1017.531	76.31
1017.883	76.32
1018.234	76.06
1018.586	75.96
1018.938	76
1019.289	75.72
1019.64	75.67
1019.992	75.87
1020.343	75.55
1020.694	75.12
1021.045	75.2
1021.396	75.46
1021.747	75.2
1022.098	75.2
1022.449	75.12
1022.8	75.01
1023.151	75.05
1023.501	74.73
1023.852	74.68
1024.202	74.67
1024.553	74.55
1024.903	74.07
1025.253	73.82
1025.604	73.51
1025.954	73.45
1026.304	73.85
1026.654	73.63
1027.004	73.85
1027.354	74.16
1027.703	73.76
1028.053	73.64
1028.403	73.43
1028.753	74.12
1029.102	74.02
1029.452	74.18
1029.801	74.12
1030.15	73.74
1030.499	73.98
897.758	481.51
901.051	488.11
904.343	496.23
907.636	490.29
910.928	482.27
914.22	493.45
917.511	481.89
920.803	466.44
924.094	444.84
927.384	452.17
930.675	438.17
933.965	433.71
937.255	434.21
940.544	415.24
943.834	396.24
947.123	389.97
950.411	369.77
953.7	365.15
956.988	353.79
960.276	340.88
963.563	338.04
966.851	319.35
970.138	316.09
973.424	296.28
976.711	292.17
979.997	285.32
983.283	280.08
986.568	270.55
989.853	262.58
993.138	253.49
996.423	251.98
999.708	243.85
1002.992	246.25
1006.275	238.73
1009.559	237.73
1012.842	231.78
1016.125	224.8
1019.408	220.41
1022.69	219.88
1025.972	218.41
1029.254	215.18
1032.536	211.19
1035.817	204.06
1039.098	201.02
1042.379	198.47
1045.659	195.71
1048.939	195.89
1052.219	192.77
1055.498	189.88
1058.778	186.5
1062.057	184.95
1065.335	183.53
1068.614	181.32
1071.892	181.08
1075.17	178.72
1078.447	175.74
1081.724	174.82
1085.001	169.44
1088.278	170.79
1091.554	170.56
1094.83	169.41
1098.106	167.09
1101.382	166.1
1104.657	165.86
1107.932	164.89
1111.206	163.49
1114.481	161.89
1117.755	161.11
1121.029	162.43
1124.302	159.23
1127.575	156.51
1130.848	156.44
1134.121	154.79
1137.393	154.59
1140.665	153.35
1143.937	151.93
1147.208	150.99
1150.48	150.63
1153.75	148.91
1157.021	148.12
1160.291	147.62
1163.561	147.75
1166.831	147.14
1170.101	145.94
1173.37	145.52
1176.639	143.93
1179.907	143.71
1183.176	143.02
1186.444	143.78
1189.711	142.8
1192.979	142.2
1196.246	142.72
1199.513	142.86
1202.78	142.11
1206.046	142.62
1209.312	142.72
1212.578	144.14
1215.843	146.08
1219.108	146.47
1222.373	147.49
1225.638	150.23
1228.902	153.03
1232.166	157.36
1235.43	159.34
1238.693	162.59
1241.956	166.11
1245.219	169.42
1248.482	170.06
1251.744	169.57
1255.006	170.36
1258.268	167.05
1261.529	165.88
1264.79	161.99
1268.051	158.73
1271.312	157.46
1274.572	154.89
1277.832	150.89
1281.092	149.56
1284.351	146.78
1287.61	146.41
1290.869	146.19
1294.128	145.74
1297.386	145.47
1300.644	145.16
1303.902	144.12
1307.159	142.99
1310.416	144.34
1313.673	146.51
1316.93	147.04
1320.186	149.02
1323.442	150.15
1326.697	152.35
1329.953	152.49
1333.208	155.43
1336.463	161.19
1339.717	163.89
1342.972	170.47
1346.226	173.42
1349.479	174.23
1352.733	179.65
1355.986	184.24
1359.238	188.24
1362.491	188.6
1365.743	195.4
1368.995	198.14
1372.247	196.65
1375.498	195.6
1378.749	200.53
1382	201.37
1385.251	198.97
1388.501	198.79
1391.751	199.2
1395	195.8
1398.25	197.7
1401.499	195.95
1404.748	193.27
1407.996	188.44
1411.244	188.53
1414.492	184.8
1417.74	180
1420.987	177.28
1424.234	173.53
1427.481	167.07
1430.728	164.32
1433.974	158.55
1437.22	155.05
1440.465	150.23
1443.711	147.2
1446.956	143.13
1450.201	138.11
1453.445	132.21
1456.689	129.2
1459.933	124.93
1463.177	120.45
1466.42	118.74
1469.663	115.91
1472.906	112.14
1476.148	110
1479.391	108.22
1482.633	106.52
1485.874	105.93
1489.115	104.78
1492.356	103.38
1495.597	102.52
1498.838	102.65
1502.078	101.54
1505.318	101.41
1508.557	100.75
1511.797	100.06
1515.036	100.24
1518.274	99.89
1521.513	98.97
1524.751	98.58
1527.989	100.56
1531.227	100.3
1534.464	100.41
1537.701	99.84
1540.938	99.62
1544.174	100.53
1547.41	100.94
1550.646	100.93
1553.882	101.12
1557.117	101.06
1560.352	101.21
1563.587	99.66
1566.821	100.02
1570.055	99.34
1573.289	100.03
1576.523	99.98
1579.756	99.56
1582.989	99.54
1586.222	99.1
1589.454	100.04
1592.686	99.88
1595.918	99.49
1599.15	99.67
1602.381	99.83
1605.612	100.38
1608.843	99.77
1612.073	100.99
1615.303	100.89
1618.533	100.54
1621.762	101.29
1624.992	100.42
1628.221	100.4
1631.449	101.51
1634.678	101.07
1637.906	101.42
1641.134	101.38
1644.361	101.85
1647.588	101.08
1650.815	101.86
1654.042	102.24
1657.269	101.94
1660.495	102.57
1663.72	102.63
1666.946	102.58
1670.171	103.6
1673.396	103.54
1676.621	103.96
1679.845	104.24
1683.069	104.12
1686.293	103.52
1689.517	103.9
1692.74	104.01
1695.963	103.51
1699.185	104.44
1702.408	103.86
1705.63	103.42
1708.852	104.62
1712.073	103.79
1715.294	103.59
1718.515	104.02
1721.736	104.12
1724.956	104.53
1728.176	104.07
1731.396	104.86
1734.616	104.48
1737.835	104.74
1741.054	105.11
1744.272	104.01
1747.491	104.19
1750.709	105.07
1753.927	105.06
1757.144	105.46
1760.361	104.96
1763.578	106.22
1766.795	106.2
1770.011	106.66
1773.227	107.38
1776.443	107.58
1779.658	107.15
1782.874	108.47
1786.089	107.63
1789.303	107.74
1792.518	108.23
1795.732	109.08
1798.945	109.36
1802.159	109.49
1805.372	110.26
1808.585	110.68
1811.797	111.51
1815.01	112.94
1818.222	113.24
1821.434	113.85
1824.645	114.82
1827.856	115.89
1831.067	116.12
1834.278	117
1837.488	117.72
1840.698	118.51
1843.908	118.3
1847.117	118.96
1850.326	119.75
1853.535	120.76
1856.744	121.59
1859.952	122.1
1863.16	121.73
1866.368	120.79
1869.575	119.85
1872.782	119.38
1875.989	117.74
1879.196	117.79
1882.402	116.61
1885.608	116.15
1888.814	114.31
1892.019	114.57
1895.224	112.54
1898.429	113.25
1901.634	113.23
1904.838	113.88
1908.042	114.14
1911.246	113.51
1914.449	113.27
1917.652	113.01
1920.855	112.62
1924.058	112.16
1927.26	111.23
1930.462	112.33
1933.664	111.79
1936.865	112.56
1940.066	110.29
1943.267	110.43
1946.467	111.04
1949.668	110.75
1952.868	111.51
1956.067	112.12
1959.267	112.01
1962.466	112.7
1965.665	113.66
1968.863	114.07
1972.061	114.39
1975.259	117.17
1978.457	117.93
1981.654	119.22
1984.852	120.91
1988.048	121.77
1991.245	123.29
1994.441	125.82
1997.637	128.49
2000.833	129.86
2004.028	131.58
2007.223	135.35
2010.418	138.34
2013.613	143.26
2016.807	146.28
2020.001	148.43
2023.194	152.28
2026.388	157.75
2029.581	166.83
2032.774	169.48
2035.966	174.58
2039.158	178.59
2042.35	180.2
2045.542	182.25
2048.733	189.69
2051.924	191.61
2055.115	194.4
2058.306	196.66
2061.496	197.61
2064.686	197.69
2067.875	199.57
2071.065	200.43
2074.254	201.62
2077.442	207.72
2080.631	208.47
2083.819	207.45
2087.007	214.02
2090.195	217.8
2093.382	217.15
2096.569	218.45
2099.756	221.2
2102.942	224.17
2106.128	229.84
2109.314	230.11
2112.5	231.25
2115.685	230.78
2118.87	231.46
2122.055	229.13
2125.239	232.59
2128.424	240.59
2131.608	236.82
2134.791	238.34
2137.974	238.53
2141.157	240.79
2144.34	242.65
2147.523	247.08
2150.705	254.15
2153.887	251.46
2157.068	255.53
2160.25	257.28
2163.431	255.37
2166.611	262.55
2169.792	264.26
2172.972	268.12
2176.152	266.86
2179.331	273.67
2182.511	273.1
2185.69	276.53
2188.868	285.96
2192.047	292.21
2195.225	297.91
2198.403	300.28
2201.58	297.85
2204.758	306.83
2207.935	306.73
2211.111	316.86
2214.288	318.2
2217.464	321.1
2220.64	320.98
2223.815	321.31
2226.991	316.1
2230.166	317.17
2233.34	325.91
2236.515	333.87
2239.689	325.77
2242.863	335.45
2246.036	327.47
2249.209	335.92
2252.382	334.93
2255.555	347.18
2258.727	350.84
2261.9	363.31
2265.071	370.04
2268.243	364.94
2271.414	375.08
2274.585	385.32
2277.756	385.49
2280.926	400.04
2284.096	397.58
2287.266	397.57
2290.436	390.23
2293.605	399.95
2296.774	410.58
2299.942	410.5
2303.111	425.36
2306.279	433.83
2309.447	434.76
2312.614	434.95
2315.781	443.47
2318.948	451.17
2322.115	461.51
2325.281	487.07
2328.447	480.56
2331.613	485.27
2334.779	490.82
2337.944	496.11
2341.109	503.04
2344.274	508.05
2347.438	519.32
2350.602	533.25
2353.766	563.75
2356.929	565.74
2360.092	569.72
2363.255	574.02
2366.418	580.76
2369.58	589.47
2372.742	599.04
2375.904	593.87
2379.066	611.38
2382.227	641.26
2385.388	631.66
2388.548	601.24
2391.709	592.73
2394.869	605.84
2398.029	614.97
2401.188	611.27
2404.347	631.66
2407.506	641.94
2410.665	620.01
2413.823	624.98
2416.981	630.6
2420.139	608.02
2423.296	650.37
2426.453	698.94
2429.61	673.47
2432.767	708.13
2435.923	736.02
2439.079	711.46
2442.235	725.19
2445.391	746.02
2448.546	735.86
2451.701	777.53
2454.855	824.29
2458.009	731.4
2461.163	747.06
2464.317	751.14
2467.471	737.65
2470.624	760.41
2473.777	743.59
2476.929	722.65
2480.082	764.17
2483.234	805.69
2486.385	812.92
2489.537	832.28
2492.688	926.57
2495.839	904.7
2498.989	929.87
2502.14	930.03
2505.29	892.18
2508.439	992.97
2511.589	1012.79
2514.738	982.15
2517.887	978.25
2521.035	919.76
2524.183	896.42
2527.331	881.42
2530.479	856.52
2533.627	876.26
