Data from C_2_dec_va_2n_050_Splice17_12.txt Node
Date: Sat Feb 29 14:34:26 EST 2020
User: sa697716
Spectrometer: FLMS03696
Trigger mode: 0
Integration Time (sec): 3.180400E-1
Scans to average: 20
Electric dark correction enabled: true
Nonlinearity correction enabled: true
Boxcar width: 5
XAxis mode: Wavelengths
Number of Pixels in Spectrum: 2048
>>>>>Begin Spectral Data<<<<<
187.83	67.11
188.298	61.62
188.766	56.2
189.233	51.42
189.701	73.96
190.169	71.15
190.636	74.79
191.104	95.37
191.571	353.72
192.039	268.31
192.506	-501.08
192.974	-1673.54
193.441	668.86
193.908	18.67
194.375	52.45
194.842	212.63
195.31	82.34
195.777	103.3
196.244	40.14
196.711	28.57
197.177	22.31
197.644	22.34
198.111	21.12
198.578	21.46
199.045	20.51
199.511	20.03
199.978	19.9
200.445	20.34
200.911	20.32
201.378	20.52
201.844	20.49
202.31	20.91
202.777	20.93
203.243	21.6
203.709	21.95
204.176	21.87
204.642	22.06
205.108	22.57
205.574	23.08
206.04	22.98
206.506	23.26
206.972	23.01
207.438	23.07
207.903	23.4
208.369	23.11
208.835	22.85
209.301	22.98
209.766	23
210.232	22.72
210.697	22.53
211.163	22.53
211.628	21.88
212.094	21.87
212.559	21.48
213.024	20.74
213.49	20.31
213.955	19.91
214.42	19.6
214.885	19.02
215.35	18.71
215.815	17.6
216.28	16.86
216.745	16.44
217.21	15.52
217.675	14.9
218.14	14.26
218.604	13.58
219.069	13.06
219.534	12.51
219.998	12
220.463	11.62
220.927	11.4
221.392	11.12
221.856	10.79
222.32	10.6
222.785	10.41
223.249	10.23
223.713	10.07
224.177	9.88
224.642	9.75
225.106	9.64
225.57	9.49
226.034	9.34
226.497	9.19
226.961	9.06
227.425	8.92
227.889	8.77
228.353	8.65
228.816	8.57
229.28	8.45
229.744	8.32
230.207	8.24
230.671	8.12
231.134	8.02
231.597	7.91
232.061	7.83
232.524	7.75
232.987	7.66
233.45	7.56
233.914	7.46
234.377	7.38
234.84	7.29
235.303	7.2
235.766	7.11
236.229	7.03
236.691	6.96
237.154	6.9
237.617	6.82
238.08	6.74
238.542	6.67
239.005	6.59
239.468	6.51
239.93	6.45
240.393	6.37
240.855	6.31
241.317	6.25
241.78	6.21
242.242	6.13
242.704	6.06
243.166	6.01
243.629	5.96
244.091	5.9
244.553	5.86
245.015	5.81
245.477	5.77
245.939	5.71
246.4	5.65
246.862	5.58
247.324	5.54
247.786	5.49
248.247	5.45
248.709	5.4
249.17	5.35
249.632	5.31
250.093	5.24
250.555	5.2
251.016	5.15
251.477	5.1
251.939	5.06
252.4	5.02
252.861	4.99
253.322	4.95
253.783	4.93
254.244	4.89
254.705	4.85
255.166	4.85
255.627	4.82
256.088	4.8
256.549	4.79
257.009	4.76
257.47	4.73
257.931	4.7
258.391	4.66
258.852	4.62
259.312	4.6
259.773	4.57
260.233	4.53
260.694	4.5
261.154	4.47
261.614	4.44
262.074	4.42
262.534	4.39
262.994	4.35
263.455	4.34
263.915	4.31
264.374	4.28
264.834	4.26
265.294	4.23
265.754	4.21
266.214	4.19
266.673	4.17
267.133	4.15
267.593	4.13
268.052	4.11
268.512	4.09
268.971	4.08
269.431	4.07
269.89	4.05
270.349	4.03
270.809	4.02
271.268	4
271.727	3.99
272.186	3.98
272.645	3.96
273.104	3.95
273.563	3.94
274.022	3.93
274.481	3.91
274.94	3.9
275.399	3.89
275.857	3.88
276.316	3.87
276.775	3.85
277.233	3.83
277.692	3.81
278.15	3.79
278.609	3.77
279.067	3.75
279.525	3.74
279.984	3.72
280.442	3.71
280.9	3.7
281.358	3.68
281.816	3.67
282.274	3.66
282.732	3.66
283.19	3.65
283.648	3.65
284.106	3.64
284.564	3.64
285.021	3.64
285.479	3.62
285.937	3.62
286.394	3.61
286.852	3.61
287.309	3.6
287.767	3.59
288.224	3.58
288.682	3.57
289.139	3.56
289.596	3.53
290.053	3.5
290.511	3.49
290.968	3.47
291.425	3.45
291.882	3.44
292.339	3.42
292.796	3.4
293.252	3.38
293.709	3.36
294.166	3.34
294.623	3.34
295.079	3.33
295.536	3.32
295.992	3.3
296.449	3.29
296.905	3.27
297.362	3.26
297.818	3.25
298.274	3.23
298.731	3.22
299.187	3.21
299.643	3.19
300.099	3.19
300.555	3.17
301.011	3.17
301.467	3.15
301.923	3.15
302.379	3.14
302.835	3.14
303.291	3.13
303.746	3.12
304.202	3.11
304.658	3.1
305.113	3.1
305.569	3.08
306.024	3.08
306.479	3.07
306.935	3.07
307.39	3.06
307.845	3.06
308.301	3.07
308.756	3.07
309.211	3.07
309.666	3.07
310.121	3.06
310.576	3.07
311.031	3.06
311.486	3.07
311.94	3.06
312.395	3.06
312.85	3.04
313.305	3.03
313.759	3.03
314.214	3.03
314.668	3.03
315.123	3.03
315.577	3.02
316.032	3.02
316.486	3.01
316.94	3
317.394	3
317.849	2.99
318.303	2.99
318.757	2.97
319.211	2.95
319.665	2.93
320.119	2.92
320.572	2.93
321.026	2.92
321.48	2.91
321.934	2.91
322.387	2.89
322.841	2.89
323.295	2.88
323.748	2.88
324.202	2.87
324.655	2.87
325.108	2.86
325.562	2.83
326.015	2.82
326.468	2.81
326.921	2.79
327.374	2.79
327.827	2.78
328.28	2.77
328.733	2.76
329.186	2.76
329.639	2.75
330.092	2.75
330.545	2.75
330.997	2.76
331.45	2.75
331.903	2.75
332.355	2.75
332.808	2.76
333.26	2.76
333.713	2.76
334.165	2.76
334.617	2.77
335.069	2.77
335.522	2.77
335.974	2.77
336.426	2.78
336.878	2.78
337.33	2.77
337.782	2.77
338.234	2.77
338.686	2.76
339.137	2.77
339.589	2.76
340.041	2.76
340.493	2.75
340.944	2.74
341.396	2.74
341.847	2.73
342.299	2.72
342.75	2.7
343.201	2.68
343.653	2.67
344.104	2.65
344.555	2.64
345.006	2.63
345.457	2.62
345.908	2.61
346.359	2.61
346.81	2.6
347.261	2.59
347.712	2.59
348.163	2.59
348.613	2.58
349.064	2.56
349.515	2.56
349.965	2.56
350.416	2.56
350.866	2.55
351.317	2.55
351.767	2.55
352.217	2.54
352.668	2.55
353.118	2.55
353.568	2.56
354.018	2.56
354.468	2.55
354.918	2.56
355.368	2.56
355.818	2.55
356.268	2.56
356.718	2.55
357.168	2.54
357.617	2.53
358.067	2.52
358.517	2.52
358.966	2.53
359.416	2.54
359.865	2.54
360.315	2.54
360.764	2.54
361.213	2.53
361.663	2.53
362.112	2.55
362.561	2.55
363.01	2.56
363.459	2.55
363.908	2.55
364.357	2.54
364.806	2.53
365.255	2.54
365.703	2.53
366.152	2.54
366.601	2.55
367.05	2.56
367.498	2.57
367.947	2.59
368.395	2.6
368.844	2.6
369.292	2.61
369.74	2.63
370.189	2.63
370.637	2.65
371.085	2.66
371.533	2.66
371.981	2.67
372.429	2.68
372.877	2.68
373.325	2.69
373.773	2.71
374.221	2.72
374.669	2.74
375.116	2.76
375.564	2.79
376.012	2.81
376.459	2.84
376.907	2.86
377.354	2.89
377.801	2.91
378.249	2.95
378.696	2.99
379.143	3.03
379.591	3.06
380.038	3.09
380.485	3.12
380.932	3.15
381.379	3.18
381.826	3.22
382.273	3.25
382.72	3.29
383.166	3.3
383.613	3.33
384.06	3.36
384.506	3.39
384.953	3.42
385.4	3.45
385.846	3.47
386.292	3.51
386.739	3.54
387.185	3.57
387.631	3.61
388.078	3.64
388.524	3.66
388.97	3.66
389.416	3.68
389.862	3.71
390.308	3.72
390.754	3.74
391.2	3.76
391.645	3.78
392.091	3.8
392.537	3.81
392.983	3.83
393.428	3.86
393.874	3.89
394.319	3.9
394.765	3.91
395.21	3.92
395.655	3.93
396.101	3.95
396.546	3.96
396.991	3.97
397.436	3.96
397.881	3.96
398.326	3.98
398.771	3.99
399.216	4
399.661	4.01
400.106	4.03
400.551	4
400.995	3.98
401.44	3.96
401.885	3.95
402.329	3.94
402.774	3.92
403.218	3.9
403.663	3.87
404.107	3.87
404.551	3.86
404.995	3.83
405.44	3.84
405.884	3.84
406.328	3.83
406.772	3.83
407.216	3.83
407.66	3.84
408.104	3.84
408.547	3.85
408.991	3.83
409.435	3.82
409.879	3.81
410.322	3.81
410.766	3.81
411.209	3.81
411.653	3.8
412.096	3.79
412.54	3.78
412.983	3.78
413.426	3.78
413.869	3.8
414.312	3.81
414.756	3.82
415.199	3.82
415.642	3.84
416.085	3.85
416.527	3.87
416.97	3.89
417.413	3.88
417.856	3.87
418.298	3.87
418.741	3.85
419.184	3.85
419.626	3.84
420.069	3.84
420.511	3.83
420.953	3.82
421.396	3.82
421.838	3.82
422.28	3.84
422.722	3.85
423.164	3.84
423.606	3.85
424.048	3.85
424.49	3.85
424.932	3.84
425.374	3.85
425.816	3.85
426.258	3.83
426.699	3.79
427.141	3.76
427.582	3.76
428.024	3.77
428.465	3.78
428.907	3.77
429.348	3.77
429.789	3.78
430.231	3.78
430.672	3.78
431.113	3.8
431.554	3.82
431.995	3.85
432.436	3.86
432.877	3.85
433.318	3.85
433.759	3.86
434.2	3.88
434.64	3.91
435.081	3.92
435.522	3.95
435.962	3.97
436.403	3.99
436.843	4
437.284	4.02
437.724	4.05
438.164	4.07
438.604	4.09
439.045	4.09
439.485	4.08
439.925	4.09
440.365	4.08
440.805	4.08
441.245	4.07
441.685	4.09
442.125	4.08
442.564	4.09
443.004	4.1
443.444	4.13
443.883	4.15
444.323	4.17
444.762	4.21
445.202	4.27
445.641	4.29
446.081	4.34
446.52	4.36
446.959	4.38
447.398	4.43
447.837	4.46
448.276	4.5
448.716	4.53
449.154	4.58
449.593	4.6
450.032	4.6
450.471	4.64
450.91	4.62
451.349	4.63
451.787	4.64
452.226	4.64
452.664	4.63
453.103	4.63
453.541	4.63
453.98	4.61
454.418	4.58
454.856	4.57
455.295	4.55
455.733	4.57
456.171	4.56
456.609	4.57
457.047	4.57
457.485	4.56
457.923	4.54
458.361	4.52
458.798	4.52
459.236	4.54
459.674	4.54
460.111	4.54
460.549	4.52
460.987	4.52
461.424	4.51
461.862	4.51
462.299	4.52
462.736	4.51
463.173	4.53
463.611	4.51
464.048	4.51
464.485	4.51
464.922	4.52
465.359	4.53
465.796	4.52
466.233	4.52
466.67	4.52
467.106	4.51
467.543	4.54
467.98	4.53
468.416	4.55
468.853	4.55
469.29	4.56
469.726	4.56
470.162	4.55
470.599	4.56
471.035	4.57
471.471	4.58
471.907	4.58
472.344	4.58
472.78	4.58
473.216	4.58
473.652	4.57
474.088	4.58
474.523	4.59
474.959	4.57
475.395	4.56
475.831	4.56
476.266	4.55
476.702	4.55
477.138	4.54
477.573	4.54
478.008	4.54
478.444	4.53
478.879	4.54
479.314	4.52
479.75	4.55
480.185	4.54
480.62	4.55
481.055	4.54
481.49	4.53
481.925	4.53
482.36	4.53
482.795	4.52
483.229	4.52
483.664	4.51
484.099	4.51
484.534	4.5
484.968	4.51
485.403	4.5
485.837	4.51
486.271	4.53
486.706	4.53
487.14	4.55
487.574	4.57
488.009	4.6
488.443	4.6
488.877	4.63
489.311	4.65
489.745	4.67
490.179	4.7
490.613	4.73
491.046	4.76
491.48	4.8
491.914	4.83
492.348	4.87
492.781	4.89
493.215	4.91
493.648	4.96
494.082	5
494.515	5.04
494.948	5.08
495.382	5.13
495.815	5.19
496.248	5.25
496.681	5.3
497.114	5.36
497.547	5.43
497.98	5.51
498.413	5.58
498.846	5.66
499.279	5.75
499.711	5.84
500.144	5.92
500.577	6
501.009	6.09
501.442	6.2
501.874	6.31
502.306	6.42
502.739	6.53
503.171	6.66
503.603	6.8
504.036	6.94
504.468	7.09
504.9	7.24
505.332	7.41
505.764	7.58
506.196	7.76
506.627	7.93
507.059	8.11
507.491	8.31
507.923	8.51
508.354	8.71
508.786	8.92
509.217	9.13
509.649	9.37
510.08	9.62
510.512	9.85
510.943	10.1
511.374	10.36
511.805	10.63
512.237	10.91
512.668	11.19
513.099	11.48
513.53	11.79
513.961	12.1
514.391	12.39
514.822	12.69
515.253	13.02
515.684	13.34
516.114	13.66
516.545	14
516.975	14.34
517.406	14.68
517.836	15.01
518.267	15.35
518.697	15.7
519.127	16.07
519.558	16.41
519.988	16.76
520.418	17.09
520.848	17.43
521.278	17.78
521.708	18.06
522.138	18.39
522.567	18.7
522.997	19
523.427	19.32
523.857	19.61
524.286	19.9
524.716	20.19
525.145	20.48
525.575	20.75
526.004	21.01
526.433	21.31
526.863	21.57
527.292	21.83
527.721	22.08
528.15	22.29
528.579	22.51
529.008	22.73
529.437	22.94
529.866	23.12
530.295	23.32
530.724	23.5
531.152	23.68
531.581	23.84
532.01	23.98
532.438	24.12
532.867	24.27
533.295	24.4
533.723	24.53
534.152	24.63
534.58	24.76
535.008	24.85
535.436	24.93
535.865	25.03
536.293	25.12
536.721	25.19
537.149	25.26
537.576	25.35
538.004	25.41
538.432	25.47
538.86	25.53
539.287	25.59
539.715	25.66
540.143	25.74
540.57	25.77
540.998	25.82
541.425	25.88
541.852	25.94
542.28	25.98
542.707	26.04
543.134	26.08
543.561	26.1
543.988	26.13
544.415	26.17
544.842	26.21
545.269	26.26
545.696	26.29
546.123	26.32
546.549	26.35
546.976	26.38
547.403	26.4
547.829	26.44
548.256	26.51
548.682	26.54
549.108	26.57
549.535	26.6
549.961	26.6
550.387	26.64
550.813	26.64
551.24	26.66
551.666	26.7
552.092	26.71
552.518	26.71
552.943	26.69
553.369	26.68
553.795	26.65
554.221	26.62
554.646	26.6
555.072	26.55
555.498	26.51
555.923	26.45
556.349	26.37
556.774	26.3
557.199	26.25
557.625	26.16
558.05	26.07
558.475	25.98
558.9	25.88
559.325	25.77
559.75	25.64
560.175	25.52
560.6	25.39
561.025	25.23
561.449	25.09
561.874	24.94
562.299	24.81
562.723	24.67
563.148	24.52
563.572	24.38
563.997	24.23
564.421	24.07
564.846	23.92
565.27	23.76
565.694	23.6
566.118	23.42
566.542	23.25
566.966	23.08
567.39	22.87
567.814	22.68
568.238	22.45
568.662	22.26
569.086	22.06
569.509	21.87
569.933	21.65
570.357	21.45
570.78	21.26
571.204	21.05
571.627	20.86
572.05	20.7
572.474	20.52
572.897	20.36
573.32	20.18
573.743	20.02
574.166	19.85
574.589	19.7
575.012	19.56
575.435	19.42
575.858	19.29
576.281	19.16
576.704	19.03
577.126	18.9
577.549	18.79
577.972	18.68
578.394	18.56
578.817	18.47
579.239	18.37
579.661	18.26
580.084	18.16
580.506	18.05
580.928	17.94
581.35	17.84
581.772	17.76
582.194	17.66
582.616	17.57
583.038	17.48
583.46	17.38
583.882	17.3
584.303	17.23
584.725	17.14
585.147	17.06
585.568	16.98
585.99	16.9
586.411	16.82
586.833	16.75
587.254	16.66
587.675	16.61
588.096	16.55
588.518	16.49
588.939	16.45
589.36	16.37
589.781	16.32
590.202	16.27
590.623	16.22
591.043	16.17
591.464	16.12
591.885	16.08
592.305	16.02
592.726	15.97
593.147	15.93
593.567	15.85
593.987	15.83
594.408	15.79
594.828	15.74
595.248	15.71
595.669	15.65
596.089	15.62
596.509	15.57
596.929	15.52
597.349	15.48
597.769	15.42
598.189	15.41
598.608	15.36
599.028	15.31
599.448	15.27
599.867	15.21
600.287	15.17
600.706	15.11
601.126	15.05
601.545	15
601.965	14.94
602.384	14.88
602.803	14.8
603.222	14.73
603.641	14.68
604.061	14.6
604.48	14.52
604.898	14.45
605.317	14.38
605.736	14.33
606.155	14.25
606.574	14.18
606.992	14.09
607.411	14.01
607.829	13.89
608.248	13.81
608.666	13.73
609.085	13.66
609.503	13.57
609.921	13.47
610.339	13.38
610.758	13.3
611.176	13.2
611.594	13.13
612.012	13.05
612.43	13.03
612.847	12.94
613.265	12.87
613.683	12.77
614.101	12.68
614.518	12.6
614.936	12.52
615.353	12.44
615.771	12.38
616.188	12.32
616.606	12.24
617.023	12.16
617.44	12.11
617.857	12.03
618.274	11.97
618.691	11.94
619.108	11.89
619.525	11.85
619.942	11.8
620.359	11.76
620.776	11.71
621.192	11.67
621.609	11.64
622.026	11.61
622.442	11.6
622.859	11.58
623.275	11.55
623.691	11.54
624.108	11.52
624.524	11.5
624.94	11.47
625.356	11.45
625.772	11.45
626.188	11.44
626.604	11.42
627.02	11.39
627.436	11.39
627.852	11.37
628.268	11.35
628.683	11.33
629.099	11.31
629.514	11.3
629.93	11.27
630.345	11.23
630.761	11.18
631.176	11.15
631.591	11.12
632.007	11.07
632.422	11.02
632.837	10.94
633.252	10.88
633.667	10.82
634.082	10.73
634.497	10.64
634.911	10.55
635.326	10.46
635.741	10.34
636.155	10.23
636.57	10.12
636.984	9.99
637.399	9.85
637.813	9.69
638.228	9.56
638.642	9.44
639.056	9.3
639.47	9.16
639.884	9.01
640.298	8.88
640.712	8.73
641.126	8.59
641.54	8.46
641.954	8.37
642.368	8.24
642.781	8.1
643.195	7.98
643.609	7.85
644.022	7.74
644.436	7.63
644.849	7.52
645.262	7.43
645.676	7.34
646.089	7.24
646.502	7.13
646.915	7.07
647.328	7.01
647.741	6.95
648.154	6.91
648.567	6.86
648.98	6.81
649.393	6.76
649.805	6.72
650.218	6.68
650.631	6.64
651.043	6.61
651.456	6.57
651.868	6.52
652.28	6.48
652.693	6.43
653.105	6.4
653.517	6.36
653.929	6.32
654.341	6.28
654.753	6.22
655.165	6.17
655.577	6.11
655.989	6.05
656.401	5.99
656.813	5.92
657.224	5.85
657.636	5.78
658.047	5.71
658.459	5.65
658.87	5.57
659.282	5.53
659.693	5.47
660.104	5.4
660.515	5.34
660.926	5.28
661.338	5.21
661.749	5.14
662.159	5.07
662.57	5.02
662.981	4.96
663.392	4.9
663.803	4.83
664.213	4.78
664.624	4.75
665.035	4.7
665.445	4.67
665.855	4.65
666.266	4.63
666.676	4.6
667.086	4.59
667.497	4.57
667.907	4.55
668.317	4.54
668.727	4.52
669.137	4.5
669.547	4.5
669.956	4.48
670.366	4.48
670.776	4.47
671.186	4.49
671.595	4.5
672.005	4.51
672.414	4.53
672.824	4.55
673.233	4.57
673.642	4.59
674.052	4.6
674.461	4.63
674.87	4.66
675.279	4.69
675.688	4.71
676.097	4.73
676.506	4.76
676.915	4.81
677.323	4.84
677.732	4.89
678.141	4.94
678.549	5.01
678.958	5.07
679.366	5.13
679.775	5.2
680.183	5.28
680.592	5.35
681	5.44
681.408	5.53
681.816	5.63
682.224	5.74
682.632	5.86
683.04	5.98
683.448	6.13
683.856	6.29
684.264	6.47
684.671	6.68
685.079	6.9
685.487	7.17
685.894	7.43
686.302	7.72
686.709	8.04
687.116	8.38
687.524	8.75
687.931	9.13
688.338	9.57
688.745	10.02
689.152	10.5
689.559	11.01
689.966	11.52
690.373	12.09
690.78	12.66
691.187	13.24
691.593	13.86
692	14.49
692.407	15.15
692.813	15.83
693.22	16.51
693.626	17.2
694.032	17.92
694.439	18.66
694.845	19.39
695.251	20.14
695.657	20.88
696.063	21.62
696.469	22.36
696.875	23.08
697.281	23.8
697.687	24.55
698.093	25.26
698.498	25.97
698.904	26.67
699.31	27.35
699.715	28.03
700.12	28.7
700.526	29.38
700.931	30.05
701.337	30.74
701.742	31.33
702.147	31.96
702.552	32.6
702.957	33.19
703.362	33.82
703.767	34.42
704.172	35.03
704.577	35.61
704.981	36.17
705.386	36.73
705.791	37.27
706.195	37.82
706.6	38.34
707.004	38.85
707.408	39.36
707.813	39.85
708.217	40.33
708.621	40.81
709.025	41.29
709.43	41.76
709.834	42.24
710.237	42.67
710.641	43.18
711.045	43.64
711.449	44.09
711.853	44.55
712.256	44.99
712.66	45.44
713.064	45.84
713.467	46.25
713.87	46.65
714.274	47.07
714.677	47.47
715.08	47.83
715.484	48.18
715.887	48.58
716.29	48.93
716.693	49.27
717.096	49.61
717.499	49.97
717.901	50.29
718.304	50.63
718.707	50.93
719.109	51.25
719.512	51.56
719.915	51.88
720.317	52.16
720.719	52.44
721.122	52.73
721.524	53.02
721.926	53.28
722.328	53.58
722.731	53.84
723.133	54.1
723.535	54.33
723.937	54.58
724.338	54.8
724.74	55.02
725.142	55.17
725.544	55.37
725.945	55.52
726.347	55.72
726.748	55.85
727.15	56.01
727.551	56.17
727.952	56.33
728.354	56.47
728.755	56.65
729.156	56.81
729.557	57.05
729.958	57.24
730.359	57.42
730.76	57.53
731.161	57.68
731.562	57.8
731.962	57.93
732.363	58.06
732.763	58.2
733.164	58.28
733.564	58.35
733.965	58.41
734.365	58.46
734.766	58.53
735.166	58.61
735.566	58.69
735.966	58.76
736.366	58.8
736.766	58.84
737.166	58.92
737.566	58.97
737.966	59.06
738.365	59.11
738.765	59.18
739.165	59.23
739.564	59.29
739.964	59.35
740.363	59.38
740.763	59.43
741.162	59.47
741.561	59.46
741.96	59.51
742.36	59.54
742.759	59.58
743.158	59.58
743.557	59.63
743.955	59.68
744.354	59.73
744.753	59.82
745.152	59.83
745.55	59.9
745.949	59.96
746.348	59.99
746.746	60.04
747.144	60.12
747.543	60.21
747.941	60.28
748.339	60.34
748.737	60.4
749.136	60.41
749.534	60.5
749.932	60.5
750.33	60.54
750.727	60.59
751.125	60.6
751.523	60.6
751.921	60.61
752.318	60.56
752.716	60.56
753.113	60.52
753.511	60.48
753.908	60.43
754.305	60.4
754.703	60.37
755.1	60.34
755.497	60.33
755.894	60.3
756.291	60.25
756.688	60.26
757.085	60.22
757.482	60.23
757.878	60.25
758.275	60.3
758.672	60.31
759.068	60.31
759.465	60.28
759.861	60.26
760.258	60.26
760.654	60.26
761.05	60.26
761.447	60.25
761.843	60.19
762.239	60.16
762.635	60.1
763.031	60.09
763.427	60.05
763.822	60.02
764.218	60.01
764.614	59.97
765.01	59.95
765.405	59.9
765.801	59.86
766.196	59.88
766.592	59.88
766.987	59.91
767.382	59.91
767.778	59.91
768.173	59.97
768.568	59.94
768.963	59.92
769.358	59.92
769.753	59.93
770.148	59.96
770.542	59.93
770.937	59.95
771.332	59.92
771.726	59.89
772.121	59.86
772.515	59.82
772.91	59.83
773.304	59.84
773.699	59.78
774.093	59.76
774.487	59.77
774.881	59.73
775.275	59.7
775.669	59.69
776.063	59.67
776.457	59.62
776.851	59.59
777.245	59.59
777.638	59.59
778.032	59.63
778.425	59.65
778.819	59.62
779.212	59.6
779.606	59.6
779.999	59.63
780.392	59.66
780.786	59.69
781.179	59.73
781.572	59.7
781.965	59.69
782.358	59.67
782.751	59.65
783.143	59.66
783.536	59.76
783.929	59.75
784.322	59.78
784.714	59.76
785.107	59.79
785.499	59.74
785.891	59.79
786.284	59.78
786.676	59.83
787.068	59.84
787.46	59.82
787.852	59.82
788.245	59.82
788.636	59.79
789.028	59.78
789.42	59.75
789.812	59.79
790.204	59.73
790.595	59.75
790.987	59.73
791.378	59.69
791.77	59.71
792.161	59.68
792.553	59.7
792.944	59.73
793.335	59.77
793.726	59.76
794.117	59.74
794.508	59.77
794.899	59.78
795.29	59.79
795.681	59.85
796.072	59.89
796.463	59.85
796.853	59.85
797.244	59.82
797.634	59.77
798.025	59.78
798.415	59.82
798.806	59.82
799.196	59.84
799.586	59.84
799.976	59.82
800.366	59.81
800.756	59.85
801.146	59.86
801.536	59.87
801.926	59.9
802.316	59.94
802.706	59.98
803.095	60.03
803.485	60.05
803.874	60.04
804.264	60.1
804.653	60.07
805.043	60.08
805.432	60.08
805.821	60.09
806.21	60.18
806.599	60.2
806.988	60.17
807.377	60.19
807.766	60.22
808.155	60.25
808.544	60.24
808.933	60.3
809.321	60.37
809.71	60.44
810.098	60.45
810.487	60.45
810.875	60.5
811.264	60.56
811.652	60.58
812.04	60.61
812.428	60.67
812.816	60.71
813.204	60.74
813.592	60.74
813.98	60.72
814.368	60.77
814.756	60.76
815.144	60.76
815.531	60.72
815.919	60.71
816.306	60.7
816.694	60.68
817.081	60.67
817.469	60.69
817.856	60.74
818.243	60.78
818.63	60.82
819.017	60.83
819.404	60.84
819.791	60.88
820.178	60.91
820.565	60.94
820.952	60.95
821.339	60.97
821.725	60.98
822.112	60.95
822.498	60.94
822.885	60.95
823.271	61
823.657	60.99
824.044	60.99
824.43	61.01
824.816	60.98
825.202	60.96
825.588	60.97
825.974	60.95
826.36	60.94
826.746	60.96
827.132	60.91
827.517	60.86
827.903	60.86
828.289	60.88
828.674	60.85
829.06	60.87
829.445	60.89
829.83	60.91
830.216	60.88
830.601	60.87
830.986	60.81
831.371	60.85
831.756	60.81
832.141	60.8
832.526	60.8
832.911	60.83
833.295	60.85
833.68	60.85
834.065	60.81
834.449	60.79
834.834	60.79
835.218	60.78
835.603	60.75
835.987	60.76
836.371	60.74
836.755	60.7
837.139	60.65
837.524	60.6
837.908	60.54
838.291	60.56
838.675	60.53
839.059	60.53
839.443	60.54
839.827	60.53
840.21	60.57
840.594	60.57
840.977	60.55
841.361	60.56
841.744	60.58
842.127	60.59
842.511	60.54
842.894	60.55
843.277	60.54
843.66	60.54
844.043	60.54
844.426	60.51
844.809	60.5
845.191	60.52
845.574	60.51
845.957	60.44
846.339	60.47
846.722	60.49
847.104	60.5
847.487	60.51
847.869	60.49
848.252	60.49
848.634	60.52
849.016	60.54
849.398	60.53
849.78	60.5
850.162	60.54
850.544	60.53
850.926	60.53
851.307	60.57
851.689	60.52
852.071	60.54
852.452	60.53
852.834	60.49
853.215	60.46
853.597	60.47
853.978	60.46
854.359	60.47
854.741	60.46
855.122	60.46
855.503	60.45
855.884	60.46
856.265	60.44
856.646	60.43
857.026	60.45
857.407	60.44
857.788	60.45
858.169	60.47
858.549	60.48
858.93	60.51
859.31	60.5
859.69	60.45
860.071	60.45
860.451	60.48
860.831	60.52
861.211	60.52
861.591	60.54
861.971	60.51
862.351	60.54
862.731	60.56
863.111	60.54
863.491	60.55
863.87	60.58
864.25	60.58
864.629	60.59
865.009	60.58
865.388	60.57
865.768	60.54
866.147	60.58
866.526	60.53
866.905	60.5
867.284	60.5
867.663	60.49
868.042	60.47
868.421	60.49
868.8	60.46
869.179	60.46
869.558	60.44
869.936	60.45
870.315	60.42
870.693	60.46
871.072	60.43
871.45	60.41
871.828	60.4
872.207	60.43
872.585	60.42
872.963	60.39
873.341	60.36
873.719	60.37
874.097	60.38
874.475	60.36
874.853	60.33
875.23	60.31
875.608	60.32
875.986	60.31
876.363	60.3
876.741	60.31
877.118	60.34
877.495	60.33
877.873	60.31
878.25	60.31
878.627	60.33
879.004	60.33
879.381	60.36
879.758	60.34
880.135	60.39
880.512	60.4
880.889	60.4
881.265	60.41
881.642	60.45
882.019	60.5
882.395	60.5
882.772	60.49
883.148	60.5
883.524	60.52
883.901	60.5
884.277	60.46
884.653	60.46
885.029	60.43
885.405	60.38
885.781	60.34
886.157	60.33
886.532	60.31
886.908	60.33
887.284	60.34
887.659	60.3
888.035	60.32
888.411	60.32
888.786	60.29
889.161	60.31
889.537	60.36
889.912	60.34
890.287	60.32
890.662	60.31
891.037	60.28
891.412	60.22
891.787	60.2
892.162	60.18
892.536	60.18
892.911	60.18
893.286	60.13
893.66	60.08
894.035	60.05
894.409	60.02
894.784	59.99
895.158	59.99
895.532	59.97
895.906	59.96
896.281	59.92
896.655	59.89
897.029	59.86
897.402	59.87
897.776	59.87
898.15	59.85
898.524	59.85
898.898	59.83
899.271	59.82
899.645	59.83
900.018	59.81
900.392	59.85
900.765	59.86
901.138	59.86
901.511	59.84
901.884	59.84
902.258	59.85
902.631	59.87
903.003	59.9
903.376	59.89
903.749	59.91
904.122	59.96
904.495	59.91
904.867	59.88
905.24	59.89
905.612	59.86
905.985	59.83
906.357	59.79
906.729	59.75
907.102	59.7
907.474	59.71
907.846	59.65
908.218	59.63
908.59	59.62
908.962	59.62
909.334	59.62
909.705	59.61
910.077	59.59
910.449	59.6
910.82	59.6
911.192	59.63
911.563	59.59
911.935	59.57
912.306	59.54
912.677	59.54
913.048	59.54
913.419	59.52
913.79	59.5
914.161	59.5
914.532	59.51
914.903	59.52
915.274	59.52
915.645	59.53
916.015	59.56
916.386	59.56
916.756	59.53
917.127	59.53
917.497	59.49
917.868	59.52
918.238	59.53
918.608	59.54
918.978	59.51
919.348	59.47
919.718	59.46
920.088	59.46
920.458	59.49
920.828	59.5
921.198	59.5
921.567	59.49
921.937	59.5
922.306	59.46
922.676	59.46
923.045	59.45
923.415	59.46
923.784	59.46
924.153	59.46
924.522	59.4
924.891	59.38
925.26	59.32
925.629	59.36
925.998	59.35
926.367	59.39
926.736	59.34
927.104	59.31
927.473	59.31
927.842	59.27
928.21	59.28
928.578	59.32
928.947	59.32
929.315	59.34
929.683	59.33
930.051	59.32
930.42	59.29
930.788	59.26
931.156	59.26
931.523	59.21
931.891	59.14
932.259	59.05
932.627	58.92
932.994	58.83
933.362	58.78
933.729	58.7
934.097	58.57
934.464	58.46
934.831	58.4
935.199	58.32
935.566	58.21
935.933	58.22
936.3	58.12
936.667	58.05
937.034	57.97
937.401	57.85
937.767	57.76
938.134	57.69
938.501	57.63
938.867	57.68
939.234	57.72
939.6	57.77
939.967	57.74
940.333	57.86
940.699	57.96
941.065	58.12
941.431	58.28
941.798	58.38
942.163	58.55
942.529	58.64
942.895	58.66
943.261	58.7
943.627	58.78
943.992	58.89
944.358	58.85
944.723	58.92
945.089	58.97
945.454	58.99
945.82	58.99
946.185	59.06
946.55	59.18
946.915	59.23
947.28	59.24
947.645	59.22
948.01	59.23
948.375	59.33
948.74	59.3
949.104	59.3
949.469	59.15
949.834	59.14
950.198	59.05
950.562	58.99
950.927	58.88
951.291	58.86
951.655	58.83
952.02	58.78
952.384	58.8
952.748	58.79
953.112	58.75
953.476	58.83
953.839	58.82
954.203	58.76
954.567	58.68
954.931	58.73
955.294	58.67
955.658	58.69
956.021	58.66
956.385	58.54
956.748	58.52
957.111	58.42
957.474	58.44
957.837	58.42
958.2	58.42
958.563	58.41
958.926	58.31
959.289	58.3
959.652	58.23
960.015	58.19
960.377	58.2
960.74	58.12
961.102	58.14
961.465	58.13
961.827	58.01
962.189	57.98
962.552	57.99
962.914	58.01
963.276	58.02
963.638	57.99
964	57.99
964.362	57.96
964.724	57.98
965.085	57.94
965.447	57.83
965.809	57.81
966.17	57.86
966.532	57.83
966.893	57.83
967.255	57.79
967.616	57.8
967.977	57.77
968.338	57.75
968.699	57.68
969.061	57.65
969.421	57.66
969.782	57.67
970.143	57.66
970.504	57.56
970.865	57.49
971.225	57.48
971.586	57.51
971.946	57.55
972.307	57.58
972.667	57.69
973.027	57.83
973.388	57.78
973.748	57.83
974.108	57.8
974.468	57.89
974.828	57.91
975.188	57.9
975.548	57.87
975.907	57.83
976.267	57.78
976.627	57.67
976.986	57.56
977.346	57.62
977.705	57.67
978.064	57.69
978.424	57.65
978.783	57.7
979.142	57.71
979.501	57.62
979.86	57.6
980.219	57.64
980.578	57.64
980.937	57.63
981.296	57.58
981.654	57.51
982.013	57.53
982.371	57.56
982.73	57.53
983.088	57.46
983.447	57.51
983.805	57.48
984.163	57.47
984.521	57.36
984.879	57.36
985.237	57.38
985.595	57.3
985.953	57.12
986.311	57.13
986.669	57.15
987.026	57.15
987.384	57.16
987.741	57.13
988.099	57.06
988.456	57.13
988.814	57.18
989.171	57.08
989.528	57.05
989.885	57.08
990.242	57.03
990.599	57.01
990.956	57.02
991.313	57.01
991.67	56.92
992.027	56.88
992.383	56.87
992.74	56.77
993.096	56.85
993.453	56.87
993.809	56.8
994.165	56.79
994.522	56.64
994.878	56.68
995.234	56.64
995.59	56.54
995.946	56.57
996.302	56.49
996.658	56.47
997.013	56.49
997.369	56.52
997.725	56.69
998.08	56.7
998.436	56.79
998.791	56.77
999.147	56.68
999.502	56.79
999.857	56.82
1000.212	56.9
1000.567	56.85
1000.922	56.86
1001.277	56.75
1001.632	56.77
1001.987	56.69
1002.342	56.79
1002.696	56.76
1003.051	56.64
1003.406	56.61
1003.76	56.51
1004.114	56.55
1004.469	56.5
1004.823	56.4
1005.177	56.42
1005.531	56.16
1005.885	56.07
1006.239	56.01
1006.593	55.89
1006.947	55.8
1007.301	55.87
1007.655	55.8
1008.008	55.55
1008.362	55.51
1008.715	55.45
1009.069	55.29
1009.422	55.26
1009.776	55.23
1010.129	55
1010.482	54.92
1010.835	55.17
1011.188	55.04
1011.541	54.89
1011.894	54.98
1012.247	54.94
1012.6	55.01
1012.952	55.19
1013.305	55.14
1013.657	55.31
1014.01	55.34
1014.362	55.39
1014.715	55.28
1015.067	55.38
1015.419	55.6
1015.771	55.7
1016.123	55.53
1016.475	55.71
1016.827	55.69
1017.179	55.71
1017.531	55.35
1017.883	55.39
1018.234	55.48
1018.586	55.35
1018.938	55
1019.289	54.84
1019.64	54.93
1019.992	55.14
1020.343	54.68
1020.694	54.34
1021.045	54.3
1021.396	54.4
1021.747	54.13
1022.098	53.95
1022.449	53.79
1022.8	53.91
1023.151	53.88
1023.501	53.5
1023.852	53.32
1024.202	53.33
1024.553	53.36
1024.903	53.21
1025.253	53.18
1025.604	53.11
1025.954	53.02
1026.304	53.56
1026.654	53.63
1027.004	53.45
1027.354	53.43
1027.703	53.42
1028.053	52.95
1028.403	52.63
1028.753	53.06
1029.102	53.01
1029.452	52.94
1029.801	52.74
1030.15	52.25
1030.499	52.11
897.758	483.54
901.051	485.13
904.343	492.59
907.636	489.23
910.928	481.71
914.22	489.3
917.511	476.95
920.803	459.22
924.094	439.76
927.384	442.89
930.675	429.06
933.965	423.77
937.255	428.8
940.544	410.03
943.834	387.52
947.123	381.52
950.411	363.16
953.7	356.37
956.988	350.5
960.276	332.92
963.563	331.84
966.851	314.91
970.138	310.2
973.424	288.92
976.711	285.16
979.997	278.13
983.283	270.5
986.568	261.92
989.853	255.56
993.138	244.34
996.423	246.45
999.708	235.99
1002.992	238.01
1006.275	229.23
1009.559	227.24
1012.842	222.07
1016.125	214.96
1019.408	212.9
1022.69	211.84
1025.972	209.37
1029.254	206
1032.536	200.05
1035.817	194.99
1039.098	191.45
1042.379	190.01
1045.659	187.42
1048.939	186.67
1052.219	183.99
1055.498	180.95
1058.778	178.12
1062.057	176.47
1065.335	174.59
1068.614	172.35
1071.892	170.82
1075.17	167.97
1078.447	165.4
1081.724	164.19
1085.001	159.76
1088.278	160.87
1091.554	160.04
1094.83	158.28
1098.106	155.48
1101.382	155.02
1104.657	154.68
1107.932	154.53
1111.206	153.34
1114.481	152.43
1117.755	151.44
1121.029	151.46
1124.302	148.94
1127.575	147.13
1130.848	146.94
1134.121	145.09
1137.393	145.04
1140.665	143.82
1143.937	142.51
1147.208	141.54
1150.48	140.62
1153.75	140.14
1157.021	138.46
1160.291	138.17
1163.561	136.62
1166.831	136.38
1170.101	136.54
1173.37	135.08
1176.639	134
1179.907	133.53
1183.176	133.19
1186.444	133.19
1189.711	132.47
1192.979	133.22
1196.246	133.34
1199.513	133.99
1202.78	133.22
1206.046	133.2
1209.312	134.06
1212.578	134.7
1215.843	136.61
1219.108	137.77
1222.373	139.34
1225.638	141.66
1228.902	144.5
1232.166	148.28
1235.43	149.22
1238.693	153.91
1241.956	156.94
1245.219	160
1248.482	161.24
1251.744	161.25
1255.006	161.88
1258.268	158.54
1261.529	156.68
1264.79	152.77
1268.051	150.25
1271.312	149.53
1274.572	146.22
1277.832	142.96
1281.092	141.96
1284.351	139.44
1287.61	138.61
1290.869	138.13
1294.128	137.26
1297.386	137.11
1300.644	137.54
1303.902	135.87
1307.159	135.08
1310.416	135.89
1313.673	137.46
1316.93	137.96
1320.186	139.91
1323.442	141.79
1326.697	143.56
1329.953	145.25
1333.208	148.72
1336.463	153.29
1339.717	156.71
1342.972	163.31
1346.226	167.41
1349.479	168.78
1352.733	175.07
1355.986	178.21
1359.238	181.16
1362.491	182.11
1365.743	187.37
1368.995	188.72
1372.247	189.31
1375.498	188.41
1378.749	194
1382	193.36
1385.251	191.77
1388.501	192.44
1391.751	194.14
1395	191.09
1398.25	192.86
1401.499	191.33
1404.748	190.39
1407.996	184.79
1411.244	184.52
1414.492	181.89
1417.74	176.3
1420.987	172.57
1424.234	168.24
1427.481	162.49
1430.728	160.16
1433.974	153.34
1437.22	150.94
1440.465	145.68
1443.711	141.93
1446.956	138.55
1450.201	133.69
1453.445	128.33
1456.689	125.72
1459.933	121.55
1463.177	117.06
1466.42	115.06
1469.663	113.34
1472.906	109.3
1476.148	107.12
1479.391	105.34
1482.633	103.44
1485.874	102.4
1489.115	101.68
1492.356	100.31
1495.597	99.12
1498.838	99.32
1502.078	98.2
1505.318	97.89
1508.557	97.1
1511.797	97.16
1515.036	97.12
1518.274	96.48
1521.513	94.79
1524.751	94.85
1527.989	96.1
1531.227	96.09
1534.464	95.62
1537.701	95.23
1540.938	94.6
1544.174	95.37
1547.41	95.23
1550.646	95.12
1553.882	95.22
1557.117	95.55
1560.352	95.29
1563.587	94.19
1566.821	94.07
1570.055	94.03
1573.289	94.12
1576.523	94.08
1579.756	93.65
1582.989	93.3
1586.222	93.1
1589.454	93.19
1592.686	93.92
1595.918	93.19
1599.15	92.93
1602.381	93.15
1605.612	93.11
1608.843	93.06
1612.073	93.66
1615.303	93.53
1618.533	93.43
1621.762	93.41
1624.992	92.95
1628.221	92.08
1631.449	92.89
1634.678	93.23
1637.906	93.17
1641.134	93.47
1644.361	93.32
1647.588	93.18
1650.815	93.59
1654.042	93.52
1657.269	93.67
1660.495	94.68
1663.72	94.57
1666.946	94.5
1670.171	94.73
1673.396	95.34
1676.621	95.21
1679.845	95.22
1683.069	95.34
1686.293	94.91
1689.517	95.37
1692.74	95.34
1695.963	95.12
1699.185	95.69
1702.408	95.41
1705.63	95.4
1708.852	95.72
1712.073	95.42
1715.294	95.64
1718.515	95.89
1721.736	96.28
1724.956	96.34
1728.176	95.92
1731.396	96.48
1734.616	96.32
1737.835	96.8
1741.054	96.72
1744.272	96.2
1747.491	96.18
1750.709	96.82
1753.927	96.65
1757.144	96.65
1760.361	96.7
1763.578	97.51
1766.795	97.73
1770.011	97.43
1773.227	97.79
1776.443	98.53
1779.658	98.27
1782.874	98.94
1786.089	98.76
1789.303	98.69
1792.518	99.3
1795.732	100.15
1798.945	101.09
1802.159	101.05
1805.372	102.35
1808.585	103.27
1811.797	103.75
1815.01	104.32
1818.222	105.18
1821.434	106.04
1824.645	106.19
1827.856	107.72
1831.067	107.79
1834.278	108.46
1837.488	108.94
1840.698	110.44
1843.908	110.16
1847.117	110.56
1850.326	111.84
1853.535	112.49
1856.744	112.28
1859.952	114.23
1863.16	113.18
1866.368	112.42
1869.575	111.47
1872.782	110.77
1875.989	108.65
1879.196	108.27
1882.402	106.9
1885.608	106.71
1888.814	104.98
1892.019	105.98
1895.224	103.27
1898.429	104.22
1901.634	103.71
1904.838	104.44
1908.042	104.55
1911.246	103.96
1914.449	104.1
1917.652	103.61
1920.855	103.97
1924.058	103.25
1927.26	101.72
1930.462	102.98
1933.664	101.98
1936.865	103.18
1940.066	100.92
1943.267	100.14
1946.467	100.98
1949.668	100.94
1952.868	101.92
1956.067	101.54
1959.267	101.44
1962.466	102.23
1965.665	103.63
1968.863	104.1
1972.061	104.43
1975.259	108.65
1978.457	109.35
1981.654	109.83
1984.852	110.84
1988.048	111.94
1991.245	114.07
1994.441	116.97
1997.637	119.78
2000.833	121.84
2004.028	122.71
2007.223	126.01
2010.418	127.41
2013.613	132.71
2016.807	136.63
2020.001	138.8
2023.194	142.96
2026.388	147.44
2029.581	156.37
2032.774	159.11
2035.966	162
2039.158	168.06
2042.35	170.51
2045.542	172.19
2048.733	181.59
2051.924	182.24
2055.115	185.86
2058.306	187.45
2061.496	190.53
2064.686	188.94
2067.875	188.86
2071.065	192.12
2074.254	192.35
2077.442	198.23
2080.631	199.51
2083.819	198.11
2087.007	204.92
2090.195	207.78
2093.382	208.19
2096.569	208.06
2099.756	212.54
2102.942	217.21
2106.128	221.09
2109.314	222.8
2112.5	222.76
2115.685	221.6
2118.87	221.92
2122.055	222.17
2125.239	226.65
2128.424	231.4
2131.608	228.72
2134.791	227.13
2137.974	228.67
2141.157	229.36
2144.34	230.52
2147.523	234.76
2150.705	241.34
2153.887	240.72
2157.068	242.41
2160.25	244.11
2163.431	242.88
2166.611	248.18
2169.792	253.2
2172.972	257.02
2176.152	257.99
2179.331	262.15
2182.511	263.76
2185.69	266.8
2188.868	273.56
2192.047	280.99
2195.225	286.11
2198.403	286.5
2201.58	284.47
2204.758	293.32
2207.935	294.12
2211.111	301.19
2214.288	304.87
2217.464	306.4
2220.64	308.73
2223.815	311.13
2226.991	304.67
2230.166	306.74
2233.34	320.83
2236.515	327.31
2239.689	320.6
2242.863	327.69
2246.036	321.62
2249.209	329.78
2252.382	327.59
2255.555	338.6
2258.727	341.24
2261.9	353.42
2265.071	357.88
2268.243	351.99
2271.414	363.52
2274.585	373
2277.756	371.21
2280.926	394.3
2284.096	388.59
2287.266	394.28
2290.436	387.31
2293.605	399.48
2296.774	410.06
2299.942	412.31
2303.111	427.63
2306.279	436.6
2309.447	434.41
2312.614	440.89
2315.781	440.1
2318.948	451.42
2322.115	459.36
2325.281	483.34
2328.447	469.86
2331.613	476.82
2334.779	481.1
2337.944	482.69
2341.109	488.56
2344.274	499.41
2347.438	504.85
2350.602	517.52
2353.766	549.06
2356.929	551.87
2360.092	555.72
2363.255	566.04
2366.418	570.52
2369.58	582.18
2372.742	587.02
2375.904	584.62
2379.066	597.62
2382.227	633.7
2385.388	633.17
2388.548	603.01
2391.709	590.41
2394.869	608.27
2398.029	608.46
2401.188	608.7
2404.347	625.05
2407.506	645.02
2410.665	618.21
2413.823	628.1
2416.981	626.52
2420.139	588.88
2423.296	641.65
2426.453	691.97
2429.61	654.36
2432.767	696.44
2435.923	722.1
2439.079	693.13
2442.235	709.88
2445.391	735.08
2448.546	719.47
2451.701	762.1
2454.855	822.08
2458.009	717.32
2461.163	724.42
2464.317	744.3
2467.471	731.11
2470.624	752.55
2473.777	743.59
2476.929	721.14
2480.082	763.57
2483.234	802.56
2486.385	806.35
2489.537	828.18
2492.688	917.52
2495.839	905.16
2498.989	930.06
2502.14	926.85
2505.29	894.05
2508.439	984.46
2511.589	1003.95
2514.738	986.19
2517.887	974.17
2521.035	908.82
2524.183	903.56
2527.331	887.13
2530.479	863.98
2533.627	878.67
