Data from C_2_dec_va_2n_050_Splice17_18.txt Node
Date: Sat Feb 29 14:34:39 EST 2020
User: sa697716
Spectrometer: FLMS03696
Trigger mode: 0
Integration Time (sec): 3.180400E-1
Scans to average: 20
Electric dark correction enabled: true
Nonlinearity correction enabled: true
Boxcar width: 5
XAxis mode: Wavelengths
Number of Pixels in Spectrum: 2048
>>>>>Begin Spectral Data<<<<<
187.83	78.21
188.298	83.46
188.766	72.45
189.233	69.59
189.701	72.36
190.169	75.01
190.636	64.93
191.104	32.52
191.571	-8.3
192.039	200.97
192.506	-30.63
192.974	2169.61
193.441	-281.04
193.908	58.97
194.375	97.79
194.842	65.97
195.31	47.69
195.777	-1.11
196.244	-6.77
196.711	16.23
197.177	18.35
197.644	18.25
198.111	18.65
198.578	19.41
199.045	20
199.511	20.17
199.978	20.7
200.445	20.44
200.911	20.76
201.378	21.41
201.844	21.88
202.31	22.58
202.777	22.83
203.243	22.91
203.709	23.11
204.176	23.02
204.642	22.82
205.108	23.17
205.574	23.89
206.04	23.83
206.506	23.38
206.972	22.84
207.438	22.32
207.903	22.65
208.369	22.33
208.835	22.35
209.301	22.41
209.766	22.74
210.232	22.36
210.697	22.07
211.163	21.9
211.628	21.66
212.094	21.36
212.559	20.93
213.024	20.46
213.49	20.52
213.955	20.09
214.42	19.38
214.885	18.75
215.35	18.31
215.815	17.38
216.28	16.9
216.745	16.32
217.21	15.58
217.675	14.92
218.14	14.07
218.604	13.33
219.069	12.75
219.534	12.33
219.998	11.92
220.463	11.64
220.927	11.42
221.392	11.1
221.856	10.84
222.32	10.67
222.785	10.51
223.249	10.4
223.713	10.23
224.177	10.04
224.642	9.91
225.106	9.75
225.57	9.58
226.034	9.43
226.497	9.27
226.961	9.12
227.425	8.97
227.889	8.84
228.353	8.72
228.816	8.63
229.28	8.51
229.744	8.4
230.207	8.3
230.671	8.19
231.134	8.06
231.597	7.97
232.061	7.87
232.524	7.78
232.987	7.66
233.45	7.54
233.914	7.43
234.377	7.36
234.84	7.25
235.303	7.16
235.766	7.07
236.229	7.01
236.691	6.93
237.154	6.84
237.617	6.76
238.08	6.71
238.542	6.64
239.005	6.57
239.468	6.49
239.93	6.42
240.393	6.35
240.855	6.28
241.317	6.23
241.78	6.17
242.242	6.11
242.704	6.06
243.166	5.99
243.629	5.94
244.091	5.87
244.553	5.83
245.015	5.78
245.477	5.73
245.939	5.67
246.4	5.6
246.862	5.55
247.324	5.51
247.786	5.47
248.247	5.43
248.709	5.38
249.17	5.33
249.632	5.28
250.093	5.22
250.555	5.18
251.016	5.15
251.477	5.11
251.939	5.07
252.4	5.03
252.861	4.99
253.322	4.95
253.783	4.92
254.244	4.88
254.705	4.87
255.166	4.86
255.627	4.83
256.088	4.79
256.549	4.77
257.009	4.74
257.47	4.72
257.931	4.69
258.391	4.66
258.852	4.64
259.312	4.61
259.773	4.57
260.233	4.53
260.694	4.5
261.154	4.47
261.614	4.44
262.074	4.41
262.534	4.37
262.994	4.35
263.455	4.32
263.915	4.3
264.374	4.27
264.834	4.25
265.294	4.22
265.754	4.19
266.214	4.17
266.673	4.15
267.133	4.13
267.593	4.12
268.052	4.09
268.512	4.07
268.971	4.05
269.431	4.04
269.89	4.02
270.349	4
270.809	3.99
271.268	3.98
271.727	3.96
272.186	3.95
272.645	3.93
273.104	3.93
273.563	3.91
274.022	3.91
274.481	3.89
274.94	3.88
275.399	3.87
275.857	3.86
276.316	3.84
276.775	3.83
277.233	3.81
277.692	3.8
278.15	3.78
278.609	3.76
279.067	3.74
279.525	3.73
279.984	3.72
280.442	3.71
280.9	3.69
281.358	3.69
281.816	3.68
282.274	3.66
282.732	3.66
283.19	3.65
283.648	3.65
284.106	3.64
284.564	3.64
285.021	3.63
285.479	3.62
285.937	3.61
286.394	3.6
286.852	3.59
287.309	3.58
287.767	3.57
288.224	3.56
288.682	3.55
289.139	3.53
289.596	3.51
290.053	3.49
290.511	3.47
290.968	3.46
291.425	3.44
291.882	3.42
292.339	3.41
292.796	3.39
293.252	3.37
293.709	3.35
294.166	3.34
294.623	3.32
295.079	3.32
295.536	3.3
295.992	3.29
296.449	3.28
296.905	3.26
297.362	3.24
297.818	3.23
298.274	3.21
298.731	3.2
299.187	3.19
299.643	3.18
300.099	3.17
300.555	3.16
301.011	3.15
301.467	3.14
301.923	3.14
302.379	3.13
302.835	3.13
303.291	3.12
303.746	3.12
304.202	3.11
304.658	3.09
305.113	3.09
305.569	3.08
306.024	3.07
306.479	3.06
306.935	3.06
307.39	3.05
307.845	3.05
308.301	3.05
308.756	3.05
309.211	3.05
309.666	3.05
310.121	3.05
310.576	3.04
311.031	3.04
311.486	3.03
311.94	3.02
312.395	3.02
312.85	3.01
313.305	3
313.759	3
314.214	2.99
314.668	2.99
315.123	3
315.577	2.99
316.032	2.99
316.486	2.99
316.94	2.98
317.394	2.98
317.849	2.97
318.303	2.97
318.757	2.95
319.211	2.94
319.665	2.92
320.119	2.9
320.572	2.91
321.026	2.89
321.48	2.89
321.934	2.89
322.387	2.88
322.841	2.87
323.295	2.86
323.748	2.86
324.202	2.85
324.655	2.84
325.108	2.83
325.562	2.81
326.015	2.8
326.468	2.78
326.921	2.77
327.374	2.76
327.827	2.76
328.28	2.74
328.733	2.73
329.186	2.74
329.639	2.73
330.092	2.73
330.545	2.73
330.997	2.74
331.45	2.74
331.903	2.73
332.355	2.73
332.808	2.72
333.26	2.73
333.713	2.73
334.165	2.73
334.617	2.73
335.069	2.73
335.522	2.74
335.974	2.74
336.426	2.74
336.878	2.74
337.33	2.74
337.782	2.73
338.234	2.74
338.686	2.73
339.137	2.74
339.589	2.73
340.041	2.73
340.493	2.72
340.944	2.71
341.396	2.71
341.847	2.71
342.299	2.69
342.75	2.68
343.201	2.66
343.653	2.66
344.104	2.64
344.555	2.63
345.006	2.62
345.457	2.61
345.908	2.6
346.359	2.59
346.81	2.6
347.261	2.59
347.712	2.59
348.163	2.59
348.613	2.57
349.064	2.57
349.515	2.56
349.965	2.55
350.416	2.54
350.866	2.55
351.317	2.54
351.767	2.53
352.217	2.52
352.668	2.53
353.118	2.52
353.568	2.53
354.018	2.54
354.468	2.54
354.918	2.55
355.368	2.55
355.818	2.55
356.268	2.56
356.718	2.55
357.168	2.55
357.617	2.54
358.067	2.54
358.517	2.53
358.966	2.53
359.416	2.53
359.865	2.52
360.315	2.51
360.764	2.51
361.213	2.49
361.663	2.5
362.112	2.51
362.561	2.52
363.01	2.53
363.459	2.53
363.908	2.52
364.357	2.52
364.806	2.53
365.255	2.54
365.703	2.54
366.152	2.55
366.601	2.56
367.05	2.56
367.498	2.56
367.947	2.56
368.395	2.58
368.844	2.59
369.292	2.6
369.74	2.61
370.189	2.62
370.637	2.64
371.085	2.65
371.533	2.65
371.981	2.67
372.429	2.68
372.877	2.69
373.325	2.71
373.773	2.73
374.221	2.75
374.669	2.76
375.116	2.77
375.564	2.79
376.012	2.81
376.459	2.84
376.907	2.87
377.354	2.9
377.801	2.91
378.249	2.94
378.696	2.97
379.143	3
379.591	3.04
380.038	3.08
380.485	3.11
380.932	3.14
381.379	3.17
381.826	3.2
382.273	3.23
382.72	3.27
383.166	3.3
383.613	3.33
384.06	3.35
384.506	3.39
384.953	3.41
385.4	3.44
385.846	3.46
386.292	3.49
386.739	3.53
387.185	3.58
387.631	3.61
388.078	3.64
388.524	3.66
388.97	3.69
389.416	3.71
389.862	3.73
390.308	3.75
390.754	3.78
391.2	3.81
391.645	3.82
392.091	3.82
392.537	3.84
392.983	3.86
393.428	3.87
393.874	3.89
394.319	3.91
394.765	3.92
395.21	3.92
395.655	3.94
396.101	3.94
396.546	3.95
396.991	3.95
397.436	3.95
397.881	3.94
398.326	3.96
398.771	3.96
399.216	3.97
399.661	3.98
400.106	3.99
400.551	3.97
400.995	3.95
401.44	3.94
401.885	3.94
402.329	3.94
402.774	3.93
403.218	3.91
403.663	3.88
404.107	3.86
404.551	3.85
404.995	3.84
405.44	3.84
405.884	3.83
406.328	3.81
406.772	3.82
407.216	3.81
407.66	3.81
408.104	3.8
408.547	3.81
408.991	3.8
409.435	3.79
409.879	3.78
410.322	3.79
410.766	3.79
411.209	3.8
411.653	3.78
412.096	3.78
412.54	3.78
412.983	3.78
413.426	3.79
413.869	3.8
414.312	3.82
414.756	3.83
415.199	3.82
415.642	3.83
416.085	3.84
416.527	3.85
416.97	3.85
417.413	3.85
417.856	3.84
418.298	3.82
418.741	3.82
419.184	3.8
419.626	3.78
420.069	3.77
420.511	3.77
420.953	3.76
421.396	3.75
421.838	3.77
422.28	3.79
422.722	3.79
423.164	3.79
423.606	3.79
424.048	3.8
424.49	3.82
424.932	3.82
425.374	3.81
425.816	3.8
426.258	3.8
426.699	3.78
427.141	3.75
427.582	3.74
428.024	3.75
428.465	3.76
428.907	3.77
429.348	3.75
429.789	3.76
430.231	3.75
430.672	3.77
431.113	3.79
431.554	3.82
431.995	3.85
432.436	3.86
432.877	3.85
433.318	3.87
433.759	3.86
434.2	3.87
434.64	3.88
435.081	3.9
435.522	3.93
435.962	3.94
436.403	3.94
436.843	3.95
437.284	3.96
437.724	3.99
438.164	4
438.604	4.05
439.045	4.07
439.485	4.08
439.925	4.08
440.365	4.07
440.805	4.09
441.245	4.08
441.685	4.1
442.125	4.11
442.564	4.13
443.004	4.16
443.444	4.14
443.883	4.17
444.323	4.2
444.762	4.23
445.202	4.29
445.641	4.3
446.081	4.36
446.52	4.37
446.959	4.41
447.398	4.44
447.837	4.48
448.276	4.52
448.716	4.54
449.154	4.57
449.593	4.59
450.032	4.58
450.471	4.62
450.91	4.64
451.349	4.64
451.787	4.65
452.226	4.64
452.664	4.63
453.103	4.63
453.541	4.62
453.98	4.62
454.418	4.62
454.856	4.6
455.295	4.59
455.733	4.58
456.171	4.58
456.609	4.57
457.047	4.57
457.485	4.57
457.923	4.57
458.361	4.56
458.798	4.56
459.236	4.56
459.674	4.56
460.111	4.55
460.549	4.54
460.987	4.54
461.424	4.54
461.862	4.54
462.299	4.53
462.736	4.54
463.173	4.54
463.611	4.54
464.048	4.54
464.485	4.54
464.922	4.54
465.359	4.56
465.796	4.53
466.233	4.54
466.67	4.55
467.106	4.53
467.543	4.53
467.98	4.52
468.416	4.52
468.853	4.52
469.29	4.54
469.726	4.56
470.162	4.55
470.599	4.58
471.035	4.58
471.471	4.57
471.907	4.59
472.344	4.59
472.78	4.6
473.216	4.61
473.652	4.62
474.088	4.63
474.523	4.61
474.959	4.6
475.395	4.6
475.831	4.6
476.266	4.62
476.702	4.62
477.138	4.61
477.573	4.6
478.008	4.6
478.444	4.58
478.879	4.57
479.314	4.57
479.75	4.57
480.185	4.57
480.62	4.58
481.055	4.58
481.49	4.57
481.925	4.56
482.36	4.56
482.795	4.56
483.229	4.56
483.664	4.56
484.099	4.56
484.534	4.57
484.968	4.57
485.403	4.55
485.837	4.55
486.271	4.55
486.706	4.56
487.14	4.57
487.574	4.57
488.009	4.59
488.443	4.59
488.877	4.61
489.311	4.63
489.745	4.66
490.179	4.69
490.613	4.72
491.046	4.76
491.48	4.79
491.914	4.83
492.348	4.87
492.781	4.9
493.215	4.95
493.648	4.99
494.082	5.04
494.515	5.07
494.948	5.11
495.382	5.15
495.815	5.19
496.248	5.25
496.681	5.3
497.114	5.36
497.547	5.41
497.98	5.48
498.413	5.54
498.846	5.62
499.279	5.72
499.711	5.79
500.144	5.88
500.577	5.98
501.009	6.08
501.442	6.19
501.874	6.3
502.306	6.43
502.739	6.54
503.171	6.67
503.603	6.81
504.036	6.96
504.468	7.12
504.9	7.27
505.332	7.44
505.764	7.6
506.196	7.77
506.627	7.96
507.059	8.15
507.491	8.36
507.923	8.57
508.354	8.79
508.786	8.99
509.217	9.21
509.649	9.44
510.08	9.68
510.512	9.92
510.943	10.18
511.374	10.44
511.805	10.69
512.237	10.96
512.668	11.23
513.099	11.5
513.53	11.8
513.961	12.11
514.391	12.4
514.822	12.71
515.253	13.02
515.684	13.33
516.114	13.64
516.545	13.99
516.975	14.34
517.406	14.68
517.836	15.04
518.267	15.36
518.697	15.72
519.127	16.08
519.558	16.43
519.988	16.79
520.418	17.14
520.848	17.5
521.278	17.83
521.708	18.11
522.138	18.43
522.567	18.74
522.997	19.06
523.427	19.37
523.857	19.65
524.286	19.96
524.716	20.24
525.145	20.54
525.575	20.8
526.004	21.05
526.433	21.36
526.863	21.62
527.292	21.88
527.721	22.12
528.15	22.34
528.579	22.57
529.008	22.78
529.437	22.99
529.866	23.17
530.295	23.36
530.724	23.57
531.152	23.74
531.581	23.89
532.01	24.03
532.438	24.17
532.867	24.32
533.295	24.44
533.723	24.58
534.152	24.7
534.58	24.81
535.008	24.92
535.436	25
535.865	25.09
536.293	25.18
536.721	25.27
537.149	25.34
537.576	25.41
538.004	25.49
538.432	25.54
538.86	25.59
539.287	25.64
539.715	25.68
540.143	25.72
540.57	25.77
540.998	25.84
541.425	25.88
541.852	25.93
542.28	25.95
542.707	26.01
543.134	26.05
543.561	26.11
543.988	26.15
544.415	26.2
544.842	26.24
545.269	26.29
545.696	26.33
546.123	26.36
546.549	26.42
546.976	26.47
547.403	26.48
547.829	26.52
548.256	26.55
548.682	26.58
549.108	26.61
549.535	26.65
549.961	26.67
550.387	26.67
550.813	26.66
551.24	26.66
551.666	26.67
552.092	26.68
552.518	26.68
552.943	26.66
553.369	26.65
553.795	26.63
554.221	26.59
554.646	26.55
555.072	26.53
555.498	26.51
555.923	26.47
556.349	26.42
556.774	26.34
557.199	26.28
557.625	26.22
558.05	26.12
558.475	26.04
558.9	25.96
559.325	25.86
559.75	25.73
560.175	25.63
560.6	25.51
561.025	25.39
561.449	25.26
561.874	25.12
562.299	24.97
562.723	24.84
563.148	24.67
563.572	24.52
563.997	24.35
564.421	24.2
564.846	24
565.27	23.81
565.694	23.63
566.118	23.46
566.542	23.26
566.966	23.07
567.39	22.86
567.814	22.67
568.238	22.46
568.662	22.27
569.086	22.07
569.509	21.88
569.933	21.69
570.357	21.48
570.78	21.29
571.204	21.11
571.627	20.92
572.05	20.75
572.474	20.58
572.897	20.41
573.32	20.25
573.743	20.08
574.166	19.9
574.589	19.75
575.012	19.61
575.435	19.48
575.858	19.34
576.281	19.21
576.704	19.08
577.126	18.94
577.549	18.84
577.972	18.73
578.394	18.62
578.817	18.52
579.239	18.42
579.661	18.33
580.084	18.21
580.506	18.12
580.928	18.01
581.35	17.91
581.772	17.83
582.194	17.72
582.616	17.62
583.038	17.53
583.46	17.44
583.882	17.35
584.303	17.25
584.725	17.17
585.147	17.07
585.568	16.98
585.99	16.92
586.411	16.83
586.833	16.77
587.254	16.7
587.675	16.61
588.096	16.54
588.518	16.47
588.939	16.42
589.36	16.35
589.781	16.32
590.202	16.27
590.623	16.2
591.043	16.15
591.464	16.11
591.885	16.06
592.305	16.06
592.726	16.02
593.147	16
593.567	15.94
593.987	15.93
594.408	15.87
594.828	15.84
595.248	15.8
595.669	15.77
596.089	15.72
596.509	15.67
596.929	15.6
597.349	15.55
597.769	15.48
598.189	15.45
598.608	15.4
599.028	15.35
599.448	15.31
599.867	15.24
600.287	15.18
600.706	15.12
601.126	15.07
601.545	15.02
601.965	14.95
602.384	14.9
602.803	14.83
603.222	14.75
603.641	14.68
604.061	14.61
604.48	14.55
604.898	14.48
605.317	14.4
605.736	14.32
606.155	14.24
606.574	14.17
606.992	14.08
607.411	14
607.829	13.88
608.248	13.8
608.666	13.71
609.085	13.63
609.503	13.54
609.921	13.46
610.339	13.37
610.758	13.29
611.176	13.21
611.594	13.14
612.012	13.07
612.43	13.03
612.847	12.95
613.265	12.88
613.683	12.79
614.101	12.71
614.518	12.63
614.936	12.56
615.353	12.49
615.771	12.42
616.188	12.35
616.606	12.28
617.023	12.22
617.44	12.14
617.857	12.08
618.274	12.03
618.691	11.99
619.108	11.94
619.525	11.9
619.942	11.86
620.359	11.82
620.776	11.77
621.192	11.74
621.609	11.69
622.026	11.67
622.442	11.64
622.859	11.61
623.275	11.59
623.691	11.57
624.108	11.55
624.524	11.54
624.94	11.51
625.356	11.5
625.772	11.49
626.188	11.49
626.604	11.47
627.02	11.47
627.436	11.47
627.852	11.45
628.268	11.43
628.683	11.41
629.099	11.39
629.514	11.38
629.93	11.34
630.345	11.29
630.761	11.23
631.176	11.2
631.591	11.15
632.007	11.07
632.422	11.02
632.837	10.96
633.252	10.89
633.667	10.82
634.082	10.74
634.497	10.65
634.911	10.56
635.326	10.45
635.741	10.35
636.155	10.25
636.57	10.14
636.984	10
637.399	9.85
637.813	9.72
638.228	9.59
638.642	9.46
639.056	9.33
639.47	9.2
639.884	9.06
640.298	8.92
640.712	8.78
641.126	8.65
641.54	8.51
641.954	8.39
642.368	8.26
642.781	8.13
643.195	7.99
643.609	7.87
644.022	7.76
644.436	7.66
644.849	7.55
645.262	7.47
645.676	7.37
646.089	7.28
646.502	7.19
646.915	7.12
647.328	7.05
647.741	6.98
648.154	6.92
648.567	6.86
648.98	6.81
649.393	6.78
649.805	6.7
650.218	6.66
650.631	6.63
651.043	6.59
651.456	6.56
651.868	6.52
652.28	6.5
652.693	6.45
653.105	6.41
653.517	6.37
653.929	6.32
654.341	6.29
654.753	6.24
655.165	6.2
655.577	6.14
655.989	6.08
656.401	6.01
656.813	5.93
657.224	5.87
657.636	5.81
658.047	5.74
658.459	5.67
658.87	5.6
659.282	5.54
659.693	5.46
660.104	5.38
660.515	5.31
660.926	5.26
661.338	5.21
661.749	5.14
662.159	5.08
662.57	5.02
662.981	4.95
663.392	4.9
663.803	4.84
664.213	4.8
664.624	4.76
665.035	4.73
665.445	4.69
665.855	4.66
666.266	4.64
666.676	4.61
667.086	4.59
667.497	4.56
667.907	4.53
668.317	4.5
668.727	4.5
669.137	4.49
669.547	4.48
669.956	4.47
670.366	4.46
670.776	4.46
671.186	4.47
671.595	4.48
672.005	4.51
672.414	4.52
672.824	4.56
673.233	4.59
673.642	4.6
674.052	4.62
674.461	4.64
674.87	4.67
675.279	4.71
675.688	4.74
676.097	4.77
676.506	4.8
676.915	4.85
677.323	4.89
677.732	4.94
678.141	5
678.549	5.08
678.958	5.15
679.366	5.2
679.775	5.26
680.183	5.36
680.592	5.44
681	5.52
681.408	5.61
681.816	5.7
682.224	5.81
682.632	5.92
683.04	6.04
683.448	6.18
683.856	6.33
684.264	6.52
684.671	6.71
685.079	6.93
685.487	7.17
685.894	7.45
686.302	7.73
686.709	8.04
687.116	8.38
687.524	8.75
687.931	9.15
688.338	9.59
688.745	10.04
689.152	10.51
689.559	11.02
689.966	11.56
690.373	12.12
690.78	12.69
691.187	13.3
691.593	13.94
692	14.58
692.407	15.24
692.813	15.92
693.22	16.6
693.626	17.29
694.032	17.99
694.439	18.71
694.845	19.43
695.251	20.16
695.657	20.88
696.063	21.61
696.469	22.34
696.875	23.07
697.281	23.78
697.687	24.53
698.093	25.26
698.498	26
698.904	26.71
699.31	27.39
699.715	28.11
700.12	28.81
700.526	29.48
700.931	30.16
701.337	30.82
701.742	31.44
702.147	32.06
702.552	32.69
702.957	33.29
703.362	33.91
703.767	34.51
704.172	35.08
704.577	35.67
704.981	36.24
705.386	36.79
705.791	37.34
706.195	37.91
706.6	38.44
707.004	38.94
707.408	39.45
707.813	39.97
708.217	40.45
708.621	40.94
709.025	41.38
709.43	41.8
709.834	42.3
710.237	42.74
710.641	43.21
711.045	43.66
711.449	44.11
711.853	44.54
712.256	44.97
712.66	45.41
713.064	45.83
713.467	46.27
713.87	46.72
714.274	47.13
714.677	47.52
715.08	47.88
715.484	48.27
715.887	48.67
716.29	49.04
716.693	49.33
717.096	49.68
717.499	50.03
717.901	50.34
718.304	50.65
718.707	50.96
719.109	51.29
719.512	51.65
719.915	51.95
720.317	52.25
720.719	52.52
721.122	52.83
721.524	53.08
721.926	53.37
722.328	53.67
722.731	53.95
723.133	54.18
723.535	54.45
723.937	54.66
724.338	54.86
724.74	55.07
725.142	55.24
725.544	55.44
725.945	55.65
726.347	55.81
726.748	55.97
727.15	56.13
727.551	56.28
727.952	56.43
728.354	56.59
728.755	56.77
729.156	56.92
729.557	57.13
729.958	57.36
730.359	57.5
730.76	57.61
731.161	57.74
731.562	57.88
731.962	58.01
732.363	58.1
732.763	58.23
733.164	58.32
733.564	58.39
733.965	58.45
734.365	58.46
734.766	58.55
735.166	58.62
735.566	58.68
735.966	58.71
736.366	58.79
736.766	58.84
737.166	58.91
737.566	58.98
737.966	59.03
738.365	59.11
738.765	59.17
739.165	59.2
739.564	59.28
739.964	59.34
740.363	59.43
740.763	59.45
741.162	59.5
741.561	59.53
741.96	59.58
742.36	59.64
742.759	59.66
743.158	59.72
743.557	59.77
743.955	59.82
744.354	59.87
744.753	59.91
745.152	59.94
745.55	60
745.949	60.03
746.348	60.08
746.746	60.13
747.144	60.22
747.543	60.24
747.941	60.33
748.339	60.4
748.737	60.46
749.136	60.48
749.534	60.56
749.932	60.59
750.33	60.65
750.727	60.65
751.125	60.65
751.523	60.63
751.921	60.65
752.318	60.63
752.716	60.6
753.113	60.57
753.511	60.57
753.908	60.52
754.305	60.46
754.703	60.4
755.1	60.37
755.497	60.34
755.894	60.33
756.291	60.32
756.688	60.27
757.085	60.25
757.482	60.24
757.878	60.23
758.275	60.24
758.672	60.28
759.068	60.3
759.465	60.32
759.861	60.33
760.258	60.29
760.654	60.3
761.05	60.34
761.447	60.31
761.843	60.26
762.239	60.22
762.635	60.21
763.031	60.19
763.427	60.15
763.822	60.11
764.218	60.09
764.614	60.06
765.01	60.02
765.405	59.94
765.801	59.94
766.196	59.96
766.592	59.95
766.987	59.93
767.382	59.91
767.778	59.91
768.173	59.91
768.568	59.86
768.963	59.88
769.358	59.9
769.753	59.92
770.148	59.91
770.542	59.9
770.937	59.89
771.332	59.89
771.726	59.89
772.121	59.84
772.515	59.84
772.91	59.89
773.304	59.89
773.699	59.84
774.093	59.81
774.487	59.81
774.881	59.81
775.275	59.8
775.669	59.79
776.063	59.75
776.457	59.77
776.851	59.73
777.245	59.69
777.638	59.67
778.032	59.67
778.425	59.69
778.819	59.73
779.212	59.75
779.606	59.76
779.999	59.77
780.392	59.77
780.786	59.74
781.179	59.76
781.572	59.78
781.965	59.8
782.358	59.82
782.751	59.83
783.143	59.8
783.536	59.81
783.929	59.83
784.322	59.8
784.714	59.83
785.107	59.9
785.499	59.92
785.891	59.95
786.284	59.88
786.676	59.92
787.068	59.86
787.46	59.86
787.852	59.82
788.245	59.8
788.636	59.83
789.028	59.82
789.42	59.76
789.812	59.76
790.204	59.69
790.595	59.73
790.987	59.7
791.378	59.73
791.77	59.76
792.161	59.78
792.553	59.79
792.944	59.77
793.335	59.8
793.726	59.81
794.117	59.76
794.508	59.79
794.899	59.83
795.29	59.82
795.681	59.82
796.072	59.82
796.463	59.76
796.853	59.77
797.244	59.8
797.634	59.79
798.025	59.81
798.415	59.86
798.806	59.9
799.196	59.91
799.586	59.96
799.976	60
800.366	60
800.756	60.03
801.146	60.03
801.536	60.03
801.926	60.03
802.316	60.06
802.706	60.09
803.095	60.1
803.485	60.12
803.874	60.13
804.264	60.16
804.653	60.18
805.043	60.25
805.432	60.24
805.821	60.27
806.21	60.31
806.599	60.37
806.988	60.37
807.377	60.4
807.766	60.44
808.155	60.48
808.544	60.5
808.933	60.5
809.321	60.5
809.71	60.58
810.098	60.61
810.487	60.64
810.875	60.61
811.264	60.62
811.652	60.61
812.04	60.6
812.428	60.6
812.816	60.61
813.204	60.63
813.592	60.62
813.98	60.64
814.368	60.63
814.756	60.65
815.144	60.69
815.531	60.7
815.919	60.72
816.306	60.73
816.694	60.74
817.081	60.75
817.469	60.76
817.856	60.82
818.243	60.8
818.63	60.85
819.017	60.85
819.404	60.83
819.791	60.9
820.178	60.93
820.565	60.97
820.952	60.96
821.339	60.97
821.725	61
822.112	61.01
822.498	61.04
822.885	61.05
823.271	61.06
823.657	61.07
824.044	61.02
824.43	61.01
824.816	60.98
825.202	60.98
825.588	60.98
825.974	60.97
826.36	60.94
826.746	60.96
827.132	60.94
827.517	60.94
827.903	60.94
828.289	60.94
828.674	60.91
829.06	60.95
829.445	60.97
829.83	60.96
830.216	60.95
830.601	60.97
830.986	60.92
831.371	60.93
831.756	60.9
832.141	60.89
832.526	60.87
832.911	60.93
833.295	60.9
833.68	60.86
834.065	60.85
834.449	60.83
834.834	60.77
835.218	60.77
835.603	60.72
835.987	60.7
836.371	60.7
836.755	60.67
837.139	60.61
837.524	60.58
837.908	60.56
838.291	60.55
838.675	60.56
839.059	60.59
839.443	60.58
839.827	60.6
840.21	60.63
840.594	60.63
840.977	60.62
841.361	60.62
841.744	60.63
842.127	60.61
842.511	60.59
842.894	60.54
843.277	60.54
843.66	60.52
844.043	60.52
844.426	60.49
844.809	60.47
845.191	60.48
845.574	60.48
845.957	60.44
846.339	60.47
846.722	60.5
847.104	60.54
847.487	60.54
847.869	60.55
848.252	60.54
848.634	60.57
849.016	60.59
849.398	60.6
849.78	60.61
850.162	60.6
850.544	60.61
850.926	60.59
851.307	60.57
851.689	60.56
852.071	60.56
852.452	60.58
852.834	60.54
853.215	60.52
853.597	60.53
853.978	60.52
854.359	60.55
854.741	60.56
855.122	60.55
855.503	60.54
855.884	60.55
856.265	60.53
856.646	60.49
857.026	60.53
857.407	60.48
857.788	60.49
858.169	60.47
858.549	60.49
858.93	60.48
859.31	60.49
859.69	60.48
860.071	60.48
860.451	60.51
860.831	60.53
861.211	60.52
861.591	60.56
861.971	60.53
862.351	60.56
862.731	60.55
863.111	60.52
863.491	60.54
863.87	60.55
864.25	60.54
864.629	60.51
865.009	60.5
865.388	60.48
865.768	60.49
866.147	60.49
866.526	60.45
866.905	60.46
867.284	60.47
867.663	60.48
868.042	60.48
868.421	60.49
868.8	60.51
869.179	60.51
869.558	60.5
869.936	60.49
870.315	60.51
870.693	60.53
871.072	60.5
871.45	60.48
871.828	60.44
872.207	60.45
872.585	60.44
872.963	60.39
873.341	60.38
873.719	60.38
874.097	60.37
874.475	60.33
874.853	60.32
875.23	60.34
875.608	60.37
875.986	60.38
876.363	60.37
876.741	60.34
877.118	60.35
877.495	60.37
877.873	60.36
878.25	60.39
878.627	60.4
879.004	60.4
879.381	60.38
879.758	60.37
880.135	60.4
880.512	60.39
880.889	60.43
881.265	60.49
881.642	60.48
882.019	60.52
882.395	60.5
882.772	60.51
883.148	60.55
883.524	60.58
883.901	60.59
884.277	60.56
884.653	60.55
885.029	60.55
885.405	60.49
885.781	60.51
886.157	60.51
886.532	60.52
886.908	60.54
887.284	60.54
887.659	60.5
888.035	60.48
888.411	60.48
888.786	60.47
889.161	60.45
889.537	60.46
889.912	60.42
890.287	60.39
890.662	60.36
891.037	60.3
891.412	60.24
891.787	60.27
892.162	60.25
892.536	60.24
892.911	60.22
893.286	60.16
893.66	60.13
894.035	60.1
894.409	60.07
894.784	60.08
895.158	60.08
895.532	60.07
895.906	60.02
896.281	60
896.655	60
897.029	59.97
897.402	60.01
897.776	60
898.15	60.02
898.524	60.01
898.898	59.98
899.271	59.97
899.645	59.95
900.018	59.98
900.392	59.98
900.765	59.95
901.138	59.99
901.511	59.97
901.884	60.01
902.258	59.98
902.631	59.98
903.003	59.99
903.376	59.95
903.749	59.98
904.122	59.96
904.495	59.95
904.867	59.92
905.24	59.93
905.612	59.93
905.985	59.88
906.357	59.87
906.729	59.84
907.102	59.85
907.474	59.86
907.846	59.85
908.218	59.81
908.59	59.76
908.962	59.78
909.334	59.72
909.705	59.68
910.077	59.68
910.449	59.68
910.82	59.65
911.192	59.6
911.563	59.57
911.935	59.57
912.306	59.57
912.677	59.59
913.048	59.57
913.419	59.55
913.79	59.57
914.161	59.58
914.532	59.56
914.903	59.57
915.274	59.55
915.645	59.58
916.015	59.58
916.386	59.56
916.756	59.51
917.127	59.52
917.497	59.52
917.868	59.5
918.238	59.48
918.608	59.5
918.978	59.49
919.348	59.51
919.718	59.51
920.088	59.49
920.458	59.53
920.828	59.59
921.198	59.59
921.567	59.59
921.937	59.58
922.306	59.56
922.676	59.57
923.045	59.57
923.415	59.58
923.784	59.58
924.153	59.58
924.522	59.55
924.891	59.49
925.26	59.5
925.629	59.47
925.998	59.48
926.367	59.49
926.736	59.41
927.104	59.4
927.473	59.38
927.842	59.34
928.21	59.35
928.578	59.31
928.947	59.3
929.315	59.31
929.683	59.35
930.051	59.3
930.42	59.29
930.788	59.32
931.156	59.26
931.523	59.26
931.891	59.16
932.259	59.04
932.627	58.97
932.994	58.91
933.362	58.78
933.729	58.68
934.097	58.6
934.464	58.5
934.831	58.37
935.199	58.32
935.566	58.17
935.933	58.19
936.3	58.13
936.667	58.11
937.034	58
937.401	58
937.767	57.93
938.134	57.87
938.501	57.88
938.867	57.92
939.234	57.91
939.6	57.89
939.967	57.9
940.333	58.02
940.699	58.12
941.065	58.23
941.431	58.29
941.798	58.41
942.163	58.51
942.529	58.56
942.895	58.68
943.261	58.8
943.627	58.94
943.992	58.95
944.358	59
944.723	58.97
945.089	59.02
945.454	59.09
945.82	59.15
946.185	59.23
946.55	59.34
946.915	59.25
947.28	59.3
947.645	59.26
948.01	59.32
948.375	59.29
948.74	59.29
949.104	59.28
949.469	59.14
949.834	59.06
950.198	58.96
950.562	58.9
950.927	58.87
951.291	58.75
951.655	58.78
952.02	58.74
952.384	58.73
952.748	58.72
953.112	58.73
953.476	58.79
953.839	58.71
954.203	58.68
954.567	58.57
954.931	58.6
955.294	58.64
955.658	58.6
956.021	58.63
956.385	58.67
956.748	58.63
957.111	58.58
957.474	58.56
957.837	58.59
958.2	58.58
958.563	58.6
958.926	58.51
959.289	58.5
959.652	58.47
960.015	58.41
960.377	58.4
960.74	58.41
961.102	58.42
961.465	58.4
961.827	58.29
962.189	58.29
962.552	58.24
962.914	58.28
963.276	58.23
963.638	58.17
964	58.14
964.362	58.08
964.724	58
965.085	57.98
965.447	57.92
965.809	57.95
966.17	57.94
966.532	58.01
966.893	58.04
967.255	58.01
967.616	58.05
967.977	58.04
968.338	57.97
968.699	57.92
969.061	57.84
969.421	57.82
969.782	57.84
970.143	57.76
970.504	57.6
970.865	57.49
971.225	57.44
971.586	57.45
971.946	57.44
972.307	57.41
972.667	57.49
973.027	57.56
973.388	57.54
973.748	57.51
974.108	57.5
974.468	57.6
974.828	57.61
975.188	57.61
975.548	57.49
975.907	57.48
976.267	57.5
976.627	57.43
976.986	57.37
977.346	57.41
977.705	57.48
978.064	57.52
978.424	57.5
978.783	57.57
979.142	57.61
979.501	57.59
979.86	57.6
980.219	57.58
980.578	57.62
980.937	57.66
981.296	57.64
981.654	57.67
982.013	57.65
982.371	57.5
982.73	57.44
983.088	57.34
983.447	57.44
983.805	57.34
984.163	57.35
984.521	57.25
984.879	57.16
985.237	57.07
985.595	56.92
985.953	56.92
986.311	57.05
986.669	57.02
987.026	57.04
987.384	57.02
987.741	57.12
988.099	57.08
988.456	57.17
988.814	57.23
989.171	57.24
989.528	57.23
989.885	57.12
990.242	57.02
990.599	57.04
990.956	57.09
991.313	57.06
991.67	57.04
992.027	56.91
992.383	56.95
992.74	56.88
993.096	56.83
993.453	56.77
993.809	56.88
994.165	57
994.522	56.97
994.878	56.81
995.234	56.7
995.59	56.61
995.946	56.79
996.302	56.47
996.658	56.47
997.013	56.43
997.369	56.52
997.725	56.44
998.08	56.33
998.436	56.31
998.791	56.28
999.147	56.31
999.502	56.33
999.857	56.22
1000.212	56.33
1000.567	56.34
1000.922	56.49
1001.277	56.38
1001.632	56.51
1001.987	56.4
1002.342	56.37
1002.696	56.47
1003.051	56.44
1003.406	56.28
1003.76	56.14
1004.114	56.2
1004.469	56.04
1004.823	55.96
1005.177	56.11
1005.531	55.78
1005.885	55.79
1006.239	55.72
1006.593	55.63
1006.947	55.64
1007.301	55.69
1007.655	55.91
1008.008	55.75
1008.362	55.63
1008.715	55.52
1009.069	55.3
1009.422	55.34
1009.776	55.36
1010.129	55.35
1010.482	55.5
1010.835	55.49
1011.188	55.38
1011.541	55.17
1011.894	55.29
1012.247	55.32
1012.6	55.32
1012.952	55.13
1013.305	55.16
1013.657	55.09
1014.01	55.22
1014.362	55.21
1014.715	55.05
1015.067	55.13
1015.419	55.18
1015.771	55.32
1016.123	55.43
1016.475	55.34
1016.827	55.51
1017.179	55.21
1017.531	55.1
1017.883	54.82
1018.234	54.44
1018.586	54.45
1018.938	54.05
1019.289	53.65
1019.64	53.62
1019.992	53.51
1020.343	53.49
1020.694	53.33
1021.045	53.51
1021.396	53.31
1021.747	53.3
1022.098	53.44
1022.449	53.27
1022.8	53.34
1023.151	53.45
1023.501	53.02
1023.852	52.97
1024.202	53.21
1024.553	53.14
1024.903	53.18
1025.253	53.49
1025.604	53.72
1025.954	53.23
1026.304	53.74
1026.654	54
1027.004	54.03
1027.354	54.29
1027.703	54.16
1028.053	53.73
1028.403	53.35
1028.753	53.28
1029.102	53.18
1029.452	52.87
1029.801	53.29
1030.15	52.85
1030.499	52.65
897.758	481.59
901.051	482.48
904.343	497.51
907.636	491.28
910.928	481.68
914.22	491.48
917.511	478.9
920.803	457.79
924.094	437.6
927.384	442.78
930.675	431.32
933.965	428.29
937.255	433.12
940.544	410.41
943.834	389.08
947.123	384.43
950.411	364.41
953.7	360.32
956.988	349.83
960.276	338.3
963.563	336.46
966.851	317.18
970.138	311.23
973.424	290.51
976.711	287.72
979.997	279.97
983.283	274.04
986.568	265.48
989.853	257.24
993.138	248.3
996.423	246.42
999.708	236.48
1002.992	239.24
1006.275	230.27
1009.559	229.47
1012.842	222.77
1016.125	216.62
1019.408	212.77
1022.69	212.96
1025.972	210.72
1029.254	207.17
1032.536	201.7
1035.817	196.01
1039.098	192.38
1042.379	192.11
1045.659	188.24
1048.939	188.63
1052.219	184.87
1055.498	181.94
1058.778	177.55
1062.057	176.78
1065.335	174.91
1068.614	173.11
1071.892	171.76
1075.17	168.25
1078.447	164.8
1081.724	163.87
1085.001	158.72
1088.278	160.87
1091.554	160.01
1094.83	158.87
1098.106	155.85
1101.382	155.47
1104.657	154.48
1107.932	154.29
1111.206	154.34
1114.481	152.88
1117.755	151.94
1121.029	152.25
1124.302	149.63
1127.575	148.18
1130.848	147.8
1134.121	145.82
1137.393	145.78
1140.665	144.86
1143.937	143.67
1147.208	141.63
1150.48	141.66
1153.75	141.05
1157.021	139.64
1160.291	138.97
1163.561	137.87
1166.831	137.77
1170.101	137.67
1173.37	136.28
1176.639	135.26
1179.907	134.89
1183.176	134.79
1186.444	134.9
1189.711	133.63
1192.979	134.43
1196.246	134.8
1199.513	135.03
1202.78	134.3
1206.046	134.37
1209.312	134.5
1212.578	135.58
1215.843	137.15
1219.108	138.41
1222.373	140.15
1225.638	143.2
1228.902	145.53
1232.166	148.92
1235.43	150.18
1238.693	153.98
1241.956	156.83
1245.219	161.23
1248.482	162.32
1251.744	162.66
1255.006	162.11
1258.268	158.23
1261.529	156.46
1264.79	152.88
1268.051	150.65
1271.312	149.32
1274.572	146.58
1277.832	144.13
1281.092	142.14
1284.351	139.57
1287.61	138.99
1290.869	138.72
1294.128	138.38
1297.386	138.01
1300.644	137.62
1303.902	136.35
1307.159	135.13
1310.416	136.11
1313.673	137.17
1316.93	138.23
1320.186	140.28
1323.442	141.83
1326.697	143.72
1329.953	145.08
1333.208	148.5
1336.463	153.73
1339.717	156.53
1342.972	164.4
1346.226	168.07
1349.479	169.21
1352.733	175.27
1355.986	178.24
1359.238	181.81
1362.491	182.93
1365.743	188.66
1368.995	190.77
1372.247	189.95
1375.498	189.05
1378.749	194.86
1382	194.98
1385.251	193.31
1388.501	194.86
1391.751	196.31
1395	193.11
1398.25	195.01
1401.499	192.94
1404.748	191.49
1407.996	186.12
1411.244	187.17
1414.492	183.53
1417.74	177.31
1420.987	174.45
1424.234	169.34
1427.481	162.4
1430.728	159.37
1433.974	154.04
1437.22	150.32
1440.465	145.56
1443.711	143.02
1446.956	138.58
1450.201	133.32
1453.445	128.14
1456.689	125.32
1459.933	121.49
1463.177	117.36
1466.42	115.59
1469.663	112.71
1472.906	109.43
1476.148	107
1479.391	104.96
1482.633	103.04
1485.874	102.19
1489.115	101.61
1492.356	99.83
1495.597	98.15
1498.838	98.87
1502.078	97.67
1505.318	97.49
1508.557	97.17
1511.797	96.54
1515.036	96.2
1518.274	96.22
1521.513	94.89
1524.751	94.42
1527.989	96.18
1531.227	96.19
1534.464	95.8
1537.701	95.87
1540.938	95.32
1544.174	95.32
1547.41	95.85
1550.646	96.17
1553.882	95.87
1557.117	95.42
1560.352	95.68
1563.587	94.25
1566.821	94.53
1570.055	94.07
1573.289	93.7
1576.523	93.47
1579.756	93.49
1582.989	93.44
1586.222	93.11
1589.454	93.72
1592.686	94.41
1595.918	93.89
1599.15	93.81
1602.381	93.42
1605.612	93.51
1608.843	93.58
1612.073	94.69
1615.303	94.6
1618.533	94.06
1621.762	94.03
1624.992	93.49
1628.221	92.85
1631.449	93.83
1634.678	93.84
1637.906	94.34
1641.134	94.36
1644.361	94.28
1647.588	93.28
1650.815	93.64
1654.042	93.96
1657.269	93.69
1660.495	94.32
1663.72	95.05
1666.946	94.08
1670.171	94.53
1673.396	95
1676.621	95.11
1679.845	95.18
1683.069	95.52
1686.293	95.15
1689.517	95.01
1692.74	95.46
1695.963	94.99
1699.185	95.18
1702.408	95.56
1705.63	95.27
1708.852	95.69
1712.073	95.53
1715.294	95.57
1718.515	96.32
1721.736	96.3
1724.956	96.68
1728.176	96.31
1731.396	96.71
1734.616	96.63
1737.835	96.83
1741.054	97.28
1744.272	96.35
1747.491	96.53
1750.709	97.21
1753.927	97.04
1757.144	97.28
1760.361	97.16
1763.578	98.1
1766.795	98.33
1770.011	98.05
1773.227	98.75
1776.443	99.25
1779.658	99.13
1782.874	99.74
1786.089	99.2
1789.303	99.13
1792.518	99.54
1795.732	100.53
1798.945	101.45
1802.159	101.39
1805.372	102.44
1808.585	102.86
1811.797	103.02
1815.01	104.01
1818.222	104.51
1821.434	105.67
1824.645	106.11
1827.856	107.22
1831.067	107.42
1834.278	107.92
1837.488	108.92
1840.698	109.86
1843.908	109.8
1847.117	110.39
1850.326	111.34
1853.535	112.59
1856.744	112.72
1859.952	114.27
1863.16	114.12
1866.368	112.97
1869.575	111.92
1872.782	111.57
1875.989	110.27
1879.196	109.9
1882.402	108.47
1885.608	108.46
1888.814	106.04
1892.019	107.01
1895.224	104.21
1898.429	104.56
1901.634	104.54
1904.838	104.74
1908.042	104.63
1911.246	103.74
1914.449	103.51
1917.652	103.52
1920.855	103.44
1924.058	103.38
1927.26	101.82
1930.462	102.76
1933.664	101.87
1936.865	102.9
1940.066	101.29
1943.267	100.57
1946.467	101.99
1949.668	101.64
1952.868	102.15
1956.067	102.11
1959.267	102.04
1962.466	102.37
1965.665	103.9
1968.863	105.18
1972.061	105.44
1975.259	108.43
1978.457	110.06
1981.654	110.45
1984.852	111.97
1988.048	113.44
1991.245	115.09
1994.441	118.25
1997.637	120.71
2000.833	122.41
2004.028	122.87
2007.223	126.85
2010.418	129.15
2013.613	134.53
2016.807	138.04
2020.001	139.22
2023.194	144.24
2026.388	148.85
2029.581	157.64
2032.774	161.83
2035.966	165.76
2039.158	171.14
2042.35	172.59
2045.542	176.27
2048.733	182.44
2051.924	183.86
2055.115	189.13
2058.306	189.62
2061.496	192.55
2064.686	191.5
2067.875	190.22
2071.065	193.42
2074.254	194.43
2077.442	200.14
2080.631	199.96
2083.819	199.86
2087.007	206.91
2090.195	208.62
2093.382	210.33
2096.569	210.93
2099.756	213.24
2102.942	218.52
2106.128	222.76
2109.314	225.18
2112.5	226.06
2115.685	224.67
2118.87	225.11
2122.055	222.52
2125.239	227.35
2128.424	231.43
2131.608	228.78
2134.791	229.56
2137.974	230.13
2141.157	232
2144.34	231.63
2147.523	234.77
2150.705	241.62
2153.887	240.37
2157.068	243.58
2160.25	245.55
2163.431	245.55
2166.611	250.06
2169.792	253.37
2172.972	258.63
2176.152	257.2
2179.331	263.06
2182.511	265.84
2185.69	267.74
2188.868	275.01
2192.047	282.81
2195.225	287.8
2198.403	286.55
2201.58	284.51
2204.758	295.62
2207.935	294.61
2211.111	303.36
2214.288	307.1
2217.464	307.77
2220.64	310.95
2223.815	312.04
2226.991	306.68
2230.166	308.43
2233.34	322.39
2236.515	334.7
2239.689	323.87
2242.863	331.1
2246.036	326.09
2249.209	331.56
2252.382	331.46
2255.555	344.21
2258.727	347.91
2261.9	357.65
2265.071	363.21
2268.243	357.33
2271.414	365.26
2274.585	374.99
2277.756	373.6
2280.926	393.4
2284.096	392.96
2287.266	395.32
2290.436	386.48
2293.605	397.03
2296.774	406.65
2299.942	408.62
2303.111	422.44
2306.279	431.78
2309.447	432.12
2312.614	437.06
2315.781	438.57
2318.948	444.35
2322.115	454.54
2325.281	478.4
2328.447	471.64
2331.613	478.97
2334.779	482.07
2337.944	487.76
2341.109	491.99
2344.274	498.71
2347.438	507.06
2350.602	519.87
2353.766	552.07
2356.929	551.88
2360.092	557.45
2363.255	564.9
2366.418	573.05
2369.58	580.89
2372.742	586.81
2375.904	582.33
2379.066	601.51
2382.227	637.29
2385.388	631.18
2388.548	599.76
2391.709	593.48
2394.869	608.97
2398.029	604.88
2401.188	605.94
2404.347	626.85
2407.506	639.61
2410.665	618.98
2413.823	629.13
2416.981	629.46
2420.139	601.04
2423.296	652.69
2426.453	694.6
2429.61	657.26
2432.767	705
2435.923	726.85
2439.079	702.05
2442.235	723.7
2445.391	744.47
2448.546	727.11
2451.701	767.99
2454.855	819.4
2458.009	723.84
2461.163	737.02
2464.317	756.47
2467.471	741.24
2470.624	763.93
2473.777	752.45
2476.929	727.33
2480.082	770.5
2483.234	811.02
2486.385	816.66
2489.537	841.88
2492.688	925.54
2495.839	914.86
2498.989	940.78
2502.14	938.37
2505.29	899.71
2508.439	995.94
2511.589	1010.79
2514.738	988.82
2517.887	973.69
2521.035	915.7
2524.183	899.85
2527.331	886.94
2530.479	859.27
2533.627	876.66
