Data from C_2_dec_oh_4n_046_Splice17_07.txt Node
Date: Sat Feb 29 14:35:46 EST 2020
User: sa697716
Spectrometer: FLMS03696
Trigger mode: 0
Integration Time (sec): 3.180400E-1
Scans to average: 20
Electric dark correction enabled: true
Nonlinearity correction enabled: true
Boxcar width: 5
XAxis mode: Wavelengths
Number of Pixels in Spectrum: 2048
>>>>>Begin Spectral Data<<<<<
187.83	26.98
188.298	27.42
188.766	31.99
189.233	27.18
189.701	40.24
190.169	49.88
190.636	36.07
191.104	9.72
191.571	-29.02
192.039	68.15
192.506	315.03
192.974	5850.86
193.441	-421.98
193.908	89.94
194.375	75.87
194.842	155.9
195.31	131.18
195.777	46.53
196.244	18.35
196.711	29.42
197.177	30.63
197.644	32.14
198.111	32.36
198.578	32.81
199.045	34.11
199.511	35.62
199.978	36.47
200.445	35.95
200.911	36.94
201.378	37.49
201.844	38.54
202.31	39.18
202.777	39.47
203.243	40.61
203.709	41.23
204.176	40.91
204.642	40.41
205.108	40.19
205.574	41.14
206.04	40.94
206.506	40.82
206.972	40.58
207.438	40.27
207.903	40.78
208.369	40.34
208.835	40.41
209.301	40.78
209.766	40.86
210.232	41.03
210.697	40.88
211.163	40.69
211.628	40.87
212.094	41
212.559	40.57
213.024	39.81
213.49	39.56
213.955	39.52
214.42	39.28
214.885	38.89
215.35	39.02
215.815	38.83
216.28	38.76
216.745	38.32
217.21	37.66
217.675	37.55
218.14	37.06
218.604	36.36
219.069	35.95
219.534	35.46
219.998	35.03
220.463	34.46
220.927	33.99
221.392	33.49
221.856	33.04
222.32	32.7
222.785	32.25
223.249	31.89
223.713	31.62
224.177	31.18
224.642	30.81
225.106	30.45
225.57	30.07
226.034	29.71
226.497	29.34
226.961	28.95
227.425	28.55
227.889	28.14
228.353	27.78
228.816	27.42
229.28	27.06
229.744	26.74
230.207	26.38
230.671	26.05
231.134	25.72
231.597	25.41
232.061	25.1
232.524	24.82
232.987	24.57
233.45	24.26
233.914	23.95
234.377	23.7
234.84	23.43
235.303	23.18
235.766	22.92
236.229	22.67
236.691	22.44
237.154	22.21
237.617	21.99
238.08	21.78
238.542	21.58
239.005	21.38
239.468	21.13
239.93	20.93
240.393	20.73
240.855	20.53
241.317	20.36
241.78	20.2
242.242	20.01
242.704	19.82
243.166	19.63
243.629	19.45
244.091	19.29
244.553	19.14
245.015	18.98
245.477	18.83
245.939	18.69
246.4	18.52
246.862	18.36
247.324	18.23
247.786	18.11
248.247	17.97
248.709	17.85
249.17	17.72
249.632	17.58
250.093	17.44
250.555	17.31
251.016	17.2
251.477	17.08
251.939	16.98
252.4	16.87
252.861	16.77
253.322	16.67
253.783	16.58
254.244	16.49
254.705	16.41
255.166	16.35
255.627	16.27
256.088	16.18
256.549	16.11
257.009	16.01
257.47	15.93
257.931	15.84
258.391	15.75
258.852	15.66
259.312	15.57
259.773	15.49
260.233	15.39
260.694	15.31
261.154	15.23
261.614	15.15
262.074	15.08
262.534	14.99
262.994	14.92
263.455	14.86
263.915	14.79
264.374	14.71
264.834	14.67
265.294	14.61
265.754	14.55
266.214	14.5
266.673	14.45
267.133	14.4
267.593	14.36
268.052	14.3
268.512	14.25
268.971	14.21
269.431	14.17
269.89	14.11
270.349	14.06
270.809	14.02
271.268	13.97
271.727	13.92
272.186	13.88
272.645	13.82
273.104	13.78
273.563	13.74
274.022	13.68
274.481	13.63
274.94	13.58
275.399	13.53
275.857	13.48
276.316	13.43
276.775	13.37
277.233	13.3
277.692	13.26
278.15	13.2
278.609	13.14
279.067	13.08
279.525	13.02
279.984	12.98
280.442	12.94
280.9	12.88
281.358	12.83
281.816	12.78
282.274	12.74
282.732	12.7
283.19	12.66
283.648	12.63
284.106	12.59
284.564	12.56
285.021	12.52
285.479	12.49
285.937	12.46
286.394	12.42
286.852	12.39
287.309	12.36
287.767	12.32
288.224	12.28
288.682	12.23
289.139	12.19
289.596	12.15
290.053	12.09
290.511	12.04
290.968	11.99
291.425	11.94
291.882	11.89
292.339	11.85
292.796	11.8
293.252	11.75
293.709	11.7
294.166	11.65
294.623	11.61
295.079	11.57
295.536	11.53
295.992	11.49
296.449	11.46
296.905	11.42
297.362	11.39
297.818	11.36
298.274	11.32
298.731	11.29
299.187	11.26
299.643	11.22
300.099	11.18
300.555	11.15
301.011	11.11
301.467	11.08
301.923	11.04
302.379	11.01
302.835	10.98
303.291	10.95
303.746	10.92
304.202	10.9
304.658	10.86
305.113	10.84
305.569	10.81
306.024	10.78
306.479	10.76
306.935	10.74
307.39	10.72
307.845	10.7
308.301	10.68
308.756	10.67
309.211	10.64
309.666	10.63
310.121	10.6
310.576	10.59
311.031	10.57
311.486	10.54
311.94	10.52
312.395	10.5
312.85	10.48
313.305	10.46
313.759	10.44
314.214	10.42
314.668	10.4
315.123	10.4
315.577	10.4
316.032	10.39
316.486	10.38
316.94	10.36
317.394	10.33
317.849	10.31
318.303	10.29
318.757	10.26
319.211	10.22
319.665	10.19
320.119	10.15
320.572	10.12
321.026	10.07
321.48	10.04
321.934	10.02
322.387	10
322.841	9.96
323.295	9.93
323.748	9.9
324.202	9.89
324.655	9.86
325.108	9.84
325.562	9.81
326.015	9.79
326.468	9.75
326.921	9.73
327.374	9.69
327.827	9.67
328.28	9.65
328.733	9.63
329.186	9.61
329.639	9.59
330.092	9.56
330.545	9.55
330.997	9.53
331.45	9.51
331.903	9.49
332.355	9.49
332.808	9.48
333.26	9.47
333.713	9.46
334.165	9.45
334.617	9.45
335.069	9.44
335.522	9.43
335.974	9.43
336.426	9.43
336.878	9.43
337.33	9.41
337.782	9.41
338.234	9.41
338.686	9.39
339.137	9.38
339.589	9.36
340.041	9.35
340.493	9.33
340.944	9.32
341.396	9.3
341.847	9.27
342.299	9.25
342.75	9.21
343.201	9.18
343.653	9.15
344.104	9.13
344.555	9.1
345.006	9.06
345.457	9.04
345.908	9.01
346.359	8.99
346.81	8.97
347.261	8.95
347.712	8.95
348.163	8.94
348.613	8.92
349.064	8.89
349.515	8.88
349.965	8.87
350.416	8.87
350.866	8.86
351.317	8.85
351.767	8.84
352.217	8.83
352.668	8.82
353.118	8.81
353.568	8.81
354.018	8.82
354.468	8.82
354.918	8.81
355.368	8.8
355.818	8.77
356.268	8.76
356.718	8.75
357.168	8.74
357.617	8.73
358.067	8.72
358.517	8.7
358.966	8.69
359.416	8.69
359.865	8.67
360.315	8.66
360.764	8.66
361.213	8.65
361.663	8.64
362.112	8.63
362.561	8.62
363.01	8.62
363.459	8.6
363.908	8.58
364.357	8.57
364.806	8.56
365.255	8.56
365.703	8.55
366.152	8.55
366.601	8.54
367.05	8.54
367.498	8.53
367.947	8.51
368.395	8.52
368.844	8.51
369.292	8.5
369.74	8.5
370.189	8.49
370.637	8.48
371.085	8.48
371.533	8.48
371.981	8.47
372.429	8.47
372.877	8.46
373.325	8.44
373.773	8.44
374.221	8.43
374.669	8.41
375.116	8.38
375.564	8.37
376.012	8.35
376.459	8.34
376.907	8.33
377.354	8.32
377.801	8.31
378.249	8.32
378.696	8.32
379.143	8.32
379.591	8.33
380.038	8.35
380.485	8.35
380.932	8.36
381.379	8.34
381.826	8.34
382.273	8.35
382.72	8.37
383.166	8.36
383.613	8.35
384.06	8.35
384.506	8.34
384.953	8.33
385.4	8.33
385.846	8.33
386.292	8.35
386.739	8.35
387.185	8.37
387.631	8.37
388.078	8.38
388.524	8.38
388.97	8.38
389.416	8.39
389.862	8.39
390.308	8.4
390.754	8.41
391.2	8.42
391.645	8.43
392.091	8.43
392.537	8.44
392.983	8.46
393.428	8.5
393.874	8.54
394.319	8.55
394.765	8.56
395.21	8.56
395.655	8.58
396.101	8.59
396.546	8.6
396.991	8.6
397.436	8.59
397.881	8.6
398.326	8.62
398.771	8.63
399.216	8.66
399.661	8.7
400.106	8.75
400.551	8.77
400.995	8.77
401.44	8.78
401.885	8.79
402.329	8.8
402.774	8.79
403.218	8.78
403.663	8.78
404.107	8.78
404.551	8.8
404.995	8.78
405.44	8.78
405.884	8.8
406.328	8.81
406.772	8.83
407.216	8.85
407.66	8.88
408.104	8.89
408.547	8.9
408.991	8.88
409.435	8.88
409.879	8.87
410.322	8.89
410.766	8.89
411.209	8.91
411.653	8.9
412.096	8.9
412.54	8.9
412.983	8.9
413.426	8.91
413.869	8.93
414.312	8.95
414.756	8.98
415.199	9.01
415.642	9.03
416.085	9.05
416.527	9.09
416.97	9.12
417.413	9.13
417.856	9.14
418.298	9.13
418.741	9.13
419.184	9.13
419.626	9.11
420.069	9.09
420.511	9.08
420.953	9.08
421.396	9.06
421.838	9.08
422.28	9.1
422.722	9.11
423.164	9.14
423.606	9.16
424.048	9.16
424.49	9.19
424.932	9.2
425.374	9.22
425.816	9.2
426.258	9.18
426.699	9.12
427.141	9.1
427.582	9.07
428.024	9.05
428.465	9.06
428.907	9.09
429.348	9.09
429.789	9.09
430.231	9.07
430.672	9.08
431.113	9.09
431.554	9.12
431.995	9.16
432.436	9.18
432.877	9.15
433.318	9.12
433.759	9.1
434.2	9.08
434.64	9.08
435.081	9.08
435.522	9.08
435.962	9.1
436.403	9.13
436.843	9.13
437.284	9.13
437.724	9.18
438.164	9.2
438.604	9.24
439.045	9.26
439.485	9.26
439.925	9.26
440.365	9.25
440.805	9.24
441.245	9.21
441.685	9.23
442.125	9.23
442.564	9.23
443.004	9.25
443.444	9.26
443.883	9.26
444.323	9.27
444.762	9.31
445.202	9.35
445.641	9.38
446.081	9.42
446.52	9.43
446.959	9.44
447.398	9.48
447.837	9.5
448.276	9.5
448.716	9.51
449.154	9.56
449.593	9.57
450.032	9.58
450.471	9.58
450.91	9.56
451.349	9.57
451.787	9.57
452.226	9.58
452.664	9.57
453.103	9.57
453.541	9.57
453.98	9.55
454.418	9.53
454.856	9.49
455.295	9.47
455.733	9.48
456.171	9.45
456.609	9.44
457.047	9.41
457.485	9.4
457.923	9.39
458.361	9.38
458.798	9.39
459.236	9.38
459.674	9.38
460.111	9.39
460.549	9.37
460.987	9.37
461.424	9.36
461.862	9.35
462.299	9.33
462.736	9.31
463.173	9.3
463.611	9.27
464.048	9.26
464.485	9.27
464.922	9.26
465.359	9.27
465.796	9.26
466.233	9.28
466.67	9.29
467.106	9.28
467.543	9.3
467.98	9.31
468.416	9.32
468.853	9.34
469.29	9.37
469.726	9.38
470.162	9.39
470.599	9.4
471.035	9.4
471.471	9.38
471.907	9.4
472.344	9.39
472.78	9.38
473.216	9.38
473.652	9.39
474.088	9.39
474.523	9.39
474.959	9.38
475.395	9.38
475.831	9.39
476.266	9.38
476.702	9.38
477.138	9.38
477.573	9.36
478.008	9.36
478.444	9.33
478.879	9.31
479.314	9.28
479.75	9.29
480.185	9.28
480.62	9.26
481.055	9.26
481.49	9.25
481.925	9.22
482.36	9.22
482.795	9.21
483.229	9.21
483.664	9.2
484.099	9.21
484.534	9.2
484.968	9.19
485.403	9.18
485.837	9.19
486.271	9.19
486.706	9.21
487.14	9.21
487.574	9.22
488.009	9.23
488.443	9.23
488.877	9.24
489.311	9.25
489.745	9.27
490.179	9.29
490.613	9.3
491.046	9.32
491.48	9.35
491.914	9.38
492.348	9.4
492.781	9.42
493.215	9.45
493.648	9.49
494.082	9.53
494.515	9.56
494.948	9.6
495.382	9.64
495.815	9.69
496.248	9.75
496.681	9.8
497.114	9.86
497.547	9.93
497.98	10
498.413	10.07
498.846	10.14
499.279	10.24
499.711	10.32
500.144	10.42
500.577	10.51
501.009	10.6
501.442	10.71
501.874	10.82
502.306	10.95
502.739	11.07
503.171	11.21
503.603	11.37
504.036	11.52
504.468	11.7
504.9	11.88
505.332	12.07
505.764	12.26
506.196	12.47
506.627	12.69
507.059	12.91
507.491	13.16
507.923	13.4
508.354	13.66
508.786	13.92
509.217	14.18
509.649	14.47
510.08	14.76
510.512	15.06
510.943	15.39
511.374	15.72
511.805	16.05
512.237	16.4
512.668	16.75
513.099	17.12
513.53	17.49
513.961	17.88
514.391	18.24
514.822	18.62
515.253	19.01
515.684	19.41
516.114	19.82
516.545	20.24
516.975	20.66
517.406	21.09
517.836	21.5
518.267	21.91
518.697	22.35
519.127	22.8
519.558	23.23
519.988	23.68
520.418	24.1
520.848	24.51
521.278	24.94
521.708	25.31
522.138	25.7
522.567	26.07
522.997	26.47
523.427	26.83
523.857	27.17
524.286	27.55
524.716	27.88
525.145	28.24
525.575	28.56
526.004	28.87
526.433	29.21
526.863	29.51
527.292	29.82
527.721	30.1
528.15	30.36
528.579	30.64
529.008	30.87
529.437	31.11
529.866	31.31
530.295	31.53
530.724	31.75
531.152	31.94
531.581	32.13
532.01	32.3
532.438	32.46
532.867	32.64
533.295	32.78
533.723	32.94
534.152	33.05
534.58	33.18
535.008	33.28
535.436	33.39
535.865	33.47
536.293	33.56
536.721	33.65
537.149	33.72
537.576	33.78
538.004	33.86
538.432	33.91
538.86	33.99
539.287	34.05
539.715	34.1
540.143	34.13
540.57	34.19
540.998	34.24
541.425	34.28
541.852	34.32
542.28	34.35
542.707	34.38
543.134	34.41
543.561	34.43
543.988	34.45
544.415	34.51
544.842	34.55
545.269	34.59
545.696	34.63
546.123	34.67
546.549	34.72
546.976	34.77
547.403	34.81
547.829	34.86
548.256	34.9
548.682	34.93
549.108	34.95
549.535	34.97
549.961	34.99
550.387	34.99
550.813	34.98
551.24	34.98
551.666	34.98
552.092	34.94
552.518	34.92
552.943	34.91
553.369	34.87
553.795	34.83
554.221	34.78
554.646	34.73
555.072	34.67
555.498	34.6
555.923	34.53
556.349	34.4
556.774	34.32
557.199	34.22
557.625	34.12
558.05	34
558.475	33.87
558.9	33.75
559.325	33.6
559.75	33.44
560.175	33.28
560.6	33.11
561.025	32.95
561.449	32.77
561.874	32.58
562.299	32.37
562.723	32.18
563.148	31.97
563.572	31.77
563.997	31.56
564.421	31.35
564.846	31.11
565.27	30.88
565.694	30.66
566.118	30.41
566.542	30.17
566.966	29.91
567.39	29.66
567.814	29.38
568.238	29.09
568.662	28.82
569.086	28.56
569.509	28.31
569.933	28.03
570.357	27.74
570.78	27.48
571.204	27.23
571.627	26.99
572.05	26.75
572.474	26.52
572.897	26.3
573.32	26.07
573.743	25.85
574.166	25.65
574.589	25.46
575.012	25.29
575.435	25.1
575.858	24.92
576.281	24.76
576.704	24.59
577.126	24.42
577.549	24.28
577.972	24.15
578.394	24
578.817	23.83
579.239	23.71
579.661	23.59
580.084	23.47
580.506	23.35
580.928	23.21
581.35	23.09
581.772	22.99
582.194	22.87
582.616	22.75
583.038	22.66
583.46	22.58
583.882	22.49
584.303	22.37
584.725	22.25
585.147	22.15
585.568	22.05
585.99	21.96
586.411	21.87
586.833	21.78
587.254	21.7
587.675	21.62
588.096	21.56
588.518	21.48
588.939	21.41
589.36	21.33
589.781	21.26
590.202	21.21
590.623	21.15
591.043	21.08
591.464	21.03
591.885	20.97
592.305	20.93
592.726	20.87
593.147	20.82
593.567	20.78
593.987	20.76
594.408	20.71
594.828	20.69
595.248	20.64
595.669	20.6
596.089	20.56
596.509	20.52
596.929	20.45
597.349	20.39
597.769	20.34
598.189	20.29
598.608	20.21
599.028	20.17
599.448	20.1
599.867	20.02
600.287	19.94
600.706	19.86
601.126	19.79
601.545	19.72
601.965	19.65
602.384	19.56
602.803	19.48
603.222	19.39
603.641	19.31
604.061	19.22
604.48	19.14
604.898	19.06
605.317	18.98
605.736	18.89
606.155	18.8
606.574	18.69
606.992	18.58
607.411	18.48
607.829	18.37
608.248	18.26
608.666	18.14
609.085	18.04
609.503	17.93
609.921	17.82
610.339	17.71
610.758	17.6
611.176	17.5
611.594	17.42
612.012	17.3
612.43	17.22
612.847	17.13
613.265	17.05
613.683	16.96
614.101	16.84
614.518	16.75
614.936	16.66
615.353	16.57
615.771	16.5
616.188	16.42
616.606	16.36
617.023	16.28
617.44	16.2
617.857	16.12
618.274	16.06
618.691	16.03
619.108	15.99
619.525	15.95
619.942	15.91
620.359	15.87
620.776	15.82
621.192	15.79
621.609	15.76
622.026	15.73
622.442	15.69
622.859	15.68
623.275	15.64
623.691	15.6
624.108	15.59
624.524	15.57
624.94	15.55
625.356	15.55
625.772	15.54
626.188	15.54
626.604	15.53
627.02	15.53
627.436	15.51
627.852	15.51
628.268	15.49
628.683	15.47
629.099	15.46
629.514	15.45
629.93	15.4
630.345	15.36
630.761	15.31
631.176	15.28
631.591	15.23
632.007	15.16
632.422	15.12
632.837	15.06
633.252	15
633.667	14.92
634.082	14.83
634.497	14.74
634.911	14.64
635.326	14.56
635.741	14.44
636.155	14.36
636.57	14.25
636.984	14.12
637.399	13.98
637.813	13.84
638.228	13.71
638.642	13.59
639.056	13.47
639.47	13.35
639.884	13.2
640.298	13.07
640.712	12.93
641.126	12.8
641.54	12.67
641.954	12.56
642.368	12.43
642.781	12.3
643.195	12.17
643.609	12.06
644.022	11.94
644.436	11.84
644.849	11.74
645.262	11.65
645.676	11.56
646.089	11.46
646.502	11.36
646.915	11.31
647.328	11.24
647.741	11.17
648.154	11.12
648.567	11.09
648.98	11.05
649.393	11
649.805	10.94
650.218	10.9
650.631	10.88
651.043	10.84
651.456	10.81
651.868	10.78
652.28	10.76
652.693	10.71
653.105	10.66
653.517	10.61
653.929	10.57
654.341	10.54
654.753	10.49
655.165	10.45
655.577	10.38
655.989	10.31
656.401	10.25
656.813	10.18
657.224	10.12
657.636	10.07
658.047	10.03
658.459	9.96
658.87	9.91
659.282	9.86
659.693	9.8
660.104	9.75
660.515	9.7
660.926	9.65
661.338	9.61
661.749	9.55
662.159	9.49
662.57	9.45
662.981	9.41
663.392	9.37
663.803	9.34
664.213	9.31
664.624	9.3
665.035	9.28
665.445	9.28
665.855	9.27
666.266	9.27
666.676	9.27
667.086	9.27
667.497	9.26
667.907	9.26
668.317	9.24
668.727	9.24
669.137	9.24
669.547	9.23
669.956	9.23
670.366	9.25
670.776	9.25
671.186	9.28
671.595	9.29
672.005	9.31
672.414	9.32
672.824	9.36
673.233	9.38
673.642	9.38
674.052	9.4
674.461	9.43
674.87	9.45
675.279	9.46
675.688	9.48
676.097	9.51
676.506	9.54
676.915	9.57
677.323	9.61
677.732	9.66
678.141	9.71
678.549	9.77
678.958	9.82
679.366	9.88
679.775	9.94
680.183	9.99
680.592	10.04
681	10.1
681.408	10.17
681.816	10.23
682.224	10.29
682.632	10.39
683.04	10.47
683.448	10.57
683.856	10.69
684.264	10.84
684.671	11.01
685.079	11.21
685.487	11.42
685.894	11.67
686.302	11.95
686.709	12.25
687.116	12.58
687.524	12.95
687.931	13.35
688.338	13.81
688.745	14.31
689.152	14.84
689.559	15.41
689.966	16.04
690.373	16.71
690.78	17.41
691.187	18.15
691.593	18.91
692	19.74
692.407	20.57
692.813	21.43
693.22	22.3
693.626	23.22
694.032	24.13
694.439	25.06
694.845	26.01
695.251	26.97
695.657	27.91
696.063	28.9
696.469	29.87
696.875	30.85
697.281	31.81
697.687	32.79
698.093	33.73
698.498	34.69
698.904	35.65
699.31	36.58
699.715	37.54
700.12	38.5
700.526	39.41
700.931	40.32
701.337	41.25
701.742	42.11
702.147	42.99
702.552	43.89
702.957	44.76
703.362	45.62
703.767	46.49
704.172	47.32
704.577	48.12
704.981	48.93
705.386	49.72
705.791	50.5
706.195	51.29
706.6	52.05
707.004	52.83
707.408	53.54
707.813	54.26
708.217	54.95
708.621	55.64
709.025	56.35
709.43	56.99
709.834	57.69
710.237	58.33
710.641	59.01
711.045	59.65
711.449	60.23
711.853	60.87
712.256	61.48
712.66	62.07
713.064	62.65
713.467	63.23
713.87	63.84
714.274	64.4
714.677	64.92
715.08	65.44
715.484	65.98
715.887	66.52
716.29	67.04
716.693	67.51
717.096	68.02
717.499	68.51
717.901	68.99
718.304	69.47
718.707	69.94
719.109	70.46
719.512	70.95
719.915	71.42
720.317	71.84
720.719	72.25
721.122	72.7
721.524	73.11
721.926	73.54
722.328	73.95
722.731	74.32
723.133	74.67
723.535	75
723.937	75.34
724.338	75.65
724.74	76.01
725.142	76.23
725.544	76.55
725.945	76.84
726.347	77.11
726.748	77.35
727.15	77.61
727.551	77.89
727.952	78.14
728.354	78.41
728.755	78.66
729.156	78.89
729.557	79.24
729.958	79.49
730.359	79.74
730.76	79.92
731.161	80.14
731.562	80.33
731.962	80.53
732.363	80.71
732.763	80.88
733.164	81.02
733.564	81.16
733.965	81.23
734.365	81.29
734.766	81.41
735.166	81.48
735.566	81.56
735.966	81.68
736.366	81.75
736.766	81.83
737.166	81.87
737.566	81.97
737.966	82.06
738.365	82.18
738.765	82.34
739.165	82.37
739.564	82.49
739.964	82.55
740.363	82.64
740.763	82.7
741.162	82.77
741.561	82.89
741.96	82.98
742.36	83.06
742.759	83.1
743.158	83.08
743.557	83.17
743.955	83.28
744.354	83.37
744.753	83.44
745.152	83.52
745.55	83.59
745.949	83.65
746.348	83.66
746.746	83.69
747.144	83.79
747.543	83.93
747.941	84.04
748.339	84.14
748.737	84.24
749.136	84.29
749.534	84.34
749.932	84.41
750.33	84.41
750.727	84.51
751.125	84.56
751.523	84.59
751.921	84.57
752.318	84.56
752.716	84.5
753.113	84.47
753.511	84.43
753.908	84.39
754.305	84.32
754.703	84.27
755.1	84.2
755.497	84.17
755.894	84.15
756.291	84.11
756.688	84.08
757.085	84.05
757.482	84.02
757.878	84.04
758.275	84.05
758.672	84.11
759.068	84.16
759.465	84.21
759.861	84.22
760.258	84.19
760.654	84.22
761.05	84.24
761.447	84.23
761.843	84.18
762.239	84.18
762.635	84.16
763.031	84.13
763.427	84.1
763.822	84.03
764.218	84.02
764.614	83.99
765.01	83.96
765.405	83.89
765.801	83.86
766.196	83.88
766.592	83.86
766.987	83.83
767.382	83.85
767.778	83.83
768.173	83.82
768.568	83.82
768.963	83.79
769.358	83.79
769.753	83.84
770.148	83.88
770.542	83.86
770.937	83.84
771.332	83.86
771.726	83.78
772.121	83.78
772.515	83.8
772.91	83.78
773.304	83.8
773.699	83.79
774.093	83.76
774.487	83.77
774.881	83.79
775.275	83.84
775.669	83.87
776.063	83.87
776.457	83.88
776.851	83.83
777.245	83.81
777.638	83.86
778.032	83.89
778.425	83.9
778.819	83.9
779.212	83.9
779.606	83.86
779.999	83.86
780.392	83.89
780.786	83.91
781.179	83.96
781.572	84
781.965	83.99
782.358	83.97
782.751	84.03
783.143	83.99
783.536	84.08
783.929	84.15
784.322	84.14
784.714	84.2
785.107	84.2
785.499	84.25
785.891	84.24
786.284	84.23
786.676	84.27
787.068	84.21
787.46	84.21
787.852	84.15
788.245	84.15
788.636	84.13
789.028	84.09
789.42	84.13
789.812	84.15
790.204	84.15
790.595	84.19
790.987	84.18
791.378	84.24
791.77	84.31
792.161	84.33
792.553	84.32
792.944	84.39
793.335	84.43
793.726	84.36
794.117	84.3
794.508	84.32
794.899	84.31
795.29	84.29
795.681	84.27
796.072	84.23
796.463	84.21
796.853	84.25
797.244	84.22
797.634	84.15
798.025	84.21
798.415	84.24
798.806	84.26
799.196	84.31
799.586	84.36
799.976	84.38
800.366	84.43
800.756	84.45
801.146	84.47
801.536	84.48
801.926	84.48
802.316	84.49
802.706	84.55
803.095	84.55
803.485	84.56
803.874	84.55
804.264	84.63
804.653	84.61
805.043	84.61
805.432	84.56
805.821	84.62
806.21	84.71
806.599	84.81
806.988	84.85
807.377	84.89
807.766	84.93
808.155	84.96
808.544	84.96
808.933	85.03
809.321	85.09
809.71	85.17
810.098	85.17
810.487	85.2
810.875	85.23
811.264	85.23
811.652	85.27
812.04	85.27
812.428	85.32
812.816	85.34
813.204	85.36
813.592	85.38
813.98	85.38
814.368	85.4
814.756	85.44
815.144	85.44
815.531	85.48
815.919	85.49
816.306	85.5
816.694	85.49
817.081	85.47
817.469	85.48
817.856	85.55
818.243	85.58
818.63	85.66
819.017	85.67
819.404	85.65
819.791	85.64
820.178	85.67
820.565	85.71
820.952	85.74
821.339	85.81
821.725	85.87
822.112	85.88
822.498	85.89
822.885	85.89
823.271	85.89
823.657	85.91
824.044	85.93
824.43	85.95
824.816	85.95
825.202	85.94
825.588	85.95
825.974	85.92
826.36	85.88
826.746	85.92
827.132	85.86
827.517	85.83
827.903	85.82
828.289	85.77
828.674	85.72
829.06	85.71
829.445	85.72
829.83	85.72
830.216	85.73
830.601	85.74
830.986	85.7
831.371	85.79
831.756	85.75
832.141	85.78
832.526	85.78
832.911	85.83
833.295	85.84
833.68	85.84
834.065	85.83
834.449	85.75
834.834	85.69
835.218	85.67
835.603	85.64
835.987	85.63
836.371	85.59
836.755	85.54
837.139	85.47
837.524	85.42
837.908	85.37
838.291	85.33
838.675	85.37
839.059	85.35
839.443	85.34
839.827	85.31
840.21	85.35
840.594	85.35
840.977	85.37
841.361	85.41
841.744	85.45
842.127	85.46
842.511	85.44
842.894	85.44
843.277	85.47
843.66	85.48
844.043	85.48
844.426	85.45
844.809	85.44
845.191	85.42
845.574	85.37
845.957	85.33
846.339	85.3
846.722	85.3
847.104	85.26
847.487	85.29
847.869	85.29
848.252	85.25
848.634	85.27
849.016	85.27
849.398	85.29
849.78	85.27
850.162	85.26
850.544	85.27
850.926	85.25
851.307	85.26
851.689	85.23
852.071	85.26
852.452	85.25
852.834	85.19
853.215	85.2
853.597	85.2
853.978	85.17
854.359	85.17
854.741	85.22
855.122	85.21
855.503	85.21
855.884	85.19
856.265	85.14
856.646	85.14
857.026	85.18
857.407	85.13
857.788	85.15
858.169	85.2
858.549	85.22
858.93	85.16
859.31	85.17
859.69	85.17
860.071	85.18
860.451	85.15
860.831	85.14
861.211	85.14
861.591	85.17
861.971	85.15
862.351	85.16
862.731	85.16
863.111	85.15
863.491	85.16
863.87	85.14
864.25	85.14
864.629	85.16
865.009	85.15
865.388	85.12
865.768	85.13
866.147	85.11
866.526	85.08
866.905	85.09
867.284	85.1
867.663	85.08
868.042	85.09
868.421	85.06
868.8	85.06
869.179	85.11
869.558	85.1
869.936	85.05
870.315	85.06
870.693	85.04
871.072	85.04
871.45	85.03
871.828	85.03
872.207	85.04
872.585	85.05
872.963	85.01
873.341	84.99
873.719	84.98
874.097	85.03
874.475	85
874.853	85.02
875.23	85.03
875.608	85.02
875.986	85.01
876.363	85.02
876.741	85
877.118	85.05
877.495	85.01
877.873	85.03
878.25	85.02
878.627	85.03
879.004	85.01
879.381	85.02
879.758	85.02
880.135	85.05
880.512	85.05
880.889	85.06
881.265	85.09
881.642	85.11
882.019	85.12
882.395	85.11
882.772	85.1
883.148	85.11
883.524	85.08
883.901	85.06
884.277	85.02
884.653	85
885.029	84.99
885.405	84.93
885.781	84.89
886.157	84.88
886.532	84.88
886.908	84.9
887.284	84.87
887.659	84.87
888.035	84.88
888.411	84.85
888.786	84.84
889.161	84.83
889.537	84.86
889.912	84.87
890.287	84.85
890.662	84.86
891.037	84.8
891.412	84.77
891.787	84.74
892.162	84.69
892.536	84.69
892.911	84.66
893.286	84.62
893.66	84.57
894.035	84.53
894.409	84.5
894.784	84.46
895.158	84.47
895.532	84.46
895.906	84.44
896.281	84.42
896.655	84.39
897.029	84.35
897.402	84.35
897.776	84.31
898.15	84.33
898.524	84.32
898.898	84.27
899.271	84.23
899.645	84.21
900.018	84.21
900.392	84.22
900.765	84.25
901.138	84.28
901.511	84.28
901.884	84.3
902.258	84.27
902.631	84.28
903.003	84.28
903.376	84.28
903.749	84.3
904.122	84.3
904.495	84.29
904.867	84.27
905.24	84.24
905.612	84.19
905.985	84.15
906.357	84.12
906.729	84.11
907.102	84.12
907.474	84.13
907.846	84.09
908.218	84.08
908.59	84.05
908.962	84.04
909.334	84.04
909.705	84.06
910.077	84.06
910.449	84.06
910.82	84.03
911.192	83.97
911.563	83.98
911.935	83.97
912.306	84
912.677	84.04
913.048	84.04
913.419	84.02
913.79	83.99
914.161	83.96
914.532	83.95
914.903	83.94
915.274	83.94
915.645	83.92
916.015	83.93
916.386	83.86
916.756	83.76
917.127	83.71
917.497	83.73
917.868	83.75
918.238	83.75
918.608	83.79
918.978	83.79
919.348	83.76
919.718	83.72
920.088	83.72
920.458	83.8
920.828	83.79
921.198	83.8
921.567	83.77
921.937	83.75
922.306	83.76
922.676	83.73
923.045	83.69
923.415	83.71
923.784	83.73
924.153	83.68
924.522	83.6
924.891	83.59
925.26	83.52
925.629	83.46
925.998	83.41
926.367	83.33
926.736	83.25
927.104	83.23
927.473	83.17
927.842	83.05
928.21	83.06
928.578	82.99
928.947	82.94
929.315	82.95
929.683	82.93
930.051	82.86
930.42	82.84
930.788	82.82
931.156	82.72
931.523	82.64
931.891	82.55
932.259	82.37
932.627	82.23
932.994	82.15
933.362	81.99
933.729	81.82
934.097	81.7
934.464	81.59
934.831	81.37
935.199	81.28
935.566	81.09
935.933	81.09
936.3	80.97
936.667	80.94
937.034	80.77
937.401	80.72
937.767	80.6
938.134	80.56
938.501	80.37
938.867	80.4
939.234	80.39
939.6	80.37
939.967	80.25
940.333	80.41
940.699	80.48
941.065	80.65
941.431	80.73
941.798	80.98
942.163	81.13
942.529	81.36
942.895	81.4
943.261	81.44
943.627	81.68
943.992	81.83
944.358	81.79
944.723	81.87
945.089	81.95
945.454	82.07
945.82	82.08
946.185	82.21
946.55	82.34
946.915	82.45
947.28	82.49
947.645	82.53
948.01	82.53
948.375	82.59
948.74	82.46
949.104	82.48
949.469	82.35
949.834	82.26
950.198	81.95
950.562	81.79
950.927	81.75
951.291	81.71
951.655	81.61
952.02	81.63
952.384	81.59
952.748	81.62
953.112	81.52
953.476	81.57
953.839	81.59
954.203	81.67
954.567	81.6
954.931	81.47
955.294	81.43
955.658	81.33
956.021	81.21
956.385	81.21
956.748	81.17
957.111	81.08
957.474	81.03
957.837	80.96
958.2	80.87
958.563	80.87
958.926	80.85
959.289	80.86
959.652	80.83
960.015	80.79
960.377	80.76
960.74	80.64
961.102	80.68
961.465	80.63
961.827	80.47
962.189	80.41
962.552	80.3
962.914	80.3
963.276	80.26
963.638	80.24
964	80.24
964.362	80.18
964.724	80.16
965.085	80.1
965.447	79.94
965.809	80.03
966.17	80.04
966.532	80.06
966.893	80.01
967.255	79.9
967.616	79.87
967.977	79.81
968.338	79.74
968.699	79.74
969.061	79.64
969.421	79.68
969.782	79.62
970.143	79.65
970.504	79.56
970.865	79.48
971.225	79.49
971.586	79.48
971.946	79.39
972.307	79.35
972.667	79.38
973.027	79.36
973.388	79.39
973.748	79.35
974.108	79.25
974.468	79.31
974.828	79.37
975.188	79.39
975.548	79.36
975.907	79.44
976.267	79.43
976.627	79.31
976.986	79.37
977.346	79.27
977.705	79.24
978.064	79.17
978.424	79.16
978.783	79.16
979.142	79.02
979.501	78.9
979.86	78.88
980.219	78.8
980.578	78.75
980.937	78.69
981.296	78.72
981.654	78.83
982.013	78.87
982.371	78.8
982.73	78.63
983.088	78.59
983.447	78.69
983.805	78.62
984.163	78.71
984.521	78.58
984.879	78.51
985.237	78.54
985.595	78.43
985.953	78.4
986.311	78.38
986.669	78.5
987.026	78.5
987.384	78.38
987.741	78.32
988.099	78.21
988.456	78.28
988.814	78.32
989.171	78.21
989.528	78.14
989.885	78.12
990.242	78.19
990.599	78.15
990.956	78.18
991.313	78.19
991.67	78.25
992.027	78.23
992.383	78.32
992.74	78.26
993.096	78.17
993.453	78.2
993.809	78.21
994.165	78.11
994.522	78.01
994.878	77.93
995.234	77.88
995.59	77.7
995.946	77.79
996.302	77.6
996.658	77.5
997.013	77.61
997.369	77.48
997.725	77.54
998.08	77.42
998.436	77.43
998.791	77.37
999.147	77.31
999.502	77.43
999.857	77.41
1000.212	77.42
1000.567	77.36
1000.922	77.36
1001.277	77.39
1001.632	77.3
1001.987	77.31
1002.342	77.28
1002.696	77.46
1003.051	77.37
1003.406	77.36
1003.76	77.14
1004.114	77.27
1004.469	77.28
1004.823	77.16
1005.177	77.25
1005.531	77.09
1005.885	77.11
1006.239	77.07
1006.593	76.81
1006.947	76.76
1007.301	76.57
1007.655	76.54
1008.008	76.32
1008.362	76.3
1008.715	76.19
1009.069	76.04
1009.422	75.88
1009.776	75.68
1010.129	75.48
1010.482	75.66
1010.835	75.86
1011.188	75.76
1011.541	75.59
1011.894	75.57
1012.247	75.38
1012.6	75.17
1012.952	74.91
1013.305	75.02
1013.657	75.18
1014.01	75.44
1014.362	75.24
1014.715	74.95
1015.067	75.23
1015.419	75.52
1015.771	75.53
1016.123	75.35
1016.475	75.71
1016.827	75.94
1017.179	75.88
1017.531	75.62
1017.883	75.39
1018.234	75.21
1018.586	75.09
1018.938	74.54
1019.289	74.42
1019.64	74.45
1019.992	74.85
1020.343	74.37
1020.694	74.11
1021.045	74.13
1021.396	74.05
1021.747	74.14
1022.098	74.19
1022.449	74.26
1022.8	74.58
1023.151	74.35
1023.501	74.27
1023.852	73.99
1024.202	74.26
1024.553	74.21
1024.903	74.05
1025.253	74.16
1025.604	73.76
1025.954	73.64
1026.304	74.02
1026.654	74.04
1027.004	73.91
1027.354	73.92
1027.703	73.69
1028.053	73.16
1028.403	72.84
1028.753	72.98
1029.102	72.45
1029.452	72.03
1029.801	71.44
1030.15	70.79
1030.499	70.22
897.758	483.77
901.051	487.5
904.343	498.62
907.636	489.03
910.928	482.62
914.22	491.24
917.511	478
920.803	462.32
924.094	441.77
927.384	447.84
930.675	434.23
933.965	428.66
937.255	430.67
940.544	409.96
943.834	391.25
947.123	384.76
950.411	366.64
953.7	362.81
956.988	353.97
960.276	336.84
963.563	336.31
966.851	316.95
970.138	313.38
973.424	293.52
976.711	291.07
979.997	283.94
983.283	277.65
986.568	268.28
989.853	261.48
993.138	251.56
996.423	252.97
999.708	242.69
1002.992	245.44
1006.275	237.27
1009.559	235.66
1012.842	227.74
1016.125	222.26
1019.408	218.25
1022.69	218.08
1025.972	215.77
1029.254	212.15
1032.536	207.61
1035.817	202.62
1039.098	199.45
1042.379	197.36
1045.659	195.28
1048.939	195.67
1052.219	193.26
1055.498	190.16
1058.778	186.74
1062.057	184.31
1065.335	182.75
1068.614	181.02
1071.892	179.61
1075.17	177.03
1078.447	174.64
1081.724	173.33
1085.001	168.53
1088.278	169.13
1091.554	168.09
1094.83	167.26
1098.106	165.64
1101.382	164.75
1104.657	163.91
1107.932	163.04
1111.206	162.83
1114.481	160.98
1117.755	159.97
1121.029	161.13
1124.302	157.94
1127.575	156.12
1130.848	155.34
1134.121	153.69
1137.393	153.54
1140.665	152.44
1143.937	151.02
1147.208	149.17
1150.48	148.65
1153.75	147.99
1157.021	146.3
1160.291	146.12
1163.561	145.61
1166.831	145.36
1170.101	144.67
1173.37	143.45
1176.639	141.97
1179.907	142.09
1183.176	141.61
1186.444	142.31
1189.711	140.83
1192.979	141.62
1196.246	142.15
1199.513	142.58
1202.78	141.7
1206.046	141.93
1209.312	143.15
1212.578	143.88
1215.843	145.73
1219.108	146.39
1222.373	147.63
1225.638	150.36
1228.902	152.2
1232.166	156.36
1235.43	158.39
1238.693	161.51
1241.956	164.58
1245.219	167.9
1248.482	169.22
1251.744	168.46
1255.006	169.74
1258.268	166.16
1261.529	164.4
1264.79	161.8
1268.051	158.15
1271.312	157.05
1274.572	154.72
1277.832	151.59
1281.092	149.03
1284.351	146.7
1287.61	146.57
1290.869	145.69
1294.128	144.97
1297.386	145.3
1300.644	144.19
1303.902	143.69
1307.159	142.03
1310.416	143.61
1313.673	145.32
1316.93	146.99
1320.186	148.22
1323.442	149.55
1326.697	151.36
1329.953	152.2
1333.208	155.19
1336.463	160.78
1339.717	163.23
1342.972	170.76
1346.226	172.92
1349.479	173.63
1352.733	178.79
1355.986	183.22
1359.238	186.66
1362.491	188.51
1365.743	193.19
1368.995	195.78
1372.247	193.82
1375.498	192.31
1378.749	196.74
1382	198.55
1385.251	195.66
1388.501	196.15
1391.751	196.77
1395	192.82
1398.25	193.64
1401.499	193.59
1404.748	190.93
1407.996	186.87
1411.244	187.17
1414.492	183.96
1417.74	177.85
1420.987	175.24
1424.234	170.85
1427.481	164.71
1430.728	162.16
1433.974	156.54
1437.22	152.26
1440.465	147.39
1443.711	144.73
1446.956	140.59
1450.201	135.76
1453.445	130.81
1456.689	128.25
1459.933	123.69
1463.177	119.41
1466.42	118
1469.663	115.55
1472.906	112.36
1476.148	110.13
1479.391	107.4
1482.633	106.05
1485.874	104.71
1489.115	103.72
1492.356	102.19
1495.597	101.26
1498.838	101.95
1502.078	100.97
1505.318	100.75
1508.557	99.92
1511.797	99.4
1515.036	100.29
1518.274	99.47
1521.513	98.7
1524.751	98.34
1527.989	99.88
1531.227	99.97
1534.464	99.52
1537.701	98.9
1540.938	98.49
1544.174	99.6
1547.41	99.97
1550.646	99.84
1553.882	100.2
1557.117	100.09
1560.352	100.25
1563.587	99.08
1566.821	99.32
1570.055	98.91
1573.289	99.54
1576.523	99.61
1579.756	99.06
1582.989	99.12
1586.222	98.62
1589.454	99.48
1592.686	99.8
1595.918	99.14
1599.15	99.33
1602.381	99.57
1605.612	99.95
1608.843	99.46
1612.073	100.44
1615.303	100.86
1618.533	100.47
1621.762	101.1
1624.992	100.03
1628.221	99.88
1631.449	101.14
1634.678	101.17
1637.906	101.22
1641.134	101.33
1644.361	101.6
1647.588	101.36
1650.815	101.68
1654.042	101.85
1657.269	101.61
1660.495	102.66
1663.72	102.58
1666.946	102.31
1670.171	102.88
1673.396	103.55
1676.621	103.57
1679.845	103.75
1683.069	102.96
1686.293	102.69
1689.517	103.11
1692.74	103.4
1695.963	103.22
1699.185	104.01
1702.408	103.58
1705.63	103.37
1708.852	103.97
1712.073	103.65
1715.294	103.89
1718.515	104.12
1721.736	104.01
1724.956	104.53
1728.176	104.07
1731.396	104.33
1734.616	104.21
1737.835	104.61
1741.054	104.6
1744.272	103.63
1747.491	103.67
1750.709	104.38
1753.927	104.99
1757.144	105.15
1760.361	104.63
1763.578	105.9
1766.795	105.94
1770.011	106.08
1773.227	106.64
1776.443	107.22
1779.658	106.89
1782.874	107.62
1786.089	106.75
1789.303	106.64
1792.518	107.86
1795.732	108.65
1798.945	109.14
1802.159	109.3
1805.372	110.17
1808.585	110.5
1811.797	111.12
1815.01	112.4
1818.222	113.02
1821.434	114.1
1824.645	115.01
1827.856	115.72
1831.067	116.13
1834.278	116.06
1837.488	117.08
1840.698	118.18
1843.908	118.3
1847.117	118.73
1850.326	119.56
1853.535	120.39
1856.744	120.38
1859.952	121.3
1863.16	120.46
1866.368	119.81
1869.575	119.6
1872.782	118.31
1875.989	116.56
1879.196	116.79
1882.402	115.27
1885.608	115.22
1888.814	113.63
1892.019	113.87
1895.224	111.45
1898.429	112
1901.634	111.56
1904.838	111.93
1908.042	113.01
1911.246	111.84
1914.449	111.27
1917.652	111.05
1920.855	110.63
1924.058	110.36
1927.26	109.75
1930.462	110.63
1933.664	110.64
1936.865	111.68
1940.066	109.69
1943.267	109.15
1946.467	110.78
1949.668	110.09
1952.868	111.17
1956.067	111.62
1959.267	110.98
1962.466	111.58
1965.665	112.63
1968.863	112.99
1972.061	112.36
1975.259	116.58
1978.457	117.55
1981.654	117.5
1984.852	119.34
1988.048	120.48
1991.245	121.08
1994.441	124.45
1997.637	126.65
2000.833	128.04
2004.028	129.18
2007.223	133.92
2010.418	134.88
2013.613	139.21
2016.807	143.16
2020.001	145.22
2023.194	149.6
2026.388	154.94
2029.581	163.76
2032.774	167.31
2035.966	172.51
2039.158	177.43
2042.35	178.85
2045.542	180.82
2048.733	187.94
2051.924	189.27
2055.115	192.69
2058.306	194.02
2061.496	196.72
2064.686	195.33
2067.875	194.57
2071.065	198.05
2074.254	198.21
2077.442	204.16
2080.631	205.3
2083.819	206.14
2087.007	212.5
2090.195	215.32
2093.382	214.77
2096.569	215.59
2099.756	218.68
2102.942	224.31
2106.128	227.9
2109.314	229.4
2112.5	230.26
2115.685	228.11
2118.87	227.86
2122.055	226.69
2125.239	230.72
2128.424	238.75
2131.608	234.27
2134.791	235.78
2137.974	235.61
2141.157	237.22
2144.34	238.12
2147.523	241.89
2150.705	250.09
2153.887	249.08
2157.068	251.44
2160.25	253.65
2163.431	251.18
2166.611	258.96
2169.792	262.1
2172.972	265.23
2176.152	264.09
2179.331	270.82
2182.511	271.73
2185.69	274.7
2188.868	283.38
2192.047	288.93
2195.225	294.36
2198.403	295.3
2201.58	292.55
2204.758	299.24
2207.935	303.45
2211.111	310.64
2214.288	311.91
2217.464	314.79
2220.64	313.19
2223.815	312.59
2226.991	309.02
2230.166	310.85
2233.34	321.16
2236.515	329.33
2239.689	324.14
2242.863	328.62
2246.036	324.94
2249.209	330.83
2252.382	329.57
2255.555	345.74
2258.727	349.32
2261.9	359.43
2265.071	364.01
2268.243	361.61
2271.414	371.3
2274.585	380.83
2277.756	381.66
2280.926	396.21
2284.096	396.36
2287.266	396.21
2290.436	389.13
2293.605	397.31
2296.774	413.02
2299.942	413.7
2303.111	426.26
2306.279	438.22
2309.447	434.11
2312.614	437.34
2315.781	441.82
2318.948	450.67
2322.115	461.14
2325.281	482.32
2328.447	477.1
2331.613	479.35
2334.779	484.28
2337.944	485.19
2341.109	488.2
2344.274	496.05
2347.438	506.3
2350.602	515.8
2353.766	547.6
2356.929	550.98
2360.092	556.2
2363.255	562.26
2366.418	566.98
2369.58	576.34
2372.742	591.12
2375.904	587.11
2379.066	605.87
2382.227	635.36
2385.388	634.27
2388.548	600.95
2391.709	591.76
2394.869	606.94
2398.029	612.56
2401.188	610.04
2404.347	631.4
2407.506	642.67
2410.665	616.59
2413.823	622.11
2416.981	626.92
2420.139	601.66
2423.296	646.28
2426.453	692.13
2429.61	664.75
2432.767	701.67
2435.923	730.24
2439.079	701.52
2442.235	715.71
2445.391	741.63
2448.546	732.01
2451.701	770.36
2454.855	821.51
2458.009	724.55
2461.163	738.77
2464.317	747.66
2467.471	732.94
2470.624	755.03
2473.777	742.36
2476.929	720.16
2480.082	756.85
2483.234	800.13
2486.385	810.07
2489.537	827.54
2492.688	925.07
2495.839	905.4
2498.989	926.59
2502.14	929.18
2505.29	890.64
2508.439	986.01
2511.589	1006.73
2514.738	979.76
2517.887	968.81
2521.035	907.13
2524.183	899.14
2527.331	882.31
2530.479	859.34
2533.627	880.51
