Data from C_2_div_il_4n_082_Splice17_12.txt Node
Date: Sat Feb 29 14:18:27 EST 2020
User: sa697716
Spectrometer: FLMS03696
Trigger mode: 0
Integration Time (sec): 3.180400E-1
Scans to average: 20
Electric dark correction enabled: true
Nonlinearity correction enabled: true
Boxcar width: 5
XAxis mode: Wavelengths
Number of Pixels in Spectrum: 2048
>>>>>Begin Spectral Data<<<<<
187.83	78.56
188.298	88.68
188.766	91.11
189.233	71.24
189.701	95.19
190.169	88.69
190.636	102.93
191.104	110.68
191.571	432.59
192.039	376.54
192.506	-609.06
192.974	-7328.59
193.441	135.15
193.908	94.56
194.375	34.5
194.842	236.31
195.31	101.46
195.777	145.78
196.244	64.07
196.711	47.56
197.177	41.33
197.644	40.91
198.111	41.66
198.578	40.8
199.045	40.8
199.511	40.47
199.978	40.81
200.445	40.56
200.911	40.75
201.378	40.22
201.844	40.41
202.31	41.06
202.777	41.12
203.243	41.68
203.709	42.07
204.176	41.82
204.642	42.13
205.108	41.5
205.574	42.08
206.04	42.01
206.506	42.19
206.972	41.98
207.438	41.59
207.903	41.03
208.369	39.6
208.835	38.96
209.301	38.42
209.766	37.57
210.232	37.29
210.697	36.47
211.163	35.5
211.628	34.71
212.094	34.14
212.559	33.4
213.024	32.94
213.49	32.29
213.955	31.63
214.42	30.93
214.885	29.94
215.35	29.03
215.815	27.52
216.28	26.26
216.745	24.93
217.21	23.06
217.675	21.55
218.14	20
218.604	18.74
219.069	17.51
219.534	16.36
219.998	15.56
220.463	14.81
220.927	14.26
221.392	13.68
221.856	13.19
222.32	12.84
222.785	12.47
223.249	12.16
223.713	11.84
224.177	11.55
224.642	11.37
225.106	11.13
225.57	10.91
226.034	10.69
226.497	10.49
226.961	10.3
227.425	10.07
227.889	9.92
228.353	9.72
228.816	9.58
229.28	9.42
229.744	9.28
230.207	9.14
230.671	9
231.134	8.86
231.597	8.73
232.061	8.6
232.524	8.5
232.987	8.39
233.45	8.3
233.914	8.19
234.377	8.12
234.84	8
235.303	7.91
235.766	7.81
236.229	7.72
236.691	7.64
237.154	7.57
237.617	7.49
238.08	7.41
238.542	7.34
239.005	7.27
239.468	7.18
239.93	7.13
240.393	7.06
240.855	7
241.317	6.95
241.78	6.88
242.242	6.81
242.704	6.73
243.166	6.67
243.629	6.6
244.091	6.55
244.553	6.5
245.015	6.44
245.477	6.38
245.939	6.34
246.4	6.27
246.862	6.22
247.324	6.19
247.786	6.15
248.247	6.1
248.709	6.06
249.17	6.01
249.632	5.96
250.093	5.89
250.555	5.85
251.016	5.82
251.477	5.77
251.939	5.73
252.4	5.69
252.861	5.66
253.322	5.62
253.783	5.59
254.244	5.56
254.705	5.54
255.166	5.53
255.627	5.5
256.088	5.46
256.549	5.44
257.009	5.41
257.47	5.38
257.931	5.35
258.391	5.31
258.852	5.27
259.312	5.23
259.773	5.19
260.233	5.15
260.694	5.11
261.154	5.08
261.614	5.05
262.074	5.02
262.534	4.98
262.994	4.95
263.455	4.92
263.915	4.89
264.374	4.87
264.834	4.85
265.294	4.81
265.754	4.79
266.214	4.77
266.673	4.75
267.133	4.73
267.593	4.71
268.052	4.68
268.512	4.66
268.971	4.65
269.431	4.63
269.89	4.61
270.349	4.6
270.809	4.58
271.268	4.56
271.727	4.55
272.186	4.53
272.645	4.51
273.104	4.5
273.563	4.49
274.022	4.47
274.481	4.46
274.94	4.44
275.399	4.43
275.857	4.42
276.316	4.4
276.775	4.38
277.233	4.37
277.692	4.36
278.15	4.33
278.609	4.31
279.067	4.3
279.525	4.28
279.984	4.27
280.442	4.26
280.9	4.25
281.358	4.24
281.816	4.22
282.274	4.21
282.732	4.2
283.19	4.21
283.648	4.21
284.106	4.2
284.564	4.2
285.021	4.19
285.479	4.19
285.937	4.18
286.394	4.18
286.852	4.18
287.309	4.17
287.767	4.17
288.224	4.16
288.682	4.14
289.139	4.13
289.596	4.11
290.053	4.09
290.511	4.06
290.968	4.05
291.425	4.03
291.882	4.01
292.339	3.99
292.796	3.98
293.252	3.96
293.709	3.94
294.166	3.93
294.623	3.91
295.079	3.91
295.536	3.9
295.992	3.88
296.449	3.88
296.905	3.86
297.362	3.85
297.818	3.83
298.274	3.82
298.731	3.82
299.187	3.81
299.643	3.81
300.099	3.8
300.555	3.78
301.011	3.78
301.467	3.76
301.923	3.76
302.379	3.75
302.835	3.74
303.291	3.73
303.746	3.72
304.202	3.7
304.658	3.69
305.113	3.68
305.569	3.68
306.024	3.68
306.479	3.67
306.935	3.67
307.39	3.66
307.845	3.67
308.301	3.67
308.756	3.67
309.211	3.67
309.666	3.66
310.121	3.66
310.576	3.66
311.031	3.66
311.486	3.67
311.94	3.66
312.395	3.66
312.85	3.66
313.305	3.66
313.759	3.65
314.214	3.65
314.668	3.66
315.123	3.66
315.577	3.66
316.032	3.65
316.486	3.65
316.94	3.65
317.394	3.65
317.849	3.64
318.303	3.64
318.757	3.63
319.211	3.62
319.665	3.61
320.119	3.59
320.572	3.59
321.026	3.57
321.48	3.57
321.934	3.56
322.387	3.55
322.841	3.54
323.295	3.52
323.748	3.52
324.202	3.52
324.655	3.52
325.108	3.5
325.562	3.49
326.015	3.49
326.468	3.47
326.921	3.46
327.374	3.45
327.827	3.45
328.28	3.45
328.733	3.44
329.186	3.43
329.639	3.42
330.092	3.44
330.545	3.44
330.997	3.44
331.45	3.45
331.903	3.45
332.355	3.45
332.808	3.44
333.26	3.45
333.713	3.45
334.165	3.45
334.617	3.45
335.069	3.45
335.522	3.45
335.974	3.44
336.426	3.44
336.878	3.44
337.33	3.44
337.782	3.45
338.234	3.44
338.686	3.45
339.137	3.45
339.589	3.45
340.041	3.44
340.493	3.42
340.944	3.42
341.396	3.41
341.847	3.41
342.299	3.4
342.75	3.38
343.201	3.36
343.653	3.34
344.104	3.33
344.555	3.32
345.006	3.32
345.457	3.3
345.908	3.3
346.359	3.29
346.81	3.29
347.261	3.28
347.712	3.28
348.163	3.28
348.613	3.27
349.064	3.26
349.515	3.25
349.965	3.25
350.416	3.25
350.866	3.25
351.317	3.25
351.767	3.24
352.217	3.24
352.668	3.24
353.118	3.24
353.568	3.25
354.018	3.25
354.468	3.25
354.918	3.26
355.368	3.27
355.818	3.26
356.268	3.27
356.718	3.27
357.168	3.28
357.617	3.28
358.067	3.28
358.517	3.28
358.966	3.29
359.416	3.3
359.865	3.3
360.315	3.3
360.764	3.31
361.213	3.3
361.663	3.31
362.112	3.32
362.561	3.33
363.01	3.33
363.459	3.33
363.908	3.33
364.357	3.33
364.806	3.33
365.255	3.34
365.703	3.35
366.152	3.36
366.601	3.37
367.05	3.38
367.498	3.38
367.947	3.38
368.395	3.4
368.844	3.41
369.292	3.42
369.74	3.44
370.189	3.45
370.637	3.47
371.085	3.49
371.533	3.5
371.981	3.53
372.429	3.54
372.877	3.57
373.325	3.58
373.773	3.6
374.221	3.64
374.669	3.65
375.116	3.66
375.564	3.67
376.012	3.69
376.459	3.73
376.907	3.76
377.354	3.79
377.801	3.82
378.249	3.86
378.696	3.89
379.143	3.93
379.591	3.98
380.038	4.03
380.485	4.08
380.932	4.12
381.379	4.14
381.826	4.18
382.273	4.22
382.72	4.27
383.166	4.32
383.613	4.36
384.06	4.42
384.506	4.46
384.953	4.51
385.4	4.56
385.846	4.6
386.292	4.67
386.739	4.71
387.185	4.77
387.631	4.81
388.078	4.87
388.524	4.9
388.97	4.95
389.416	4.99
389.862	5.04
390.308	5.08
390.754	5.14
391.2	5.2
391.645	5.25
392.091	5.3
392.537	5.36
392.983	5.42
393.428	5.48
393.874	5.53
394.319	5.59
394.765	5.64
395.21	5.69
395.655	5.73
396.101	5.78
396.546	5.83
396.991	5.87
397.436	5.92
397.881	5.96
398.326	6.03
398.771	6.09
399.216	6.16
399.661	6.22
400.106	6.28
400.551	6.32
400.995	6.36
401.44	6.39
401.885	6.43
402.329	6.45
402.774	6.46
403.218	6.48
403.663	6.5
404.107	6.51
404.551	6.52
404.995	6.53
405.44	6.55
405.884	6.56
406.328	6.58
406.772	6.6
407.216	6.64
407.66	6.68
408.104	6.7
408.547	6.72
408.991	6.74
409.435	6.75
409.879	6.76
410.322	6.79
410.766	6.81
411.209	6.84
411.653	6.85
412.096	6.86
412.54	6.88
412.983	6.91
413.426	6.93
413.869	6.95
414.312	7
414.756	7.03
415.199	7.06
415.642	7.09
416.085	7.11
416.527	7.16
416.97	7.19
417.413	7.19
417.856	7.18
418.298	7.18
418.741	7.17
419.184	7.17
419.626	7.18
420.069	7.18
420.511	7.18
420.953	7.18
421.396	7.16
421.838	7.16
422.28	7.19
422.722	7.23
423.164	7.24
423.606	7.28
424.048	7.26
424.49	7.28
424.932	7.27
425.374	7.28
425.816	7.28
426.258	7.28
426.699	7.24
427.141	7.19
427.582	7.17
428.024	7.15
428.465	7.13
428.907	7.16
429.348	7.15
429.789	7.14
430.231	7.12
430.672	7.11
431.113	7.13
431.554	7.16
431.995	7.18
432.436	7.19
432.877	7.19
433.318	7.19
433.759	7.19
434.2	7.17
434.64	7.21
435.081	7.23
435.522	7.26
435.962	7.27
436.403	7.29
436.843	7.32
437.284	7.33
437.724	7.36
438.164	7.36
438.604	7.4
439.045	7.41
439.485	7.43
439.925	7.43
440.365	7.43
440.805	7.44
441.245	7.43
441.685	7.46
442.125	7.5
442.564	7.54
443.004	7.59
443.444	7.62
443.883	7.68
444.323	7.7
444.762	7.77
445.202	7.83
445.641	7.89
446.081	7.95
446.52	7.97
446.959	8
447.398	8.05
447.837	8.11
448.276	8.14
448.716	8.17
449.154	8.21
449.593	8.24
450.032	8.27
450.471	8.3
450.91	8.32
451.349	8.36
451.787	8.38
452.226	8.36
452.664	8.34
453.103	8.35
453.541	8.37
453.98	8.35
454.418	8.35
454.856	8.32
455.295	8.3
455.733	8.29
456.171	8.28
456.609	8.28
457.047	8.28
457.485	8.28
457.923	8.27
458.361	8.25
458.798	8.26
459.236	8.27
459.674	8.28
460.111	8.29
460.549	8.27
460.987	8.27
461.424	8.25
461.862	8.25
462.299	8.24
462.736	8.23
463.173	8.25
463.611	8.23
464.048	8.22
464.485	8.22
464.922	8.19
465.359	8.21
465.796	8.19
466.233	8.22
466.67	8.22
467.106	8.21
467.543	8.22
467.98	8.23
468.416	8.25
468.853	8.25
469.29	8.27
469.726	8.31
470.162	8.3
470.599	8.33
471.035	8.35
471.471	8.37
471.907	8.38
472.344	8.39
472.78	8.4
473.216	8.42
473.652	8.42
474.088	8.44
474.523	8.43
474.959	8.45
475.395	8.47
475.831	8.46
476.266	8.45
476.702	8.46
477.138	8.44
477.573	8.44
478.008	8.42
478.444	8.43
478.879	8.41
479.314	8.42
479.75	8.42
480.185	8.42
480.62	8.42
481.055	8.44
481.49	8.44
481.925	8.44
482.36	8.43
482.795	8.43
483.229	8.44
483.664	8.45
484.099	8.45
484.534	8.45
484.968	8.46
485.403	8.48
485.837	8.5
486.271	8.52
486.706	8.54
487.14	8.57
487.574	8.61
488.009	8.63
488.443	8.66
488.877	8.7
489.311	8.74
489.745	8.77
490.179	8.81
490.613	8.85
491.046	8.9
491.48	8.97
491.914	9.02
492.348	9.09
492.781	9.15
493.215	9.23
493.648	9.3
494.082	9.38
494.515	9.45
494.948	9.54
495.382	9.64
495.815	9.73
496.248	9.83
496.681	9.93
497.114	10.02
497.547	10.14
497.98	10.27
498.413	10.39
498.846	10.53
499.279	10.67
499.711	10.81
500.144	10.95
500.577	11.09
501.009	11.25
501.442	11.42
501.874	11.59
502.306	11.77
502.739	11.94
503.171	12.13
503.603	12.33
504.036	12.55
504.468	12.78
504.9	13.01
505.332	13.26
505.764	13.51
506.196	13.77
506.627	14.05
507.059	14.3
507.491	14.59
507.923	14.87
508.354	15.16
508.786	15.46
509.217	15.74
509.649	16.05
510.08	16.37
510.512	16.68
510.943	17
511.374	17.31
511.805	17.65
512.237	17.99
512.668	18.34
513.099	18.71
513.53	19.08
513.961	19.44
514.391	19.78
514.822	20.12
515.253	20.47
515.684	20.82
516.114	21.2
516.545	21.55
516.975	21.92
517.406	22.27
517.836	22.61
518.267	22.96
518.697	23.3
519.127	23.65
519.558	23.99
519.988	24.34
520.418	24.67
520.848	25
521.278	25.34
521.708	25.59
522.138	25.89
522.567	26.2
522.997	26.47
523.427	26.76
523.857	27.04
524.286	27.32
524.716	27.59
525.145	27.86
525.575	28.08
526.004	28.32
526.433	28.6
526.863	28.83
527.292	29.04
527.721	29.26
528.15	29.48
528.579	29.67
529.008	29.86
529.437	30.03
529.866	30.18
530.295	30.36
530.724	30.54
531.152	30.69
531.581	30.86
532.01	30.98
532.438	31.13
532.867	31.23
533.295	31.37
533.723	31.49
534.152	31.6
534.58	31.7
535.008	31.77
535.436	31.84
535.865	31.9
536.293	31.96
536.721	32.04
537.149	32.09
537.576	32.16
538.004	32.2
538.432	32.23
538.86	32.27
539.287	32.33
539.715	32.38
540.143	32.42
540.57	32.47
540.998	32.53
541.425	32.56
541.852	32.58
542.28	32.6
542.707	32.65
543.134	32.68
543.561	32.71
543.988	32.73
544.415	32.75
544.842	32.77
545.269	32.79
545.696	32.79
546.123	32.82
546.549	32.88
546.976	32.92
547.403	32.93
547.829	32.96
548.256	32.98
548.682	33
549.108	33.02
549.535	33.06
549.961	33.08
550.387	33.1
550.813	33.09
551.24	33.1
551.666	33.1
552.092	33.12
552.518	33.12
552.943	33.13
553.369	33.13
553.795	33.12
554.221	33.09
554.646	33.05
555.072	33.01
555.498	33
555.923	32.95
556.349	32.89
556.774	32.82
557.199	32.76
557.625	32.7
558.05	32.62
558.475	32.54
558.9	32.48
559.325	32.42
559.75	32.33
560.175	32.23
560.6	32.14
561.025	32.07
561.449	31.96
561.874	31.86
562.299	31.76
562.723	31.66
563.148	31.54
563.572	31.44
563.997	31.3
564.421	31.18
564.846	31.04
565.27	30.9
565.694	30.74
566.118	30.59
566.542	30.44
566.966	30.25
567.39	30.07
567.814	29.89
568.238	29.69
568.662	29.52
569.086	29.33
569.509	29.15
569.933	28.95
570.357	28.77
570.78	28.59
571.204	28.39
571.627	28.23
572.05	28.07
572.474	27.91
572.897	27.74
573.32	27.57
573.743	27.41
574.166	27.26
574.589	27.1
575.012	26.96
575.435	26.82
575.858	26.68
576.281	26.53
576.704	26.41
577.126	26.32
577.549	26.23
577.972	26.14
578.394	26.01
578.817	25.91
579.239	25.82
579.661	25.73
580.084	25.63
580.506	25.55
580.928	25.47
581.35	25.38
581.772	25.29
582.194	25.18
582.616	25.1
583.038	25.04
583.46	24.96
583.882	24.87
584.303	24.8
584.725	24.72
585.147	24.62
585.568	24.55
585.99	24.47
586.411	24.4
586.833	24.33
587.254	24.25
587.675	24.18
588.096	24.13
588.518	24.09
588.939	24.04
589.36	24
589.781	23.96
590.202	23.91
590.623	23.87
591.043	23.81
591.464	23.76
591.885	23.74
592.305	23.7
592.726	23.67
593.147	23.61
593.567	23.54
593.987	23.51
594.408	23.49
594.828	23.44
595.248	23.41
595.669	23.38
596.089	23.34
596.509	23.28
596.929	23.24
597.349	23.18
597.769	23.12
598.189	23.1
598.608	23.05
599.028	22.98
599.448	22.95
599.867	22.87
600.287	22.81
600.706	22.75
601.126	22.68
601.545	22.61
601.965	22.56
602.384	22.51
602.803	22.43
603.222	22.36
603.641	22.3
604.061	22.2
604.48	22.13
604.898	22.05
605.317	21.98
605.736	21.91
606.155	21.8
606.574	21.72
606.992	21.62
607.411	21.53
607.829	21.4
608.248	21.31
608.666	21.22
609.085	21.13
609.503	21.03
609.921	20.93
610.339	20.85
610.758	20.76
611.176	20.66
611.594	20.57
612.012	20.48
612.43	20.41
612.847	20.33
613.265	20.25
613.683	20.15
614.101	20.04
614.518	19.95
614.936	19.84
615.353	19.75
615.771	19.66
616.188	19.57
616.606	19.49
617.023	19.43
617.44	19.35
617.857	19.27
618.274	19.2
618.691	19.15
619.108	19.09
619.525	19.04
619.942	18.97
620.359	18.95
620.776	18.92
621.192	18.88
621.609	18.84
622.026	18.81
622.442	18.77
622.859	18.73
623.275	18.7
623.691	18.69
624.108	18.68
624.524	18.65
624.94	18.62
625.356	18.59
625.772	18.58
626.188	18.57
626.604	18.55
627.02	18.55
627.436	18.54
627.852	18.53
628.268	18.5
628.683	18.48
629.099	18.48
629.514	18.44
629.93	18.41
630.345	18.38
630.761	18.34
631.176	18.3
631.591	18.24
632.007	18.19
632.422	18.13
632.837	18.07
633.252	18
633.667	17.9
634.082	17.83
634.497	17.72
634.911	17.6
635.326	17.49
635.741	17.34
636.155	17.22
636.57	17.09
636.984	16.94
637.399	16.76
637.813	16.61
638.228	16.47
638.642	16.31
639.056	16.14
639.47	15.98
639.884	15.8
640.298	15.65
640.712	15.47
641.126	15.29
641.54	15.11
641.954	14.98
642.368	14.78
642.781	14.61
643.195	14.45
643.609	14.29
644.022	14.13
644.436	13.99
644.849	13.85
645.262	13.72
645.676	13.58
646.089	13.45
646.502	13.31
646.915	13.22
647.328	13.1
647.741	12.99
648.154	12.91
648.567	12.83
648.98	12.74
649.393	12.66
649.805	12.57
650.218	12.49
650.631	12.44
651.043	12.38
651.456	12.32
651.868	12.27
652.28	12.21
652.693	12.13
653.105	12.06
653.517	11.98
653.929	11.9
654.341	11.83
654.753	11.75
655.165	11.66
655.577	11.56
655.989	11.45
656.401	11.33
656.813	11.22
657.224	11.1
657.636	10.99
658.047	10.87
658.459	10.74
658.87	10.6
659.282	10.48
659.693	10.34
660.104	10.21
660.515	10.07
660.926	9.96
661.338	9.83
661.749	9.71
662.159	9.58
662.57	9.46
662.981	9.34
663.392	9.23
663.803	9.12
664.213	9.02
664.624	8.93
665.035	8.84
665.445	8.76
665.855	8.67
666.266	8.61
666.676	8.54
667.086	8.48
667.497	8.43
667.907	8.38
668.317	8.33
668.727	8.29
669.137	8.25
669.547	8.22
669.956	8.2
670.366	8.19
670.776	8.16
671.186	8.16
671.595	8.16
672.005	8.17
672.414	8.17
672.824	8.18
673.233	8.2
673.642	8.21
674.052	8.22
674.461	8.23
674.87	8.25
675.279	8.27
675.688	8.29
676.097	8.31
676.506	8.35
676.915	8.38
677.323	8.44
677.732	8.49
678.141	8.57
678.549	8.65
678.958	8.74
679.366	8.83
679.775	8.93
680.183	9.06
680.592	9.2
681	9.32
681.408	9.49
681.816	9.64
682.224	9.83
682.632	10.04
683.04	10.26
683.448	10.52
683.856	10.81
684.264	11.12
684.671	11.46
685.079	11.81
685.487	12.21
685.894	12.65
686.302	13.11
686.709	13.58
687.116	14.1
687.524	14.64
687.931	15.2
688.338	15.78
688.745	16.39
689.152	17.02
689.559	17.68
689.966	18.34
690.373	19.02
690.78	19.73
691.187	20.45
691.593	21.15
692	21.88
692.407	22.59
692.813	23.32
693.22	24.04
693.626	24.76
694.032	25.48
694.439	26.21
694.845	26.91
695.251	27.6
695.657	28.26
696.063	28.95
696.469	29.6
696.875	30.24
697.281	30.87
697.687	31.5
698.093	32.13
698.498	32.73
698.904	33.3
699.31	33.83
699.715	34.4
700.12	34.97
700.526	35.5
700.931	36.04
701.337	36.55
701.742	37.05
702.147	37.56
702.552	38.02
702.957	38.48
703.362	38.95
703.767	39.43
704.172	39.88
704.577	40.29
704.981	40.71
705.386	41.11
705.791	41.54
706.195	41.94
706.6	42.27
707.004	42.63
707.408	43
707.813	43.37
708.217	43.68
708.621	44.01
709.025	44.32
709.43	44.6
709.834	44.94
710.237	45.25
710.641	45.58
711.045	45.89
711.449	46.2
711.853	46.47
712.256	46.76
712.66	47.03
713.064	47.3
713.467	47.58
713.87	47.85
714.274	48.1
714.677	48.35
715.08	48.56
715.484	48.82
715.887	49.06
716.29	49.28
716.693	49.49
717.096	49.75
717.499	49.97
717.901	50.18
718.304	50.38
718.707	50.57
719.109	50.75
719.512	50.99
719.915	51.17
720.317	51.33
720.719	51.51
721.122	51.68
721.524	51.85
721.926	52.03
722.328	52.19
722.731	52.36
723.133	52.5
723.535	52.66
723.937	52.78
724.338	52.89
724.74	53.02
725.142	53.04
725.544	53.14
725.945	53.22
726.347	53.34
726.748	53.4
727.15	53.47
727.551	53.6
727.952	53.73
728.354	53.82
728.755	53.91
729.156	54
729.557	54.18
729.958	54.29
730.359	54.39
730.76	54.44
731.161	54.54
731.562	54.65
731.962	54.73
732.363	54.75
732.763	54.8
733.164	54.85
733.564	54.92
733.965	54.98
734.365	55
734.766	55.08
735.166	55.1
735.566	55.13
735.966	55.12
736.366	55.1
736.766	55.12
737.166	55.16
737.566	55.2
737.966	55.24
738.365	55.27
738.765	55.32
739.165	55.3
739.564	55.37
739.964	55.39
740.363	55.44
740.763	55.47
741.162	55.51
741.561	55.54
741.96	55.58
742.36	55.61
742.759	55.59
743.158	55.58
743.557	55.63
743.955	55.67
744.354	55.73
744.753	55.8
745.152	55.84
745.55	55.88
745.949	55.95
746.348	56
746.746	56.01
747.144	56.1
747.543	56.16
747.941	56.21
748.339	56.26
748.737	56.28
749.136	56.31
749.534	56.34
749.932	56.36
750.33	56.33
750.727	56.31
751.125	56.33
751.523	56.29
751.921	56.27
752.318	56.26
752.716	56.22
753.113	56.17
753.511	56.12
753.908	56.09
754.305	56.04
754.703	56.02
755.1	56
755.497	55.96
755.894	55.95
756.291	55.92
756.688	55.88
757.085	55.89
757.482	55.9
757.878	55.89
758.275	55.88
758.672	55.9
759.068	55.91
759.465	55.88
759.861	55.87
760.258	55.84
760.654	55.85
761.05	55.86
761.447	55.83
761.843	55.78
762.239	55.74
762.635	55.74
763.031	55.74
763.427	55.69
763.822	55.68
764.218	55.68
764.614	55.69
765.01	55.69
765.405	55.65
765.801	55.6
766.196	55.66
766.592	55.7
766.987	55.7
767.382	55.69
767.778	55.72
768.173	55.75
768.568	55.71
768.963	55.67
769.358	55.68
769.753	55.7
770.148	55.71
770.542	55.68
770.937	55.62
771.332	55.61
771.726	55.61
772.121	55.57
772.515	55.53
772.91	55.55
773.304	55.59
773.699	55.58
774.093	55.53
774.487	55.55
774.881	55.55
775.275	55.56
775.669	55.56
776.063	55.51
776.457	55.51
776.851	55.5
777.245	55.51
777.638	55.5
778.032	55.54
778.425	55.58
778.819	55.58
779.212	55.55
779.606	55.55
779.999	55.58
780.392	55.63
780.786	55.67
781.179	55.7
781.572	55.71
781.965	55.74
782.358	55.73
782.751	55.75
783.143	55.76
783.536	55.8
783.929	55.83
784.322	55.83
784.714	55.8
785.107	55.79
785.499	55.81
785.891	55.82
786.284	55.78
786.676	55.83
787.068	55.81
787.46	55.79
787.852	55.81
788.245	55.78
788.636	55.77
789.028	55.77
789.42	55.76
789.812	55.77
790.204	55.74
790.595	55.76
790.987	55.72
791.378	55.7
791.77	55.74
792.161	55.71
792.553	55.73
792.944	55.75
793.335	55.79
793.726	55.78
794.117	55.77
794.508	55.79
794.899	55.78
795.29	55.75
795.681	55.78
796.072	55.77
796.463	55.74
796.853	55.74
797.244	55.72
797.634	55.68
798.025	55.7
798.415	55.72
798.806	55.76
799.196	55.81
799.586	55.84
799.976	55.82
800.366	55.84
800.756	55.92
801.146	55.94
801.536	55.96
801.926	56.01
802.316	56.02
802.706	56.04
803.095	56.02
803.485	56.04
803.874	56.05
804.264	56.12
804.653	56.1
805.043	56.09
805.432	56.09
805.821	56.08
806.21	56.1
806.599	56.15
806.988	56.15
807.377	56.21
807.766	56.2
808.155	56.24
808.544	56.21
808.933	56.22
809.321	56.23
809.71	56.26
810.098	56.29
810.487	56.29
810.875	56.26
811.264	56.28
811.652	56.28
812.04	56.26
812.428	56.26
812.816	56.3
813.204	56.31
813.592	56.3
813.98	56.35
814.368	56.32
814.756	56.36
815.144	56.38
815.531	56.41
815.919	56.4
816.306	56.41
816.694	56.42
817.081	56.41
817.469	56.46
817.856	56.52
818.243	56.53
818.63	56.59
819.017	56.58
819.404	56.59
819.791	56.6
820.178	56.62
820.565	56.65
820.952	56.66
821.339	56.71
821.725	56.7
822.112	56.71
822.498	56.7
822.885	56.69
823.271	56.71
823.657	56.72
824.044	56.74
824.43	56.76
824.816	56.75
825.202	56.75
825.588	56.74
825.974	56.72
826.36	56.69
826.746	56.71
827.132	56.7
827.517	56.7
827.903	56.7
828.289	56.67
828.674	56.64
829.06	56.67
829.445	56.66
829.83	56.67
830.216	56.71
830.601	56.71
830.986	56.69
831.371	56.73
831.756	56.69
832.141	56.69
832.526	56.69
832.911	56.72
833.295	56.72
833.68	56.69
834.065	56.7
834.449	56.63
834.834	56.62
835.218	56.62
835.603	56.58
835.987	56.56
836.371	56.57
836.755	56.56
837.139	56.55
837.524	56.53
837.908	56.53
838.291	56.52
838.675	56.53
839.059	56.54
839.443	56.53
839.827	56.53
840.21	56.56
840.594	56.55
840.977	56.52
841.361	56.51
841.744	56.5
842.127	56.48
842.511	56.47
842.894	56.48
843.277	56.46
843.66	56.48
844.043	56.5
844.426	56.48
844.809	56.46
845.191	56.46
845.574	56.45
845.957	56.41
846.339	56.4
846.722	56.4
847.104	56.41
847.487	56.46
847.869	56.43
848.252	56.4
848.634	56.41
849.016	56.44
849.398	56.44
849.78	56.43
850.162	56.46
850.544	56.5
850.926	56.47
851.307	56.45
851.689	56.39
852.071	56.39
852.452	56.4
852.834	56.38
853.215	56.38
853.597	56.39
853.978	56.35
854.359	56.35
854.741	56.34
855.122	56.35
855.503	56.37
855.884	56.38
856.265	56.36
856.646	56.33
857.026	56.34
857.407	56.31
857.788	56.33
858.169	56.38
858.549	56.39
858.93	56.39
859.31	56.38
859.69	56.36
860.071	56.38
860.451	56.41
860.831	56.44
861.211	56.43
861.591	56.45
861.971	56.44
862.351	56.44
862.731	56.45
863.111	56.43
863.491	56.47
863.87	56.46
864.25	56.48
864.629	56.45
865.009	56.46
865.388	56.46
865.768	56.45
866.147	56.44
866.526	56.42
866.905	56.42
867.284	56.44
867.663	56.43
868.042	56.44
868.421	56.41
868.8	56.44
869.179	56.44
869.558	56.42
869.936	56.41
870.315	56.4
870.693	56.43
871.072	56.43
871.45	56.41
871.828	56.39
872.207	56.39
872.585	56.4
872.963	56.35
873.341	56.37
873.719	56.37
874.097	56.36
874.475	56.36
874.853	56.34
875.23	56.35
875.608	56.35
875.986	56.34
876.363	56.35
876.741	56.36
877.118	56.39
877.495	56.36
877.873	56.37
878.25	56.38
878.627	56.39
879.004	56.43
879.381	56.43
879.758	56.44
880.135	56.48
880.512	56.49
880.889	56.48
881.265	56.49
881.642	56.52
882.019	56.53
882.395	56.54
882.772	56.56
883.148	56.54
883.524	56.53
883.901	56.48
884.277	56.45
884.653	56.46
885.029	56.48
885.405	56.47
885.781	56.45
886.157	56.45
886.532	56.46
886.908	56.46
887.284	56.47
887.659	56.47
888.035	56.49
888.411	56.48
888.786	56.45
889.161	56.43
889.537	56.42
889.912	56.38
890.287	56.32
890.662	56.28
891.037	56.21
891.412	56.15
891.787	56.14
892.162	56.13
892.536	56.11
892.911	56.08
893.286	56.03
893.66	56
894.035	55.95
894.409	55.96
894.784	55.97
895.158	55.98
895.532	55.96
895.906	55.93
896.281	55.89
896.655	55.85
897.029	55.81
897.402	55.8
897.776	55.77
898.15	55.8
898.524	55.78
898.898	55.73
899.271	55.7
899.645	55.68
900.018	55.68
900.392	55.69
900.765	55.71
901.138	55.72
901.511	55.74
901.884	55.75
902.258	55.77
902.631	55.78
903.003	55.79
903.376	55.75
903.749	55.78
904.122	55.77
904.495	55.76
904.867	55.76
905.24	55.76
905.612	55.75
905.985	55.74
906.357	55.69
906.729	55.66
907.102	55.66
907.474	55.74
907.846	55.74
908.218	55.72
908.59	55.7
908.962	55.69
909.334	55.67
909.705	55.65
910.077	55.63
910.449	55.66
910.82	55.68
911.192	55.65
911.563	55.63
911.935	55.62
912.306	55.63
912.677	55.63
913.048	55.61
913.419	55.6
913.79	55.57
914.161	55.56
914.532	55.57
914.903	55.58
915.274	55.6
915.645	55.56
916.015	55.53
916.386	55.53
916.756	55.51
917.127	55.5
917.497	55.5
917.868	55.52
918.238	55.57
918.608	55.54
918.978	55.5
919.348	55.47
919.718	55.49
920.088	55.51
920.458	55.53
920.828	55.54
921.198	55.57
921.567	55.58
921.937	55.59
922.306	55.55
922.676	55.57
923.045	55.55
923.415	55.57
923.784	55.58
924.153	55.58
924.522	55.53
924.891	55.52
925.26	55.52
925.629	55.54
925.998	55.52
926.367	55.5
926.736	55.44
927.104	55.47
927.473	55.43
927.842	55.33
928.21	55.32
928.578	55.3
928.947	55.26
929.315	55.24
929.683	55.2
930.051	55.16
930.42	55.11
930.788	55.1
931.156	55.06
931.523	55.06
931.891	55.01
932.259	54.96
932.627	54.86
932.994	54.79
933.362	54.67
933.729	54.55
934.097	54.51
934.464	54.43
934.831	54.33
935.199	54.24
935.566	54.15
935.933	54.17
936.3	54.04
936.667	54.05
937.034	53.96
937.401	53.92
937.767	53.94
938.134	53.88
938.501	53.85
938.867	53.91
939.234	53.93
939.6	53.92
939.967	53.94
940.333	54.09
940.699	54.2
941.065	54.34
941.431	54.46
941.798	54.5
942.163	54.63
942.529	54.76
942.895	54.87
943.261	54.98
943.627	55.08
943.992	55.13
944.358	55.18
944.723	55.13
945.089	55.26
945.454	55.33
945.82	55.44
946.185	55.42
946.55	55.55
946.915	55.55
947.28	55.51
947.645	55.56
948.01	55.52
948.375	55.51
948.74	55.5
949.104	55.53
949.469	55.5
949.834	55.41
950.198	55.32
950.562	55.25
950.927	55.21
951.291	55.15
951.655	55.07
952.02	55.05
952.384	55.07
952.748	55.06
953.112	54.94
953.476	54.9
953.839	54.85
954.203	54.81
954.567	54.77
954.931	54.68
955.294	54.6
955.658	54.56
956.021	54.5
956.385	54.45
956.748	54.4
957.111	54.34
957.474	54.35
957.837	54.41
958.2	54.42
958.563	54.37
958.926	54.31
959.289	54.37
959.652	54.29
960.015	54.21
960.377	54.12
960.74	54.03
961.102	54
961.465	53.96
961.827	53.71
962.189	53.67
962.552	53.56
962.914	53.61
963.276	53.58
963.638	53.6
964	53.67
964.362	53.62
964.724	53.62
965.085	53.65
965.447	53.55
965.809	53.54
966.17	53.57
966.532	53.67
966.893	53.61
967.255	53.6
967.616	53.63
967.977	53.58
968.338	53.56
968.699	53.49
969.061	53.38
969.421	53.37
969.782	53.49
970.143	53.5
970.504	53.32
970.865	53.19
971.225	53.21
971.586	53.23
971.946	53.26
972.307	53.35
972.667	53.41
973.027	53.53
973.388	53.56
973.748	53.51
974.108	53.49
974.468	53.63
974.828	53.76
975.188	53.76
975.548	53.75
975.907	53.78
976.267	53.76
976.627	53.76
976.986	53.67
977.346	53.61
977.705	53.66
978.064	53.66
978.424	53.64
978.783	53.58
979.142	53.5
979.501	53.39
979.86	53.32
980.219	53.24
980.578	53.25
980.937	53.29
981.296	53.33
981.654	53.29
982.013	53.17
982.371	53.12
982.73	53.09
983.088	53.11
983.447	53.17
983.805	53.16
984.163	53.2
984.521	53.18
984.879	53.18
985.237	53.16
985.595	53.25
985.953	53.36
986.311	53.45
986.669	53.46
987.026	53.48
987.384	53.4
987.741	53.41
988.099	53.41
988.456	53.42
988.814	53.39
989.171	53.4
989.528	53.27
989.885	53.18
990.242	53.13
990.599	53.21
990.956	53.14
991.313	53.19
991.67	53.16
992.027	53.02
992.383	53.11
992.74	53.03
993.096	52.99
993.453	52.97
993.809	52.97
994.165	53.04
994.522	52.99
994.878	53.15
995.234	53.12
995.59	53.17
995.946	53.4
996.302	53.32
996.658	53.34
997.013	53.48
997.369	53.55
997.725	53.6
998.08	53.47
998.436	53.63
998.791	53.53
999.147	53.47
999.502	53.49
999.857	53.48
1000.212	53.45
1000.567	53.45
1000.922	53.35
1001.277	53.32
1001.632	53.39
1001.987	53.4
1002.342	53.39
1002.696	53.42
1003.051	53.41
1003.406	53.31
1003.76	53.15
1004.114	53.14
1004.469	53.24
1004.823	53.31
1005.177	53.49
1005.531	53.35
1005.885	53.47
1006.239	53.34
1006.593	53.22
1006.947	53.34
1007.301	53.51
1007.655	53.62
1008.008	53.49
1008.362	53.46
1008.715	53.4
1009.069	53.3
1009.422	53.24
1009.776	53.07
1010.129	53.06
1010.482	53.09
1010.835	53.12
1011.188	52.87
1011.541	52.71
1011.894	52.82
1012.247	52.64
1012.6	52.7
1012.952	52.7
1013.305	52.73
1013.657	52.85
1014.01	52.93
1014.362	53.18
1014.715	52.94
1015.067	53.13
1015.419	53.56
1015.771	53.73
1016.123	53.78
1016.475	53.89
1016.827	53.95
1017.179	54.14
1017.531	54.14
1017.883	54.2
1018.234	54.06
1018.586	54.11
1018.938	53.79
1019.289	53.46
1019.64	53.47
1019.992	53.83
1020.343	53.64
1020.694	53.39
1021.045	53.34
1021.396	53.37
1021.747	53.48
1022.098	53.75
1022.449	53.99
1022.8	54.33
1023.151	54.31
1023.501	54.16
1023.852	54.1
1024.202	54.33
1024.553	54.52
1024.903	54.41
1025.253	54.65
1025.604	54.57
1025.954	54.13
1026.304	54.49
1026.654	54.61
1027.004	54.71
1027.354	55.02
1027.703	54.68
1028.053	54.37
1028.403	54.18
1028.753	54.6
1029.102	54.01
1029.452	53.52
1029.801	53.32
1030.15	52.82
1030.499	52.49
897.758	233.23
901.051	230.25
904.343	233.45
907.636	228.9
910.928	227.57
914.22	230.47
917.511	220.25
920.803	220.45
924.094	207
927.384	207.47
930.675	202.38
933.965	197.34
937.255	202.38
940.544	193.41
943.834	186.53
947.123	182.86
950.411	174.82
953.7	174.22
956.988	168.77
960.276	165.55
963.563	167.14
966.851	159.19
970.138	155.31
973.424	144.46
976.711	146.25
979.997	144.45
983.283	141.34
986.568	137.76
989.853	135.73
993.138	132.07
996.423	133.3
999.708	127.97
1002.992	128.85
1006.275	126.77
1009.559	127.81
1012.842	125.48
1016.125	119.96
1019.408	117.65
1022.69	119.57
1025.972	116.16
1029.254	115.3
1032.536	112.24
1035.817	109.62
1039.098	109.01
1042.379	108.49
1045.659	107.69
1048.939	103.73
1052.219	104.46
1055.498	104.06
1058.778	100.93
1062.057	101.44
1065.335	100.86
1068.614	100.53
1071.892	101.15
1075.17	99.32
1078.447	98.56
1081.724	97.41
1085.001	95.97
1088.278	96.46
1091.554	96.14
1094.83	96.21
1098.106	95.59
1101.382	94.29
1104.657	93.7
1107.932	92.9
1111.206	93.03
1114.481	92.65
1117.755	90.93
1121.029	92.01
1124.302	90.69
1127.575	91.6
1130.848	90.19
1134.121	89.16
1137.393	89.83
1140.665	88.77
1143.937	87.58
1147.208	86.28
1150.48	85.41
1153.75	85.69
1157.021	85.08
1160.291	84.66
1163.561	82.38
1166.831	83.5
1170.101	83.37
1173.37	81.49
1176.639	81.2
1179.907	81.81
1183.176	81.15
1186.444	80.41
1189.711	80.39
1192.979	79.86
1196.246	80.09
1199.513	80.31
1202.78	79.61
1206.046	79.35
1209.312	81.05
1212.578	80.94
1215.843	81.38
1219.108	81.6
1222.373	83.65
1225.638	83.97
1228.902	86.02
1232.166	86.99
1235.43	87.54
1238.693	88.92
1241.956	90.99
1245.219	92.65
1248.482	93.4
1251.744	92.9
1255.006	93.8
1258.268	91.62
1261.529	91.5
1264.79	89.73
1268.051	88.87
1271.312	88.27
1274.572	87.19
1277.832	85.26
1281.092	84.43
1284.351	83.8
1287.61	83.43
1290.869	83.88
1294.128	83.53
1297.386	83.04
1300.644	83.01
1303.902	81.74
1307.159	81.11
1310.416	81.38
1313.673	82.72
1316.93	82.27
1320.186	83.25
1323.442	83.36
1326.697	82.92
1329.953	82.98
1333.208	84.74
1336.463	86.27
1339.717	88.61
1342.972	91.24
1346.226	91.97
1349.479	91.42
1352.733	94.19
1355.986	93.42
1359.238	94.98
1362.491	94.78
1365.743	97.16
1368.995	98.58
1372.247	94.93
1375.498	93.37
1378.749	93.97
1382	93.88
1385.251	93.06
1388.501	92.92
1391.751	93.49
1395	92.1
1398.25	92.81
1401.499	91.57
1404.748	88.59
1407.996	89.35
1411.244	89.27
1414.492	88.79
1417.74	84.43
1420.987	83.05
1424.234	80.16
1427.481	76.76
1430.728	75.02
1433.974	72.55
1437.22	71.41
1440.465	67.78
1443.711	66.16
1446.956	64.91
1450.201	61.02
1453.445	59.08
1456.689	57.85
1459.933	56.34
1463.177	54.43
1466.42	53.57
1469.663	52.27
1472.906	50.02
1476.148	49.48
1479.391	48.6
1482.633	47.65
1485.874	48.45
1489.115	48.31
1492.356	47.43
1495.597	46.89
1498.838	47.45
1502.078	47.57
1505.318	47.85
1508.557	47.56
1511.797	48.33
1515.036	48.46
1518.274	48.96
1521.513	48.73
1524.751	48.59
1527.989	49.2
1531.227	49.56
1534.464	50.27
1537.701	49.93
1540.938	49.62
1544.174	50.18
1547.41	50.57
1550.646	50.87
1553.882	50.59
1557.117	51.25
1560.352	51.84
1563.587	51.77
1566.821	51.78
1570.055	51.88
1573.289	52.66
1576.523	53.01
1579.756	53.31
1582.989	53.72
1586.222	53.72
1589.454	54.21
1592.686	53.87
1595.918	53.66
1599.15	53.9
1602.381	54.22
1605.612	54.23
1608.843	54.06
1612.073	54.81
1615.303	55.16
1618.533	54.48
1621.762	54.41
1624.992	54.36
1628.221	54.65
1631.449	55.31
1634.678	55.67
1637.906	55.34
1641.134	55.54
1644.361	55.88
1647.588	55.09
1650.815	54.99
1654.042	55.72
1657.269	55.92
1660.495	56.23
1663.72	56
1666.946	55.55
1670.171	55.85
1673.396	56.16
1676.621	56.08
1679.845	56.37
1683.069	56.12
1686.293	56.04
1689.517	55.86
1692.74	56.04
1695.963	55.77
1699.185	56.28
1702.408	55.91
1705.63	55.5
1708.852	56.21
1712.073	55.86
1715.294	55.3
1718.515	56.6
1721.736	56.52
1724.956	56.36
1728.176	56.3
1731.396	56.4
1734.616	56.58
1737.835	57.1
1741.054	56.73
1744.272	56.02
1747.491	56.1
1750.709	56.22
1753.927	55.42
1757.144	55.86
1760.361	55.76
1763.578	55.38
1766.795	55.76
1770.011	55.45
1773.227	55.26
1776.443	56.1
1779.658	55.9
1782.874	56.48
1786.089	55.7
1789.303	55.89
1792.518	55.92
1795.732	55.92
1798.945	56.92
1802.159	56.78
1805.372	56.74
1808.585	57.44
1811.797	56.4
1815.01	57.89
1818.222	57.74
1821.434	58.29
1824.645	58.11
1827.856	58.12
1831.067	58.2
1834.278	58.08
1837.488	58.05
1840.698	57.99
1843.908	57.72
1847.117	58.8
1850.326	57.35
1853.535	56.81
1856.744	56.95
1859.952	57.26
1863.16	56.73
1866.368	56.07
1869.575	56.4
1872.782	54.82
1875.989	53.22
1879.196	52.5
1882.402	50.91
1885.608	51.17
1888.814	50.44
1892.019	49.88
1895.224	48.36
1898.429	48.33
1901.634	47.63
1904.838	46.14
1908.042	46.96
1911.246	48.1
1914.449	48.68
1917.652	47.66
1920.855	46.37
1924.058	46.85
1927.26	45.75
1930.462	46.19
1933.664	45.75
1936.865	46.16
1940.066	44.86
1943.267	44.92
1946.467	44.18
1949.668	44.78
1952.868	44.94
1956.067	45.5
1959.267	46
1962.466	46.22
1965.665	47.1
1968.863	47.57
1972.061	48.14
1975.259	49.81
1978.457	49.56
1981.654	49.52
1984.852	49.37
1988.048	50.87
1991.245	52
1994.441	52.82
1997.637	53.83
2000.833	56.08
2004.028	55.81
2007.223	55.86
2010.418	57.88
2013.613	60.91
2016.807	63.65
2020.001	64.63
2023.194	67.26
2026.388	69.05
2029.581	72.11
2032.774	73.92
2035.966	73.5
2039.158	76.93
2042.35	79.65
2045.542	80.64
2048.733	83.61
2051.924	83.05
2055.115	83.44
2058.306	83.41
2061.496	83.84
2064.686	84.1
2067.875	86.33
2071.065	87.57
2074.254	86.63
2077.442	88.68
2080.631	88.86
2083.819	89.24
2087.007	92.16
2090.195	95.88
2093.382	95.11
2096.569	96.97
2099.756	98.36
2102.942	98.98
2106.128	101.12
2109.314	104.42
2112.5	105.98
2115.685	102.86
2118.87	101.78
2122.055	103.86
2125.239	103.3
2128.424	108.01
2131.608	105.37
2134.791	105.2
2137.974	107.21
2141.157	109.56
2144.34	108.3
2147.523	112.73
2150.705	118.47
2153.887	118.69
2157.068	119.89
2160.25	120.12
2163.431	120.52
2166.611	123.4
2169.792	122.63
2172.972	125.72
2176.152	123.54
2179.331	126.4
2182.511	125.21
2185.69	126.9
2188.868	127.75
2192.047	134.88
2195.225	139.49
2198.403	137.1
2201.58	137.75
2204.758	143.48
2207.935	140.64
2211.111	144.5
2214.288	145.08
2217.464	145.19
2220.64	145.44
2223.815	147.52
2226.991	139.75
2230.166	141.19
2233.34	146.42
2236.515	145.16
2239.689	144.21
2242.863	147.97
2246.036	146
2249.209	149.41
2252.382	146.38
2255.555	151.36
2258.727	155.25
2261.9	157.12
2265.071	158.71
2268.243	156.52
2271.414	164.33
2274.585	168.92
2277.756	167.82
2280.926	173.01
2284.096	175.87
2287.266	179.37
2290.436	178.94
2293.605	181.48
2296.774	191.16
2299.942	189.9
2303.111	195.21
2306.279	202.69
2309.447	199.61
2312.614	200.04
2315.781	204
2318.948	205.4
2322.115	211.49
2325.281	219.24
2328.447	212.09
2331.613	215.06
2334.779	219.18
2337.944	221.49
2341.109	220.18
2344.274	224.15
2347.438	233.09
2350.602	237.54
2353.766	248.83
2356.929	248.88
2360.092	254.44
2363.255	262.03
2366.418	262.59
2369.58	263.87
2372.742	269.29
2375.904	269.64
2379.066	278.95
2382.227	283.32
2385.388	277.6
2388.548	268.17
2391.709	263.87
2394.869	263.7
2398.029	266.67
2401.188	267.09
2404.347	272.73
2407.506	278.45
2410.665	272.45
2413.823	275.25
2416.981	279.95
2420.139	278.71
2423.296	293.04
2426.453	313.58
2429.61	294.46
2432.767	311.98
2435.923	327.24
2439.079	321.39
2442.235	324.88
2445.391	332.17
2448.546	324.27
2451.701	342.75
2454.855	349.62
2458.009	324.13
2461.163	325.5
2464.317	339.85
2467.471	333.86
2470.624	333.72
2473.777	330.6
2476.929	326
2480.082	335.48
2483.234	355.39
2486.385	358.74
2489.537	371.58
2492.688	396.26
2495.839	387.65
2498.989	399.1
2502.14	397.14
2505.29	390.51
2508.439	417.28
2511.589	419.33
2514.738	426.99
2517.887	422.94
2521.035	394.31
2524.183	386.07
2527.331	388.95
2530.479	386.22
2533.627	390.25
