Data from c_3_hir_wi_4n_Splice17_09.txt Node
Date: Sat Feb 29 14:52:29 EST 2020
User: sa697716
Spectrometer: FLMS03696
Trigger mode: 0
Integration Time (sec): 3.180400E-1
Scans to average: 20
Electric dark correction enabled: true
Nonlinearity correction enabled: true
Boxcar width: 5
XAxis mode: Wavelengths
Number of Pixels in Spectrum: 2048
>>>>>Begin Spectral Data<<<<<
187.83	131.49
188.298	140.7
188.766	112.88
189.233	117.4
189.701	121.28
190.169	118.94
190.636	130.63
191.104	136.69
191.571	619.77
192.039	423.22
192.506	-294.89
192.974	1660.44
193.441	113.24
193.908	12.16
194.375	-47.86
194.842	97.96
195.31	80.14
195.777	74.28
196.244	45.11
196.711	60.28
197.177	57.36
197.644	56.18
198.111	55.46
198.578	56.39
199.045	57.51
199.511	58.43
199.978	58.36
200.445	58.38
200.911	58.81
201.378	59.17
201.844	59.37
202.31	59.77
202.777	60.26
203.243	60.83
203.709	60.57
204.176	60.06
204.642	59.87
205.108	59.4
205.574	59.59
206.04	59.36
206.506	59.13
206.972	58.91
207.438	58.38
207.903	57.74
208.369	56.89
208.835	56.65
209.301	56.36
209.766	55.15
210.232	54.32
210.697	53.09
211.163	52.1
211.628	51.09
212.094	50.26
212.559	49.39
213.024	48.48
213.49	47.44
213.955	46.68
214.42	45.43
214.885	44.18
215.35	42.66
215.815	40.7
216.28	38.54
216.745	36.29
217.21	33.81
217.675	31.68
218.14	29.43
218.604	27.36
219.069	25.52
219.534	24.02
219.998	22.85
220.463	21.83
220.927	20.92
221.392	20.15
221.856	19.47
222.32	18.85
222.785	18.23
223.249	17.78
223.713	17.43
224.177	17.04
224.642	16.67
225.106	16.34
225.57	16.02
226.034	15.75
226.497	15.46
226.961	15.13
227.425	14.87
227.889	14.64
228.353	14.4
228.816	14.16
229.28	13.89
229.744	13.69
230.207	13.5
230.671	13.31
231.134	13.11
231.597	12.92
232.061	12.76
232.524	12.6
232.987	12.43
233.45	12.27
233.914	12.12
234.377	12.01
234.84	11.87
235.303	11.72
235.766	11.59
236.229	11.48
236.691	11.37
237.154	11.26
237.617	11.14
238.08	11.04
238.542	10.93
239.005	10.82
239.468	10.71
239.93	10.61
240.393	10.51
240.855	10.41
241.317	10.31
241.78	10.23
242.242	10.15
242.704	10.06
243.166	9.97
243.629	9.88
244.091	9.79
244.553	9.73
245.015	9.65
245.477	9.56
245.939	9.48
246.4	9.4
246.862	9.32
247.324	9.25
247.786	9.19
248.247	9.11
248.709	9.06
249.17	9.01
249.632	8.93
250.093	8.87
250.555	8.83
251.016	8.78
251.477	8.73
251.939	8.69
252.4	8.63
252.861	8.57
253.322	8.53
253.783	8.49
254.244	8.44
254.705	8.4
255.166	8.36
255.627	8.31
256.088	8.25
256.549	8.21
257.009	8.15
257.47	8.12
257.931	8.08
258.391	8.02
258.852	7.96
259.312	7.93
259.773	7.88
260.233	7.83
260.694	7.79
261.154	7.74
261.614	7.68
262.074	7.65
262.534	7.59
262.994	7.55
263.455	7.51
263.915	7.49
264.374	7.44
264.834	7.41
265.294	7.37
265.754	7.33
266.214	7.31
266.673	7.29
267.133	7.25
267.593	7.23
268.052	7.2
268.512	7.17
268.971	7.14
269.431	7.11
269.89	7.09
270.349	7.07
270.809	7.06
271.268	7.03
271.727	7
272.186	6.99
272.645	6.97
273.104	6.95
273.563	6.93
274.022	6.91
274.481	6.9
274.94	6.87
275.399	6.85
275.857	6.83
276.316	6.81
276.775	6.79
277.233	6.76
277.692	6.75
278.15	6.72
278.609	6.69
279.067	6.67
279.525	6.64
279.984	6.62
280.442	6.6
280.9	6.58
281.358	6.57
281.816	6.56
282.274	6.55
282.732	6.54
283.19	6.53
283.648	6.52
284.106	6.51
284.564	6.52
285.021	6.52
285.479	6.52
285.937	6.51
286.394	6.5
286.852	6.49
287.309	6.49
287.767	6.48
288.224	6.48
288.682	6.48
289.139	6.47
289.596	6.45
290.053	6.43
290.511	6.4
290.968	6.39
291.425	6.37
291.882	6.34
292.339	6.31
292.796	6.29
293.252	6.26
293.709	6.23
294.166	6.21
294.623	6.19
295.079	6.18
295.536	6.17
295.992	6.14
296.449	6.13
296.905	6.12
297.362	6.11
297.818	6.1
298.274	6.08
298.731	6.07
299.187	6.06
299.643	6.04
300.099	6.04
300.555	6.02
301.011	6.01
301.467	5.99
301.923	5.98
302.379	5.97
302.835	5.95
303.291	5.95
303.746	5.94
304.202	5.92
304.658	5.91
305.113	5.89
305.569	5.9
306.024	5.89
306.479	5.88
306.935	5.88
307.39	5.88
307.845	5.88
308.301	5.87
308.756	5.87
309.211	5.88
309.666	5.88
310.121	5.88
310.576	5.88
311.031	5.88
311.486	5.89
311.94	5.89
312.395	5.9
312.85	5.89
313.305	5.9
313.759	5.89
314.214	5.88
314.668	5.88
315.123	5.88
315.577	5.88
316.032	5.88
316.486	5.87
316.94	5.87
317.394	5.85
317.849	5.85
318.303	5.84
318.757	5.83
319.211	5.82
319.665	5.81
320.119	5.8
320.572	5.8
321.026	5.78
321.48	5.76
321.934	5.75
322.387	5.74
322.841	5.73
323.295	5.72
323.748	5.7
324.202	5.69
324.655	5.69
325.108	5.66
325.562	5.65
326.015	5.64
326.468	5.63
326.921	5.62
327.374	5.62
327.827	5.6
328.28	5.58
328.733	5.57
329.186	5.57
329.639	5.55
330.092	5.54
330.545	5.55
330.997	5.55
331.45	5.56
331.903	5.56
332.355	5.56
332.808	5.56
333.26	5.57
333.713	5.57
334.165	5.58
334.617	5.59
335.069	5.6
335.522	5.6
335.974	5.59
336.426	5.59
336.878	5.59
337.33	5.59
337.782	5.61
338.234	5.61
338.686	5.62
339.137	5.63
339.589	5.62
340.041	5.63
340.493	5.62
340.944	5.61
341.396	5.61
341.847	5.61
342.299	5.59
342.75	5.57
343.201	5.55
343.653	5.53
344.104	5.51
344.555	5.5
345.006	5.47
345.457	5.46
345.908	5.45
346.359	5.44
346.81	5.42
347.261	5.41
347.712	5.41
348.163	5.42
348.613	5.41
349.064	5.4
349.515	5.39
349.965	5.38
350.416	5.39
350.866	5.38
351.317	5.39
351.767	5.38
352.217	5.39
352.668	5.38
353.118	5.37
353.568	5.37
354.018	5.38
354.468	5.39
354.918	5.4
355.368	5.41
355.818	5.4
356.268	5.41
356.718	5.42
357.168	5.42
357.617	5.44
358.067	5.45
358.517	5.47
358.966	5.49
359.416	5.51
359.865	5.52
360.315	5.52
360.764	5.56
361.213	5.56
361.663	5.58
362.112	5.59
362.561	5.6
363.01	5.62
363.459	5.63
363.908	5.64
364.357	5.66
364.806	5.66
365.255	5.69
365.703	5.7
366.152	5.73
366.601	5.75
367.05	5.78
367.498	5.81
367.947	5.83
368.395	5.87
368.844	5.9
369.292	5.93
369.74	5.96
370.189	5.99
370.637	6.04
371.085	6.07
371.533	6.11
371.981	6.14
372.429	6.16
372.877	6.21
373.325	6.23
373.773	6.27
374.221	6.32
374.669	6.36
375.116	6.4
375.564	6.41
376.012	6.45
376.459	6.49
376.907	6.53
377.354	6.58
377.801	6.62
378.249	6.67
378.696	6.72
379.143	6.74
379.591	6.79
380.038	6.84
380.485	6.9
380.932	6.95
381.379	6.98
381.826	7.02
382.273	7.05
382.72	7.1
383.166	7.14
383.613	7.17
384.06	7.21
384.506	7.24
384.953	7.26
385.4	7.3
385.846	7.32
386.292	7.37
386.739	7.39
387.185	7.44
387.631	7.48
388.078	7.5
388.524	7.52
388.97	7.55
389.416	7.57
389.862	7.58
390.308	7.61
390.754	7.63
391.2	7.64
391.645	7.68
392.091	7.7
392.537	7.72
392.983	7.75
393.428	7.79
393.874	7.82
394.319	7.85
394.765	7.87
395.21	7.87
395.655	7.89
396.101	7.9
396.546	7.91
396.991	7.91
397.436	7.91
397.881	7.92
398.326	7.93
398.771	7.94
399.216	7.95
399.661	7.98
400.106	8.01
400.551	8.02
400.995	8.02
401.44	8.01
401.885	8.01
402.329	8
402.774	7.98
403.218	7.97
403.663	7.95
404.107	7.95
404.551	7.93
404.995	7.89
405.44	7.87
405.884	7.85
406.328	7.82
406.772	7.81
407.216	7.82
407.66	7.83
408.104	7.82
408.547	7.81
408.991	7.79
409.435	7.78
409.879	7.78
410.322	7.78
410.766	7.78
411.209	7.8
411.653	7.8
412.096	7.79
412.54	7.78
412.983	7.78
413.426	7.8
413.869	7.81
414.312	7.84
414.756	7.87
415.199	7.89
415.642	7.91
416.085	7.93
416.527	7.93
416.97	7.96
417.413	7.95
417.856	7.94
418.298	7.91
418.741	7.88
419.184	7.86
419.626	7.83
420.069	7.82
420.511	7.81
420.953	7.78
421.396	7.78
421.838	7.77
422.28	7.78
422.722	7.79
423.164	7.81
423.606	7.84
424.048	7.83
424.49	7.84
424.932	7.83
425.374	7.83
425.816	7.82
426.258	7.78
426.699	7.74
427.141	7.7
427.582	7.67
428.024	7.65
428.465	7.64
428.907	7.65
429.348	7.63
429.789	7.61
430.231	7.61
430.672	7.61
431.113	7.63
431.554	7.65
431.995	7.69
432.436	7.69
432.877	7.7
433.318	7.67
433.759	7.66
434.2	7.67
434.64	7.68
435.081	7.67
435.522	7.68
435.962	7.69
436.403	7.7
436.843	7.69
437.284	7.72
437.724	7.74
438.164	7.76
438.604	7.79
439.045	7.79
439.485	7.79
439.925	7.79
440.365	7.77
440.805	7.76
441.245	7.74
441.685	7.76
442.125	7.76
442.564	7.76
443.004	7.78
443.444	7.78
443.883	7.8
444.323	7.82
444.762	7.86
445.202	7.93
445.641	7.96
446.081	8.01
446.52	8
446.959	8.04
447.398	8.08
447.837	8.11
448.276	8.13
448.716	8.14
449.154	8.18
449.593	8.22
450.032	8.22
450.471	8.24
450.91	8.22
451.349	8.24
451.787	8.24
452.226	8.21
452.664	8.2
453.103	8.19
453.541	8.18
453.98	8.15
454.418	8.12
454.856	8.09
455.295	8.07
455.733	8.08
456.171	8.07
456.609	8.07
457.047	8.05
457.485	8.04
457.923	8.02
458.361	8.01
458.798	8.02
459.236	8.01
459.674	8.02
460.111	8.01
460.549	7.98
460.987	7.97
461.424	7.94
461.862	7.94
462.299	7.92
462.736	7.92
463.173	7.91
463.611	7.89
464.048	7.88
464.485	7.88
464.922	7.88
465.359	7.88
465.796	7.87
466.233	7.88
466.67	7.88
467.106	7.89
467.543	7.89
467.98	7.91
468.416	7.92
468.853	7.94
469.29	7.93
469.726	7.94
470.162	7.94
470.599	7.97
471.035	7.97
471.471	7.96
471.907	7.97
472.344	7.98
472.78	7.97
473.216	7.96
473.652	7.96
474.088	7.97
474.523	7.96
474.959	7.95
475.395	7.95
475.831	7.95
476.266	7.97
476.702	7.97
477.138	7.96
477.573	7.95
478.008	7.96
478.444	7.95
478.879	7.94
479.314	7.93
479.75	7.93
480.185	7.93
480.62	7.91
481.055	7.91
481.49	7.89
481.925	7.89
482.36	7.88
482.795	7.86
483.229	7.85
483.664	7.85
484.099	7.85
484.534	7.84
484.968	7.85
485.403	7.85
485.837	7.84
486.271	7.84
486.706	7.84
487.14	7.85
487.574	7.86
488.009	7.87
488.443	7.89
488.877	7.89
489.311	7.92
489.745	7.93
490.179	7.95
490.613	7.99
491.046	8.03
491.48	8.07
491.914	8.11
492.348	8.15
492.781	8.2
493.215	8.23
493.648	8.3
494.082	8.36
494.515	8.42
494.948	8.47
495.382	8.54
495.815	8.61
496.248	8.68
496.681	8.75
497.114	8.82
497.547	8.91
497.98	9
498.413	9.09
498.846	9.18
499.279	9.28
499.711	9.41
500.144	9.51
500.577	9.63
501.009	9.75
501.442	9.89
501.874	10.03
502.306	10.17
502.739	10.3
503.171	10.46
503.603	10.62
504.036	10.78
504.468	10.94
504.9	11.12
505.332	11.31
505.764	11.5
506.196	11.71
506.627	11.91
507.059	12.12
507.491	12.34
507.923	12.56
508.354	12.79
508.786	13.03
509.217	13.26
509.649	13.53
510.08	13.79
510.512	14.05
510.943	14.31
511.374	14.58
511.805	14.87
512.237	15.17
512.668	15.44
513.099	15.74
513.53	16.05
513.961	16.36
514.391	16.65
514.822	16.94
515.253	17.24
515.684	17.54
516.114	17.86
516.545	18.18
516.975	18.47
517.406	18.79
517.836	19.1
518.267	19.4
518.697	19.71
519.127	20.01
519.558	20.32
519.988	20.61
520.418	20.9
520.848	21.2
521.278	21.49
521.708	21.62
522.138	21.89
522.567	22.16
522.997	22.42
523.427	22.67
523.857	22.93
524.286	23.17
524.716	23.42
525.145	23.67
525.575	23.87
526.004	24.08
526.433	24.43
526.863	24.66
527.292	24.85
527.721	25.04
528.15	25.21
528.579	25.39
529.008	25.54
529.437	25.68
529.866	25.79
530.295	25.95
530.724	26.11
531.152	26.26
531.581	26.37
532.01	26.49
532.438	26.6
532.867	26.7
533.295	26.8
533.723	26.92
534.152	27.02
534.58	27.12
535.008	27.18
535.436	27.22
535.865	27.28
536.293	27.34
536.721	27.38
537.149	27.43
537.576	27.49
538.004	27.52
538.432	27.56
538.86	27.58
539.287	27.61
539.715	27.66
540.143	27.69
540.57	27.71
540.998	27.74
541.425	27.77
541.852	27.81
542.28	27.84
542.707	27.86
543.134	27.9
543.561	27.91
543.988	27.96
544.415	27.98
544.842	28
545.269	28.04
545.696	28.07
546.123	28.1
546.549	28.15
546.976	28.16
547.403	28.21
547.829	28.24
548.256	28.27
548.682	28.28
549.108	28.32
549.535	28.34
549.961	28.34
550.387	28.35
550.813	28.34
551.24	28.33
551.666	28.34
552.092	28.32
552.518	28.3
552.943	28.29
553.369	28.27
553.795	28.23
554.221	28.2
554.646	28.18
555.072	28.16
555.498	28.12
555.923	28.09
556.349	28.03
556.774	27.99
557.199	27.94
557.625	27.88
558.05	27.8
558.475	27.75
558.9	27.69
559.325	27.6
559.75	27.51
560.175	27.42
560.6	27.3
561.025	27.21
561.449	27.12
561.874	27.02
562.299	26.9
562.723	26.78
563.148	26.65
563.572	26.53
563.997	26.38
564.421	26.24
564.846	26.11
565.27	25.97
565.694	25.82
566.118	25.66
566.542	25.49
566.966	25.35
567.39	25.17
567.814	24.98
568.238	24.78
568.662	24.62
569.086	24.43
569.509	24.25
569.933	24.08
570.357	23.89
570.78	23.7
571.204	23.51
571.627	23.33
572.05	23.18
572.474	23.04
572.897	22.91
573.32	22.75
573.743	22.62
574.166	22.47
574.589	22.32
575.012	22.19
575.435	22.07
575.858	21.97
576.281	21.84
576.704	21.73
577.126	21.62
577.549	21.52
577.972	21.42
578.394	21.29
578.817	21.19
579.239	21.11
579.661	21.03
580.084	20.95
580.506	20.85
580.928	20.77
581.35	20.67
581.772	20.58
582.194	20.49
582.616	20.43
583.038	20.36
583.46	20.28
583.882	20.2
584.303	20.11
584.725	20.04
585.147	19.96
585.568	19.89
585.99	19.83
586.411	19.78
586.833	19.69
587.254	19.63
587.675	19.58
588.096	19.54
588.518	19.49
588.939	19.46
589.36	19.4
589.781	19.37
590.202	19.31
590.623	19.26
591.043	19.22
591.464	19.18
591.885	19.14
592.305	19.11
592.726	19.05
593.147	19.02
593.567	18.98
593.987	18.95
594.408	18.92
594.828	18.91
595.248	18.86
595.669	18.82
596.089	18.8
596.509	18.74
596.929	18.69
597.349	18.65
597.769	18.61
598.189	18.57
598.608	18.52
599.028	18.46
599.448	18.4
599.867	18.37
600.287	18.33
600.706	18.28
601.126	18.25
601.545	18.19
601.965	18.14
602.384	18.07
602.803	18.01
603.222	17.94
603.641	17.89
604.061	17.81
604.48	17.72
604.898	17.63
605.317	17.56
605.736	17.49
606.155	17.4
606.574	17.32
606.992	17.22
607.411	17.15
607.829	17.01
608.248	16.94
608.666	16.86
609.085	16.77
609.503	16.69
609.921	16.61
610.339	16.52
610.758	16.45
611.176	16.37
611.594	16.3
612.012	16.21
612.43	16.18
612.847	16.1
613.265	16.02
613.683	15.95
614.101	15.88
614.518	15.79
614.936	15.71
615.353	15.63
615.771	15.55
616.188	15.5
616.606	15.44
617.023	15.37
617.44	15.3
617.857	15.24
618.274	15.18
618.691	15.13
619.108	15.07
619.525	15.03
619.942	14.99
620.359	14.96
620.776	14.91
621.192	14.87
621.609	14.84
622.026	14.82
622.442	14.79
622.859	14.76
623.275	14.76
623.691	14.75
624.108	14.74
624.524	14.71
624.94	14.67
625.356	14.66
625.772	14.65
626.188	14.63
626.604	14.61
627.02	14.59
627.436	14.57
627.852	14.53
628.268	14.51
628.683	14.48
629.099	14.49
629.514	14.48
629.93	14.45
630.345	14.4
630.761	14.37
631.176	14.34
631.591	14.3
632.007	14.25
632.422	14.2
632.837	14.15
633.252	14.08
633.667	13.98
634.082	13.91
634.497	13.82
634.911	13.75
635.326	13.66
635.741	13.56
636.155	13.47
636.57	13.36
636.984	13.25
637.399	13.12
637.813	13
638.228	12.88
638.642	12.77
639.056	12.65
639.47	12.52
639.884	12.39
640.298	12.26
640.712	12.12
641.126	12.01
641.54	11.88
641.954	11.77
642.368	11.66
642.781	11.54
643.195	11.41
643.609	11.28
644.022	11.18
644.436	11.07
644.849	10.97
645.262	10.89
645.676	10.78
646.089	10.69
646.502	10.6
646.915	10.52
647.328	10.46
647.741	10.39
648.154	10.33
648.567	10.26
648.98	10.22
649.393	10.16
649.805	10.1
650.218	10.06
650.631	10.02
651.043	9.97
651.456	9.93
651.868	9.89
652.28	9.84
652.693	9.79
653.105	9.75
653.517	9.68
653.929	9.64
654.341	9.6
654.753	9.54
655.165	9.48
655.577	9.41
655.989	9.33
656.401	9.24
656.813	9.15
657.224	9.09
657.636	9.01
658.047	8.93
658.459	8.85
658.87	8.75
659.282	8.68
659.693	8.6
660.104	8.52
660.515	8.44
660.926	8.38
661.338	8.32
661.749	8.23
662.159	8.14
662.57	8.07
662.981	8
663.392	7.93
663.803	7.85
664.213	7.79
664.624	7.74
665.035	7.67
665.445	7.62
665.855	7.57
666.266	7.53
666.676	7.5
667.086	7.47
667.497	7.43
667.907	7.39
668.317	7.35
668.727	7.33
669.137	7.31
669.547	7.31
669.956	7.3
670.366	7.3
670.776	7.29
671.186	7.29
671.595	7.31
672.005	7.32
672.414	7.34
672.824	7.37
673.233	7.4
673.642	7.4
674.052	7.41
674.461	7.41
674.87	7.43
675.279	7.45
675.688	7.46
676.097	7.49
676.506	7.52
676.915	7.55
677.323	7.58
677.732	7.61
678.141	7.67
678.549	7.73
678.958	7.79
679.366	7.86
679.775	7.93
680.183	8.02
680.592	8.09
681	8.18
681.408	8.27
681.816	8.38
682.224	8.51
682.632	8.65
683.04	8.8
683.448	8.96
683.856	9.14
684.264	9.34
684.671	9.55
685.079	9.79
685.487	10.07
685.894	10.37
686.302	10.69
686.709	11.01
687.116	11.37
687.524	11.75
687.931	12.18
688.338	12.6
688.745	13.06
689.152	13.58
689.559	14.09
689.966	14.59
690.373	15.15
690.78	15.71
691.187	16.3
691.593	16.89
692	17.51
692.407	18.11
692.813	18.74
693.22	19.37
693.626	19.99
694.032	20.65
694.439	21.31
694.845	21.94
695.251	22.59
695.657	23.22
696.063	23.86
696.469	24.48
696.875	25.11
697.281	25.71
697.687	26.36
698.093	26.98
698.498	27.57
698.904	28.16
699.31	28.72
699.715	29.3
700.12	29.86
700.526	30.41
700.931	30.94
701.337	31.5
701.742	32.04
702.147	32.54
702.552	33.05
702.957	33.53
703.362	34.03
703.767	34.53
704.172	35.02
704.577	35.49
704.981	35.95
705.386	36.4
705.791	36.86
706.195	37.28
706.6	37.7
707.004	38.08
707.408	38.5
707.813	38.9
708.217	39.26
708.621	39.61
709.025	40
709.43	40.36
709.834	40.75
710.237	41.1
710.641	41.47
711.045	41.8
711.449	42.13
711.853	42.48
712.256	42.83
712.66	43.2
713.064	43.53
713.467	43.85
713.87	44.18
714.274	44.48
714.677	44.76
715.08	45.01
715.484	45.33
715.887	45.65
716.29	45.91
716.693	46.16
717.096	46.42
717.499	46.67
717.901	46.91
718.304	47.16
718.707	47.4
719.109	47.69
719.512	47.96
719.915	48.19
720.317	48.41
720.719	48.66
721.122	48.85
721.524	49.08
721.926	49.32
722.328	49.53
722.731	49.74
723.133	49.94
723.535	50.14
723.937	50.32
724.338	50.47
724.74	50.63
725.142	50.72
725.544	50.86
725.945	51.01
726.347	51.18
726.748	51.3
727.15	51.42
727.551	51.56
727.952	51.65
728.354	51.81
728.755	51.94
729.156	52.08
729.557	52.27
729.958	52.4
730.359	52.51
730.76	52.58
731.161	52.67
731.562	52.79
731.962	52.88
732.363	52.96
732.763	53.01
733.164	53.09
733.564	53.13
733.965	53.18
734.365	53.26
734.766	53.32
735.166	53.39
735.566	53.45
735.966	53.49
736.366	53.49
736.766	53.55
737.166	53.63
737.566	53.67
737.966	53.75
738.365	53.81
738.765	53.83
739.165	53.87
739.564	53.94
739.964	54
740.363	54.04
740.763	54.11
741.162	54.13
741.561	54.15
741.96	54.21
742.36	54.26
742.759	54.31
743.158	54.36
743.557	54.38
743.955	54.41
744.354	54.42
744.753	54.48
745.152	54.53
745.55	54.6
745.949	54.64
746.348	54.66
746.746	54.64
747.144	54.68
747.543	54.69
747.941	54.74
748.339	54.8
748.737	54.87
749.136	54.89
749.534	54.89
749.932	54.89
750.33	54.88
750.727	54.91
751.125	54.95
751.523	54.94
751.921	54.96
752.318	54.94
752.716	54.9
753.113	54.83
753.511	54.81
753.908	54.81
754.305	54.77
754.703	54.76
755.1	54.69
755.497	54.67
755.894	54.66
756.291	54.61
756.688	54.59
757.085	54.56
757.482	54.55
757.878	54.57
758.275	54.55
758.672	54.57
759.068	54.6
759.465	54.63
759.861	54.6
760.258	54.55
760.654	54.59
761.05	54.6
761.447	54.61
761.843	54.61
762.239	54.57
762.635	54.57
763.031	54.57
763.427	54.52
763.822	54.48
764.218	54.47
764.614	54.49
765.01	54.45
765.405	54.43
765.801	54.39
766.196	54.39
766.592	54.4
766.987	54.39
767.382	54.37
767.778	54.4
768.173	54.4
768.568	54.37
768.963	54.36
769.358	54.39
769.753	54.42
770.148	54.43
770.542	54.41
770.937	54.37
771.332	54.36
771.726	54.39
772.121	54.36
772.515	54.37
772.91	54.4
773.304	54.38
773.699	54.34
774.093	54.3
774.487	54.32
774.881	54.33
775.275	54.37
775.669	54.39
776.063	54.35
776.457	54.36
776.851	54.35
777.245	54.38
777.638	54.4
778.032	54.44
778.425	54.44
778.819	54.43
779.212	54.42
779.606	54.39
779.999	54.38
780.392	54.37
780.786	54.37
781.179	54.38
781.572	54.33
781.965	54.31
782.358	54.28
782.751	54.29
783.143	54.31
783.536	54.35
783.929	54.37
784.322	54.38
784.714	54.41
785.107	54.42
785.499	54.44
785.891	54.46
786.284	54.49
786.676	54.54
787.068	54.54
787.46	54.53
787.852	54.51
788.245	54.52
788.636	54.52
789.028	54.53
789.42	54.51
789.812	54.52
790.204	54.49
790.595	54.5
790.987	54.49
791.378	54.47
791.77	54.51
792.161	54.54
792.553	54.54
792.944	54.56
793.335	54.61
793.726	54.61
794.117	54.62
794.508	54.63
794.899	54.61
795.29	54.6
795.681	54.62
796.072	54.59
796.463	54.58
796.853	54.57
797.244	54.56
797.634	54.54
798.025	54.57
798.415	54.56
798.806	54.6
799.196	54.62
799.586	54.64
799.976	54.67
800.366	54.7
800.756	54.71
801.146	54.76
801.536	54.76
801.926	54.77
802.316	54.79
802.706	54.84
803.095	54.85
803.485	54.92
803.874	54.93
804.264	54.93
804.653	54.89
805.043	54.93
805.432	54.89
805.821	54.92
806.21	54.95
806.599	54.99
806.988	54.98
807.377	54.97
807.766	54.97
808.155	55.02
808.544	55.05
808.933	55.11
809.321	55.11
809.71	55.17
810.098	55.19
810.487	55.19
810.875	55.19
811.264	55.25
811.652	55.24
812.04	55.23
812.428	55.21
812.816	55.21
813.204	55.21
813.592	55.21
813.98	55.21
814.368	55.19
814.756	55.22
815.144	55.22
815.531	55.19
815.919	55.22
816.306	55.24
816.694	55.29
817.081	55.27
817.469	55.31
817.856	55.36
818.243	55.37
818.63	55.42
819.017	55.43
819.404	55.44
819.791	55.43
820.178	55.42
820.565	55.43
820.952	55.4
821.339	55.42
821.725	55.45
822.112	55.43
822.498	55.44
822.885	55.45
823.271	55.46
823.657	55.45
824.044	55.43
824.43	55.48
824.816	55.49
825.202	55.5
825.588	55.52
825.974	55.49
826.36	55.46
826.746	55.5
827.132	55.44
827.517	55.4
827.903	55.43
828.289	55.43
828.674	55.38
829.06	55.4
829.445	55.41
829.83	55.41
830.216	55.4
830.601	55.41
830.986	55.36
831.371	55.37
831.756	55.34
832.141	55.31
832.526	55.28
832.911	55.35
833.295	55.31
833.68	55.27
834.065	55.24
834.449	55.22
834.834	55.18
835.218	55.18
835.603	55.17
835.987	55.18
836.371	55.2
836.755	55.23
837.139	55.17
837.524	55.16
837.908	55.15
838.291	55.14
838.675	55.13
839.059	55.12
839.443	55.12
839.827	55.12
840.21	55.13
840.594	55.08
840.977	55.03
841.361	55.04
841.744	55.02
842.127	54.97
842.511	54.95
842.894	54.93
843.277	54.92
843.66	54.9
844.043	54.89
844.426	54.83
844.809	54.84
845.191	54.85
845.574	54.81
845.957	54.79
846.339	54.81
846.722	54.81
847.104	54.82
847.487	54.84
847.869	54.82
848.252	54.83
848.634	54.87
849.016	54.87
849.398	54.86
849.78	54.82
850.162	54.82
850.544	54.83
850.926	54.84
851.307	54.84
851.689	54.81
852.071	54.81
852.452	54.81
852.834	54.79
853.215	54.79
853.597	54.81
853.978	54.82
854.359	54.82
854.741	54.84
855.122	54.84
855.503	54.83
855.884	54.85
856.265	54.84
856.646	54.83
857.026	54.84
857.407	54.82
857.788	54.85
858.169	54.88
858.549	54.9
858.93	54.88
859.31	54.87
859.69	54.87
860.071	54.89
860.451	54.91
860.831	54.93
861.211	54.91
861.591	54.91
861.971	54.86
862.351	54.88
862.731	54.86
863.111	54.87
863.491	54.87
863.87	54.87
864.25	54.86
864.629	54.84
865.009	54.8
865.388	54.82
865.768	54.84
866.147	54.84
866.526	54.81
866.905	54.82
867.284	54.82
867.663	54.85
868.042	54.85
868.421	54.83
868.8	54.83
869.179	54.86
869.558	54.82
869.936	54.79
870.315	54.8
870.693	54.79
871.072	54.8
871.45	54.79
871.828	54.79
872.207	54.8
872.585	54.82
872.963	54.83
873.341	54.86
873.719	54.87
874.097	54.89
874.475	54.89
874.853	54.9
875.23	54.9
875.608	54.89
875.986	54.85
876.363	54.85
876.741	54.84
877.118	54.82
877.495	54.77
877.873	54.78
878.25	54.79
878.627	54.78
879.004	54.77
879.381	54.76
879.758	54.74
880.135	54.72
880.512	54.72
880.889	54.74
881.265	54.77
881.642	54.78
882.019	54.79
882.395	54.76
882.772	54.78
883.148	54.79
883.524	54.79
883.901	54.81
884.277	54.82
884.653	54.81
885.029	54.8
885.405	54.79
885.781	54.76
886.157	54.74
886.532	54.75
886.908	54.75
887.284	54.75
887.659	54.74
888.035	54.7
888.411	54.68
888.786	54.67
889.161	54.64
889.537	54.62
889.912	54.61
890.287	54.6
890.662	54.57
891.037	54.51
891.412	54.44
891.787	54.43
892.162	54.42
892.536	54.39
892.911	54.34
893.286	54.29
893.66	54.24
894.035	54.23
894.409	54.2
894.784	54.17
895.158	54.17
895.532	54.16
895.906	54.12
896.281	54.1
896.655	54.11
897.029	54.1
897.402	54.12
897.776	54.1
898.15	54.06
898.524	54.05
898.898	54.03
899.271	54.03
899.645	54.04
900.018	54.04
900.392	54.03
900.765	54.02
901.138	54.04
901.511	54.03
901.884	54.06
902.258	54.1
902.631	54.11
903.003	54.14
903.376	54.13
903.749	54.12
904.122	54.15
904.495	54.15
904.867	54.12
905.24	54.11
905.612	54.11
905.985	54.1
906.357	54.06
906.729	54.05
907.102	54.02
907.474	54.03
907.846	54.02
908.218	53.97
908.59	53.97
908.962	53.99
909.334	54
909.705	54.03
910.077	54.01
910.449	54.03
910.82	54.02
911.192	54.01
911.563	53.99
911.935	53.99
912.306	54.01
912.677	53.99
913.048	53.95
913.419	53.94
913.79	53.91
914.161	53.92
914.532	53.9
914.903	53.9
915.274	53.88
915.645	53.94
916.015	53.95
916.386	53.95
916.756	53.95
917.127	53.99
917.497	54
917.868	53.97
918.238	54
918.608	54
918.978	54.01
919.348	53.99
919.718	53.94
920.088	53.99
920.458	54.03
920.828	54.08
921.198	54.07
921.567	54.06
921.937	54.12
922.306	54.08
922.676	54.12
923.045	54.08
923.415	54.14
923.784	54.17
924.153	54.09
924.522	54.07
924.891	54.03
925.26	54.01
925.629	53.98
925.998	53.91
926.367	53.91
926.736	53.85
927.104	53.88
927.473	53.9
927.842	53.88
928.21	53.91
928.578	53.85
928.947	53.85
929.315	53.84
929.683	53.88
930.051	53.88
930.42	53.87
930.788	53.85
931.156	53.84
931.523	53.76
931.891	53.7
932.259	53.6
932.627	53.53
932.994	53.49
933.362	53.47
933.729	53.29
934.097	53.23
934.464	53.15
934.831	53.09
935.199	53.05
935.566	53
935.933	53.04
936.3	53.01
936.667	52.96
937.034	52.88
937.401	52.83
937.767	52.87
938.134	52.85
938.501	52.86
938.867	52.94
939.234	53.01
939.6	53.01
939.967	52.99
940.333	53.09
940.699	53.27
941.065	53.45
941.431	53.54
941.798	53.72
942.163	53.9
942.529	54.01
942.895	54.11
943.261	54.11
943.627	54.24
943.992	54.27
944.358	54.38
944.723	54.39
945.089	54.43
945.454	54.46
945.82	54.45
946.185	54.43
946.55	54.43
946.915	54.38
947.28	54.36
947.645	54.35
948.01	54.37
948.375	54.41
948.74	54.41
949.104	54.31
949.469	54.19
949.834	54.1
950.198	54.03
950.562	54.03
950.927	53.92
951.291	53.91
951.655	53.83
952.02	53.77
952.384	53.72
952.748	53.6
953.112	53.57
953.476	53.56
953.839	53.57
954.203	53.53
954.567	53.46
954.931	53.51
955.294	53.45
955.658	53.37
956.021	53.34
956.385	53.26
956.748	53.32
957.111	53.3
957.474	53.32
957.837	53.34
958.2	53.25
958.563	53.17
958.926	53.08
959.289	53.09
959.652	53.13
960.015	53.04
960.377	53.01
960.74	52.97
961.102	52.96
961.465	52.98
961.827	52.81
962.189	52.79
962.552	52.79
962.914	52.74
963.276	52.69
963.638	52.63
964	52.61
964.362	52.59
964.724	52.54
965.085	52.5
965.447	52.39
965.809	52.41
966.17	52.46
966.532	52.48
966.893	52.53
967.255	52.49
967.616	52.52
967.977	52.57
968.338	52.58
968.699	52.54
969.061	52.49
969.421	52.51
969.782	52.56
970.143	52.52
970.504	52.4
970.865	52.36
971.225	52.33
971.586	52.35
971.946	52.34
972.307	52.31
972.667	52.38
973.027	52.37
973.388	52.35
973.748	52.36
974.108	52.38
974.468	52.44
974.828	52.44
975.188	52.5
975.548	52.45
975.907	52.47
976.267	52.45
976.627	52.36
976.986	52.41
977.346	52.43
977.705	52.47
978.064	52.46
978.424	52.48
978.783	52.52
979.142	52.49
979.501	52.47
979.86	52.49
980.219	52.46
980.578	52.48
980.937	52.49
981.296	52.55
981.654	52.61
982.013	52.61
982.371	52.62
982.73	52.56
983.088	52.61
983.447	52.61
983.805	52.5
984.163	52.64
984.521	52.53
984.879	52.52
985.237	52.47
985.595	52.42
985.953	52.44
986.311	52.51
986.669	52.57
987.026	52.64
987.384	52.65
987.741	52.71
988.099	52.65
988.456	52.8
988.814	52.88
989.171	52.86
989.528	52.8
989.885	52.83
990.242	52.8
990.599	52.85
990.956	52.9
991.313	52.94
991.67	53.06
992.027	52.99
992.383	52.97
992.74	52.88
993.096	52.88
993.453	52.94
993.809	52.92
994.165	52.98
994.522	52.94
994.878	52.85
995.234	52.88
995.59	52.74
995.946	52.89
996.302	52.94
996.658	53.05
997.013	53.19
997.369	53.18
997.725	53.17
998.08	53.1
998.436	53.19
998.791	53.16
999.147	53.2
999.502	53.31
999.857	53.32
1000.212	53.24
1000.567	53.19
1000.922	53.21
1001.277	53.33
1001.632	53.54
1001.987	53.63
1002.342	53.69
1002.696	53.7
1003.051	53.74
1003.406	53.76
1003.76	53.74
1004.114	54.02
1004.469	54.04
1004.823	54.04
1005.177	54
1005.531	53.78
1005.885	53.81
1006.239	53.84
1006.593	53.97
1006.947	53.91
1007.301	53.81
1007.655	53.95
1008.008	53.74
1008.362	53.84
1008.715	53.77
1009.069	53.76
1009.422	53.79
1009.776	53.76
1010.129	53.63
1010.482	53.76
1010.835	53.9
1011.188	54.01
1011.541	53.82
1011.894	53.88
1012.247	53.89
1012.6	53.89
1012.952	54
1013.305	53.94
1013.657	53.97
1014.01	54.13
1014.362	53.98
1014.715	53.84
1015.067	54.02
1015.419	54.31
1015.771	54.69
1016.123	54.5
1016.475	54.58
1016.827	54.65
1017.179	54.93
1017.531	55.18
1017.883	55.31
1018.234	55.38
1018.586	55.45
1018.938	55.39
1019.289	55.38
1019.64	55.24
1019.992	55.53
1020.343	55.74
1020.694	55.7
1021.045	55.92
1021.396	55.67
1021.747	55.25
1022.098	55.54
1022.449	55.56
1022.8	55.48
1023.151	55.2
1023.501	55.11
1023.852	55.38
1024.202	55.35
1024.553	55.18
1024.903	55.08
1025.253	55.19
1025.604	55.63
1025.954	55.34
1026.304	55.67
1026.654	55.98
1027.004	56.22
1027.354	56.22
1027.703	55.88
1028.053	55.87
1028.403	55.97
1028.753	56.19
1029.102	56.37
1029.452	56.44
1029.801	56.63
1030.15	56.53
1030.499	56.42
897.758	516.8
901.051	533.07
904.343	528.45
907.636	518.75
910.928	515.15
914.22	517.29
917.511	504.94
920.803	484.84
924.094	464.52
927.384	467.79
930.675	453.42
933.965	448.46
937.255	443.89
940.544	427.55
943.834	413.43
947.123	404.51
950.411	384.85
953.7	378.21
956.988	365.6
960.276	352.29
963.563	347.96
966.851	330.7
970.138	322.74
973.424	301.54
976.711	298.94
979.997	286.27
983.283	278.77
986.568	271.82
989.853	265.18
993.138	255.87
996.423	249.59
999.708	242.4
1002.992	242.98
1006.275	236.13
1009.559	235.77
1012.842	228.4
1016.125	221.58
1019.408	218.13
1022.69	216.11
1025.972	213.23
1029.254	209.16
1032.536	205.95
1035.817	198.96
1039.098	196.02
1042.379	193.25
1045.659	188.81
1048.939	187.85
1052.219	184.87
1055.498	181.89
1058.778	178.67
1062.057	176.24
1065.335	175.17
1068.614	171.09
1071.892	169.76
1075.17	167.38
1078.447	164.86
1081.724	163.27
1085.001	159.09
1088.278	159.13
1091.554	158.03
1094.83	156.38
1098.106	153.36
1101.382	152.34
1104.657	153.05
1107.932	152.52
1111.206	150.1
1114.481	149.04
1117.755	149.05
1121.029	148.78
1124.302	146.5
1127.575	143.84
1130.848	143.99
1134.121	142.56
1137.393	142.07
1140.665	141.05
1143.937	139.45
1147.208	137.95
1150.48	136.51
1153.75	134.9
1157.021	134.06
1160.291	133.35
1163.561	132.96
1166.831	132.52
1170.101	131.36
1173.37	130.75
1176.639	129.39
1179.907	129.09
1183.176	128.92
1186.444	129.19
1189.711	128.04
1192.979	128.5
1196.246	128.67
1199.513	129.1
1202.78	128.52
1206.046	128.51
1209.312	129.91
1212.578	130.77
1215.843	132.75
1219.108	133.59
1222.373	135.62
1225.638	138.06
1228.902	141.24
1232.166	146.02
1235.43	146.78
1238.693	150.32
1241.956	154.89
1245.219	157.54
1248.482	159.32
1251.744	158.07
1255.006	159.43
1258.268	154.61
1261.529	153.7
1264.79	149.78
1268.051	146.06
1271.312	146.18
1274.572	143.3
1277.832	139.76
1281.092	137.57
1284.351	134.28
1287.61	134.85
1290.869	133.17
1294.128	133.47
1297.386	132.71
1300.644	131.47
1303.902	130.91
1307.159	129.52
1310.416	130.86
1313.673	131.79
1316.93	133.76
1320.186	135.94
1323.442	136.93
1326.697	139.77
1329.953	140.85
1333.208	145.28
1336.463	151.03
1339.717	153.97
1342.972	162.49
1346.226	164.24
1349.479	166.05
1352.733	171.26
1355.986	175.63
1359.238	178.7
1362.491	180.1
1365.743	186
1368.995	188.75
1372.247	190.57
1375.498	189.07
1378.749	192.75
1382	195.35
1385.251	193.09
1388.501	192.57
1391.751	193.07
1395	193.09
1398.25	195.36
1401.499	194.3
1404.748	191.14
1407.996	185.76
1411.244	186.06
1414.492	183.05
1417.74	178.09
1420.987	175.05
1424.234	171.99
1427.481	164.94
1430.728	160.15
1433.974	153.09
1437.22	148.42
1440.465	143.55
1443.711	139.44
1446.956	134.46
1450.201	129.29
1453.445	123.22
1456.689	119.84
1459.933	115.42
1463.177	110.29
1466.42	107.95
1469.663	105.47
1472.906	102.21
1476.148	99.58
1479.391	97.25
1482.633	95.86
1485.874	93.85
1489.115	93.16
1492.356	91.2
1495.597	89.95
1498.838	89.86
1502.078	88.82
1505.318	88.22
1508.557	87.41
1511.797	86.61
1515.036	86.27
1518.274	86.17
1521.513	84.98
1524.751	84.3
1527.989	85.53
1531.227	85.21
1534.464	85.12
1537.701	84.8
1540.938	84.37
1544.174	84.58
1547.41	84.78
1550.646	84.61
1553.882	84.61
1557.117	84.79
1560.352	84.7
1563.587	83.55
1566.821	83.76
1570.055	83.49
1573.289	83.55
1576.523	83.49
1579.756	83.49
1582.989	83.63
1586.222	83.28
1589.454	83.03
1592.686	83.24
1595.918	83.12
1599.15	83.12
1602.381	83.34
1605.612	83.54
1608.843	83.45
1612.073	83.67
1615.303	83.87
1618.533	83.35
1621.762	83.96
1624.992	84.15
1628.221	83.92
1631.449	84.53
1634.678	84.76
1637.906	84.81
1641.134	84.71
1644.361	84.64
1647.588	85.45
1650.815	85.4
1654.042	85.83
1657.269	85.32
1660.495	85.82
1663.72	85.82
1666.946	85.59
1670.171	85.88
1673.396	86.4
1676.621	86.66
1679.845	87.12
1683.069	86.52
1686.293	86.37
1689.517	86.16
1692.74	86.47
1695.963	86.59
1699.185	87.18
1702.408	86.72
1705.63	87.19
1708.852	87.44
1712.073	87.29
1715.294	87.15
1718.515	88.01
1721.736	88.54
1724.956	88.4
1728.176	88.4
1731.396	89.06
1734.616	88.79
1737.835	89.57
1741.054	88.66
1744.272	88.35
1747.491	88.81
1750.709	89.28
1753.927	88.93
1757.144	88.81
1760.361	89
1763.578	89.75
1766.795	89.45
1770.011	89.87
1773.227	90.14
1776.443	91.59
1779.658	91.23
1782.874	91.99
1786.089	91.2
1789.303	91.25
1792.518	91.94
1795.732	93.2
1798.945	93.74
1802.159	93.85
1805.372	94.93
1808.585	95.64
1811.797	95.6
1815.01	96.95
1818.222	97.07
1821.434	99.03
1824.645	99.64
1827.856	101.62
1831.067	101.39
1834.278	102.07
1837.488	102.76
1840.698	103.66
1843.908	103.86
1847.117	105.19
1850.326	105.54
1853.535	106.22
1856.744	106.14
1859.952	108.29
1863.16	107.19
1866.368	107.55
1869.575	107.84
1872.782	108.44
1875.989	105.71
1879.196	106.97
1882.402	104.99
1885.608	105.76
1888.814	105.45
1892.019	107.23
1895.224	104.3
1898.429	105.03
1901.634	104.68
1904.838	105.84
1908.042	106.2
1911.246	107.12
1914.449	105.95
1917.652	106.47
1920.855	106.83
1924.058	106.04
1927.26	104.71
1930.462	105.38
1933.664	105.86
1936.865	106.13
1940.066	104.18
1943.267	102.33
1946.467	104.53
1949.668	105.3
1952.868	106.24
1956.067	105.43
1959.267	106.3
1962.466	107.04
1965.665	107.86
1968.863	107.43
1972.061	110.25
1975.259	112.38
1978.457	114.87
1981.654	114.31
1984.852	114.51
1988.048	115.88
1991.245	117.87
1994.441	120.15
1997.637	122.14
2000.833	125.22
2004.028	126.78
2007.223	128.24
2010.418	130.43
2013.613	135.61
2016.807	139.61
2020.001	141.87
2023.194	145.61
2026.388	151.25
2029.581	157.51
2032.774	163.01
2035.966	168.07
2039.158	172.79
2042.35	175.74
2045.542	179.62
2048.733	186.87
2051.924	187.83
2055.115	192.84
2058.306	195.38
2061.496	197.47
2064.686	200.62
2067.875	198.5
2071.065	199.97
2074.254	199.75
2077.442	206.72
2080.631	209.39
2083.819	208.74
2087.007	214.1
2090.195	217.51
2093.382	216.28
2096.569	217.48
2099.756	219.09
2102.942	224.5
2106.128	229.9
2109.314	231.4
2112.5	230.5
2115.685	227
2118.87	228.32
2122.055	229.63
2125.239	233.38
2128.424	240.67
2131.608	238.02
2134.791	237.63
2137.974	239.61
2141.157	240.19
2144.34	244.36
2147.523	249.75
2150.705	257.63
2153.887	252.7
2157.068	255.7
2160.25	257.08
2163.431	256.7
2166.611	259.9
2169.792	266.33
2172.972	268.85
2176.152	268.55
2179.331	274.05
2182.511	272.11
2185.69	276.33
2188.868	287.71
2192.047	295.45
2195.225	299.63
2198.403	302.81
2201.58	302.72
2204.758	310.45
2207.935	311.85
2211.111	319.7
2214.288	319.63
2217.464	324.48
2220.64	326.88
2223.815	328.35
2226.991	324.25
2230.166	326.51
2233.34	336.75
2236.515	346.5
2239.689	341.41
2242.863	347.14
2246.036	343.43
2249.209	352.72
2252.382	351.67
2255.555	363.73
2258.727	367.69
2261.9	375.87
2265.071	383.48
2268.243	375.78
2271.414	389.14
2274.585	397.32
2277.756	397.41
2280.926	413.25
2284.096	418.05
2287.266	419.11
2290.436	411.17
2293.605	419.65
2296.774	436.61
2299.942	433.22
2303.111	452.11
2306.279	455.16
2309.447	460.95
2312.614	461.01
2315.781	473.62
2318.948	474.07
2322.115	484.55
2325.281	509.66
2328.447	502.6
2331.613	504.29
2334.779	511.97
2337.944	519.03
2341.109	530.58
2344.274	529.92
2347.438	548.1
2350.602	551.36
2353.766	591.37
2356.929	592.67
2360.092	599.14
2363.255	607.94
2366.418	614.54
2369.58	626.53
2372.742	630.2
2375.904	625.33
2379.066	646.09
2382.227	677.31
2385.388	683.44
2388.548	643.68
2391.709	638.99
2394.869	659.74
2398.029	660.63
2401.188	662.12
2404.347	682.37
2407.506	700.7
2410.665	676.16
2413.823	683.76
2416.981	685.06
2420.139	648.08
2423.296	706.43
2426.453	754.13
2429.61	710.9
2432.767	760.28
2435.923	785.52
2439.079	765.32
2442.235	779.23
2445.391	801.86
2448.546	790.84
2451.701	832.75
2454.855	894.21
2458.009	786.39
2461.163	802.69
2464.317	817.77
2467.471	799.37
2470.624	829.15
2473.777	811.79
2476.929	782.07
2480.082	832.8
2483.234	873.02
2486.385	887.89
2489.537	909.23
2492.688	998.31
2495.839	969.27
2498.989	1004.39
2502.14	1010.55
2505.29	962.42
2508.439	1061.14
2511.589	1094.04
2514.738	1072.93
2517.887	1060.65
2521.035	1008.11
2524.183	983.85
2527.331	976.74
2530.479	962.05
2533.627	980.92
