Data from C_3_hir_il_4n_Splice17_01.txt Node
Date: Sat Feb 29 15:11:05 EST 2020
User: sa697716
Spectrometer: FLMS03696
Trigger mode: 0
Integration Time (sec): 3.180400E-1
Scans to average: 20
Electric dark correction enabled: true
Nonlinearity correction enabled: true
Boxcar width: 5
XAxis mode: Wavelengths
Number of Pixels in Spectrum: 2048
>>>>>Begin Spectral Data<<<<<
187.83	93.89
188.298	82.54
188.766	89.04
189.233	97.93
189.701	102.31
190.169	104.81
190.636	118.77
191.104	128.63
191.571	455.43
192.039	339.77
192.506	-360.14
192.974	-439.04
193.441	558.81
193.908	13.68
194.375	59.11
194.842	218.67
195.31	149.19
195.777	189.86
196.244	148.77
196.711	135.89
197.177	133.37
197.644	131.05
198.111	131.97
198.578	131.68
199.045	131.63
199.511	131.27
199.978	130.42
200.445	129.33
200.911	128.75
201.378	128.3
201.844	128.38
202.31	128.12
202.777	127.76
203.243	126.86
203.709	125.5
204.176	124.71
204.642	123.49
205.108	122.29
205.574	122.07
206.04	121.17
206.506	119.42
206.972	117.31
207.438	115.57
207.903	113.42
208.369	110.5
208.835	108.78
209.301	106.43
209.766	103.42
210.232	101.09
210.697	98.35
211.163	95.51
211.628	93.36
212.094	91.2
212.559	88.71
213.024	86.56
213.49	84.37
213.955	81.99
214.42	78.98
214.885	75.74
215.35	71.73
215.815	66.36
216.28	61.02
216.745	54.64
217.21	48.32
217.675	42.33
218.14	36.96
218.604	32.22
219.069	28.09
219.534	24.72
219.998	21.96
220.463	19.59
220.927	17.74
221.392	16.06
221.856	14.72
222.32	13.53
222.785	12.56
223.249	11.72
223.713	11.02
224.177	10.35
224.642	9.77
225.106	9.22
225.57	8.72
226.034	8.27
226.497	7.86
226.961	7.45
227.425	7.09
227.889	6.76
228.353	6.44
228.816	6.16
229.28	5.89
229.744	5.68
230.207	5.47
230.671	5.28
231.134	5.09
231.597	4.9
232.061	4.75
232.524	4.62
232.987	4.49
233.45	4.37
233.914	4.24
234.377	4.16
234.84	4.05
235.303	3.97
235.766	3.9
236.229	3.84
236.691	3.79
237.154	3.75
237.617	3.69
238.08	3.65
238.542	3.61
239.005	3.58
239.468	3.52
239.93	3.5
240.393	3.45
240.855	3.39
241.317	3.34
241.78	3.29
242.242	3.23
242.704	3.19
243.166	3.13
243.629	3.08
244.091	3.04
244.553	3
245.015	2.95
245.477	2.89
245.939	2.86
246.4	2.81
246.862	2.78
247.324	2.76
247.786	2.71
248.247	2.68
248.709	2.64
249.17	2.6
249.632	2.57
250.093	2.52
250.555	2.5
251.016	2.47
251.477	2.44
251.939	2.39
252.4	2.37
252.861	2.34
253.322	2.31
253.783	2.29
254.244	2.26
254.705	2.23
255.166	2.21
255.627	2.18
256.088	2.14
256.549	2.11
257.009	2.07
257.47	2.02
257.931	1.98
258.391	1.93
258.852	1.88
259.312	1.84
259.773	1.8
260.233	1.74
260.694	1.7
261.154	1.66
261.614	1.62
262.074	1.59
262.534	1.55
262.994	1.52
263.455	1.49
263.915	1.46
264.374	1.43
264.834	1.4
265.294	1.38
265.754	1.35
266.214	1.33
266.673	1.3
267.133	1.28
267.593	1.26
268.052	1.24
268.512	1.23
268.971	1.22
269.431	1.2
269.89	1.2
270.349	1.19
270.809	1.19
271.268	1.2
271.727	1.2
272.186	1.2
272.645	1.2
273.104	1.19
273.563	1.2
274.022	1.2
274.481	1.2
274.94	1.2
275.399	1.2
275.857	1.2
276.316	1.2
276.775	1.2
277.233	1.21
277.692	1.22
278.15	1.22
278.609	1.23
279.067	1.23
279.525	1.24
279.984	1.26
280.442	1.27
280.9	1.27
281.358	1.28
281.816	1.3
282.274	1.3
282.732	1.32
283.19	1.34
283.648	1.36
284.106	1.37
284.564	1.39
285.021	1.4
285.479	1.42
285.937	1.43
286.394	1.44
286.852	1.45
287.309	1.45
287.767	1.45
288.224	1.45
288.682	1.44
289.139	1.43
289.596	1.42
290.053	1.4
290.511	1.39
290.968	1.37
291.425	1.36
291.882	1.34
292.339	1.32
292.796	1.3
293.252	1.28
293.709	1.27
294.166	1.26
294.623	1.26
295.079	1.26
295.536	1.25
295.992	1.24
296.449	1.24
296.905	1.23
297.362	1.23
297.818	1.23
298.274	1.22
298.731	1.22
299.187	1.22
299.643	1.22
300.099	1.22
300.555	1.22
301.011	1.22
301.467	1.21
301.923	1.22
302.379	1.23
302.835	1.23
303.291	1.24
303.746	1.25
304.202	1.26
304.658	1.27
305.113	1.27
305.569	1.29
306.024	1.3
306.479	1.31
306.935	1.33
307.39	1.34
307.845	1.36
308.301	1.38
308.756	1.4
309.211	1.41
309.666	1.42
310.121	1.43
310.576	1.44
311.031	1.45
311.486	1.47
311.94	1.47
312.395	1.49
312.85	1.5
313.305	1.51
313.759	1.52
314.214	1.52
314.668	1.53
315.123	1.54
315.577	1.54
316.032	1.55
316.486	1.54
316.94	1.54
317.394	1.54
317.849	1.53
318.303	1.52
318.757	1.51
319.211	1.5
319.665	1.49
320.119	1.48
320.572	1.47
321.026	1.46
321.48	1.45
321.934	1.45
322.387	1.44
322.841	1.44
323.295	1.44
323.748	1.44
324.202	1.45
324.655	1.46
325.108	1.46
325.562	1.45
326.015	1.45
326.468	1.46
326.921	1.46
327.374	1.48
327.827	1.48
328.28	1.47
328.733	1.48
329.186	1.49
329.639	1.49
330.092	1.5
330.545	1.52
330.997	1.54
331.45	1.54
331.903	1.56
332.355	1.57
332.808	1.59
333.26	1.61
333.713	1.63
334.165	1.64
334.617	1.65
335.069	1.65
335.522	1.67
335.974	1.68
336.426	1.7
336.878	1.71
337.33	1.72
337.782	1.73
338.234	1.74
338.686	1.73
339.137	1.74
339.589	1.74
340.041	1.73
340.493	1.71
340.944	1.7
341.396	1.69
341.847	1.67
342.299	1.65
342.75	1.63
343.201	1.6
343.653	1.58
344.104	1.56
344.555	1.55
345.006	1.54
345.457	1.54
345.908	1.53
346.359	1.53
346.81	1.55
347.261	1.54
347.712	1.55
348.163	1.56
348.613	1.56
349.064	1.55
349.515	1.55
349.965	1.55
350.416	1.56
350.866	1.56
351.317	1.55
351.767	1.54
352.217	1.55
352.668	1.55
353.118	1.56
353.568	1.57
354.018	1.59
354.468	1.6
354.918	1.63
355.368	1.64
355.818	1.65
356.268	1.67
356.718	1.68
357.168	1.69
357.617	1.7
358.067	1.7
358.517	1.7
358.966	1.71
359.416	1.72
359.865	1.72
360.315	1.73
360.764	1.74
361.213	1.73
361.663	1.73
362.112	1.74
362.561	1.75
363.01	1.76
363.459	1.76
363.908	1.76
364.357	1.76
364.806	1.76
365.255	1.78
365.703	1.79
366.152	1.8
366.601	1.81
367.05	1.82
367.498	1.84
367.947	1.84
368.395	1.85
368.844	1.86
369.292	1.87
369.74	1.88
370.189	1.88
370.637	1.88
371.085	1.88
371.533	1.89
371.981	1.9
372.429	1.9
372.877	1.91
373.325	1.91
373.773	1.92
374.221	1.92
374.669	1.91
375.116	1.91
375.564	1.92
376.012	1.94
376.459	1.95
376.907	1.96
377.354	1.97
377.801	1.98
378.249	2.01
378.696	2.03
379.143	2.06
379.591	2.1
380.038	2.15
380.485	2.19
380.932	2.24
381.379	2.3
381.826	2.37
382.273	2.47
382.72	2.59
383.166	2.71
383.613	2.85
384.06	3.05
384.506	3.29
384.953	3.59
385.4	3.96
385.846	4.41
386.292	4.94
386.739	5.54
387.185	6.2
387.631	6.83
388.078	7.39
388.524	7.87
388.97	8.37
389.416	9.02
389.862	9.93
390.308	11.04
390.754	12.32
391.2	13.58
391.645	14.65
392.091	15.59
392.537	16.69
392.983	18.38
393.428	20.72
393.874	23.53
394.319	26.55
394.765	29.56
395.21	32.52
395.655	35.55
396.101	38.74
396.546	42.36
396.991	46.34
397.436	50.43
397.881	54.35
398.326	57.88
398.771	61.1
399.216	64.01
399.661	66.63
400.106	68.91
400.551	70.8
400.995	72.34
401.44	73.59
401.885	74.79
402.329	75.99
402.774	77.24
403.218	78.67
403.663	80.18
404.107	81.8
404.551	83.38
404.995	84.89
405.44	86.4
405.884	88.11
406.328	90.08
406.772	92.18
407.216	94.34
407.66	96.26
408.104	97.83
408.547	99.13
408.991	100.43
409.435	101.87
409.879	103.64
410.322	105.8
410.766	107.92
411.209	109.98
411.653	111.85
412.096	113.52
412.54	115.23
412.983	117.27
413.426	119.48
413.869	121.64
414.312	123.93
414.756	126.05
415.199	127.78
415.642	129.41
416.085	130.83
416.527	131.85
416.97	132.49
417.413	132.68
417.856	132.33
418.298	132.07
418.741	132.08
419.184	132.16
419.626	132.44
420.069	132.75
420.511	133.31
420.953	133.78
421.396	134.83
421.838	136.34
422.28	138.2
422.722	140.4
423.164	142.23
423.606	143.85
424.048	144.88
424.49	145.48
424.932	145.34
425.374	144.01
425.816	142.17
426.258	140.03
426.699	138.33
427.141	137.82
427.582	138.45
428.024	139.89
428.465	141.5
428.907	143.01
429.348	144.16
429.789	145.9
430.231	149.13
430.672	153.55
431.113	158.86
431.554	163.76
431.995	167.7
432.436	170.3
432.877	172.5
433.318	174.35
433.759	176.82
434.2	179.85
434.64	183.43
435.081	186.55
435.522	189.53
435.962	191.59
436.403	193.99
436.843	195.79
437.284	197.37
437.724	198.86
438.164	200.69
438.604	202.79
439.045	204.82
439.485	206.36
439.925	207.71
440.365	208.71
440.805	209.63
441.245	209.78
441.685	210.83
442.125	212.07
442.564	213.44
443.004	214.46
443.444	215.68
443.883	216.93
444.323	218.5
444.762	220.2
445.202	221.84
445.641	223.69
446.081	226.36
446.52	228.04
446.959	230.2
447.398	232
447.837	233.15
448.276	233.3
448.716	233.49
449.154	233.64
449.593	233.73
450.032	233.24
450.471	232.2
450.91	230.6
451.349	229.03
451.787	227.39
452.226	225.59
452.664	224.09
453.103	222.79
453.541	220.89
453.98	218.7
454.418	216.17
454.856	213.87
455.295	212.13
455.733	210.02
456.171	208.28
456.609	206.79
457.047	204.71
457.485	203.61
457.923	202.85
458.361	202.51
458.798	202.58
459.236	202.74
459.674	203.2
460.111	203.21
460.549	204.04
460.987	204.84
461.424	205.18
461.862	206.44
462.299	207.09
462.736	207.67
463.173	208.81
463.611	209.93
464.048	211.45
464.485	212.9
464.922	214.56
465.359	215.97
465.796	217.17
466.233	219.14
466.67	220.72
467.106	222.52
467.543	224.22
467.98	225.44
468.416	226.62
468.853	227.37
469.29	227.98
469.726	228.64
470.162	229.14
470.599	229.32
471.035	229.17
471.471	228.8
471.907	228.13
472.344	227.42
472.78	226.41
473.216	225.14
473.652	223.82
474.088	222.36
474.523	220.44
474.959	218.59
475.395	216.72
475.831	214.72
476.266	212.78
476.702	210.82
477.138	208.53
477.573	206.33
478.008	203.9
478.444	201.32
478.879	198.77
479.314	196.3
479.75	193.71
480.185	191.11
480.62	188.26
481.055	185.31
481.49	181.82
481.925	178.37
482.36	175.14
482.795	172.28
483.229	169.95
483.664	167.71
484.099	165.57
484.534	163.53
484.968	161.84
485.403	160.34
485.837	159.24
486.271	158.58
486.706	157.93
487.14	157.38
487.574	156.58
488.009	155.68
488.443	154.85
488.877	154.12
489.311	153.49
489.745	152.9
490.179	152.54
490.613	152.1
491.046	151.83
491.48	151.77
491.914	151.71
492.348	151.85
492.781	151.95
493.215	152.13
493.648	152.28
494.082	152.43
494.515	152.65
494.948	152.74
495.382	152.89
495.815	152.9
496.248	152.97
496.681	152.96
497.114	152.98
497.547	153.04
497.98	153.16
498.413	153.38
498.846	153.67
499.279	153.88
499.711	154.08
500.144	154.34
500.577	154.87
501.009	155.49
501.442	156.31
501.874	157
502.306	157.84
502.739	158.43
503.171	159.24
503.603	159.84
504.036	160.47
504.468	161.3
504.9	162.16
505.332	162.8
505.764	163.46
506.196	164.05
506.627	164.79
507.059	165.48
507.491	166.26
507.923	166.78
508.354	167.52
508.786	168.31
509.217	168.84
509.649	169.52
510.08	170.19
510.512	170.9
510.943	171.7
511.374	172.45
511.805	172.95
512.237	173.41
512.668	173.83
513.099	174.34
513.53	174.77
513.961	175.33
514.391	175.82
514.822	176.41
515.253	177.04
515.684	177.54
516.114	178.12
516.545	178.71
516.975	179.52
517.406	180.38
517.836	181.07
518.267	181.72
518.697	182.24
519.127	182.75
519.558	183.14
519.988	183.45
520.418	183.79
520.848	183.98
521.278	184.24
521.708	184.08
522.138	184.06
522.567	184.08
522.997	184.13
523.427	184.34
523.857	184.42
524.286	184.71
524.716	185
525.145	185.17
525.575	185.52
526.004	185.88
526.433	186.62
526.863	187.33
527.292	187.92
527.721	188.41
528.15	188.72
528.579	188.99
529.008	189.18
529.437	189.28
529.866	189.42
530.295	189.56
530.724	189.78
531.152	189.88
531.581	189.96
532.01	190.01
532.438	190.04
532.867	190.28
533.295	190.52
533.723	190.75
534.152	190.92
534.58	191.02
535.008	191.01
535.436	190.96
535.865	190.87
536.293	190.76
536.721	190.83
537.149	191.01
537.576	191.29
538.004	191.6
538.432	191.85
538.86	192.15
539.287	192.55
539.715	193.02
540.143	193.55
540.57	194.24
540.998	195.04
541.425	195.65
541.852	196.42
542.28	196.96
542.707	197.67
543.134	198.31
543.561	198.81
543.988	199.39
544.415	200.08
544.842	200.75
545.269	201.33
545.696	201.86
546.123	202.65
546.549	203.21
546.976	203.75
547.403	204.14
547.829	204.74
548.256	205.34
548.682	205.75
549.108	206.32
549.535	206.8
549.961	207.16
550.387	207.52
550.813	207.83
551.24	208.16
551.666	208.44
552.092	208.64
552.518	208.79
552.943	208.97
553.369	209.25
553.795	209.3
554.221	209.17
554.646	209.09
555.072	208.77
555.498	208.39
555.923	208.13
556.349	207.81
556.774	207.59
557.199	207.26
557.625	206.94
558.05	206.4
558.475	205.86
558.9	205.42
559.325	204.91
559.75	204.42
560.175	203.85
560.6	203.14
561.025	202.25
561.449	201.33
561.874	200.28
562.299	199.29
562.723	198.32
563.148	197.21
563.572	196.02
563.997	194.79
564.421	193.41
564.846	192.08
565.27	190.75
565.694	189.47
566.118	187.95
566.542	186.61
566.966	185.16
567.39	183.7
567.814	182.44
568.238	181.36
568.662	180.4
569.086	179.59
569.509	178.98
569.933	178.39
570.357	177.98
570.78	177.71
571.204	177.46
571.627	177.41
572.05	177.59
572.474	177.7
572.897	177.93
573.32	178.16
573.743	178.5
574.166	178.66
574.589	178.93
575.012	179.36
575.435	179.94
575.858	180.52
576.281	181.13
576.704	181.66
577.126	182.25
577.549	182.78
577.972	183.54
578.394	184.18
578.817	184.86
579.239	185.69
579.661	186.32
580.084	186.87
580.506	187.48
580.928	187.98
581.35	188.57
581.772	189.03
582.194	189.45
582.616	189.72
583.038	190.19
583.46	190.58
583.882	190.68
584.303	190.74
584.725	190.75
585.147	190.56
585.568	190.47
585.99	190.33
586.411	190.43
586.833	190.42
587.254	190.43
587.675	190.33
588.096	190.4
588.518	190.48
588.939	190.63
589.36	190.79
589.781	190.96
590.202	190.95
590.623	190.93
591.043	190.56
591.464	190.23
591.885	189.87
592.305	189.47
592.726	188.82
593.147	188.11
593.567	187.31
593.987	186.41
594.408	185.55
594.828	184.64
595.248	183.59
595.669	182.45
596.089	181.25
596.509	180.01
596.929	178.64
597.349	177.3
597.769	175.99
598.189	174.7
598.608	173.56
599.028	172.38
599.448	171.36
599.867	170.36
600.287	169.57
600.706	168.62
601.126	167.73
601.545	167.01
601.965	166.43
602.384	165.92
602.803	165.42
603.222	164.89
603.641	164.48
604.061	164.06
604.48	163.63
604.898	163.3
605.317	163.12
605.736	162.9
606.155	162.68
606.574	162.46
606.992	162.33
607.411	162.2
607.829	162.17
608.248	162.17
608.666	162.13
609.085	162.11
609.503	161.93
609.921	161.96
610.339	161.99
610.758	162.03
611.176	162
611.594	161.94
612.012	161.87
612.43	161.73
612.847	161.61
613.265	161.53
613.683	161.56
614.101	161.6
614.518	161.62
614.936	161.62
615.353	161.63
615.771	161.71
616.188	161.83
616.606	161.92
617.023	162.11
617.44	162.18
617.857	162.14
618.274	162.12
618.691	162.1
619.108	162.02
619.525	161.98
619.942	161.84
620.359	161.64
620.776	161.39
621.192	161.16
621.609	160.95
622.026	160.74
622.442	160.76
622.859	160.55
623.275	160.43
623.691	160.23
624.108	160.12
624.524	160.02
624.94	159.97
625.356	159.86
625.772	159.88
626.188	159.9
626.604	159.91
627.02	159.82
627.436	159.85
627.852	159.88
628.268	159.98
628.683	160.14
629.099	160.39
629.514	160.56
629.93	160.81
630.345	161.09
630.761	161.32
631.176	161.57
631.591	161.79
632.007	162.12
632.422	162.44
632.837	162.73
633.252	162.95
633.667	163.16
634.082	163.42
634.497	163.76
634.911	163.94
635.326	164.08
635.741	164.26
636.155	164.39
636.57	164.5
636.984	164.58
637.399	164.64
637.813	164.72
638.228	164.7
638.642	164.8
639.056	164.74
639.47	164.82
639.884	164.95
640.298	165
640.712	165.08
641.126	165.12
641.54	165.2
641.954	165.18
642.368	165.11
642.781	165.11
643.195	164.98
643.609	164.96
644.022	164.86
644.436	164.67
644.849	164.52
645.262	164.21
645.676	164.01
646.089	163.97
646.502	163.97
646.915	164
647.328	164.03
647.741	164.08
648.154	164.15
648.567	164.2
648.98	164.37
649.393	164.54
649.805	164.87
650.218	165.09
650.631	164.93
651.043	164.7
651.456	164
651.868	163.02
652.28	161.98
652.693	161.04
653.105	160.37
653.517	159.89
653.929	159.56
654.341	159.39
654.753	159.31
655.165	159.42
655.577	159.69
655.989	160.53
656.401	161.5
656.813	162.64
657.224	163.64
657.636	164.45
658.047	165.06
658.459	165.46
658.87	165.66
659.282	165.83
659.693	165.97
660.104	166.06
660.515	166.03
660.926	166.26
661.338	166.28
661.749	166.27
662.159	166.24
662.57	166.09
662.981	166.06
663.392	166.02
663.803	165.92
664.213	165.91
664.624	165.94
665.035	165.87
665.445	165.72
665.855	165.62
666.266	165.51
666.676	165.32
667.086	165.19
667.497	165
667.907	164.85
668.317	164.77
668.727	164.59
669.137	164.38
669.547	164.28
669.956	164.14
670.366	164.08
670.776	163.94
671.186	163.9
671.595	163.85
672.005	163.86
672.414	163.87
672.824	163.81
673.233	163.86
673.642	163.88
674.052	163.99
674.461	164.12
674.87	164.19
675.279	164.39
675.688	164.49
676.097	164.65
676.506	164.8
676.915	164.97
677.323	165.26
677.732	165.56
678.141	165.9
678.549	166.21
678.958	166.53
679.366	166.84
679.775	167.09
680.183	167.33
680.592	167.57
681	167.89
681.408	168.1
681.816	168
682.224	167.2
682.632	165.56
683.04	163.09
683.448	160.68
683.856	158.58
684.264	156.77
684.671	155.03
685.079	153.43
685.487	151.9
685.894	150.76
686.302	150.05
686.709	150.19
687.116	151.43
687.524	153.66
687.931	156.06
688.338	158.3
688.745	160.43
689.152	162.61
689.559	164.69
689.966	166.57
690.373	168.29
690.78	169.85
691.187	171.35
691.593	172.64
692	173.88
692.407	175
692.813	176.12
693.22	177.03
693.626	178
694.032	178.88
694.439	179.84
694.845	180.65
695.251	181.4
695.657	182.04
696.063	182.69
696.469	183.08
696.875	183.35
697.281	183.58
697.687	183.91
698.093	184.08
698.498	184.41
698.904	184.8
699.31	185.27
699.715	185.85
700.12	186.42
700.526	187.08
700.931	187.82
701.337	188.64
701.742	189.42
702.147	190.19
702.552	190.99
702.957	191.76
703.362	192.49
703.767	193.16
704.172	193.78
704.577	194.35
704.981	194.89
705.386	195.38
705.791	195.96
706.195	196.41
706.6	196.9
707.004	197.43
707.408	197.82
707.813	198.23
708.217	198.49
708.621	198.81
709.025	199.18
709.43	199.48
709.834	199.82
710.237	200.05
710.641	200.38
711.045	200.56
711.449	200.75
711.853	200.86
712.256	200.72
712.66	200.37
713.064	199.63
713.467	198.5
713.87	197.13
714.274	195.57
714.677	193.73
715.08	191.84
715.484	190.07
715.887	188.32
716.29	186.98
716.693	186.19
717.096	186.27
717.499	187.01
717.901	188.21
718.304	189.71
718.707	191.31
719.109	193.02
719.512	194.54
719.915	195.9
720.317	197.14
720.719	198.12
721.122	198.65
721.524	198.75
721.926	198.61
722.328	198.35
722.731	198.03
723.133	197.8
723.535	197.72
723.937	197.85
724.338	197.98
724.74	198.11
725.142	198.13
725.544	198.47
725.945	198.71
726.347	198.97
726.748	199.1
727.15	199.36
727.551	199.82
727.952	200.39
728.354	201.18
728.755	202.17
729.156	203.3
729.557	204.66
729.958	205.8
730.359	206.86
730.76	207.72
731.161	208.66
731.562	209.46
731.962	210.09
732.363	210.54
732.763	210.93
733.164	211.18
733.564	211.33
733.965	211.21
734.365	210.98
734.766	210.81
735.166	210.58
735.566	210.41
735.966	210.41
736.366	210.3
736.766	210.22
737.166	210.03
737.566	209.8
737.966	209.63
738.365	209.64
738.765	209.79
739.165	209.91
739.564	210.22
739.964	210.37
740.363	210.44
740.763	210.57
741.162	210.76
741.561	211.09
741.96	211.43
742.36	211.71
742.759	211.83
743.158	211.92
743.557	212.1
743.955	212.17
744.354	212.24
744.753	212.32
745.152	212.28
745.55	212.21
745.949	211.9
746.348	211.64
746.746	211.31
747.144	210.99
747.543	210.61
747.941	210.21
748.339	209.86
748.737	209.59
749.136	209.18
749.534	208.85
749.932	208.55
750.33	208.21
750.727	207.78
751.125	207.38
751.523	206.95
751.921	206.52
752.318	206.06
752.716	205.41
753.113	204.8
753.511	204.19
753.908	203.57
754.305	202.6
754.703	200.78
755.1	196.94
755.497	190.07
755.894	180.13
756.291	168.08
756.688	155.36
757.085	143.36
757.482	132.31
757.878	121.86
758.275	111.41
758.672	100.81
759.068	91.07
759.465	83.6
759.861	79.94
760.258	80.12
760.654	83.33
761.05	88.16
761.447	93.22
761.843	98.18
762.239	103.45
762.635	109.75
763.031	117.34
763.427	125.68
763.822	134.31
764.218	142.78
764.614	150.87
765.01	158.36
765.405	165.05
765.801	171.14
766.196	176.48
766.592	180.98
766.987	184.5
767.382	187.2
767.778	189.27
768.173	190.92
768.568	192.06
768.963	192.93
769.358	193.57
769.753	194.2
770.148	194.48
770.542	194.51
770.937	194.44
771.332	194.42
771.726	194.34
772.121	194.31
772.515	194.24
772.91	194.17
773.304	193.89
773.699	193.54
774.093	193.11
774.487	192.9
774.881	192.69
775.275	192.48
775.669	192.12
776.063	191.69
776.457	191.13
776.851	190.57
777.245	190.14
777.638	189.82
778.032	189.54
778.425	189.24
778.819	188.74
779.212	188.15
779.606	187.53
779.999	187.06
780.392	186.57
780.786	186.06
781.179	185.66
781.572	185.06
781.965	184.48
782.358	183.72
782.751	183.02
783.143	182.36
783.536	181.9
783.929	181.35
784.322	180.57
784.714	179.8
785.107	179.01
785.499	178.12
785.891	177.25
786.284	176.2
786.676	175.34
787.068	174.32
787.46	173.3
787.852	172.23
788.245	171.16
788.636	170.11
789.028	169.08
789.42	167.98
789.812	166.9
790.204	165.82
790.595	164.91
790.987	164.08
791.378	163.34
791.77	162.62
792.161	161.83
792.553	161.15
792.944	160.61
793.335	160.07
793.726	159.56
794.117	159.09
794.508	158.59
794.899	157.98
795.29	157.15
795.681	156.25
796.072	155.41
796.463	154.53
796.853	153.69
797.244	152.76
797.634	151.77
798.025	150.8
798.415	149.68
798.806	148.63
799.196	147.66
799.586	146.8
799.976	145.87
800.366	144.95
800.756	143.98
801.146	142.95
801.536	142.04
801.926	141.22
802.316	140.37
802.706	139.62
803.095	138.73
803.485	137.87
803.874	136.87
804.264	136.04
804.653	134.98
805.043	133.95
805.432	132.85
805.821	131.63
806.21	130.42
806.599	129.28
806.988	127.94
807.377	126.72
807.766	125.41
808.155	124.11
808.544	122.64
808.933	121.19
809.321	119.65
809.71	118.03
810.098	116.27
810.487	114.37
810.875	112.28
811.264	110.24
811.652	108.04
812.04	105.76
812.428	103.57
812.816	101.53
813.204	99.58
813.592	97.78
813.98	96.04
814.368	94.51
814.756	93.09
815.144	91.81
815.531	90.77
815.919	89.96
816.306	89.52
816.694	89.21
817.081	88.86
817.469	88.5
817.856	87.99
818.243	87.15
818.63	86.11
819.017	85.05
819.404	84.17
819.791	83.42
820.178	82.79
820.565	82.02
820.952	81.19
821.339	80.42
821.725	79.7
822.112	79.23
822.498	79.1
822.885	79.12
823.271	79.07
823.657	78.76
824.044	78.21
824.43	77.51
824.816	76.69
825.202	75.86
825.588	75.02
825.974	74.21
826.36	73.34
826.746	72.51
827.132	71.66
827.517	70.94
827.903	70.3
828.289	69.71
828.674	69.11
829.06	68.54
829.445	67.97
829.83	67.46
830.216	66.99
830.601	66.59
830.986	66.15
831.371	65.83
831.756	65.44
832.141	65.15
832.526	64.87
832.911	64.62
833.295	64.41
833.68	64.2
834.065	63.91
834.449	63.57
834.834	63.2
835.218	62.91
835.603	62.57
835.987	62.28
836.371	61.94
836.755	61.58
837.139	61.22
837.524	60.83
837.908	60.44
838.291	60.09
838.675	59.77
839.059	59.41
839.443	59
839.827	58.58
840.21	58.19
840.594	57.77
840.977	57.4
841.361	57.03
841.744	56.7
842.127	56.33
842.511	55.95
842.894	55.61
843.277	55.29
843.66	54.99
844.043	54.71
844.426	54.38
844.809	54.01
845.191	53.54
845.574	52.97
845.957	52.39
846.339	51.88
846.722	51.48
847.104	51.02
847.487	50.6
847.869	50.15
848.252	49.73
848.634	49.35
849.016	48.93
849.398	48.43
849.78	47.9
850.162	47.3
850.544	46.7
850.926	46.13
851.307	45.66
851.689	45.22
852.071	44.86
852.452	44.5
852.834	44.17
853.215	43.95
853.597	43.92
853.978	44.03
854.359	44.23
854.741	44.39
855.122	44.47
855.503	44.49
855.884	44.43
856.265	44.31
856.646	44.15
857.026	43.96
857.407	43.73
857.788	43.53
858.169	43.31
858.549	43.09
858.93	42.86
859.31	42.62
859.69	42.36
860.071	42.1
860.451	41.85
860.831	41.59
861.211	41.25
861.591	40.82
861.971	40.28
862.351	39.74
862.731	39.19
863.111	38.72
863.491	38.29
863.87	37.91
864.25	37.54
864.629	37.16
865.009	36.82
865.388	36.61
865.768	36.53
866.147	36.57
866.526	36.61
866.905	36.66
867.284	36.63
867.663	36.57
868.042	36.5
868.421	36.43
868.8	36.37
869.179	36.3
869.558	36.18
869.936	36.02
870.315	35.88
870.693	35.73
871.072	35.56
871.45	35.41
871.828	35.26
872.207	35.12
872.585	34.96
872.963	34.79
873.341	34.68
873.719	34.57
874.097	34.46
874.475	34.32
874.853	34.19
875.23	34.06
875.608	33.92
875.986	33.75
876.363	33.57
876.741	33.42
877.118	33.24
877.495	33.06
877.873	32.89
878.25	32.71
878.627	32.53
879.004	32.41
879.381	32.28
879.758	32.14
880.135	32.03
880.512	31.92
880.889	31.81
881.265	31.74
881.642	31.6
882.019	31.46
882.395	31.3
882.772	31.15
883.148	30.96
883.524	30.8
883.901	30.63
884.277	30.48
884.653	30.33
885.029	30.17
885.405	30.02
885.781	29.86
886.157	29.73
886.532	29.62
886.908	29.51
887.284	29.42
887.659	29.29
888.035	29.18
888.411	29.01
888.786	28.82
889.161	28.65
889.537	28.47
889.912	28.28
890.287	28.07
890.662	27.83
891.037	27.55
891.412	27.24
891.787	26.93
892.162	26.57
892.536	26.26
892.911	25.92
893.286	25.57
893.66	25.19
894.035	24.83
894.409	24.43
894.784	24.03
895.158	23.64
895.532	23.26
895.906	22.92
896.281	22.61
896.655	22.28
897.029	21.98
897.402	21.69
897.776	21.46
898.15	21.24
898.524	21.09
898.898	21.02
899.271	21.03
899.645	21.09
900.018	21.15
900.392	21.28
900.765	21.48
901.138	21.65
901.511	21.86
901.884	22.03
902.258	22.2
902.631	22.35
903.003	22.43
903.376	22.44
903.749	22.36
904.122	22.26
904.495	22.08
904.867	21.85
905.24	21.61
905.612	21.36
905.985	21.12
906.357	20.87
906.729	20.63
907.102	20.43
907.474	20.28
907.846	20.17
908.218	20.09
908.59	20.03
908.962	19.97
909.334	19.92
909.705	19.87
910.077	19.82
910.449	19.8
910.82	19.78
911.192	19.73
911.563	19.66
911.935	19.56
912.306	19.49
912.677	19.44
913.048	19.35
913.419	19.28
913.79	19.23
914.161	19.19
914.532	19.17
914.903	19.13
915.274	19.12
915.645	19.16
916.015	19.25
916.386	19.27
916.756	19.31
917.127	19.4
917.497	19.52
917.868	19.61
918.238	19.69
918.608	19.74
918.978	19.78
919.348	19.83
919.718	19.83
920.088	19.81
920.458	19.82
920.828	19.78
921.198	19.73
921.567	19.63
921.937	19.58
922.306	19.54
922.676	19.45
923.045	19.4
923.415	19.35
923.784	19.28
924.153	19.2
924.522	19.09
924.891	18.96
925.26	18.84
925.629	18.68
925.998	18.48
926.367	18.19
926.736	17.93
927.104	17.62
927.473	17.26
927.842	16.86
928.21	16.43
928.578	15.95
928.947	15.52
929.315	15.03
929.683	14.56
930.051	14.07
930.42	13.58
930.788	13.11
931.156	12.67
931.523	12.24
931.891	11.9
932.259	11.62
932.627	11.36
932.994	11.17
933.362	11.03
933.729	10.89
934.097	10.89
934.464	10.94
934.831	11.03
935.199	11.21
935.566	11.51
935.933	11.81
936.3	12.17
936.667	12.59
937.034	12.98
937.401	13.42
937.767	14.02
938.134	14.5
938.501	15.06
938.867	15.63
939.234	16.13
939.6	16.5
939.967	16.84
940.333	17.12
940.699	17.38
941.065	17.55
941.431	17.63
941.798	17.67
942.163	17.78
942.529	17.76
942.895	17.66
943.261	17.53
943.627	17.5
943.992	17.44
944.358	17.36
944.723	17.27
945.089	17.2
945.454	17.24
945.82	17.16
946.185	17.05
946.55	16.98
946.915	16.93
947.28	16.89
947.645	16.79
948.01	16.73
948.375	16.68
948.74	16.65
949.104	16.58
949.469	16.39
949.834	16.25
950.198	16.13
950.562	16.08
950.927	15.96
951.291	15.9
951.655	15.77
952.02	15.6
952.384	15.47
952.748	15.26
953.112	15.14
953.476	15.08
953.839	14.99
954.203	14.89
954.567	14.76
954.931	14.73
955.294	14.63
955.658	14.6
956.021	14.57
956.385	14.53
956.748	14.54
957.111	14.52
957.474	14.53
957.837	14.55
958.2	14.58
958.563	14.57
958.926	14.52
959.289	14.51
959.652	14.51
960.015	14.52
960.377	14.56
960.74	14.54
961.102	14.53
961.465	14.54
961.827	14.53
962.189	14.55
962.552	14.58
962.914	14.6
963.276	14.62
963.638	14.63
964	14.68
964.362	14.78
964.724	14.9
965.085	14.97
965.447	15.02
965.809	15.1
966.17	15.19
966.532	15.32
966.893	15.48
967.255	15.68
967.616	15.85
967.977	15.97
968.338	16.04
968.699	16.15
969.061	16.33
969.421	16.44
969.782	16.56
970.143	16.64
970.504	16.74
970.865	16.75
971.225	16.75
971.586	16.77
971.946	16.76
972.307	16.75
972.667	16.72
973.027	16.72
973.388	16.7
973.748	16.67
974.108	16.67
974.468	16.56
974.828	16.62
975.188	16.57
975.548	16.58
975.907	16.64
976.267	16.7
976.627	16.7
976.986	16.69
977.346	16.77
977.705	16.81
978.064	16.84
978.424	16.98
978.783	16.97
979.142	17.08
979.501	17.15
979.86	17.21
980.219	17.23
980.578	17.36
980.937	17.48
981.296	17.52
981.654	17.67
982.013	17.86
982.371	17.93
982.73	18.07
983.088	18.16
983.447	18.34
983.805	18.49
984.163	18.61
984.521	18.64
984.879	18.74
985.237	18.92
985.595	18.99
985.953	19.04
986.311	19.16
986.669	19.22
987.026	19.28
987.384	19.26
987.741	19.31
988.099	19.38
988.456	19.57
988.814	19.68
989.171	19.74
989.528	19.76
989.885	19.78
990.242	19.8
990.599	19.96
990.956	20.08
991.313	20.12
991.67	20.31
992.027	20.49
992.383	20.61
992.74	20.67
993.096	20.66
993.453	20.84
993.809	20.98
994.165	21.2
994.522	21.22
994.878	21.37
995.234	21.49
995.59	21.34
995.946	21.3
996.302	21.33
996.658	21.46
997.013	21.58
997.369	21.66
997.725	21.84
998.08	21.83
998.436	22.09
998.791	22.1
999.147	22.19
999.502	22.41
999.857	22.59
1000.212	22.68
1000.567	22.76
1000.922	22.81
1001.277	22.94
1001.632	23.13
1001.987	23.28
1002.342	23.32
1002.696	23.49
1003.051	23.67
1003.406	23.78
1003.76	23.98
1004.114	24
1004.469	24.09
1004.823	24.38
1005.177	24.59
1005.531	24.61
1005.885	24.78
1006.239	24.82
1006.593	24.89
1006.947	24.98
1007.301	25.18
1007.655	25.43
1008.008	25.67
1008.362	25.83
1008.715	26.02
1009.069	26.06
1009.422	26.2
1009.776	26.39
1010.129	26.55
1010.482	27.07
1010.835	27.38
1011.188	27.46
1011.541	27.39
1011.894	27.58
1012.247	27.82
1012.6	28.06
1012.952	28.33
1013.305	28.43
1013.657	28.76
1014.01	29.09
1014.362	29.29
1014.715	29.49
1015.067	29.97
1015.419	30.35
1015.771	30.9
1016.123	31.08
1016.475	31.3
1016.827	31.83
1017.179	32.19
1017.531	32.26
1017.883	32.76
1018.234	32.79
1018.586	32.89
1018.938	32.94
1019.289	32.94
1019.64	33.13
1019.992	33.58
1020.343	33.9
1020.694	33.59
1021.045	33.97
1021.396	34.33
1021.747	34.39
1022.098	34.85
1022.449	35.41
1022.8	36.03
1023.151	36.95
1023.501	37.34
1023.852	37.63
1024.202	37.79
1024.553	38.54
1024.903	38.94
1025.253	39.41
1025.604	40.22
1025.954	40.26
1026.304	40.89
1026.654	41.37
1027.004	41.53
1027.354	41.7
1027.703	41.96
1028.053	42.56
1028.403	42.75
1028.753	43.71
1029.102	44.29
1029.452	44.46
1029.801	45.26
1030.15	45.3
1030.499	45.37
897.758	661.66
901.051	675.53
904.343	681.56
907.636	671.08
910.928	660.94
914.22	672.89
917.511	659.45
920.803	631.05
924.094	606.66
927.384	610.28
930.675	594.99
933.965	588.05
937.255	586
940.544	560.5
943.834	534.61
947.123	525.29
950.411	495.98
953.7	488.92
956.988	473.42
960.276	452.76
963.563	446.88
966.851	421.43
970.138	414.27
973.424	386.35
976.711	382.29
979.997	368.16
983.283	360.37
986.568	349.07
989.853	340.5
993.138	329.83
996.423	323.61
999.708	312.83
1002.992	315.91
1006.275	305.79
1009.559	302.87
1012.842	294.52
1016.125	286.19
1019.408	281.29
1022.69	278.28
1025.972	275.66
1029.254	267.97
1032.536	263.23
1035.817	257
1039.098	251.42
1042.379	246.18
1045.659	243.12
1048.939	240.41
1052.219	234.64
1055.498	230.14
1058.778	226.99
1062.057	222.98
1065.335	221.76
1068.614	218.52
1071.892	215.66
1075.17	211.48
1078.447	208.74
1081.724	206.76
1085.001	201.66
1088.278	203.76
1091.554	202.52
1094.83	200.77
1098.106	196.91
1101.382	196.45
1104.657	195.65
1107.932	194.44
1111.206	193.27
1114.481	191.27
1117.755	190.26
1121.029	190.72
1124.302	187.67
1127.575	183.89
1130.848	183.66
1134.121	182
1137.393	181.46
1140.665	180.08
1143.937	178.16
1147.208	176.36
1150.48	174.97
1153.75	173.78
1157.021	172.68
1160.291	171.7
1163.561	172.33
1166.831	169.64
1170.101	168.78
1173.37	167.46
1176.639	165.87
1179.907	166.43
1183.176	166.46
1186.444	166.19
1189.711	165.24
1192.979	165.85
1196.246	165.42
1199.513	165.28
1202.78	166.49
1206.046	166.96
1209.312	167.33
1212.578	168.5
1215.843	169.43
1219.108	170.22
1222.373	173.34
1225.638	176.43
1228.902	179.69
1232.166	186.26
1235.43	188.94
1238.693	192.34
1241.956	197.42
1245.219	202.66
1248.482	203.58
1251.744	203.6
1255.006	203.88
1258.268	199.26
1261.529	196.79
1264.79	191.82
1268.051	188.33
1271.312	186.84
1274.572	184.54
1277.832	178.41
1281.092	176.12
1284.351	172.95
1287.61	172.73
1290.869	172.26
1294.128	171.73
1297.386	170
1300.644	169.49
1303.902	168.35
1307.159	166.83
1310.416	167.06
1313.673	170.05
1316.93	171.37
1320.186	174.2
1323.442	176.31
1326.697	179.83
1329.953	181.11
1333.208	188.02
1336.463	195.71
1339.717	199.07
1342.972	208.9
1346.226	214.98
1349.479	216.35
1352.733	225.13
1355.986	231.08
1359.238	235.51
1362.491	237.07
1365.743	246.45
1368.995	246.3
1372.247	246.14
1375.498	245.22
1378.749	253.73
1382	253.75
1385.251	252.31
1388.501	253.2
1391.751	254.88
1395	251.68
1398.25	255.51
1401.499	253.87
1404.748	255.84
1407.996	248.76
1411.244	249.4
1414.492	244.78
1417.74	237.93
1420.987	232.52
1424.234	227.51
1427.481	217.37
1430.728	213.84
1433.974	204.43
1437.22	197.05
1440.465	191.45
1443.711	185.71
1446.956	180.02
1450.201	172.93
1453.445	164.71
1456.689	160.38
1459.933	154.39
1463.177	149.2
1466.42	146.82
1469.663	143.02
1472.906	139.57
1476.148	134.02
1479.391	131.4
1482.633	128.58
1485.874	126.48
1489.115	126.04
1492.356	124.1
1495.597	122.19
1498.838	121.63
1502.078	119.64
1505.318	119.15
1508.557	118.38
1511.797	118.02
1515.036	117.6
1518.274	117.46
1521.513	115.39
1524.751	114.52
1527.989	115.34
1531.227	115.27
1534.464	114.64
1537.701	113.79
1540.938	112.83
1544.174	113.03
1547.41	112.09
1550.646	112.66
1553.882	112.32
1557.117	112.67
1560.352	112.15
1563.587	110.73
1566.821	110.69
1570.055	109.99
1573.289	109.85
1576.523	110.24
1579.756	109.56
1582.989	110.39
1586.222	109.36
1589.454	109.51
1592.686	109.13
1595.918	109.35
1599.15	109.42
1602.381	109.54
1605.612	109.85
1608.843	109.85
1612.073	109.84
1615.303	110.33
1618.533	109.64
1621.762	110.49
1624.992	110.04
1628.221	110.06
1631.449	110.39
1634.678	110.32
1637.906	110.5
1641.134	110.8
1644.361	110.72
1647.588	110.73
1650.815	110.65
1654.042	110.86
1657.269	110.12
1660.495	110.9
1663.72	111.28
1666.946	111.22
1670.171	111.88
1673.396	112.62
1676.621	112.32
1679.845	112.88
1683.069	113.03
1686.293	112.92
1689.517	113.27
1692.74	113.59
1695.963	113.86
1699.185	114.38
1702.408	114.25
1705.63	114.44
1708.852	114.42
1712.073	114.67
1715.294	114.51
1718.515	115.13
1721.736	115.4
1724.956	115.54
1728.176	115.64
1731.396	115.82
1734.616	115.46
1737.835	116.07
1741.054	115.61
1744.272	115.6
1747.491	116.03
1750.709	116.98
1753.927	116.86
1757.144	117.38
1760.361	117.86
1763.578	118.56
1766.795	118.81
1770.011	119.02
1773.227	119.12
1776.443	120.45
1779.658	120.73
1782.874	120.79
1786.089	120.33
1789.303	120.79
1792.518	121.7
1795.732	122.32
1798.945	122.74
1802.159	123.4
1805.372	125.22
1808.585	126.72
1811.797	127.13
1815.01	128.45
1818.222	130.18
1821.434	131.25
1824.645	132.34
1827.856	133.95
1831.067	135.19
1834.278	136.15
1837.488	137.23
1840.698	138.36
1843.908	138.5
1847.117	140.57
1850.326	141.47
1853.535	140.97
1856.744	143.12
1859.952	144.45
1863.16	144.76
1866.368	142.92
1869.575	144.74
1872.782	144.1
1875.989	143.23
1879.196	142.57
1882.402	140.79
1885.608	140.83
1888.814	141.34
1892.019	141.89
1895.224	139.58
1898.429	138.87
1901.634	140.93
1904.838	140.72
1908.042	141.6
1911.246	142.07
1914.449	142.84
1917.652	142.35
1920.855	143.61
1924.058	141.59
1927.26	141.18
1930.462	142.51
1933.664	143.29
1936.865	143.64
1940.066	140.72
1943.267	139.78
1946.467	140.64
1949.668	140.8
1952.868	141.75
1956.067	140.51
1959.267	142.15
1962.466	141.93
1965.665	143.72
1968.863	143.79
1972.061	144.28
1975.259	149.07
1978.457	150.42
1981.654	150.43
1984.852	152.57
1988.048	154.24
1991.245	156.62
1994.441	159.73
1997.637	163.81
2000.833	165.64
2004.028	168.35
2007.223	173.8
2010.418	175.51
2013.613	182.34
2016.807	187.38
2020.001	190.69
2023.194	196.47
2026.388	203.21
2029.581	213.78
2032.774	219.22
2035.966	225.42
2039.158	231.36
2042.35	235.01
2045.542	240.97
2048.733	250.96
2051.924	254.74
2055.115	256.2
2058.306	258.66
2061.496	264.02
2064.686	263.67
2067.875	261.1
2071.065	263.49
2074.254	263.78
2077.442	271.27
2080.631	274.25
2083.819	274.51
2087.007	278.87
2090.195	286.03
2093.382	286.89
2096.569	286.21
2099.756	290.27
2102.942	298.04
2106.128	305.76
2109.314	309.43
2112.5	308.55
2115.685	305.49
2118.87	306.09
2122.055	307.8
2125.239	313.19
2128.424	319.18
2131.608	318.24
2134.791	320.21
2137.974	320.22
2141.157	322.27
2144.34	324.03
2147.523	332.58
2150.705	342.32
2153.887	336.84
2157.068	339.92
2160.25	344.52
2163.431	343.57
2166.611	349.3
2169.792	354.69
2172.972	361.85
2176.152	358.19
2179.331	366.29
2182.511	364.89
2185.69	369.8
2188.868	387.89
2192.047	397.47
2195.225	401.1
2198.403	406.47
2201.58	400.9
2204.758	414.56
2207.935	416.26
2211.111	430.15
2214.288	431.87
2217.464	436.32
2220.64	436.96
2223.815	438.62
2226.991	429.43
2230.166	435.17
2233.34	449.65
2236.515	465.45
2239.689	456.18
2242.863	464.46
2246.036	459.36
2249.209	472.52
2252.382	470.79
2255.555	487.91
2258.727	488.95
2261.9	510.05
2265.071	514.62
2268.243	510.1
2271.414	521.91
2274.585	534.43
2277.756	534.66
2280.926	559.48
2284.096	555.73
2287.266	561.79
2290.436	552.36
2293.605	564.19
2296.774	582.6
2299.942	579.59
2303.111	597.94
2306.279	612.5
2309.447	613.49
2312.614	615.43
2315.781	625.82
2318.948	630.95
2322.115	640.44
2325.281	672.26
2328.447	670.1
2331.613	673.17
2334.779	685.55
2337.944	698.32
2341.109	708.01
2344.274	717.51
2347.438	738.92
2350.602	750.31
2353.766	804.35
2356.929	808.1
2360.092	813.09
2363.255	818.23
2366.418	827.79
2369.58	843.03
2372.742	843.05
2375.904	839.69
2379.066	866.34
2382.227	909.42
2385.388	911.55
2388.548	859.11
2391.709	851.88
2394.869	886.69
2398.029	886.66
2401.188	886.54
2404.347	918.03
2407.506	941.49
2410.665	906.84
2413.823	907.9
2416.981	909.78
2420.139	861.16
2423.296	939.01
2426.453	998.11
2429.61	950.8
2432.767	1018.63
2435.923	1048.91
2439.079	1014.34
2442.235	1047.13
2445.391	1075.23
2448.546	1069.01
2451.701	1129.54
2454.855	1208.99
2458.009	1068.72
2461.163	1078.55
2464.317	1095.85
2467.471	1068.17
2470.624	1105.83
2473.777	1088.92
2476.929	1043.79
2480.082	1116.66
2483.234	1172.34
2486.385	1192.5
2489.537	1220.95
2492.688	1339.26
2495.839	1321.86
2498.989	1355.51
2502.14	1370.71
2505.29	1308.93
2508.439	1443.84
2511.589	1484.88
2514.738	1435.8
2517.887	1420.14
2521.035	1328.41
2524.183	1310.97
2527.331	1294.65
2530.479	1269.69
2533.627	1298.57
