Data from C_3_dec_oh_4n_Splice17_05.txt Node
Date: Sat Feb 29 15:04:37 EST 2020
User: sa697716
Spectrometer: FLMS03696
Trigger mode: 0
Integration Time (sec): 3.180400E-1
Scans to average: 20
Electric dark correction enabled: true
Nonlinearity correction enabled: true
Boxcar width: 5
XAxis mode: Wavelengths
Number of Pixels in Spectrum: 2048
>>>>>Begin Spectral Data<<<<<
187.83	45.12
188.298	37.16
188.766	32.27
189.233	23.3
189.701	30.01
190.169	41.23
190.636	55.34
191.104	64.72
191.571	318.11
192.039	131.51
192.506	131.42
192.974	6580.3
193.441	-241.69
193.908	79.61
194.375	24.42
194.842	5.35
195.31	82.59
195.777	134.04
196.244	105.42
196.711	105.55
197.177	103.84
197.644	102.52
198.111	103.79
198.578	105.26
199.045	105.2
199.511	106.33
199.978	107.08
200.445	106.09
200.911	106.25
201.378	106.34
201.844	107.18
202.31	107.66
202.777	108.1
203.243	108.28
203.709	107.65
204.176	107.58
204.642	106.88
205.108	106.07
205.574	106.63
206.04	105.79
206.506	105.48
206.972	104.55
207.438	103.54
207.903	102.31
208.369	100.24
208.835	99.41
209.301	98.24
209.766	96.4
210.232	94.66
210.697	92.73
211.163	90.95
211.628	88.9
212.094	86.95
212.559	85.29
213.024	83.98
213.49	82.43
213.955	80.34
214.42	77.57
214.885	74.84
215.35	72.01
215.815	68.2
216.28	64.08
216.745	59.75
217.21	54.95
217.675	50.44
218.14	46.2
218.604	42.55
219.069	39.47
219.534	36.97
219.998	34.85
220.463	33.1
220.927	31.55
221.392	30.29
221.856	29.1
222.32	28.19
222.785	27.32
223.249	26.58
223.713	25.92
224.177	25.31
224.642	24.78
225.106	24.25
225.57	23.7
226.034	23.22
226.497	22.74
226.961	22.3
227.425	21.85
227.889	21.47
228.353	21.08
228.816	20.71
229.28	20.31
229.744	19.95
230.207	19.62
230.671	19.3
231.134	19
231.597	18.69
232.061	18.39
232.524	18.14
232.987	17.85
233.45	17.57
233.914	17.31
234.377	17.09
234.84	16.85
235.303	16.62
235.766	16.4
236.229	16.18
236.691	16
237.154	15.82
237.617	15.63
238.08	15.48
238.542	15.32
239.005	15.16
239.468	15
239.93	14.85
240.393	14.69
240.855	14.53
241.317	14.38
241.78	14.23
242.242	14.07
242.704	13.92
243.166	13.76
243.629	13.61
244.091	13.46
244.553	13.32
245.015	13.17
245.477	13.04
245.939	12.89
246.4	12.76
246.862	12.62
247.324	12.5
247.786	12.37
248.247	12.24
248.709	12.13
249.17	12
249.632	11.87
250.093	11.74
250.555	11.64
251.016	11.54
251.477	11.42
251.939	11.32
252.4	11.23
252.861	11.13
253.322	11.04
253.783	10.96
254.244	10.87
254.705	10.8
255.166	10.74
255.627	10.66
256.088	10.58
256.549	10.5
257.009	10.42
257.47	10.33
257.931	10.24
258.391	10.14
258.852	10.04
259.312	9.95
259.773	9.84
260.233	9.75
260.694	9.67
261.154	9.58
261.614	9.5
262.074	9.41
262.534	9.33
262.994	9.26
263.455	9.19
263.915	9.13
264.374	9.05
264.834	8.99
265.294	8.93
265.754	8.86
266.214	8.8
266.673	8.75
267.133	8.7
267.593	8.65
268.052	8.61
268.512	8.57
268.971	8.53
269.431	8.5
269.89	8.46
270.349	8.43
270.809	8.39
271.268	8.37
271.727	8.33
272.186	8.3
272.645	8.26
273.104	8.23
273.563	8.19
274.022	8.15
274.481	8.12
274.94	8.08
275.399	8.05
275.857	8.02
276.316	7.98
276.775	7.95
277.233	7.92
277.692	7.9
278.15	7.88
278.609	7.85
279.067	7.82
279.525	7.8
279.984	7.77
280.442	7.76
280.9	7.73
281.358	7.72
281.816	7.7
282.274	7.68
282.732	7.67
283.19	7.66
283.648	7.65
284.106	7.64
284.564	7.63
285.021	7.62
285.479	7.6
285.937	7.6
286.394	7.58
286.852	7.56
287.309	7.54
287.767	7.5
288.224	7.47
288.682	7.43
289.139	7.4
289.596	7.35
290.053	7.3
290.511	7.25
290.968	7.21
291.425	7.16
291.882	7.12
292.339	7.08
292.796	7.04
293.252	7
293.709	6.96
294.166	6.93
294.623	6.9
295.079	6.87
295.536	6.85
295.992	6.82
296.449	6.79
296.905	6.77
297.362	6.74
297.818	6.72
298.274	6.69
298.731	6.67
299.187	6.65
299.643	6.63
300.099	6.61
300.555	6.59
301.011	6.58
301.467	6.56
301.923	6.54
302.379	6.53
302.835	6.52
303.291	6.51
303.746	6.49
304.202	6.48
304.658	6.47
305.113	6.45
305.569	6.46
306.024	6.44
306.479	6.43
306.935	6.43
307.39	6.43
307.845	6.42
308.301	6.43
308.756	6.43
309.211	6.44
309.666	6.44
310.121	6.44
310.576	6.43
311.031	6.44
311.486	6.44
311.94	6.43
312.395	6.43
312.85	6.43
313.305	6.42
313.759	6.42
314.214	6.41
314.668	6.41
315.123	6.42
315.577	6.4
316.032	6.39
316.486	6.38
316.94	6.37
317.394	6.35
317.849	6.32
318.303	6.31
318.757	6.28
319.211	6.25
319.665	6.23
320.119	6.2
320.572	6.19
321.026	6.17
321.48	6.16
321.934	6.14
322.387	6.12
322.841	6.11
323.295	6.09
323.748	6.08
324.202	6.07
324.655	6.06
325.108	6.04
325.562	6.01
326.015	6.01
326.468	5.98
326.921	5.97
327.374	5.97
327.827	5.95
328.28	5.93
328.733	5.92
329.186	5.92
329.639	5.91
330.092	5.91
330.545	5.92
330.997	5.91
331.45	5.91
331.903	5.92
332.355	5.9
332.808	5.91
333.26	5.93
333.713	5.93
334.165	5.93
334.617	5.94
335.069	5.95
335.522	5.96
335.974	5.97
336.426	5.97
336.878	5.97
337.33	5.98
337.782	5.98
338.234	5.97
338.686	5.97
339.137	5.97
339.589	5.96
340.041	5.95
340.493	5.92
340.944	5.9
341.396	5.88
341.847	5.87
342.299	5.85
342.75	5.81
343.201	5.78
343.653	5.76
344.104	5.73
344.555	5.7
345.006	5.66
345.457	5.65
345.908	5.63
346.359	5.61
346.81	5.58
347.261	5.57
347.712	5.57
348.163	5.56
348.613	5.55
349.064	5.53
349.515	5.52
349.965	5.52
350.416	5.51
350.866	5.51
351.317	5.51
351.767	5.51
352.217	5.5
352.668	5.51
353.118	5.51
353.568	5.52
354.018	5.53
354.468	5.53
354.918	5.54
355.368	5.55
355.818	5.54
356.268	5.54
356.718	5.55
357.168	5.54
357.617	5.53
358.067	5.53
358.517	5.52
358.966	5.51
359.416	5.51
359.865	5.5
360.315	5.5
360.764	5.5
361.213	5.49
361.663	5.48
362.112	5.48
362.561	5.48
363.01	5.49
363.459	5.48
363.908	5.48
364.357	5.48
364.806	5.49
365.255	5.49
365.703	5.48
366.152	5.5
366.601	5.51
367.05	5.51
367.498	5.51
367.947	5.51
368.395	5.52
368.844	5.52
369.292	5.51
369.74	5.5
370.189	5.5
370.637	5.5
371.085	5.49
371.533	5.48
371.981	5.49
372.429	5.48
372.877	5.48
373.325	5.47
373.773	5.47
374.221	5.47
374.669	5.46
375.116	5.46
375.564	5.45
376.012	5.46
376.459	5.46
376.907	5.46
377.354	5.46
377.801	5.46
378.249	5.47
378.696	5.48
379.143	5.49
379.591	5.51
380.038	5.53
380.485	5.54
380.932	5.53
381.379	5.54
381.826	5.56
382.273	5.57
382.72	5.57
383.166	5.58
383.613	5.58
384.06	5.6
384.506	5.6
384.953	5.61
385.4	5.61
385.846	5.64
386.292	5.66
386.739	5.66
387.185	5.7
387.631	5.71
388.078	5.73
388.524	5.73
388.97	5.74
389.416	5.75
389.862	5.78
390.308	5.82
390.754	5.84
391.2	5.86
391.645	5.88
392.091	5.9
392.537	5.93
392.983	5.97
393.428	6.03
393.874	6.08
394.319	6.12
394.765	6.13
395.21	6.15
395.655	6.18
396.101	6.21
396.546	6.24
396.991	6.26
397.436	6.27
397.881	6.3
398.326	6.33
398.771	6.37
399.216	6.41
399.661	6.45
400.106	6.49
400.551	6.5
400.995	6.51
401.44	6.51
401.885	6.53
402.329	6.55
402.774	6.55
403.218	6.55
403.663	6.55
404.107	6.57
404.551	6.58
404.995	6.58
405.44	6.6
405.884	6.63
406.328	6.65
406.772	6.67
407.216	6.69
407.66	6.71
408.104	6.73
408.547	6.74
408.991	6.73
409.435	6.75
409.879	6.76
410.322	6.79
410.766	6.81
411.209	6.83
411.653	6.84
412.096	6.87
412.54	6.89
412.983	6.91
413.426	6.95
413.869	6.99
414.312	7.03
414.756	7.08
415.199	7.11
415.642	7.14
416.085	7.18
416.527	7.22
416.97	7.23
417.413	7.23
417.856	7.22
418.298	7.2
418.741	7.19
419.184	7.16
419.626	7.14
420.069	7.13
420.511	7.14
420.953	7.13
421.396	7.13
421.838	7.15
422.28	7.16
422.722	7.19
423.164	7.23
423.606	7.26
424.048	7.27
424.49	7.31
424.932	7.3
425.374	7.27
425.816	7.25
426.258	7.24
426.699	7.2
427.141	7.18
427.582	7.17
428.024	7.18
428.465	7.19
428.907	7.23
429.348	7.23
429.789	7.27
430.231	7.29
430.672	7.33
431.113	7.38
431.554	7.43
431.995	7.47
432.436	7.49
432.877	7.49
433.318	7.5
433.759	7.52
434.2	7.53
434.64	7.55
435.081	7.58
435.522	7.63
435.962	7.67
436.403	7.71
436.843	7.73
437.284	7.77
437.724	7.8
438.164	7.82
438.604	7.83
439.045	7.85
439.485	7.87
439.925	7.88
440.365	7.87
440.805	7.86
441.245	7.86
441.685	7.9
442.125	7.93
442.564	7.95
443.004	7.98
443.444	8.03
443.883	8.08
444.323	8.11
444.762	8.16
445.202	8.22
445.641	8.27
446.081	8.35
446.52	8.36
446.959	8.42
447.398	8.49
447.837	8.54
448.276	8.56
448.716	8.58
449.154	8.64
449.593	8.65
450.032	8.66
450.471	8.67
450.91	8.65
451.349	8.66
451.787	8.65
452.226	8.61
452.664	8.59
453.103	8.56
453.541	8.53
453.98	8.51
454.418	8.48
454.856	8.44
455.295	8.42
455.733	8.4
456.171	8.38
456.609	8.37
457.047	8.34
457.485	8.32
457.923	8.33
458.361	8.3
458.798	8.3
459.236	8.29
459.674	8.29
460.111	8.29
460.549	8.27
460.987	8.26
461.424	8.23
461.862	8.22
462.299	8.22
462.736	8.2
463.173	8.22
463.611	8.21
464.048	8.23
464.485	8.22
464.922	8.21
465.359	8.23
465.796	8.22
466.233	8.24
466.67	8.26
467.106	8.25
467.543	8.27
467.98	8.27
468.416	8.27
468.853	8.28
469.29	8.29
469.726	8.32
470.162	8.32
470.599	8.34
471.035	8.33
471.471	8.32
471.907	8.32
472.344	8.33
472.78	8.32
473.216	8.33
473.652	8.32
474.088	8.33
474.523	8.3
474.959	8.29
475.395	8.27
475.831	8.28
476.266	8.28
476.702	8.27
477.138	8.24
477.573	8.23
478.008	8.21
478.444	8.19
478.879	8.16
479.314	8.14
479.75	8.12
480.185	8.1
480.62	8.08
481.055	8.07
481.49	8.04
481.925	8.02
482.36	7.99
482.795	7.97
483.229	7.97
483.664	7.95
484.099	7.95
484.534	7.94
484.968	7.94
485.403	7.91
485.837	7.89
486.271	7.89
486.706	7.9
487.14	7.91
487.574	7.93
488.009	7.94
488.443	7.94
488.877	7.95
489.311	7.97
489.745	7.99
490.179	8.02
490.613	8.05
491.046	8.1
491.48	8.14
491.914	8.17
492.348	8.2
492.781	8.23
493.215	8.28
493.648	8.33
494.082	8.4
494.515	8.45
494.948	8.51
495.382	8.57
495.815	8.63
496.248	8.71
496.681	8.79
497.114	8.87
497.547	8.96
497.98	9.05
498.413	9.14
498.846	9.24
499.279	9.36
499.711	9.46
500.144	9.58
500.577	9.7
501.009	9.83
501.442	9.98
501.874	10.11
502.306	10.27
502.739	10.44
503.171	10.61
503.603	10.78
504.036	10.98
504.468	11.19
504.9	11.4
505.332	11.62
505.764	11.85
506.196	12.08
506.627	12.33
507.059	12.61
507.491	12.87
507.923	13.15
508.354	13.45
508.786	13.75
509.217	14.05
509.649	14.39
510.08	14.72
510.512	15.05
510.943	15.42
511.374	15.78
511.805	16.13
512.237	16.52
512.668	16.9
513.099	17.29
513.53	17.69
513.961	18.11
514.391	18.51
514.822	18.93
515.253	19.36
515.684	19.78
516.114	20.24
516.545	20.69
516.975	21.14
517.406	21.6
517.836	22.06
518.267	22.51
518.697	22.96
519.127	23.42
519.558	23.88
519.988	24.33
520.418	24.78
520.848	25.22
521.278	25.66
521.708	26.13
522.138	26.56
522.567	26.99
522.997	27.4
523.427	27.81
523.857	28.19
524.286	28.58
524.716	28.97
525.145	29.35
525.575	29.73
526.004	30.08
526.433	30.38
526.863	30.71
527.292	31.04
527.721	31.37
528.15	31.67
528.579	31.99
529.008	32.29
529.437	32.56
529.866	32.78
530.295	33.01
530.724	33.27
531.152	33.52
531.581	33.72
532.01	33.92
532.438	34.09
532.867	34.29
533.295	34.43
533.723	34.6
534.152	34.76
534.58	34.92
535.008	35.03
535.436	35.14
535.865	35.25
536.293	35.39
536.721	35.49
537.149	35.59
537.576	35.69
538.004	35.76
538.432	35.83
538.86	35.91
539.287	36
539.715	36.09
540.143	36.13
540.57	36.2
540.998	36.24
541.425	36.32
541.852	36.39
542.28	36.43
542.707	36.52
543.134	36.58
543.561	36.63
543.988	36.67
544.415	36.76
544.842	36.84
545.269	36.92
545.696	36.98
546.123	37.04
546.549	37.1
546.976	37.18
547.403	37.24
547.829	37.32
548.256	37.37
548.682	37.43
549.108	37.45
549.535	37.49
549.961	37.51
550.387	37.54
550.813	37.56
551.24	37.57
551.666	37.58
552.092	37.59
552.518	37.57
552.943	37.58
553.369	37.57
553.795	37.56
554.221	37.54
554.646	37.52
555.072	37.48
555.498	37.42
555.923	37.39
556.349	37.31
556.774	37.22
557.199	37.16
557.625	37.06
558.05	36.94
558.475	36.82
558.9	36.69
559.325	36.55
559.75	36.4
560.175	36.26
560.6	36.08
561.025	35.94
561.449	35.76
561.874	35.58
562.299	35.39
562.723	35.2
563.148	35.01
563.572	34.81
563.997	34.59
564.421	34.36
564.846	34.13
565.27	33.88
565.694	33.61
566.118	33.36
566.542	33.1
566.966	32.83
567.39	32.57
567.814	32.28
568.238	31.97
568.662	31.71
569.086	31.43
569.509	31.15
569.933	30.89
570.357	30.63
570.78	30.38
571.204	30.1
571.627	29.85
572.05	29.62
572.474	29.42
572.897	29.21
573.32	28.97
573.743	28.77
574.166	28.56
574.589	28.35
575.012	28.17
575.435	27.97
575.858	27.81
576.281	27.63
576.704	27.47
577.126	27.29
577.549	27.15
577.972	27
578.394	26.84
578.817	26.67
579.239	26.55
579.661	26.42
580.084	26.29
580.506	26.17
580.928	26.05
581.35	25.94
581.772	25.82
582.194	25.69
582.616	25.57
583.038	25.47
583.46	25.38
583.882	25.27
584.303	25.16
584.725	25.06
585.147	24.94
585.568	24.83
585.99	24.72
586.411	24.63
586.833	24.53
587.254	24.43
587.675	24.34
588.096	24.25
588.518	24.15
588.939	24.07
589.36	23.98
589.781	23.9
590.202	23.82
590.623	23.73
591.043	23.66
591.464	23.58
591.885	23.52
592.305	23.46
592.726	23.4
593.147	23.35
593.567	23.29
593.987	23.24
594.408	23.19
594.828	23.11
595.248	23.06
595.669	22.99
596.089	22.94
596.509	22.88
596.929	22.81
597.349	22.73
597.769	22.65
598.189	22.59
598.608	22.52
599.028	22.44
599.448	22.39
599.867	22.32
600.287	22.25
600.706	22.16
601.126	22.08
601.545	22.03
601.965	21.95
602.384	21.88
602.803	21.79
603.222	21.69
603.641	21.61
604.061	21.52
604.48	21.43
604.898	21.33
605.317	21.24
605.736	21.13
606.155	21
606.574	20.9
606.992	20.8
607.411	20.7
607.829	20.56
608.248	20.44
608.666	20.35
609.085	20.22
609.503	20.13
609.921	20.02
610.339	19.92
610.758	19.82
611.176	19.72
611.594	19.59
612.012	19.47
612.43	19.41
612.847	19.3
613.265	19.19
613.683	19.08
614.101	18.97
614.518	18.85
614.936	18.77
615.353	18.65
615.771	18.54
616.188	18.47
616.606	18.38
617.023	18.28
617.44	18.19
617.857	18.09
618.274	18.02
618.691	17.95
619.108	17.89
619.525	17.81
619.942	17.77
620.359	17.72
620.776	17.67
621.192	17.62
621.609	17.58
622.026	17.55
622.442	17.52
622.859	17.49
623.275	17.47
623.691	17.44
624.108	17.43
624.524	17.39
624.94	17.36
625.356	17.33
625.772	17.33
626.188	17.33
626.604	17.32
627.02	17.3
627.436	17.28
627.852	17.25
628.268	17.23
628.683	17.2
629.099	17.19
629.514	17.15
629.93	17.12
630.345	17.06
630.761	16.99
631.176	16.93
631.591	16.85
632.007	16.79
632.422	16.71
632.837	16.6
633.252	16.49
633.667	16.38
634.082	16.26
634.497	16.14
634.911	16
635.326	15.87
635.741	15.7
636.155	15.54
636.57	15.38
636.984	15.21
637.399	15.02
637.813	14.83
638.228	14.63
638.642	14.44
639.056	14.25
639.47	14.05
639.884	13.84
640.298	13.67
640.712	13.48
641.126	13.28
641.54	13.1
641.954	12.94
642.368	12.77
642.781	12.6
643.195	12.43
643.609	12.27
644.022	12.12
644.436	11.97
644.849	11.83
645.262	11.7
645.676	11.56
646.089	11.43
646.502	11.3
646.915	11.2
647.328	11.11
647.741	11.03
648.154	10.96
648.567	10.88
648.98	10.82
649.393	10.76
649.805	10.71
650.218	10.67
650.631	10.62
651.043	10.58
651.456	10.55
651.868	10.51
652.28	10.49
652.693	10.43
653.105	10.38
653.517	10.31
653.929	10.28
654.341	10.23
654.753	10.16
655.165	10.11
655.577	10.03
655.989	9.94
656.401	9.85
656.813	9.75
657.224	9.68
657.636	9.61
658.047	9.52
658.459	9.41
658.87	9.3
659.282	9.22
659.693	9.11
660.104	9.01
660.515	8.91
660.926	8.82
661.338	8.72
661.749	8.61
662.159	8.5
662.57	8.41
662.981	8.33
663.392	8.25
663.803	8.16
664.213	8.09
664.624	8.03
665.035	7.97
665.445	7.92
665.855	7.87
666.266	7.84
666.676	7.8
667.086	7.77
667.497	7.72
667.907	7.68
668.317	7.63
668.727	7.61
669.137	7.59
669.547	7.56
669.956	7.53
670.366	7.51
670.776	7.49
671.186	7.47
671.595	7.45
672.005	7.45
672.414	7.45
672.824	7.47
673.233	7.48
673.642	7.47
674.052	7.47
674.461	7.49
674.87	7.51
675.279	7.52
675.688	7.55
676.097	7.59
676.506	7.63
676.915	7.67
677.323	7.7
677.732	7.74
678.141	7.8
678.549	7.88
678.958	7.94
679.366	8
679.775	8.09
680.183	8.19
680.592	8.28
681	8.37
681.408	8.5
681.816	8.65
682.224	8.79
682.632	8.97
683.04	9.16
683.448	9.38
683.856	9.64
684.264	9.92
684.671	10.24
685.079	10.57
685.487	10.96
685.894	11.38
686.302	11.84
686.709	12.34
687.116	12.86
687.524	13.44
687.931	14.04
688.338	14.68
688.745	15.36
689.152	16.09
689.559	16.86
689.966	17.67
690.373	18.52
690.78	19.38
691.187	20.26
691.593	21.18
692	22.11
692.407	23.08
692.813	24.07
693.22	25.09
693.626	26.1
694.032	27.14
694.439	28.19
694.845	29.21
695.251	30.24
695.657	31.27
696.063	32.34
696.469	33.4
696.875	34.43
697.281	35.44
697.687	36.47
698.093	37.48
698.498	38.47
698.904	39.45
699.31	40.4
699.715	41.38
700.12	42.34
700.526	43.28
700.931	44.2
701.337	45.12
701.742	46.02
702.147	46.92
702.552	47.8
702.957	48.64
703.362	49.47
703.767	50.31
704.172	51.13
704.577	51.94
704.981	52.7
705.386	53.46
705.791	54.21
706.195	54.94
706.6	55.62
707.004	56.32
707.408	56.98
707.813	57.67
708.217	58.34
708.621	58.97
709.025	59.6
709.43	60.23
709.834	60.86
710.237	61.47
710.641	62.1
711.045	62.71
711.449	63.27
711.853	63.88
712.256	64.45
712.66	64.99
713.064	65.59
713.467	66.12
713.87	66.68
714.274	67.23
714.677	67.76
715.08	68.24
715.484	68.76
715.887	69.29
716.29	69.78
716.693	70.24
717.096	70.71
717.499	71.18
717.901	71.62
718.304	72.04
718.707	72.46
719.109	72.85
719.512	73.3
719.915	73.69
720.317	74.07
720.719	74.46
721.122	74.87
721.524	75.3
721.926	75.66
722.328	76.06
722.731	76.42
723.133	76.71
723.535	77.08
723.937	77.4
724.338	77.68
724.74	77.96
725.142	78.22
725.544	78.5
725.945	78.72
726.347	78.98
726.748	79.15
727.15	79.37
727.551	79.63
727.952	79.81
728.354	80.05
728.755	80.28
729.156	80.5
729.557	80.74
729.958	80.94
730.359	81.1
730.76	81.25
731.161	81.44
731.562	81.62
731.962	81.81
732.363	81.97
732.763	82.13
733.164	82.27
733.564	82.39
733.965	82.49
734.365	82.56
734.766	82.7
735.166	82.76
735.566	82.83
735.966	82.9
736.366	82.96
736.766	83.06
737.166	83.13
737.566	83.19
737.966	83.31
738.365	83.37
738.765	83.46
739.165	83.51
739.564	83.62
739.964	83.69
740.363	83.75
740.763	83.83
741.162	83.83
741.561	83.88
741.96	83.99
742.36	84.05
742.759	84.08
743.158	84.1
743.557	84.13
743.955	84.21
744.354	84.32
744.753	84.4
745.152	84.45
745.55	84.55
745.949	84.63
746.348	84.69
746.746	84.7
747.144	84.8
747.543	84.88
747.941	85
748.339	85.08
748.737	85.12
749.136	85.16
749.534	85.19
749.932	85.23
750.33	85.24
750.727	85.23
751.125	85.28
751.523	85.25
751.921	85.27
752.318	85.24
752.716	85.17
753.113	85.16
753.511	85.14
753.908	85.13
754.305	85.08
754.703	85.05
755.1	85.04
755.497	85.01
755.894	85
756.291	84.96
756.688	84.95
757.085	85.01
757.482	84.97
757.878	84.96
758.275	84.93
758.672	84.96
759.068	84.98
759.465	84.95
759.861	84.91
760.258	84.91
760.654	84.94
761.05	84.96
761.447	84.88
761.843	84.89
762.239	84.87
762.635	84.91
763.031	84.87
763.427	84.81
763.822	84.78
764.218	84.77
764.614	84.76
765.01	84.73
765.405	84.68
765.801	84.67
766.196	84.62
766.592	84.62
766.987	84.61
767.382	84.62
767.778	84.68
768.173	84.68
768.568	84.63
768.963	84.64
769.358	84.64
769.753	84.69
770.148	84.74
770.542	84.75
770.937	84.73
771.332	84.73
771.726	84.73
772.121	84.66
772.515	84.7
772.91	84.76
773.304	84.74
773.699	84.74
774.093	84.7
774.487	84.68
774.881	84.72
775.275	84.76
775.669	84.77
776.063	84.72
776.457	84.72
776.851	84.68
777.245	84.7
777.638	84.75
778.032	84.75
778.425	84.78
778.819	84.79
779.212	84.78
779.606	84.79
779.999	84.78
780.392	84.83
780.786	84.85
781.179	84.87
781.572	84.86
781.965	84.84
782.358	84.85
782.751	84.86
783.143	84.88
783.536	84.92
783.929	84.93
784.322	84.93
784.714	84.99
785.107	85.09
785.499	85.11
785.891	85.13
786.284	85.11
786.676	85.21
787.068	85.2
787.46	85.16
787.852	85.13
788.245	85.18
788.636	85.21
789.028	85.17
789.42	85.12
789.812	85.12
790.204	85.08
790.595	85.09
790.987	85.01
791.378	85.01
791.77	85.07
792.161	85.07
792.553	85.06
792.944	85.02
793.335	85.06
793.726	85.03
794.117	85.02
794.508	85.05
794.899	85.07
795.29	85.08
795.681	85.13
796.072	85.18
796.463	85.15
796.853	85.19
797.244	85.23
797.634	85.25
798.025	85.31
798.415	85.37
798.806	85.39
799.196	85.44
799.586	85.49
799.976	85.47
800.366	85.45
800.756	85.51
801.146	85.49
801.536	85.52
801.926	85.51
802.316	85.57
802.706	85.62
803.095	85.66
803.485	85.68
803.874	85.69
804.264	85.75
804.653	85.7
805.043	85.72
805.432	85.71
805.821	85.74
806.21	85.82
806.599	85.85
806.988	85.82
807.377	85.85
807.766	85.84
808.155	85.84
808.544	85.83
808.933	85.91
809.321	85.95
809.71	86.04
810.098	86.08
810.487	86.04
810.875	85.96
811.264	86.03
811.652	86.07
812.04	86.09
812.428	86.13
812.816	86.16
813.204	86.12
813.592	86.11
813.98	86.07
814.368	86.03
814.756	86.1
815.144	86.16
815.531	86.12
815.919	86.09
816.306	86.09
816.694	86.08
817.081	86.07
817.469	86.13
817.856	86.19
818.243	86.21
818.63	86.29
819.017	86.26
819.404	86.24
819.791	86.22
820.178	86.25
820.565	86.27
820.952	86.29
821.339	86.33
821.725	86.32
822.112	86.32
822.498	86.3
822.885	86.27
823.271	86.32
823.657	86.34
824.044	86.36
824.43	86.35
824.816	86.34
825.202	86.29
825.588	86.27
825.974	86.26
826.36	86.2
826.746	86.23
827.132	86.16
827.517	86.1
827.903	86.09
828.289	86.07
828.674	86.03
829.06	86.03
829.445	86.1
829.83	86.06
830.216	86.05
830.601	86.03
830.986	85.99
831.371	86.04
831.756	85.97
832.141	85.97
832.526	85.93
832.911	85.95
833.295	85.89
833.68	85.81
834.065	85.81
834.449	85.76
834.834	85.73
835.218	85.71
835.603	85.68
835.987	85.67
836.371	85.62
836.755	85.58
837.139	85.51
837.524	85.49
837.908	85.42
838.291	85.4
838.675	85.4
839.059	85.38
839.443	85.32
839.827	85.27
840.21	85.3
840.594	85.29
840.977	85.27
841.361	85.28
841.744	85.29
842.127	85.29
842.511	85.23
842.894	85.19
843.277	85.16
843.66	85.19
844.043	85.16
844.426	85.1
844.809	85.08
845.191	85.06
845.574	85.04
845.957	84.96
846.339	84.95
846.722	84.96
847.104	84.94
847.487	84.94
847.869	84.9
848.252	84.93
848.634	84.95
849.016	84.95
849.398	84.97
849.78	84.96
850.162	84.98
850.544	85.01
850.926	84.98
851.307	85
851.689	84.98
852.071	84.99
852.452	84.97
852.834	84.92
853.215	84.92
853.597	84.92
853.978	84.89
854.359	84.86
854.741	84.84
855.122	84.86
855.503	84.83
855.884	84.83
856.265	84.8
856.646	84.78
857.026	84.8
857.407	84.77
857.788	84.79
858.169	84.81
858.549	84.88
858.93	84.89
859.31	84.86
859.69	84.88
860.071	84.91
860.451	84.91
860.831	84.94
861.211	84.97
861.591	85.01
861.971	84.99
862.351	84.99
862.731	84.98
863.111	84.94
863.491	84.97
863.87	84.97
864.25	84.96
864.629	84.94
865.009	84.89
865.388	84.84
865.768	84.83
866.147	84.81
866.526	84.8
866.905	84.78
867.284	84.8
867.663	84.79
868.042	84.79
868.421	84.78
868.8	84.79
869.179	84.81
869.558	84.82
869.936	84.8
870.315	84.8
870.693	84.79
871.072	84.79
871.45	84.77
871.828	84.75
872.207	84.77
872.585	84.79
872.963	84.78
873.341	84.79
873.719	84.78
874.097	84.75
874.475	84.76
874.853	84.78
875.23	84.82
875.608	84.82
875.986	84.81
876.363	84.79
876.741	84.8
877.118	84.79
877.495	84.78
877.873	84.79
878.25	84.78
878.627	84.78
879.004	84.76
879.381	84.73
879.758	84.74
880.135	84.71
880.512	84.71
880.889	84.7
881.265	84.73
881.642	84.72
882.019	84.71
882.395	84.72
882.772	84.65
883.148	84.64
883.524	84.65
883.901	84.58
884.277	84.57
884.653	84.54
885.029	84.51
885.405	84.5
885.781	84.43
886.157	84.43
886.532	84.41
886.908	84.44
887.284	84.43
887.659	84.39
888.035	84.43
888.411	84.36
888.786	84.33
889.161	84.3
889.537	84.29
889.912	84.28
890.287	84.24
890.662	84.22
891.037	84.16
891.412	84.09
891.787	84.05
892.162	83.99
892.536	84
892.911	83.95
893.286	83.87
893.66	83.79
894.035	83.76
894.409	83.72
894.784	83.66
895.158	83.63
895.532	83.62
895.906	83.6
896.281	83.55
896.655	83.53
897.029	83.51
897.402	83.55
897.776	83.58
898.15	83.57
898.524	83.57
898.898	83.53
899.271	83.59
899.645	83.61
900.018	83.58
900.392	83.63
900.765	83.65
901.138	83.68
901.511	83.66
901.884	83.66
902.258	83.67
902.631	83.71
903.003	83.76
903.376	83.73
903.749	83.73
904.122	83.77
904.495	83.78
904.867	83.79
905.24	83.82
905.612	83.84
905.985	83.81
906.357	83.81
906.729	83.79
907.102	83.82
907.474	83.84
907.846	83.84
908.218	83.84
908.59	83.83
908.962	83.85
909.334	83.84
909.705	83.84
910.077	83.86
910.449	83.87
910.82	83.9
911.192	83.91
911.563	83.92
911.935	83.89
912.306	83.93
912.677	83.94
913.048	83.93
913.419	83.98
913.79	83.96
914.161	83.96
914.532	83.95
914.903	83.95
915.274	83.93
915.645	83.94
916.015	83.96
916.386	83.91
916.756	83.88
917.127	83.88
917.497	83.84
917.868	83.8
918.238	83.85
918.608	83.86
918.978	83.83
919.348	83.78
919.718	83.78
920.088	83.8
920.458	83.87
920.828	83.89
921.198	83.95
921.567	83.92
921.937	83.98
922.306	83.95
922.676	83.97
923.045	84.01
923.415	84.05
923.784	84.1
924.153	84.07
924.522	84.06
924.891	84.05
925.26	83.95
925.629	83.93
925.998	83.89
926.367	83.85
926.736	83.81
927.104	83.78
927.473	83.82
927.842	83.74
928.21	83.75
928.578	83.71
928.947	83.69
929.315	83.74
929.683	83.83
930.051	83.81
930.42	83.82
930.788	83.79
931.156	83.75
931.523	83.7
931.891	83.64
932.259	83.53
932.627	83.44
932.994	83.35
933.362	83.25
933.729	83.08
934.097	83.05
934.464	82.97
934.831	82.91
935.199	82.86
935.566	82.74
935.933	82.75
936.3	82.7
936.667	82.64
937.034	82.58
937.401	82.64
937.767	82.63
938.134	82.56
938.501	82.58
938.867	82.67
939.234	82.76
939.6	82.9
939.967	82.91
940.333	83.12
940.699	83.29
941.065	83.5
941.431	83.58
941.798	83.91
942.163	84.21
942.529	84.36
942.895	84.51
943.261	84.61
943.627	84.7
943.992	84.81
944.358	84.86
944.723	84.91
945.089	85.06
945.454	85.13
945.82	84.99
946.185	85.02
946.55	85.19
946.915	85.22
947.28	85.22
947.645	85.25
948.01	85.26
948.375	85.27
948.74	85.18
949.104	85.09
949.469	84.86
949.834	84.84
950.198	84.68
950.562	84.49
950.927	84.39
951.291	84.24
951.655	84.05
952.02	83.95
952.384	83.91
952.748	83.88
953.112	83.86
953.476	83.92
953.839	83.81
954.203	83.77
954.567	83.72
954.931	83.69
955.294	83.66
955.658	83.65
956.021	83.67
956.385	83.58
956.748	83.54
957.111	83.49
957.474	83.39
957.837	83.48
958.2	83.39
958.563	83.25
958.926	83.06
959.289	83.08
959.652	83.06
960.015	82.95
960.377	82.92
960.74	82.87
961.102	82.83
961.465	82.82
961.827	82.57
962.189	82.6
962.552	82.59
962.914	82.68
963.276	82.69
963.638	82.63
964	82.6
964.362	82.58
964.724	82.56
965.085	82.5
965.447	82.4
965.809	82.42
966.17	82.33
966.532	82.33
966.893	82.24
967.255	82.08
967.616	82.12
967.977	82.13
968.338	82.11
968.699	82.02
969.061	81.96
969.421	82.01
969.782	82.07
970.143	82.06
970.504	82.03
970.865	81.97
971.225	82.01
971.586	81.98
971.946	82.02
972.307	81.99
972.667	82.15
973.027	82.26
973.388	82.26
973.748	82.32
974.108	82.28
974.468	82.29
974.828	82.52
975.188	82.48
975.548	82.57
975.907	82.57
976.267	82.57
976.627	82.54
976.986	82.53
977.346	82.52
977.705	82.44
978.064	82.54
978.424	82.5
978.783	82.45
979.142	82.44
979.501	82.29
979.86	82.26
980.219	82.17
980.578	82.16
980.937	82.18
981.296	82.28
981.654	82.38
982.013	82.41
982.371	82.5
982.73	82.36
983.088	82.44
983.447	82.58
983.805	82.57
984.163	82.73
984.521	82.58
984.879	82.66
985.237	82.62
985.595	82.57
985.953	82.54
986.311	82.59
986.669	82.75
987.026	82.8
987.384	82.8
987.741	82.95
988.099	82.88
988.456	83.06
988.814	83.03
989.171	83.16
989.528	83.11
989.885	83.11
990.242	83.27
990.599	83.31
990.956	83.41
991.313	83.43
991.67	83.45
992.027	83.51
992.383	83.58
992.74	83.61
993.096	83.67
993.453	83.9
993.809	84.09
994.165	84.14
994.522	84.1
994.878	84.06
995.234	84.12
995.59	84.09
995.946	84.27
996.302	84.21
996.658	84.21
997.013	84.17
997.369	84.15
997.725	84.34
998.08	84.28
998.436	84.45
998.791	84.53
999.147	84.64
999.502	84.7
999.857	84.7
1000.212	84.87
1000.567	84.98
1000.922	85.06
1001.277	84.94
1001.632	84.81
1001.987	84.97
1002.342	84.97
1002.696	85.05
1003.051	84.95
1003.406	85.02
1003.76	84.88
1004.114	84.99
1004.469	84.94
1004.823	84.93
1005.177	85.38
1005.531	85.37
1005.885	85.39
1006.239	85.44
1006.593	85.51
1006.947	85.47
1007.301	85.7
1007.655	85.92
1008.008	85.81
1008.362	85.84
1008.715	86.08
1009.069	85.78
1009.422	85.74
1009.776	85.69
1010.129	85.52
1010.482	85.63
1010.835	85.99
1011.188	85.92
1011.541	85.92
1011.894	86.15
1012.247	86.19
1012.6	86.09
1012.952	86.5
1013.305	86.82
1013.657	86.74
1014.01	87.06
1014.362	87.33
1014.715	87.23
1015.067	87.26
1015.419	87.52
1015.771	87.71
1016.123	87.95
1016.475	88.3
1016.827	88.53
1017.179	88.66
1017.531	88.73
1017.883	88.89
1018.234	88.71
1018.586	88.75
1018.938	88.56
1019.289	88.71
1019.64	88.9
1019.992	89.16
1020.343	88.98
1020.694	88.65
1021.045	88.72
1021.396	89.07
1021.747	88.95
1022.098	89.28
1022.449	89.68
1022.8	90.04
1023.151	90.18
1023.501	90.24
1023.852	90.4
1024.202	90.61
1024.553	90.82
1024.903	90.88
1025.253	91.04
1025.604	91.4
1025.954	91.35
1026.304	91.55
1026.654	92.04
1027.004	92.29
1027.354	92.46
1027.703	92.42
1028.053	92.48
1028.403	92.59
1028.753	93.23
1029.102	93.36
1029.452	93.31
1029.801	93.23
1030.15	93.17
1030.499	93.01
897.758	574.09
901.051	595.43
904.343	598.72
907.636	589.68
910.928	578.18
914.22	590.5
917.511	577.24
920.803	554.09
924.094	533.87
927.384	540.72
930.675	527.96
933.965	525.65
937.255	518.71
940.544	498.47
943.834	479.79
947.123	474.55
950.411	450.22
953.7	443.52
956.988	426.44
960.276	412.41
963.563	404.71
966.851	382.86
970.138	378.09
973.424	354.86
976.711	350.21
979.997	336.23
983.283	329.24
986.568	318.27
989.853	311.26
993.138	303.78
996.423	297.28
999.708	292.02
1002.992	293.68
1006.275	282.82
1009.559	281.33
1012.842	274.33
1016.125	268.29
1019.408	264.22
1022.69	261.88
1025.972	260.27
1029.254	254.34
1032.536	250.19
1035.817	242.01
1039.098	239.26
1042.379	236.3
1045.659	232.33
1048.939	230.98
1052.219	227.83
1055.498	224.62
1058.778	222.25
1062.057	217.82
1065.335	216.55
1068.614	213.06
1071.892	211.87
1075.17	207.23
1078.447	204.2
1081.724	204.32
1085.001	200.18
1088.278	199.08
1091.554	198.67
1094.83	197
1098.106	194.8
1101.382	193.85
1104.657	193.61
1107.932	192.57
1111.206	191.34
1114.481	190.74
1117.755	189.4
1121.029	188.71
1124.302	187.17
1127.575	184.24
1130.848	183.69
1134.121	181.07
1137.393	180.97
1140.665	180.45
1143.937	179.36
1147.208	177.6
1150.48	175.93
1153.75	173.57
1157.021	172.81
1160.291	171.93
1163.561	171.75
1166.831	169.16
1170.101	169.65
1173.37	168.1
1176.639	165.77
1179.907	166.05
1183.176	165.46
1186.444	165.97
1189.711	165.13
1192.979	166.29
1196.246	166.05
1199.513	165.46
1202.78	166.45
1206.046	166.1
1209.312	167.03
1212.578	167.77
1215.843	169.48
1219.108	170.71
1222.373	172.46
1225.638	175.12
1228.902	177.53
1232.166	182.3
1235.43	183.78
1238.693	188.22
1241.956	192.41
1245.219	195.58
1248.482	197.27
1251.744	195.79
1255.006	195.91
1258.268	191.59
1261.529	190.56
1264.79	185.86
1268.051	184.09
1271.312	182.93
1274.572	180.37
1277.832	175.85
1281.092	174.7
1284.351	171.53
1287.61	171.24
1290.869	170.14
1294.128	169.81
1297.386	169.02
1300.644	168.63
1303.902	166.24
1307.159	165.41
1310.416	165.79
1313.673	168.06
1316.93	167.53
1320.186	170.56
1323.442	172.13
1326.697	175.9
1329.953	177.1
1333.208	181.58
1336.463	188.41
1339.717	191.93
1342.972	199.95
1346.226	203.52
1349.479	204.51
1352.733	213.62
1355.986	217.76
1359.238	221.69
1362.491	222.2
1365.743	229.17
1368.995	228.58
1372.247	229.07
1375.498	227.93
1378.749	233.82
1382	234.02
1385.251	231.92
1388.501	230.84
1391.751	231.84
1395	229.81
1398.25	231.77
1401.499	230.09
1404.748	231.32
1407.996	223.33
1411.244	223.81
1414.492	220.09
1417.74	212.95
1420.987	209.13
1424.234	205.35
1427.481	196.98
1430.728	191.89
1433.974	184.78
1437.22	178.08
1440.465	172.44
1443.711	167.38
1446.956	161.48
1450.201	155.04
1453.445	149.46
1456.689	145.3
1459.933	140.64
1463.177	135.5
1466.42	133.2
1469.663	129.78
1472.906	127.08
1476.148	123.66
1479.391	121.56
1482.633	119.94
1485.874	118.34
1489.115	117.66
1492.356	115.73
1495.597	114.95
1498.838	114.42
1502.078	113.58
1505.318	113.72
1508.557	113.19
1511.797	112.62
1515.036	112.53
1518.274	112.41
1521.513	111.42
1524.751	110.35
1527.989	112.27
1531.227	111.74
1534.464	111.9
1537.701	110.63
1540.938	109.93
1544.174	110.49
1547.41	110.57
1550.646	110.56
1553.882	110.45
1557.117	110.83
1560.352	110.91
1563.587	109.95
1566.821	109.82
1570.055	109.48
1573.289	110.48
1576.523	110.67
1579.756	110
1582.989	110.59
1586.222	110.48
1589.454	110.82
1592.686	110.7
1595.918	110.9
1599.15	110.53
1602.381	111.09
1605.612	111.52
1608.843	111.42
1612.073	112.09
1615.303	112.44
1618.533	111.96
1621.762	112.36
1624.992	112.21
1628.221	112.07
1631.449	112.59
1634.678	112.73
1637.906	112.59
1641.134	113.03
1644.361	113.12
1647.588	113.03
1650.815	113.2
1654.042	113.73
1657.269	112.96
1660.495	113.73
1663.72	113.94
1666.946	113.47
1670.171	114.11
1673.396	114.58
1676.621	114.68
1679.845	114.63
1683.069	114.69
1686.293	114.59
1689.517	114.38
1692.74	115.26
1695.963	115.1
1699.185	115.5
1702.408	115.92
1705.63	115.96
1708.852	116.66
1712.073	115.85
1715.294	116.04
1718.515	116.17
1721.736	116.35
1724.956	116.31
1728.176	115.98
1731.396	116.6
1734.616	116.68
1737.835	116.94
1741.054	116.2
1744.272	115.76
1747.491	116.16
1750.709	116.95
1753.927	116.91
1757.144	116.92
1760.361	117.26
1763.578	118.23
1766.795	117.73
1770.011	117.41
1773.227	117.69
1776.443	118.76
1779.658	118.32
1782.874	118.83
1786.089	117.94
1789.303	118.23
1792.518	119.11
1795.732	119.63
1798.945	120.06
1802.159	120.78
1805.372	121.97
1808.585	122.75
1811.797	123.93
1815.01	124.11
1818.222	125.2
1821.434	126.34
1824.645	126.96
1827.856	128.6
1831.067	129.42
1834.278	130.22
1837.488	130.66
1840.698	131.78
1843.908	132.01
1847.117	132.31
1850.326	134.4
1853.535	133.8
1856.744	134.5
1859.952	136
1863.16	134.96
1866.368	133.15
1869.575	133.25
1872.782	132.72
1875.989	130.14
1879.196	129.91
1882.402	127.6
1885.608	126.86
1888.814	126.39
1892.019	126.76
1895.224	123.51
1898.429	123.33
1901.634	123.68
1904.838	123.73
1908.042	123.55
1911.246	123.73
1914.449	123.19
1917.652	122.49
1920.855	123.62
1924.058	121.77
1927.26	120.64
1930.462	121.73
1933.664	121.74
1936.865	122.98
1940.066	120.76
1943.267	118.88
1946.467	121.15
1949.668	121.42
1952.868	122.03
1956.067	120.88
1959.267	122.42
1962.466	123.02
1965.665	124.89
1968.863	124.45
1972.061	125.28
1975.259	127.36
1978.457	130.23
1981.654	130.17
1984.852	131.18
1988.048	133.31
1991.245	135.27
1994.441	138.53
1997.637	140.79
2000.833	142.16
2004.028	144.43
2007.223	148.34
2010.418	151.61
2013.613	157.75
2016.807	161.15
2020.001	164.8
2023.194	170.02
2026.388	176.46
2029.581	185.19
2032.774	191.33
2035.966	196.88
2039.158	202.97
2042.35	206.58
2045.542	210.74
2048.733	219.43
2051.924	221.05
2055.115	224.13
2058.306	226.1
2061.496	230.27
2064.686	228.87
2067.875	227.21
2071.065	230.52
2074.254	231.26
2077.442	236.73
2080.631	238.49
2083.819	237.94
2087.007	244.31
2090.195	247.75
2093.382	249.19
2096.569	248.92
2099.756	252.47
2102.942	259.28
2106.128	264.73
2109.314	266.39
2112.5	266.33
2115.685	266.84
2118.87	267.5
2122.055	268.87
2125.239	274.78
2128.424	280.68
2131.608	278.49
2134.791	281.14
2137.974	280.41
2141.157	281.97
2144.34	285.48
2147.523	291.13
2150.705	297.78
2153.887	294.96
2157.068	297.35
2160.25	300.26
2163.431	297.62
2166.611	303.69
2169.792	306.78
2172.972	311.07
2176.152	310.54
2179.331	316.5
2182.511	315.17
2185.69	318.24
2188.868	330.23
2192.047	338.78
2195.225	342.17
2198.403	348.9
2201.58	342.72
2204.758	356.02
2207.935	360.21
2211.111	366.59
2214.288	368.32
2217.464	374.28
2220.64	376.53
2223.815	377.48
2226.991	373.39
2230.166	376.16
2233.34	386.03
2236.515	400.33
2239.689	392.74
2242.863	396.8
2246.036	396.17
2249.209	403.72
2252.382	399.45
2255.555	415.67
2258.727	417.26
2261.9	431.14
2265.071	436.29
2268.243	431.65
2271.414	445.72
2274.585	455.46
2277.756	454.09
2280.926	470.48
2284.096	475.61
2287.266	480.96
2290.436	468.44
2293.605	480.19
2296.774	495.77
2299.942	493.32
2303.111	506.39
2306.279	512.01
2309.447	514.93
2312.614	518.54
2315.781	530.65
2318.948	532.93
2322.115	542.56
2325.281	570.59
2328.447	565.77
2331.613	569.92
2334.779	577.94
2337.944	593.94
2341.109	600.93
2344.274	606.31
2347.438	624.07
2350.602	635.46
2353.766	671.98
2356.929	677
2360.092	683.49
2363.255	687.49
2366.418	691.46
2369.58	714.33
2372.742	708.09
2375.904	707.88
2379.066	728.85
2382.227	766.96
2385.388	762.09
2388.548	726.73
2391.709	718
2394.869	738.86
2398.029	743.42
2401.188	746.25
2404.347	763.72
2407.506	790.44
2410.665	763.8
2413.823	769.48
2416.981	771.95
2420.139	732.18
2423.296	792.97
2426.453	848.41
2429.61	809.31
2432.767	860.72
2435.923	882.89
2439.079	859.81
2442.235	879.79
2445.391	898.78
2448.546	886.41
2451.701	933.29
2454.855	998.93
2458.009	881.87
2461.163	893.67
2464.317	907.25
2467.471	886.71
2470.624	912.17
2473.777	898.56
2476.929	863.86
2480.082	927.14
2483.234	976.21
2486.385	985.6
2489.537	1008.2
2492.688	1114.87
2495.839	1091.22
2498.989	1117.54
2502.14	1130.66
2505.29	1094.12
2508.439	1191.55
2511.589	1229.63
2514.738	1177
2517.887	1162.78
2521.035	1098.5
2524.183	1084.84
2527.331	1074.32
2530.479	1049.31
2533.627	1078.71
