Data from c_3_dec_nc_4n_Splice17_20.txt Node
Date: Sat Feb 29 14:49:31 EST 2020
User: sa697716
Spectrometer: FLMS03696
Trigger mode: 0
Integration Time (sec): 3.180400E-1
Scans to average: 20
Electric dark correction enabled: true
Nonlinearity correction enabled: true
Boxcar width: 5
XAxis mode: Wavelengths
Number of Pixels in Spectrum: 2048
>>>>>Begin Spectral Data<<<<<
187.83	102.08
188.298	83.63
188.766	77.03
189.233	71.79
189.701	81.43
190.169	82.31
190.636	93.38
191.104	79.33
191.571	135.26
192.039	26.89
192.506	301.69
192.974	15586.91
193.441	-690.89
193.908	90.06
194.375	-21.42
194.842	120.16
195.31	90.09
195.777	73.01
196.244	28.79
196.711	37.71
197.177	36.68
197.644	37.92
198.111	36.67
198.578	38.14
199.045	39.84
199.511	41.16
199.978	41.17
200.445	40.77
200.911	41.4
201.378	41.78
201.844	41.92
202.31	42.49
202.777	42.92
203.243	43.65
203.709	44
204.176	43.32
204.642	43.21
205.108	43.33
205.574	43.82
206.04	43.46
206.506	43.15
206.972	42.96
207.438	42.31
207.903	42.07
208.369	41.4
208.835	41.1
209.301	41.16
209.766	40.52
210.232	39.88
210.697	39.41
211.163	38.88
211.628	38.47
212.094	37.94
212.559	37.44
213.024	36.83
213.49	36.35
213.955	35.5
214.42	34.5
214.885	33.44
215.35	32.38
215.815	30.96
216.28	29.57
216.745	28.19
217.21	26.73
217.675	25.33
218.14	23.93
218.604	22.6
219.069	21.61
219.534	20.73
219.998	20
220.463	19.34
220.927	18.8
221.392	18.29
221.856	17.84
222.32	17.4
222.785	17.02
223.249	16.77
223.713	16.54
224.177	16.25
224.642	15.99
225.106	15.76
225.57	15.53
226.034	15.32
226.497	15.09
226.961	14.86
227.425	14.66
227.889	14.49
228.353	14.26
228.816	14.08
229.28	13.88
229.744	13.75
230.207	13.61
230.671	13.45
231.134	13.31
231.597	13.16
232.061	13.02
232.524	12.91
232.987	12.76
233.45	12.63
233.914	12.5
234.377	12.39
234.84	12.26
235.303	12.13
235.766	12.02
236.229	11.91
236.691	11.81
237.154	11.7
237.617	11.6
238.08	11.48
238.542	11.39
239.005	11.29
239.468	11.19
239.93	11.1
240.393	11
240.855	10.9
241.317	10.81
241.78	10.73
242.242	10.66
242.704	10.57
243.166	10.51
243.629	10.43
244.091	10.35
244.553	10.28
245.015	10.21
245.477	10.15
245.939	10.08
246.4	9.99
246.862	9.94
247.324	9.9
247.786	9.84
248.247	9.79
248.709	9.74
249.17	9.7
249.632	9.64
250.093	9.57
250.555	9.52
251.016	9.49
251.477	9.45
251.939	9.41
252.4	9.37
252.861	9.32
253.322	9.27
253.783	9.24
254.244	9.19
254.705	9.16
255.166	9.14
255.627	9.11
256.088	9.06
256.549	9.03
257.009	9
257.47	8.96
257.931	8.91
258.391	8.87
258.852	8.83
259.312	8.8
259.773	8.76
260.233	8.72
260.694	8.68
261.154	8.65
261.614	8.61
262.074	8.58
262.534	8.53
262.994	8.5
263.455	8.47
263.915	8.44
264.374	8.41
264.834	8.39
265.294	8.36
265.754	8.34
266.214	8.32
266.673	8.31
267.133	8.28
267.593	8.27
268.052	8.25
268.512	8.24
268.971	8.22
269.431	8.2
269.89	8.19
270.349	8.18
270.809	8.16
271.268	8.14
271.727	8.12
272.186	8.1
272.645	8.08
273.104	8.07
273.563	8.06
274.022	8.04
274.481	8.02
274.94	8
275.399	7.99
275.857	7.97
276.316	7.95
276.775	7.93
277.233	7.91
277.692	7.9
278.15	7.88
278.609	7.86
279.067	7.83
279.525	7.81
279.984	7.78
280.442	7.77
280.9	7.76
281.358	7.74
281.816	7.73
282.274	7.7
282.732	7.68
283.19	7.66
283.648	7.65
284.106	7.64
284.564	7.64
285.021	7.62
285.479	7.61
285.937	7.6
286.394	7.57
286.852	7.57
287.309	7.56
287.767	7.55
288.224	7.53
288.682	7.52
289.139	7.51
289.596	7.49
290.053	7.48
290.511	7.45
290.968	7.44
291.425	7.42
291.882	7.4
292.339	7.39
292.796	7.37
293.252	7.35
293.709	7.33
294.166	7.31
294.623	7.3
295.079	7.28
295.536	7.27
295.992	7.25
296.449	7.23
296.905	7.21
297.362	7.2
297.818	7.18
298.274	7.17
298.731	7.15
299.187	7.14
299.643	7.12
300.099	7.11
300.555	7.09
301.011	7.07
301.467	7.06
301.923	7.06
302.379	7.05
302.835	7.04
303.291	7.02
303.746	7.01
304.202	6.98
304.658	6.97
305.113	6.95
305.569	6.94
306.024	6.93
306.479	6.91
306.935	6.9
307.39	6.89
307.845	6.88
308.301	6.88
308.756	6.89
309.211	6.88
309.666	6.88
310.121	6.88
310.576	6.87
311.031	6.86
311.486	6.86
311.94	6.85
312.395	6.85
312.85	6.84
313.305	6.84
313.759	6.83
314.214	6.83
314.668	6.82
315.123	6.82
315.577	6.83
316.032	6.82
316.486	6.81
316.94	6.8
317.394	6.78
317.849	6.77
318.303	6.76
318.757	6.74
319.211	6.72
319.665	6.71
320.119	6.7
320.572	6.68
321.026	6.67
321.48	6.66
321.934	6.66
322.387	6.65
322.841	6.64
323.295	6.62
323.748	6.61
324.202	6.6
324.655	6.59
325.108	6.57
325.562	6.55
326.015	6.53
326.468	6.51
326.921	6.49
327.374	6.49
327.827	6.48
328.28	6.46
328.733	6.45
329.186	6.43
329.639	6.42
330.092	6.41
330.545	6.41
330.997	6.42
331.45	6.41
331.903	6.4
332.355	6.4
332.808	6.38
333.26	6.38
333.713	6.38
334.165	6.38
334.617	6.39
335.069	6.39
335.522	6.39
335.974	6.39
336.426	6.39
336.878	6.4
337.33	6.39
337.782	6.4
338.234	6.4
338.686	6.4
339.137	6.4
339.589	6.38
340.041	6.37
340.493	6.34
340.944	6.33
341.396	6.32
341.847	6.3
342.299	6.27
342.75	6.25
343.201	6.23
343.653	6.21
344.104	6.2
344.555	6.19
345.006	6.17
345.457	6.16
345.908	6.16
346.359	6.15
346.81	6.15
347.261	6.14
347.712	6.14
348.163	6.14
348.613	6.12
349.064	6.1
349.515	6.09
349.965	6.07
350.416	6.06
350.866	6.04
351.317	6.04
351.767	6.03
352.217	6.02
352.668	6.02
353.118	6.02
353.568	6.03
354.018	6.04
354.468	6.04
354.918	6.06
355.368	6.07
355.818	6.08
356.268	6.08
356.718	6.09
357.168	6.08
357.617	6.08
358.067	6.08
358.517	6.07
358.966	6.08
359.416	6.1
359.865	6.1
360.315	6.09
360.764	6.1
361.213	6.09
361.663	6.09
362.112	6.11
362.561	6.12
363.01	6.14
363.459	6.16
363.908	6.17
364.357	6.18
364.806	6.19
365.255	6.22
365.703	6.22
366.152	6.25
366.601	6.28
367.05	6.28
367.498	6.3
367.947	6.29
368.395	6.32
368.844	6.33
369.292	6.34
369.74	6.36
370.189	6.38
370.637	6.41
371.085	6.44
371.533	6.46
371.981	6.48
372.429	6.5
372.877	6.53
373.325	6.55
373.773	6.58
374.221	6.61
374.669	6.64
375.116	6.66
375.564	6.67
376.012	6.69
376.459	6.72
376.907	6.76
377.354	6.78
377.801	6.81
378.249	6.85
378.696	6.88
379.143	6.91
379.591	6.94
380.038	6.99
380.485	7.01
380.932	7.04
381.379	7.07
381.826	7.1
382.273	7.14
382.72	7.18
383.166	7.22
383.613	7.25
384.06	7.28
384.506	7.3
384.953	7.32
385.4	7.35
385.846	7.37
386.292	7.41
386.739	7.43
387.185	7.46
387.631	7.49
388.078	7.52
388.524	7.54
388.97	7.56
389.416	7.58
389.862	7.6
390.308	7.62
390.754	7.64
391.2	7.66
391.645	7.69
392.091	7.71
392.537	7.73
392.983	7.75
393.428	7.78
393.874	7.81
394.319	7.84
394.765	7.87
395.21	7.88
395.655	7.89
396.101	7.89
396.546	7.91
396.991	7.92
397.436	7.9
397.881	7.92
398.326	7.92
398.771	7.93
399.216	7.94
399.661	7.95
400.106	7.97
400.551	7.98
400.995	7.99
401.44	7.97
401.885	7.96
402.329	7.97
402.774	7.94
403.218	7.93
403.663	7.92
404.107	7.92
404.551	7.91
404.995	7.89
405.44	7.87
405.884	7.86
406.328	7.86
406.772	7.86
407.216	7.86
407.66	7.86
408.104	7.87
408.547	7.87
408.991	7.85
409.435	7.83
409.879	7.83
410.322	7.84
410.766	7.83
411.209	7.82
411.653	7.81
412.096	7.79
412.54	7.79
412.983	7.77
413.426	7.78
413.869	7.78
414.312	7.8
414.756	7.81
415.199	7.81
415.642	7.84
416.085	7.85
416.527	7.87
416.97	7.89
417.413	7.89
417.856	7.89
418.298	7.86
418.741	7.85
419.184	7.85
419.626	7.84
420.069	7.81
420.511	7.78
420.953	7.77
421.396	7.76
421.838	7.75
422.28	7.76
422.722	7.78
423.164	7.77
423.606	7.76
424.048	7.75
424.49	7.76
424.932	7.77
425.374	7.77
425.816	7.76
426.258	7.74
426.699	7.71
427.141	7.66
427.582	7.64
428.024	7.62
428.465	7.63
428.907	7.64
429.348	7.62
429.789	7.6
430.231	7.56
430.672	7.55
431.113	7.56
431.554	7.58
431.995	7.61
432.436	7.6
432.877	7.59
433.318	7.54
433.759	7.52
434.2	7.51
434.64	7.52
435.081	7.52
435.522	7.53
435.962	7.53
436.403	7.54
436.843	7.53
437.284	7.53
437.724	7.55
438.164	7.6
438.604	7.61
439.045	7.61
439.485	7.61
439.925	7.64
440.365	7.65
440.805	7.62
441.245	7.62
441.685	7.64
442.125	7.66
442.564	7.67
443.004	7.67
443.444	7.68
443.883	7.7
444.323	7.69
444.762	7.7
445.202	7.73
445.641	7.75
446.081	7.78
446.52	7.78
446.959	7.81
447.398	7.84
447.837	7.86
448.276	7.87
448.716	7.89
449.154	7.91
449.593	7.92
450.032	7.93
450.471	7.95
450.91	7.92
451.349	7.94
451.787	7.93
452.226	7.89
452.664	7.89
453.103	7.88
453.541	7.89
453.98	7.87
454.418	7.85
454.856	7.82
455.295	7.81
455.733	7.8
456.171	7.79
456.609	7.77
457.047	7.77
457.485	7.75
457.923	7.75
458.361	7.72
458.798	7.72
459.236	7.7
459.674	7.69
460.111	7.68
460.549	7.68
460.987	7.66
461.424	7.66
461.862	7.64
462.299	7.63
462.736	7.62
463.173	7.6
463.611	7.59
464.048	7.59
464.485	7.58
464.922	7.56
465.359	7.55
465.796	7.54
466.233	7.55
466.67	7.56
467.106	7.55
467.543	7.55
467.98	7.55
468.416	7.56
468.853	7.56
469.29	7.58
469.726	7.58
470.162	7.58
470.599	7.6
471.035	7.6
471.471	7.57
471.907	7.6
472.344	7.61
472.78	7.61
473.216	7.61
473.652	7.61
474.088	7.61
474.523	7.61
474.959	7.62
475.395	7.62
475.831	7.61
476.266	7.63
476.702	7.62
477.138	7.61
477.573	7.59
478.008	7.57
478.444	7.55
478.879	7.54
479.314	7.53
479.75	7.53
480.185	7.51
480.62	7.51
481.055	7.52
481.49	7.51
481.925	7.5
482.36	7.5
482.795	7.5
483.229	7.51
483.664	7.51
484.099	7.51
484.534	7.51
484.968	7.52
485.403	7.52
485.837	7.51
486.271	7.51
486.706	7.52
487.14	7.54
487.574	7.56
488.009	7.57
488.443	7.59
488.877	7.6
489.311	7.62
489.745	7.64
490.179	7.67
490.613	7.71
491.046	7.75
491.48	7.79
491.914	7.82
492.348	7.85
492.781	7.9
493.215	7.94
493.648	8
494.082	8.04
494.515	8.1
494.948	8.15
495.382	8.21
495.815	8.26
496.248	8.33
496.681	8.41
497.114	8.48
497.547	8.57
497.98	8.64
498.413	8.72
498.846	8.81
499.279	8.91
499.711	8.99
500.144	9.08
500.577	9.18
501.009	9.27
501.442	9.39
501.874	9.51
502.306	9.62
502.739	9.75
503.171	9.9
503.603	10.05
504.036	10.2
504.468	10.36
504.9	10.53
505.332	10.71
505.764	10.89
506.196	11.08
506.627	11.27
507.059	11.47
507.491	11.69
507.923	11.9
508.354	12.13
508.786	12.35
509.217	12.57
509.649	12.82
510.08	13.08
510.512	13.33
510.943	13.59
511.374	13.85
511.805	14.11
512.237	14.38
512.668	14.64
513.099	14.92
513.53	15.21
513.961	15.52
514.391	15.81
514.822	16.1
515.253	16.39
515.684	16.69
516.114	17
516.545	17.32
516.975	17.62
517.406	17.93
517.836	18.24
518.267	18.57
518.697	18.88
519.127	19.19
519.558	19.5
519.988	19.8
520.418	20.11
520.848	20.4
521.278	20.7
521.708	20.85
522.138	21.12
522.567	21.4
522.997	21.66
523.427	21.93
523.857	22.18
524.286	22.42
524.716	22.68
525.145	22.91
525.575	23.13
526.004	23.36
526.433	23.72
526.863	23.97
527.292	24.16
527.721	24.35
528.15	24.53
528.579	24.72
529.008	24.9
529.437	25.05
529.866	25.2
530.295	25.37
530.724	25.52
531.152	25.67
531.581	25.81
532.01	25.94
532.438	26.05
532.867	26.17
533.295	26.28
533.723	26.38
534.152	26.48
534.58	26.58
535.008	26.61
535.436	26.66
535.865	26.71
536.293	26.77
536.721	26.82
537.149	26.87
537.576	26.91
538.004	26.94
538.432	26.98
538.86	27.01
539.287	27.06
539.715	27.12
540.143	27.17
540.57	27.2
540.998	27.24
541.425	27.26
541.852	27.32
542.28	27.34
542.707	27.39
543.134	27.42
543.561	27.42
543.988	27.45
544.415	27.49
544.842	27.52
545.269	27.55
545.696	27.56
546.123	27.61
546.549	27.62
546.976	27.66
547.403	27.68
547.829	27.73
548.256	27.78
548.682	27.78
549.108	27.8
549.535	27.81
549.961	27.84
550.387	27.85
550.813	27.83
551.24	27.85
551.666	27.86
552.092	27.86
552.518	27.85
552.943	27.84
553.369	27.84
553.795	27.81
554.221	27.78
554.646	27.74
555.072	27.72
555.498	27.69
555.923	27.64
556.349	27.57
556.774	27.52
557.199	27.46
557.625	27.41
558.05	27.34
558.475	27.27
558.9	27.18
559.325	27.1
559.75	27
560.175	26.89
560.6	26.79
561.025	26.69
561.449	26.55
561.874	26.41
562.299	26.28
562.723	26.16
563.148	26.03
563.572	25.91
563.997	25.77
564.421	25.62
564.846	25.47
565.27	25.32
565.694	25.15
566.118	25.01
566.542	24.87
566.966	24.69
567.39	24.5
567.814	24.33
568.238	24.15
568.662	23.98
569.086	23.8
569.509	23.62
569.933	23.44
570.357	23.26
570.78	23.08
571.204	22.89
571.627	22.73
572.05	22.59
572.474	22.44
572.897	22.28
573.32	22.12
573.743	21.98
574.166	21.85
574.589	21.73
575.012	21.6
575.435	21.47
575.858	21.35
576.281	21.25
576.704	21.14
577.126	21.03
577.549	20.93
577.972	20.84
578.394	20.74
578.817	20.64
579.239	20.54
579.661	20.45
580.084	20.36
580.506	20.27
580.928	20.17
581.35	20.06
581.772	19.98
582.194	19.9
582.616	19.82
583.038	19.73
583.46	19.66
583.882	19.58
584.303	19.52
584.725	19.43
585.147	19.36
585.568	19.29
585.99	19.22
586.411	19.14
586.833	19.06
587.254	18.99
587.675	18.93
588.096	18.86
588.518	18.79
588.939	18.72
589.36	18.68
589.781	18.62
590.202	18.58
590.623	18.52
591.043	18.47
591.464	18.42
591.885	18.37
592.305	18.32
592.726	18.27
593.147	18.25
593.567	18.21
593.987	18.18
594.408	18.13
594.828	18.09
595.248	18.07
595.669	18.04
596.089	18.01
596.509	17.95
596.929	17.93
597.349	17.88
597.769	17.84
598.189	17.8
598.608	17.75
599.028	17.69
599.448	17.65
599.867	17.59
600.287	17.53
600.706	17.48
601.126	17.44
601.545	17.4
601.965	17.35
602.384	17.29
602.803	17.23
603.222	17.16
603.641	17.12
604.061	17.05
604.48	16.99
604.898	16.92
605.317	16.86
605.736	16.8
606.155	16.7
606.574	16.63
606.992	16.56
607.411	16.49
607.829	16.39
608.248	16.33
608.666	16.25
609.085	16.17
609.503	16.1
609.921	16.01
610.339	15.95
610.758	15.89
611.176	15.82
611.594	15.75
612.012	15.67
612.43	15.64
612.847	15.58
613.265	15.51
613.683	15.44
614.101	15.36
614.518	15.3
614.936	15.21
615.353	15.14
615.771	15.08
616.188	15.01
616.606	14.95
617.023	14.87
617.44	14.8
617.857	14.73
618.274	14.68
618.691	14.63
619.108	14.57
619.525	14.54
619.942	14.49
620.359	14.45
620.776	14.43
621.192	14.4
621.609	14.37
622.026	14.34
622.442	14.32
622.859	14.3
623.275	14.3
623.691	14.3
624.108	14.28
624.524	14.26
624.94	14.24
625.356	14.22
625.772	14.21
626.188	14.2
626.604	14.17
627.02	14.16
627.436	14.14
627.852	14.11
628.268	14.07
628.683	14.03
629.099	14.02
629.514	13.98
629.93	13.94
630.345	13.91
630.761	13.86
631.176	13.82
631.591	13.77
632.007	13.7
632.422	13.65
632.837	13.58
633.252	13.52
633.667	13.43
634.082	13.35
634.497	13.24
634.911	13.14
635.326	13.03
635.741	12.92
636.155	12.8
636.57	12.68
636.984	12.54
637.399	12.4
637.813	12.27
638.228	12.13
638.642	12
639.056	11.87
639.47	11.71
639.884	11.55
640.298	11.41
640.712	11.27
641.126	11.13
641.54	11
641.954	10.89
642.368	10.75
642.781	10.6
643.195	10.46
643.609	10.35
644.022	10.25
644.436	10.16
644.849	10.05
645.262	9.96
645.676	9.85
646.089	9.75
646.502	9.65
646.915	9.58
647.328	9.53
647.741	9.48
648.154	9.42
648.567	9.36
648.98	9.32
649.393	9.28
649.805	9.24
650.218	9.22
650.631	9.19
651.043	9.16
651.456	9.12
651.868	9.08
652.28	9.04
652.693	8.99
653.105	8.97
653.517	8.93
653.929	8.9
654.341	8.87
654.753	8.82
655.165	8.79
655.577	8.73
655.989	8.69
656.401	8.64
656.813	8.59
657.224	8.55
657.636	8.49
658.047	8.43
658.459	8.35
658.87	8.29
659.282	8.22
659.693	8.15
660.104	8.1
660.515	8.02
660.926	7.96
661.338	7.91
661.749	7.84
662.159	7.78
662.57	7.72
662.981	7.67
663.392	7.61
663.803	7.57
664.213	7.53
664.624	7.51
665.035	7.46
665.445	7.44
665.855	7.4
666.266	7.36
666.676	7.34
667.086	7.31
667.497	7.29
667.907	7.26
668.317	7.24
668.727	7.23
669.137	7.21
669.547	7.23
669.956	7.23
670.366	7.24
670.776	7.24
671.186	7.24
671.595	7.26
672.005	7.29
672.414	7.31
672.824	7.33
673.233	7.35
673.642	7.36
674.052	7.38
674.461	7.4
674.87	7.44
675.279	7.48
675.688	7.51
676.097	7.55
676.506	7.58
676.915	7.62
677.323	7.68
677.732	7.73
678.141	7.79
678.549	7.85
678.958	7.91
679.366	7.97
679.775	8.04
680.183	8.14
680.592	8.24
681	8.32
681.408	8.43
681.816	8.53
682.224	8.65
682.632	8.79
683.04	8.95
683.448	9.11
683.856	9.29
684.264	9.5
684.671	9.71
685.079	9.94
685.487	10.22
685.894	10.51
686.302	10.83
686.709	11.15
687.116	11.52
687.524	11.91
687.931	12.32
688.338	12.78
688.745	13.24
689.152	13.74
689.559	14.27
689.966	14.82
690.373	15.41
690.78	15.99
691.187	16.6
691.593	17.22
692	17.86
692.407	18.52
692.813	19.16
693.22	19.82
693.626	20.49
694.032	21.17
694.439	21.87
694.845	22.53
695.251	23.22
695.657	23.9
696.063	24.57
696.469	25.24
696.875	25.89
697.281	26.55
697.687	27.22
698.093	27.86
698.498	28.49
698.904	29.07
699.31	29.69
699.715	30.3
700.12	30.88
700.526	31.49
700.931	32.06
701.337	32.65
701.742	33.19
702.147	33.71
702.552	34.23
702.957	34.73
703.362	35.26
703.767	35.77
704.172	36.24
704.577	36.73
704.981	37.21
705.386	37.67
705.791	38.12
706.195	38.57
706.6	38.99
707.004	39.43
707.408	39.84
707.813	40.25
708.217	40.61
708.621	41
709.025	41.4
709.43	41.74
709.834	42.11
710.237	42.46
710.641	42.85
711.045	43.23
711.449	43.57
711.853	43.92
712.256	44.27
712.66	44.63
713.064	44.97
713.467	45.26
713.87	45.59
714.274	45.88
714.677	46.17
715.08	46.42
715.484	46.72
715.887	47.03
716.29	47.32
716.693	47.59
717.096	47.85
717.499	48.11
717.901	48.38
718.304	48.62
718.707	48.89
719.109	49.15
719.512	49.46
719.915	49.69
720.317	49.92
720.719	50.13
721.122	50.36
721.524	50.59
721.926	50.79
722.328	51.02
722.731	51.24
723.133	51.47
723.535	51.65
723.937	51.83
724.338	52
724.74	52.15
725.142	52.27
725.544	52.4
725.945	52.55
726.347	52.72
726.748	52.84
727.15	52.99
727.551	53.08
727.952	53.19
728.354	53.33
728.755	53.46
729.156	53.59
729.557	53.79
729.958	53.94
730.359	54.06
730.76	54.15
731.161	54.26
731.562	54.37
731.962	54.48
732.363	54.6
732.763	54.69
733.164	54.76
733.564	54.82
733.965	54.87
734.365	54.89
734.766	54.96
735.166	54.99
735.566	55.01
735.966	55.03
736.366	55.06
736.766	55.11
737.166	55.15
737.566	55.19
737.966	55.25
738.365	55.3
738.765	55.37
739.165	55.37
739.564	55.43
739.964	55.47
740.363	55.56
740.763	55.58
741.162	55.59
741.561	55.64
741.96	55.7
742.36	55.73
742.759	55.75
743.158	55.74
743.557	55.82
743.955	55.85
744.354	55.91
744.753	55.92
745.152	55.96
745.55	56.01
745.949	56.01
746.348	56.03
746.746	56.1
747.144	56.16
747.543	56.23
747.941	56.28
748.339	56.31
748.737	56.34
749.136	56.34
749.534	56.38
749.932	56.39
750.33	56.42
750.727	56.43
751.125	56.42
751.523	56.39
751.921	56.43
752.318	56.38
752.716	56.39
753.113	56.35
753.511	56.34
753.908	56.28
754.305	56.24
754.703	56.22
755.1	56.18
755.497	56.14
755.894	56.08
756.291	55.97
756.688	55.92
757.085	55.86
757.482	55.84
757.878	55.82
758.275	55.78
758.672	55.78
759.068	55.73
759.465	55.68
759.861	55.67
760.258	55.65
760.654	55.63
761.05	55.62
761.447	55.6
761.843	55.57
762.239	55.56
762.635	55.6
763.031	55.59
763.427	55.56
763.822	55.55
764.218	55.56
764.614	55.57
765.01	55.64
765.405	55.61
765.801	55.63
766.196	55.66
766.592	55.69
766.987	55.69
767.382	55.7
767.778	55.73
768.173	55.76
768.568	55.72
768.963	55.71
769.358	55.66
769.753	55.73
770.148	55.74
770.542	55.73
770.937	55.69
771.332	55.69
771.726	55.64
772.121	55.61
772.515	55.58
772.91	55.58
773.304	55.58
773.699	55.58
774.093	55.55
774.487	55.53
774.881	55.53
775.275	55.53
775.669	55.53
776.063	55.54
776.457	55.53
776.851	55.51
777.245	55.52
777.638	55.53
778.032	55.54
778.425	55.52
778.819	55.53
779.212	55.49
779.606	55.5
779.999	55.46
780.392	55.48
780.786	55.5
781.179	55.54
781.572	55.52
781.965	55.55
782.358	55.53
782.751	55.56
783.143	55.55
783.536	55.58
783.929	55.59
784.322	55.62
784.714	55.65
785.107	55.67
785.499	55.68
785.891	55.71
786.284	55.7
786.676	55.75
787.068	55.71
787.46	55.71
787.852	55.7
788.245	55.7
788.636	55.71
789.028	55.69
789.42	55.65
789.812	55.64
790.204	55.59
790.595	55.57
790.987	55.57
791.378	55.58
791.77	55.61
792.161	55.61
792.553	55.63
792.944	55.63
793.335	55.61
793.726	55.59
794.117	55.59
794.508	55.61
794.899	55.6
795.29	55.56
795.681	55.59
796.072	55.6
796.463	55.62
796.853	55.62
797.244	55.61
797.634	55.61
798.025	55.66
798.415	55.67
798.806	55.72
799.196	55.75
799.586	55.76
799.976	55.74
800.366	55.72
800.756	55.7
801.146	55.71
801.536	55.71
801.926	55.71
802.316	55.71
802.706	55.74
803.095	55.74
803.485	55.79
803.874	55.8
804.264	55.83
804.653	55.85
805.043	55.88
805.432	55.87
805.821	55.87
806.21	55.92
806.599	55.94
806.988	55.92
807.377	55.92
807.766	55.89
808.155	55.92
808.544	55.91
808.933	55.91
809.321	55.95
809.71	56
810.098	56.02
810.487	56.03
810.875	56.02
811.264	56.04
811.652	56.05
812.04	56.05
812.428	56.04
812.816	56.07
813.204	56.05
813.592	56.04
813.98	56.03
814.368	56.03
814.756	56.04
815.144	56.09
815.531	56.1
815.919	56.08
816.306	56.1
816.694	56.12
817.081	56.09
817.469	56.14
817.856	56.19
818.243	56.18
818.63	56.2
819.017	56.21
819.404	56.19
819.791	56.21
820.178	56.24
820.565	56.23
820.952	56.22
821.339	56.27
821.725	56.26
822.112	56.26
822.498	56.3
822.885	56.32
823.271	56.32
823.657	56.35
824.044	56.34
824.43	56.33
824.816	56.35
825.202	56.36
825.588	56.35
825.974	56.35
826.36	56.32
826.746	56.31
827.132	56.25
827.517	56.24
827.903	56.22
828.289	56.2
828.674	56.18
829.06	56.16
829.445	56.17
829.83	56.17
830.216	56.15
830.601	56.15
830.986	56.15
831.371	56.16
831.756	56.12
832.141	56.12
832.526	56.1
832.911	56.15
833.295	56.17
833.68	56.16
834.065	56.16
834.449	56.12
834.834	56.09
835.218	56.06
835.603	56.07
835.987	56.07
836.371	56.07
836.755	56.06
837.139	56.03
837.524	56.01
837.908	55.99
838.291	55.96
838.675	55.99
839.059	55.99
839.443	55.98
839.827	55.97
840.21	55.97
840.594	55.97
840.977	55.93
841.361	55.91
841.744	55.93
842.127	55.9
842.511	55.88
842.894	55.84
843.277	55.85
843.66	55.85
844.043	55.84
844.426	55.82
844.809	55.78
845.191	55.82
845.574	55.79
845.957	55.76
846.339	55.77
846.722	55.76
847.104	55.78
847.487	55.76
847.869	55.76
848.252	55.75
848.634	55.78
849.016	55.81
849.398	55.78
849.78	55.8
850.162	55.81
850.544	55.8
850.926	55.82
851.307	55.82
851.689	55.8
852.071	55.79
852.452	55.77
852.834	55.76
853.215	55.75
853.597	55.75
853.978	55.75
854.359	55.74
854.741	55.73
855.122	55.73
855.503	55.73
855.884	55.74
856.265	55.77
856.646	55.78
857.026	55.82
857.407	55.78
857.788	55.79
858.169	55.76
858.549	55.76
858.93	55.77
859.31	55.76
859.69	55.72
860.071	55.73
860.451	55.71
860.831	55.7
861.211	55.65
861.591	55.68
861.971	55.65
862.351	55.68
862.731	55.7
863.111	55.69
863.491	55.71
863.87	55.73
864.25	55.72
864.629	55.74
865.009	55.71
865.388	55.73
865.768	55.72
866.147	55.73
866.526	55.71
866.905	55.7
867.284	55.71
867.663	55.72
868.042	55.7
868.421	55.69
868.8	55.69
869.179	55.7
869.558	55.69
869.936	55.69
870.315	55.69
870.693	55.7
871.072	55.71
871.45	55.69
871.828	55.69
872.207	55.69
872.585	55.7
872.963	55.67
873.341	55.68
873.719	55.68
874.097	55.69
874.475	55.72
874.853	55.7
875.23	55.67
875.608	55.68
875.986	55.65
876.363	55.65
876.741	55.61
877.118	55.62
877.495	55.6
877.873	55.57
878.25	55.54
878.627	55.55
879.004	55.55
879.381	55.57
879.758	55.54
880.135	55.57
880.512	55.58
880.889	55.61
881.265	55.61
881.642	55.62
882.019	55.64
882.395	55.66
882.772	55.6
883.148	55.6
883.524	55.61
883.901	55.61
884.277	55.59
884.653	55.57
885.029	55.57
885.405	55.54
885.781	55.54
886.157	55.53
886.532	55.52
886.908	55.56
887.284	55.54
887.659	55.53
888.035	55.53
888.411	55.5
888.786	55.52
889.161	55.51
889.537	55.53
889.912	55.5
890.287	55.49
890.662	55.46
891.037	55.42
891.412	55.4
891.787	55.37
892.162	55.35
892.536	55.34
892.911	55.3
893.286	55.27
893.66	55.2
894.035	55.17
894.409	55.16
894.784	55.15
895.158	55.12
895.532	55.1
895.906	55.09
896.281	55.06
896.655	55.05
897.029	55.02
897.402	55.02
897.776	55.04
898.15	55.04
898.524	55.02
898.898	55
899.271	55.02
899.645	55.02
900.018	55
900.392	55.01
900.765	55.03
901.138	55.02
901.511	55.03
901.884	55.04
902.258	55.03
902.631	55.06
903.003	55.06
903.376	55.05
903.749	55.05
904.122	55.06
904.495	55.03
904.867	55.01
905.24	55.02
905.612	54.97
905.985	54.95
906.357	54.93
906.729	54.86
907.102	54.86
907.474	54.87
907.846	54.86
908.218	54.83
908.59	54.84
908.962	54.87
909.334	54.91
909.705	54.93
910.077	54.91
910.449	54.92
910.82	54.98
911.192	54.96
911.563	54.94
911.935	54.92
912.306	54.91
912.677	54.92
913.048	54.88
913.419	54.82
913.79	54.82
914.161	54.81
914.532	54.81
914.903	54.78
915.274	54.77
915.645	54.8
916.015	54.82
916.386	54.83
916.756	54.8
917.127	54.81
917.497	54.82
917.868	54.82
918.238	54.84
918.608	54.83
918.978	54.83
919.348	54.82
919.718	54.79
920.088	54.8
920.458	54.83
920.828	54.85
921.198	54.86
921.567	54.83
921.937	54.84
922.306	54.84
922.676	54.86
923.045	54.85
923.415	54.9
923.784	54.88
924.153	54.85
924.522	54.82
924.891	54.77
925.26	54.76
925.629	54.78
925.998	54.76
926.367	54.77
926.736	54.73
927.104	54.71
927.473	54.72
927.842	54.71
928.21	54.72
928.578	54.69
928.947	54.69
929.315	54.66
929.683	54.68
930.051	54.65
930.42	54.61
930.788	54.61
931.156	54.55
931.523	54.5
931.891	54.48
932.259	54.41
932.627	54.35
932.994	54.33
933.362	54.24
933.729	54.08
934.097	53.98
934.464	53.94
934.831	53.84
935.199	53.82
935.566	53.75
935.933	53.78
936.3	53.72
936.667	53.67
937.034	53.58
937.401	53.55
937.767	53.57
938.134	53.61
938.501	53.59
938.867	53.68
939.234	53.75
939.6	53.74
939.967	53.69
940.333	53.84
940.699	53.94
941.065	54.11
941.431	54.21
941.798	54.43
942.163	54.5
942.529	54.55
942.895	54.53
943.261	54.54
943.627	54.64
943.992	54.65
944.358	54.69
944.723	54.69
945.089	54.75
945.454	54.81
945.82	54.7
946.185	54.78
946.55	54.93
946.915	54.98
947.28	54.99
947.645	54.88
948.01	54.93
948.375	54.9
948.74	54.82
949.104	54.8
949.469	54.69
949.834	54.73
950.198	54.6
950.562	54.45
950.927	54.45
951.291	54.4
951.655	54.41
952.02	54.38
952.384	54.38
952.748	54.37
953.112	54.28
953.476	54.34
953.839	54.25
954.203	54.25
954.567	54.23
954.931	54.15
955.294	54.13
955.658	54.15
956.021	54.13
956.385	54.03
956.748	54.08
957.111	54.01
957.474	53.95
957.837	53.93
958.2	53.83
958.563	53.78
958.926	53.76
959.289	53.78
959.652	53.74
960.015	53.69
960.377	53.72
960.74	53.6
961.102	53.58
961.465	53.53
961.827	53.43
962.189	53.43
962.552	53.34
962.914	53.29
963.276	53.26
963.638	53.19
964	53.21
964.362	53.1
964.724	53.16
965.085	53.21
965.447	53.19
965.809	53.19
966.17	53.23
966.532	53.31
966.893	53.37
967.255	53.36
967.616	53.41
967.977	53.35
968.338	53.41
968.699	53.34
969.061	53.27
969.421	53.24
969.782	53.26
970.143	53.27
970.504	53.25
970.865	53.14
971.225	53.11
971.586	53.09
971.946	53.12
972.307	53.05
972.667	53.1
973.027	53.13
973.388	53.11
973.748	53.13
974.108	53.1
974.468	53.08
974.828	53.2
975.188	53.16
975.548	53.18
975.907	53.1
976.267	53.14
976.627	53.18
976.986	53.13
977.346	53.07
977.705	53.08
978.064	53.13
978.424	53.11
978.783	53.02
979.142	53.1
979.501	53.02
979.86	53.05
980.219	52.94
980.578	52.78
980.937	52.76
981.296	52.87
981.654	52.96
982.013	52.9
982.371	52.94
982.73	52.93
983.088	52.83
983.447	52.78
983.805	52.79
984.163	52.92
984.521	52.95
984.879	52.88
985.237	52.92
985.595	52.82
985.953	52.83
986.311	52.78
986.669	52.87
987.026	52.9
987.384	52.97
987.741	53
988.099	52.97
988.456	53.04
988.814	53.21
989.171	53.13
989.528	53.15
989.885	53.15
990.242	53.15
990.599	53.08
990.956	53.08
991.313	53.04
991.67	53.08
992.027	53.08
992.383	53.1
992.74	53.02
993.096	53.01
993.453	52.9
993.809	52.91
994.165	53.01
994.522	52.92
994.878	52.83
995.234	52.81
995.59	52.72
995.946	52.77
996.302	52.58
996.658	52.63
997.013	52.68
997.369	52.77
997.725	52.86
998.08	52.79
998.436	52.82
998.791	52.77
999.147	52.85
999.502	52.9
999.857	52.89
1000.212	52.91
1000.567	52.82
1000.922	52.76
1001.277	52.71
1001.632	52.75
1001.987	52.73
1002.342	52.75
1002.696	52.9
1003.051	52.71
1003.406	52.73
1003.76	52.61
1004.114	52.75
1004.469	52.71
1004.823	52.8
1005.177	52.98
1005.531	52.77
1005.885	52.91
1006.239	52.89
1006.593	52.83
1006.947	52.93
1007.301	52.95
1007.655	53.02
1008.008	52.96
1008.362	53.06
1008.715	53.02
1009.069	52.83
1009.422	52.8
1009.776	52.63
1010.129	52.58
1010.482	52.62
1010.835	52.73
1011.188	52.48
1011.541	52.26
1011.894	52.29
1012.247	52.34
1012.6	52.2
1012.952	52.3
1013.305	52.22
1013.657	52.29
1014.01	52.42
1014.362	52.37
1014.715	52.18
1015.067	52.51
1015.419	52.9
1015.771	53.23
1016.123	53.19
1016.475	53.38
1016.827	53.44
1017.179	53.75
1017.531	53.82
1017.883	53.74
1018.234	53.76
1018.586	53.8
1018.938	53.65
1019.289	53.31
1019.64	53.15
1019.992	53.32
1020.343	53.14
1020.694	52.65
1021.045	52.5
1021.396	52.32
1021.747	52.57
1022.098	52.87
1022.449	52.81
1022.8	52.8
1023.151	53.02
1023.501	52.6
1023.852	52.53
1024.202	52.81
1024.553	53.07
1024.903	53.01
1025.253	53.16
1025.604	53.06
1025.954	52.72
1026.304	53.14
1026.654	53.24
1027.004	53.07
1027.354	53.17
1027.703	53.28
1028.053	53.1
1028.403	52.98
1028.753	53.13
1029.102	53.2
1029.452	53.4
1029.801	53.59
1030.15	53.46
1030.499	53.48
897.758	547.57
901.051	565.58
904.343	567.21
907.636	558.99
910.928	548.88
914.22	557.18
917.511	549.74
920.803	523.55
924.094	504.09
927.384	508.66
930.675	495.94
933.965	492.2
937.255	490.33
940.544	469.04
943.834	448.07
947.123	442.96
950.411	420.69
953.7	412.14
956.988	401.7
960.276	384.32
963.563	376.83
966.851	356.33
970.138	349.88
973.424	325.26
976.711	322.21
979.997	311.59
983.283	303.22
986.568	292.99
989.853	285.45
993.138	274.73
996.423	272.51
999.708	265.76
1002.992	265.72
1006.275	257.91
1009.559	255.83
1012.842	247.93
1016.125	240.7
1019.408	237.6
1022.69	235.93
1025.972	232.75
1029.254	227.99
1032.536	222.44
1035.817	215.04
1039.098	212.58
1042.379	209.32
1045.659	205.88
1048.939	204.6
1052.219	200.83
1055.498	196.47
1058.778	192.92
1062.057	190.35
1065.335	188.64
1068.614	185.14
1071.892	182.67
1075.17	179.91
1078.447	177.22
1081.724	175.83
1085.001	171.03
1088.278	171.74
1091.554	170.63
1094.83	169.27
1098.106	166.48
1101.382	165.49
1104.657	164.9
1107.932	164.73
1111.206	162.56
1114.481	160.88
1117.755	159.4
1121.029	160.33
1124.302	156.88
1127.575	154.85
1130.848	154.2
1134.121	153.57
1137.393	152.99
1140.665	152.01
1143.937	150.28
1147.208	149.1
1150.48	147.53
1153.75	147.61
1157.021	145.23
1160.291	144.82
1163.561	144.32
1166.831	144.01
1170.101	142.34
1173.37	141.69
1176.639	140.86
1179.907	140.12
1183.176	139.38
1186.444	139.98
1189.711	138.53
1192.979	140.03
1196.246	139.87
1199.513	139.89
1202.78	139.27
1206.046	138.95
1209.312	140.52
1212.578	141.07
1215.843	143.65
1219.108	144.25
1222.373	145.78
1225.638	148.08
1228.902	150.91
1232.166	156.23
1235.43	157.52
1238.693	161.02
1241.956	165.21
1245.219	168.15
1248.482	169.42
1251.744	168.55
1255.006	169.2
1258.268	166.53
1261.529	165.49
1264.79	161.2
1268.051	156.68
1271.312	156.73
1274.572	153.57
1277.832	150.67
1281.092	147.83
1284.351	145.17
1287.61	145.47
1290.869	144.45
1294.128	143.31
1297.386	142.62
1300.644	141.85
1303.902	141.76
1307.159	139.96
1310.416	141.22
1313.673	142.49
1316.93	144.53
1320.186	146.28
1323.442	147.29
1326.697	150.86
1329.953	152.53
1333.208	157.35
1336.463	163.54
1339.717	166.99
1342.972	176
1346.226	181.09
1349.479	182.19
1352.733	189.05
1355.986	193.18
1359.238	197.45
1362.491	198.47
1365.743	205.92
1368.995	206.95
1372.247	209.27
1375.498	207.96
1378.749	214.41
1382	214.1
1385.251	213.12
1388.501	212.41
1391.751	215.68
1395	213
1398.25	215.84
1401.499	212.94
1404.748	212.48
1407.996	204.67
1411.244	205.98
1414.492	201
1417.74	195.69
1420.987	191.3
1424.234	187.84
1427.481	180.83
1430.728	176.79
1433.974	170.19
1437.22	164.97
1440.465	159.97
1443.711	156.33
1446.956	151
1450.201	145.76
1453.445	138.97
1456.689	135.59
1459.933	130.95
1463.177	125.57
1466.42	123.67
1469.663	119.74
1472.906	116.73
1476.148	112.75
1479.391	110.69
1482.633	108.68
1485.874	106.98
1489.115	106.4
1492.356	104.8
1495.597	103.15
1498.838	103.33
1502.078	102
1505.318	101.77
1508.557	100.79
1511.797	100.07
1515.036	99.37
1518.274	99.12
1521.513	97.52
1524.751	96.68
1527.989	97.53
1531.227	97.39
1534.464	96.75
1537.701	95.83
1540.938	95.54
1544.174	95.74
1547.41	96.1
1550.646	96.37
1553.882	96.08
1557.117	96.09
1560.352	95.65
1563.587	94.57
1566.821	94.36
1570.055	93.9
1573.289	94.03
1576.523	94
1579.756	94
1582.989	93.95
1586.222	93.56
1589.454	93.4
1592.686	93.85
1595.918	94.07
1599.15	94.04
1602.381	94.15
1605.612	94.35
1608.843	94.35
1612.073	94.33
1615.303	94.55
1618.533	94.46
1621.762	94.37
1624.992	94.78
1628.221	94.15
1631.449	94.51
1634.678	94.51
1637.906	94.63
1641.134	94.75
1644.361	94.73
1647.588	95.71
1650.815	95.42
1654.042	95.1
1657.269	95.13
1660.495	95.56
1663.72	95.63
1666.946	95.77
1670.171	96.19
1673.396	96.79
1676.621	96.96
1679.845	97.71
1683.069	96.38
1686.293	96.7
1689.517	97.08
1692.74	97.2
1695.963	97.17
1699.185	97.27
1702.408	97.18
1705.63	97.39
1708.852	97.87
1712.073	97.38
1715.294	96.97
1718.515	98.02
1721.736	97.9
1724.956	98.31
1728.176	98.26
1731.396	98.61
1734.616	98.96
1737.835	99.26
1741.054	98.63
1744.272	98.34
1747.491	98.7
1750.709	99.65
1753.927	99.62
1757.144	100.19
1760.361	99.95
1763.578	101.19
1766.795	101.26
1770.011	101.31
1773.227	101.81
1776.443	103.23
1779.658	102.97
1782.874	103.63
1786.089	102.6
1789.303	102.68
1792.518	103.71
1795.732	104.55
1798.945	104.44
1802.159	104.8
1805.372	106.49
1808.585	107.12
1811.797	107.32
1815.01	108.42
1818.222	109.03
1821.434	110.45
1824.645	111.15
1827.856	112.58
1831.067	112.95
1834.278	114.78
1837.488	115.2
1840.698	116.6
1843.908	116.62
1847.117	118.18
1850.326	119.18
1853.535	120.09
1856.744	121.5
1859.952	123.54
1863.16	122.64
1866.368	122.42
1869.575	122.7
1872.782	123.13
1875.989	121.3
1879.196	121.51
1882.402	120.04
1885.608	120.06
1888.814	119.44
1892.019	120.22
1895.224	117.74
1898.429	117.74
1901.634	118.48
1904.838	118.84
1908.042	119.74
1911.246	118.87
1914.449	118.98
1917.652	118.46
1920.855	118.71
1924.058	118.11
1927.26	117.24
1930.462	118.24
1933.664	118.47
1936.865	118.54
1940.066	117.29
1943.267	114.89
1946.467	116.41
1949.668	116.63
1952.868	117.93
1956.067	117.99
1959.267	118.66
1962.466	119.31
1965.665	120.02
1968.863	119.95
1972.061	121.71
1975.259	123.39
1978.457	126.43
1981.654	126.65
1984.852	127.28
1988.048	128.49
1991.245	130.03
1994.441	133.14
1997.637	136.13
2000.833	137.94
2004.028	140.39
2007.223	142.4
2010.418	145.15
2013.613	150.5
2016.807	155.27
2020.001	158.41
2023.194	162.45
2026.388	168.98
2029.581	176.99
2032.774	182.49
2035.966	188.73
2039.158	193.39
2042.35	197.87
2045.542	199.8
2048.733	208.45
2051.924	209.57
2055.115	215.84
2058.306	218.58
2061.496	221.25
2064.686	221.87
2067.875	218.96
2071.065	223.11
2074.254	223.34
2077.442	228.59
2080.631	233.68
2083.819	233.04
2087.007	240.28
2090.195	240.47
2093.382	240.64
2096.569	241.97
2099.756	243.19
2102.942	249.36
2106.128	253.52
2109.314	255.75
2112.5	256.42
2115.685	254.4
2118.87	254.89
2122.055	253.17
2125.239	259.97
2128.424	267.25
2131.608	266.79
2134.791	268.35
2137.974	268.31
2141.157	269.84
2144.34	272.34
2147.523	277.58
2150.705	284.24
2153.887	279.78
2157.068	285.06
2160.25	287.27
2163.431	286.14
2166.611	287.64
2169.792	291.79
2172.972	299.29
2176.152	299.84
2179.331	307.27
2182.511	308.62
2185.69	310.82
2188.868	325.3
2192.047	332.87
2195.225	336.55
2198.403	337.53
2201.58	338.1
2204.758	351.05
2207.935	349.67
2211.111	356.84
2214.288	357.54
2217.464	360.23
2220.64	363.23
2223.815	364.21
2226.991	357.84
2230.166	360.37
2233.34	374.2
2236.515	380.98
2239.689	376.13
2242.863	383.34
2246.036	380.18
2249.209	389.06
2252.382	386.77
2255.555	401.08
2258.727	403.04
2261.9	417.1
2265.071	422.98
2268.243	418.85
2271.414	432.18
2274.585	441.24
2277.756	438.45
2280.926	455.7
2284.096	456.47
2287.266	460.38
2290.436	449.86
2293.605	462.92
2296.774	476.53
2299.942	477.07
2303.111	491.29
2306.279	500.85
2309.447	501.09
2312.614	505.36
2315.781	515.83
2318.948	521.41
2322.115	534.09
2325.281	562.15
2328.447	551.68
2331.613	561.56
2334.779	567.21
2337.944	579.17
2341.109	587.91
2344.274	595.96
2347.438	606.11
2350.602	617.06
2353.766	657.35
2356.929	654.8
2360.092	669.13
2363.255	675.33
2366.418	674.15
2369.58	692.42
2372.742	693.47
2375.904	692.51
2379.066	709.35
2382.227	748.96
2385.388	750.4
2388.548	706.28
2391.709	703.35
2394.869	721.64
2398.029	722.46
2401.188	728.22
2404.347	746.62
2407.506	763.36
2410.665	743.46
2413.823	746.8
2416.981	755.87
2420.139	710.52
2423.296	777.49
2426.453	826.43
2429.61	788.25
2432.767	845.08
2435.923	868.38
2439.079	848.62
2442.235	865.21
2445.391	880.86
2448.546	870.3
2451.701	918.52
2454.855	986.53
2458.009	860.75
2461.163	886.21
2464.317	893.34
2467.471	875.15
2470.624	905.08
2473.777	882.91
2476.929	860.38
2480.082	911.46
2483.234	961.13
2486.385	968.52
2489.537	995.12
2492.688	1108.8
2495.839	1072.87
2498.989	1107.9
2502.14	1107.95
2505.29	1064.44
2508.439	1174.29
2511.589	1202.07
2514.738	1167.72
2517.887	1156.25
2521.035	1092.01
2524.183	1070.41
2527.331	1053.79
2530.479	1033.95
2533.627	1053.55
