Data from c_3_dec_ct_2n_Splice17_20.txt Node
Date: Sat Feb 29 14:46:06 EST 2020
User: sa697716
Spectrometer: FLMS03696
Trigger mode: 0
Integration Time (sec): 3.180400E-1
Scans to average: 20
Electric dark correction enabled: true
Nonlinearity correction enabled: true
Boxcar width: 5
XAxis mode: Wavelengths
Number of Pixels in Spectrum: 2048
>>>>>Begin Spectral Data<<<<<
187.83	99.59
188.298	98.17
188.766	80.46
189.233	85.45
189.701	87.25
190.169	81.26
190.636	82.09
191.104	60.53
191.571	319.69
192.039	296.23
192.506	-191.06
192.974	5982.84
193.441	-355.88
193.908	28.69
194.375	68.13
194.842	126.25
195.31	82.39
195.777	111.14
196.244	30.07
196.711	26.3
197.177	21.53
197.644	18.57
198.111	16.77
198.578	16.67
199.045	17.49
199.511	17.45
199.978	17.16
200.445	16.85
200.911	17.02
201.378	17.13
201.844	17.54
202.31	18.04
202.777	18.5
203.243	19.06
203.709	19.53
204.176	18.75
204.642	18.92
205.108	19.12
205.574	19.62
206.04	19.55
206.506	19.65
206.972	19.24
207.438	19.34
207.903	19.66
208.369	19.61
208.835	19.52
209.301	20.17
209.766	20.22
210.232	20.29
210.697	19.91
211.163	19.98
211.628	19.93
212.094	19.94
212.559	19.38
213.024	18.63
213.49	18.36
213.955	18.06
214.42	17.7
214.885	17.14
215.35	17
215.815	16.62
216.28	16.08
216.745	15.47
217.21	15.02
217.675	14.7
218.14	14.24
218.604	13.74
219.069	13.44
219.534	13.14
219.998	12.92
220.463	12.63
220.927	12.44
221.392	12.24
221.856	12.08
222.32	11.94
222.785	11.77
223.249	11.63
223.713	11.54
224.177	11.38
224.642	11.27
225.106	11.14
225.57	11.04
226.034	10.93
226.497	10.79
226.961	10.64
227.425	10.48
227.889	10.35
228.353	10.23
228.816	10.11
229.28	9.98
229.744	9.86
230.207	9.74
230.671	9.62
231.134	9.5
231.597	9.39
232.061	9.29
232.524	9.21
232.987	9.11
233.45	9.03
233.914	8.93
234.377	8.85
234.84	8.75
235.303	8.64
235.766	8.54
236.229	8.44
236.691	8.36
237.154	8.28
237.617	8.17
238.08	8.08
238.542	7.99
239.005	7.9
239.468	7.8
239.93	7.72
240.393	7.65
240.855	7.56
241.317	7.49
241.78	7.41
242.242	7.34
242.704	7.27
243.166	7.2
243.629	7.13
244.091	7.06
244.553	7
245.015	6.93
245.477	6.85
245.939	6.79
246.4	6.73
246.862	6.67
247.324	6.63
247.786	6.58
248.247	6.52
248.709	6.48
249.17	6.43
249.632	6.39
250.093	6.33
250.555	6.3
251.016	6.27
251.477	6.23
251.939	6.17
252.4	6.11
252.861	6.07
253.322	6.03
253.783	6
254.244	5.95
254.705	5.9
255.166	5.88
255.627	5.85
256.088	5.81
256.549	5.78
257.009	5.74
257.47	5.71
257.931	5.68
258.391	5.64
258.852	5.61
259.312	5.58
259.773	5.56
260.233	5.53
260.694	5.5
261.154	5.47
261.614	5.44
262.074	5.43
262.534	5.4
262.994	5.37
263.455	5.35
263.915	5.33
264.374	5.3
264.834	5.28
265.294	5.25
265.754	5.22
266.214	5.2
266.673	5.18
267.133	5.15
267.593	5.14
268.052	5.12
268.512	5.1
268.971	5.08
269.431	5.07
269.89	5.06
270.349	5.04
270.809	5.03
271.268	5.03
271.727	5.01
272.186	5
272.645	4.99
273.104	4.97
273.563	4.96
274.022	4.95
274.481	4.93
274.94	4.9
275.399	4.89
275.857	4.87
276.316	4.84
276.775	4.82
277.233	4.8
277.692	4.78
278.15	4.76
278.609	4.73
279.067	4.71
279.525	4.7
279.984	4.69
280.442	4.66
280.9	4.65
281.358	4.64
281.816	4.63
282.274	4.61
282.732	4.59
283.19	4.58
283.648	4.57
284.106	4.55
284.564	4.54
285.021	4.52
285.479	4.51
285.937	4.5
286.394	4.48
286.852	4.47
287.309	4.46
287.767	4.45
288.224	4.44
288.682	4.43
289.139	4.42
289.596	4.41
290.053	4.39
290.511	4.37
290.968	4.36
291.425	4.35
291.882	4.33
292.339	4.31
292.796	4.29
293.252	4.27
293.709	4.25
294.166	4.23
294.623	4.22
295.079	4.21
295.536	4.2
295.992	4.19
296.449	4.17
296.905	4.15
297.362	4.14
297.818	4.13
298.274	4.11
298.731	4.1
299.187	4.08
299.643	4.07
300.099	4.06
300.555	4.05
301.011	4.03
301.467	4.03
301.923	4.02
302.379	4.02
302.835	4.01
303.291	4
303.746	3.99
304.202	3.97
304.658	3.97
305.113	3.95
305.569	3.95
306.024	3.95
306.479	3.94
306.935	3.92
307.39	3.92
307.845	3.92
308.301	3.91
308.756	3.9
309.211	3.91
309.666	3.91
310.121	3.9
310.576	3.89
311.031	3.89
311.486	3.88
311.94	3.89
312.395	3.87
312.85	3.87
313.305	3.86
313.759	3.86
314.214	3.85
314.668	3.85
315.123	3.85
315.577	3.84
316.032	3.84
316.486	3.84
316.94	3.83
317.394	3.82
317.849	3.82
318.303	3.82
318.757	3.81
319.211	3.79
319.665	3.79
320.119	3.78
320.572	3.78
321.026	3.76
321.48	3.75
321.934	3.75
322.387	3.74
322.841	3.74
323.295	3.72
323.748	3.72
324.202	3.71
324.655	3.7
325.108	3.68
325.562	3.67
326.015	3.67
326.468	3.66
326.921	3.65
327.374	3.64
327.827	3.63
328.28	3.63
328.733	3.61
329.186	3.62
329.639	3.61
330.092	3.61
330.545	3.6
330.997	3.6
331.45	3.58
331.903	3.58
332.355	3.57
332.808	3.58
333.26	3.58
333.713	3.58
334.165	3.57
334.617	3.57
335.069	3.57
335.522	3.58
335.974	3.58
336.426	3.58
336.878	3.59
337.33	3.59
337.782	3.58
338.234	3.58
338.686	3.57
339.137	3.58
339.589	3.57
340.041	3.57
340.493	3.55
340.944	3.55
341.396	3.55
341.847	3.53
342.299	3.51
342.75	3.5
343.201	3.48
343.653	3.47
344.104	3.46
344.555	3.45
345.006	3.44
345.457	3.42
345.908	3.41
346.359	3.41
346.81	3.41
347.261	3.41
347.712	3.41
348.163	3.41
348.613	3.4
349.064	3.38
349.515	3.38
349.965	3.37
350.416	3.37
350.866	3.37
351.317	3.36
351.767	3.35
352.217	3.35
352.668	3.35
353.118	3.35
353.568	3.36
354.018	3.37
354.468	3.36
354.918	3.38
355.368	3.38
355.818	3.37
356.268	3.37
356.718	3.37
357.168	3.35
357.617	3.35
358.067	3.34
358.517	3.33
358.966	3.33
359.416	3.34
359.865	3.33
360.315	3.33
360.764	3.33
361.213	3.32
361.663	3.32
362.112	3.34
362.561	3.34
363.01	3.34
363.459	3.34
363.908	3.33
364.357	3.33
364.806	3.33
365.255	3.33
365.703	3.32
366.152	3.32
366.601	3.33
367.05	3.32
367.498	3.32
367.947	3.32
368.395	3.32
368.844	3.31
369.292	3.31
369.74	3.31
370.189	3.31
370.637	3.32
371.085	3.33
371.533	3.33
371.981	3.33
372.429	3.32
372.877	3.32
373.325	3.31
373.773	3.31
374.221	3.32
374.669	3.31
375.116	3.3
375.564	3.29
376.012	3.29
376.459	3.28
376.907	3.29
377.354	3.29
377.801	3.3
378.249	3.31
378.696	3.32
379.143	3.31
379.591	3.32
380.038	3.33
380.485	3.33
380.932	3.33
381.379	3.33
381.826	3.33
382.273	3.34
382.72	3.33
383.166	3.33
383.613	3.33
384.06	3.34
384.506	3.35
384.953	3.34
385.4	3.34
385.846	3.33
386.292	3.33
386.739	3.33
387.185	3.34
387.631	3.34
388.078	3.35
388.524	3.33
388.97	3.33
389.416	3.31
389.862	3.31
390.308	3.31
390.754	3.32
391.2	3.32
391.645	3.33
392.091	3.32
392.537	3.33
392.983	3.33
393.428	3.35
393.874	3.36
394.319	3.38
394.765	3.39
395.21	3.38
395.655	3.4
396.101	3.41
396.546	3.41
396.991	3.42
397.436	3.41
397.881	3.42
398.326	3.44
398.771	3.45
399.216	3.46
399.661	3.48
400.106	3.5
400.551	3.5
400.995	3.51
401.44	3.51
401.885	3.53
402.329	3.55
402.774	3.56
403.218	3.55
403.663	3.55
404.107	3.56
404.551	3.57
404.995	3.57
405.44	3.59
405.884	3.6
406.328	3.62
406.772	3.64
407.216	3.64
407.66	3.65
408.104	3.66
408.547	3.68
408.991	3.68
409.435	3.68
409.879	3.69
410.322	3.71
410.766	3.72
411.209	3.72
411.653	3.72
412.096	3.72
412.54	3.74
412.983	3.75
413.426	3.77
413.869	3.8
414.312	3.83
414.756	3.85
415.199	3.87
415.642	3.89
416.085	3.9
416.527	3.93
416.97	3.97
417.413	3.97
417.856	3.97
418.298	3.96
418.741	3.96
419.184	3.96
419.626	3.95
420.069	3.94
420.511	3.95
420.953	3.96
421.396	3.97
421.838	3.96
422.28	3.98
422.722	4
423.164	4.01
423.606	4.03
424.048	4.02
424.49	4.03
424.932	4.05
425.374	4.04
425.816	4.03
426.258	4.01
426.699	4
427.141	3.98
427.582	3.99
428.024	3.99
428.465	3.98
428.907	4
429.348	3.99
429.789	4
430.231	4
430.672	4.01
431.113	4.02
431.554	4.01
431.995	4.02
432.436	4.01
432.877	4.01
433.318	4.01
433.759	4
434.2	3.99
434.64	4.02
435.081	4
435.522	4.02
435.962	4.04
436.403	4.07
436.843	4.09
437.284	4.11
437.724	4.13
438.164	4.14
438.604	4.16
439.045	4.18
439.485	4.18
439.925	4.18
440.365	4.17
440.805	4.15
441.245	4.14
441.685	4.14
442.125	4.14
442.564	4.14
443.004	4.15
443.444	4.14
443.883	4.14
444.323	4.14
444.762	4.16
445.202	4.18
445.641	4.18
446.081	4.22
446.52	4.22
446.959	4.23
447.398	4.26
447.837	4.3
448.276	4.3
448.716	4.31
449.154	4.33
449.593	4.35
450.032	4.35
450.471	4.38
450.91	4.35
451.349	4.35
451.787	4.33
452.226	4.3
452.664	4.27
453.103	4.28
453.541	4.27
453.98	4.25
454.418	4.22
454.856	4.19
455.295	4.17
455.733	4.18
456.171	4.18
456.609	4.18
457.047	4.19
457.485	4.19
457.923	4.17
458.361	4.16
458.798	4.17
459.236	4.17
459.674	4.18
460.111	4.18
460.549	4.17
460.987	4.19
461.424	4.19
461.862	4.18
462.299	4.17
462.736	4.17
463.173	4.17
463.611	4.16
464.048	4.17
464.485	4.16
464.922	4.15
465.359	4.15
465.796	4.12
466.233	4.12
466.67	4.13
467.106	4.12
467.543	4.14
467.98	4.15
468.416	4.16
468.853	4.14
469.29	4.14
469.726	4.15
470.162	4.13
470.599	4.14
471.035	4.15
471.471	4.14
471.907	4.14
472.344	4.13
472.78	4.12
473.216	4.11
473.652	4.12
474.088	4.14
474.523	4.14
474.959	4.14
475.395	4.14
475.831	4.13
476.266	4.13
476.702	4.13
477.138	4.12
477.573	4.11
478.008	4.11
478.444	4.11
478.879	4.1
479.314	4.09
479.75	4.11
480.185	4.09
480.62	4.09
481.055	4.08
481.49	4.08
481.925	4.07
482.36	4.05
482.795	4.03
483.229	4.02
483.664	4
484.099	4
484.534	3.99
484.968	3.99
485.403	3.98
485.837	3.96
486.271	3.96
486.706	3.95
487.14	3.96
487.574	3.96
488.009	3.96
488.443	3.96
488.877	3.96
489.311	3.95
489.745	3.95
490.179	3.95
490.613	3.95
491.046	3.96
491.48	3.98
491.914	3.97
492.348	3.98
492.781	3.99
493.215	4
493.648	4.01
494.082	4.03
494.515	4.03
494.948	4.03
495.382	4.05
495.815	4.06
496.248	4.07
496.681	4.08
497.114	4.09
497.547	4.1
497.98	4.11
498.413	4.14
498.846	4.15
499.279	4.18
499.711	4.2
500.144	4.22
500.577	4.23
501.009	4.24
501.442	4.27
501.874	4.29
502.306	4.33
502.739	4.35
503.171	4.38
503.603	4.4
504.036	4.43
504.468	4.48
504.9	4.53
505.332	4.58
505.764	4.63
506.196	4.68
506.627	4.73
507.059	4.77
507.491	4.84
507.923	4.9
508.354	4.97
508.786	5.04
509.217	5.09
509.649	5.15
510.08	5.23
510.512	5.3
510.943	5.38
511.374	5.47
511.805	5.54
512.237	5.62
512.668	5.7
513.099	5.8
513.53	5.9
513.961	6.01
514.391	6.1
514.822	6.2
515.253	6.31
515.684	6.42
516.114	6.53
516.545	6.65
516.975	6.78
517.406	6.91
517.836	7.02
518.267	7.15
518.697	7.29
519.127	7.42
519.558	7.57
519.988	7.69
520.418	7.81
520.848	7.93
521.278	8.06
521.708	8.14
522.138	8.25
522.567	8.37
522.997	8.48
523.427	8.59
523.857	8.69
524.286	8.8
524.716	8.91
525.145	9.04
525.575	9.15
526.004	9.25
526.433	9.4
526.863	9.51
527.292	9.62
527.721	9.71
528.15	9.79
528.579	9.9
529.008	9.98
529.437	10.08
529.866	10.14
530.295	10.23
530.724	10.32
531.152	10.39
531.581	10.46
532.01	10.52
532.438	10.6
532.867	10.67
533.295	10.73
533.723	10.78
534.152	10.83
534.58	10.86
535.008	10.88
535.436	10.91
535.865	10.95
536.293	10.98
536.721	11.01
537.149	11.02
537.576	11.03
538.004	11.05
538.432	11.07
538.86	11.1
539.287	11.14
539.715	11.17
540.143	11.18
540.57	11.19
540.998	11.22
541.425	11.23
541.852	11.25
542.28	11.26
542.707	11.28
543.134	11.29
543.561	11.29
543.988	11.31
544.415	11.33
544.842	11.35
545.269	11.38
545.696	11.4
546.123	11.41
546.549	11.43
546.976	11.45
547.403	11.46
547.829	11.49
548.256	11.49
548.682	11.49
549.108	11.5
549.535	11.52
549.961	11.52
550.387	11.51
550.813	11.5
551.24	11.51
551.666	11.52
552.092	11.52
552.518	11.5
552.943	11.49
553.369	11.5
553.795	11.49
554.221	11.44
554.646	11.43
555.072	11.41
555.498	11.4
555.923	11.38
556.349	11.32
556.774	11.28
557.199	11.25
557.625	11.22
558.05	11.15
558.475	11.09
558.9	11.04
559.325	10.98
559.75	10.93
560.175	10.86
560.6	10.78
561.025	10.73
561.449	10.66
561.874	10.59
562.299	10.5
562.723	10.43
563.148	10.35
563.572	10.27
563.997	10.18
564.421	10.09
564.846	10
565.27	9.91
565.694	9.83
566.118	9.74
566.542	9.64
566.966	9.57
567.39	9.46
567.814	9.37
568.238	9.28
568.662	9.19
569.086	9.1
569.509	9.01
569.933	8.91
570.357	8.81
570.78	8.73
571.204	8.64
571.627	8.55
572.05	8.48
572.474	8.4
572.897	8.31
573.32	8.22
573.743	8.15
574.166	8.08
574.589	8.02
575.012	7.97
575.435	7.9
575.858	7.85
576.281	7.8
576.704	7.75
577.126	7.69
577.549	7.65
577.972	7.6
578.394	7.55
578.817	7.5
579.239	7.44
579.661	7.4
580.084	7.35
580.506	7.3
580.928	7.25
581.35	7.19
581.772	7.16
582.194	7.12
582.616	7.09
583.038	7.06
583.46	7.03
583.882	7.01
584.303	6.98
584.725	6.95
585.147	6.91
585.568	6.88
585.99	6.87
586.411	6.83
586.833	6.82
587.254	6.79
587.675	6.76
588.096	6.75
588.518	6.72
588.939	6.7
589.36	6.68
589.781	6.68
590.202	6.66
590.623	6.64
591.043	6.62
591.464	6.59
591.885	6.58
592.305	6.57
592.726	6.54
593.147	6.52
593.567	6.49
593.987	6.47
594.408	6.45
594.828	6.45
595.248	6.43
595.669	6.43
596.089	6.42
596.509	6.38
596.929	6.35
597.349	6.34
597.769	6.33
598.189	6.34
598.608	6.32
599.028	6.28
599.448	6.26
599.867	6.24
600.287	6.21
600.706	6.2
601.126	6.18
601.545	6.17
601.965	6.15
602.384	6.12
602.803	6.09
603.222	6.06
603.641	6.05
604.061	6.01
604.48	5.98
604.898	5.95
605.317	5.92
605.736	5.89
606.155	5.86
606.574	5.82
606.992	5.78
607.411	5.75
607.829	5.69
608.248	5.65
608.666	5.62
609.085	5.59
609.503	5.56
609.921	5.53
610.339	5.49
610.758	5.47
611.176	5.44
611.594	5.42
612.012	5.38
612.43	5.4
612.847	5.38
613.265	5.35
613.683	5.32
614.101	5.29
614.518	5.26
614.936	5.24
615.353	5.21
615.771	5.19
616.188	5.18
616.606	5.16
617.023	5.13
617.44	5.11
617.857	5.1
618.274	5.09
618.691	5.08
619.108	5.07
619.525	5.06
619.942	5.04
620.359	5.03
620.776	5.01
621.192	4.99
621.609	4.97
622.026	4.96
622.442	4.93
622.859	4.92
623.275	4.92
623.691	4.91
624.108	4.9
624.524	4.9
624.94	4.89
625.356	4.88
625.772	4.88
626.188	4.88
626.604	4.87
627.02	4.88
627.436	4.87
627.852	4.86
628.268	4.85
628.683	4.84
629.099	4.84
629.514	4.83
629.93	4.82
630.345	4.81
630.761	4.78
631.176	4.77
631.591	4.76
632.007	4.74
632.422	4.74
632.837	4.73
633.252	4.72
633.667	4.7
634.082	4.68
634.497	4.66
634.911	4.64
635.326	4.62
635.741	4.6
636.155	4.59
636.57	4.56
636.984	4.52
637.399	4.48
637.813	4.44
638.228	4.41
638.642	4.39
639.056	4.37
639.47	4.34
639.884	4.31
640.298	4.28
640.712	4.24
641.126	4.22
641.54	4.2
641.954	4.19
642.368	4.16
642.781	4.13
643.195	4.09
643.609	4.07
644.022	4.05
644.436	4.02
644.849	4
645.262	3.99
645.676	3.98
646.089	3.95
646.502	3.92
646.915	3.91
647.328	3.9
647.741	3.88
648.154	3.87
648.567	3.87
648.98	3.86
649.393	3.84
649.805	3.8
650.218	3.79
650.631	3.78
651.043	3.77
651.456	3.77
651.868	3.76
652.28	3.75
652.693	3.73
653.105	3.72
653.517	3.7
653.929	3.69
654.341	3.7
654.753	3.68
655.165	3.67
655.577	3.64
655.989	3.61
656.401	3.58
656.813	3.56
657.224	3.54
657.636	3.53
658.047	3.51
658.459	3.5
658.87	3.48
659.282	3.48
659.693	3.45
660.104	3.45
660.515	3.44
660.926	3.44
661.338	3.44
661.749	3.42
662.159	3.41
662.57	3.4
662.981	3.39
663.392	3.37
663.803	3.37
664.213	3.38
664.624	3.37
665.035	3.37
665.445	3.36
665.855	3.35
666.266	3.36
666.676	3.34
667.086	3.35
667.497	3.35
667.907	3.34
668.317	3.32
668.727	3.31
669.137	3.32
669.547	3.33
669.956	3.34
670.366	3.34
670.776	3.34
671.186	3.35
671.595	3.35
672.005	3.37
672.414	3.38
672.824	3.39
673.233	3.4
673.642	3.4
674.052	3.41
674.461	3.41
674.87	3.43
675.279	3.43
675.688	3.43
676.097	3.44
676.506	3.44
676.915	3.45
677.323	3.47
677.732	3.49
678.141	3.5
678.549	3.52
678.958	3.54
679.366	3.55
679.775	3.57
680.183	3.59
680.592	3.62
681	3.65
681.408	3.66
681.816	3.69
682.224	3.71
682.632	3.74
683.04	3.76
683.448	3.77
683.856	3.8
684.264	3.83
684.671	3.87
685.079	3.91
685.487	3.96
685.894	4.01
686.302	4.06
686.709	4.1
687.116	4.17
687.524	4.25
687.931	4.33
688.338	4.43
688.745	4.54
689.152	4.66
689.559	4.77
689.966	4.9
690.373	5.05
690.78	5.21
691.187	5.4
691.593	5.58
692	5.77
692.407	5.97
692.813	6.19
693.22	6.42
693.626	6.64
694.032	6.9
694.439	7.17
694.845	7.45
695.251	7.73
695.657	8.02
696.063	8.33
696.469	8.65
696.875	8.97
697.281	9.29
697.687	9.64
698.093	9.99
698.498	10.33
698.904	10.68
699.31	11.03
699.715	11.4
700.12	11.77
700.526	12.14
700.931	12.5
701.337	12.88
701.742	13.26
702.147	13.64
702.552	14.03
702.957	14.4
703.362	14.79
703.767	15.15
704.172	15.54
704.577	15.92
704.981	16.29
705.386	16.67
705.791	17.07
706.195	17.45
706.6	17.82
707.004	18.19
707.408	18.58
707.813	18.94
708.217	19.33
708.621	19.73
709.025	20.1
709.43	20.48
709.834	20.88
710.237	21.26
710.641	21.65
711.045	22.01
711.449	22.39
711.853	22.77
712.256	23.17
712.66	23.53
713.064	23.87
713.467	24.25
713.87	24.59
714.274	24.93
714.677	25.29
715.08	25.63
715.484	25.97
715.887	26.35
716.29	26.69
716.693	27.04
717.096	27.39
717.499	27.75
717.901	28.08
718.304	28.42
718.707	28.77
719.109	29.09
719.512	29.43
719.915	29.75
720.317	30.05
720.719	30.35
721.122	30.66
721.524	30.94
721.926	31.23
722.328	31.55
722.731	31.86
723.133	32.13
723.535	32.4
723.937	32.66
724.338	32.93
724.74	33.17
725.142	33.38
725.544	33.6
725.945	33.84
726.347	34.08
726.748	34.25
727.15	34.46
727.551	34.67
727.952	34.88
728.354	35.11
728.755	35.34
729.156	35.56
729.557	35.83
729.958	36.03
730.359	36.23
730.76	36.4
731.161	36.6
731.562	36.78
731.962	36.94
732.363	37.07
732.763	37.22
733.164	37.34
733.564	37.48
733.965	37.58
734.365	37.7
734.766	37.81
735.166	37.93
735.566	38.02
735.966	38.1
736.366	38.18
736.766	38.28
737.166	38.36
737.566	38.43
737.966	38.52
738.365	38.6
738.765	38.7
739.165	38.77
739.564	38.86
739.964	38.93
740.363	39.03
740.763	39.12
741.162	39.18
741.561	39.28
741.96	39.39
742.36	39.45
742.759	39.5
743.158	39.53
743.557	39.6
743.955	39.68
744.354	39.75
744.753	39.82
745.152	39.86
745.55	39.94
745.949	39.97
746.348	39.99
746.746	40
747.144	40.07
747.543	40.14
747.941	40.21
748.339	40.28
748.737	40.33
749.136	40.34
749.534	40.4
749.932	40.44
750.33	40.47
750.727	40.5
751.125	40.56
751.523	40.59
751.921	40.62
752.318	40.62
752.716	40.59
753.113	40.6
753.511	40.59
753.908	40.58
754.305	40.54
754.703	40.55
755.1	40.56
755.497	40.57
755.894	40.56
756.291	40.54
756.688	40.53
757.085	40.56
757.482	40.57
757.878	40.62
758.275	40.63
758.672	40.69
759.068	40.7
759.465	40.7
759.861	40.69
760.258	40.68
760.654	40.69
761.05	40.7
761.447	40.71
761.843	40.67
762.239	40.65
762.635	40.64
763.031	40.64
763.427	40.61
763.822	40.6
764.218	40.6
764.614	40.6
765.01	40.6
765.405	40.6
765.801	40.57
766.196	40.57
766.592	40.57
766.987	40.59
767.382	40.58
767.778	40.62
768.173	40.63
768.568	40.6
768.963	40.62
769.358	40.6
769.753	40.63
770.148	40.66
770.542	40.65
770.937	40.66
771.332	40.64
771.726	40.64
772.121	40.62
772.515	40.6
772.91	40.62
773.304	40.61
773.699	40.64
774.093	40.6
774.487	40.6
774.881	40.64
775.275	40.62
775.669	40.64
776.063	40.62
776.457	40.64
776.851	40.63
777.245	40.67
777.638	40.66
778.032	40.62
778.425	40.65
778.819	40.7
779.212	40.67
779.606	40.7
779.999	40.66
780.392	40.65
780.786	40.66
781.179	40.7
781.572	40.7
781.965	40.7
782.358	40.69
782.751	40.69
783.143	40.64
783.536	40.65
783.929	40.66
784.322	40.7
784.714	40.72
785.107	40.72
785.499	40.7
785.891	40.69
786.284	40.71
786.676	40.78
787.068	40.78
787.46	40.78
787.852	40.8
788.245	40.77
788.636	40.76
789.028	40.73
789.42	40.74
789.812	40.75
790.204	40.73
790.595	40.77
790.987	40.76
791.378	40.77
791.77	40.81
792.161	40.8
792.553	40.8
792.944	40.82
793.335	40.86
793.726	40.84
794.117	40.83
794.508	40.86
794.899	40.84
795.29	40.81
795.681	40.84
796.072	40.82
796.463	40.8
796.853	40.8
797.244	40.81
797.634	40.8
798.025	40.84
798.415	40.86
798.806	40.87
799.196	40.87
799.586	40.88
799.976	40.84
800.366	40.87
800.756	40.89
801.146	40.9
801.536	40.91
801.926	40.91
802.316	40.91
802.706	40.93
803.095	40.91
803.485	40.93
803.874	40.94
804.264	40.96
804.653	40.94
805.043	40.96
805.432	40.96
805.821	40.95
806.21	40.96
806.599	40.98
806.988	40.98
807.377	41.01
807.766	41
808.155	41.02
808.544	41.01
808.933	40.99
809.321	41
809.71	41.02
810.098	41.02
810.487	41.04
810.875	41.03
811.264	41.02
811.652	41
812.04	41
812.428	41.01
812.816	41.06
813.204	41.09
813.592	41.12
813.98	41.11
814.368	41.11
814.756	41.11
815.144	41.14
815.531	41.14
815.919	41.16
816.306	41.17
816.694	41.17
817.081	41.13
817.469	41.14
817.856	41.14
818.243	41.16
818.63	41.21
819.017	41.24
819.404	41.22
819.791	41.24
820.178	41.26
820.565	41.29
820.952	41.3
821.339	41.34
821.725	41.35
822.112	41.36
822.498	41.39
822.885	41.37
823.271	41.38
823.657	41.37
824.044	41.39
824.43	41.43
824.816	41.4
825.202	41.4
825.588	41.39
825.974	41.39
826.36	41.39
826.746	41.37
827.132	41.34
827.517	41.3
827.903	41.3
828.289	41.27
828.674	41.23
829.06	41.26
829.445	41.28
829.83	41.28
830.216	41.26
830.601	41.24
830.986	41.26
831.371	41.31
831.756	41.27
832.141	41.29
832.526	41.27
832.911	41.28
833.295	41.24
833.68	41.24
834.065	41.25
834.449	41.21
834.834	41.18
835.218	41.17
835.603	41.12
835.987	41.14
836.371	41.12
836.755	41.14
837.139	41.09
837.524	41.11
837.908	41.07
838.291	41.05
838.675	41.08
839.059	41.1
839.443	41.11
839.827	41.12
840.21	41.15
840.594	41.13
840.977	41.09
841.361	41.1
841.744	41.09
842.127	41.1
842.511	41.09
842.894	41.05
843.277	41.05
843.66	41
844.043	41
844.426	40.97
844.809	40.96
845.191	41
845.574	41.01
845.957	40.99
846.339	40.99
846.722	41
847.104	41
847.487	41.01
847.869	41.02
848.252	41
848.634	41.02
849.016	41.06
849.398	41.05
849.78	41.08
850.162	41.07
850.544	41.07
850.926	41.06
851.307	41.07
851.689	41.04
852.071	41.04
852.452	41.06
852.834	41.05
853.215	41.01
853.597	41.01
853.978	40.97
854.359	40.98
854.741	40.99
855.122	40.99
855.503	40.99
855.884	41.01
856.265	41
856.646	40.97
857.026	40.96
857.407	40.93
857.788	40.93
858.169	40.93
858.549	40.94
858.93	40.94
859.31	40.94
859.69	40.93
860.071	40.94
860.451	40.95
860.831	40.96
861.211	40.96
861.591	40.99
861.971	40.98
862.351	40.99
862.731	40.97
863.111	40.96
863.491	40.97
863.87	40.96
864.25	40.94
864.629	40.93
865.009	40.94
865.388	40.96
865.768	40.95
866.147	40.98
866.526	40.99
866.905	41.01
867.284	41.02
867.663	41.01
868.042	41.03
868.421	41.05
868.8	41.06
869.179	41.09
869.558	41.09
869.936	41.1
870.315	41.07
870.693	41.07
871.072	41.06
871.45	41.04
871.828	41.06
872.207	41.07
872.585	41.05
872.963	41.04
873.341	40.99
873.719	40.99
874.097	40.98
874.475	40.98
874.853	40.98
875.23	40.98
875.608	40.98
875.986	40.94
876.363	40.93
876.741	40.93
877.118	40.94
877.495	40.98
877.873	40.96
878.25	40.96
878.627	40.95
879.004	40.93
879.381	40.93
879.758	40.93
880.135	40.97
880.512	41
880.889	41.01
881.265	41
881.642	40.98
882.019	41
882.395	40.98
882.772	40.99
883.148	41
883.524	41
883.901	41
884.277	40.96
884.653	40.92
885.029	40.91
885.405	40.89
885.781	40.88
886.157	40.88
886.532	40.89
886.908	40.92
887.284	40.94
887.659	40.95
888.035	40.94
888.411	40.96
888.786	40.98
889.161	41.01
889.537	41.02
889.912	41.01
890.287	41.01
890.662	41
891.037	40.95
891.412	40.92
891.787	40.89
892.162	40.85
892.536	40.82
892.911	40.77
893.286	40.73
893.66	40.72
894.035	40.71
894.409	40.68
894.784	40.67
895.158	40.66
895.532	40.62
895.906	40.59
896.281	40.6
896.655	40.58
897.029	40.59
897.402	40.59
897.776	40.57
898.15	40.55
898.524	40.52
898.898	40.5
899.271	40.5
899.645	40.52
900.018	40.53
900.392	40.54
900.765	40.54
901.138	40.54
901.511	40.53
901.884	40.54
902.258	40.53
902.631	40.55
903.003	40.56
903.376	40.54
903.749	40.55
904.122	40.57
904.495	40.58
904.867	40.59
905.24	40.61
905.612	40.6
905.985	40.57
906.357	40.58
906.729	40.61
907.102	40.61
907.474	40.64
907.846	40.62
908.218	40.59
908.59	40.56
908.962	40.57
909.334	40.56
909.705	40.59
910.077	40.6
910.449	40.61
910.82	40.57
911.192	40.56
911.563	40.52
911.935	40.52
912.306	40.57
912.677	40.6
913.048	40.61
913.419	40.62
913.79	40.62
914.161	40.61
914.532	40.6
914.903	40.62
915.274	40.61
915.645	40.65
916.015	40.68
916.386	40.65
916.756	40.61
917.127	40.6
917.497	40.6
917.868	40.61
918.238	40.64
918.608	40.64
918.978	40.64
919.348	40.65
919.718	40.65
920.088	40.62
920.458	40.68
920.828	40.71
921.198	40.72
921.567	40.72
921.937	40.72
922.306	40.72
922.676	40.73
923.045	40.72
923.415	40.72
923.784	40.72
924.153	40.72
924.522	40.67
924.891	40.65
925.26	40.64
925.629	40.64
925.998	40.63
926.367	40.62
926.736	40.6
927.104	40.62
927.473	40.64
927.842	40.59
928.21	40.62
928.578	40.59
928.947	40.54
929.315	40.52
929.683	40.53
930.051	40.55
930.42	40.51
930.788	40.53
931.156	40.47
931.523	40.41
931.891	40.41
932.259	40.35
932.627	40.33
932.994	40.36
933.362	40.29
933.729	40.2
934.097	40.15
934.464	40.13
934.831	40.1
935.199	40.08
935.566	40.06
935.933	40.17
936.3	40.1
936.667	40.09
937.034	40.05
937.401	40.05
937.767	40.02
938.134	39.96
938.501	39.94
938.867	39.89
939.234	39.89
939.6	39.86
939.967	39.69
940.333	39.74
940.699	39.77
941.065	39.76
941.431	39.75
941.798	39.82
942.163	39.91
942.529	39.91
942.895	39.91
943.261	39.92
943.627	40.01
943.992	40.06
944.358	40.09
944.723	40.06
945.089	40.1
945.454	40.19
945.82	40.17
946.185	40.2
946.55	40.25
946.915	40.3
947.28	40.36
947.645	40.38
948.01	40.42
948.375	40.36
948.74	40.38
949.104	40.43
949.469	40.34
949.834	40.29
950.198	40.22
950.562	40.22
950.927	40.22
951.291	40.19
951.655	40.17
952.02	40.1
952.384	40.18
952.748	40.17
953.112	40.13
953.476	40.15
953.839	40.18
954.203	40.18
954.567	40.13
954.931	40.06
955.294	40.06
955.658	39.97
956.021	40
956.385	39.98
956.748	40.01
957.111	39.96
957.474	39.99
957.837	40.04
958.2	40.03
958.563	39.96
958.926	40.01
959.289	39.99
959.652	40.05
960.015	40.02
960.377	39.95
960.74	39.9
961.102	39.94
961.465	39.97
961.827	39.8
962.189	39.79
962.552	39.82
962.914	39.78
963.276	39.72
963.638	39.67
964	39.67
964.362	39.7
964.724	39.69
965.085	39.73
965.447	39.7
965.809	39.75
966.17	39.77
966.532	39.81
966.893	39.84
967.255	39.87
967.616	39.86
967.977	39.86
968.338	39.87
968.699	39.89
969.061	39.81
969.421	39.78
969.782	39.81
970.143	39.8
970.504	39.74
970.865	39.68
971.225	39.69
971.586	39.71
971.946	39.69
972.307	39.66
972.667	39.68
973.027	39.73
973.388	39.72
973.748	39.7
974.108	39.71
974.468	39.67
974.828	39.74
975.188	39.77
975.548	39.78
975.907	39.75
976.267	39.72
976.627	39.64
976.986	39.64
977.346	39.62
977.705	39.67
978.064	39.6
978.424	39.64
978.783	39.68
979.142	39.62
979.501	39.56
979.86	39.56
980.219	39.5
980.578	39.5
980.937	39.55
981.296	39.59
981.654	39.65
982.013	39.71
982.371	39.7
982.73	39.64
983.088	39.56
983.447	39.56
983.805	39.56
984.163	39.64
984.521	39.59
984.879	39.55
985.237	39.57
985.595	39.44
985.953	39.39
986.311	39.39
986.669	39.39
987.026	39.37
987.384	39.39
987.741	39.51
988.099	39.53
988.456	39.66
988.814	39.57
989.171	39.47
989.528	39.53
989.885	39.47
990.242	39.47
990.599	39.54
990.956	39.68
991.313	39.64
991.67	39.54
992.027	39.52
992.383	39.44
992.74	39.55
993.096	39.54
993.453	39.49
993.809	39.69
994.165	39.77
994.522	39.63
994.878	39.51
995.234	39.57
995.59	39.52
995.946	39.51
996.302	39.47
996.658	39.46
997.013	39.48
997.369	39.58
997.725	39.39
998.08	39.29
998.436	39.43
998.791	39.46
999.147	39.49
999.502	39.59
999.857	39.59
1000.212	39.56
1000.567	39.33
1000.922	39.35
1001.277	39.28
1001.632	39.38
1001.987	39.37
1002.342	39.33
1002.696	39.49
1003.051	39.28
1003.406	39.11
1003.76	39.12
1004.114	39.32
1004.469	39.37
1004.823	39.38
1005.177	39.41
1005.531	39.38
1005.885	39.37
1006.239	39.25
1006.593	39
1006.947	39
1007.301	39.04
1007.655	39.13
1008.008	39.02
1008.362	39.04
1008.715	39.04
1009.069	38.9
1009.422	38.77
1009.776	38.75
1010.129	38.57
1010.482	38.59
1010.835	38.69
1011.188	38.39
1011.541	38.07
1011.894	37.84
1012.247	37.83
1012.6	37.76
1012.952	37.67
1013.305	37.7
1013.657	37.81
1014.01	38
1014.362	38.17
1014.715	38.07
1015.067	38.37
1015.419	38.6
1015.771	38.88
1016.123	38.89
1016.475	39.03
1016.827	39.28
1017.179	39.15
1017.531	39.08
1017.883	39.05
1018.234	38.94
1018.586	39.02
1018.938	38.72
1019.289	38.49
1019.64	38.53
1019.992	38.59
1020.343	38.18
1020.694	38
1021.045	38.17
1021.396	37.83
1021.747	37.56
1022.098	37.7
1022.449	37.49
1022.8	37.56
1023.151	37.59
1023.501	37.28
1023.852	37.17
1024.202	37.52
1024.553	37.6
1024.903	37.73
1025.253	37.94
1025.604	38.29
1025.954	37.91
1026.304	38.51
1026.654	38.82
1027.004	38.7
1027.354	38.79
1027.703	38.77
1028.053	38.42
1028.403	37.64
1028.753	37.71
1029.102	37.47
1029.452	37.14
1029.801	37.18
1030.15	36.71
1030.499	36.5
897.758	578.93
901.051	594.58
904.343	602.29
907.636	590.53
910.928	579.26
914.22	589.28
917.511	576.52
920.803	555.17
924.094	532.03
927.384	538.52
930.675	529.46
933.965	521.35
937.255	516.81
940.544	492.52
943.834	474.2
947.123	468.88
950.411	443.24
953.7	433.57
956.988	420.34
960.276	404.19
963.563	399.13
966.851	375.26
970.138	368.64
973.424	344.69
976.711	341.01
979.997	329.59
983.283	319.04
986.568	309.56
989.853	302.67
993.138	290.79
996.423	285.09
999.708	277.15
1002.992	278.54
1006.275	269.8
1009.559	267.42
1012.842	259.98
1016.125	250.23
1019.408	247.64
1022.69	246.21
1025.972	242.57
1029.254	237.47
1032.536	233.28
1035.817	225.66
1039.098	222.13
1042.379	217.79
1045.659	214.19
1048.939	213.04
1052.219	209.46
1055.498	206.59
1058.778	202.33
1062.057	199.4
1065.335	198.16
1068.614	194.93
1071.892	193.49
1075.17	189
1078.447	187.42
1081.724	186.59
1085.001	181.32
1088.278	182.34
1091.554	180.85
1094.83	179.55
1098.106	176.43
1101.382	175.41
1104.657	175.15
1107.932	173.52
1111.206	173.73
1114.481	170.81
1117.755	169.83
1121.029	169.67
1124.302	166.83
1127.575	163.27
1130.848	162.7
1134.121	161.24
1137.393	160.69
1140.665	159.72
1143.937	157.93
1147.208	156.06
1150.48	155.15
1153.75	154.4
1157.021	152.47
1160.291	152
1163.561	152.1
1166.831	150.9
1170.101	150.71
1173.37	149.45
1176.639	148
1179.907	148.03
1183.176	146.39
1186.444	147.33
1189.711	145.39
1192.979	147.23
1196.246	147.24
1199.513	147.85
1202.78	147.5
1206.046	147.09
1209.312	148.12
1212.578	148.9
1215.843	151.03
1219.108	153.4
1222.373	154.79
1225.638	158.09
1228.902	160.94
1232.166	165.57
1235.43	167.14
1238.693	172.04
1241.956	175.58
1245.219	180.74
1248.482	181.1
1251.744	180.63
1255.006	180.92
1258.268	176.9
1261.529	175.19
1264.79	171.71
1268.051	168.12
1271.312	167.18
1274.572	163.65
1277.832	160.36
1281.092	157.16
1284.351	154.61
1287.61	154.51
1290.869	153.72
1294.128	153.5
1297.386	152.71
1300.644	151.34
1303.902	150.52
1307.159	148.78
1310.416	150.41
1313.673	151.9
1316.93	153.19
1320.186	155.22
1323.442	157.3
1326.697	159.2
1329.953	161.36
1333.208	166.25
1336.463	172.79
1339.717	176.77
1342.972	185
1346.226	189.87
1349.479	191.53
1352.733	199.75
1355.986	204.68
1359.238	208.13
1362.491	210.71
1365.743	216.46
1368.995	217.91
1372.247	216.6
1375.498	216.03
1378.749	223.22
1382	221.43
1385.251	220.48
1388.501	219.68
1391.751	221.35
1395	219.44
1398.25	221.72
1401.499	220.55
1404.748	219.45
1407.996	214.63
1411.244	213.76
1414.492	209.74
1417.74	204.71
1420.987	200.86
1424.234	196.83
1427.481	189.79
1430.728	184.91
1433.974	177.32
1437.22	173.59
1440.465	167.17
1443.711	163
1446.956	157.8
1450.201	152.2
1453.445	145.02
1456.689	140.72
1459.933	136.03
1463.177	130.34
1466.42	128.23
1469.663	124.53
1472.906	119.92
1476.148	116.96
1479.391	115.01
1482.633	113.01
1485.874	111.13
1489.115	110.36
1492.356	107.67
1495.597	106.59
1498.838	106.58
1502.078	105.06
1505.318	104.99
1508.557	104.16
1511.797	103.02
1515.036	102.23
1518.274	102.31
1521.513	100.45
1524.751	100.16
1527.989	101.42
1531.227	100.64
1534.464	99.98
1537.701	99.61
1540.938	99.16
1544.174	99.2
1547.41	99.99
1550.646	99.52
1553.882	99.45
1557.117	99.16
1560.352	98.7
1563.587	98.15
1566.821	98.03
1570.055	97.53
1573.289	97.43
1576.523	97.49
1579.756	97.58
1582.989	96.94
1586.222	97.17
1589.454	96.19
1592.686	96.66
1595.918	96.62
1599.15	96.28
1602.381	96.46
1605.612	96.56
1608.843	96.41
1612.073	96.8
1615.303	96.59
1618.533	96.76
1621.762	96.88
1624.992	97.15
1628.221	96.86
1631.449	97.62
1634.678	97.6
1637.906	98.05
1641.134	98.08
1644.361	98.05
1647.588	98.42
1650.815	98.7
1654.042	98.47
1657.269	98.05
1660.495	99.28
1663.72	98.85
1666.946	98.67
1670.171	99.17
1673.396	99.46
1676.621	99.87
1679.845	100.29
1683.069	99.7
1686.293	99.1
1689.517	99.61
1692.74	99.97
1695.963	99.29
1699.185	100.53
1702.408	100.31
1705.63	100.41
1708.852	100.56
1712.073	100.58
1715.294	100.5
1718.515	100.51
1721.736	100.93
1724.956	101.77
1728.176	101.49
1731.396	102.22
1734.616	102.1
1737.835	102.25
1741.054	101.43
1744.272	101.88
1747.491	101.31
1750.709	102.15
1753.927	102.67
1757.144	103.15
1760.361	102.35
1763.578	103.43
1766.795	103.72
1770.011	103.74
1773.227	104.4
1776.443	106.02
1779.658	105.21
1782.874	106.7
1786.089	105.83
1789.303	105.84
1792.518	106.57
1795.732	107.81
1798.945	108.13
1802.159	108.11
1805.372	109.26
1808.585	110.04
1811.797	110.72
1815.01	111.99
1818.222	111.99
1821.434	113.91
1824.645	114.62
1827.856	116.34
1831.067	115.82
1834.278	117.49
1837.488	118.91
1840.698	119.75
1843.908	119.49
1847.117	120.61
1850.326	121.48
1853.535	123.33
1856.744	123.88
1859.952	125.28
1863.16	125.12
1866.368	125.15
1869.575	125.06
1872.782	123.89
1875.989	122.97
1879.196	123.15
1882.402	121.22
1885.608	121.76
1888.814	120.25
1892.019	121.25
1895.224	119.55
1898.429	118.54
1901.634	119.44
1904.838	120.19
1908.042	121.5
1911.246	121.13
1914.449	121.36
1917.652	122.11
1920.855	121.97
1924.058	121.1
1927.26	120.5
1930.462	120.45
1933.664	122.41
1936.865	122.51
1940.066	120.35
1943.267	118.26
1946.467	119.66
1949.668	119.78
1952.868	120.82
1956.067	120.88
1959.267	122.04
1962.466	122.27
1965.665	125.12
1968.863	123.48
1972.061	125.77
1975.259	127.38
1978.457	131.19
1981.654	131.56
1984.852	132.85
1988.048	133.79
1991.245	135.75
1994.441	137.85
1997.637	140.85
2000.833	143.1
2004.028	145.51
2007.223	147.49
2010.418	152.1
2013.613	156.76
2016.807	161.55
2020.001	164.26
2023.194	168.59
2026.388	174.31
2029.581	184.12
2032.774	189.58
2035.966	194.91
2039.158	201
2042.35	203.45
2045.542	207.52
2048.733	214.24
2051.924	216.37
2055.115	221.63
2058.306	224.69
2061.496	227.46
2064.686	227.83
2067.875	224
2071.065	227.29
2074.254	227.54
2077.442	236.53
2080.631	237.2
2083.819	238.81
2087.007	243.74
2090.195	247.33
2093.382	247.87
2096.569	249.36
2099.756	250.36
2102.942	259.38
2106.128	262.84
2109.314	265.35
2112.5	264.02
2115.685	262.16
2118.87	263.03
2122.055	265.25
2125.239	268.67
2128.424	273.34
2131.608	273
2134.791	274.92
2137.974	275.66
2141.157	277.79
2144.34	280.08
2147.523	287.19
2150.705	295.72
2153.887	292.23
2157.068	294.1
2160.25	297.1
2163.431	296.02
2166.611	299.33
2169.792	304.9
2172.972	308.4
2176.152	307.36
2179.331	315.04
2182.511	312.9
2185.69	316.75
2188.868	330.19
2192.047	339.76
2195.225	345.03
2198.403	349.14
2201.58	346.11
2204.758	358.28
2207.935	359.15
2211.111	369.24
2214.288	370.01
2217.464	373.21
2220.64	375.68
2223.815	376.11
2226.991	369.17
2230.166	371.77
2233.34	383.89
2236.515	395.4
2239.689	388.33
2242.863	396.93
2246.036	391.86
2249.209	403.7
2252.382	400.38
2255.555	417.42
2258.727	420.04
2261.9	433.14
2265.071	437.83
2268.243	436.32
2271.414	449.98
2274.585	460.95
2277.756	459.96
2280.926	478.74
2284.096	477.67
2287.266	484.8
2290.436	473.21
2293.605	486.43
2296.774	501.77
2299.942	507.19
2303.111	519.67
2306.279	527.45
2309.447	527.58
2312.614	530.39
2315.781	542.48
2318.948	548.1
2322.115	558.31
2325.281	590.23
2328.447	579.86
2331.613	584.21
2334.779	586.56
2337.944	597.98
2341.109	608.05
2344.274	617.52
2347.438	630.35
2350.602	639.28
2353.766	681.45
2356.929	683.49
2360.092	692.98
2363.255	700.82
2366.418	711.01
2369.58	722.71
2372.742	727.12
2375.904	721.8
2379.066	740.92
2382.227	787.34
2385.388	785.33
2388.548	748.04
2391.709	737.61
2394.869	758.18
2398.029	761.37
2401.188	763.95
2404.347	785.04
2407.506	807.56
2410.665	788.56
2413.823	786.41
2416.981	789.73
2420.139	754.99
2423.296	808.22
2426.453	865.57
2429.61	821.01
2432.767	872.08
2435.923	901.66
2439.079	877.81
2442.235	895.08
2445.391	908.12
2448.546	904.48
2451.701	949.9
2454.855	1010.85
2458.009	900.49
2461.163	915.82
2464.317	936.44
2467.471	917.9
2470.624	948.56
2473.777	933.73
2476.929	904.91
2480.082	964.42
2483.234	1011.58
2486.385	1028.62
2489.537	1058.03
2492.688	1158.43
2495.839	1136.15
2498.989	1165.19
2502.14	1169.18
2505.29	1112.01
2508.439	1227.44
2511.589	1255.71
2514.738	1229.62
2517.887	1214.82
2521.035	1138.43
2524.183	1121.44
2527.331	1115.6
2530.479	1091.22
2533.627	1112.74
