Data from C_3_div_oh_2n_Splice17_12.txt Node
Date: Sat Feb 29 14:39:00 EST 2020
User: sa697716
Spectrometer: FLMS03696
Trigger mode: 0
Integration Time (sec): 3.180400E-1
Scans to average: 20
Electric dark correction enabled: true
Nonlinearity correction enabled: true
Boxcar width: 5
XAxis mode: Wavelengths
Number of Pixels in Spectrum: 2048
>>>>>Begin Spectral Data<<<<<
187.83	40.36
188.298	29.27
188.766	33.85
189.233	23.64
189.701	36.17
190.169	45.49
190.636	55.98
191.104	37.7
191.571	175.36
192.039	222.82
192.506	-207.38
192.974	969.14
193.441	122.15
193.908	32.96
194.375	19.56
194.842	75.58
195.31	66.21
195.777	84.41
196.244	-27.13
196.711	-21.03
197.177	-22.69
197.644	-22.22
198.111	-22.88
198.578	-22.72
199.045	-22.8
199.511	-21.91
199.978	-21.15
200.445	-21.18
200.911	-21.12
201.378	-20.35
201.844	-20.16
202.31	-19.44
202.777	-19.11
203.243	-18.59
203.709	-17.97
204.176	-17.8
204.642	-17.65
205.108	-17.78
205.574	-17.25
206.04	-16.71
206.506	-16.68
206.972	-16.37
207.438	-16.76
207.903	-15.91
208.369	-15.35
208.835	-15.23
209.301	-14.42
209.766	-13.89
210.232	-13.3
210.697	-12.54
211.163	-12.12
211.628	-11.45
212.094	-10.8
212.559	-10.19
213.024	-10.07
213.49	-9.69
213.955	-9.08
214.42	-8.46
214.885	-7.94
215.35	-6.99
215.815	-6.3
216.28	-5.16
216.745	-3.84
217.21	-2.61
217.675	-1.3
218.14	-0.31
218.604	0.43
219.069	1.24
219.534	1.78
219.998	2.24
220.463	2.69
220.927	3.05
221.392	3.37
221.856	3.57
222.32	3.75
222.785	3.86
223.249	4.01
223.713	4.13
224.177	4.16
224.642	4.25
225.106	4.31
225.57	4.32
226.034	4.36
226.497	4.35
226.961	4.35
227.425	4.35
227.889	4.36
228.353	4.37
228.816	4.39
229.28	4.39
229.744	4.38
230.207	4.37
230.671	4.36
231.134	4.34
231.597	4.32
232.061	4.3
232.524	4.3
232.987	4.28
233.45	4.24
233.914	4.21
234.377	4.2
234.84	4.17
235.303	4.15
235.766	4.13
236.229	4.11
236.691	4.1
237.154	4.08
237.617	4.02
238.08	3.97
238.542	3.93
239.005	3.89
239.468	3.84
239.93	3.8
240.393	3.76
240.855	3.71
241.317	3.68
241.78	3.67
242.242	3.61
242.704	3.61
243.166	3.61
243.629	3.61
244.091	3.59
244.553	3.58
245.015	3.57
245.477	3.55
245.939	3.55
246.4	3.54
246.862	3.52
247.324	3.54
247.786	3.54
248.247	3.52
248.709	3.51
249.17	3.51
249.632	3.49
250.093	3.47
250.555	3.46
251.016	3.46
251.477	3.45
251.939	3.43
252.4	3.42
252.861	3.4
253.322	3.38
253.783	3.37
254.244	3.36
254.705	3.36
255.166	3.37
255.627	3.37
256.088	3.36
256.549	3.37
257.009	3.37
257.47	3.37
257.931	3.36
258.391	3.36
258.852	3.35
259.312	3.34
259.773	3.33
260.233	3.32
260.694	3.31
261.154	3.3
261.614	3.29
262.074	3.28
262.534	3.26
262.994	3.26
263.455	3.26
263.915	3.26
264.374	3.25
264.834	3.25
265.294	3.25
265.754	3.24
266.214	3.24
266.673	3.23
267.133	3.23
267.593	3.23
268.052	3.22
268.512	3.22
268.971	3.21
269.431	3.21
269.89	3.21
270.349	3.19
270.809	3.19
271.268	3.19
271.727	3.18
272.186	3.18
272.645	3.17
273.104	3.17
273.563	3.17
274.022	3.16
274.481	3.16
274.94	3.16
275.399	3.17
275.857	3.16
276.316	3.15
276.775	3.14
277.233	3.13
277.692	3.12
278.15	3.11
278.609	3.09
279.067	3.08
279.525	3.07
279.984	3.06
280.442	3.05
280.9	3.04
281.358	3.02
281.816	3.02
282.274	3.01
282.732	3
283.19	3
283.648	2.99
284.106	2.98
284.564	2.99
285.021	2.98
285.479	2.98
285.937	2.97
286.394	2.97
286.852	2.97
287.309	2.98
287.767	2.98
288.224	2.99
288.682	2.98
289.139	2.99
289.596	2.98
290.053	2.98
290.511	2.98
290.968	2.99
291.425	2.99
291.882	2.99
292.339	2.98
292.796	2.97
293.252	2.97
293.709	2.97
294.166	2.97
294.623	2.98
295.079	2.97
295.536	2.97
295.992	2.96
296.449	2.95
296.905	2.95
297.362	2.94
297.818	2.94
298.274	2.93
298.731	2.92
299.187	2.91
299.643	2.9
300.099	2.89
300.555	2.88
301.011	2.87
301.467	2.86
301.923	2.86
302.379	2.85
302.835	2.83
303.291	2.83
303.746	2.82
304.202	2.81
304.658	2.79
305.113	2.79
305.569	2.78
306.024	2.76
306.479	2.75
306.935	2.75
307.39	2.74
307.845	2.74
308.301	2.74
308.756	2.74
309.211	2.73
309.666	2.73
310.121	2.72
310.576	2.71
311.031	2.71
311.486	2.7
311.94	2.69
312.395	2.68
312.85	2.66
313.305	2.65
313.759	2.64
314.214	2.63
314.668	2.63
315.123	2.63
315.577	2.63
316.032	2.62
316.486	2.62
316.94	2.61
317.394	2.61
317.849	2.61
318.303	2.61
318.757	2.6
319.211	2.6
319.665	2.59
320.119	2.59
320.572	2.59
321.026	2.58
321.48	2.57
321.934	2.58
322.387	2.58
322.841	2.57
323.295	2.57
323.748	2.56
324.202	2.56
324.655	2.56
325.108	2.54
325.562	2.53
326.015	2.53
326.468	2.52
326.921	2.5
327.374	2.49
327.827	2.49
328.28	2.48
328.733	2.47
329.186	2.47
329.639	2.45
330.092	2.44
330.545	2.43
330.997	2.43
331.45	2.42
331.903	2.41
332.355	2.41
332.808	2.41
333.26	2.41
333.713	2.41
334.165	2.4
334.617	2.41
335.069	2.41
335.522	2.41
335.974	2.41
336.426	2.4
336.878	2.41
337.33	2.4
337.782	2.4
338.234	2.39
338.686	2.39
339.137	2.4
339.589	2.4
340.041	2.4
340.493	2.39
340.944	2.39
341.396	2.39
341.847	2.4
342.299	2.39
342.75	2.38
343.201	2.37
343.653	2.37
344.104	2.36
344.555	2.35
345.006	2.36
345.457	2.36
345.908	2.36
346.359	2.37
346.81	2.38
347.261	2.38
347.712	2.4
348.163	2.4
348.613	2.39
349.064	2.38
349.515	2.38
349.965	2.37
350.416	2.36
350.866	2.35
351.317	2.34
351.767	2.33
352.217	2.33
352.668	2.32
353.118	2.32
353.568	2.33
354.018	2.34
354.468	2.34
354.918	2.34
355.368	2.34
355.818	2.34
356.268	2.34
356.718	2.34
357.168	2.33
357.617	2.33
358.067	2.33
358.517	2.32
358.966	2.31
359.416	2.32
359.865	2.31
360.315	2.31
360.764	2.32
361.213	2.3
361.663	2.31
362.112	2.3
362.561	2.29
363.01	2.31
363.459	2.3
363.908	2.3
364.357	2.3
364.806	2.3
365.255	2.3
365.703	2.3
366.152	2.31
366.601	2.3
367.05	2.3
367.498	2.31
367.947	2.3
368.395	2.31
368.844	2.3
369.292	2.29
369.74	2.3
370.189	2.29
370.637	2.28
371.085	2.28
371.533	2.27
371.981	2.27
372.429	2.26
372.877	2.27
373.325	2.26
373.773	2.26
374.221	2.26
374.669	2.25
375.116	2.25
375.564	2.24
376.012	2.23
376.459	2.23
376.907	2.24
377.354	2.23
377.801	2.22
378.249	2.22
378.696	2.22
379.143	2.22
379.591	2.22
380.038	2.23
380.485	2.23
380.932	2.23
381.379	2.21
381.826	2.22
382.273	2.21
382.72	2.21
383.166	2.22
383.613	2.22
384.06	2.22
384.506	2.21
384.953	2.2
385.4	2.2
385.846	2.2
386.292	2.2
386.739	2.19
387.185	2.2
387.631	2.2
388.078	2.2
388.524	2.19
388.97	2.18
389.416	2.17
389.862	2.16
390.308	2.17
390.754	2.16
391.2	2.16
391.645	2.16
392.091	2.14
392.537	2.13
392.983	2.12
393.428	2.13
393.874	2.13
394.319	2.14
394.765	2.14
395.21	2.13
395.655	2.13
396.101	2.13
396.546	2.13
396.991	2.13
397.436	2.11
397.881	2.11
398.326	2.12
398.771	2.11
399.216	2.12
399.661	2.12
400.106	2.13
400.551	2.11
400.995	2.11
401.44	2.1
401.885	2.11
402.329	2.11
402.774	2.1
403.218	2.08
403.663	2.07
404.107	2.06
404.551	2.05
404.995	2.04
405.44	2.04
405.884	2.04
406.328	2.03
406.772	2.02
407.216	2.01
407.66	2
408.104	1.99
408.547	2
408.991	1.99
409.435	1.99
409.879	1.99
410.322	1.98
410.766	1.98
411.209	1.98
411.653	1.96
412.096	1.95
412.54	1.94
412.983	1.95
413.426	1.93
413.869	1.94
414.312	1.92
414.756	1.93
415.199	1.92
415.642	1.92
416.085	1.93
416.527	1.95
416.97	1.97
417.413	1.97
417.856	1.96
418.298	1.94
418.741	1.93
419.184	1.93
419.626	1.91
420.069	1.9
420.511	1.9
420.953	1.88
421.396	1.86
421.838	1.85
422.28	1.85
422.722	1.85
423.164	1.87
423.606	1.86
424.048	1.85
424.49	1.87
424.932	1.87
425.374	1.87
425.816	1.88
426.258	1.88
426.699	1.87
427.141	1.86
427.582	1.86
428.024	1.85
428.465	1.85
428.907	1.86
429.348	1.84
429.789	1.84
430.231	1.82
430.672	1.81
431.113	1.79
431.554	1.78
431.995	1.79
432.436	1.78
432.877	1.77
433.318	1.75
433.759	1.73
434.2	1.72
434.64	1.7
435.081	1.69
435.522	1.68
435.962	1.69
436.403	1.69
436.843	1.68
437.284	1.67
437.724	1.69
438.164	1.7
438.604	1.7
439.045	1.69
439.485	1.7
439.925	1.69
440.365	1.68
440.805	1.67
441.245	1.64
441.685	1.65
442.125	1.65
442.564	1.63
443.004	1.62
443.444	1.61
443.883	1.61
444.323	1.58
444.762	1.58
445.202	1.61
445.641	1.6
446.081	1.61
446.52	1.59
446.959	1.56
447.398	1.58
447.837	1.6
448.276	1.59
448.716	1.6
449.154	1.62
449.593	1.62
450.032	1.59
450.471	1.6
450.91	1.6
451.349	1.62
451.787	1.62
452.226	1.6
452.664	1.58
453.103	1.59
453.541	1.6
453.98	1.6
454.418	1.59
454.856	1.59
455.295	1.58
455.733	1.6
456.171	1.61
456.609	1.62
457.047	1.63
457.485	1.63
457.923	1.63
458.361	1.61
458.798	1.61
459.236	1.62
459.674	1.63
460.111	1.63
460.549	1.6
460.987	1.6
461.424	1.59
461.862	1.58
462.299	1.57
462.736	1.57
463.173	1.58
463.611	1.57
464.048	1.56
464.485	1.54
464.922	1.55
465.359	1.56
465.796	1.53
466.233	1.54
466.67	1.55
467.106	1.53
467.543	1.53
467.98	1.52
468.416	1.52
468.853	1.52
469.29	1.53
469.726	1.51
470.162	1.5
470.599	1.52
471.035	1.52
471.471	1.52
471.907	1.51
472.344	1.52
472.78	1.54
473.216	1.55
473.652	1.56
474.088	1.58
474.523	1.59
474.959	1.6
475.395	1.6
475.831	1.6
476.266	1.61
476.702	1.61
477.138	1.62
477.573	1.62
478.008	1.62
478.444	1.61
478.879	1.6
479.314	1.6
479.75	1.6
480.185	1.62
480.62	1.62
481.055	1.63
481.49	1.64
481.925	1.65
482.36	1.64
482.795	1.63
483.229	1.64
483.664	1.64
484.099	1.64
484.534	1.64
484.968	1.64
485.403	1.63
485.837	1.63
486.271	1.62
486.706	1.62
487.14	1.62
487.574	1.63
488.009	1.63
488.443	1.64
488.877	1.64
489.311	1.64
489.745	1.64
490.179	1.64
490.613	1.65
491.046	1.66
491.48	1.65
491.914	1.65
492.348	1.64
492.781	1.64
493.215	1.64
493.648	1.64
494.082	1.65
494.515	1.65
494.948	1.65
495.382	1.64
495.815	1.65
496.248	1.65
496.681	1.65
497.114	1.64
497.547	1.63
497.98	1.63
498.413	1.63
498.846	1.61
499.279	1.61
499.711	1.61
500.144	1.6
500.577	1.59
501.009	1.58
501.442	1.59
501.874	1.59
502.306	1.58
502.739	1.57
503.171	1.58
503.603	1.59
504.036	1.58
504.468	1.58
504.9	1.58
505.332	1.58
505.764	1.59
506.196	1.6
506.627	1.59
507.059	1.59
507.491	1.6
507.923	1.61
508.354	1.61
508.786	1.6
509.217	1.59
509.649	1.59
510.08	1.6
510.512	1.59
510.943	1.58
511.374	1.58
511.805	1.57
512.237	1.57
512.668	1.55
513.099	1.55
513.53	1.55
513.961	1.56
514.391	1.55
514.822	1.53
515.253	1.53
515.684	1.53
516.114	1.54
516.545	1.55
516.975	1.55
517.406	1.54
517.836	1.54
518.267	1.55
518.697	1.55
519.127	1.56
519.558	1.57
519.988	1.58
520.418	1.57
520.848	1.57
521.278	1.57
521.708	1.52
522.138	1.54
522.567	1.53
522.997	1.52
523.427	1.52
523.857	1.52
524.286	1.51
524.716	1.51
525.145	1.53
525.575	1.52
526.004	1.51
526.433	1.56
526.863	1.55
527.292	1.56
527.721	1.57
528.15	1.55
528.579	1.55
529.008	1.56
529.437	1.56
529.866	1.55
530.295	1.56
530.724	1.58
531.152	1.59
531.581	1.58
532.01	1.58
532.438	1.58
532.867	1.57
533.295	1.58
533.723	1.58
534.152	1.58
534.58	1.57
535.008	1.56
535.436	1.55
535.865	1.54
536.293	1.55
536.721	1.55
537.149	1.55
537.576	1.56
538.004	1.56
538.432	1.55
538.86	1.55
539.287	1.56
539.715	1.57
540.143	1.56
540.57	1.55
540.998	1.55
541.425	1.55
541.852	1.55
542.28	1.55
542.707	1.55
543.134	1.55
543.561	1.54
543.988	1.54
544.415	1.53
544.842	1.53
545.269	1.55
545.696	1.55
546.123	1.53
546.549	1.54
546.976	1.53
547.403	1.54
547.829	1.54
548.256	1.55
548.682	1.55
549.108	1.55
549.535	1.54
549.961	1.54
550.387	1.54
550.813	1.53
551.24	1.53
551.666	1.53
552.092	1.53
552.518	1.54
552.943	1.54
553.369	1.54
553.795	1.54
554.221	1.55
554.646	1.55
555.072	1.56
555.498	1.57
555.923	1.57
556.349	1.56
556.774	1.57
557.199	1.57
557.625	1.57
558.05	1.57
558.475	1.57
558.9	1.56
559.325	1.55
559.75	1.54
560.175	1.53
560.6	1.54
561.025	1.55
561.449	1.55
561.874	1.55
562.299	1.54
562.723	1.55
563.148	1.55
563.572	1.56
563.997	1.56
564.421	1.57
564.846	1.56
565.27	1.54
565.694	1.54
566.118	1.54
566.542	1.54
566.966	1.55
567.39	1.55
567.814	1.55
568.238	1.55
568.662	1.55
569.086	1.56
569.509	1.57
569.933	1.57
570.357	1.56
570.78	1.57
571.204	1.56
571.627	1.55
572.05	1.54
572.474	1.54
572.897	1.54
573.32	1.53
573.743	1.53
574.166	1.52
574.589	1.53
575.012	1.54
575.435	1.53
575.858	1.53
576.281	1.53
576.704	1.53
577.126	1.52
577.549	1.53
577.972	1.53
578.394	1.53
578.817	1.52
579.239	1.52
579.661	1.52
580.084	1.52
580.506	1.52
580.928	1.52
581.35	1.53
581.772	1.53
582.194	1.52
582.616	1.52
583.038	1.52
583.46	1.52
583.882	1.52
584.303	1.52
584.725	1.53
585.147	1.5
585.568	1.49
585.99	1.49
586.411	1.49
586.833	1.49
587.254	1.51
587.675	1.51
588.096	1.5
588.518	1.5
588.939	1.5
589.36	1.49
589.781	1.52
590.202	1.53
590.623	1.53
591.043	1.52
591.464	1.51
591.885	1.5
592.305	1.51
592.726	1.5
593.147	1.51
593.567	1.51
593.987	1.52
594.408	1.51
594.828	1.52
595.248	1.52
595.669	1.53
596.089	1.53
596.509	1.53
596.929	1.52
597.349	1.53
597.769	1.52
598.189	1.52
598.608	1.52
599.028	1.52
599.448	1.53
599.867	1.52
600.287	1.51
600.706	1.52
601.126	1.52
601.545	1.53
601.965	1.53
602.384	1.53
602.803	1.52
603.222	1.51
603.641	1.51
604.061	1.5
604.48	1.51
604.898	1.51
605.317	1.51
605.736	1.51
606.155	1.5
606.574	1.51
606.992	1.51
607.411	1.53
607.829	1.5
608.248	1.5
608.666	1.5
609.085	1.51
609.503	1.51
609.921	1.5
610.339	1.52
610.758	1.52
611.176	1.51
611.594	1.52
612.012	1.5
612.43	1.55
612.847	1.56
613.265	1.55
613.683	1.54
614.101	1.54
614.518	1.54
614.936	1.53
615.353	1.52
615.771	1.52
616.188	1.51
616.606	1.52
617.023	1.51
617.44	1.5
617.857	1.5
618.274	1.5
618.691	1.5
619.108	1.5
619.525	1.51
619.942	1.51
620.359	1.52
620.776	1.52
621.192	1.52
621.609	1.52
622.026	1.52
622.442	1.51
622.859	1.52
623.275	1.52
623.691	1.52
624.108	1.53
624.524	1.52
624.94	1.52
625.356	1.52
625.772	1.52
626.188	1.52
626.604	1.51
627.02	1.51
627.436	1.51
627.852	1.51
628.268	1.51
628.683	1.5
629.099	1.49
629.514	1.5
629.93	1.5
630.345	1.49
630.761	1.49
631.176	1.5
631.591	1.5
632.007	1.48
632.422	1.48
632.837	1.47
633.252	1.48
633.667	1.47
634.082	1.47
634.497	1.46
634.911	1.45
635.326	1.44
635.741	1.44
636.155	1.43
636.57	1.44
636.984	1.43
637.399	1.42
637.813	1.41
638.228	1.41
638.642	1.41
639.056	1.41
639.47	1.4
639.884	1.4
640.298	1.4
640.712	1.4
641.126	1.39
641.54	1.38
641.954	1.41
642.368	1.42
642.781	1.43
643.195	1.43
643.609	1.44
644.022	1.45
644.436	1.45
644.849	1.45
645.262	1.47
645.676	1.47
646.089	1.47
646.502	1.45
646.915	1.45
647.328	1.45
647.741	1.45
648.154	1.44
648.567	1.44
648.98	1.44
649.393	1.45
649.805	1.42
650.218	1.42
650.631	1.43
651.043	1.43
651.456	1.44
651.868	1.43
652.28	1.45
652.693	1.45
653.105	1.44
653.517	1.44
653.929	1.45
654.341	1.45
654.753	1.44
655.165	1.44
655.577	1.44
655.989	1.43
656.401	1.43
656.813	1.41
657.224	1.41
657.636	1.42
658.047	1.42
658.459	1.4
658.87	1.41
659.282	1.43
659.693	1.43
660.104	1.43
660.515	1.43
660.926	1.44
661.338	1.45
661.749	1.44
662.159	1.43
662.57	1.43
662.981	1.42
663.392	1.4
663.803	1.39
664.213	1.39
664.624	1.4
665.035	1.39
665.445	1.38
665.855	1.39
666.266	1.38
666.676	1.39
667.086	1.4
667.497	1.39
667.907	1.4
668.317	1.39
668.727	1.39
669.137	1.37
669.547	1.38
669.956	1.37
670.366	1.37
670.776	1.38
671.186	1.37
671.595	1.37
672.005	1.39
672.414	1.39
672.824	1.4
673.233	1.4
673.642	1.4
674.052	1.4
674.461	1.39
674.87	1.4
675.279	1.4
675.688	1.39
676.097	1.4
676.506	1.38
676.915	1.37
677.323	1.37
677.732	1.36
678.141	1.36
678.549	1.37
678.958	1.37
679.366	1.35
679.775	1.35
680.183	1.35
680.592	1.35
681	1.35
681.408	1.36
681.816	1.35
682.224	1.35
682.632	1.36
683.04	1.35
683.448	1.35
683.856	1.36
684.264	1.35
684.671	1.35
685.079	1.36
685.487	1.37
685.894	1.37
686.302	1.38
686.709	1.38
687.116	1.38
687.524	1.37
687.931	1.36
688.338	1.37
688.745	1.37
689.152	1.37
689.559	1.34
689.966	1.32
690.373	1.33
690.78	1.33
691.187	1.33
691.593	1.32
692	1.33
692.407	1.35
692.813	1.35
693.22	1.36
693.626	1.36
694.032	1.38
694.439	1.4
694.845	1.39
695.251	1.39
695.657	1.39
696.063	1.41
696.469	1.41
696.875	1.39
697.281	1.38
697.687	1.38
698.093	1.39
698.498	1.39
698.904	1.39
699.31	1.39
699.715	1.39
700.12	1.39
700.526	1.38
700.931	1.38
701.337	1.39
701.742	1.38
702.147	1.36
702.552	1.36
702.957	1.36
703.362	1.36
703.767	1.35
704.172	1.35
704.577	1.35
704.981	1.35
705.386	1.35
705.791	1.35
706.195	1.37
706.6	1.37
707.004	1.36
707.408	1.36
707.813	1.35
708.217	1.35
708.621	1.37
709.025	1.38
709.43	1.38
709.834	1.41
710.237	1.39
710.641	1.38
711.045	1.37
711.449	1.38
711.853	1.38
712.256	1.39
712.66	1.38
713.064	1.37
713.467	1.36
713.87	1.36
714.274	1.34
714.677	1.35
715.08	1.34
715.484	1.35
715.887	1.36
716.29	1.35
716.693	1.33
717.096	1.34
717.499	1.33
717.901	1.33
718.304	1.33
718.707	1.33
719.109	1.34
719.512	1.34
719.915	1.34
720.317	1.34
720.719	1.34
721.122	1.36
721.524	1.36
721.926	1.35
722.328	1.33
722.731	1.34
723.133	1.33
723.535	1.34
723.937	1.33
724.338	1.34
724.74	1.33
725.142	1.27
725.544	1.27
725.945	1.24
726.347	1.25
726.748	1.25
727.15	1.25
727.551	1.24
727.952	1.23
728.354	1.23
728.755	1.23
729.156	1.24
729.557	1.29
729.958	1.29
730.359	1.32
730.76	1.31
731.161	1.32
731.562	1.34
731.962	1.33
732.363	1.32
732.763	1.33
733.164	1.33
733.564	1.32
733.965	1.35
734.365	1.35
734.766	1.33
735.166	1.34
735.566	1.34
735.966	1.32
736.366	1.32
736.766	1.32
737.166	1.3
737.566	1.31
737.966	1.32
738.365	1.31
738.765	1.3
739.165	1.31
739.564	1.32
739.964	1.31
740.363	1.33
740.763	1.34
741.162	1.34
741.561	1.35
741.96	1.34
742.36	1.32
742.759	1.31
743.158	1.31
743.557	1.3
743.955	1.29
744.354	1.29
744.753	1.29
745.152	1.29
745.55	1.29
745.949	1.3
746.348	1.31
746.746	1.31
747.144	1.32
747.543	1.34
747.941	1.35
748.339	1.35
748.737	1.34
749.136	1.34
749.534	1.33
749.932	1.32
750.33	1.32
750.727	1.33
751.125	1.34
751.523	1.34
751.921	1.35
752.318	1.33
752.716	1.33
753.113	1.36
753.511	1.37
753.908	1.38
754.305	1.38
754.703	1.38
755.1	1.36
755.497	1.37
755.894	1.36
756.291	1.35
756.688	1.36
757.085	1.36
757.482	1.35
757.878	1.34
758.275	1.33
758.672	1.33
759.068	1.33
759.465	1.34
759.861	1.32
760.258	1.29
760.654	1.3
761.05	1.32
761.447	1.32
761.843	1.32
762.239	1.32
762.635	1.31
763.031	1.32
763.427	1.32
763.822	1.32
764.218	1.34
764.614	1.35
765.01	1.33
765.405	1.32
765.801	1.33
766.196	1.34
766.592	1.35
766.987	1.37
767.382	1.35
767.778	1.35
768.173	1.33
768.568	1.31
768.963	1.32
769.358	1.32
769.753	1.33
770.148	1.32
770.542	1.29
770.937	1.29
771.332	1.27
771.726	1.26
772.121	1.25
772.515	1.27
772.91	1.25
773.304	1.25
773.699	1.26
774.093	1.24
774.487	1.23
774.881	1.24
775.275	1.22
775.669	1.23
776.063	1.24
776.457	1.24
776.851	1.22
777.245	1.24
777.638	1.22
778.032	1.22
778.425	1.21
778.819	1.21
779.212	1.22
779.606	1.22
779.999	1.22
780.392	1.22
780.786	1.23
781.179	1.24
781.572	1.24
781.965	1.23
782.358	1.22
782.751	1.24
783.143	1.23
783.536	1.21
783.929	1.22
784.322	1.24
784.714	1.25
785.107	1.24
785.499	1.24
785.891	1.23
786.284	1.25
786.676	1.26
787.068	1.26
787.46	1.25
787.852	1.27
788.245	1.24
788.636	1.22
789.028	1.2
789.42	1.2
789.812	1.2
790.204	1.22
790.595	1.19
790.987	1.18
791.378	1.18
791.77	1.2
792.161	1.2
792.553	1.21
792.944	1.22
793.335	1.22
793.726	1.22
794.117	1.23
794.508	1.24
794.899	1.26
795.29	1.27
795.681	1.26
796.072	1.26
796.463	1.24
796.853	1.24
797.244	1.23
797.634	1.24
798.025	1.24
798.415	1.22
798.806	1.23
799.196	1.22
799.586	1.21
799.976	1.21
800.366	1.2
800.756	1.24
801.146	1.26
801.536	1.26
801.926	1.25
802.316	1.26
802.706	1.27
803.095	1.27
803.485	1.28
803.874	1.29
804.264	1.3
804.653	1.29
805.043	1.3
805.432	1.29
805.821	1.27
806.21	1.29
806.599	1.3
806.988	1.3
807.377	1.28
807.766	1.28
808.155	1.27
808.544	1.28
808.933	1.28
809.321	1.27
809.71	1.27
810.098	1.28
810.487	1.28
810.875	1.28
811.264	1.27
811.652	1.28
812.04	1.28
812.428	1.27
812.816	1.26
813.204	1.28
813.592	1.29
813.98	1.29
814.368	1.3
814.756	1.29
815.144	1.3
815.531	1.3
815.919	1.32
816.306	1.31
816.694	1.34
817.081	1.34
817.469	1.34
817.856	1.34
818.243	1.34
818.63	1.36
819.017	1.38
819.404	1.36
819.791	1.37
820.178	1.35
820.565	1.36
820.952	1.35
821.339	1.35
821.725	1.36
822.112	1.35
822.498	1.35
822.885	1.35
823.271	1.35
823.657	1.37
824.044	1.38
824.43	1.4
824.816	1.4
825.202	1.39
825.588	1.41
825.974	1.43
826.36	1.43
826.746	1.43
827.132	1.43
827.517	1.41
827.903	1.39
828.289	1.38
828.674	1.37
829.06	1.39
829.445	1.41
829.83	1.39
830.216	1.38
830.601	1.4
830.986	1.4
831.371	1.41
831.756	1.42
832.141	1.42
832.526	1.42
832.911	1.44
833.295	1.43
833.68	1.43
834.065	1.44
834.449	1.44
834.834	1.43
835.218	1.41
835.603	1.38
835.987	1.38
836.371	1.39
836.755	1.38
837.139	1.39
837.524	1.4
837.908	1.39
838.291	1.39
838.675	1.39
839.059	1.41
839.443	1.42
839.827	1.44
840.21	1.45
840.594	1.45
840.977	1.46
841.361	1.44
841.744	1.43
842.127	1.44
842.511	1.43
842.894	1.42
843.277	1.43
843.66	1.44
844.043	1.44
844.426	1.43
844.809	1.43
845.191	1.42
845.574	1.43
845.957	1.43
846.339	1.42
846.722	1.43
847.104	1.43
847.487	1.41
847.869	1.41
848.252	1.42
848.634	1.43
849.016	1.44
849.398	1.46
849.78	1.46
850.162	1.47
850.544	1.48
850.926	1.48
851.307	1.49
851.689	1.49
852.071	1.5
852.452	1.5
852.834	1.5
853.215	1.49
853.597	1.48
853.978	1.48
854.359	1.47
854.741	1.46
855.122	1.46
855.503	1.46
855.884	1.45
856.265	1.43
856.646	1.43
857.026	1.44
857.407	1.43
857.788	1.44
858.169	1.43
858.549	1.42
858.93	1.42
859.31	1.44
859.69	1.43
860.071	1.45
860.451	1.47
860.831	1.47
861.211	1.46
861.591	1.47
861.971	1.47
862.351	1.49
862.731	1.49
863.111	1.49
863.491	1.48
863.87	1.48
864.25	1.46
864.629	1.44
865.009	1.44
865.388	1.45
865.768	1.45
866.147	1.45
866.526	1.46
866.905	1.47
867.284	1.47
867.663	1.48
868.042	1.49
868.421	1.5
868.8	1.5
869.179	1.51
869.558	1.5
869.936	1.5
870.315	1.49
870.693	1.47
871.072	1.46
871.45	1.46
871.828	1.45
872.207	1.45
872.585	1.45
872.963	1.46
873.341	1.46
873.719	1.46
874.097	1.46
874.475	1.47
874.853	1.48
875.23	1.48
875.608	1.47
875.986	1.48
876.363	1.47
876.741	1.48
877.118	1.47
877.495	1.48
877.873	1.45
878.25	1.44
878.627	1.44
879.004	1.44
879.381	1.44
879.758	1.42
880.135	1.43
880.512	1.41
880.889	1.41
881.265	1.41
881.642	1.4
882.019	1.4
882.395	1.41
882.772	1.41
883.148	1.41
883.524	1.41
883.901	1.43
884.277	1.42
884.653	1.43
885.029	1.44
885.405	1.44
885.781	1.44
886.157	1.47
886.532	1.48
886.908	1.49
887.284	1.49
887.659	1.51
888.035	1.52
888.411	1.53
888.786	1.53
889.161	1.53
889.537	1.53
889.912	1.53
890.287	1.53
890.662	1.52
891.037	1.52
891.412	1.52
891.787	1.51
892.162	1.51
892.536	1.51
892.911	1.52
893.286	1.53
893.66	1.53
894.035	1.54
894.409	1.54
894.784	1.55
895.158	1.56
895.532	1.55
895.906	1.56
896.281	1.57
896.655	1.56
897.029	1.54
897.402	1.53
897.776	1.52
898.15	1.51
898.524	1.51
898.898	1.51
899.271	1.5
899.645	1.52
900.018	1.5
900.392	1.49
900.765	1.48
901.138	1.48
901.511	1.49
901.884	1.47
902.258	1.47
902.631	1.46
903.003	1.45
903.376	1.44
903.749	1.43
904.122	1.42
904.495	1.41
904.867	1.4
905.24	1.41
905.612	1.41
905.985	1.43
906.357	1.44
906.729	1.45
907.102	1.44
907.474	1.45
907.846	1.44
908.218	1.44
908.59	1.44
908.962	1.44
909.334	1.44
909.705	1.43
910.077	1.4
910.449	1.4
910.82	1.4
911.192	1.4
911.563	1.38
911.935	1.37
912.306	1.38
912.677	1.39
913.048	1.37
913.419	1.36
913.79	1.35
914.161	1.34
914.532	1.33
914.903	1.32
915.274	1.3
915.645	1.31
916.015	1.33
916.386	1.33
916.756	1.3
917.127	1.32
917.497	1.33
917.868	1.34
918.238	1.34
918.608	1.36
918.978	1.37
919.348	1.37
919.718	1.36
920.088	1.34
920.458	1.34
920.828	1.34
921.198	1.32
921.567	1.3
921.937	1.3
922.306	1.32
922.676	1.3
923.045	1.27
923.415	1.29
923.784	1.28
924.153	1.29
924.522	1.27
924.891	1.27
925.26	1.28
925.629	1.29
925.998	1.29
926.367	1.3
926.736	1.29
927.104	1.31
927.473	1.3
927.842	1.32
928.21	1.33
928.578	1.33
928.947	1.36
929.315	1.38
929.683	1.36
930.051	1.36
930.42	1.31
930.788	1.29
931.156	1.3
931.523	1.27
931.891	1.24
932.259	1.23
932.627	1.22
932.994	1.2
933.362	1.13
933.729	1.11
934.097	1.1
934.464	1.1
934.831	1.13
935.199	1.11
935.566	1.14
935.933	1.16
936.3	1.1
936.667	1.1
937.034	1.09
937.401	1.08
937.767	1.14
938.134	1.07
938.501	1.04
938.867	0.97
939.234	0.96
939.6	0.88
939.967	0.85
940.333	0.82
940.699	0.78
941.065	0.72
941.431	0.68
941.798	0.56
942.163	0.59
942.529	0.55
942.895	0.56
943.261	0.51
943.627	0.49
943.992	0.49
944.358	0.46
944.723	0.46
945.089	0.49
945.454	0.54
945.82	0.55
946.185	0.53
946.55	0.56
946.915	0.52
947.28	0.5
947.645	0.49
948.01	0.44
948.375	0.48
948.74	0.48
949.104	0.49
949.469	0.53
949.834	0.52
950.198	0.55
950.562	0.61
950.927	0.63
951.291	0.7
951.655	0.76
952.02	0.77
952.384	0.85
952.748	0.85
953.112	0.8
953.476	0.77
953.839	0.86
954.203	0.86
954.567	0.82
954.931	0.86
955.294	0.8
955.658	0.76
956.021	0.82
956.385	0.83
956.748	0.85
957.111	0.92
957.474	0.96
957.837	0.89
958.2	0.95
958.563	0.99
958.926	1
959.289	1.03
959.652	1.08
960.015	1.08
960.377	1.03
960.74	1.03
961.102	1.01
961.465	1
961.827	0.94
962.189	0.92
962.552	0.92
962.914	0.92
963.276	0.92
963.638	0.87
964	0.86
964.362	0.87
964.724	0.91
965.085	0.92
965.447	0.94
965.809	1
966.17	0.99
966.532	1
966.893	1
967.255	1.03
967.616	0.99
967.977	0.98
968.338	0.97
968.699	0.96
969.061	0.96
969.421	0.93
969.782	0.91
970.143	0.88
970.504	0.83
970.865	0.77
971.225	0.69
971.586	0.76
971.946	0.79
972.307	0.81
972.667	0.74
973.027	0.75
973.388	0.73
973.748	0.69
974.108	0.69
974.468	0.73
974.828	0.81
975.188	0.8
975.548	0.74
975.907	0.74
976.267	0.75
976.627	0.72
976.986	0.66
977.346	0.66
977.705	0.71
978.064	0.68
978.424	0.64
978.783	0.59
979.142	0.66
979.501	0.67
979.86	0.59
980.219	0.54
980.578	0.57
980.937	0.62
981.296	0.57
981.654	0.54
982.013	0.53
982.371	0.54
982.73	0.47
983.088	0.4
983.447	0.32
983.805	0.35
984.163	0.33
984.521	0.36
984.879	0.37
985.237	0.37
985.595	0.42
985.953	0.49
986.311	0.44
986.669	0.36
987.026	0.32
987.384	0.32
987.741	0.37
988.099	0.35
988.456	0.34
988.814	0.23
989.171	0.3
989.528	0.19
989.885	0.04
990.242	-0.02
990.599	0.05
990.956	0.18
991.313	0.15
991.67	0.16
992.027	0.14
992.383	0.08
992.74	0.04
993.096	-0.12
993.453	-0.08
993.809	-0.04
994.165	0.09
994.522	0.03
994.878	0.01
995.234	0.07
995.59	-0.15
995.946	-0.15
996.302	-0.18
996.658	-0.13
997.013	-0.13
997.369	-0.24
997.725	-0.38
998.08	-0.56
998.436	-0.48
998.791	-0.66
999.147	-0.68
999.502	-0.53
999.857	-0.54
1000.212	-0.56
1000.567	-0.58
1000.922	-0.57
1001.277	-0.5
1001.632	-0.24
1001.987	-0.26
1002.342	-0.29
1002.696	-0.28
1003.051	-0.45
1003.406	-0.67
1003.76	-0.68
1004.114	-0.75
1004.469	-0.82
1004.823	-0.86
1005.177	-0.88
1005.531	-1.09
1005.885	-1.08
1006.239	-1.27
1006.593	-1.32
1006.947	-1.39
1007.301	-1.33
1007.655	-1.33
1008.008	-1.25
1008.362	-1.14
1008.715	-1.17
1009.069	-1.28
1009.422	-1.32
1009.776	-1.28
1010.129	-1.23
1010.482	-1.31
1010.835	-1.18
1011.188	-1.37
1011.541	-1.76
1011.894	-1.97
1012.247	-2.23
1012.6	-2.17
1012.952	-2.28
1013.305	-2.43
1013.657	-2.53
1014.01	-2.34
1014.362	-2.17
1014.715	-2.29
1015.067	-2.1
1015.419	-1.9
1015.771	-1.79
1016.123	-1.86
1016.475	-2.01
1016.827	-2.05
1017.179	-2.14
1017.531	-2.27
1017.883	-2.84
1018.234	-3.09
1018.586	-3.49
1018.938	-4.03
1019.289	-4.24
1019.64	-4.35
1019.992	-4.27
1020.343	-4.53
1020.694	-4.6
1021.045	-4.66
1021.396	-4.63
1021.747	-4.3
1022.098	-4.19
1022.449	-3.95
1022.8	-3.81
1023.151	-4.16
1023.501	-4.45
1023.852	-4.65
1024.202	-4.36
1024.553	-4.42
1024.903	-4.34
1025.253	-4.27
1025.604	-4.18
1025.954	-4.43
1026.304	-4.05
1026.654	-3.73
1027.004	-3.29
1027.354	-3.26
1027.703	-3.49
1028.053	-4.04
1028.403	-4.51
1028.753	-4.63
1029.102	-4.93
1029.452	-5.4
1029.801	-5.54
1030.15	-6.01
1030.499	-6.31
897.758	516.24
901.051	529.29
904.343	537.65
907.636	525.85
910.928	515.88
914.22	525.12
917.511	514.83
920.803	489.06
924.094	469.51
927.384	472.77
930.675	456.41
933.965	453.99
937.255	447.71
940.544	422.75
943.834	403.33
947.123	396.83
950.411	372.55
953.7	364.5
956.988	356.46
960.276	339.23
963.563	330.54
966.851	309.02
970.138	304.78
973.424	284.01
976.711	280.32
979.997	270.32
983.283	262.36
986.568	253.26
989.853	246.78
993.138	234.61
996.423	229.04
999.708	222.81
1002.992	223.18
1006.275	213.84
1009.559	211.18
1012.842	203.1
1016.125	195.81
1019.408	191.29
1022.69	190.59
1025.972	185.34
1029.254	181.46
1032.536	176.72
1035.817	170.83
1039.098	167.77
1042.379	164.28
1045.659	161.12
1048.939	159.36
1052.219	155.99
1055.498	153.23
1058.778	148.29
1062.057	147.42
1065.335	145.71
1068.614	142.96
1071.892	139.4
1075.17	136.23
1078.447	132.85
1081.724	131.92
1085.001	127.97
1088.278	127.54
1091.554	125.71
1094.83	124.71
1098.106	120.84
1101.382	119.74
1104.657	119.71
1107.932	119.62
1111.206	118.53
1114.481	116.47
1117.755	115.03
1121.029	115.65
1124.302	112.9
1127.575	110.95
1130.848	110.26
1134.121	109.28
1137.393	109.22
1140.665	107.12
1143.937	105.7
1147.208	104.45
1150.48	104
1153.75	102.61
1157.021	100.96
1160.291	100.44
1163.561	99.75
1166.831	99.56
1170.101	98.6
1173.37	97.98
1176.639	97.07
1179.907	96.39
1183.176	95.59
1186.444	96.17
1189.711	95.61
1192.979	96.07
1196.246	96.6
1199.513	96.93
1202.78	96.16
1206.046	96.13
1209.312	96.79
1212.578	97.95
1215.843	100.01
1219.108	101.33
1222.373	103.14
1225.638	105.9
1228.902	109.27
1232.166	113.72
1235.43	116.22
1238.693	120.42
1241.956	124.5
1245.219	127.02
1248.482	127.36
1251.744	127.68
1255.006	128.15
1258.268	124.05
1261.529	122.56
1264.79	117.91
1268.051	114.44
1271.312	113.18
1274.572	110.4
1277.832	106.24
1281.092	104.79
1284.351	102.86
1287.61	102.54
1290.869	100.68
1294.128	100.17
1297.386	100.49
1300.644	100.56
1303.902	99.52
1307.159	98.54
1310.416	99.77
1313.673	101.39
1316.93	103.36
1320.186	105.31
1323.442	107.32
1326.697	110.95
1329.953	112.63
1333.208	116.46
1336.463	123.87
1339.717	127.39
1342.972	137.14
1346.226	140.98
1349.479	143.3
1352.733	150.74
1355.986	155.14
1359.238	159.54
1362.491	162.24
1365.743	170.64
1368.995	173.47
1372.247	172.47
1375.498	173.28
1378.749	178.34
1382	179.94
1385.251	180.06
1388.501	181.7
1391.751	185.25
1395	183.53
1398.25	185.52
1401.499	184.37
1404.748	183.91
1407.996	180.57
1411.244	181.01
1414.492	178.5
1417.74	174.6
1420.987	170.23
1424.234	166.23
1427.481	160.11
1430.728	156.08
1433.974	150.36
1437.22	145.41
1440.465	139.62
1443.711	135.55
1446.956	130.83
1450.201	125.24
1453.445	118.89
1456.689	115.69
1459.933	111.43
1463.177	105.34
1466.42	103.44
1469.663	99.8
1472.906	96.53
1476.148	93.16
1479.391	90.46
1482.633	88.52
1485.874	86.03
1489.115	85.16
1492.356	82.79
1495.597	80.54
1498.838	80.42
1502.078	78.7
1505.318	78.03
1508.557	77.03
1511.797	75.96
1515.036	75.09
1518.274	74.5
1521.513	72.32
1524.751	71.61
1527.989	71.51
1531.227	71.1
1534.464	70.16
1537.701	69.01
1540.938	68.41
1544.174	68.19
1547.41	67.85
1550.646	67.68
1553.882	66.94
1557.117	66.9
1560.352	65.95
1563.587	64.89
1566.821	64.71
1570.055	63.71
1573.289	63.32
1576.523	63.12
1579.756	62.37
1582.989	62.28
1586.222	61.33
1589.454	61.38
1592.686	61.52
1595.918	61.09
1599.15	60.86
1602.381	60.77
1605.612	60.93
1608.843	60.79
1612.073	60.96
1615.303	61.15
1618.533	60.54
1621.762	60.66
1624.992	60.44
1628.221	59.6
1631.449	60.22
1634.678	60.22
1637.906	60.08
1641.134	60.33
1644.361	60.29
1647.588	60.75
1650.815	60.78
1654.042	60.94
1657.269	60.69
1660.495	61.13
1663.72	61.95
1666.946	61.4
1670.171	61.95
1673.396	62.42
1676.621	62.22
1679.845	63.09
1683.069	62.34
1686.293	62.05
1689.517	62.21
1692.74	62.7
1695.963	62.55
1699.185	62.67
1702.408	62.62
1705.63	62.56
1708.852	63.19
1712.073	63.22
1715.294	62.42
1718.515	63.91
1721.736	64.14
1724.956	64.75
1728.176	64.74
1731.396	64.94
1734.616	65.36
1737.835	66.42
1741.054	66.29
1744.272	66.1
1747.491	66.44
1750.709	67.67
1753.927	67.33
1757.144	68.24
1760.361	68.25
1763.578	68.71
1766.795	69.52
1770.011	69.86
1773.227	70.32
1776.443	71.5
1779.658	71.46
1782.874	72.32
1786.089	71.85
1789.303	72.23
1792.518	73.3
1795.732	74.14
1798.945	75.28
1802.159	75
1805.372	75.49
1808.585	76.53
1811.797	77.3
1815.01	78.43
1818.222	79.04
1821.434	81.63
1824.645	81.88
1827.856	82.79
1831.067	83.39
1834.278	85.42
1837.488	86.56
1840.698	87.9
1843.908	87.68
1847.117	89.83
1850.326	91.27
1853.535	93.33
1856.744	93.58
1859.952	96.72
1863.16	97.04
1866.368	98.11
1869.575	99.18
1872.782	101.13
1875.989	101.49
1879.196	103.61
1882.402	103.55
1885.608	104.85
1888.814	105.14
1892.019	108.08
1895.224	106.51
1898.429	108.5
1901.634	109.75
1904.838	109.88
1908.042	111.11
1911.246	111.38
1914.449	111.45
1917.652	111
1920.855	111.21
1924.058	110.71
1927.26	109.48
1930.462	111.25
1933.664	109.86
1936.865	111.09
1940.066	109.93
1943.267	109.39
1946.467	110.34
1949.668	109.83
1952.868	110.77
1956.067	110.67
1959.267	111.33
1962.466	111.96
1965.665	112.18
1968.863	113.26
1972.061	113.01
1975.259	115.57
1978.457	117.05
1981.654	117.8
1984.852	119.11
1988.048	120.85
1991.245	122.58
1994.441	124.55
1997.637	127.57
2000.833	130.18
2004.028	131.13
2007.223	134.63
2010.418	138.19
2013.613	142.62
2016.807	146.46
2020.001	150.29
2023.194	153.11
2026.388	158.79
2029.581	168.08
2032.774	171.82
2035.966	176.65
2039.158	182.13
2042.35	185.6
2045.542	187.23
2048.733	195.96
2051.924	198.59
2055.115	201.08
2058.306	204.88
2061.496	206.22
2064.686	205.19
2067.875	205.38
2071.065	207.43
2074.254	208.49
2077.442	212.54
2080.631	215.59
2083.819	215.04
2087.007	218.52
2090.195	220.51
2093.382	220.42
2096.569	222.04
2099.756	224.7
2102.942	228.45
2106.128	232.15
2109.314	233.46
2112.5	235.76
2115.685	233.37
2118.87	233.26
2122.055	236.28
2125.239	241.28
2128.424	245.43
2131.608	244.91
2134.791	248.1
2137.974	247.97
2141.157	250.51
2144.34	252.44
2147.523	256.03
2150.705	263.58
2153.887	260.84
2157.068	260.67
2160.25	264.58
2163.431	265.42
2166.611	266.89
2169.792	269.82
2172.972	274.87
2176.152	275.25
2179.331	282.07
2182.511	283.98
2185.69	287.14
2188.868	297.04
2192.047	306.39
2195.225	310.26
2198.403	314.67
2201.58	316.36
2204.758	322.47
2207.935	325.63
2211.111	333.6
2214.288	336.4
2217.464	338.1
2220.64	340.55
2223.815	341.43
2226.991	334.7
2230.166	338.09
2233.34	347.42
2236.515	354.56
2239.689	353.43
2242.863	360.09
2246.036	355.96
2249.209	363
2252.382	365.45
2255.555	378.2
2258.727	382.38
2261.9	394.14
2265.071	399.55
2268.243	397.19
2271.414	410.66
2274.585	419.46
2277.756	418.28
2280.926	437.57
2284.096	437.39
2287.266	437.56
2290.436	430.35
2293.605	441.54
2296.774	455.86
2299.942	457.25
2303.111	470.15
2306.279	480.59
2309.447	482.59
2312.614	484.59
2315.781	491.1
2318.948	500.26
2322.115	510.06
2325.281	535.58
2328.447	532.55
2331.613	541.17
2334.779	547.26
2337.944	556.15
2341.109	562.37
2344.274	566.89
2347.438	582.3
2350.602	591.5
2353.766	632.3
2356.929	635.26
2360.092	641.88
2363.255	644.92
2366.418	649.78
2369.58	659.35
2372.742	667.22
2375.904	664.61
2379.066	686.16
2382.227	723.37
2385.388	723.38
2388.548	681.32
2391.709	672.36
2394.869	699.75
2398.029	702.17
2401.188	703.18
2404.347	728.37
2407.506	745.23
2410.665	720.85
2413.823	728.36
2416.981	730.2
2420.139	696.87
2423.296	751.44
2426.453	806.48
2429.61	760.74
2432.767	809.39
2435.923	835.65
2439.079	809.2
2442.235	828.55
2445.391	846.78
2448.546	831.14
2451.701	879.99
2454.855	935.67
2458.009	829.46
2461.163	835.68
2464.317	860.44
2467.471	841.49
2470.624	869.7
2473.777	856.32
2476.929	830.99
2480.082	877.18
2483.234	922.09
2486.385	936.51
2489.537	962.6
2492.688	1056.24
2495.839	1044.13
2498.989	1072.48
2502.14	1070.39
2505.29	1027.99
2508.439	1134.94
2511.589	1157.51
2514.738	1128.6
2517.887	1118.84
2521.035	1046.24
2524.183	1032.53
2527.331	1024.7
2530.479	998.8
2533.627	1011.44
