Data from c_3_div_il_4n_Splice17_11.txt Node
Date: Sat Feb 29 14:57:56 EST 2020
User: sa697716
Spectrometer: FLMS03696
Trigger mode: 0
Integration Time (sec): 3.180400E-1
Scans to average: 20
Electric dark correction enabled: true
Nonlinearity correction enabled: true
Boxcar width: 5
XAxis mode: Wavelengths
Number of Pixels in Spectrum: 2048
>>>>>Begin Spectral Data<<<<<
187.83	88.22
188.298	87.62
188.766	90.38
189.233	76.84
189.701	74.91
190.169	82.44
190.636	86.16
191.104	99.56
191.571	400.83
192.039	385.32
192.506	-347.37
192.974	2402.22
193.441	-128.27
193.908	106.31
194.375	127.25
194.842	108.82
195.31	70.24
195.777	40.44
196.244	35.46
196.711	58.35
197.177	60.71
197.644	60.75
198.111	62.4
198.578	62.91
199.045	63.46
199.511	63.72
199.978	64.34
200.445	64.64
200.911	65.13
201.378	65.61
201.844	66.1
202.31	66.98
202.777	67.44
203.243	67.25
203.709	67.14
204.176	66.38
204.642	66.12
205.108	65.61
205.574	65.67
206.04	65.14
206.506	65.01
206.972	64.32
207.438	62.87
207.903	62.23
208.369	61.04
208.835	60.48
209.301	59.95
209.766	58.52
210.232	57.68
210.697	56.24
211.163	55.19
211.628	54.16
212.094	53.33
212.559	52.43
213.024	51.06
213.49	50.39
213.955	48.96
214.42	47.61
214.885	46.07
215.35	44.17
215.815	41.87
216.28	39.23
216.745	36.24
217.21	33.04
217.675	30.22
218.14	27.47
218.604	24.87
219.069	22.92
219.534	21.21
219.998	19.77
220.463	18.56
220.927	17.52
221.392	16.61
221.856	15.85
222.32	15.22
222.785	14.61
223.249	14.22
223.713	13.81
224.177	13.35
224.642	12.98
225.106	12.68
225.57	12.33
226.034	12.05
226.497	11.75
226.961	11.48
227.425	11.21
227.889	10.98
228.353	10.71
228.816	10.5
229.28	10.3
229.744	10.07
230.207	9.89
230.671	9.7
231.134	9.52
231.597	9.38
232.061	9.22
232.524	9.09
232.987	8.94
233.45	8.79
233.914	8.66
234.377	8.55
234.84	8.46
235.303	8.36
235.766	8.28
236.229	8.2
236.691	8.1
237.154	8.01
237.617	7.92
238.08	7.85
238.542	7.78
239.005	7.69
239.468	7.59
239.93	7.51
240.393	7.43
240.855	7.33
241.317	7.24
241.78	7.17
242.242	7.09
242.704	7.02
243.166	6.94
243.629	6.88
244.091	6.82
244.553	6.76
245.015	6.7
245.477	6.62
245.939	6.57
246.4	6.5
246.862	6.44
247.324	6.4
247.786	6.34
248.247	6.3
248.709	6.23
249.17	6.18
249.632	6.13
250.093	6.06
250.555	6.02
251.016	5.99
251.477	5.93
251.939	5.88
252.4	5.83
252.861	5.79
253.322	5.73
253.783	5.72
254.244	5.69
254.705	5.66
255.166	5.65
255.627	5.61
256.088	5.55
256.549	5.53
257.009	5.49
257.47	5.45
257.931	5.41
258.391	5.37
258.852	5.31
259.312	5.27
259.773	5.23
260.233	5.18
260.694	5.14
261.154	5.11
261.614	5.08
262.074	5.05
262.534	5.01
262.994	4.99
263.455	4.96
263.915	4.93
264.374	4.9
264.834	4.86
265.294	4.83
265.754	4.8
266.214	4.78
266.673	4.75
267.133	4.72
267.593	4.7
268.052	4.67
268.512	4.64
268.971	4.63
269.431	4.61
269.89	4.6
270.349	4.59
270.809	4.58
271.268	4.57
271.727	4.55
272.186	4.54
272.645	4.53
273.104	4.52
273.563	4.51
274.022	4.5
274.481	4.48
274.94	4.47
275.399	4.46
275.857	4.44
276.316	4.43
276.775	4.41
277.233	4.4
277.692	4.39
278.15	4.37
278.609	4.36
279.067	4.34
279.525	4.33
279.984	4.32
280.442	4.3
280.9	4.29
281.358	4.29
281.816	4.28
282.274	4.27
282.732	4.27
283.19	4.26
283.648	4.26
284.106	4.25
284.564	4.25
285.021	4.24
285.479	4.24
285.937	4.23
286.394	4.21
286.852	4.21
287.309	4.2
287.767	4.19
288.224	4.18
288.682	4.18
289.139	4.17
289.596	4.16
290.053	4.15
290.511	4.11
290.968	4.09
291.425	4.08
291.882	4.06
292.339	4.04
292.796	4.02
293.252	4.01
293.709	3.99
294.166	3.97
294.623	3.96
295.079	3.94
295.536	3.93
295.992	3.92
296.449	3.91
296.905	3.89
297.362	3.88
297.818	3.87
298.274	3.85
298.731	3.84
299.187	3.83
299.643	3.83
300.099	3.82
300.555	3.82
301.011	3.81
301.467	3.8
301.923	3.8
302.379	3.79
302.835	3.79
303.291	3.78
303.746	3.77
304.202	3.77
304.658	3.75
305.113	3.75
305.569	3.75
306.024	3.74
306.479	3.73
306.935	3.73
307.39	3.73
307.845	3.73
308.301	3.74
308.756	3.74
309.211	3.74
309.666	3.74
310.121	3.74
310.576	3.74
311.031	3.74
311.486	3.75
311.94	3.75
312.395	3.76
312.85	3.75
313.305	3.75
313.759	3.75
314.214	3.75
314.668	3.74
315.123	3.75
315.577	3.75
316.032	3.75
316.486	3.75
316.94	3.73
317.394	3.72
317.849	3.72
318.303	3.71
318.757	3.7
319.211	3.69
319.665	3.68
320.119	3.67
320.572	3.66
321.026	3.65
321.48	3.64
321.934	3.64
322.387	3.63
322.841	3.62
323.295	3.62
323.748	3.62
324.202	3.61
324.655	3.61
325.108	3.6
325.562	3.59
326.015	3.58
326.468	3.57
326.921	3.56
327.374	3.56
327.827	3.55
328.28	3.54
328.733	3.53
329.186	3.54
329.639	3.53
330.092	3.53
330.545	3.53
330.997	3.54
331.45	3.54
331.903	3.54
332.355	3.54
332.808	3.55
333.26	3.56
333.713	3.57
334.165	3.56
334.617	3.56
335.069	3.56
335.522	3.58
335.974	3.58
336.426	3.58
336.878	3.58
337.33	3.58
337.782	3.58
338.234	3.59
338.686	3.58
339.137	3.59
339.589	3.59
340.041	3.59
340.493	3.57
340.944	3.57
341.396	3.56
341.847	3.55
342.299	3.53
342.75	3.52
343.201	3.49
343.653	3.48
344.104	3.47
344.555	3.45
345.006	3.43
345.457	3.43
345.908	3.43
346.359	3.42
346.81	3.42
347.261	3.42
347.712	3.42
348.163	3.42
348.613	3.41
349.064	3.39
349.515	3.39
349.965	3.39
350.416	3.38
350.866	3.37
351.317	3.37
351.767	3.37
352.217	3.36
352.668	3.36
353.118	3.37
353.568	3.37
354.018	3.39
354.468	3.39
354.918	3.4
355.368	3.41
355.818	3.4
356.268	3.41
356.718	3.42
357.168	3.42
357.617	3.43
358.067	3.43
358.517	3.43
358.966	3.43
359.416	3.45
359.865	3.45
360.315	3.46
360.764	3.47
361.213	3.46
361.663	3.46
362.112	3.48
362.561	3.49
363.01	3.5
363.459	3.52
363.908	3.53
364.357	3.54
364.806	3.56
365.255	3.57
365.703	3.59
366.152	3.62
366.601	3.65
367.05	3.67
367.498	3.7
367.947	3.72
368.395	3.76
368.844	3.78
369.292	3.81
369.74	3.84
370.189	3.86
370.637	3.89
371.085	3.93
371.533	3.97
371.981	4.01
372.429	4.04
372.877	4.08
373.325	4.1
373.773	4.15
374.221	4.2
374.669	4.24
375.116	4.29
375.564	4.32
376.012	4.36
376.459	4.41
376.907	4.46
377.354	4.5
377.801	4.55
378.249	4.6
378.696	4.66
379.143	4.69
379.591	4.75
380.038	4.8
380.485	4.86
380.932	4.89
381.379	4.93
381.826	4.98
382.273	5.02
382.72	5.06
383.166	5.1
383.613	5.13
384.06	5.18
384.506	5.22
384.953	5.25
385.4	5.28
385.846	5.32
386.292	5.36
386.739	5.39
387.185	5.43
387.631	5.48
388.078	5.52
388.524	5.55
388.97	5.58
389.416	5.6
389.862	5.63
390.308	5.66
390.754	5.69
391.2	5.74
391.645	5.77
392.091	5.78
392.537	5.81
392.983	5.83
393.428	5.86
393.874	5.89
394.319	5.92
394.765	5.94
395.21	5.94
395.655	5.95
396.101	5.95
396.546	5.96
396.991	5.96
397.436	5.95
397.881	5.96
398.326	5.98
398.771	5.98
399.216	5.99
399.661	6.01
400.106	6.03
400.551	6.02
400.995	6.02
401.44	6
401.885	6
402.329	6.01
402.774	5.99
403.218	5.98
403.663	5.97
404.107	5.96
404.551	5.95
404.995	5.93
405.44	5.93
405.884	5.91
406.328	5.92
406.772	5.91
407.216	5.9
407.66	5.91
408.104	5.89
408.547	5.89
408.991	5.87
409.435	5.87
409.879	5.87
410.322	5.87
410.766	5.88
411.209	5.87
411.653	5.87
412.096	5.85
412.54	5.83
412.983	5.84
413.426	5.84
413.869	5.86
414.312	5.87
414.756	5.88
415.199	5.89
415.642	5.91
416.085	5.94
416.527	5.95
416.97	5.99
417.413	6
417.856	5.99
418.298	5.98
418.741	5.96
419.184	5.93
419.626	5.91
420.069	5.91
420.511	5.88
420.953	5.85
421.396	5.84
421.838	5.83
422.28	5.85
422.722	5.87
423.164	5.88
423.606	5.89
424.048	5.9
424.49	5.92
424.932	5.91
425.374	5.92
425.816	5.9
426.258	5.88
426.699	5.83
427.141	5.77
427.582	5.76
428.024	5.74
428.465	5.74
428.907	5.73
429.348	5.71
429.789	5.7
430.231	5.67
430.672	5.67
431.113	5.67
431.554	5.7
431.995	5.73
432.436	5.71
432.877	5.69
433.318	5.67
433.759	5.66
434.2	5.64
434.64	5.65
435.081	5.67
435.522	5.69
435.962	5.71
436.403	5.73
436.843	5.76
437.284	5.79
437.724	5.84
438.164	5.85
438.604	5.88
439.045	5.91
439.485	5.92
439.925	5.91
440.365	5.91
440.805	5.91
441.245	5.89
441.685	5.9
442.125	5.89
442.564	5.89
443.004	5.9
443.444	5.91
443.883	5.93
444.323	5.94
444.762	5.97
445.202	5.99
445.641	6.02
446.081	6.05
446.52	6.07
446.959	6.09
447.398	6.12
447.837	6.14
448.276	6.14
448.716	6.17
449.154	6.22
449.593	6.25
450.032	6.26
450.471	6.28
450.91	6.28
451.349	6.3
451.787	6.32
452.226	6.29
452.664	6.29
453.103	6.28
453.541	6.27
453.98	6.24
454.418	6.21
454.856	6.18
455.295	6.14
455.733	6.13
456.171	6.09
456.609	6.08
457.047	6.07
457.485	6.05
457.923	6.04
458.361	6.01
458.798	6
459.236	5.99
459.674	5.99
460.111	6.01
460.549	6
460.987	6
461.424	5.99
461.862	5.99
462.299	5.99
462.736	5.99
463.173	5.99
463.611	5.99
464.048	6
464.485	6.01
464.922	5.96
465.359	5.97
465.796	5.96
466.233	5.96
466.67	5.96
467.106	5.96
467.543	5.96
467.98	5.99
468.416	6
468.853	5.99
469.29	5.99
469.726	6.01
470.162	5.99
470.599	6
471.035	6.03
471.471	6.02
471.907	6.02
472.344	6.03
472.78	6.02
473.216	6.03
473.652	6.02
474.088	6.03
474.523	6.03
474.959	6.05
475.395	6.05
475.831	6.04
476.266	6.05
476.702	6.05
477.138	6.04
477.573	6.02
478.008	6.01
478.444	6
478.879	6
479.314	5.98
479.75	5.98
480.185	5.95
480.62	5.96
481.055	5.95
481.49	5.94
481.925	5.93
482.36	5.92
482.795	5.91
483.229	5.92
483.664	5.91
484.099	5.91
484.534	5.9
484.968	5.91
485.403	5.89
485.837	5.89
486.271	5.89
486.706	5.9
487.14	5.91
487.574	5.92
488.009	5.92
488.443	5.95
488.877	5.96
489.311	5.97
489.745	5.99
490.179	6.02
490.613	6.04
491.046	6.08
491.48	6.11
491.914	6.14
492.348	6.19
492.781	6.23
493.215	6.27
493.648	6.31
494.082	6.38
494.515	6.43
494.948	6.47
495.382	6.52
495.815	6.59
496.248	6.66
496.681	6.71
497.114	6.76
497.547	6.83
497.98	6.9
498.413	6.99
498.846	7.07
499.279	7.15
499.711	7.25
500.144	7.35
500.577	7.43
501.009	7.53
501.442	7.64
501.874	7.75
502.306	7.87
502.739	7.97
503.171	8.09
503.603	8.22
504.036	8.36
504.468	8.5
504.9	8.66
505.332	8.82
505.764	8.99
506.196	9.16
506.627	9.34
507.059	9.52
507.491	9.73
507.923	9.92
508.354	10.12
508.786	10.32
509.217	10.52
509.649	10.73
510.08	10.95
510.512	11.16
510.943	11.38
511.374	11.61
511.805	11.83
512.237	12.06
512.668	12.29
513.099	12.53
513.53	12.79
513.961	13.05
514.391	13.3
514.822	13.55
515.253	13.83
515.684	14.08
516.114	14.35
516.545	14.62
516.975	14.9
517.406	15.19
517.836	15.45
518.267	15.73
518.697	16
519.127	16.27
519.558	16.54
519.988	16.8
520.418	17.09
520.848	17.36
521.278	17.63
521.708	17.7
522.138	17.94
522.567	18.19
522.997	18.41
523.427	18.64
523.857	18.87
524.286	19.08
524.716	19.29
525.145	19.48
525.575	19.65
526.004	19.84
526.433	20.21
526.863	20.39
527.292	20.57
527.721	20.75
528.15	20.91
528.579	21.08
529.008	21.25
529.437	21.41
529.866	21.56
530.295	21.73
530.724	21.87
531.152	22
531.581	22.12
532.01	22.22
532.438	22.32
532.867	22.42
533.295	22.51
533.723	22.6
534.152	22.67
534.58	22.73
535.008	22.78
535.436	22.85
535.865	22.9
536.293	22.96
536.721	23.04
537.149	23.08
537.576	23.12
538.004	23.15
538.432	23.19
538.86	23.23
539.287	23.27
539.715	23.31
540.143	23.31
540.57	23.33
540.998	23.37
541.425	23.38
541.852	23.43
542.28	23.45
542.707	23.48
543.134	23.49
543.561	23.5
543.988	23.53
544.415	23.56
544.842	23.61
545.269	23.64
545.696	23.65
546.123	23.69
546.549	23.71
546.976	23.76
547.403	23.79
547.829	23.83
548.256	23.89
548.682	23.9
549.108	23.93
549.535	23.95
549.961	23.96
550.387	23.99
550.813	23.99
551.24	23.98
551.666	23.99
552.092	23.98
552.518	23.97
552.943	23.97
553.369	23.99
553.795	23.98
554.221	23.95
554.646	23.93
555.072	23.91
555.498	23.89
555.923	23.87
556.349	23.81
556.774	23.77
557.199	23.72
557.625	23.65
558.05	23.56
558.475	23.48
558.9	23.41
559.325	23.33
559.75	23.24
560.175	23.17
560.6	23.09
561.025	23
561.449	22.92
561.874	22.83
562.299	22.71
562.723	22.62
563.148	22.52
563.572	22.43
563.997	22.31
564.421	22.18
564.846	22.05
565.27	21.9
565.694	21.76
566.118	21.6
566.542	21.46
566.966	21.34
567.39	21.18
567.814	21.02
568.238	20.83
568.662	20.67
569.086	20.52
569.509	20.36
569.933	20.19
570.357	20.03
570.78	19.88
571.204	19.71
571.627	19.56
572.05	19.42
572.474	19.29
572.897	19.17
573.32	19.02
573.743	18.9
574.166	18.76
574.589	18.64
575.012	18.54
575.435	18.44
575.858	18.35
576.281	18.25
576.704	18.15
577.126	18.05
577.549	17.97
577.972	17.9
578.394	17.81
578.817	17.73
579.239	17.66
579.661	17.58
580.084	17.49
580.506	17.41
580.928	17.35
581.35	17.28
581.772	17.2
582.194	17.13
582.616	17.06
583.038	17
583.46	16.96
583.882	16.9
584.303	16.83
584.725	16.78
585.147	16.7
585.568	16.61
585.99	16.55
586.411	16.5
586.833	16.44
587.254	16.4
587.675	16.35
588.096	16.29
588.518	16.25
588.939	16.22
589.36	16.17
589.781	16.14
590.202	16.12
590.623	16.08
591.043	16.04
591.464	16.01
591.885	15.98
592.305	15.95
592.726	15.91
593.147	15.89
593.567	15.84
593.987	15.82
594.408	15.78
594.828	15.74
595.248	15.71
595.669	15.7
596.089	15.66
596.509	15.6
596.929	15.57
597.349	15.53
597.769	15.49
598.189	15.46
598.608	15.41
599.028	15.37
599.448	15.34
599.867	15.3
600.287	15.26
600.706	15.22
601.126	15.18
601.545	15.14
601.965	15.09
602.384	15.04
602.803	14.98
603.222	14.92
603.641	14.86
604.061	14.8
604.48	14.73
604.898	14.66
605.317	14.6
605.736	14.53
606.155	14.44
606.574	14.37
606.992	14.29
607.411	14.24
607.829	14.13
608.248	14.05
608.666	13.97
609.085	13.9
609.503	13.83
609.921	13.74
610.339	13.67
610.758	13.61
611.176	13.53
611.594	13.46
612.012	13.37
612.43	13.34
612.847	13.28
613.265	13.21
613.683	13.14
614.101	13.06
614.518	13
614.936	12.93
615.353	12.87
615.771	12.81
616.188	12.76
616.606	12.69
617.023	12.63
617.44	12.58
617.857	12.53
618.274	12.47
618.691	12.42
619.108	12.38
619.525	12.33
619.942	12.28
620.359	12.25
620.776	12.21
621.192	12.18
621.609	12.16
622.026	12.14
622.442	12.11
622.859	12.1
623.275	12.1
623.691	12.08
624.108	12.08
624.524	12.06
624.94	12.03
625.356	12.02
625.772	12
626.188	12
626.604	11.98
627.02	11.98
627.436	11.97
627.852	11.95
628.268	11.94
628.683	11.92
629.099	11.92
629.514	11.9
629.93	11.88
630.345	11.87
630.761	11.82
631.176	11.8
631.591	11.76
632.007	11.71
632.422	11.68
632.837	11.63
633.252	11.59
633.667	11.52
634.082	11.47
634.497	11.41
634.911	11.34
635.326	11.28
635.741	11.2
636.155	11.15
636.57	11.07
636.984	10.97
637.399	10.88
637.813	10.77
638.228	10.69
638.642	10.6
639.056	10.51
639.47	10.42
639.884	10.31
640.298	10.2
640.712	10.07
641.126	9.97
641.54	9.88
641.954	9.79
642.368	9.69
642.781	9.6
643.195	9.48
643.609	9.39
644.022	9.3
644.436	9.2
644.849	9.1
645.262	9.03
645.676	8.94
646.089	8.85
646.502	8.76
646.915	8.7
647.328	8.63
647.741	8.57
648.154	8.51
648.567	8.45
648.98	8.4
649.393	8.36
649.805	8.3
650.218	8.26
650.631	8.22
651.043	8.2
651.456	8.16
651.868	8.11
652.28	8.07
652.693	8.03
653.105	8
653.517	7.95
653.929	7.92
654.341	7.87
654.753	7.8
655.165	7.74
655.577	7.66
655.989	7.57
656.401	7.5
656.813	7.42
657.224	7.34
657.636	7.25
658.047	7.17
658.459	7.07
658.87	7
659.282	6.94
659.693	6.85
660.104	6.77
660.515	6.7
660.926	6.63
661.338	6.56
661.749	6.48
662.159	6.42
662.57	6.35
662.981	6.3
663.392	6.23
663.803	6.16
664.213	6.11
664.624	6.06
665.035	6
665.445	5.96
665.855	5.91
666.266	5.88
666.676	5.83
667.086	5.8
667.497	5.75
667.907	5.72
668.317	5.68
668.727	5.66
669.137	5.64
669.547	5.63
669.956	5.61
670.366	5.61
670.776	5.59
671.186	5.58
671.595	5.58
672.005	5.59
672.414	5.59
672.824	5.61
673.233	5.62
673.642	5.62
674.052	5.62
674.461	5.63
674.87	5.63
675.279	5.64
675.688	5.66
676.097	5.68
676.506	5.71
676.915	5.73
677.323	5.76
677.732	5.79
678.141	5.83
678.549	5.88
678.958	5.93
679.366	5.97
679.775	6.05
680.183	6.11
680.592	6.18
681	6.24
681.408	6.32
681.816	6.4
682.224	6.5
682.632	6.63
683.04	6.75
683.448	6.89
683.856	7.06
684.264	7.23
684.671	7.43
685.079	7.63
685.487	7.87
685.894	8.13
686.302	8.4
686.709	8.7
687.116	9
687.524	9.33
687.931	9.68
688.338	10.05
688.745	10.44
689.152	10.83
689.559	11.26
689.966	11.69
690.373	12.17
690.78	12.64
691.187	13.12
691.593	13.6
692	14.12
692.407	14.64
692.813	15.19
693.22	15.73
693.626	16.27
694.032	16.81
694.439	17.38
694.845	17.92
695.251	18.47
695.657	19.03
696.063	19.58
696.469	20.12
696.875	20.64
697.281	21.17
697.687	21.72
698.093	22.25
698.498	22.8
698.904	23.31
699.31	23.81
699.715	24.32
700.12	24.8
700.526	25.3
700.931	25.8
701.337	26.3
701.742	26.76
702.147	27.2
702.552	27.67
702.957	28.1
703.362	28.55
703.767	29
704.172	29.46
704.577	29.88
704.981	30.31
705.386	30.72
705.791	31.13
706.195	31.51
706.6	31.89
707.004	32.27
707.408	32.63
707.813	32.99
708.217	33.32
708.621	33.63
709.025	33.98
709.43	34.29
709.834	34.64
710.237	34.96
710.641	35.3
711.045	35.62
711.449	35.92
711.853	36.22
712.256	36.53
712.66	36.82
713.064	37.12
713.467	37.42
713.87	37.7
714.274	37.99
714.677	38.26
715.08	38.49
715.484	38.78
715.887	39.06
716.29	39.33
716.693	39.58
717.096	39.85
717.499	40.11
717.901	40.35
718.304	40.61
718.707	40.81
719.109	41.04
719.512	41.33
719.915	41.54
720.317	41.74
720.719	41.96
721.122	42.18
721.524	42.39
721.926	42.61
722.328	42.81
722.731	43.01
723.133	43.23
723.535	43.41
723.937	43.56
724.338	43.71
724.74	43.88
725.142	43.94
725.544	44.05
725.945	44.16
726.347	44.3
726.748	44.39
727.15	44.5
727.551	44.59
727.952	44.71
728.354	44.83
728.755	44.97
729.156	45.09
729.557	45.3
729.958	45.46
730.359	45.6
730.76	45.68
731.161	45.8
731.562	45.92
731.962	46.05
732.363	46.12
732.763	46.23
733.164	46.29
733.564	46.37
733.965	46.44
734.365	46.46
734.766	46.51
735.166	46.56
735.566	46.6
735.966	46.62
736.366	46.62
736.766	46.66
737.166	46.69
737.566	46.73
737.966	46.76
738.365	46.78
738.765	46.86
739.165	46.86
739.564	46.92
739.964	46.96
740.363	47.01
740.763	47.08
741.162	47.13
741.561	47.18
741.96	47.24
742.36	47.3
742.759	47.34
743.158	47.33
743.557	47.39
743.955	47.43
744.354	47.51
744.753	47.52
745.152	47.52
745.55	47.54
745.949	47.54
746.348	47.56
746.746	47.57
747.144	47.57
747.543	47.63
747.941	47.68
748.339	47.72
748.737	47.75
749.136	47.78
749.534	47.87
749.932	47.9
750.33	47.93
750.727	47.95
751.125	47.97
751.523	47.99
751.921	48.01
752.318	48.01
752.716	47.99
753.113	47.96
753.511	47.95
753.908	47.86
754.305	47.83
754.703	47.82
755.1	47.77
755.497	47.77
755.894	47.77
756.291	47.73
756.688	47.7
757.085	47.68
757.482	47.7
757.878	47.7
758.275	47.72
758.672	47.75
759.068	47.75
759.465	47.76
759.861	47.74
760.258	47.69
760.654	47.7
761.05	47.71
761.447	47.7
761.843	47.64
762.239	47.61
762.635	47.6
763.031	47.57
763.427	47.57
763.822	47.55
764.218	47.54
764.614	47.55
765.01	47.56
765.405	47.54
765.801	47.54
766.196	47.58
766.592	47.59
766.987	47.62
767.382	47.61
767.778	47.62
768.173	47.61
768.568	47.59
768.963	47.62
769.358	47.6
769.753	47.63
770.148	47.63
770.542	47.63
770.937	47.63
771.332	47.61
771.726	47.61
772.121	47.59
772.515	47.6
772.91	47.64
773.304	47.63
773.699	47.68
774.093	47.64
774.487	47.65
774.881	47.64
775.275	47.65
775.669	47.68
776.063	47.66
776.457	47.66
776.851	47.63
777.245	47.62
777.638	47.63
778.032	47.59
778.425	47.61
778.819	47.6
779.212	47.59
779.606	47.59
779.999	47.56
780.392	47.56
780.786	47.59
781.179	47.62
781.572	47.64
781.965	47.64
782.358	47.64
782.751	47.67
783.143	47.68
783.536	47.71
783.929	47.72
784.322	47.76
784.714	47.82
785.107	47.83
785.499	47.83
785.891	47.85
786.284	47.83
786.676	47.88
787.068	47.88
787.46	47.88
787.852	47.89
788.245	47.89
788.636	47.86
789.028	47.79
789.42	47.77
789.812	47.76
790.204	47.73
790.595	47.74
790.987	47.7
791.378	47.7
791.77	47.72
792.161	47.69
792.553	47.72
792.944	47.76
793.335	47.81
793.726	47.8
794.117	47.85
794.508	47.86
794.899	47.86
795.29	47.87
795.681	47.9
796.072	47.93
796.463	47.96
796.853	47.95
797.244	47.93
797.634	47.93
798.025	47.94
798.415	47.95
798.806	47.98
799.196	47.99
799.586	47.98
799.976	47.97
800.366	47.96
800.756	47.97
801.146	47.95
801.536	47.96
801.926	47.94
802.316	47.98
802.706	47.98
803.095	48.01
803.485	48.05
803.874	48.07
804.264	48.1
804.653	48.08
805.043	48.07
805.432	48.09
805.821	48.11
806.21	48.12
806.599	48.13
806.988	48.13
807.377	48.12
807.766	48.09
808.155	48.12
808.544	48.11
808.933	48.13
809.321	48.16
809.71	48.22
810.098	48.23
810.487	48.28
810.875	48.28
811.264	48.3
811.652	48.28
812.04	48.29
812.428	48.3
812.816	48.32
813.204	48.3
813.592	48.29
813.98	48.23
814.368	48.23
814.756	48.22
815.144	48.26
815.531	48.27
815.919	48.27
816.306	48.26
816.694	48.25
817.081	48.22
817.469	48.28
817.856	48.33
818.243	48.34
818.63	48.37
819.017	48.39
819.404	48.38
819.791	48.36
820.178	48.39
820.565	48.43
820.952	48.41
821.339	48.44
821.725	48.41
822.112	48.4
822.498	48.42
822.885	48.41
823.271	48.43
823.657	48.42
824.044	48.45
824.43	48.43
824.816	48.41
825.202	48.41
825.588	48.39
825.974	48.39
826.36	48.37
826.746	48.37
827.132	48.32
827.517	48.25
827.903	48.25
828.289	48.24
828.674	48.23
829.06	48.24
829.445	48.27
829.83	48.28
830.216	48.28
830.601	48.28
830.986	48.26
831.371	48.33
831.756	48.3
832.141	48.31
832.526	48.28
832.911	48.29
833.295	48.28
833.68	48.26
834.065	48.23
834.449	48.22
834.834	48.2
835.218	48.21
835.603	48.15
835.987	48.16
836.371	48.14
836.755	48.12
837.139	48.08
837.524	48.09
837.908	48.07
838.291	48.06
838.675	48.06
839.059	48.06
839.443	48.03
839.827	48.03
840.21	48.05
840.594	48.02
840.977	48
841.361	48.02
841.744	48.02
842.127	47.99
842.511	47.96
842.894	47.96
843.277	47.95
843.66	47.96
844.043	47.95
844.426	47.92
844.809	47.94
845.191	47.95
845.574	47.94
845.957	47.9
846.339	47.91
846.722	47.94
847.104	47.9
847.487	47.91
847.869	47.9
848.252	47.93
848.634	47.97
849.016	47.96
849.398	47.96
849.78	47.95
850.162	47.95
850.544	47.95
850.926	47.93
851.307	47.96
851.689	47.94
852.071	47.92
852.452	47.89
852.834	47.86
853.215	47.87
853.597	47.88
853.978	47.88
854.359	47.9
854.741	47.91
855.122	47.9
855.503	47.87
855.884	47.85
856.265	47.86
856.646	47.86
857.026	47.87
857.407	47.83
857.788	47.83
858.169	47.81
858.549	47.82
858.93	47.83
859.31	47.85
859.69	47.86
860.071	47.88
860.451	47.85
860.831	47.86
861.211	47.86
861.591	47.87
861.971	47.85
862.351	47.89
862.731	47.86
863.111	47.85
863.491	47.84
863.87	47.83
864.25	47.84
864.629	47.86
865.009	47.86
865.388	47.86
865.768	47.86
866.147	47.89
866.526	47.88
866.905	47.86
867.284	47.87
867.663	47.88
868.042	47.89
868.421	47.87
868.8	47.84
869.179	47.83
869.558	47.82
869.936	47.84
870.315	47.81
870.693	47.84
871.072	47.83
871.45	47.8
871.828	47.78
872.207	47.79
872.585	47.78
872.963	47.78
873.341	47.8
873.719	47.77
874.097	47.75
874.475	47.74
874.853	47.71
875.23	47.73
875.608	47.77
875.986	47.76
876.363	47.75
876.741	47.77
877.118	47.77
877.495	47.75
877.873	47.76
878.25	47.77
878.627	47.77
879.004	47.78
879.381	47.8
879.758	47.76
880.135	47.76
880.512	47.76
880.889	47.78
881.265	47.81
881.642	47.81
882.019	47.82
882.395	47.82
882.772	47.83
883.148	47.82
883.524	47.81
883.901	47.81
884.277	47.82
884.653	47.83
885.029	47.82
885.405	47.78
885.781	47.77
886.157	47.8
886.532	47.79
886.908	47.78
887.284	47.78
887.659	47.78
888.035	47.78
888.411	47.73
888.786	47.7
889.161	47.7
889.537	47.7
889.912	47.67
890.287	47.61
890.662	47.59
891.037	47.55
891.412	47.51
891.787	47.46
892.162	47.41
892.536	47.41
892.911	47.38
893.286	47.32
893.66	47.3
894.035	47.3
894.409	47.28
894.784	47.26
895.158	47.28
895.532	47.26
895.906	47.27
896.281	47.27
896.655	47.26
897.029	47.24
897.402	47.26
897.776	47.23
898.15	47.22
898.524	47.21
898.898	47.18
899.271	47.15
899.645	47.14
900.018	47.12
900.392	47.12
900.765	47.12
901.138	47.15
901.511	47.17
901.884	47.2
902.258	47.2
902.631	47.24
903.003	47.27
903.376	47.29
903.749	47.27
904.122	47.28
904.495	47.3
904.867	47.31
905.24	47.27
905.612	47.26
905.985	47.26
906.357	47.24
906.729	47.21
907.102	47.2
907.474	47.23
907.846	47.23
908.218	47.26
908.59	47.22
908.962	47.23
909.334	47.27
909.705	47.26
910.077	47.24
910.449	47.27
910.82	47.25
911.192	47.28
911.563	47.25
911.935	47.25
912.306	47.26
912.677	47.29
913.048	47.27
913.419	47.22
913.79	47.21
914.161	47.21
914.532	47.19
914.903	47.24
915.274	47.24
915.645	47.25
916.015	47.27
916.386	47.24
916.756	47.25
917.127	47.25
917.497	47.29
917.868	47.33
918.238	47.37
918.608	47.4
918.978	47.38
919.348	47.35
919.718	47.32
920.088	47.33
920.458	47.37
920.828	47.36
921.198	47.39
921.567	47.37
921.937	47.38
922.306	47.36
922.676	47.33
923.045	47.32
923.415	47.32
923.784	47.39
924.153	47.39
924.522	47.37
924.891	47.38
925.26	47.33
925.629	47.35
925.998	47.35
926.367	47.33
926.736	47.33
927.104	47.38
927.473	47.39
927.842	47.36
928.21	47.35
928.578	47.35
928.947	47.32
929.315	47.33
929.683	47.31
930.051	47.24
930.42	47.23
930.788	47.22
931.156	47.16
931.523	47.16
931.891	47.09
932.259	47.03
932.627	46.94
932.994	46.91
933.362	46.83
933.729	46.72
934.097	46.66
934.464	46.61
934.831	46.49
935.199	46.45
935.566	46.34
935.933	46.43
936.3	46.37
936.667	46.35
937.034	46.31
937.401	46.35
937.767	46.46
938.134	46.49
938.501	46.52
938.867	46.68
939.234	46.71
939.6	46.78
939.967	46.71
940.333	46.86
940.699	47.04
941.065	47.24
941.431	47.32
941.798	47.34
942.163	47.52
942.529	47.63
942.895	47.66
943.261	47.8
943.627	48.01
943.992	48.11
944.358	48.18
944.723	48.11
945.089	48.08
945.454	48.11
945.82	48.13
946.185	48.14
946.55	48.16
946.915	48.18
947.28	48.13
947.645	48.05
948.01	47.96
948.375	47.97
948.74	48.05
949.104	48.02
949.469	47.93
949.834	47.9
950.198	47.85
950.562	47.78
950.927	47.72
951.291	47.63
951.655	47.59
952.02	47.63
952.384	47.57
952.748	47.47
953.112	47.4
953.476	47.41
953.839	47.34
954.203	47.27
954.567	47.24
954.931	47.23
955.294	47.26
955.658	47.24
956.021	47.19
956.385	47.16
956.748	47.21
957.111	47.18
957.474	47.19
957.837	47.22
958.2	47.18
958.563	47.15
958.926	47.12
959.289	47.14
959.652	47.07
960.015	47
960.377	46.93
960.74	46.83
961.102	46.85
961.465	46.85
961.827	46.69
962.189	46.62
962.552	46.58
962.914	46.48
963.276	46.46
963.638	46.43
964	46.4
964.362	46.42
964.724	46.43
965.085	46.37
965.447	46.3
965.809	46.36
966.17	46.44
966.532	46.48
966.893	46.52
967.255	46.49
967.616	46.48
967.977	46.5
968.338	46.42
968.699	46.41
969.061	46.38
969.421	46.41
969.782	46.46
970.143	46.44
970.504	46.36
970.865	46.32
971.225	46.27
971.586	46.33
971.946	46.36
972.307	46.45
972.667	46.46
973.027	46.52
973.388	46.44
973.748	46.45
974.108	46.43
974.468	46.53
974.828	46.59
975.188	46.63
975.548	46.61
975.907	46.59
976.267	46.55
976.627	46.49
976.986	46.47
977.346	46.49
977.705	46.45
978.064	46.45
978.424	46.37
978.783	46.41
979.142	46.37
979.501	46.36
979.86	46.28
980.219	46.22
980.578	46.3
980.937	46.35
981.296	46.45
981.654	46.49
982.013	46.5
982.371	46.47
982.73	46.46
983.088	46.46
983.447	46.5
983.805	46.57
984.163	46.62
984.521	46.53
984.879	46.54
985.237	46.56
985.595	46.59
985.953	46.64
986.311	46.69
986.669	46.7
987.026	46.77
987.384	46.77
987.741	46.77
988.099	46.8
988.456	46.91
988.814	46.87
989.171	46.78
989.528	46.66
989.885	46.68
990.242	46.72
990.599	46.69
990.956	46.75
991.313	46.78
991.67	46.83
992.027	46.85
992.383	46.91
992.74	46.99
993.096	47.06
993.453	47.22
993.809	47.27
994.165	47.31
994.522	47.22
994.878	47.17
995.234	47.17
995.59	47.15
995.946	47.23
996.302	47.14
996.658	47.12
997.013	47.13
997.369	47.12
997.725	47.13
998.08	47.18
998.436	47.36
998.791	47.34
999.147	47.37
999.502	47.48
999.857	47.55
1000.212	47.57
1000.567	47.67
1000.922	47.73
1001.277	47.65
1001.632	47.7
1001.987	47.7
1002.342	47.7
1002.696	47.79
1003.051	47.72
1003.406	47.8
1003.76	47.65
1004.114	47.79
1004.469	47.77
1004.823	47.83
1005.177	48.11
1005.531	48
1005.885	48.06
1006.239	47.99
1006.593	48.12
1006.947	48.18
1007.301	48.05
1007.655	48.41
1008.008	48.47
1008.362	48.56
1008.715	48.59
1009.069	48.36
1009.422	48.29
1009.776	48.26
1010.129	48.43
1010.482	48.47
1010.835	48.68
1011.188	48.69
1011.541	48.35
1011.894	48.32
1012.247	48.3
1012.6	48.29
1012.952	48.55
1013.305	48.77
1013.657	48.82
1014.01	49.05
1014.362	49.27
1014.715	49.21
1015.067	49.48
1015.419	49.78
1015.771	50.06
1016.123	50.13
1016.475	50.3
1016.827	50.6
1017.179	50.63
1017.531	50.73
1017.883	50.74
1018.234	50.57
1018.586	50.3
1018.938	50.06
1019.289	50.03
1019.64	50.07
1019.992	50.31
1020.343	49.99
1020.694	49.64
1021.045	49.88
1021.396	49.64
1021.747	49.63
1022.098	49.75
1022.449	49.93
1022.8	50.09
1023.151	50.34
1023.501	50.45
1023.852	50.32
1024.202	50.59
1024.553	50.66
1024.903	50.63
1025.253	50.94
1025.604	50.99
1025.954	50.87
1026.304	51.84
1026.654	52.1
1027.004	52.36
1027.354	52.19
1027.703	52.03
1028.053	52.38
1028.403	52.43
1028.753	52.51
1029.102	52.71
1029.452	52.82
1029.801	52.89
1030.15	52.35
1030.499	52.43
897.758	444.5
901.051	458.56
904.343	460.19
907.636	457.6
910.928	447.22
914.22	456.01
917.511	445.74
920.803	429.34
924.094	411.35
927.384	413.49
930.675	406.21
933.965	402.07
937.255	396.5
940.544	381.02
943.834	362.47
947.123	359.57
950.411	338.27
953.7	333.3
956.988	323.65
960.276	310.75
963.563	306.08
966.851	286.42
970.138	283.5
973.424	266.53
976.711	263.71
979.997	252.76
983.283	245.9
986.568	239.27
989.853	234.72
993.138	225.96
996.423	221.67
999.708	216.56
1002.992	217.45
1006.275	209.52
1009.559	208.72
1012.842	202.04
1016.125	197.57
1019.408	195.39
1022.69	192.38
1025.972	190.08
1029.254	186.93
1032.536	183.94
1035.817	179.05
1039.098	176.45
1042.379	171.85
1045.659	169.08
1048.939	167.86
1052.219	165.8
1055.498	163.13
1058.778	160.96
1062.057	158.14
1065.335	156.72
1068.614	153.95
1071.892	151.46
1075.17	147.59
1078.447	146.2
1081.724	144.7
1085.001	140.81
1088.278	140.63
1091.554	138.56
1094.83	137.53
1098.106	135.46
1101.382	134.84
1104.657	134.18
1107.932	133.62
1111.206	134.27
1114.481	133.98
1117.755	132.49
1121.029	132.55
1124.302	129.86
1127.575	128.86
1130.848	128.51
1134.121	126.69
1137.393	125.62
1140.665	126.03
1143.937	124
1147.208	121.88
1150.48	120.2
1153.75	119.65
1157.021	119.89
1160.291	119.18
1163.561	118.25
1166.831	117.29
1170.101	116.63
1173.37	115.88
1176.639	114.17
1179.907	114.67
1183.176	114.02
1186.444	114.32
1189.711	113.57
1192.979	113.09
1196.246	114
1199.513	114
1202.78	114.86
1206.046	115.17
1209.312	116.12
1212.578	116.49
1215.843	117.92
1219.108	119.27
1222.373	120.65
1225.638	122.89
1228.902	125.65
1232.166	129.17
1235.43	130.16
1238.693	133.52
1241.956	135.66
1245.219	138.93
1248.482	140.03
1251.744	139.27
1255.006	140.75
1258.268	137.07
1261.529	135.78
1264.79	131.76
1268.051	129.32
1271.312	128.93
1274.572	125.9
1277.832	123.28
1281.092	121.66
1284.351	119.12
1287.61	119.53
1290.869	117.73
1294.128	117.88
1297.386	116.9
1300.644	116.6
1303.902	115.09
1307.159	114.28
1310.416	115.25
1313.673	117.04
1316.93	117.14
1320.186	119.93
1323.442	120.83
1326.697	123.09
1329.953	124.56
1333.208	128.64
1336.463	134.99
1339.717	138.17
1342.972	143.92
1346.226	147.48
1349.479	148.06
1352.733	154.49
1355.986	155.84
1359.238	158.89
1362.491	160.31
1365.743	166.21
1368.995	167.61
1372.247	168.55
1375.498	167.08
1378.749	173.26
1382	174.06
1385.251	172.76
1388.501	172.8
1391.751	175.41
1395	175.12
1398.25	176.91
1401.499	175.22
1404.748	174.72
1407.996	167.2
1411.244	168.23
1414.492	165.08
1417.74	159.36
1420.987	156.16
1424.234	152.48
1427.481	147.71
1430.728	143.07
1433.974	138.19
1437.22	133.34
1440.465	128.57
1443.711	125.31
1446.956	121.21
1450.201	116.72
1453.445	111.28
1456.689	108.54
1459.933	105.1
1463.177	100.21
1466.42	98.4
1469.663	95.06
1472.906	92.48
1476.148	89.8
1479.391	88.02
1482.633	86.3
1485.874	84.79
1489.115	84.32
1492.356	82.9
1495.597	81.18
1498.838	81.79
1502.078	80.7
1505.318	80.52
1508.557	79.64
1511.797	78.82
1515.036	78.25
1518.274	78.82
1521.513	78.1
1524.751	76.89
1527.989	77.83
1531.227	78.34
1534.464	76.94
1537.701	76.58
1540.938	76.2
1544.174	76.71
1547.41	77.19
1550.646	76.98
1553.882	76.39
1557.117	76.36
1560.352	76.46
1563.587	75.45
1566.821	75.05
1570.055	75.19
1573.289	75.22
1576.523	75.5
1579.756	75.32
1582.989	75.06
1586.222	75.58
1589.454	75.39
1592.686	75.19
1595.918	75.26
1599.15	75.01
1602.381	75.74
1605.612	75.85
1608.843	75.48
1612.073	75.29
1615.303	75.17
1618.533	75.36
1621.762	75.3
1624.992	75
1628.221	74.65
1631.449	75.37
1634.678	75.28
1637.906	75.04
1641.134	75.1
1644.361	75.28
1647.588	75.5
1650.815	75.66
1654.042	75.68
1657.269	75.13
1660.495	75.9
1663.72	76.44
1666.946	76.29
1670.171	77.04
1673.396	77.24
1676.621	77.24
1679.845	77.99
1683.069	77.49
1686.293	77.64
1689.517	77.72
1692.74	78.28
1695.963	78.08
1699.185	78.13
1702.408	77.5
1705.63	77.54
1708.852	78.48
1712.073	78.21
1715.294	77.64
1718.515	79.25
1721.736	78.85
1724.956	79.2
1728.176	79.03
1731.396	79.34
1734.616	79.59
1737.835	80.41
1741.054	80.5
1744.272	79.74
1747.491	80.01
1750.709	80.77
1753.927	79.86
1757.144	80.97
1760.361	81.1
1763.578	81.41
1766.795	81.88
1770.011	81.29
1773.227	82.34
1776.443	83.03
1779.658	82.59
1782.874	83.44
1786.089	82.42
1789.303	83.16
1792.518	83.59
1795.732	83.8
1798.945	84.49
1802.159	84.17
1805.372	85.75
1808.585	85.47
1811.797	85.67
1815.01	86.77
1818.222	87.3
1821.434	88.93
1824.645	89.26
1827.856	90.18
1831.067	90.83
1834.278	91.75
1837.488	93.04
1840.698	93.72
1843.908	93.54
1847.117	94.62
1850.326	95.73
1853.535	96.26
1856.744	96.92
1859.952	98.5
1863.16	97.86
1866.368	97.31
1869.575	98.48
1872.782	97.73
1875.989	96.56
1879.196	97.35
1882.402	95.83
1885.608	95.51
1888.814	95.35
1892.019	96.83
1895.224	94.46
1898.429	94.91
1901.634	95.53
1904.838	95.55
1908.042	96.87
1911.246	96.61
1914.449	96.23
1917.652	96.88
1920.855	97.08
1924.058	95.67
1927.26	94.3
1930.462	94.91
1933.664	95.46
1936.865	95.6
1940.066	94.3
1943.267	91.97
1946.467	93.17
1949.668	93.28
1952.868	93.03
1956.067	93.1
1959.267	93.68
1962.466	94.07
1965.665	96.29
1968.863	94.7
1972.061	95.77
1975.259	97.07
1978.457	99.71
1981.654	99.96
1984.852	101.07
1988.048	102.45
1991.245	104.12
1994.441	106.57
1997.637	109.4
2000.833	110.11
2004.028	112.28
2007.223	116.35
2010.418	118.1
2013.613	123.32
2016.807	127.26
2020.001	129.16
2023.194	132.53
2026.388	137.43
2029.581	145.46
2032.774	148.47
2035.966	152.64
2039.158	157.49
2042.35	158.07
2045.542	162.08
2048.733	168.18
2051.924	168.14
2055.115	170.76
2058.306	172.96
2061.496	174.91
2064.686	173.24
2067.875	172.29
2071.065	176.25
2074.254	175.42
2077.442	181.44
2080.631	182.83
2083.819	181.5
2087.007	189.72
2090.195	191.8
2093.382	191.33
2096.569	192.31
2099.756	195.84
2102.942	201.49
2106.128	204.05
2109.314	208.95
2112.5	208.35
2115.685	206.81
2118.87	208.02
2122.055	206.32
2125.239	211.52
2128.424	218
2131.608	217.92
2134.791	215.11
2137.974	216.11
2141.157	216.63
2144.34	216.89
2147.523	222.68
2150.705	229.17
2153.887	226.68
2157.068	229.66
2160.25	231.35
2163.431	231.52
2166.611	231.96
2169.792	239.93
2172.972	243.35
2176.152	244.44
2179.331	248.05
2182.511	247.04
2185.69	251.37
2188.868	262.59
2192.047	268.3
2195.225	274.34
2198.403	275.3
2201.58	275.43
2204.758	282.45
2207.935	285.91
2211.111	289.85
2214.288	293.68
2217.464	298.8
2220.64	296.44
2223.815	295.6
2226.991	291.56
2230.166	292.24
2233.34	303.09
2236.515	311.24
2239.689	303.7
2242.863	306.74
2246.036	306.37
2249.209	312.55
2252.382	307.12
2255.555	319.9
2258.727	322.01
2261.9	334.45
2265.071	340
2268.243	332.21
2271.414	344.26
2274.585	354.5
2277.756	353.74
2280.926	363.65
2284.096	369.6
2287.266	374.75
2290.436	367.75
2293.605	373.84
2296.774	384.98
2299.942	385.38
2303.111	402.31
2306.279	406.76
2309.447	406.78
2312.614	412.37
2315.781	422.44
2318.948	419.61
2322.115	430.06
2325.281	451.84
2328.447	449.8
2331.613	452.13
2334.779	455.44
2337.944	464.22
2341.109	470.28
2344.274	476.62
2347.438	482
2350.602	492.47
2353.766	525.31
2356.929	524.69
2360.092	533.67
2363.255	537.32
2366.418	540.92
2369.58	554.08
2372.742	559.34
2375.904	556.83
2379.066	575.61
2382.227	617.76
2385.388	617.22
2388.548	581.1
2391.709	576.99
2394.869	591.41
2398.029	602.33
2401.188	599.84
2404.347	620.95
2407.506	633.52
2410.665	611.3
2413.823	611.8
2416.981	606.23
2420.139	575.42
2423.296	636.48
2426.453	676.34
2429.61	635.19
2432.767	672.77
2435.923	695.92
2439.079	677.69
2442.235	690.69
2445.391	708.69
2448.546	701.22
2451.701	741.74
2454.855	790.35
2458.009	691.37
2461.163	702.4
2464.317	722.31
2467.471	703.34
2470.624	730.69
2473.777	711.22
2476.929	694.76
2480.082	734.17
2483.234	775.45
2486.385	791.52
2489.537	816.23
2492.688	898.02
2495.839	885.12
2498.989	915.34
2502.14	918.2
2505.29	877.44
2508.439	960.84
2511.589	979.48
2514.738	967.24
2517.887	952.99
2521.035	882.71
2524.183	866.92
2527.331	859.9
2530.479	838.97
2533.627	854.14
