Data from c_3_div_wi_4n_Splice17_20.txt Node
Date: Sat Feb 29 14:42:49 EST 2020
User: sa697716
Spectrometer: FLMS03696
Trigger mode: 0
Integration Time (sec): 3.180400E-1
Scans to average: 20
Electric dark correction enabled: true
Nonlinearity correction enabled: true
Boxcar width: 5
XAxis mode: Wavelengths
Number of Pixels in Spectrum: 2048
>>>>>Begin Spectral Data<<<<<
187.83	94.84
188.298	103.07
188.766	95.85
189.233	89.26
189.701	104.4
190.169	106.16
190.636	122.94
191.104	150.3
191.571	433.01
192.039	198.91
192.506	-174.59
192.974	-1321.6
193.441	406.11
193.908	9.07
194.375	-17.21
194.842	167.09
195.31	92
195.777	65.57
196.244	36.97
196.711	25.56
197.177	23.19
197.644	22.99
198.111	23
198.578	23.6
199.045	23.84
199.511	23.9
199.978	23.91
200.445	24.03
200.911	24.28
201.378	24.37
201.844	24.81
202.31	25.53
202.777	26.11
203.243	26.96
203.709	27.33
204.176	27.36
204.642	27.42
205.108	27.15
205.574	27.81
206.04	28.24
206.506	28.23
206.972	28.2
207.438	27.9
207.903	27.64
208.369	26.87
208.835	26.96
209.301	27.27
209.766	27.22
210.232	27.5
210.697	27.5
211.163	27.39
211.628	27.42
212.094	27.09
212.559	26.83
213.024	26.58
213.49	26.43
213.955	26.26
214.42	25.84
214.885	25.35
215.35	25.03
215.815	24.27
216.28	23.77
216.745	23.39
217.21	22.94
217.675	22.42
218.14	21.85
218.604	21.33
219.069	20.86
219.534	20.37
219.998	20.02
220.463	19.62
220.927	19.3
221.392	18.98
221.856	18.62
222.32	18.34
222.785	18.07
223.249	17.89
223.713	17.68
224.177	17.42
224.642	17.25
225.106	17.03
225.57	16.86
226.034	16.67
226.497	16.48
226.961	16.32
227.425	16.13
227.889	15.95
228.353	15.76
228.816	15.59
229.28	15.41
229.744	15.24
230.207	15.08
230.671	14.91
231.134	14.72
231.597	14.55
232.061	14.38
232.524	14.24
232.987	14.11
233.45	13.96
233.914	13.8
234.377	13.66
234.84	13.52
235.303	13.38
235.766	13.25
236.229	13.13
236.691	13.03
237.154	12.91
237.617	12.79
238.08	12.66
238.542	12.53
239.005	12.42
239.468	12.3
239.93	12.18
240.393	12.08
240.855	11.97
241.317	11.87
241.78	11.76
242.242	11.65
242.704	11.55
243.166	11.46
243.629	11.37
244.091	11.29
244.553	11.21
245.015	11.14
245.477	11.05
245.939	10.97
246.4	10.89
246.862	10.83
247.324	10.77
247.786	10.69
248.247	10.62
248.709	10.55
249.17	10.49
249.632	10.41
250.093	10.33
250.555	10.27
251.016	10.23
251.477	10.17
251.939	10.11
252.4	10.05
252.861	10.01
253.322	9.96
253.783	9.94
254.244	9.9
254.705	9.86
255.166	9.85
255.627	9.82
256.088	9.77
256.549	9.74
257.009	9.7
257.47	9.68
257.931	9.63
258.391	9.59
258.852	9.54
259.312	9.49
259.773	9.45
260.233	9.39
260.694	9.34
261.154	9.29
261.614	9.23
262.074	9.19
262.534	9.12
262.994	9.08
263.455	9.03
263.915	8.98
264.374	8.93
264.834	8.88
265.294	8.84
265.754	8.79
266.214	8.75
266.673	8.71
267.133	8.66
267.593	8.62
268.052	8.58
268.512	8.54
268.971	8.5
269.431	8.45
269.89	8.42
270.349	8.39
270.809	8.35
271.268	8.31
271.727	8.29
272.186	8.25
272.645	8.21
273.104	8.18
273.563	8.15
274.022	8.12
274.481	8.08
274.94	8.04
275.399	8.01
275.857	7.98
276.316	7.94
276.775	7.89
277.233	7.86
277.692	7.83
278.15	7.79
278.609	7.76
279.067	7.72
279.525	7.7
279.984	7.66
280.442	7.63
280.9	7.6
281.358	7.57
281.816	7.55
282.274	7.52
282.732	7.5
283.19	7.48
283.648	7.45
284.106	7.43
284.564	7.4
285.021	7.39
285.479	7.37
285.937	7.35
286.394	7.34
286.852	7.32
287.309	7.31
287.767	7.3
288.224	7.28
288.682	7.26
289.139	7.25
289.596	7.23
290.053	7.2
290.511	7.17
290.968	7.15
291.425	7.12
291.882	7.09
292.339	7.06
292.796	7.02
293.252	7
293.709	6.98
294.166	6.95
294.623	6.93
295.079	6.91
295.536	6.9
295.992	6.88
296.449	6.86
296.905	6.84
297.362	6.83
297.818	6.82
298.274	6.8
298.731	6.79
299.187	6.77
299.643	6.75
300.099	6.74
300.555	6.72
301.011	6.7
301.467	6.7
301.923	6.69
302.379	6.67
302.835	6.65
303.291	6.63
303.746	6.6
304.202	6.57
304.658	6.56
305.113	6.54
305.569	6.53
306.024	6.51
306.479	6.49
306.935	6.48
307.39	6.46
307.845	6.45
308.301	6.44
308.756	6.44
309.211	6.45
309.666	6.45
310.121	6.45
310.576	6.45
311.031	6.44
311.486	6.43
311.94	6.42
312.395	6.42
312.85	6.42
313.305	6.41
313.759	6.41
314.214	6.39
314.668	6.37
315.123	6.37
315.577	6.36
316.032	6.35
316.486	6.35
316.94	6.34
317.394	6.32
317.849	6.31
318.303	6.3
318.757	6.28
319.211	6.26
319.665	6.25
320.119	6.23
320.572	6.23
321.026	6.21
321.48	6.2
321.934	6.2
322.387	6.19
322.841	6.18
323.295	6.16
323.748	6.15
324.202	6.15
324.655	6.14
325.108	6.12
325.562	6.1
326.015	6.08
326.468	6.06
326.921	6.04
327.374	6.02
327.827	6.01
328.28	6
328.733	5.99
329.186	5.98
329.639	5.96
330.092	5.95
330.545	5.95
330.997	5.94
331.45	5.94
331.903	5.92
332.355	5.92
332.808	5.91
333.26	5.91
333.713	5.91
334.165	5.9
334.617	5.91
335.069	5.9
335.522	5.89
335.974	5.89
336.426	5.9
336.878	5.91
337.33	5.91
337.782	5.91
338.234	5.91
338.686	5.91
339.137	5.91
339.589	5.91
340.041	5.91
340.493	5.9
340.944	5.89
341.396	5.9
341.847	5.89
342.299	5.87
342.75	5.86
343.201	5.84
343.653	5.83
344.104	5.81
344.555	5.81
345.006	5.81
345.457	5.8
345.908	5.8
346.359	5.8
346.81	5.8
347.261	5.81
347.712	5.81
348.163	5.83
348.613	5.84
349.064	5.84
349.515	5.84
349.965	5.84
350.416	5.87
350.866	5.89
351.317	5.89
351.767	5.9
352.217	5.91
352.668	5.92
353.118	5.94
353.568	5.95
354.018	5.99
354.468	6.01
354.918	6.04
355.368	6.07
355.818	6.07
356.268	6.11
356.718	6.14
357.168	6.17
357.617	6.2
358.067	6.25
358.517	6.28
358.966	6.33
359.416	6.38
359.865	6.41
360.315	6.46
360.764	6.51
361.213	6.55
361.663	6.6
362.112	6.66
362.561	6.72
363.01	6.77
363.459	6.83
363.908	6.88
364.357	6.93
364.806	6.99
365.255	7.05
365.703	7.11
366.152	7.16
366.601	7.22
367.05	7.27
367.498	7.32
367.947	7.38
368.395	7.44
368.844	7.5
369.292	7.55
369.74	7.59
370.189	7.63
370.637	7.69
371.085	7.74
371.533	7.78
371.981	7.82
372.429	7.86
372.877	7.9
373.325	7.93
373.773	7.97
374.221	8.02
374.669	8.07
375.116	8.1
375.564	8.13
376.012	8.16
376.459	8.2
376.907	8.24
377.354	8.27
377.801	8.31
378.249	8.35
378.696	8.38
379.143	8.4
379.591	8.42
380.038	8.46
380.485	8.49
380.932	8.52
381.379	8.54
381.826	8.58
382.273	8.58
382.72	8.61
383.166	8.62
383.613	8.64
384.06	8.66
384.506	8.68
384.953	8.67
385.4	8.68
385.846	8.69
386.292	8.71
386.739	8.71
387.185	8.74
387.631	8.75
388.078	8.77
388.524	8.76
388.97	8.75
389.416	8.75
389.862	8.77
390.308	8.78
390.754	8.78
391.2	8.79
391.645	8.81
392.091	8.81
392.537	8.8
392.983	8.81
393.428	8.84
393.874	8.87
394.319	8.87
394.765	8.87
395.21	8.85
395.655	8.85
396.101	8.83
396.546	8.82
396.991	8.8
397.436	8.79
397.881	8.78
398.326	8.77
398.771	8.76
399.216	8.77
399.661	8.76
400.106	8.77
400.551	8.77
400.995	8.76
401.44	8.73
401.885	8.72
402.329	8.7
402.774	8.66
403.218	8.63
403.663	8.6
404.107	8.57
404.551	8.55
404.995	8.52
405.44	8.49
405.884	8.46
406.328	8.45
406.772	8.43
407.216	8.43
407.66	8.43
408.104	8.42
408.547	8.4
408.991	8.37
409.435	8.35
409.879	8.32
410.322	8.3
410.766	8.3
411.209	8.28
411.653	8.26
412.096	8.24
412.54	8.21
412.983	8.2
413.426	8.2
413.869	8.21
414.312	8.21
414.756	8.24
415.199	8.24
415.642	8.24
416.085	8.25
416.527	8.27
416.97	8.29
417.413	8.29
417.856	8.26
418.298	8.24
418.741	8.23
419.184	8.21
419.626	8.19
420.069	8.18
420.511	8.16
420.953	8.15
421.396	8.13
421.838	8.12
422.28	8.15
422.722	8.17
423.164	8.18
423.606	8.19
424.048	8.17
424.49	8.18
424.932	8.17
425.374	8.19
425.816	8.16
426.258	8.13
426.699	8.09
427.141	8.03
427.582	8
428.024	7.97
428.465	7.97
428.907	7.98
429.348	7.96
429.789	7.95
430.231	7.92
430.672	7.91
431.113	7.92
431.554	7.94
431.995	7.97
432.436	7.97
432.877	7.96
433.318	7.93
433.759	7.93
434.2	7.94
434.64	7.95
435.081	7.93
435.522	7.95
435.962	7.96
436.403	7.97
436.843	7.99
437.284	8.01
437.724	8.02
438.164	8.03
438.604	8.05
439.045	8.05
439.485	8.06
439.925	8.06
440.365	8.06
440.805	8.05
441.245	8.03
441.685	8.04
442.125	8.04
442.564	8.08
443.004	8.11
443.444	8.13
443.883	8.13
444.323	8.14
444.762	8.2
445.202	8.25
445.641	8.27
446.081	8.33
446.52	8.32
446.959	8.33
447.398	8.36
447.837	8.4
448.276	8.41
448.716	8.46
449.154	8.52
449.593	8.53
450.032	8.55
450.471	8.59
450.91	8.61
451.349	8.65
451.787	8.66
452.226	8.64
452.664	8.64
453.103	8.65
453.541	8.66
453.98	8.64
454.418	8.63
454.856	8.62
455.295	8.6
455.733	8.59
456.171	8.58
456.609	8.59
457.047	8.58
457.485	8.58
457.923	8.56
458.361	8.54
458.798	8.52
459.236	8.52
459.674	8.49
460.111	8.5
460.549	8.49
460.987	8.47
461.424	8.45
461.862	8.45
462.299	8.43
462.736	8.42
463.173	8.42
463.611	8.41
464.048	8.4
464.485	8.41
464.922	8.37
465.359	8.38
465.796	8.37
466.233	8.37
466.67	8.36
467.106	8.34
467.543	8.35
467.98	8.36
468.416	8.38
468.853	8.39
469.29	8.39
469.726	8.41
470.162	8.4
470.599	8.41
471.035	8.42
471.471	8.42
471.907	8.43
472.344	8.44
472.78	8.44
473.216	8.42
473.652	8.42
474.088	8.43
474.523	8.44
474.959	8.44
475.395	8.44
475.831	8.44
476.266	8.45
476.702	8.46
477.138	8.44
477.573	8.44
478.008	8.44
478.444	8.44
478.879	8.44
479.314	8.44
479.75	8.44
480.185	8.45
480.62	8.44
481.055	8.45
481.49	8.44
481.925	8.43
482.36	8.42
482.795	8.42
483.229	8.43
483.664	8.42
484.099	8.42
484.534	8.43
484.968	8.43
485.403	8.42
485.837	8.43
486.271	8.45
486.706	8.46
487.14	8.49
487.574	8.51
488.009	8.53
488.443	8.55
488.877	8.56
489.311	8.59
489.745	8.63
490.179	8.68
490.613	8.72
491.046	8.76
491.48	8.81
491.914	8.85
492.348	8.9
492.781	8.94
493.215	9
493.648	9.08
494.082	9.15
494.515	9.21
494.948	9.28
495.382	9.35
495.815	9.43
496.248	9.52
496.681	9.62
497.114	9.71
497.547	9.82
497.98	9.93
498.413	10.02
498.846	10.14
499.279	10.26
499.711	10.38
500.144	10.51
500.577	10.64
501.009	10.79
501.442	10.95
501.874	11.11
502.306	11.27
502.739	11.43
503.171	11.62
503.603	11.8
504.036	12
504.468	12.2
504.9	12.41
505.332	12.63
505.764	12.85
506.196	13.08
506.627	13.32
507.059	13.57
507.491	13.83
507.923	14.1
508.354	14.39
508.786	14.67
509.217	14.94
509.649	15.24
510.08	15.53
510.512	15.82
510.943	16.13
511.374	16.44
511.805	16.76
512.237	17.1
512.668	17.43
513.099	17.75
513.53	18.1
513.961	18.46
514.391	18.8
514.822	19.16
515.253	19.51
515.684	19.86
516.114	20.23
516.545	20.58
516.975	20.94
517.406	21.29
517.836	21.65
518.267	21.99
518.697	22.36
519.127	22.74
519.558	23.1
519.988	23.47
520.418	23.81
520.848	24.15
521.278	24.51
521.708	24.82
522.138	25.13
522.567	25.45
522.997	25.77
523.427	26.07
523.857	26.34
524.286	26.63
524.716	26.91
525.145	27.18
525.575	27.41
526.004	27.65
526.433	27.91
526.863	28.16
527.292	28.39
527.721	28.59
528.15	28.78
528.579	28.99
529.008	29.16
529.437	29.34
529.866	29.51
530.295	29.69
530.724	29.87
531.152	30.03
531.581	30.18
532.01	30.3
532.438	30.43
532.867	30.55
533.295	30.66
533.723	30.77
534.152	30.89
534.58	30.98
535.008	31.05
535.436	31.09
535.865	31.15
536.293	31.22
536.721	31.29
537.149	31.36
537.576	31.42
538.004	31.46
538.432	31.51
538.86	31.52
539.287	31.56
539.715	31.61
540.143	31.63
540.57	31.66
540.998	31.69
541.425	31.72
541.852	31.75
542.28	31.76
542.707	31.8
543.134	31.82
543.561	31.85
543.988	31.87
544.415	31.9
544.842	31.94
545.269	31.96
545.696	31.98
546.123	32.01
546.549	32.03
546.976	32.08
547.403	32.11
547.829	32.14
548.256	32.17
548.682	32.18
549.108	32.19
549.535	32.22
549.961	32.23
550.387	32.23
550.813	32.22
551.24	32.23
551.666	32.23
552.092	32.21
552.518	32.19
552.943	32.17
553.369	32.18
553.795	32.17
554.221	32.13
554.646	32.11
555.072	32.08
555.498	32.03
555.923	31.97
556.349	31.9
556.774	31.82
557.199	31.77
557.625	31.68
558.05	31.58
558.475	31.48
558.9	31.41
559.325	31.29
559.75	31.16
560.175	31.05
560.6	30.94
561.025	30.81
561.449	30.66
561.874	30.51
562.299	30.37
562.723	30.24
563.148	30.08
563.572	29.92
563.997	29.77
564.421	29.6
564.846	29.45
565.27	29.28
565.694	29.1
566.118	28.93
566.542	28.74
566.966	28.54
567.39	28.31
567.814	28.11
568.238	27.88
568.662	27.65
569.086	27.47
569.509	27.24
569.933	27.02
570.357	26.8
570.78	26.6
571.204	26.39
571.627	26.2
572.05	26.02
572.474	25.83
572.897	25.65
573.32	25.48
573.743	25.28
574.166	25.12
574.589	24.96
575.012	24.81
575.435	24.66
575.858	24.53
576.281	24.39
576.704	24.25
577.126	24.13
577.549	24.02
577.972	23.92
578.394	23.8
578.817	23.68
579.239	23.56
579.661	23.47
580.084	23.36
580.506	23.27
580.928	23.17
581.35	23.08
581.772	23
582.194	22.87
582.616	22.78
583.038	22.7
583.46	22.63
583.882	22.56
584.303	22.45
584.725	22.37
585.147	22.26
585.568	22.15
585.99	22.07
586.411	21.99
586.833	21.91
587.254	21.82
587.675	21.74
588.096	21.67
588.518	21.59
588.939	21.54
589.36	21.47
589.781	21.43
590.202	21.37
590.623	21.31
591.043	21.25
591.464	21.2
591.885	21.16
592.305	21.11
592.726	21.05
593.147	21.01
593.567	20.96
593.987	20.94
594.408	20.88
594.828	20.86
595.248	20.81
595.669	20.77
596.089	20.73
596.509	20.69
596.929	20.65
597.349	20.59
597.769	20.54
598.189	20.5
598.608	20.43
599.028	20.37
599.448	20.32
599.867	20.27
600.287	20.23
600.706	20.16
601.126	20.09
601.545	20.04
601.965	19.99
602.384	19.93
602.803	19.85
603.222	19.78
603.641	19.71
604.061	19.64
604.48	19.56
604.898	19.47
605.317	19.39
605.736	19.32
606.155	19.23
606.574	19.14
606.992	19.03
607.411	18.96
607.829	18.83
608.248	18.75
608.666	18.64
609.085	18.56
609.503	18.46
609.921	18.36
610.339	18.27
610.758	18.18
611.176	18.09
611.594	18.02
612.012	17.92
612.43	17.86
612.847	17.77
613.265	17.7
613.683	17.6
614.101	17.51
614.518	17.44
614.936	17.35
615.353	17.26
615.771	17.17
616.188	17.09
616.606	17.01
617.023	16.94
617.44	16.86
617.857	16.78
618.274	16.71
618.691	16.65
619.108	16.59
619.525	16.53
619.942	16.49
620.359	16.46
620.776	16.41
621.192	16.36
621.609	16.34
622.026	16.31
622.442	16.28
622.859	16.25
623.275	16.24
623.691	16.22
624.108	16.2
624.524	16.17
624.94	16.13
625.356	16.12
625.772	16.12
626.188	16.11
626.604	16.08
627.02	16.06
627.436	16.05
627.852	16.02
628.268	16
628.683	15.97
629.099	15.96
629.514	15.94
629.93	15.89
630.345	15.84
630.761	15.78
631.176	15.76
631.591	15.72
632.007	15.64
632.422	15.6
632.837	15.54
633.252	15.47
633.667	15.39
634.082	15.3
634.497	15.21
634.911	15.1
635.326	14.99
635.741	14.86
636.155	14.74
636.57	14.63
636.984	14.49
637.399	14.33
637.813	14.19
638.228	14.06
638.642	13.91
639.056	13.77
639.47	13.63
639.884	13.49
640.298	13.34
640.712	13.18
641.126	13.02
641.54	12.86
641.954	12.74
642.368	12.6
642.781	12.44
643.195	12.29
643.609	12.15
644.022	12.03
644.436	11.9
644.849	11.78
645.262	11.67
645.676	11.55
646.089	11.45
646.502	11.33
646.915	11.24
647.328	11.16
647.741	11.09
648.154	11.03
648.567	10.97
648.98	10.9
649.393	10.86
649.805	10.79
650.218	10.75
650.631	10.71
651.043	10.69
651.456	10.64
651.868	10.59
652.28	10.55
652.693	10.48
653.105	10.43
653.517	10.37
653.929	10.33
654.341	10.29
654.753	10.23
655.165	10.17
655.577	10.09
655.989	9.99
656.401	9.92
656.813	9.83
657.224	9.76
657.636	9.68
658.047	9.6
658.459	9.49
658.87	9.4
659.282	9.32
659.693	9.23
660.104	9.15
660.515	9.08
660.926	9.01
661.338	8.94
661.749	8.86
662.159	8.78
662.57	8.71
662.981	8.65
663.392	8.57
663.803	8.5
664.213	8.43
664.624	8.38
665.035	8.33
665.445	8.29
665.855	8.25
666.266	8.2
666.676	8.16
667.086	8.12
667.497	8.09
667.907	8.07
668.317	8.05
668.727	8.04
669.137	8.04
669.547	8.04
669.956	8.03
670.366	8.03
670.776	8.05
671.186	8.06
671.595	8.09
672.005	8.11
672.414	8.13
672.824	8.15
673.233	8.17
673.642	8.18
674.052	8.2
674.461	8.23
674.87	8.25
675.279	8.28
675.688	8.29
676.097	8.31
676.506	8.35
676.915	8.41
677.323	8.47
677.732	8.54
678.141	8.61
678.549	8.68
678.958	8.75
679.366	8.82
679.775	8.91
680.183	9.02
680.592	9.13
681	9.22
681.408	9.32
681.816	9.42
682.224	9.56
682.632	9.69
683.04	9.84
683.448	10.02
683.856	10.21
684.264	10.42
684.671	10.65
685.079	10.91
685.487	11.21
685.894	11.52
686.302	11.86
686.709	12.21
687.116	12.61
687.524	13.04
687.931	13.48
688.338	13.98
688.745	14.49
689.152	15.02
689.559	15.59
689.966	16.16
690.373	16.81
690.78	17.46
691.187	18.14
691.593	18.81
692	19.53
692.407	20.25
692.813	20.97
693.22	21.69
693.626	22.43
694.032	23.18
694.439	23.97
694.845	24.72
695.251	25.47
695.657	26.23
696.063	27
696.469	27.74
696.875	28.49
697.281	29.23
697.687	30
698.093	30.74
698.498	31.44
698.904	32.14
699.31	32.83
699.715	33.52
700.12	34.19
700.526	34.88
700.931	35.53
701.337	36.19
701.742	36.82
702.147	37.43
702.552	38.05
702.957	38.67
703.362	39.27
703.767	39.86
704.172	40.42
704.577	41
704.981	41.54
705.386	42.09
705.791	42.62
706.195	43.17
706.6	43.7
707.004	44.19
707.408	44.71
707.813	45.21
708.217	45.71
708.621	46.22
709.025	46.72
709.43	47.15
709.834	47.62
710.237	48.05
710.641	48.48
711.045	48.9
711.449	49.34
711.853	49.74
712.256	50.17
712.66	50.57
713.064	50.94
713.467	51.27
713.87	51.68
714.274	52.06
714.677	52.43
715.08	52.76
715.484	53.11
715.887	53.47
716.29	53.83
716.693	54.1
717.096	54.42
717.499	54.75
717.901	55.05
718.304	55.34
718.707	55.62
719.109	55.92
719.512	56.25
719.915	56.55
720.317	56.84
720.719	57.07
721.122	57.36
721.524	57.61
721.926	57.88
722.328	58.17
722.731	58.42
723.133	58.68
723.535	58.93
723.937	59.16
724.338	59.35
724.74	59.54
725.142	59.7
725.544	59.89
725.945	60.08
726.347	60.25
726.748	60.36
727.15	60.49
727.551	60.64
727.952	60.77
728.354	60.93
728.755	61.11
729.156	61.27
729.557	61.47
729.958	61.6
730.359	61.71
730.76	61.84
731.161	62.02
731.562	62.19
731.962	62.32
732.363	62.42
732.763	62.52
733.164	62.6
733.564	62.66
733.965	62.76
734.365	62.83
734.766	62.94
735.166	62.99
735.566	63
735.966	63
736.366	63.03
736.766	63.09
737.166	63.15
737.566	63.19
737.966	63.26
738.365	63.31
738.765	63.39
739.165	63.39
739.564	63.44
739.964	63.52
740.363	63.61
740.763	63.65
741.162	63.7
741.561	63.71
741.96	63.76
742.36	63.82
742.759	63.83
743.158	63.83
743.557	63.91
743.955	63.96
744.354	64.01
744.753	64.06
745.152	64.12
745.55	64.14
745.949	64.2
746.348	64.22
746.746	64.21
747.144	64.26
747.543	64.33
747.941	64.35
748.339	64.4
748.737	64.45
749.136	64.45
749.534	64.49
749.932	64.51
750.33	64.5
750.727	64.51
751.125	64.55
751.523	64.55
751.921	64.58
752.318	64.59
752.716	64.55
753.113	64.54
753.511	64.51
753.908	64.52
754.305	64.52
754.703	64.49
755.1	64.48
755.497	64.49
755.894	64.48
756.291	64.45
756.688	64.41
757.085	64.41
757.482	64.38
757.878	64.43
758.275	64.4
758.672	64.41
759.068	64.41
759.465	64.47
759.861	64.42
760.258	64.4
760.654	64.35
761.05	64.34
761.447	64.34
761.843	64.35
762.239	64.29
762.635	64.29
763.031	64.26
763.427	64.25
763.822	64.21
764.218	64.2
764.614	64.21
765.01	64.26
765.405	64.26
765.801	64.22
766.196	64.17
766.592	64.19
766.987	64.15
767.382	64.15
767.778	64.15
768.173	64.08
768.568	64.05
768.963	64.03
769.358	64
769.753	64
770.148	64.02
770.542	64.01
770.937	63.98
771.332	63.98
771.726	63.95
772.121	63.89
772.515	63.92
772.91	63.98
773.304	63.97
773.699	63.97
774.093	63.92
774.487	63.94
774.881	63.94
775.275	63.95
775.669	63.96
776.063	63.95
776.457	63.98
776.851	63.97
777.245	63.93
777.638	63.93
778.032	63.92
778.425	63.95
778.819	63.93
779.212	63.93
779.606	63.92
779.999	63.91
780.392	63.93
780.786	63.93
781.179	63.92
781.572	63.94
781.965	63.94
782.358	63.92
782.751	63.93
783.143	63.94
783.536	63.96
783.929	63.99
784.322	64.02
784.714	64.04
785.107	64.06
785.499	64.1
785.891	64.06
786.284	64.03
786.676	64.08
787.068	64.07
787.46	64.05
787.852	64.04
788.245	64.06
788.636	64.05
789.028	64.07
789.42	64.05
789.812	64.05
790.204	64
790.595	64.05
790.987	64.01
791.378	64.03
791.77	64.04
792.161	64.06
792.553	64.05
792.944	64.06
793.335	64.08
793.726	64.1
794.117	64.11
794.508	64.17
794.899	64.16
795.29	64.17
795.681	64.16
796.072	64.19
796.463	64.21
796.853	64.21
797.244	64.22
797.634	64.19
798.025	64.22
798.415	64.24
798.806	64.29
799.196	64.34
799.586	64.42
799.976	64.47
800.366	64.5
800.756	64.49
801.146	64.51
801.536	64.49
801.926	64.53
802.316	64.53
802.706	64.54
803.095	64.57
803.485	64.58
803.874	64.55
804.264	64.61
804.653	64.57
805.043	64.6
805.432	64.59
805.821	64.62
806.21	64.64
806.599	64.71
806.988	64.73
807.377	64.74
807.766	64.74
808.155	64.76
808.544	64.72
808.933	64.75
809.321	64.79
809.71	64.88
810.098	64.9
810.487	64.9
810.875	64.83
811.264	64.87
811.652	64.87
812.04	64.89
812.428	64.89
812.816	64.95
813.204	65.01
813.592	65.05
813.98	65.01
814.368	65.02
814.756	65.06
815.144	65.14
815.531	65.14
815.919	65.11
816.306	65.12
816.694	65.16
817.081	65.15
817.469	65.14
817.856	65.16
818.243	65.21
818.63	65.27
819.017	65.28
819.404	65.27
819.791	65.28
820.178	65.35
820.565	65.35
820.952	65.35
821.339	65.41
821.725	65.44
822.112	65.44
822.498	65.46
822.885	65.44
823.271	65.46
823.657	65.45
824.044	65.46
824.43	65.49
824.816	65.5
825.202	65.48
825.588	65.47
825.974	65.44
826.36	65.41
826.746	65.41
827.132	65.36
827.517	65.35
827.903	65.38
828.289	65.4
828.674	65.36
829.06	65.39
829.445	65.43
829.83	65.41
830.216	65.43
830.601	65.44
830.986	65.43
831.371	65.49
831.756	65.44
832.141	65.45
832.526	65.43
832.911	65.46
833.295	65.46
833.68	65.44
834.065	65.45
834.449	65.42
834.834	65.39
835.218	65.36
835.603	65.36
835.987	65.36
836.371	65.33
836.755	65.28
837.139	65.21
837.524	65.2
837.908	65.15
838.291	65.13
838.675	65.15
839.059	65.17
839.443	65.18
839.827	65.15
840.21	65.18
840.594	65.19
840.977	65.22
841.361	65.23
841.744	65.23
842.127	65.21
842.511	65.2
842.894	65.15
843.277	65.11
843.66	65.11
844.043	65.08
844.426	65.03
844.809	65.01
845.191	65
845.574	64.97
845.957	64.92
846.339	64.95
846.722	64.96
847.104	64.95
847.487	64.97
847.869	64.97
848.252	64.96
848.634	64.98
849.016	64.97
849.398	64.97
849.78	64.99
850.162	65.03
850.544	65.04
850.926	65.02
851.307	65.06
851.689	65.06
852.071	65.02
852.452	65.05
852.834	65.04
853.215	65.06
853.597	65.06
853.978	65.03
854.359	65.03
854.741	65.05
855.122	65.04
855.503	65.05
855.884	65.04
856.265	65.04
856.646	65.01
857.026	65.04
857.407	65.01
857.788	65.04
858.169	65.05
858.549	65.03
858.93	64.99
859.31	64.97
859.69	64.94
860.071	64.96
860.451	64.99
860.831	65.02
861.211	64.99
861.591	65.02
861.971	65.02
862.351	65.01
862.731	65.03
863.111	65.04
863.491	65.09
863.87	65.11
864.25	65.14
864.629	65.11
865.009	65.1
865.388	65.13
865.768	65.1
866.147	65.12
866.526	65.14
866.905	65.14
867.284	65.17
867.663	65.17
868.042	65.16
868.421	65.12
868.8	65.15
869.179	65.15
869.558	65.1
869.936	65.08
870.315	65.07
870.693	65.07
871.072	65.06
871.45	65.02
871.828	65.02
872.207	65.05
872.585	65.05
872.963	65.02
873.341	64.99
873.719	65.01
874.097	65.04
874.475	65.01
874.853	65
875.23	65
875.608	65.01
875.986	64.96
876.363	64.93
876.741	64.92
877.118	64.88
877.495	64.89
877.873	64.85
878.25	64.81
878.627	64.84
879.004	64.84
879.381	64.84
879.758	64.8
880.135	64.84
880.512	64.83
880.889	64.86
881.265	64.88
881.642	64.89
882.019	64.92
882.395	64.96
882.772	64.94
883.148	64.9
883.524	64.91
883.901	64.92
884.277	64.9
884.653	64.88
885.029	64.85
885.405	64.81
885.781	64.8
886.157	64.78
886.532	64.77
886.908	64.77
887.284	64.8
887.659	64.77
888.035	64.77
888.411	64.74
888.786	64.74
889.161	64.72
889.537	64.77
889.912	64.75
890.287	64.73
890.662	64.71
891.037	64.67
891.412	64.62
891.787	64.6
892.162	64.6
892.536	64.57
892.911	64.56
893.286	64.55
893.66	64.54
894.035	64.51
894.409	64.52
894.784	64.49
895.158	64.49
895.532	64.46
895.906	64.47
896.281	64.44
896.655	64.44
897.029	64.44
897.402	64.43
897.776	64.41
898.15	64.42
898.524	64.41
898.898	64.4
899.271	64.41
899.645	64.43
900.018	64.39
900.392	64.4
900.765	64.42
901.138	64.41
901.511	64.39
901.884	64.37
902.258	64.36
902.631	64.36
903.003	64.36
903.376	64.35
903.749	64.36
904.122	64.35
904.495	64.31
904.867	64.31
905.24	64.3
905.612	64.29
905.985	64.28
906.357	64.26
906.729	64.26
907.102	64.23
907.474	64.24
907.846	64.2
908.218	64.19
908.59	64.19
908.962	64.17
909.334	64.14
909.705	64.12
910.077	64.09
910.449	64.1
910.82	64.04
911.192	64.05
911.563	63.99
911.935	63.97
912.306	63.97
912.677	63.92
913.048	63.88
913.419	63.89
913.79	63.91
914.161	63.92
914.532	63.91
914.903	63.89
915.274	63.9
915.645	63.91
916.015	63.94
916.386	63.92
916.756	63.91
917.127	63.96
917.497	63.92
917.868	63.9
918.238	63.9
918.608	63.87
918.978	63.87
919.348	63.82
919.718	63.79
920.088	63.76
920.458	63.82
920.828	63.89
921.198	63.84
921.567	63.84
921.937	63.83
922.306	63.82
922.676	63.82
923.045	63.77
923.415	63.77
923.784	63.79
924.153	63.79
924.522	63.75
924.891	63.67
925.26	63.64
925.629	63.59
925.998	63.58
926.367	63.56
926.736	63.5
927.104	63.56
927.473	63.54
927.842	63.48
928.21	63.44
928.578	63.35
928.947	63.33
929.315	63.36
929.683	63.38
930.051	63.32
930.42	63.28
930.788	63.25
931.156	63.17
931.523	63.14
931.891	63.1
932.259	63
932.627	62.98
932.994	62.9
933.362	62.79
933.729	62.65
934.097	62.57
934.464	62.47
934.831	62.35
935.199	62.27
935.566	62.08
935.933	61.98
936.3	61.9
936.667	61.78
937.034	61.69
937.401	61.58
937.767	61.52
938.134	61.46
938.501	61.45
938.867	61.45
939.234	61.43
939.6	61.48
939.967	61.44
940.333	61.51
940.699	61.62
941.065	61.69
941.431	61.88
941.798	62.01
942.163	62.14
942.529	62.17
942.895	62.29
943.261	62.38
943.627	62.46
943.992	62.6
944.358	62.61
944.723	62.64
945.089	62.71
945.454	62.68
945.82	62.64
946.185	62.65
946.55	62.76
946.915	62.77
947.28	62.78
947.645	62.81
948.01	62.87
948.375	62.94
948.74	62.85
949.104	62.91
949.469	62.78
949.834	62.72
950.198	62.51
950.562	62.4
950.927	62.39
951.291	62.4
951.655	62.37
952.02	62.32
952.384	62.32
952.748	62.31
953.112	62.21
953.476	62.24
953.839	62.28
954.203	62.32
954.567	62.28
954.931	62.22
955.294	62.14
955.658	62.05
956.021	61.99
956.385	61.93
956.748	61.94
957.111	61.91
957.474	61.94
957.837	61.91
958.2	61.88
958.563	61.88
958.926	61.83
959.289	61.81
959.652	61.79
960.015	61.82
960.377	61.71
960.74	61.65
961.102	61.62
961.465	61.51
961.827	61.44
962.189	61.41
962.552	61.28
962.914	61.23
963.276	61.16
963.638	61.14
964	61.04
964.362	61.04
964.724	61.01
965.085	61
965.447	60.98
965.809	60.91
966.17	60.87
966.532	60.94
966.893	60.92
967.255	60.88
967.616	60.91
967.977	60.88
968.338	60.79
968.699	60.72
969.061	60.59
969.421	60.57
969.782	60.57
970.143	60.53
970.504	60.47
970.865	60.39
971.225	60.32
971.586	60.24
971.946	60.27
972.307	60.32
972.667	60.39
973.027	60.44
973.388	60.42
973.748	60.38
974.108	60.43
974.468	60.45
974.828	60.47
975.188	60.57
975.548	60.55
975.907	60.47
976.267	60.41
976.627	60.36
976.986	60.39
977.346	60.43
977.705	60.51
978.064	60.49
978.424	60.46
978.783	60.47
979.142	60.35
979.501	60.36
979.86	60.42
980.219	60.39
980.578	60.32
980.937	60.28
981.296	60.19
981.654	60.17
982.013	60.15
982.371	60.14
982.73	60.1
983.088	60.12
983.447	60.15
983.805	60.08
984.163	60.08
984.521	60.02
984.879	60.07
985.237	60.19
985.595	60.08
985.953	59.98
986.311	60
986.669	59.97
987.026	59.88
987.384	59.71
987.741	59.79
988.099	59.73
988.456	59.74
988.814	59.69
989.171	59.52
989.528	59.48
989.885	59.55
990.242	59.6
990.599	59.58
990.956	59.66
991.313	59.71
991.67	59.66
992.027	59.74
992.383	59.85
992.74	59.75
993.096	59.77
993.453	59.84
993.809	59.8
994.165	59.76
994.522	59.74
994.878	59.76
995.234	59.68
995.59	59.58
995.946	59.55
996.302	59.3
996.658	59.24
997.013	59.25
997.369	59.35
997.725	59.5
998.08	59.48
998.436	59.6
998.791	59.51
999.147	59.55
999.502	59.44
999.857	59.49
1000.212	59.62
1000.567	59.66
1000.922	59.69
1001.277	59.48
1001.632	59.28
1001.987	59.16
1002.342	59.07
1002.696	59.17
1003.051	59.17
1003.406	59.17
1003.76	58.91
1004.114	58.83
1004.469	58.62
1004.823	58.47
1005.177	58.54
1005.531	58.52
1005.885	58.6
1006.239	58.54
1006.593	58.32
1006.947	58.27
1007.301	58.37
1007.655	58.5
1008.008	58.37
1008.362	58.49
1008.715	58.65
1009.069	58.43
1009.422	58.23
1009.776	58.13
1010.129	57.95
1010.482	58.05
1010.835	58.04
1011.188	57.91
1011.541	57.8
1011.894	58.02
1012.247	58.05
1012.6	57.7
1012.952	57.79
1013.305	57.74
1013.657	57.71
1014.01	58.01
1014.362	57.97
1014.715	57.67
1015.067	57.88
1015.419	57.88
1015.771	57.9
1016.123	57.69
1016.475	57.87
1016.827	57.87
1017.179	58.16
1017.531	58.14
1017.883	58.22
1018.234	58.16
1018.586	58.45
1018.938	57.98
1019.289	57.69
1019.64	57.65
1019.992	57.8
1020.343	57.56
1020.694	57.49
1021.045	57.45
1021.396	57.3
1021.747	56.77
1022.098	56.74
1022.449	56.44
1022.8	56.64
1023.151	56.8
1023.501	56.64
1023.852	56.41
1024.202	56.31
1024.553	56.05
1024.903	55.85
1025.253	55.97
1025.604	55.72
1025.954	55.51
1026.304	56.12
1026.654	56.12
1027.004	56.12
1027.354	55.83
1027.703	55.8
1028.053	55.77
1028.403	55.73
1028.753	55.58
1029.102	55.64
1029.452	56.26
1029.801	56.72
1030.15	56.23
1030.499	56.13
897.758	574.92
901.051	583.53
904.343	590.67
907.636	582.92
910.928	571.76
914.22	581.75
917.511	570.86
920.803	553.24
924.094	531.2
927.384	536.71
930.675	518.66
933.965	514.56
937.255	514.95
940.544	492.98
943.834	468.62
947.123	463.16
950.411	441.7
953.7	431.75
956.988	416.16
960.276	399.25
963.563	393.19
966.851	372.41
970.138	367.66
973.424	343.14
976.711	337.38
979.997	328.47
983.283	320.11
986.568	308.61
989.853	299.93
993.138	289.19
996.423	285.4
999.708	276.09
1002.992	278.55
1006.275	267.62
1009.559	265.2
1012.842	258.54
1016.125	249.71
1019.408	245.97
1022.69	243.89
1025.972	242.4
1029.254	237.19
1032.536	231.48
1035.817	225.73
1039.098	220.99
1042.379	217.35
1045.659	214.98
1048.939	212.23
1052.219	208.84
1055.498	204.78
1058.778	201.58
1062.057	198.64
1065.335	197.65
1068.614	194.15
1071.892	191.75
1075.17	189.14
1078.447	186.77
1081.724	184.76
1085.001	180.72
1088.278	180.62
1091.554	179.76
1094.83	178.85
1098.106	174.95
1101.382	173.18
1104.657	174.1
1107.932	172.87
1111.206	171.18
1114.481	169.42
1117.755	167.46
1121.029	168.62
1124.302	165.53
1127.575	162.78
1130.848	161.45
1134.121	160.11
1137.393	159.97
1140.665	157.85
1143.937	156.15
1147.208	155.04
1150.48	153.48
1153.75	154.19
1157.021	150.59
1160.291	150.59
1163.561	150.1
1166.831	149.54
1170.101	149.02
1173.37	147.5
1176.639	146.04
1179.907	145.81
1183.176	143.87
1186.444	143.94
1189.711	142.45
1192.979	144.79
1196.246	144.78
1199.513	144.79
1202.78	143.82
1206.046	143.85
1209.312	145.8
1212.578	146.47
1215.843	148.93
1219.108	150.77
1222.373	153.89
1225.638	156.36
1228.902	159.03
1232.166	163.7
1235.43	165.54
1238.693	170.9
1241.956	175.16
1245.219	178.62
1248.482	179.46
1251.744	178.64
1255.006	180.39
1258.268	175.25
1261.529	173.48
1264.79	169.44
1268.051	166.59
1271.312	165.24
1274.572	161.53
1277.832	157.13
1281.092	154.65
1284.351	152.35
1287.61	152.23
1290.869	150.75
1294.128	150.74
1297.386	149.87
1300.644	148.87
1303.902	148
1307.159	146.87
1310.416	147.74
1313.673	149.82
1316.93	151.33
1320.186	153.35
1323.442	154.33
1326.697	157.13
1329.953	158.89
1333.208	164.38
1336.463	170.55
1339.717	173.64
1342.972	182.69
1346.226	187.39
1349.479	188.68
1352.733	197.06
1355.986	202.32
1359.238	206.93
1362.491	208.69
1365.743	215.57
1368.995	216.22
1372.247	215.44
1375.498	215
1378.749	221.11
1382	221.46
1385.251	220.24
1388.501	219.87
1391.751	220.72
1395	219.71
1398.25	221.73
1401.499	219.03
1404.748	219.01
1407.996	214.29
1411.244	214
1414.492	210.23
1417.74	204.37
1420.987	199.8
1424.234	195.66
1427.481	188.02
1430.728	183.1
1433.974	176.88
1437.22	172.47
1440.465	165.86
1443.711	161.89
1446.956	156.26
1450.201	150.81
1453.445	142.93
1456.689	139.4
1459.933	134.35
1463.177	128.86
1466.42	126.3
1469.663	122.74
1472.906	118.86
1476.148	115.6
1479.391	112.92
1482.633	111.06
1485.874	109.04
1489.115	109.01
1492.356	106.83
1495.597	105.23
1498.838	105.33
1502.078	104.34
1505.318	103.65
1508.557	103.36
1511.797	102.65
1515.036	102.41
1518.274	101.82
1521.513	100.49
1524.751	99.63
1527.989	100.39
1531.227	100.24
1534.464	100.05
1537.701	99.01
1540.938	98.67
1544.174	98.74
1547.41	98.72
1550.646	98.82
1553.882	99.08
1557.117	98.52
1560.352	98.15
1563.587	97.87
1566.821	97.43
1570.055	97.02
1573.289	96.98
1576.523	96.76
1579.756	96.07
1582.989	95.93
1586.222	95.85
1589.454	96.07
1592.686	96.75
1595.918	96.61
1599.15	96.08
1602.381	96.33
1605.612	96.52
1608.843	96.56
1612.073	97
1615.303	97.35
1618.533	97.21
1621.762	96.62
1624.992	96.1
1628.221	95.43
1631.449	96.16
1634.678	96.68
1637.906	96.66
1641.134	96.51
1644.361	96.66
1647.588	96.84
1650.815	96.83
1654.042	97.11
1657.269	97.33
1660.495	97.9
1663.72	98.02
1666.946	98.13
1670.171	98.18
1673.396	98.68
1676.621	99
1679.845	98.98
1683.069	98.85
1686.293	98.94
1689.517	99.31
1692.74	99.61
1695.963	99.58
1699.185	100.29
1702.408	99.91
1705.63	100.18
1708.852	100.83
1712.073	100.48
1715.294	100.82
1718.515	101.34
1721.736	101.16
1724.956	101.52
1728.176	101.22
1731.396	101.84
1734.616	101.79
1737.835	102.37
1741.054	101.5
1744.272	101.77
1747.491	101.51
1750.709	102.4
1753.927	102.26
1757.144	102.36
1760.361	102.4
1763.578	102.89
1766.795	103.33
1770.011	103.52
1773.227	103.92
1776.443	105.24
1779.658	104.53
1782.874	105.72
1786.089	105.06
1789.303	105.2
1792.518	106.75
1795.732	107.17
1798.945	108.6
1802.159	108.23
1805.372	109.5
1808.585	110.48
1811.797	111.35
1815.01	111.81
1818.222	112.49
1821.434	114.27
1824.645	114.74
1827.856	115.67
1831.067	116.31
1834.278	117.7
1837.488	118.98
1840.698	119.8
1843.908	119.51
1847.117	120.65
1850.326	122.59
1853.535	122.82
1856.744	123.63
1859.952	124.88
1863.16	125.12
1866.368	125.15
1869.575	125.37
1872.782	124.14
1875.989	122.66
1879.196	122.93
1882.402	121.56
1885.608	121.79
1888.814	121.85
1892.019	122.83
1895.224	121.47
1898.429	120.98
1901.634	121.36
1904.838	121.1
1908.042	123.26
1911.246	122.96
1914.449	123.23
1917.652	123.19
1920.855	123.64
1924.058	122.15
1927.26	120.67
1930.462	122.31
1933.664	123.17
1936.865	123.16
1940.066	122.05
1943.267	119.9
1946.467	122.51
1949.668	122.09
1952.868	122.73
1956.067	122.59
1959.267	123.03
1962.466	124
1965.665	124.06
1968.863	124.1
1972.061	125.64
1975.259	128.52
1978.457	131.06
1981.654	131
1984.852	132.76
1988.048	134.58
1991.245	136.13
1994.441	141.03
1997.637	142.18
2000.833	145.91
2004.028	147.76
2007.223	151.28
2010.418	153.64
2013.613	159.81
2016.807	163.96
2020.001	166.34
2023.194	171.33
2026.388	176.65
2029.581	185.33
2032.774	193.62
2035.966	197.11
2039.158	203.07
2042.35	205.62
2045.542	208.79
2048.733	216.59
2051.924	219.73
2055.115	225.59
2058.306	227.33
2061.496	231.65
2064.686	230.68
2067.875	227.25
2071.065	232.56
2074.254	231.91
2077.442	239.9
2080.631	242.41
2083.819	242.41
2087.007	245.43
2090.195	248.8
2093.382	248.65
2096.569	249.8
2099.756	252.9
2102.942	259.54
2106.128	263.71
2109.314	265.41
2112.5	264.19
2115.685	262.08
2118.87	263.14
2122.055	267.28
2125.239	270.41
2128.424	276.37
2131.608	276.68
2134.791	276.74
2137.974	276.62
2141.157	278.18
2144.34	282.37
2147.523	284.86
2150.705	294
2153.887	291.21
2157.068	291.5
2160.25	296.52
2163.431	296.84
2166.611	298.79
2169.792	304.2
2172.972	309.35
2176.152	309.92
2179.331	316.23
2182.511	319.05
2185.69	321.52
2188.868	333.43
2192.047	344.58
2195.225	348.49
2198.403	352.16
2201.58	350.38
2204.758	363.28
2207.935	363.53
2211.111	370.18
2214.288	372.01
2217.464	376.49
2220.64	383.07
2223.815	383.58
2226.991	373.37
2230.166	376.59
2233.34	388.37
2236.515	397.2
2239.689	389.65
2242.863	401.06
2246.036	397.93
2249.209	406.03
2252.382	405.56
2255.555	416.63
2258.727	420.46
2261.9	437.57
2265.071	442.03
2268.243	438.82
2271.414	451.6
2274.585	464.22
2277.756	462.09
2280.926	482.24
2284.096	481.52
2287.266	484.02
2290.436	480.42
2293.605	490.39
2296.774	505.07
2299.942	506.04
2303.111	519.9
2306.279	531.55
2309.447	534.41
2312.614	532.5
2315.781	544.3
2318.948	551.45
2322.115	561.82
2325.281	588.3
2328.447	583.28
2331.613	588.6
2334.779	597.85
2337.944	606.65
2341.109	615.93
2344.274	618.38
2347.438	635.89
2350.602	640.48
2353.766	682.46
2356.929	685.94
2360.092	691.92
2363.255	698.69
2366.418	705.63
2369.58	722.01
2372.742	724.99
2375.904	721.09
2379.066	741.36
2382.227	786.33
2385.388	786.53
2388.548	748.71
2391.709	743.63
2394.869	762.64
2398.029	761.56
2401.188	762.28
2404.347	784.88
2407.506	808.58
2410.665	785.84
2413.823	785.91
2416.981	789.16
2420.139	750.87
2423.296	811.85
2426.453	867.54
2429.61	816.62
2432.767	874.72
2435.923	904.15
2439.079	870.95
2442.235	895.14
2445.391	911.08
2448.546	905.06
2451.701	954.44
2454.855	1022.18
2458.009	901.02
2461.163	909.73
2464.317	939.65
2467.471	918.11
2470.624	946.78
2473.777	932.42
2476.929	896.96
2480.082	956.52
2483.234	1009.22
2486.385	1016.96
2489.537	1042.56
2492.688	1150.99
2495.839	1129.01
2498.989	1154.74
2502.14	1161.67
2505.29	1112.1
2508.439	1227.22
2511.589	1262.88
2514.738	1229.72
2517.887	1214.46
2521.035	1141.69
2524.183	1127.3
2527.331	1115.5
2530.479	1092.84
2533.627	1119.49
