Data from C_3_hir_il_4n_Splice17_18.txt Node
Date: Sat Feb 29 15:11:39 EST 2020
User: sa697716
Spectrometer: FLMS03696
Trigger mode: 0
Integration Time (sec): 3.180400E-1
Scans to average: 20
Electric dark correction enabled: true
Nonlinearity correction enabled: true
Boxcar width: 5
XAxis mode: Wavelengths
Number of Pixels in Spectrum: 2048
>>>>>Begin Spectral Data<<<<<
187.83	55.67
188.298	40.2
188.766	53.19
189.233	45.05
189.701	60.29
190.169	61.27
190.636	57.52
191.104	77.97
191.571	227.42
192.039	146.18
192.506	16.34
192.974	7092.27
193.441	-391.97
193.908	142.61
194.375	130.48
194.842	250.63
195.31	147.94
195.777	168.33
196.244	110.85
196.711	85.72
197.177	81.64
197.644	78.85
198.111	78.59
198.578	78.41
199.045	79.31
199.511	80.22
199.978	80.71
200.445	80.03
200.911	79.88
201.378	79.71
201.844	80.36
202.31	80.6
202.777	81
203.243	81.73
203.709	81.85
204.176	81.32
204.642	81.07
205.108	80.4
205.574	81.11
206.04	80.79
206.506	80.25
206.972	79.5
207.438	78.94
207.903	78.05
208.369	76.34
208.835	75.61
209.301	74.74
209.766	73.44
210.232	72.38
210.697	70.83
211.163	69.4
211.628	68.14
212.094	66.98
212.559	65.83
213.024	64.58
213.49	63.34
213.955	61.69
214.42	60.21
214.885	58.61
215.35	56.6
215.815	53.8
216.28	51.05
216.745	47.94
217.21	44.48
217.675	41.33
218.14	38.47
218.604	35.85
219.069	33.72
219.534	31.73
219.998	30.03
220.463	28.64
220.927	27.45
221.392	26.46
221.856	25.57
222.32	24.83
222.785	24.13
223.249	23.56
223.713	23.09
224.177	22.57
224.642	22.16
225.106	21.75
225.57	21.37
226.034	21.05
226.497	20.69
226.961	20.33
227.425	20
227.889	19.69
228.353	19.37
228.816	19.08
229.28	18.78
229.744	18.51
230.207	18.27
230.671	18.01
231.134	17.75
231.597	17.5
232.061	17.31
232.524	17.11
232.987	16.88
233.45	16.68
233.914	16.49
234.377	16.33
234.84	16.15
235.303	15.99
235.766	15.83
236.229	15.67
236.691	15.55
237.154	15.4
237.617	15.27
238.08	15.18
238.542	15.06
239.005	14.93
239.468	14.81
239.93	14.69
240.393	14.55
240.855	14.42
241.317	14.32
241.78	14.2
242.242	14.07
242.704	13.96
243.166	13.82
243.629	13.73
244.091	13.61
244.553	13.51
245.015	13.42
245.477	13.31
245.939	13.2
246.4	13.1
246.862	13.01
247.324	12.94
247.786	12.85
248.247	12.76
248.709	12.65
249.17	12.56
249.632	12.48
250.093	12.37
250.555	12.29
251.016	12.21
251.477	12.13
251.939	12.04
252.4	11.94
252.861	11.86
253.322	11.79
253.783	11.74
254.244	11.67
254.705	11.6
255.166	11.55
255.627	11.48
256.088	11.4
256.549	11.34
257.009	11.27
257.47	11.22
257.931	11.15
258.391	11.07
258.852	10.99
259.312	10.92
259.773	10.86
260.233	10.8
260.694	10.73
261.154	10.67
261.614	10.6
262.074	10.54
262.534	10.46
262.994	10.41
263.455	10.35
263.915	10.29
264.374	10.23
264.834	10.17
265.294	10.11
265.754	10.06
266.214	10.01
266.673	9.97
267.133	9.93
267.593	9.9
268.052	9.86
268.512	9.82
268.971	9.78
269.431	9.75
269.89	9.71
270.349	9.69
270.809	9.66
271.268	9.63
271.727	9.59
272.186	9.57
272.645	9.53
273.104	9.5
273.563	9.47
274.022	9.44
274.481	9.41
274.94	9.38
275.399	9.34
275.857	9.31
276.316	9.28
276.775	9.25
277.233	9.22
277.692	9.2
278.15	9.16
278.609	9.13
279.067	9.1
279.525	9.06
279.984	9.04
280.442	9.02
280.9	8.99
281.358	8.97
281.816	8.94
282.274	8.91
282.732	8.89
283.19	8.88
283.648	8.86
284.106	8.84
284.564	8.84
285.021	8.83
285.479	8.81
285.937	8.8
286.394	8.78
286.852	8.77
287.309	8.76
287.767	8.74
288.224	8.72
288.682	8.7
289.139	8.68
289.596	8.65
290.053	8.61
290.511	8.57
290.968	8.55
291.425	8.52
291.882	8.48
292.339	8.44
292.796	8.41
293.252	8.37
293.709	8.34
294.166	8.31
294.623	8.29
295.079	8.27
295.536	8.25
295.992	8.22
296.449	8.2
296.905	8.18
297.362	8.17
297.818	8.15
298.274	8.13
298.731	8.11
299.187	8.09
299.643	8.07
300.099	8.05
300.555	8.03
301.011	8.01
301.467	8
301.923	7.99
302.379	7.97
302.835	7.97
303.291	7.96
303.746	7.94
304.202	7.93
304.658	7.9
305.113	7.89
305.569	7.89
306.024	7.89
306.479	7.87
306.935	7.87
307.39	7.86
307.845	7.84
308.301	7.84
308.756	7.84
309.211	7.84
309.666	7.85
310.121	7.84
310.576	7.83
311.031	7.81
311.486	7.82
311.94	7.81
312.395	7.81
312.85	7.81
313.305	7.8
313.759	7.79
314.214	7.78
314.668	7.78
315.123	7.78
315.577	7.77
316.032	7.77
316.486	7.76
316.94	7.76
317.394	7.73
317.849	7.71
318.303	7.7
318.757	7.68
319.211	7.66
319.665	7.64
320.119	7.62
320.572	7.6
321.026	7.58
321.48	7.56
321.934	7.54
322.387	7.53
322.841	7.51
323.295	7.49
323.748	7.48
324.202	7.48
324.655	7.46
325.108	7.45
325.562	7.43
326.015	7.42
326.468	7.4
326.921	7.38
327.374	7.37
327.827	7.37
328.28	7.37
328.733	7.34
329.186	7.34
329.639	7.33
330.092	7.31
330.545	7.31
330.997	7.3
331.45	7.3
331.903	7.3
332.355	7.3
332.808	7.3
333.26	7.3
333.713	7.31
334.165	7.31
334.617	7.31
335.069	7.31
335.522	7.33
335.974	7.33
336.426	7.34
336.878	7.33
337.33	7.32
337.782	7.32
338.234	7.32
338.686	7.31
339.137	7.31
339.589	7.3
340.041	7.29
340.493	7.27
340.944	7.26
341.396	7.24
341.847	7.23
342.299	7.2
342.75	7.18
343.201	7.15
343.653	7.13
344.104	7.1
344.555	7.07
345.006	7.05
345.457	7.04
345.908	7.02
346.359	7.01
346.81	6.99
347.261	6.97
347.712	6.96
348.163	6.96
348.613	6.94
349.064	6.93
349.515	6.91
349.965	6.91
350.416	6.89
350.866	6.88
351.317	6.87
351.767	6.86
352.217	6.87
352.668	6.86
353.118	6.85
353.568	6.86
354.018	6.86
354.468	6.86
354.918	6.87
355.368	6.87
355.818	6.88
356.268	6.89
356.718	6.89
357.168	6.88
357.617	6.88
358.067	6.87
358.517	6.87
358.966	6.87
359.416	6.87
359.865	6.86
360.315	6.85
360.764	6.85
361.213	6.84
361.663	6.84
362.112	6.85
362.561	6.85
363.01	6.85
363.459	6.85
363.908	6.85
364.357	6.85
364.806	6.85
365.255	6.86
365.703	6.85
366.152	6.85
366.601	6.85
367.05	6.84
367.498	6.84
367.947	6.83
368.395	6.84
368.844	6.82
369.292	6.81
369.74	6.81
370.189	6.8
370.637	6.8
371.085	6.8
371.533	6.78
371.981	6.78
372.429	6.78
372.877	6.77
373.325	6.76
373.773	6.76
374.221	6.77
374.669	6.76
375.116	6.75
375.564	6.74
376.012	6.75
376.459	6.76
376.907	6.76
377.354	6.75
377.801	6.76
378.249	6.77
378.696	6.78
379.143	6.77
379.591	6.77
380.038	6.77
380.485	6.79
380.932	6.78
381.379	6.77
381.826	6.77
382.273	6.77
382.72	6.77
383.166	6.77
383.613	6.77
384.06	6.77
384.506	6.77
384.953	6.77
385.4	6.77
385.846	6.77
386.292	6.79
386.739	6.8
387.185	6.82
387.631	6.83
388.078	6.82
388.524	6.83
388.97	6.82
389.416	6.82
389.862	6.84
390.308	6.85
390.754	6.85
391.2	6.86
391.645	6.87
392.091	6.88
392.537	6.91
392.983	6.94
393.428	6.97
393.874	7.01
394.319	7.03
394.765	7.04
395.21	7.05
395.655	7.08
396.101	7.1
396.546	7.11
396.991	7.12
397.436	7.11
397.881	7.13
398.326	7.15
398.771	7.17
399.216	7.2
399.661	7.23
400.106	7.28
400.551	7.29
400.995	7.3
401.44	7.29
401.885	7.31
402.329	7.33
402.774	7.33
403.218	7.33
403.663	7.34
404.107	7.35
404.551	7.36
404.995	7.35
405.44	7.37
405.884	7.38
406.328	7.41
406.772	7.44
407.216	7.47
407.66	7.51
408.104	7.54
408.547	7.57
408.991	7.59
409.435	7.61
409.879	7.64
410.322	7.68
410.766	7.72
411.209	7.75
411.653	7.75
412.096	7.77
412.54	7.78
412.983	7.79
413.426	7.82
413.869	7.85
414.312	7.88
414.756	7.92
415.199	7.95
415.642	7.99
416.085	8.03
416.527	8.08
416.97	8.11
417.413	8.12
417.856	8.13
418.298	8.13
418.741	8.13
419.184	8.13
419.626	8.12
420.069	8.12
420.511	8.12
420.953	8.11
421.396	8.12
421.838	8.13
422.28	8.17
422.722	8.21
423.164	8.23
423.606	8.26
424.048	8.28
424.49	8.31
424.932	8.32
425.374	8.32
425.816	8.33
426.258	8.31
426.699	8.27
427.141	8.25
427.582	8.23
428.024	8.23
428.465	8.25
428.907	8.28
429.348	8.29
429.789	8.3
430.231	8.28
430.672	8.29
431.113	8.33
431.554	8.37
431.995	8.39
432.436	8.4
432.877	8.39
433.318	8.38
433.759	8.37
434.2	8.38
434.64	8.41
435.081	8.43
435.522	8.45
435.962	8.46
436.403	8.5
436.843	8.53
437.284	8.55
437.724	8.6
438.164	8.59
438.604	8.61
439.045	8.61
439.485	8.61
439.925	8.61
440.365	8.61
440.805	8.6
441.245	8.57
441.685	8.59
442.125	8.6
442.564	8.59
443.004	8.62
443.444	8.63
443.883	8.63
444.323	8.64
444.762	8.67
445.202	8.7
445.641	8.71
446.081	8.73
446.52	8.72
446.959	8.74
447.398	8.78
447.837	8.8
448.276	8.8
448.716	8.85
449.154	8.87
449.593	8.87
450.032	8.87
450.471	8.89
450.91	8.86
451.349	8.86
451.787	8.84
452.226	8.81
452.664	8.77
453.103	8.75
453.541	8.72
453.98	8.7
454.418	8.68
454.856	8.63
455.295	8.59
455.733	8.58
456.171	8.55
456.609	8.53
457.047	8.5
457.485	8.5
457.923	8.48
458.361	8.45
458.798	8.46
459.236	8.43
459.674	8.42
460.111	8.43
460.549	8.42
460.987	8.43
461.424	8.41
461.862	8.42
462.299	8.4
462.736	8.4
463.173	8.4
463.611	8.37
464.048	8.4
464.485	8.4
464.922	8.39
465.359	8.4
465.796	8.38
466.233	8.38
466.67	8.38
467.106	8.38
467.543	8.38
467.98	8.39
468.416	8.39
468.853	8.37
469.29	8.39
469.726	8.39
470.162	8.37
470.599	8.38
471.035	8.39
471.471	8.39
471.907	8.38
472.344	8.38
472.78	8.37
473.216	8.37
473.652	8.36
474.088	8.34
474.523	8.33
474.959	8.33
475.395	8.31
475.831	8.29
476.266	8.28
476.702	8.28
477.138	8.25
477.573	8.23
478.008	8.21
478.444	8.19
478.879	8.18
479.314	8.17
479.75	8.16
480.185	8.14
480.62	8.14
481.055	8.11
481.49	8.09
481.925	8.08
482.36	8.06
482.795	8.05
483.229	8.04
483.664	8.03
484.099	8.01
484.534	7.98
484.968	7.98
485.403	7.95
485.837	7.94
486.271	7.92
486.706	7.92
487.14	7.91
487.574	7.9
488.009	7.9
488.443	7.9
488.877	7.9
489.311	7.9
489.745	7.9
490.179	7.92
490.613	7.92
491.046	7.94
491.48	7.95
491.914	7.97
492.348	7.98
492.781	7.99
493.215	8
493.648	8.01
494.082	8.04
494.515	8.06
494.948	8.06
495.382	8.08
495.815	8.1
496.248	8.14
496.681	8.15
497.114	8.17
497.547	8.19
497.98	8.22
498.413	8.26
498.846	8.3
499.279	8.34
499.711	8.38
500.144	8.43
500.577	8.48
501.009	8.52
501.442	8.57
501.874	8.63
502.306	8.69
502.739	8.75
503.171	8.82
503.603	8.89
504.036	8.95
504.468	9.03
504.9	9.13
505.332	9.2
505.764	9.3
506.196	9.4
506.627	9.51
507.059	9.63
507.491	9.74
507.923	9.87
508.354	9.99
508.786	10.14
509.217	10.26
509.649	10.41
510.08	10.58
510.512	10.73
510.943	10.89
511.374	11.06
511.805	11.23
512.237	11.41
512.668	11.59
513.099	11.78
513.53	11.98
513.961	12.2
514.391	12.4
514.822	12.6
515.253	12.81
515.684	13.03
516.114	13.25
516.545	13.48
516.975	13.72
517.406	13.96
517.836	14.19
518.267	14.43
518.697	14.66
519.127	14.9
519.558	15.15
519.988	15.4
520.418	15.64
520.848	15.88
521.278	16.15
521.708	16.24
522.138	16.47
522.567	16.71
522.997	16.94
523.427	17.17
523.857	17.39
524.286	17.62
524.716	17.83
525.145	18.06
525.575	18.28
526.004	18.5
526.433	18.83
526.863	19.03
527.292	19.23
527.721	19.43
528.15	19.6
528.579	19.77
529.008	19.94
529.437	20.09
529.866	20.23
530.295	20.36
530.724	20.49
531.152	20.64
531.581	20.75
532.01	20.86
532.438	20.96
532.867	21.07
533.295	21.19
533.723	21.27
534.152	21.37
534.58	21.45
535.008	21.51
535.436	21.57
535.865	21.61
536.293	21.68
536.721	21.73
537.149	21.79
537.576	21.83
538.004	21.86
538.432	21.9
538.86	21.94
539.287	21.99
539.715	22.04
540.143	22.07
540.57	22.1
540.998	22.14
541.425	22.18
541.852	22.2
542.28	22.23
542.707	22.26
543.134	22.3
543.561	22.31
543.988	22.34
544.415	22.37
544.842	22.41
545.269	22.45
545.696	22.49
546.123	22.52
546.549	22.57
546.976	22.6
547.403	22.62
547.829	22.65
548.256	22.67
548.682	22.69
549.108	22.73
549.535	22.73
549.961	22.74
550.387	22.74
550.813	22.73
551.24	22.74
551.666	22.73
552.092	22.73
552.518	22.71
552.943	22.71
553.369	22.69
553.795	22.66
554.221	22.64
554.646	22.61
555.072	22.58
555.498	22.55
555.923	22.51
556.349	22.47
556.774	22.42
557.199	22.36
557.625	22.31
558.05	22.25
558.475	22.18
558.9	22.09
559.325	22.02
559.75	21.93
560.175	21.82
560.6	21.73
561.025	21.61
561.449	21.52
561.874	21.4
562.299	21.27
562.723	21.14
563.148	21
563.572	20.87
563.997	20.73
564.421	20.58
564.846	20.44
565.27	20.27
565.694	20.11
566.118	19.92
566.542	19.77
566.966	19.6
567.39	19.43
567.814	19.29
568.238	19.11
568.662	18.94
569.086	18.77
569.509	18.61
569.933	18.44
570.357	18.28
570.78	18.14
571.204	17.98
571.627	17.84
572.05	17.71
572.474	17.56
572.897	17.43
573.32	17.3
573.743	17.17
574.166	17.05
574.589	16.93
575.012	16.82
575.435	16.7
575.858	16.6
576.281	16.48
576.704	16.38
577.126	16.27
577.549	16.19
577.972	16.08
578.394	16
578.817	15.9
579.239	15.82
579.661	15.76
580.084	15.71
580.506	15.63
580.928	15.54
581.35	15.47
581.772	15.41
582.194	15.34
582.616	15.29
583.038	15.22
583.46	15.17
583.882	15.12
584.303	15.04
584.725	15
585.147	14.93
585.568	14.87
585.99	14.82
586.411	14.78
586.833	14.72
587.254	14.67
587.675	14.62
588.096	14.58
588.518	14.54
588.939	14.49
589.36	14.42
589.781	14.39
590.202	14.36
590.623	14.31
591.043	14.26
591.464	14.24
591.885	14.19
592.305	14.15
592.726	14.11
593.147	14.09
593.567	14.06
593.987	14.04
594.408	14.01
594.828	13.99
595.248	13.97
595.669	13.94
596.089	13.91
596.509	13.89
596.929	13.86
597.349	13.83
597.769	13.78
598.189	13.75
598.608	13.72
599.028	13.67
599.448	13.63
599.867	13.58
600.287	13.55
600.706	13.5
601.126	13.45
601.545	13.4
601.965	13.37
602.384	13.33
602.803	13.27
603.222	13.21
603.641	13.17
604.061	13.13
604.48	13.09
604.898	13.04
605.317	12.98
605.736	12.94
606.155	12.89
606.574	12.83
606.992	12.77
607.411	12.72
607.829	12.63
608.248	12.57
608.666	12.5
609.085	12.43
609.503	12.36
609.921	12.3
610.339	12.24
610.758	12.16
611.176	12.09
611.594	12.04
612.012	11.97
612.43	11.96
612.847	11.9
613.265	11.84
613.683	11.78
614.101	11.72
614.518	11.67
614.936	11.61
615.353	11.57
615.771	11.52
616.188	11.47
616.606	11.43
617.023	11.37
617.44	11.33
617.857	11.29
618.274	11.25
618.691	11.23
619.108	11.19
619.525	11.17
619.942	11.15
620.359	11.12
620.776	11.1
621.192	11.07
621.609	11.05
622.026	11.02
622.442	11.01
622.859	10.99
623.275	10.97
623.691	10.95
624.108	10.93
624.524	10.92
624.94	10.9
625.356	10.9
625.772	10.89
626.188	10.89
626.604	10.88
627.02	10.88
627.436	10.89
627.852	10.88
628.268	10.87
628.683	10.85
629.099	10.83
629.514	10.81
629.93	10.8
630.345	10.76
630.761	10.74
631.176	10.72
631.591	10.7
632.007	10.66
632.422	10.63
632.837	10.6
633.252	10.57
633.667	10.51
634.082	10.47
634.497	10.4
634.911	10.37
635.326	10.3
635.741	10.23
636.155	10.16
636.57	10.1
636.984	10.02
637.399	9.95
637.813	9.87
638.228	9.81
638.642	9.76
639.056	9.7
639.47	9.62
639.884	9.56
640.298	9.5
640.712	9.42
641.126	9.35
641.54	9.29
641.954	9.24
642.368	9.19
642.781	9.13
643.195	9.05
643.609	9
644.022	8.93
644.436	8.87
644.849	8.83
645.262	8.79
645.676	8.74
646.089	8.69
646.502	8.64
646.915	8.59
647.328	8.55
647.741	8.51
648.154	8.49
648.567	8.48
648.98	8.45
649.393	8.43
649.805	8.39
650.218	8.38
650.631	8.35
651.043	8.34
651.456	8.32
651.868	8.31
652.28	8.29
652.693	8.25
653.105	8.22
653.517	8.2
653.929	8.17
654.341	8.16
654.753	8.13
655.165	8.12
655.577	8.08
655.989	8.06
656.401	8.03
656.813	8
657.224	7.98
657.636	7.96
658.047	7.93
658.459	7.9
658.87	7.87
659.282	7.85
659.693	7.81
660.104	7.79
660.515	7.75
660.926	7.73
661.338	7.7
661.749	7.67
662.159	7.63
662.57	7.61
662.981	7.59
663.392	7.56
663.803	7.55
664.213	7.53
664.624	7.53
665.035	7.51
665.445	7.5
665.855	7.5
666.266	7.5
666.676	7.5
667.086	7.5
667.497	7.49
667.907	7.49
668.317	7.48
668.727	7.49
669.137	7.48
669.547	7.5
669.956	7.5
670.366	7.51
670.776	7.52
671.186	7.54
671.595	7.55
672.005	7.57
672.414	7.58
672.824	7.6
673.233	7.62
673.642	7.64
674.052	7.66
674.461	7.68
674.87	7.69
675.279	7.7
675.688	7.71
676.097	7.73
676.506	7.76
676.915	7.78
677.323	7.82
677.732	7.85
678.141	7.88
678.549	7.91
678.958	7.95
679.366	7.98
679.775	8.04
680.183	8.09
680.592	8.15
681	8.18
681.408	8.23
681.816	8.27
682.224	8.32
682.632	8.37
683.04	8.42
683.448	8.49
683.856	8.57
684.264	8.65
684.671	8.72
685.079	8.8
685.487	8.92
685.894	9.04
686.302	9.18
686.709	9.32
687.116	9.48
687.524	9.66
687.931	9.84
688.338	10.06
688.745	10.3
689.152	10.57
689.559	10.85
689.966	11.13
690.373	11.47
690.78	11.81
691.187	12.16
691.593	12.56
692	12.97
692.407	13.4
692.813	13.84
693.22	14.3
693.626	14.75
694.032	15.26
694.439	15.78
694.845	16.29
695.251	16.82
695.657	17.37
696.063	17.92
696.469	18.49
696.875	19.04
697.281	19.61
697.687	20.2
698.093	20.79
698.498	21.36
698.904	21.97
699.31	22.55
699.715	23.14
700.12	23.73
700.526	24.32
700.931	24.89
701.337	25.49
701.742	26.05
702.147	26.63
702.552	27.2
702.957	27.76
703.362	28.33
703.767	28.89
704.172	29.45
704.577	30.02
704.981	30.57
705.386	31.13
705.791	31.67
706.195	32.21
706.6	32.74
707.004	33.25
707.408	33.79
707.813	34.29
708.217	34.81
708.621	35.32
709.025	35.8
709.43	36.27
709.834	36.78
710.237	37.28
710.641	37.78
711.045	38.26
711.449	38.77
711.853	39.26
712.256	39.74
712.66	40.23
713.064	40.67
713.467	41.14
713.87	41.61
714.274	42.06
714.677	42.47
715.08	42.88
715.484	43.33
715.887	43.77
716.29	44.18
716.693	44.59
717.096	45.01
717.499	45.43
717.901	45.83
718.304	46.23
718.707	46.63
719.109	47.07
719.512	47.49
719.915	47.86
720.317	48.22
720.719	48.58
721.122	48.96
721.524	49.3
721.926	49.66
722.328	50
722.731	50.34
723.133	50.66
723.535	51
723.937	51.29
724.338	51.57
724.74	51.86
725.142	52.11
725.544	52.36
725.945	52.6
726.347	52.85
726.748	53.09
727.15	53.32
727.551	53.56
727.952	53.76
728.354	54.01
728.755	54.23
729.156	54.44
729.557	54.67
729.958	54.9
730.359	55.09
730.76	55.26
731.161	55.46
731.562	55.65
731.962	55.82
732.363	55.95
732.763	56.11
733.164	56.24
733.564	56.37
733.965	56.47
734.365	56.55
734.766	56.72
735.166	56.82
735.566	56.91
735.966	56.95
736.366	57.04
736.766	57.16
737.166	57.24
737.566	57.33
737.966	57.42
738.365	57.57
738.765	57.65
739.165	57.69
739.564	57.76
739.964	57.87
740.363	57.99
740.763	58.04
741.162	58.09
741.561	58.14
741.96	58.23
742.36	58.32
742.759	58.36
743.158	58.42
743.557	58.51
743.955	58.6
744.354	58.66
744.753	58.73
745.152	58.79
745.55	58.87
745.949	58.91
746.348	58.99
746.746	59.01
747.144	59.09
747.543	59.18
747.941	59.25
748.339	59.36
748.737	59.4
749.136	59.43
749.534	59.5
749.932	59.53
750.33	59.59
750.727	59.59
751.125	59.61
751.523	59.6
751.921	59.62
752.318	59.6
752.716	59.54
753.113	59.53
753.511	59.5
753.908	59.45
754.305	59.42
754.703	59.4
755.1	59.39
755.497	59.39
755.894	59.38
756.291	59.35
756.688	59.34
757.085	59.34
757.482	59.36
757.878	59.4
758.275	59.44
758.672	59.47
759.068	59.49
759.465	59.48
759.861	59.45
760.258	59.43
760.654	59.45
761.05	59.47
761.447	59.45
761.843	59.43
762.239	59.39
762.635	59.37
763.031	59.35
763.427	59.31
763.822	59.3
764.218	59.31
764.614	59.35
765.01	59.31
765.405	59.27
765.801	59.26
766.196	59.26
766.592	59.28
766.987	59.29
767.382	59.31
767.778	59.3
768.173	59.32
768.568	59.3
768.963	59.27
769.358	59.3
769.753	59.37
770.148	59.38
770.542	59.39
770.937	59.36
771.332	59.37
771.726	59.34
772.121	59.34
772.515	59.35
772.91	59.36
773.304	59.37
773.699	59.36
774.093	59.3
774.487	59.28
774.881	59.25
775.275	59.27
775.669	59.31
776.063	59.31
776.457	59.29
776.851	59.29
777.245	59.3
777.638	59.28
778.032	59.31
778.425	59.32
778.819	59.37
779.212	59.38
779.606	59.38
779.999	59.32
780.392	59.34
780.786	59.37
781.179	59.4
781.572	59.44
781.965	59.44
782.358	59.4
782.751	59.42
783.143	59.44
783.536	59.47
783.929	59.52
784.322	59.59
784.714	59.59
785.107	59.61
785.499	59.62
785.891	59.61
786.284	59.59
786.676	59.6
787.068	59.59
787.46	59.56
787.852	59.57
788.245	59.53
788.636	59.47
789.028	59.49
789.42	59.48
789.812	59.43
790.204	59.38
790.595	59.43
790.987	59.44
791.378	59.47
791.77	59.52
792.161	59.52
792.553	59.52
792.944	59.56
793.335	59.58
793.726	59.55
794.117	59.56
794.508	59.62
794.899	59.62
795.29	59.62
795.681	59.61
796.072	59.56
796.463	59.56
796.853	59.56
797.244	59.55
797.634	59.5
798.025	59.55
798.415	59.59
798.806	59.64
799.196	59.67
799.586	59.71
799.976	59.7
800.366	59.79
800.756	59.81
801.146	59.82
801.536	59.85
801.926	59.9
802.316	59.91
802.706	59.93
803.095	59.93
803.485	59.96
803.874	59.97
804.264	60.05
804.653	60.01
805.043	60.05
805.432	60.04
805.821	60.06
806.21	60.08
806.599	60.15
806.988	60.13
807.377	60.17
807.766	60.16
808.155	60.19
808.544	60.19
808.933	60.22
809.321	60.22
809.71	60.31
810.098	60.32
810.487	60.36
810.875	60.33
811.264	60.36
811.652	60.37
812.04	60.38
812.428	60.41
812.816	60.42
813.204	60.41
813.592	60.42
813.98	60.42
814.368	60.42
814.756	60.45
815.144	60.49
815.531	60.53
815.919	60.54
816.306	60.55
816.694	60.57
817.081	60.55
817.469	60.58
817.856	60.66
818.243	60.68
818.63	60.73
819.017	60.72
819.404	60.65
819.791	60.68
820.178	60.68
820.565	60.69
820.952	60.65
821.339	60.71
821.725	60.75
822.112	60.74
822.498	60.75
822.885	60.74
823.271	60.76
823.657	60.79
824.044	60.77
824.43	60.8
824.816	60.8
825.202	60.78
825.588	60.76
825.974	60.71
826.36	60.69
826.746	60.64
827.132	60.62
827.517	60.62
827.903	60.64
828.289	60.63
828.674	60.56
829.06	60.58
829.445	60.58
829.83	60.55
830.216	60.54
830.601	60.53
830.986	60.55
831.371	60.55
831.756	60.48
832.141	60.46
832.526	60.42
832.911	60.46
833.295	60.42
833.68	60.4
834.065	60.43
834.449	60.4
834.834	60.34
835.218	60.32
835.603	60.29
835.987	60.27
836.371	60.25
836.755	60.22
837.139	60.14
837.524	60.12
837.908	60.09
838.291	60.02
838.675	60.05
839.059	60.06
839.443	60.04
839.827	60.01
840.21	60.05
840.594	60.04
840.977	60.02
841.361	60.05
841.744	60.08
842.127	60.09
842.511	60.07
842.894	60.02
843.277	60
843.66	59.98
844.043	59.99
844.426	59.97
844.809	59.95
845.191	59.95
845.574	59.92
845.957	59.86
846.339	59.87
846.722	59.89
847.104	59.91
847.487	59.92
847.869	59.9
848.252	59.88
848.634	59.9
849.016	59.92
849.398	59.91
849.78	59.91
850.162	59.91
850.544	59.9
850.926	59.86
851.307	59.85
851.689	59.84
852.071	59.85
852.452	59.85
852.834	59.8
853.215	59.78
853.597	59.8
853.978	59.81
854.359	59.81
854.741	59.81
855.122	59.84
855.503	59.85
855.884	59.85
856.265	59.84
856.646	59.84
857.026	59.87
857.407	59.84
857.788	59.86
858.169	59.85
858.549	59.85
858.93	59.86
859.31	59.84
859.69	59.83
860.071	59.85
860.451	59.89
860.831	59.91
861.211	59.89
861.591	59.92
861.971	59.91
862.351	59.92
862.731	59.93
863.111	59.95
863.491	59.96
863.87	59.95
864.25	59.97
864.629	59.93
865.009	59.88
865.388	59.87
865.768	59.87
866.147	59.88
866.526	59.86
866.905	59.87
867.284	59.85
867.663	59.83
868.042	59.81
868.421	59.81
868.8	59.82
869.179	59.87
869.558	59.9
869.936	59.89
870.315	59.87
870.693	59.89
871.072	59.87
871.45	59.85
871.828	59.84
872.207	59.87
872.585	59.86
872.963	59.84
873.341	59.83
873.719	59.8
874.097	59.79
874.475	59.79
874.853	59.79
875.23	59.81
875.608	59.82
875.986	59.81
876.363	59.79
876.741	59.78
877.118	59.76
877.495	59.76
877.873	59.76
878.25	59.77
878.627	59.78
879.004	59.77
879.381	59.74
879.758	59.75
880.135	59.77
880.512	59.79
880.889	59.77
881.265	59.82
881.642	59.78
882.019	59.77
882.395	59.77
882.772	59.74
883.148	59.73
883.524	59.76
883.901	59.75
884.277	59.75
884.653	59.72
885.029	59.73
885.405	59.7
885.781	59.69
886.157	59.68
886.532	59.66
886.908	59.65
887.284	59.64
887.659	59.59
888.035	59.58
888.411	59.54
888.786	59.52
889.161	59.51
889.537	59.49
889.912	59.48
890.287	59.44
890.662	59.42
891.037	59.38
891.412	59.35
891.787	59.32
892.162	59.3
892.536	59.3
892.911	59.28
893.286	59.22
893.66	59.18
894.035	59.16
894.409	59.17
894.784	59.12
895.158	59.12
895.532	59.08
895.906	59.03
896.281	59
896.655	58.96
897.029	58.93
897.402	58.94
897.776	58.94
898.15	58.94
898.524	58.9
898.898	58.91
899.271	58.91
899.645	58.91
900.018	58.93
900.392	58.92
900.765	58.91
901.138	58.92
901.511	58.91
901.884	58.92
902.258	58.91
902.631	58.96
903.003	58.97
903.376	58.97
903.749	59
904.122	59.02
904.495	59.05
904.867	59.08
905.24	59.11
905.612	59.1
905.985	59.07
906.357	59.07
906.729	59.03
907.102	59.03
907.474	59.03
907.846	59.02
908.218	58.96
908.59	58.94
908.962	58.92
909.334	58.9
909.705	58.92
910.077	58.9
910.449	58.9
910.82	58.91
911.192	58.88
911.563	58.86
911.935	58.84
912.306	58.88
912.677	58.9
913.048	58.89
913.419	58.89
913.79	58.91
914.161	58.91
914.532	58.9
914.903	58.88
915.274	58.89
915.645	58.92
916.015	58.94
916.386	58.94
916.756	58.9
917.127	58.94
917.497	58.88
917.868	58.87
918.238	58.88
918.608	58.89
918.978	58.92
919.348	58.92
919.718	58.89
920.088	58.92
920.458	58.93
920.828	58.93
921.198	58.96
921.567	59
921.937	59.02
922.306	59.04
922.676	59.07
923.045	59
923.415	59.01
923.784	59.04
924.153	59.01
924.522	58.98
924.891	58.99
925.26	58.92
925.629	58.87
925.998	58.85
926.367	58.78
926.736	58.75
927.104	58.8
927.473	58.8
927.842	58.74
928.21	58.75
928.578	58.75
928.947	58.74
929.315	58.74
929.683	58.8
930.051	58.78
930.42	58.8
930.788	58.76
931.156	58.68
931.523	58.67
931.891	58.59
932.259	58.53
932.627	58.4
932.994	58.34
933.362	58.27
933.729	58.13
934.097	58.04
934.464	57.98
934.831	57.91
935.199	57.9
935.566	57.79
935.933	57.83
936.3	57.76
936.667	57.76
937.034	57.75
937.401	57.71
937.767	57.79
938.134	57.84
938.501	57.9
938.867	57.97
939.234	58.06
939.6	58.19
939.967	58.25
940.333	58.41
940.699	58.58
941.065	58.68
941.431	58.81
941.798	58.96
942.163	59.16
942.529	59.25
942.895	59.36
943.261	59.45
943.627	59.54
943.992	59.57
944.358	59.58
944.723	59.64
945.089	59.75
945.454	59.92
945.82	59.85
946.185	59.81
946.55	59.87
946.915	59.87
947.28	59.8
947.645	59.72
948.01	59.77
948.375	59.8
948.74	59.65
949.104	59.57
949.469	59.37
949.834	59.31
950.198	59.2
950.562	59.03
950.927	59
951.291	58.95
951.655	58.99
952.02	58.88
952.384	58.84
952.748	58.89
953.112	58.87
953.476	58.87
953.839	58.84
954.203	58.86
954.567	58.84
954.931	58.73
955.294	58.68
955.658	58.54
956.021	58.5
956.385	58.4
956.748	58.35
957.111	58.24
957.474	58.23
957.837	58.22
958.2	58.12
958.563	58.1
958.926	58.06
959.289	58.02
959.652	58.08
960.015	58.06
960.377	58.08
960.74	57.96
961.102	57.95
961.465	57.96
961.827	57.84
962.189	57.83
962.552	57.77
962.914	57.75
963.276	57.71
963.638	57.64
964	57.61
964.362	57.61
964.724	57.61
965.085	57.63
965.447	57.47
965.809	57.45
966.17	57.46
966.532	57.47
966.893	57.45
967.255	57.4
967.616	57.44
967.977	57.39
968.338	57.35
968.699	57.32
969.061	57.28
969.421	57.27
969.782	57.31
970.143	57.3
970.504	57.25
970.865	57.23
971.225	57.25
971.586	57.26
971.946	57.3
972.307	57.25
972.667	57.32
973.027	57.39
973.388	57.47
973.748	57.46
974.108	57.47
974.468	57.48
974.828	57.53
975.188	57.53
975.548	57.51
975.907	57.48
976.267	57.58
976.627	57.58
976.986	57.58
977.346	57.57
977.705	57.61
978.064	57.52
978.424	57.53
978.783	57.53
979.142	57.56
979.501	57.45
979.86	57.5
980.219	57.4
980.578	57.39
980.937	57.33
981.296	57.32
981.654	57.36
982.013	57.42
982.371	57.45
982.73	57.38
983.088	57.39
983.447	57.55
983.805	57.45
984.163	57.56
984.521	57.52
984.879	57.61
985.237	57.6
985.595	57.57
985.953	57.57
986.311	57.59
986.669	57.71
987.026	57.74
987.384	57.66
987.741	57.74
988.099	57.66
988.456	57.76
988.814	57.71
989.171	57.76
989.528	57.71
989.885	57.7
990.242	57.79
990.599	57.84
990.956	57.9
991.313	57.87
991.67	57.92
992.027	57.96
992.383	57.92
992.74	57.86
993.096	57.87
993.453	58.03
993.809	58.07
994.165	57.96
994.522	57.93
994.878	57.87
995.234	57.96
995.59	57.92
995.946	57.9
996.302	57.92
996.658	58.1
997.013	58.24
997.369	58.24
997.725	58.33
998.08	58.42
998.436	58.54
998.791	58.51
999.147	58.54
999.502	58.53
999.857	58.64
1000.212	58.61
1000.567	58.54
1000.922	58.4
1001.277	58.3
1001.632	58.42
1001.987	58.48
1002.342	58.46
1002.696	58.7
1003.051	58.56
1003.406	58.68
1003.76	58.64
1004.114	58.8
1004.469	58.89
1004.823	58.93
1005.177	59.13
1005.531	59.13
1005.885	59.25
1006.239	59.25
1006.593	59.2
1006.947	59.39
1007.301	59.48
1007.655	59.58
1008.008	59.46
1008.362	59.52
1008.715	59.66
1009.069	59.48
1009.422	59.27
1009.776	59.25
1010.129	59.37
1010.482	59.46
1010.835	59.68
1011.188	59.64
1011.541	59.62
1011.894	59.84
1012.247	59.87
1012.6	59.99
1012.952	60.29
1013.305	60.6
1013.657	60.77
1014.01	60.8
1014.362	60.69
1014.715	60.53
1015.067	60.73
1015.419	61.02
1015.771	61.26
1016.123	61.44
1016.475	61.46
1016.827	61.49
1017.179	61.58
1017.531	61.59
1017.883	61.86
1018.234	62.2
1018.586	62.33
1018.938	62.36
1019.289	62.33
1019.64	62.57
1019.992	62.62
1020.343	62.8
1020.694	62.78
1021.045	62.85
1021.396	62.93
1021.747	62.83
1022.098	62.76
1022.449	62.95
1022.8	63.01
1023.151	63.22
1023.501	62.96
1023.852	63.2
1024.202	63.35
1024.553	63.61
1024.903	63.54
1025.253	64
1025.604	63.94
1025.954	63.75
1026.304	64.18
1026.654	64.6
1027.004	64.92
1027.354	65.34
1027.703	65.23
1028.053	65.08
1028.403	64.81
1028.753	65.35
1029.102	64.75
1029.452	64.71
1029.801	64.83
1030.15	64.6
1030.499	64.28
897.758	680.85
901.051	697.19
904.343	704.62
907.636	690.69
910.928	678.92
914.22	685.15
917.511	672.6
920.803	643.56
924.094	618.07
927.384	622.5
930.675	606.55
933.965	602.05
937.255	595.74
940.544	568.17
943.834	546
947.123	537.85
950.411	513.42
953.7	502.61
956.988	485.78
960.276	463.65
963.563	458.21
966.851	430.69
970.138	422.81
973.424	395.38
976.711	390.88
979.997	374.69
983.283	365.56
986.568	352.99
989.853	343.86
993.138	332.37
996.423	326.22
999.708	314.42
1002.992	316.73
1006.275	307.27
1009.559	304.17
1012.842	295.03
1016.125	286.97
1019.408	282.85
1022.69	279.82
1025.972	276.8
1029.254	269.28
1032.536	264.09
1035.817	257.9
1039.098	252.92
1042.379	247.87
1045.659	244.45
1048.939	242.29
1052.219	236.52
1055.498	231.89
1058.778	228.11
1062.057	223.92
1065.335	222.76
1068.614	219.47
1071.892	216.6
1075.17	212.97
1078.447	208.54
1081.724	207.38
1085.001	202.34
1088.278	203.14
1091.554	201.34
1094.83	200.53
1098.106	197.49
1101.382	196.46
1104.657	195.22
1107.932	193.88
1111.206	191.45
1114.481	190.38
1117.755	189.12
1121.029	188.75
1124.302	186.31
1127.575	182.63
1130.848	181.35
1134.121	179.83
1137.393	178.43
1140.665	177.83
1143.937	175.81
1147.208	174.32
1150.48	172.45
1153.75	171.04
1157.021	170.18
1160.291	168.56
1163.561	168.66
1166.831	167.46
1170.101	166.14
1173.37	165.54
1176.639	163.69
1179.907	164.69
1183.176	163.76
1186.444	163.85
1189.711	162.63
1192.979	163.6
1196.246	163.87
1199.513	163.7
1202.78	164.2
1206.046	164.35
1209.312	165.31
1212.578	166.06
1215.843	167.12
1219.108	169.08
1222.373	171.87
1225.638	175.15
1228.902	178.08
1232.166	184.15
1235.43	186.68
1238.693	190.7
1241.956	196.21
1245.219	199.82
1248.482	201.43
1251.744	200.38
1255.006	201.04
1258.268	197.07
1261.529	194.3
1264.79	189.01
1268.051	185.71
1271.312	184.49
1274.572	181.08
1277.832	175.34
1281.092	173.39
1284.351	170.01
1287.61	170.32
1290.869	168.83
1294.128	167.41
1297.386	166.81
1300.644	166.62
1303.902	165.79
1307.159	164.83
1310.416	165.08
1313.673	168.13
1316.93	169.03
1320.186	172.69
1323.442	174.35
1326.697	177.65
1329.953	179.39
1333.208	185.72
1336.463	193.33
1339.717	196.31
1342.972	205.29
1346.226	212.03
1349.479	213.18
1352.733	223.55
1355.986	228.84
1359.238	233.25
1362.491	235.82
1365.743	245.5
1368.995	245.95
1372.247	248.33
1375.498	246.31
1378.749	255.43
1382	255.78
1385.251	254.67
1388.501	254.22
1391.751	255.43
1395	254.04
1398.25	257.47
1401.499	255.92
1404.748	257.58
1407.996	249.7
1411.244	251.02
1414.492	245.6
1417.74	239.36
1420.987	233.77
1424.234	229.63
1427.481	221.16
1430.728	216.03
1433.974	207.34
1437.22	199.57
1440.465	192.88
1443.711	186.69
1446.956	181.36
1450.201	174.8
1453.445	166.06
1456.689	161.77
1459.933	155.86
1463.177	149.28
1466.42	146.69
1469.663	142.51
1472.906	139.29
1476.148	135.17
1479.391	132.03
1482.633	129.25
1485.874	127.2
1489.115	126.26
1492.356	123.93
1495.597	121.83
1498.838	121.19
1502.078	119.42
1505.318	118.74
1508.557	117.94
1511.797	116.44
1515.036	115.76
1518.274	115.9
1521.513	113.67
1524.751	112.84
1527.989	113.39
1531.227	113.55
1534.464	112.71
1537.701	112.12
1540.938	111.22
1544.174	111.69
1547.41	110.76
1550.646	111.33
1553.882	111.02
1557.117	110.64
1560.352	110.63
1563.587	109.29
1566.821	109.03
1570.055	108.41
1573.289	108.26
1576.523	108.75
1579.756	107.36
1582.989	108.02
1586.222	107.14
1589.454	106.9
1592.686	107.11
1595.918	106.77
1599.15	106.84
1602.381	107
1605.612	107.14
1608.843	107.19
1612.073	107.14
1615.303	107.84
1618.533	107.46
1621.762	107.8
1624.992	107.53
1628.221	107.28
1631.449	107.39
1634.678	107.8
1637.906	107.62
1641.134	107.89
1644.361	107.42
1647.588	108.09
1650.815	107.94
1654.042	108.23
1657.269	107.81
1660.495	108.47
1663.72	109.33
1666.946	109.37
1670.171	109.63
1673.396	110.07
1676.621	110.35
1679.845	111
1683.069	110.63
1686.293	110.37
1689.517	110.76
1692.74	110.99
1695.963	110.95
1699.185	110.89
1702.408	111.08
1705.63	111.12
1708.852	111.89
1712.073	111.87
1715.294	111.54
1718.515	112.26
1721.736	112.69
1724.956	112.82
1728.176	112.87
1731.396	113.29
1734.616	113.08
1737.835	113.6
1741.054	113.41
1744.272	113.32
1747.491	113.38
1750.709	114.61
1753.927	114.39
1757.144	114.8
1760.361	114.92
1763.578	115.91
1766.795	116.22
1770.011	117.03
1773.227	116.95
1776.443	118.25
1779.658	118.01
1782.874	118.78
1786.089	118.68
1789.303	118.84
1792.518	120
1795.732	121.33
1798.945	121.72
1802.159	122.15
1805.372	123.71
1808.585	125.53
1811.797	125.35
1815.01	127.34
1818.222	128.45
1821.434	129.47
1824.645	130.69
1827.856	132.77
1831.067	132.75
1834.278	134.99
1837.488	135.88
1840.698	136.88
1843.908	136.83
1847.117	139.54
1850.326	140.37
1853.535	140.28
1856.744	142.45
1859.952	143.8
1863.16	143.32
1866.368	143.62
1869.575	144.26
1872.782	144.52
1875.989	143.23
1879.196	143.53
1882.402	141.85
1885.608	141.85
1888.814	142.88
1892.019	142.97
1895.224	141.2
1898.429	142.41
1901.634	143.13
1904.838	143
1908.042	144.46
1911.246	144.9
1914.449	145.17
1917.652	145.03
1920.855	146.1
1924.058	145.41
1927.26	145.07
1930.462	146.69
1933.664	145.81
1936.865	147.25
1940.066	144.34
1943.267	143.2
1946.467	144.79
1949.668	144.97
1952.868	146.07
1956.067	144.96
1959.267	145.55
1962.466	146.11
1965.665	146.71
1968.863	148.43
1972.061	148.69
1975.259	153.24
1978.457	154.58
1981.654	155.86
1984.852	157.13
1988.048	159.33
1991.245	161.08
1994.441	163.18
1997.637	167.93
2000.833	170.31
2004.028	171.35
2007.223	176.6
2010.418	178.98
2013.613	186.39
2016.807	189.95
2020.001	193.35
2023.194	198.79
2026.388	207.69
2029.581	218.45
2032.774	222.99
2035.966	230.4
2039.158	236.96
2042.35	240.68
2045.542	245.56
2048.733	255.64
2051.924	259.02
2055.115	263.25
2058.306	265.96
2061.496	269.59
2064.686	270.37
2067.875	267.64
2071.065	270.07
2074.254	270.82
2077.442	278.49
2080.631	282.87
2083.819	282.61
2087.007	287.57
2090.195	293.99
2093.382	294.37
2096.569	293.89
2099.756	299.7
2102.942	307.46
2106.128	313.87
2109.314	317.14
2112.5	316.78
2115.685	314.58
2118.87	314.74
2122.055	316.25
2125.239	320.67
2128.424	328.08
2131.608	325.98
2134.791	326.88
2137.974	328.95
2141.157	330.59
2144.34	332.36
2147.523	339.84
2150.705	348.05
2153.887	344.82
2157.068	347.84
2160.25	352.36
2163.431	350.17
2166.611	358.97
2169.792	365.27
2172.972	368.71
2176.152	368.16
2179.331	375.21
2182.511	374.06
2185.69	378.82
2188.868	396.18
2192.047	405.79
2195.225	409.79
2198.403	418.9
2201.58	409.62
2204.758	421.99
2207.935	427.3
2211.111	438.11
2214.288	440.99
2217.464	444.44
2220.64	447.65
2223.815	447.47
2226.991	439.79
2230.166	445.12
2233.34	455.99
2236.515	475.66
2239.689	467.19
2242.863	471.86
2246.036	468.09
2249.209	481.49
2252.382	482.31
2255.555	496.09
2258.727	497.64
2261.9	517.1
2265.071	523.27
2268.243	518.13
2271.414	530.81
2274.585	540.62
2277.756	539.56
2280.926	568.58
2284.096	567.55
2287.266	569.36
2290.436	560.89
2293.605	576.8
2296.774	594.58
2299.942	590.39
2303.111	609.49
2306.279	620.06
2309.447	620.55
2312.614	631.77
2315.781	637.91
2318.948	644.04
2322.115	656.73
2325.281	692.1
2328.447	683.88
2331.613	689.3
2334.779	704.34
2337.944	715.41
2341.109	725.88
2344.274	739.59
2347.438	753.28
2350.602	763.17
2353.766	813.34
2356.929	815.94
2360.092	826.7
2363.255	832.2
2366.418	840.86
2369.58	859.86
2372.742	862.72
2375.904	861.65
2379.066	885.43
2382.227	939.65
2385.388	938.26
2388.548	888.73
2391.709	882.61
2394.869	912.72
2398.029	914.81
2401.188	911.32
2404.347	940.83
2407.506	965.74
2410.665	926.06
2413.823	933.36
2416.981	929.16
2420.139	885.17
2423.296	962.85
2426.453	1021.74
2429.61	969.24
2432.767	1039.07
2435.923	1073.49
2439.079	1034.81
2442.235	1063.3
2445.391	1094.03
2448.546	1079.55
2451.701	1140.98
2454.855	1217.43
2458.009	1078.23
2461.163	1095.24
2464.317	1116.33
2467.471	1088.23
2470.624	1129.08
2473.777	1110.76
2476.929	1069.25
2480.082	1139.38
2483.234	1196.54
2486.385	1217.52
2489.537	1249.59
2492.688	1369.59
2495.839	1344.52
2498.989	1375.79
2502.14	1387.35
2505.29	1324.9
2508.439	1460.1
2511.589	1501.48
2514.738	1462.72
2517.887	1449.81
2521.035	1355.43
2524.183	1338.17
2527.331	1323.96
2530.479	1298.53
2533.627	1330.1
