Data from C_3_dec_oh_4n_Splice17_14.txt Node
Date: Sat Feb 29 15:04:54 EST 2020
User: sa697716
Spectrometer: FLMS03696
Trigger mode: 0
Integration Time (sec): 3.180400E-1
Scans to average: 20
Electric dark correction enabled: true
Nonlinearity correction enabled: true
Boxcar width: 5
XAxis mode: Wavelengths
Number of Pixels in Spectrum: 2048
>>>>>Begin Spectral Data<<<<<
187.83	93.57
188.298	96.92
188.766	93.98
189.233	84.72
189.701	90.62
190.169	96.14
190.636	92.38
191.104	60.28
191.571	-64.19
192.039	101.8
192.506	106.66
192.974	2861.2
193.441	-145.99
193.908	74.71
194.375	21.77
194.842	14.54
195.31	82.3
195.777	73.68
196.244	85.66
196.711	100.62
197.177	102.66
197.644	103.21
198.111	104.12
198.578	105.31
199.045	106.67
199.511	106.8
199.978	106.86
200.445	106.5
200.911	106.99
201.378	107.04
201.844	107.69
202.31	108.54
202.777	109.09
203.243	109.12
203.709	108.95
204.176	108.26
204.642	107.55
205.108	107.72
205.574	107.82
206.04	107.13
206.506	106.38
206.972	105.38
207.438	104.07
207.903	102.58
208.369	100.72
208.835	99.18
209.301	97.9
209.766	96.32
210.232	94.44
210.697	92.28
211.163	90.28
211.628	88.64
212.094	87.08
212.559	85.45
213.024	84.21
213.49	82.59
213.955	80.84
214.42	78.99
214.885	76.84
215.35	74
215.815	70.59
216.28	66.62
216.745	61.95
217.21	57.01
217.675	52.46
218.14	48.05
218.604	44.34
219.069	41.24
219.534	38.43
219.998	36.16
220.463	34.28
220.927	32.61
221.392	31.23
221.856	30.09
222.32	29.16
222.785	28.27
223.249	27.58
223.713	26.93
224.177	26.26
224.642	25.71
225.106	25.17
225.57	24.62
226.034	24.15
226.497	23.7
226.961	23.26
227.425	22.8
227.889	22.4
228.353	21.94
228.816	21.54
229.28	21.16
229.744	20.82
230.207	20.46
230.671	20.12
231.134	19.8
231.597	19.46
232.061	19.17
232.524	18.91
232.987	18.62
233.45	18.36
233.914	18.08
234.377	17.84
234.84	17.58
235.303	17.36
235.766	17.14
236.229	16.93
236.691	16.76
237.154	16.57
237.617	16.36
238.08	16.19
238.542	16.02
239.005	15.85
239.468	15.66
239.93	15.52
240.393	15.34
240.855	15.19
241.317	15.03
241.78	14.87
242.242	14.69
242.704	14.53
243.166	14.37
243.629	14.22
244.091	14.08
244.553	13.95
245.015	13.8
245.477	13.65
245.939	13.5
246.4	13.35
246.862	13.21
247.324	13.08
247.786	12.95
248.247	12.82
248.709	12.69
249.17	12.56
249.632	12.41
250.093	12.25
250.555	12.15
251.016	12.05
251.477	11.93
251.939	11.81
252.4	11.71
252.861	11.6
253.322	11.5
253.783	11.43
254.244	11.34
254.705	11.26
255.166	11.2
255.627	11.11
256.088	11
256.549	10.92
257.009	10.83
257.47	10.74
257.931	10.65
258.391	10.54
258.852	10.42
259.312	10.33
259.773	10.24
260.233	10.14
260.694	10.05
261.154	9.97
261.614	9.88
262.074	9.8
262.534	9.72
262.994	9.64
263.455	9.58
263.915	9.51
264.374	9.43
264.834	9.36
265.294	9.29
265.754	9.22
266.214	9.16
266.673	9.1
267.133	9.04
267.593	8.98
268.052	8.93
268.512	8.87
268.971	8.83
269.431	8.79
269.89	8.76
270.349	8.71
270.809	8.68
271.268	8.64
271.727	8.61
272.186	8.57
272.645	8.53
273.104	8.49
273.563	8.46
274.022	8.43
274.481	8.39
274.94	8.34
275.399	8.31
275.857	8.28
276.316	8.24
276.775	8.2
277.233	8.18
277.692	8.15
278.15	8.12
278.609	8.08
279.067	8.05
279.525	8.03
279.984	8.02
280.442	7.99
280.9	7.97
281.358	7.95
281.816	7.93
282.274	7.91
282.732	7.89
283.19	7.87
283.648	7.87
284.106	7.86
284.564	7.84
285.021	7.84
285.479	7.84
285.937	7.82
286.394	7.81
286.852	7.79
287.309	7.78
287.767	7.76
288.224	7.73
288.682	7.7
289.139	7.66
289.596	7.62
290.053	7.57
290.511	7.52
290.968	7.47
291.425	7.42
291.882	7.38
292.339	7.33
292.796	7.29
293.252	7.24
293.709	7.21
294.166	7.17
294.623	7.15
295.079	7.11
295.536	7.09
295.992	7.06
296.449	7.04
296.905	7.02
297.362	6.99
297.818	6.97
298.274	6.95
298.731	6.92
299.187	6.9
299.643	6.88
300.099	6.86
300.555	6.83
301.011	6.8
301.467	6.78
301.923	6.76
302.379	6.74
302.835	6.72
303.291	6.71
303.746	6.7
304.202	6.68
304.658	6.66
305.113	6.66
305.569	6.66
306.024	6.65
306.479	6.64
306.935	6.64
307.39	6.64
307.845	6.64
308.301	6.65
308.756	6.65
309.211	6.65
309.666	6.65
310.121	6.64
310.576	6.63
311.031	6.63
311.486	6.63
311.94	6.62
312.395	6.61
312.85	6.61
313.305	6.62
313.759	6.61
314.214	6.6
314.668	6.6
315.123	6.6
315.577	6.59
316.032	6.58
316.486	6.57
316.94	6.56
317.394	6.54
317.849	6.51
318.303	6.48
318.757	6.45
319.211	6.42
319.665	6.39
320.119	6.36
320.572	6.34
321.026	6.32
321.48	6.29
321.934	6.27
322.387	6.26
322.841	6.25
323.295	6.23
323.748	6.23
324.202	6.21
324.655	6.21
325.108	6.19
325.562	6.17
326.015	6.14
326.468	6.13
326.921	6.12
327.374	6.11
327.827	6.09
328.28	6.08
328.733	6.07
329.186	6.06
329.639	6.05
330.092	6.05
330.545	6.05
330.997	6.05
331.45	6.06
331.903	6.06
332.355	6.06
332.808	6.06
333.26	6.07
333.713	6.08
334.165	6.09
334.617	6.11
335.069	6.12
335.522	6.13
335.974	6.14
336.426	6.14
336.878	6.14
337.33	6.14
337.782	6.13
338.234	6.13
338.686	6.12
339.137	6.12
339.589	6.11
340.041	6.1
340.493	6.09
340.944	6.07
341.396	6.06
341.847	6.03
342.299	6
342.75	5.98
343.201	5.94
343.653	5.91
344.104	5.88
344.555	5.84
345.006	5.81
345.457	5.78
345.908	5.75
346.359	5.74
346.81	5.74
347.261	5.73
347.712	5.72
348.163	5.71
348.613	5.7
349.064	5.68
349.515	5.67
349.965	5.67
350.416	5.66
350.866	5.66
351.317	5.65
351.767	5.64
352.217	5.63
352.668	5.63
353.118	5.63
353.568	5.64
354.018	5.65
354.468	5.66
354.918	5.66
355.368	5.66
355.818	5.66
356.268	5.67
356.718	5.66
357.168	5.66
357.617	5.67
358.067	5.66
358.517	5.65
358.966	5.65
359.416	5.66
359.865	5.66
360.315	5.65
360.764	5.65
361.213	5.64
361.663	5.62
362.112	5.63
362.561	5.63
363.01	5.63
363.459	5.63
363.908	5.62
364.357	5.61
364.806	5.61
365.255	5.61
365.703	5.61
366.152	5.62
366.601	5.63
367.05	5.62
367.498	5.61
367.947	5.61
368.395	5.62
368.844	5.61
369.292	5.61
369.74	5.62
370.189	5.61
370.637	5.63
371.085	5.63
371.533	5.63
371.981	5.63
372.429	5.64
372.877	5.65
373.325	5.65
373.773	5.64
374.221	5.64
374.669	5.63
375.116	5.62
375.564	5.6
376.012	5.6
376.459	5.59
376.907	5.6
377.354	5.59
377.801	5.58
378.249	5.59
378.696	5.61
379.143	5.63
379.591	5.64
380.038	5.65
380.485	5.67
380.932	5.68
381.379	5.69
381.826	5.69
382.273	5.71
382.72	5.72
383.166	5.73
383.613	5.73
384.06	5.73
384.506	5.75
384.953	5.75
385.4	5.76
385.846	5.77
386.292	5.79
386.739	5.79
387.185	5.81
387.631	5.81
388.078	5.83
388.524	5.82
388.97	5.84
389.416	5.85
389.862	5.87
390.308	5.89
390.754	5.91
391.2	5.94
391.645	5.98
392.091	6
392.537	6.03
392.983	6.06
393.428	6.12
393.874	6.15
394.319	6.17
394.765	6.2
395.21	6.21
395.655	6.23
396.101	6.25
396.546	6.27
396.991	6.28
397.436	6.3
397.881	6.32
398.326	6.35
398.771	6.39
399.216	6.43
399.661	6.47
400.106	6.52
400.551	6.54
400.995	6.55
401.44	6.56
401.885	6.57
402.329	6.59
402.774	6.6
403.218	6.61
403.663	6.61
404.107	6.63
404.551	6.63
404.995	6.63
405.44	6.66
405.884	6.69
406.328	6.72
406.772	6.75
407.216	6.77
407.66	6.81
408.104	6.82
408.547	6.85
408.991	6.86
409.435	6.89
409.879	6.91
410.322	6.93
410.766	6.94
411.209	6.96
411.653	6.97
412.096	6.98
412.54	7
412.983	7.02
413.426	7.05
413.869	7.07
414.312	7.12
414.756	7.16
415.199	7.18
415.642	7.21
416.085	7.25
416.527	7.29
416.97	7.31
417.413	7.3
417.856	7.29
418.298	7.28
418.741	7.26
419.184	7.25
419.626	7.23
420.069	7.22
420.511	7.22
420.953	7.21
421.396	7.21
421.838	7.22
422.28	7.27
422.722	7.31
423.164	7.34
423.606	7.38
424.048	7.38
424.49	7.42
424.932	7.44
425.374	7.44
425.816	7.43
426.258	7.42
426.699	7.37
427.141	7.33
427.582	7.33
428.024	7.34
428.465	7.36
428.907	7.37
429.348	7.36
429.789	7.37
430.231	7.37
430.672	7.41
431.113	7.45
431.554	7.5
431.995	7.54
432.436	7.56
432.877	7.57
433.318	7.59
433.759	7.6
434.2	7.64
434.64	7.68
435.081	7.71
435.522	7.74
435.962	7.79
436.403	7.84
436.843	7.87
437.284	7.91
437.724	7.95
438.164	7.97
438.604	8.01
439.045	8.03
439.485	8.05
439.925	8.08
440.365	8.08
440.805	8.08
441.245	8.06
441.685	8.11
442.125	8.12
442.564	8.15
443.004	8.18
443.444	8.21
443.883	8.25
444.323	8.26
444.762	8.31
445.202	8.37
445.641	8.42
446.081	8.49
446.52	8.48
446.959	8.53
447.398	8.61
447.837	8.66
448.276	8.7
448.716	8.73
449.154	8.79
449.593	8.83
450.032	8.84
450.471	8.86
450.91	8.87
451.349	8.89
451.787	8.88
452.226	8.84
452.664	8.81
453.103	8.79
453.541	8.8
453.98	8.77
454.418	8.73
454.856	8.69
455.295	8.67
455.733	8.63
456.171	8.62
456.609	8.59
457.047	8.57
457.485	8.56
457.923	8.55
458.361	8.52
458.798	8.52
459.236	8.51
459.674	8.49
460.111	8.5
460.549	8.48
460.987	8.49
461.424	8.5
461.862	8.51
462.299	8.5
462.736	8.49
463.173	8.48
463.611	8.48
464.048	8.49
464.485	8.5
464.922	8.5
465.359	8.52
465.796	8.49
466.233	8.5
466.67	8.5
467.106	8.5
467.543	8.52
467.98	8.53
468.416	8.55
468.853	8.54
469.29	8.54
469.726	8.54
470.162	8.53
470.599	8.52
471.035	8.51
471.471	8.51
471.907	8.51
472.344	8.5
472.78	8.48
473.216	8.48
473.652	8.46
474.088	8.47
474.523	8.46
474.959	8.46
475.395	8.47
475.831	8.46
476.266	8.43
476.702	8.42
477.138	8.4
477.573	8.39
478.008	8.36
478.444	8.34
478.879	8.33
479.314	8.3
479.75	8.28
480.185	8.27
480.62	8.24
481.055	8.24
481.49	8.22
481.925	8.2
482.36	8.17
482.795	8.15
483.229	8.15
483.664	8.13
484.099	8.11
484.534	8.1
484.968	8.08
485.403	8.08
485.837	8.07
486.271	8.06
486.706	8.06
487.14	8.09
487.574	8.1
488.009	8.11
488.443	8.12
488.877	8.14
489.311	8.17
489.745	8.2
490.179	8.22
490.613	8.24
491.046	8.27
491.48	8.31
491.914	8.33
492.348	8.38
492.781	8.43
493.215	8.47
493.648	8.52
494.082	8.57
494.515	8.62
494.948	8.68
495.382	8.77
495.815	8.85
496.248	8.94
496.681	9.03
497.114	9.1
497.547	9.19
497.98	9.29
498.413	9.39
498.846	9.49
499.279	9.6
499.711	9.7
500.144	9.82
500.577	9.93
501.009	10.06
501.442	10.19
501.874	10.34
502.306	10.49
502.739	10.65
503.171	10.83
503.603	11.03
504.036	11.22
504.468	11.43
504.9	11.65
505.332	11.88
505.764	12.11
506.196	12.36
506.627	12.61
507.059	12.87
507.491	13.16
507.923	13.45
508.354	13.73
508.786	14.03
509.217	14.32
509.649	14.65
510.08	14.99
510.512	15.31
510.943	15.68
511.374	16.05
511.805	16.43
512.237	16.81
512.668	17.19
513.099	17.62
513.53	18.05
513.961	18.51
514.391	18.94
514.822	19.36
515.253	19.82
515.684	20.25
516.114	20.71
516.545	21.17
516.975	21.64
517.406	22.1
517.836	22.55
518.267	23
518.697	23.47
519.127	23.94
519.558	24.41
519.988	24.88
520.418	25.34
520.848	25.79
521.278	26.25
521.708	26.76
522.138	27.19
522.567	27.62
522.997	28.06
523.427	28.46
523.857	28.86
524.286	29.27
524.716	29.66
525.145	30.05
525.575	30.41
526.004	30.78
526.433	31.08
526.863	31.47
527.292	31.8
527.721	32.12
528.15	32.42
528.579	32.71
529.008	33
529.437	33.29
529.866	33.54
530.295	33.82
530.724	34.06
531.152	34.29
531.581	34.49
532.01	34.71
532.438	34.92
532.867	35.11
533.295	35.31
533.723	35.5
534.152	35.65
534.58	35.82
535.008	35.93
535.436	36.04
535.865	36.13
536.293	36.26
536.721	36.36
537.149	36.45
537.576	36.53
538.004	36.59
538.432	36.66
538.86	36.73
539.287	36.81
539.715	36.88
540.143	36.94
540.57	37.03
540.998	37.08
541.425	37.13
541.852	37.2
542.28	37.26
542.707	37.34
543.134	37.39
543.561	37.42
543.988	37.48
544.415	37.51
544.842	37.58
545.269	37.63
545.696	37.69
546.123	37.75
546.549	37.81
546.976	37.89
547.403	37.92
547.829	37.99
548.256	38.05
548.682	38.1
549.108	38.15
549.535	38.2
549.961	38.21
550.387	38.23
550.813	38.23
551.24	38.25
551.666	38.26
552.092	38.28
552.518	38.26
552.943	38.27
553.369	38.24
553.795	38.23
554.221	38.19
554.646	38.16
555.072	38.13
555.498	38.09
555.923	38.03
556.349	37.92
556.774	37.83
557.199	37.74
557.625	37.6
558.05	37.46
558.475	37.32
558.9	37.21
559.325	37.08
559.75	36.93
560.175	36.76
560.6	36.57
561.025	36.4
561.449	36.21
561.874	36.01
562.299	35.85
562.723	35.68
563.148	35.46
563.572	35.22
563.997	34.99
564.421	34.75
564.846	34.5
565.27	34.27
565.694	34.03
566.118	33.78
566.542	33.54
566.966	33.26
567.39	32.98
567.814	32.73
568.238	32.46
568.662	32.19
569.086	31.91
569.509	31.65
569.933	31.37
570.357	31.09
570.78	30.81
571.204	30.53
571.627	30.27
572.05	30.02
572.474	29.79
572.897	29.56
573.32	29.32
573.743	29.11
574.166	28.9
574.589	28.69
575.012	28.51
575.435	28.33
575.858	28.17
576.281	28
576.704	27.83
577.126	27.67
577.549	27.52
577.972	27.37
578.394	27.21
578.817	27.06
579.239	26.93
579.661	26.78
580.084	26.64
580.506	26.5
580.928	26.37
581.35	26.24
581.772	26.12
582.194	25.97
582.616	25.85
583.038	25.72
583.46	25.63
583.882	25.51
584.303	25.42
584.725	25.32
585.147	25.2
585.568	25.08
585.99	24.98
586.411	24.87
586.833	24.78
587.254	24.7
587.675	24.63
588.096	24.54
588.518	24.45
588.939	24.34
589.36	24.25
589.781	24.18
590.202	24.13
590.623	24.05
591.043	23.96
591.464	23.9
591.885	23.82
592.305	23.75
592.726	23.68
593.147	23.62
593.567	23.56
593.987	23.51
594.408	23.42
594.828	23.35
595.248	23.3
595.669	23.24
596.089	23.17
596.509	23.11
596.929	23.04
597.349	22.96
597.769	22.89
598.189	22.85
598.608	22.79
599.028	22.74
599.448	22.67
599.867	22.59
600.287	22.53
600.706	22.46
601.126	22.39
601.545	22.3
601.965	22.22
602.384	22.15
602.803	22.05
603.222	21.95
603.641	21.85
604.061	21.76
604.48	21.67
604.898	21.58
605.317	21.49
605.736	21.38
606.155	21.29
606.574	21.19
606.992	21.08
607.411	20.98
607.829	20.84
608.248	20.73
608.666	20.62
609.085	20.52
609.503	20.4
609.921	20.27
610.339	20.17
610.758	20.06
611.176	19.94
611.594	19.84
612.012	19.71
612.43	19.64
612.847	19.55
613.265	19.46
613.683	19.34
614.101	19.22
614.518	19.12
614.936	19.02
615.353	18.92
615.771	18.83
616.188	18.75
616.606	18.65
617.023	18.55
617.44	18.46
617.857	18.37
618.274	18.3
618.691	18.23
619.108	18.16
619.525	18.1
619.942	18.02
620.359	17.97
620.776	17.91
621.192	17.87
621.609	17.84
622.026	17.79
622.442	17.75
622.859	17.7
623.275	17.7
623.691	17.68
624.108	17.66
624.524	17.64
624.94	17.62
625.356	17.59
625.772	17.58
626.188	17.55
626.604	17.54
627.02	17.52
627.436	17.52
627.852	17.48
628.268	17.44
628.683	17.39
629.099	17.37
629.514	17.33
629.93	17.28
630.345	17.22
630.761	17.18
631.176	17.11
631.591	17.05
632.007	16.98
632.422	16.9
632.837	16.82
633.252	16.73
633.667	16.61
634.082	16.51
634.497	16.38
634.911	16.25
635.326	16.1
635.741	15.93
636.155	15.77
636.57	15.59
636.984	15.39
637.399	15.19
637.813	15
638.228	14.8
638.642	14.61
639.056	14.42
639.47	14.22
639.884	14.04
640.298	13.86
640.712	13.66
641.126	13.48
641.54	13.31
641.954	13.16
642.368	12.98
642.781	12.82
643.195	12.64
643.609	12.47
644.022	12.31
644.436	12.15
644.849	12
645.262	11.87
645.676	11.74
646.089	11.6
646.502	11.49
646.915	11.39
647.328	11.29
647.741	11.19
648.154	11.13
648.567	11.08
648.98	11.01
649.393	10.95
649.805	10.89
650.218	10.85
650.631	10.81
651.043	10.76
651.456	10.72
651.868	10.66
652.28	10.63
652.693	10.57
653.105	10.52
653.517	10.47
653.929	10.43
654.341	10.39
654.753	10.31
655.165	10.25
655.577	10.16
655.989	10.07
656.401	9.99
656.813	9.91
657.224	9.83
657.636	9.72
658.047	9.63
658.459	9.53
658.87	9.42
659.282	9.34
659.693	9.25
660.104	9.17
660.515	9.08
660.926	9
661.338	8.92
661.749	8.83
662.159	8.74
662.57	8.64
662.981	8.56
663.392	8.47
663.803	8.38
664.213	8.31
664.624	8.25
665.035	8.19
665.445	8.13
665.855	8.06
666.266	8.02
666.676	7.98
667.086	7.96
667.497	7.91
667.907	7.88
668.317	7.85
668.727	7.82
669.137	7.79
669.547	7.78
669.956	7.76
670.366	7.76
670.776	7.74
671.186	7.73
671.595	7.73
672.005	7.75
672.414	7.77
672.824	7.8
673.233	7.8
673.642	7.81
674.052	7.83
674.461	7.84
674.87	7.86
675.279	7.89
675.688	7.91
676.097	7.94
676.506	7.97
676.915	8
677.323	8.04
677.732	8.08
678.141	8.15
678.549	8.21
678.958	8.28
679.366	8.35
679.775	8.44
680.183	8.55
680.592	8.64
681	8.75
681.408	8.87
681.816	9
682.224	9.18
682.632	9.35
683.04	9.55
683.448	9.78
683.856	10.03
684.264	10.3
684.671	10.6
685.079	10.93
685.487	11.31
685.894	11.7
686.302	12.16
686.709	12.62
687.116	13.11
687.524	13.66
687.931	14.24
688.338	14.88
688.745	15.56
689.152	16.27
689.559	17.03
689.966	17.82
690.373	18.67
690.78	19.51
691.187	20.41
691.593	21.35
692	22.3
692.407	23.26
692.813	24.25
693.22	25.23
693.626	26.24
694.032	27.28
694.439	28.31
694.845	29.34
695.251	30.42
695.657	31.46
696.063	32.51
696.469	33.55
696.875	34.58
697.281	35.6
697.687	36.65
698.093	37.7
698.498	38.72
698.904	39.75
699.31	40.74
699.715	41.73
700.12	42.71
700.526	43.67
700.931	44.62
701.337	45.57
701.742	46.48
702.147	47.39
702.552	48.28
702.957	49.15
703.362	50.01
703.767	50.85
704.172	51.67
704.577	52.45
704.981	53.25
705.386	54.05
705.791	54.85
706.195	55.6
706.6	56.34
707.004	57.06
707.408	57.75
707.813	58.45
708.217	59.11
708.621	59.78
709.025	60.47
709.43	61.1
709.834	61.75
710.237	62.34
710.641	63.01
711.045	63.62
711.449	64.21
711.853	64.82
712.256	65.46
712.66	66.04
713.064	66.62
713.467	67.18
713.87	67.75
714.274	68.31
714.677	68.86
715.08	69.35
715.484	69.89
715.887	70.39
716.29	70.9
716.693	71.32
717.096	71.84
717.499	72.28
717.901	72.75
718.304	73.2
718.707	73.58
719.109	73.99
719.512	74.42
719.915	74.8
720.317	75.21
720.719	75.56
721.122	75.94
721.524	76.31
721.926	76.7
722.328	77.03
722.731	77.41
723.133	77.79
723.535	78.16
723.937	78.49
724.338	78.78
724.74	79.07
725.142	79.35
725.544	79.63
725.945	79.86
726.347	80.13
726.748	80.36
727.15	80.58
727.551	80.78
727.952	80.96
728.354	81.18
728.755	81.39
729.156	81.63
729.557	81.88
729.958	82.09
730.359	82.29
730.76	82.41
731.161	82.61
731.562	82.77
731.962	82.95
732.363	83.11
732.763	83.28
733.164	83.42
733.564	83.53
733.965	83.62
734.365	83.73
734.766	83.87
735.166	83.97
735.566	84.03
735.966	84.13
736.366	84.22
736.766	84.32
737.166	84.41
737.566	84.48
737.966	84.56
738.365	84.64
738.765	84.75
739.165	84.76
739.564	84.87
739.964	84.95
740.363	85.04
740.763	85.07
741.162	85.08
741.561	85.15
741.96	85.24
742.36	85.35
742.759	85.38
743.158	85.41
743.557	85.52
743.955	85.6
744.354	85.66
744.753	85.72
745.152	85.82
745.55	85.9
745.949	85.95
746.348	85.99
746.746	86.01
747.144	86.1
747.543	86.11
747.941	86.19
748.339	86.23
748.737	86.35
749.136	86.39
749.534	86.43
749.932	86.46
750.33	86.47
750.727	86.47
751.125	86.47
751.523	86.45
751.921	86.51
752.318	86.48
752.716	86.45
753.113	86.39
753.511	86.34
753.908	86.31
754.305	86.24
754.703	86.18
755.1	86.16
755.497	86.13
755.894	86.11
756.291	86.08
756.688	86.05
757.085	86.05
757.482	86.02
757.878	86.08
758.275	86.05
758.672	86.1
759.068	86.17
759.465	86.19
759.861	86.2
760.258	86.16
760.654	86.14
761.05	86.15
761.447	86.14
761.843	86.14
762.239	86.08
762.635	86.08
763.031	86.08
763.427	86.01
763.822	85.96
764.218	85.97
764.614	85.99
765.01	85.97
765.405	85.93
765.801	85.87
766.196	85.86
766.592	85.84
766.987	85.81
767.382	85.8
767.778	85.79
768.173	85.82
768.568	85.77
768.963	85.75
769.358	85.75
769.753	85.77
770.148	85.84
770.542	85.81
770.937	85.78
771.332	85.8
771.726	85.79
772.121	85.78
772.515	85.79
772.91	85.82
773.304	85.86
773.699	85.84
774.093	85.84
774.487	85.8
774.881	85.84
775.275	85.9
775.669	85.96
776.063	85.98
776.457	85.98
776.851	85.91
777.245	85.95
777.638	85.94
778.032	85.99
778.425	86.02
778.819	86.03
779.212	86.02
779.606	85.99
779.999	85.93
780.392	85.92
780.786	85.93
781.179	85.98
781.572	85.93
781.965	85.94
782.358	85.9
782.751	85.9
783.143	85.93
783.536	86.01
783.929	86.06
784.322	86.11
784.714	86.16
785.107	86.19
785.499	86.24
785.891	86.3
786.284	86.26
786.676	86.32
787.068	86.33
787.46	86.33
787.852	86.3
788.245	86.28
788.636	86.29
789.028	86.28
789.42	86.28
789.812	86.27
790.204	86.23
790.595	86.3
790.987	86.32
791.378	86.31
791.77	86.32
792.161	86.37
792.553	86.37
792.944	86.42
793.335	86.42
793.726	86.38
794.117	86.36
794.508	86.4
794.899	86.41
795.29	86.41
795.681	86.43
796.072	86.43
796.463	86.41
796.853	86.43
797.244	86.4
797.634	86.38
798.025	86.43
798.415	86.48
798.806	86.48
799.196	86.52
799.586	86.54
799.976	86.59
800.366	86.66
800.756	86.66
801.146	86.69
801.536	86.69
801.926	86.72
802.316	86.77
802.706	86.75
803.095	86.8
803.485	86.81
803.874	86.81
804.264	86.86
804.653	86.8
805.043	86.79
805.432	86.74
805.821	86.78
806.21	86.85
806.599	86.89
806.988	86.9
807.377	86.92
807.766	86.92
808.155	86.92
808.544	86.89
808.933	86.94
809.321	87.04
809.71	87.13
810.098	87.13
810.487	87.17
810.875	87.15
811.264	87.22
811.652	87.23
812.04	87.26
812.428	87.33
812.816	87.37
813.204	87.41
813.592	87.37
813.98	87.38
814.368	87.36
814.756	87.34
815.144	87.37
815.531	87.31
815.919	87.3
816.306	87.28
816.694	87.28
817.081	87.26
817.469	87.26
817.856	87.32
818.243	87.33
818.63	87.4
819.017	87.4
819.404	87.4
819.791	87.44
820.178	87.46
820.565	87.49
820.952	87.46
821.339	87.51
821.725	87.5
822.112	87.48
822.498	87.48
822.885	87.49
823.271	87.51
823.657	87.51
824.044	87.49
824.43	87.5
824.816	87.47
825.202	87.41
825.588	87.36
825.974	87.34
826.36	87.28
826.746	87.29
827.132	87.22
827.517	87.19
827.903	87.14
828.289	87.16
828.674	87.11
829.06	87.12
829.445	87.19
829.83	87.2
830.216	87.18
830.601	87.17
830.986	87.09
831.371	87.11
831.756	87.05
832.141	87.09
832.526	87.06
832.911	87.05
833.295	87.05
833.68	86.98
834.065	86.96
834.449	86.92
834.834	86.89
835.218	86.91
835.603	86.85
835.987	86.84
836.371	86.79
836.755	86.72
837.139	86.68
837.524	86.6
837.908	86.58
838.291	86.53
838.675	86.52
839.059	86.53
839.443	86.47
839.827	86.44
840.21	86.47
840.594	86.47
840.977	86.44
841.361	86.43
841.744	86.44
842.127	86.43
842.511	86.41
842.894	86.34
843.277	86.31
843.66	86.31
844.043	86.31
844.426	86.29
844.809	86.21
845.191	86.2
845.574	86.12
845.957	86.09
846.339	86.07
846.722	86.09
847.104	86.1
847.487	86.11
847.869	86.11
848.252	86.08
848.634	86.08
849.016	86.13
849.398	86.14
849.78	86.18
850.162	86.18
850.544	86.21
850.926	86.17
851.307	86.19
851.689	86.16
852.071	86.14
852.452	86.15
852.834	86.11
853.215	86.06
853.597	86.08
853.978	86.06
854.359	86.06
854.741	86.03
855.122	86.05
855.503	86.04
855.884	86.04
856.265	86.04
856.646	86.03
857.026	86.07
857.407	86.05
857.788	86.05
858.169	86.08
858.549	86.12
858.93	86.13
859.31	86.09
859.69	86.04
860.071	86.07
860.451	86.07
860.831	86.07
861.211	86.05
861.591	86.08
861.971	86.06
862.351	86.07
862.731	86.07
863.111	86.06
863.491	86.12
863.87	86.16
864.25	86.16
864.629	86.13
865.009	86.15
865.388	86.13
865.768	86.13
866.147	86.12
866.526	86.1
866.905	86.07
867.284	86.1
867.663	86.08
868.042	86.07
868.421	86.05
868.8	86.05
869.179	86.05
869.558	86.04
869.936	86.03
870.315	86.05
870.693	86.04
871.072	86.03
871.45	85.97
871.828	85.97
872.207	86.01
872.585	86
872.963	85.99
873.341	85.98
873.719	85.95
874.097	85.98
874.475	85.98
874.853	85.97
875.23	86.01
875.608	86.02
875.986	85.98
876.363	85.95
876.741	85.95
877.118	85.98
877.495	85.97
877.873	86.01
878.25	85.97
878.627	85.96
879.004	86
879.381	85.98
879.758	85.93
880.135	85.94
880.512	85.94
880.889	85.93
881.265	85.94
881.642	85.94
882.019	85.92
882.395	85.93
882.772	85.88
883.148	85.83
883.524	85.82
883.901	85.82
884.277	85.77
884.653	85.74
885.029	85.72
885.405	85.63
885.781	85.56
886.157	85.55
886.532	85.54
886.908	85.57
887.284	85.55
887.659	85.51
888.035	85.5
888.411	85.5
888.786	85.45
889.161	85.45
889.537	85.49
889.912	85.45
890.287	85.4
890.662	85.35
891.037	85.29
891.412	85.25
891.787	85.18
892.162	85.12
892.536	85.09
892.911	85.05
893.286	84.97
893.66	84.85
894.035	84.81
894.409	84.8
894.784	84.78
895.158	84.75
895.532	84.7
895.906	84.7
896.281	84.67
896.655	84.68
897.029	84.66
897.402	84.69
897.776	84.74
898.15	84.77
898.524	84.78
898.898	84.72
899.271	84.72
899.645	84.73
900.018	84.74
900.392	84.77
900.765	84.76
901.138	84.79
901.511	84.8
901.884	84.84
902.258	84.83
902.631	84.82
903.003	84.88
903.376	84.89
903.749	84.94
904.122	84.98
904.495	85.02
904.867	85
905.24	84.97
905.612	84.96
905.985	84.91
906.357	84.93
906.729	84.96
907.102	84.96
907.474	84.97
907.846	84.96
908.218	84.92
908.59	84.87
908.962	84.89
909.334	84.92
909.705	84.97
910.077	84.98
910.449	84.99
910.82	84.97
911.192	84.96
911.563	84.94
911.935	84.92
912.306	84.93
912.677	84.96
913.048	84.92
913.419	84.94
913.79	84.9
914.161	84.9
914.532	84.86
914.903	84.85
915.274	84.81
915.645	84.87
916.015	84.92
916.386	84.9
916.756	84.9
917.127	84.99
917.497	84.93
917.868	84.97
918.238	84.99
918.608	85.04
918.978	85.08
919.348	85.09
919.718	85.1
920.088	85.11
920.458	85.2
920.828	85.22
921.198	85.24
921.567	85.24
921.937	85.23
922.306	85.19
922.676	85.25
923.045	85.25
923.415	85.3
923.784	85.31
924.153	85.25
924.522	85.15
924.891	85.09
925.26	84.98
925.629	85.01
925.998	85.01
926.367	85
926.736	84.86
927.104	84.79
927.473	84.76
927.842	84.7
928.21	84.76
928.578	84.77
928.947	84.76
929.315	84.79
929.683	84.79
930.051	84.71
930.42	84.73
930.788	84.76
931.156	84.77
931.523	84.73
931.891	84.68
932.259	84.55
932.627	84.47
932.994	84.47
933.362	84.38
933.729	84.27
934.097	84.22
934.464	84.15
934.831	84.11
935.199	84.06
935.566	83.92
935.933	83.9
936.3	83.88
936.667	83.82
937.034	83.72
937.401	83.71
937.767	83.69
938.134	83.67
938.501	83.66
938.867	83.72
939.234	83.82
939.6	83.94
939.967	84
940.333	84.15
940.699	84.36
941.065	84.55
941.431	84.72
941.798	84.99
942.163	85.29
942.529	85.43
942.895	85.52
943.261	85.5
943.627	85.79
943.992	85.97
944.358	85.97
944.723	86.03
945.089	86.13
945.454	86.21
945.82	86.16
946.185	86.17
946.55	86.27
946.915	86.22
947.28	86.23
947.645	86.09
948.01	85.98
948.375	86.01
948.74	85.89
949.104	85.91
949.469	85.75
949.834	85.67
950.198	85.46
950.562	85.25
950.927	85.25
951.291	85.15
951.655	85.14
952.02	85.11
952.384	85.1
952.748	85.1
953.112	84.95
953.476	84.95
953.839	84.92
954.203	84.93
954.567	84.92
954.931	84.77
955.294	84.7
955.658	84.58
956.021	84.54
956.385	84.46
956.748	84.43
957.111	84.36
957.474	84.28
957.837	84.28
958.2	84.15
958.563	84.04
958.926	84.04
959.289	84.13
959.652	84.08
960.015	83.96
960.377	83.94
960.74	83.86
961.102	83.89
961.465	83.88
961.827	83.68
962.189	83.66
962.552	83.63
962.914	83.6
963.276	83.49
963.638	83.46
964	83.5
964.362	83.4
964.724	83.39
965.085	83.34
965.447	83.23
965.809	83.25
966.17	83.21
966.532	83.26
966.893	83.19
967.255	83.21
967.616	83.25
967.977	83.18
968.338	83.23
968.699	83.16
969.061	83.08
969.421	83.06
969.782	83.14
970.143	83.13
970.504	83.1
970.865	83.02
971.225	82.9
971.586	82.96
971.946	82.97
972.307	82.92
972.667	82.97
973.027	83.05
973.388	83.12
973.748	83.09
974.108	83.06
974.468	83.09
974.828	83.23
975.188	83.31
975.548	83.21
975.907	83.21
976.267	83.21
976.627	83.36
976.986	83.37
977.346	83.33
977.705	83.27
978.064	83.31
978.424	83.31
978.783	83.37
979.142	83.38
979.501	83.35
979.86	83.37
980.219	83.38
980.578	83.24
980.937	83.25
981.296	83.28
981.654	83.45
982.013	83.52
982.371	83.41
982.73	83.3
983.088	83.32
983.447	83.42
983.805	83.44
984.163	83.47
984.521	83.32
984.879	83.31
985.237	83.48
985.595	83.47
985.953	83.48
986.311	83.65
986.669	83.79
987.026	83.85
987.384	83.92
987.741	83.85
988.099	83.85
988.456	84.02
988.814	84.1
989.171	84.02
989.528	84
989.885	84.03
990.242	84.13
990.599	84.2
990.956	84.14
991.313	84.12
991.67	84.42
992.027	84.43
992.383	84.53
992.74	84.56
993.096	84.59
993.453	84.62
993.809	84.82
994.165	84.83
994.522	84.87
994.878	84.94
995.234	84.98
995.59	84.81
995.946	85
996.302	84.9
996.658	84.91
997.013	84.99
997.369	85.05
997.725	85.07
998.08	85.09
998.436	85.07
998.791	85.2
999.147	85.32
999.502	85.36
999.857	85.36
1000.212	85.54
1000.567	85.67
1000.922	85.84
1001.277	85.78
1001.632	85.69
1001.987	85.72
1002.342	85.84
1002.696	85.88
1003.051	85.83
1003.406	85.94
1003.76	85.96
1004.114	86.07
1004.469	86
1004.823	86.07
1005.177	86.37
1005.531	86.41
1005.885	86.5
1006.239	86.69
1006.593	86.53
1006.947	86.57
1007.301	86.85
1007.655	86.94
1008.008	86.74
1008.362	86.78
1008.715	86.67
1009.069	86.57
1009.422	86.77
1009.776	86.85
1010.129	86.78
1010.482	87.3
1010.835	87.65
1011.188	87.42
1011.541	87.35
1011.894	87.78
1012.247	87.86
1012.6	87.99
1012.952	88.15
1013.305	88.08
1013.657	88.24
1014.01	88.43
1014.362	88.48
1014.715	88.26
1015.067	88.59
1015.419	88.93
1015.771	89.25
1016.123	89.57
1016.475	89.95
1016.827	90.31
1017.179	90.61
1017.531	90.61
1017.883	90.79
1018.234	90.72
1018.586	91.04
1018.938	90.95
1019.289	91.09
1019.64	91.02
1019.992	91.13
1020.343	90.59
1020.694	90.26
1021.045	90.35
1021.396	90.55
1021.747	90.51
1022.098	90.63
1022.449	90.55
1022.8	90.66
1023.151	90.7
1023.501	90.86
1023.852	91.18
1024.202	91.47
1024.553	91.65
1024.903	91.59
1025.253	91.94
1025.604	91.92
1025.954	92.03
1026.304	92.65
1026.654	93.24
1027.004	93.48
1027.354	93.71
1027.703	93.47
1028.053	93.66
1028.403	94.12
1028.753	94.76
1029.102	94.49
1029.452	94.6
1029.801	94.54
1030.15	94.28
1030.499	94
897.758	581.94
901.051	599.24
904.343	603.28
907.636	591.45
910.928	582.37
914.22	596.63
917.511	583.22
920.803	555.9
924.094	535.2
927.384	542.08
930.675	527.69
933.965	525.03
937.255	520.6
940.544	499.38
943.834	483.62
947.123	477.36
950.411	451.79
953.7	445.55
956.988	434.42
960.276	415.7
963.563	409.13
966.851	389.4
970.138	384.6
973.424	360.13
976.711	357.82
979.997	342.54
983.283	334.5
986.568	323.78
989.853	316.93
993.138	306.58
996.423	302.86
999.708	295.52
1002.992	296.61
1006.275	285.58
1009.559	284.86
1012.842	275.58
1016.125	269.44
1019.408	265.7
1022.69	263.49
1025.972	261.37
1029.254	255.27
1032.536	251.24
1035.817	243.32
1039.098	239.53
1042.379	236.35
1045.659	233.24
1048.939	231.77
1052.219	228.14
1055.498	224.67
1058.778	222.02
1062.057	218.34
1065.335	217.8
1068.614	214.34
1071.892	213.5
1075.17	209.24
1078.447	206.42
1081.724	205.36
1085.001	200.49
1088.278	201.03
1091.554	200.12
1094.83	198.35
1098.106	195.81
1101.382	194.69
1104.657	193.98
1107.932	192.7
1111.206	192.27
1114.481	191.52
1117.755	190.12
1121.029	190.28
1124.302	188.23
1127.575	184.77
1130.848	184.52
1134.121	181.61
1137.393	181.23
1140.665	180.9
1143.937	179.46
1147.208	176.91
1150.48	174.82
1153.75	173.26
1157.021	172.53
1160.291	171.39
1163.561	171.48
1166.831	169.56
1170.101	169.83
1173.37	168.72
1176.639	166.51
1179.907	166.67
1183.176	166.8
1186.444	167.45
1189.711	165.88
1192.979	167.67
1196.246	167.26
1199.513	166.98
1202.78	167.59
1206.046	167.64
1209.312	168.05
1212.578	168.79
1215.843	170.59
1219.108	171.7
1222.373	173.56
1225.638	176.65
1228.902	178.6
1232.166	183.38
1235.43	185.57
1238.693	189.34
1241.956	193.4
1245.219	197.33
1248.482	199.57
1251.744	198.22
1255.006	198.16
1258.268	193.07
1261.529	191.91
1264.79	187.79
1268.051	185.31
1271.312	184.21
1274.572	181.86
1277.832	177.27
1281.092	175.68
1284.351	172.27
1287.61	172.19
1290.869	171.09
1294.128	171.39
1297.386	170.44
1300.644	169.57
1303.902	167.84
1307.159	166.43
1310.416	166.59
1313.673	169.07
1316.93	169.18
1320.186	171.58
1323.442	173.58
1326.697	176.49
1329.953	176.99
1333.208	181.75
1336.463	188.22
1339.717	192.02
1342.972	199.57
1346.226	203.92
1349.479	204.15
1352.733	212.82
1355.986	217.41
1359.238	220.59
1362.491	222.86
1365.743	230.69
1368.995	230
1372.247	231.17
1375.498	229.58
1378.749	236.86
1382	236.26
1385.251	234.52
1388.501	233.36
1391.751	234.41
1395	232.52
1398.25	232.75
1401.499	231.28
1404.748	231.65
1407.996	224.15
1411.244	224.24
1414.492	219.82
1417.74	212.69
1420.987	209.66
1424.234	205.46
1427.481	197.94
1430.728	192.52
1433.974	185.8
1437.22	180.04
1440.465	174.41
1443.711	169.32
1446.956	163.36
1450.201	157.96
1453.445	151.86
1456.689	147.2
1459.933	141.86
1463.177	136.59
1466.42	134.35
1469.663	131.43
1472.906	128.12
1476.148	125
1479.391	122.6
1482.633	121.04
1485.874	118.8
1489.115	118.26
1492.356	116.86
1495.597	115.64
1498.838	115.8
1502.078	115.05
1505.318	114.94
1508.557	114.66
1511.797	113.99
1515.036	113.37
1518.274	113.87
1521.513	112.63
1524.751	111.84
1527.989	113.58
1531.227	113.66
1534.464	113.29
1537.701	112.33
1540.938	111.64
1544.174	111.88
1547.41	111.88
1550.646	112.65
1553.882	112.09
1557.117	112.44
1560.352	112.39
1563.587	111.41
1566.821	111.51
1570.055	110.88
1573.289	111.62
1576.523	111.67
1579.756	111.16
1582.989	111.68
1586.222	111.76
1589.454	112.06
1592.686	112.44
1595.918	112.6
1599.15	112.16
1602.381	112.64
1605.612	113.34
1608.843	113.23
1612.073	113.73
1615.303	114.11
1618.533	113.84
1621.762	113.68
1624.992	113.72
1628.221	113.35
1631.449	113.92
1634.678	113.9
1637.906	113.58
1641.134	113.75
1644.361	113.9
1647.588	113.98
1650.815	114.1
1654.042	113.94
1657.269	113.49
1660.495	113.88
1663.72	114.26
1666.946	114.2
1670.171	114.79
1673.396	115.36
1676.621	115.5
1679.845	115.73
1683.069	115.58
1686.293	115.36
1689.517	115.59
1692.74	116.16
1695.963	116.16
1699.185	116.51
1702.408	116.26
1705.63	116.63
1708.852	117.21
1712.073	116.54
1715.294	116.3
1718.515	116.66
1721.736	116.9
1724.956	116.9
1728.176	116.63
1731.396	117.21
1734.616	117.13
1737.835	117.62
1741.054	117.06
1744.272	115.99
1747.491	116.69
1750.709	117.6
1753.927	117.52
1757.144	117.69
1760.361	118.08
1763.578	118.61
1766.795	118.29
1770.011	118.44
1773.227	118.19
1776.443	119.24
1779.658	119.8
1782.874	120.35
1786.089	119.35
1789.303	119.68
1792.518	120.09
1795.732	120.64
1798.945	121.47
1802.159	121.9
1805.372	122.96
1808.585	124.54
1811.797	124.54
1815.01	124.91
1818.222	125.4
1821.434	126.57
1824.645	127.17
1827.856	129.17
1831.067	129.96
1834.278	130.24
1837.488	130.95
1840.698	132
1843.908	131.7
1847.117	133.01
1850.326	134.66
1853.535	134.53
1856.744	135.61
1859.952	136.57
1863.16	135.65
1866.368	133.81
1869.575	134.26
1872.782	132.99
1875.989	130.73
1879.196	130.21
1882.402	128.13
1885.608	127.56
1888.814	126.44
1892.019	126.63
1895.224	124.24
1898.429	123.38
1901.634	124.19
1904.838	124.6
1908.042	125.06
1911.246	124.46
1914.449	124.53
1917.652	123.89
1920.855	124.73
1924.058	123.07
1927.26	121.8
1930.462	123.05
1933.664	124.08
1936.865	124.32
1940.066	121.75
1943.267	120.05
1946.467	122.66
1949.668	122
1952.868	122.9
1956.067	121.91
1959.267	124.36
1962.466	124.71
1965.665	126.26
1968.863	124.63
1972.061	126.53
1975.259	129.06
1978.457	131.89
1981.654	131.47
1984.852	133.67
1988.048	135.1
1991.245	136.96
1994.441	138.42
1997.637	141.43
2000.833	142.91
2004.028	146.37
2007.223	149.86
2010.418	152.81
2013.613	158.34
2016.807	162.08
2020.001	164.99
2023.194	169.95
2026.388	175.69
2029.581	185.38
2032.774	190.73
2035.966	196.42
2039.158	202.18
2042.35	205.89
2045.542	209.87
2048.733	219.05
2051.924	222.58
2055.115	226.66
2058.306	229.12
2061.496	233.71
2064.686	232.64
2067.875	231.58
2071.065	234.23
2074.254	233.47
2077.442	239.23
2080.631	242.45
2083.819	241.7
2087.007	246.2
2090.195	249.69
2093.382	249.27
2096.569	250.14
2099.756	253.42
2102.942	259.65
2106.128	265.09
2109.314	268.29
2112.5	267.55
2115.685	267.6
2118.87	268.22
2122.055	268.24
2125.239	273.48
2128.424	281.61
2131.608	279
2134.791	281.84
2137.974	281.54
2141.157	283.06
2144.34	287.12
2147.523	292.67
2150.705	298.57
2153.887	294.88
2157.068	299.11
2160.25	301.54
2163.431	299.23
2166.611	303.98
2169.792	307.37
2172.972	311.44
2176.152	311.68
2179.331	317.14
2182.511	316.33
2185.69	319.02
2188.868	330.97
2192.047	341.71
2195.225	345.73
2198.403	352.86
2201.58	347.06
2204.758	360.49
2207.935	362.97
2211.111	371.17
2214.288	373.38
2217.464	378.86
2220.64	379.55
2223.815	382.24
2226.991	378.04
2230.166	380.96
2233.34	388.73
2236.515	404.68
2239.689	397.6
2242.863	402.57
2246.036	400.37
2249.209	410.19
2252.382	406.26
2255.555	423.07
2258.727	425.2
2261.9	436.32
2265.071	441.38
2268.243	438.91
2271.414	449.18
2274.585	458.16
2277.756	458.57
2280.926	471.55
2284.096	475.94
2287.266	481.24
2290.436	469.53
2293.605	481.52
2296.774	494.09
2299.942	491.69
2303.111	509.33
2306.279	516.75
2309.447	517.65
2312.614	519.94
2315.781	534.35
2318.948	535.53
2322.115	544.62
2325.281	576.15
2328.447	570.69
2331.613	577.43
2334.779	587.81
2337.944	597.6
2341.109	606.97
2344.274	616.44
2347.438	634.01
2350.602	647.04
2353.766	684.53
2356.929	689.85
2360.092	695.79
2363.255	698.42
2366.418	702.2
2369.58	720.76
2372.742	714.71
2375.904	716.66
2379.066	736.85
2382.227	777.41
2385.388	774.54
2388.548	733.63
2391.709	727.19
2394.869	748.22
2398.029	754.4
2401.188	757.48
2404.347	779.3
2407.506	804.45
2410.665	777.35
2413.823	777.56
2416.981	780.78
2420.139	736.41
2423.296	802.92
2426.453	854.83
2429.61	815.1
2432.767	867.97
2435.923	892.24
2439.079	869.37
2442.235	887.81
2445.391	905.52
2448.546	898.8
2451.701	943.27
2454.855	1015.04
2458.009	887
2461.163	904.27
2464.317	915.43
2467.471	893.62
2470.624	925.47
2473.777	901.77
2476.929	871.82
2480.082	931.28
2483.234	979.01
2486.385	997.67
2489.537	1019.68
2492.688	1135.33
2495.839	1104.28
2498.989	1137.76
2502.14	1149.43
2505.29	1100.05
2508.439	1217.67
2511.589	1255.1
2514.738	1206.37
2517.887	1194.26
2521.035	1120.27
2524.183	1105.57
2527.331	1094.05
2530.479	1072.34
2533.627	1100.03
