Data from C_3_dec_on_6n_Splice17_02.txt Node
Date: Sat Feb 29 15:07:37 EST 2020
User: sa697716
Spectrometer: FLMS03696
Trigger mode: 0
Integration Time (sec): 3.180400E-1
Scans to average: 20
Electric dark correction enabled: true
Nonlinearity correction enabled: true
Boxcar width: 5
XAxis mode: Wavelengths
Number of Pixels in Spectrum: 2048
>>>>>Begin Spectral Data<<<<<
187.83	19.11
188.298	14.31
188.766	17.12
189.233	12
189.701	22.74
190.169	28.76
190.636	26.35
191.104	-15.23
191.571	-175.73
192.039	3.08
192.506	162.86
192.974	-1360.02
193.441	276.46
193.908	-7.24
194.375	-53.55
194.842	-4.55
195.31	27.04
195.777	-10.43
196.244	14.77
196.711	46.91
197.177	52.46
197.644	53.76
198.111	54.72
198.578	55.05
199.045	56.33
199.511	56.46
199.978	56.93
200.445	56.68
200.911	56.99
201.378	57.66
201.844	58.04
202.31	58.39
202.777	58.96
203.243	59.42
203.709	59.57
204.176	59.16
204.642	58.87
205.108	58.6
205.574	58.83
206.04	58.69
206.506	58.66
206.972	58.52
207.438	58.19
207.903	57.21
208.369	56
208.835	55.3
209.301	54.5
209.766	53.31
210.232	52.11
210.697	51.04
211.163	50.18
211.628	48.77
212.094	47.86
212.559	46.8
213.024	46.18
213.49	45.18
213.955	44.26
214.42	42.95
214.885	41.66
215.35	39.97
215.815	37.91
216.28	35.52
216.745	32.89
217.21	30.01
217.675	27.31
218.14	24.77
218.604	22.63
219.069	20.88
219.534	19.47
219.998	18.21
220.463	17.23
220.927	16.31
221.392	15.52
221.856	14.83
222.32	14.35
222.785	13.88
223.249	13.49
223.713	13.13
224.177	12.75
224.642	12.45
225.106	12.16
225.57	11.87
226.034	11.61
226.497	11.38
226.961	11.17
227.425	10.9
227.889	10.71
228.353	10.5
228.816	10.3
229.28	10.09
229.744	9.9
230.207	9.74
230.671	9.57
231.134	9.44
231.597	9.28
232.061	9.14
232.524	9.01
232.987	8.87
233.45	8.75
233.914	8.65
234.377	8.56
234.84	8.45
235.303	8.36
235.766	8.27
236.229	8.16
236.691	8.08
237.154	7.97
237.617	7.89
238.08	7.83
238.542	7.75
239.005	7.69
239.468	7.59
239.93	7.5
240.393	7.42
240.855	7.32
241.317	7.25
241.78	7.19
242.242	7.12
242.704	7.05
243.166	6.96
243.629	6.88
244.091	6.8
244.553	6.75
245.015	6.69
245.477	6.63
245.939	6.58
246.4	6.51
246.862	6.45
247.324	6.4
247.786	6.34
248.247	6.29
248.709	6.24
249.17	6.2
249.632	6.14
250.093	6.09
250.555	6.04
251.016	6.01
251.477	5.96
251.939	5.91
252.4	5.86
252.861	5.82
253.322	5.77
253.783	5.74
254.244	5.7
254.705	5.66
255.166	5.64
255.627	5.6
256.088	5.54
256.549	5.51
257.009	5.47
257.47	5.43
257.931	5.4
258.391	5.34
258.852	5.29
259.312	5.24
259.773	5.2
260.233	5.14
260.694	5.1
261.154	5.06
261.614	5.01
262.074	4.97
262.534	4.92
262.994	4.89
263.455	4.86
263.915	4.82
264.374	4.78
264.834	4.74
265.294	4.71
265.754	4.68
266.214	4.65
266.673	4.62
267.133	4.58
267.593	4.56
268.052	4.52
268.512	4.49
268.971	4.48
269.431	4.46
269.89	4.43
270.349	4.42
270.809	4.4
271.268	4.38
271.727	4.36
272.186	4.35
272.645	4.33
273.104	4.32
273.563	4.31
274.022	4.29
274.481	4.27
274.94	4.26
275.399	4.25
275.857	4.23
276.316	4.22
276.775	4.2
277.233	4.18
277.692	4.17
278.15	4.16
278.609	4.14
279.067	4.13
279.525	4.12
279.984	4.1
280.442	4.1
280.9	4.08
281.358	4.07
281.816	4.07
282.274	4.07
282.732	4.06
283.19	4.06
283.648	4.06
284.106	4.05
284.564	4.05
285.021	4.05
285.479	4.04
285.937	4.04
286.394	4.03
286.852	4.03
287.309	4.02
287.767	4.01
288.224	3.99
288.682	3.98
289.139	3.97
289.596	3.95
290.053	3.93
290.511	3.91
290.968	3.89
291.425	3.87
291.882	3.84
292.339	3.82
292.796	3.8
293.252	3.78
293.709	3.76
294.166	3.75
294.623	3.74
295.079	3.73
295.536	3.71
295.992	3.7
296.449	3.69
296.905	3.69
297.362	3.67
297.818	3.67
298.274	3.66
298.731	3.66
299.187	3.64
299.643	3.64
300.099	3.63
300.555	3.62
301.011	3.62
301.467	3.61
301.923	3.6
302.379	3.6
302.835	3.59
303.291	3.58
303.746	3.57
304.202	3.57
304.658	3.56
305.113	3.55
305.569	3.56
306.024	3.56
306.479	3.56
306.935	3.55
307.39	3.56
307.845	3.56
308.301	3.57
308.756	3.58
309.211	3.58
309.666	3.59
310.121	3.58
310.576	3.58
311.031	3.59
311.486	3.59
311.94	3.59
312.395	3.59
312.85	3.59
313.305	3.58
313.759	3.59
314.214	3.58
314.668	3.59
315.123	3.59
315.577	3.58
316.032	3.57
316.486	3.58
316.94	3.57
317.394	3.56
317.849	3.56
318.303	3.56
318.757	3.55
319.211	3.53
319.665	3.52
320.119	3.51
320.572	3.51
321.026	3.5
321.48	3.48
321.934	3.48
322.387	3.48
322.841	3.46
323.295	3.46
323.748	3.44
324.202	3.44
324.655	3.44
325.108	3.43
325.562	3.42
326.015	3.42
326.468	3.42
326.921	3.4
327.374	3.39
327.827	3.38
328.28	3.38
328.733	3.38
329.186	3.38
329.639	3.37
330.092	3.37
330.545	3.38
330.997	3.38
331.45	3.37
331.903	3.38
332.355	3.39
332.808	3.39
333.26	3.39
333.713	3.4
334.165	3.41
334.617	3.42
335.069	3.42
335.522	3.42
335.974	3.43
336.426	3.43
336.878	3.43
337.33	3.43
337.782	3.43
338.234	3.43
338.686	3.43
339.137	3.43
339.589	3.42
340.041	3.41
340.493	3.4
340.944	3.39
341.396	3.39
341.847	3.39
342.299	3.37
342.75	3.36
343.201	3.34
343.653	3.33
344.104	3.31
344.555	3.3
345.006	3.29
345.457	3.29
345.908	3.28
346.359	3.27
346.81	3.26
347.261	3.25
347.712	3.25
348.163	3.25
348.613	3.25
349.064	3.24
349.515	3.23
349.965	3.22
350.416	3.22
350.866	3.21
351.317	3.2
351.767	3.19
352.217	3.19
352.668	3.19
353.118	3.19
353.568	3.2
354.018	3.21
354.468	3.22
354.918	3.24
355.368	3.24
355.818	3.25
356.268	3.26
356.718	3.27
357.168	3.28
357.617	3.27
358.067	3.28
358.517	3.28
358.966	3.29
359.416	3.3
359.865	3.29
360.315	3.29
360.764	3.3
361.213	3.31
361.663	3.32
362.112	3.32
362.561	3.33
363.01	3.34
363.459	3.35
363.908	3.34
364.357	3.34
364.806	3.35
365.255	3.35
365.703	3.34
366.152	3.34
366.601	3.35
367.05	3.37
367.498	3.37
367.947	3.37
368.395	3.39
368.844	3.41
369.292	3.41
369.74	3.42
370.189	3.43
370.637	3.45
371.085	3.47
371.533	3.47
371.981	3.47
372.429	3.47
372.877	3.47
373.325	3.46
373.773	3.47
374.221	3.48
374.669	3.49
375.116	3.49
375.564	3.5
376.012	3.51
376.459	3.53
376.907	3.55
377.354	3.57
377.801	3.59
378.249	3.61
378.696	3.63
379.143	3.64
379.591	3.65
380.038	3.68
380.485	3.7
380.932	3.71
381.379	3.71
381.826	3.73
382.273	3.74
382.72	3.75
383.166	3.76
383.613	3.76
384.06	3.78
384.506	3.8
384.953	3.8
385.4	3.81
385.846	3.81
386.292	3.83
386.739	3.84
387.185	3.86
387.631	3.88
388.078	3.9
388.524	3.9
388.97	3.91
389.416	3.92
389.862	3.91
390.308	3.94
390.754	3.96
391.2	3.98
391.645	4
392.091	4.01
392.537	4.03
392.983	4.05
393.428	4.08
393.874	4.11
394.319	4.13
394.765	4.16
395.21	4.16
395.655	4.18
396.101	4.19
396.546	4.21
396.991	4.21
397.436	4.21
397.881	4.22
398.326	4.25
398.771	4.26
399.216	4.27
399.661	4.29
400.106	4.32
400.551	4.31
400.995	4.31
401.44	4.31
401.885	4.31
402.329	4.32
402.774	4.32
403.218	4.32
403.663	4.32
404.107	4.32
404.551	4.33
404.995	4.32
405.44	4.33
405.884	4.33
406.328	4.32
406.772	4.33
407.216	4.34
407.66	4.35
408.104	4.35
408.547	4.36
408.991	4.35
409.435	4.36
409.879	4.37
410.322	4.38
410.766	4.4
411.209	4.41
411.653	4.4
412.096	4.4
412.54	4.41
412.983	4.41
413.426	4.42
413.869	4.44
414.312	4.45
414.756	4.46
415.199	4.46
415.642	4.49
416.085	4.52
416.527	4.54
416.97	4.55
417.413	4.53
417.856	4.54
418.298	4.52
418.741	4.51
419.184	4.52
419.626	4.51
420.069	4.5
420.511	4.48
420.953	4.45
421.396	4.45
421.838	4.46
422.28	4.49
422.722	4.51
423.164	4.51
423.606	4.52
424.048	4.52
424.49	4.52
424.932	4.53
425.374	4.52
425.816	4.52
426.258	4.5
426.699	4.46
427.141	4.43
427.582	4.43
428.024	4.43
428.465	4.43
428.907	4.43
429.348	4.45
429.789	4.45
430.231	4.46
430.672	4.46
431.113	4.49
431.554	4.52
431.995	4.55
432.436	4.55
432.877	4.56
433.318	4.55
433.759	4.56
434.2	4.55
434.64	4.57
435.081	4.58
435.522	4.62
435.962	4.63
436.403	4.66
436.843	4.67
437.284	4.69
437.724	4.72
438.164	4.74
438.604	4.76
439.045	4.75
439.485	4.75
439.925	4.76
440.365	4.75
440.805	4.75
441.245	4.73
441.685	4.74
442.125	4.76
442.564	4.78
443.004	4.78
443.444	4.8
443.883	4.83
444.323	4.84
444.762	4.87
445.202	4.93
445.641	4.95
446.081	4.99
446.52	4.98
446.959	4.98
447.398	5
447.837	5.04
448.276	5.04
448.716	5.06
449.154	5.11
449.593	5.13
450.032	5.11
450.471	5.11
450.91	5.09
451.349	5.14
451.787	5.15
452.226	5.14
452.664	5.1
453.103	5.11
453.541	5.08
453.98	5.05
454.418	5
454.856	4.98
455.295	4.97
455.733	4.96
456.171	4.93
456.609	4.92
457.047	4.9
457.485	4.9
457.923	4.88
458.361	4.87
458.798	4.88
459.236	4.89
459.674	4.89
460.111	4.9
460.549	4.89
460.987	4.89
461.424	4.88
461.862	4.9
462.299	4.89
462.736	4.9
463.173	4.9
463.611	4.89
464.048	4.9
464.485	4.89
464.922	4.89
465.359	4.89
465.796	4.87
466.233	4.89
466.67	4.89
467.106	4.89
467.543	4.89
467.98	4.9
468.416	4.91
468.853	4.9
469.29	4.91
469.726	4.9
470.162	4.9
470.599	4.91
471.035	4.91
471.471	4.9
471.907	4.9
472.344	4.9
472.78	4.9
473.216	4.89
473.652	4.89
474.088	4.9
474.523	4.89
474.959	4.88
475.395	4.89
475.831	4.89
476.266	4.89
476.702	4.89
477.138	4.86
477.573	4.84
478.008	4.83
478.444	4.82
478.879	4.81
479.314	4.8
479.75	4.79
480.185	4.77
480.62	4.76
481.055	4.75
481.49	4.74
481.925	4.73
482.36	4.72
482.795	4.72
483.229	4.69
483.664	4.69
484.099	4.69
484.534	4.68
484.968	4.69
485.403	4.68
485.837	4.68
486.271	4.67
486.706	4.66
487.14	4.68
487.574	4.66
488.009	4.69
488.443	4.7
488.877	4.7
489.311	4.7
489.745	4.71
490.179	4.73
490.613	4.75
491.046	4.78
491.48	4.8
491.914	4.81
492.348	4.85
492.781	4.87
493.215	4.89
493.648	4.93
494.082	4.98
494.515	5
494.948	5.04
495.382	5.07
495.815	5.11
496.248	5.16
496.681	5.2
497.114	5.25
497.547	5.29
497.98	5.36
498.413	5.41
498.846	5.47
499.279	5.54
499.711	5.6
500.144	5.67
500.577	5.74
501.009	5.81
501.442	5.89
501.874	5.99
502.306	6.07
502.739	6.16
503.171	6.27
503.603	6.38
504.036	6.49
504.468	6.61
504.9	6.74
505.332	6.86
505.764	7
506.196	7.15
506.627	7.29
507.059	7.43
507.491	7.6
507.923	7.77
508.354	7.94
508.786	8.13
509.217	8.31
509.649	8.52
510.08	8.74
510.512	8.94
510.943	9.16
511.374	9.39
511.805	9.63
512.237	9.87
512.668	10.1
513.099	10.35
513.53	10.61
513.961	10.88
514.391	11.13
514.822	11.39
515.253	11.67
515.684	11.94
516.114	12.22
516.545	12.49
516.975	12.79
517.406	13.08
517.836	13.36
518.267	13.63
518.697	13.93
519.127	14.24
519.558	14.53
519.988	14.84
520.418	15.13
520.848	15.44
521.278	15.75
521.708	16.07
522.138	16.36
522.567	16.65
522.997	16.94
523.427	17.23
523.857	17.48
524.286	17.76
524.716	17.99
525.145	18.24
525.575	18.47
526.004	18.7
526.433	18.9
526.863	19.13
527.292	19.35
527.721	19.56
528.15	19.73
528.579	19.94
529.008	20.11
529.437	20.29
529.866	20.46
530.295	20.63
530.724	20.8
531.152	20.95
531.581	21.08
532.01	21.22
532.438	21.34
532.867	21.46
533.295	21.57
533.723	21.7
534.152	21.8
534.58	21.89
535.008	21.95
535.436	22.02
535.865	22.08
536.293	22.17
536.721	22.23
537.149	22.3
537.576	22.38
538.004	22.42
538.432	22.44
538.86	22.5
539.287	22.55
539.715	22.6
540.143	22.64
540.57	22.7
540.998	22.74
541.425	22.78
541.852	22.8
542.28	22.82
542.707	22.86
543.134	22.89
543.561	22.92
543.988	22.98
544.415	23.01
544.842	23.05
545.269	23.08
545.696	23.11
546.123	23.14
546.549	23.18
546.976	23.23
547.403	23.28
547.829	23.31
548.256	23.35
548.682	23.36
549.108	23.4
549.535	23.42
549.961	23.43
550.387	23.44
550.813	23.44
551.24	23.45
551.666	23.46
552.092	23.46
552.518	23.46
552.943	23.45
553.369	23.43
553.795	23.4
554.221	23.37
554.646	23.35
555.072	23.32
555.498	23.27
555.923	23.25
556.349	23.17
556.774	23.09
557.199	23.03
557.625	22.93
558.05	22.85
558.475	22.77
558.9	22.69
559.325	22.58
559.75	22.46
560.175	22.36
560.6	22.22
561.025	22.1
561.449	21.97
561.874	21.82
562.299	21.72
562.723	21.56
563.148	21.41
563.572	21.27
563.997	21.11
564.421	20.95
564.846	20.76
565.27	20.61
565.694	20.45
566.118	20.28
566.542	20.12
566.966	19.94
567.39	19.76
567.814	19.56
568.238	19.36
568.662	19.18
569.086	19
569.509	18.83
569.933	18.64
570.357	18.45
570.78	18.27
571.204	18.07
571.627	17.91
572.05	17.76
572.474	17.62
572.897	17.47
573.32	17.31
573.743	17.17
574.166	17.03
574.589	16.9
575.012	16.77
575.435	16.63
575.858	16.53
576.281	16.41
576.704	16.29
577.126	16.18
577.549	16.08
577.972	15.97
578.394	15.86
578.817	15.75
579.239	15.66
579.661	15.57
580.084	15.48
580.506	15.39
580.928	15.29
581.35	15.21
581.772	15.14
582.194	15.05
582.616	14.97
583.038	14.92
583.46	14.85
583.882	14.75
584.303	14.69
584.725	14.62
585.147	14.55
585.568	14.47
585.99	14.39
586.411	14.33
586.833	14.28
587.254	14.23
587.675	14.17
588.096	14.11
588.518	14.06
588.939	14.02
589.36	13.97
589.781	13.9
590.202	13.86
590.623	13.81
591.043	13.76
591.464	13.71
591.885	13.66
592.305	13.62
592.726	13.59
593.147	13.55
593.567	13.51
593.987	13.48
594.408	13.45
594.828	13.42
595.248	13.39
595.669	13.37
596.089	13.32
596.509	13.26
596.929	13.23
597.349	13.18
597.769	13.14
598.189	13.09
598.608	13.04
599.028	12.99
599.448	12.95
599.867	12.89
600.287	12.85
600.706	12.81
601.126	12.76
601.545	12.71
601.965	12.66
602.384	12.62
602.803	12.56
603.222	12.5
603.641	12.45
604.061	12.39
604.48	12.34
604.898	12.27
605.317	12.2
605.736	12.15
606.155	12.09
606.574	12.03
606.992	11.95
607.411	11.9
607.829	11.8
608.248	11.74
608.666	11.66
609.085	11.59
609.503	11.52
609.921	11.45
610.339	11.37
610.758	11.29
611.176	11.22
611.594	11.14
612.012	11.05
612.43	11.03
612.847	10.96
613.265	10.91
613.683	10.85
614.101	10.78
614.518	10.7
614.936	10.64
615.353	10.59
615.771	10.52
616.188	10.48
616.606	10.45
617.023	10.37
617.44	10.3
617.857	10.24
618.274	10.19
618.691	10.14
619.108	10.1
619.525	10.05
619.942	10.01
620.359	9.98
620.776	9.94
621.192	9.9
621.609	9.88
622.026	9.87
622.442	9.84
622.859	9.81
623.275	9.82
623.691	9.81
624.108	9.79
624.524	9.78
624.94	9.77
625.356	9.76
625.772	9.76
626.188	9.76
626.604	9.74
627.02	9.74
627.436	9.74
627.852	9.71
628.268	9.7
628.683	9.68
629.099	9.67
629.514	9.65
629.93	9.64
630.345	9.61
630.761	9.57
631.176	9.53
631.591	9.51
632.007	9.47
632.422	9.43
632.837	9.38
633.252	9.34
633.667	9.27
634.082	9.2
634.497	9.12
634.911	9.04
635.326	8.97
635.741	8.89
636.155	8.78
636.57	8.69
636.984	8.59
637.399	8.47
637.813	8.35
638.228	8.24
638.642	8.14
639.056	8.03
639.47	7.93
639.884	7.82
640.298	7.72
640.712	7.6
641.126	7.49
641.54	7.39
641.954	7.32
642.368	7.22
642.781	7.13
643.195	7.04
643.609	6.95
644.022	6.85
644.436	6.77
644.849	6.69
645.262	6.63
645.676	6.56
646.089	6.49
646.502	6.41
646.915	6.35
647.328	6.3
647.741	6.24
648.154	6.21
648.567	6.17
648.98	6.15
649.393	6.12
649.805	6.08
650.218	6.07
650.631	6.05
651.043	6.03
651.456	6.01
651.868	5.99
652.28	5.98
652.693	5.95
653.105	5.93
653.517	5.89
653.929	5.87
654.341	5.85
654.753	5.8
655.165	5.77
655.577	5.73
655.989	5.69
656.401	5.65
656.813	5.6
657.224	5.56
657.636	5.51
658.047	5.47
658.459	5.41
658.87	5.36
659.282	5.32
659.693	5.27
660.104	5.25
660.515	5.2
660.926	5.15
661.338	5.11
661.749	5.06
662.159	5.01
662.57	4.96
662.981	4.93
663.392	4.9
663.803	4.87
664.213	4.83
664.624	4.81
665.035	4.78
665.445	4.77
665.855	4.76
666.266	4.75
666.676	4.73
667.086	4.73
667.497	4.71
667.907	4.7
668.317	4.68
668.727	4.68
669.137	4.68
669.547	4.69
669.956	4.69
670.366	4.69
670.776	4.7
671.186	4.71
671.595	4.74
672.005	4.76
672.414	4.79
672.824	4.82
673.233	4.85
673.642	4.86
674.052	4.88
674.461	4.91
674.87	4.93
675.279	4.95
675.688	4.97
676.097	5
676.506	5.03
676.915	5.06
677.323	5.09
677.732	5.12
678.141	5.16
678.549	5.22
678.958	5.26
679.366	5.3
679.775	5.37
680.183	5.45
680.592	5.52
681	5.58
681.408	5.65
681.816	5.73
682.224	5.81
682.632	5.9
683.04	5.99
683.448	6.1
683.856	6.23
684.264	6.37
684.671	6.51
685.079	6.67
685.487	6.86
685.894	7.06
686.302	7.29
686.709	7.55
687.116	7.82
687.524	8.11
687.931	8.43
688.338	8.79
688.745	9.15
689.152	9.56
689.559	9.97
689.966	10.42
690.373	10.92
690.78	11.41
691.187	11.94
691.593	12.49
692	13.06
692.407	13.65
692.813	14.26
693.22	14.89
693.626	15.52
694.032	16.17
694.439	16.84
694.845	17.48
695.251	18.13
695.657	18.81
696.063	19.48
696.469	20.16
696.875	20.84
697.281	21.5
697.687	22.21
698.093	22.9
698.498	23.6
698.904	24.25
699.31	24.92
699.715	25.6
700.12	26.25
700.526	26.91
700.931	27.55
701.337	28.19
701.742	28.81
702.147	29.43
702.552	30.05
702.957	30.66
703.362	31.27
703.767	31.85
704.172	32.45
704.577	33.03
704.981	33.6
705.386	34.16
705.791	34.73
706.195	35.3
706.6	35.83
707.004	36.35
707.408	36.85
707.813	37.37
708.217	37.87
708.621	38.39
709.025	38.9
709.43	39.38
709.834	39.88
710.237	40.35
710.641	40.84
711.045	41.3
711.449	41.74
711.853	42.23
712.256	42.69
712.66	43.17
713.064	43.61
713.467	44.06
713.87	44.52
714.274	44.97
714.677	45.41
715.08	45.8
715.484	46.25
715.887	46.68
716.29	47.06
716.693	47.43
717.096	47.83
717.499	48.22
717.901	48.56
718.304	48.92
718.707	49.27
719.109	49.63
719.512	50.01
719.915	50.31
720.317	50.69
720.719	51.01
721.122	51.34
721.524	51.65
721.926	51.96
722.328	52.27
722.731	52.56
723.133	52.85
723.535	53.15
723.937	53.42
724.338	53.66
724.74	53.85
725.142	54.09
725.544	54.34
725.945	54.58
726.347	54.81
726.748	54.99
727.15	55.19
727.551	55.41
727.952	55.57
728.354	55.75
728.755	55.98
729.156	56.2
729.557	56.41
729.958	56.61
730.359	56.76
730.76	56.91
731.161	57.09
731.562	57.26
731.962	57.37
732.363	57.51
732.763	57.66
733.164	57.76
733.564	57.87
733.965	57.95
734.365	58.03
734.766	58.16
735.166	58.24
735.566	58.28
735.966	58.35
736.366	58.46
736.766	58.54
737.166	58.6
737.566	58.65
737.966	58.74
738.365	58.85
738.765	58.92
739.165	58.96
739.564	59.04
739.964	59.14
740.363	59.19
740.763	59.22
741.162	59.27
741.561	59.33
741.96	59.41
742.36	59.45
742.759	59.44
743.158	59.47
743.557	59.53
743.955	59.58
744.354	59.65
744.753	59.7
745.152	59.75
745.55	59.81
745.949	59.85
746.348	59.89
746.746	59.92
747.144	60.01
747.543	60.07
747.941	60.15
748.339	60.21
748.737	60.28
749.136	60.29
749.534	60.37
749.932	60.38
750.33	60.38
750.727	60.41
751.125	60.45
751.523	60.43
751.921	60.44
752.318	60.42
752.716	60.41
753.113	60.35
753.511	60.32
753.908	60.28
754.305	60.26
754.703	60.24
755.1	60.17
755.497	60.17
755.894	60.16
756.291	60.14
756.688	60.12
757.085	60.09
757.482	60.09
757.878	60.13
758.275	60.14
758.672	60.16
759.068	60.17
759.465	60.25
759.861	60.21
760.258	60.17
760.654	60.17
761.05	60.17
761.447	60.16
761.843	60.15
762.239	60.15
762.635	60.13
763.031	60.12
763.427	60.11
763.822	60.05
764.218	60.05
764.614	60.05
765.01	60.06
765.405	60.02
765.801	60
766.196	59.99
766.592	59.94
766.987	59.95
767.382	59.93
767.778	59.94
768.173	59.96
768.568	59.94
768.963	59.94
769.358	59.91
769.753	59.96
770.148	60
770.542	60.02
770.937	60.02
771.332	60.03
771.726	60.02
772.121	60.01
772.515	60
772.91	60.01
773.304	59.99
773.699	60.01
774.093	59.97
774.487	59.97
774.881	59.98
775.275	60
775.669	59.99
776.063	60
776.457	59.99
776.851	59.96
777.245	59.95
777.638	59.99
778.032	60
778.425	59.98
778.819	59.98
779.212	59.94
779.606	59.93
779.999	59.9
780.392	59.91
780.786	59.92
781.179	59.95
781.572	59.98
781.965	59.98
782.358	59.94
782.751	59.98
783.143	60
783.536	60.07
783.929	60.09
784.322	60.13
784.714	60.13
785.107	60.19
785.499	60.24
785.891	60.25
786.284	60.22
786.676	60.27
787.068	60.27
787.46	60.24
787.852	60.2
788.245	60.21
788.636	60.21
789.028	60.22
789.42	60.16
789.812	60.14
790.204	60.09
790.595	60.09
790.987	60.09
791.378	60.12
791.77	60.19
792.161	60.2
792.553	60.21
792.944	60.21
793.335	60.25
793.726	60.22
794.117	60.23
794.508	60.26
794.899	60.3
795.29	60.32
795.681	60.29
796.072	60.27
796.463	60.28
796.853	60.28
797.244	60.3
797.634	60.27
798.025	60.34
798.415	60.33
798.806	60.37
799.196	60.38
799.586	60.36
799.976	60.38
800.366	60.36
800.756	60.38
801.146	60.4
801.536	60.42
801.926	60.47
802.316	60.46
802.706	60.48
803.095	60.51
803.485	60.51
803.874	60.54
804.264	60.6
804.653	60.59
805.043	60.61
805.432	60.6
805.821	60.59
806.21	60.61
806.599	60.71
806.988	60.72
807.377	60.71
807.766	60.72
808.155	60.78
808.544	60.76
808.933	60.8
809.321	60.89
809.71	60.94
810.098	60.98
810.487	60.98
810.875	60.93
811.264	60.95
811.652	61
812.04	61.02
812.428	61.02
812.816	61.06
813.204	61.09
813.592	61.03
813.98	61.01
814.368	60.99
814.756	61.01
815.144	61.06
815.531	61.09
815.919	61.12
816.306	61.14
816.694	61.15
817.081	61.13
817.469	61.16
817.856	61.2
818.243	61.23
818.63	61.28
819.017	61.28
819.404	61.25
819.791	61.21
820.178	61.2
820.565	61.22
820.952	61.22
821.339	61.26
821.725	61.26
822.112	61.25
822.498	61.26
822.885	61.24
823.271	61.24
823.657	61.27
824.044	61.27
824.43	61.29
824.816	61.27
825.202	61.24
825.588	61.22
825.974	61.2
826.36	61.18
826.746	61.21
827.132	61.17
827.517	61.19
827.903	61.17
828.289	61.15
828.674	61.11
829.06	61.16
829.445	61.19
829.83	61.2
830.216	61.17
830.601	61.17
830.986	61.13
831.371	61.15
831.756	61.1
832.141	61.1
832.526	61.09
832.911	61.11
833.295	61.06
833.68	61.03
834.065	61.02
834.449	61
834.834	60.98
835.218	60.97
835.603	60.96
835.987	60.93
836.371	60.94
836.755	60.96
837.139	60.92
837.524	60.9
837.908	60.86
838.291	60.84
838.675	60.84
839.059	60.8
839.443	60.77
839.827	60.75
840.21	60.76
840.594	60.73
840.977	60.67
841.361	60.68
841.744	60.65
842.127	60.67
842.511	60.62
842.894	60.59
843.277	60.61
843.66	60.61
844.043	60.62
844.426	60.58
844.809	60.57
845.191	60.58
845.574	60.56
845.957	60.53
846.339	60.52
846.722	60.57
847.104	60.58
847.487	60.6
847.869	60.59
848.252	60.56
848.634	60.61
849.016	60.63
849.398	60.62
849.78	60.63
850.162	60.64
850.544	60.64
850.926	60.59
851.307	60.59
851.689	60.56
852.071	60.58
852.452	60.6
852.834	60.55
853.215	60.56
853.597	60.56
853.978	60.52
854.359	60.52
854.741	60.53
855.122	60.53
855.503	60.54
855.884	60.54
856.265	60.52
856.646	60.47
857.026	60.53
857.407	60.46
857.788	60.49
858.169	60.51
858.549	60.55
858.93	60.53
859.31	60.54
859.69	60.51
860.071	60.5
860.451	60.51
860.831	60.56
861.211	60.52
861.591	60.56
861.971	60.52
862.351	60.54
862.731	60.52
863.111	60.52
863.491	60.53
863.87	60.55
864.25	60.56
864.629	60.55
865.009	60.54
865.388	60.58
865.768	60.57
866.147	60.6
866.526	60.58
866.905	60.58
867.284	60.61
867.663	60.6
868.042	60.59
868.421	60.59
868.8	60.59
869.179	60.61
869.558	60.61
869.936	60.65
870.315	60.64
870.693	60.65
871.072	60.63
871.45	60.61
871.828	60.64
872.207	60.68
872.585	60.65
872.963	60.6
873.341	60.58
873.719	60.55
874.097	60.51
874.475	60.49
874.853	60.46
875.23	60.46
875.608	60.46
875.986	60.43
876.363	60.41
876.741	60.4
877.118	60.44
877.495	60.42
877.873	60.39
878.25	60.39
878.627	60.36
879.004	60.35
879.381	60.39
879.758	60.37
880.135	60.36
880.512	60.36
880.889	60.38
881.265	60.39
881.642	60.41
882.019	60.45
882.395	60.44
882.772	60.47
883.148	60.49
883.524	60.47
883.901	60.48
884.277	60.47
884.653	60.47
885.029	60.44
885.405	60.42
885.781	60.4
886.157	60.36
886.532	60.36
886.908	60.36
887.284	60.35
887.659	60.31
888.035	60.28
888.411	60.27
888.786	60.24
889.161	60.24
889.537	60.24
889.912	60.19
890.287	60.2
890.662	60.16
891.037	60.09
891.412	60.07
891.787	60.07
892.162	60.05
892.536	60.02
892.911	60
893.286	59.95
893.66	59.92
894.035	59.88
894.409	59.85
894.784	59.84
895.158	59.84
895.532	59.79
895.906	59.74
896.281	59.71
896.655	59.7
897.029	59.69
897.402	59.72
897.776	59.71
898.15	59.74
898.524	59.71
898.898	59.66
899.271	59.66
899.645	59.69
900.018	59.69
900.392	59.73
900.765	59.73
901.138	59.74
901.511	59.72
901.884	59.73
902.258	59.71
902.631	59.76
903.003	59.8
903.376	59.8
903.749	59.82
904.122	59.84
904.495	59.86
904.867	59.85
905.24	59.82
905.612	59.79
905.985	59.75
906.357	59.72
906.729	59.69
907.102	59.66
907.474	59.71
907.846	59.66
908.218	59.63
908.59	59.56
908.962	59.53
909.334	59.59
909.705	59.6
910.077	59.65
910.449	59.68
910.82	59.66
911.192	59.71
911.563	59.66
911.935	59.63
912.306	59.67
912.677	59.67
913.048	59.68
913.419	59.64
913.79	59.63
914.161	59.62
914.532	59.64
914.903	59.61
915.274	59.6
915.645	59.62
916.015	59.67
916.386	59.67
916.756	59.64
917.127	59.65
917.497	59.65
917.868	59.65
918.238	59.64
918.608	59.65
918.978	59.65
919.348	59.63
919.718	59.62
920.088	59.62
920.458	59.66
920.828	59.71
921.198	59.72
921.567	59.69
921.937	59.71
922.306	59.7
922.676	59.68
923.045	59.7
923.415	59.73
923.784	59.71
924.153	59.71
924.522	59.66
924.891	59.64
925.26	59.61
925.629	59.65
925.998	59.62
926.367	59.61
926.736	59.6
927.104	59.64
927.473	59.63
927.842	59.61
928.21	59.61
928.578	59.61
928.947	59.57
929.315	59.57
929.683	59.55
930.051	59.55
930.42	59.51
930.788	59.46
931.156	59.39
931.523	59.35
931.891	59.32
932.259	59.24
932.627	59.14
932.994	59.14
933.362	59.05
933.729	59
934.097	58.93
934.464	58.86
934.831	58.81
935.199	58.74
935.566	58.66
935.933	58.62
936.3	58.56
936.667	58.57
937.034	58.47
937.401	58.47
937.767	58.4
938.134	58.4
938.501	58.43
938.867	58.47
939.234	58.51
939.6	58.53
939.967	58.6
940.333	58.74
940.699	58.86
941.065	58.97
941.431	59.08
941.798	59.2
942.163	59.34
942.529	59.45
942.895	59.5
943.261	59.66
943.627	59.81
943.992	59.88
944.358	59.87
944.723	59.86
945.089	59.91
945.454	59.94
945.82	60.02
946.185	60.04
946.55	60.06
946.915	60.03
947.28	59.93
947.645	59.91
948.01	59.91
948.375	59.97
948.74	59.89
949.104	59.9
949.469	59.75
949.834	59.67
950.198	59.52
950.562	59.44
950.927	59.45
951.291	59.43
951.655	59.3
952.02	59.26
952.384	59.22
952.748	59.24
953.112	59.15
953.476	59.22
953.839	59.13
954.203	59.11
954.567	59.1
954.931	59
955.294	58.93
955.658	58.92
956.021	58.88
956.385	58.85
956.748	58.83
957.111	58.84
957.474	58.78
957.837	58.73
958.2	58.68
958.563	58.64
958.926	58.63
959.289	58.61
959.652	58.63
960.015	58.58
960.377	58.49
960.74	58.41
961.102	58.4
961.465	58.43
961.827	58.47
962.189	58.5
962.552	58.43
962.914	58.38
963.276	58.36
963.638	58.28
964	58.22
964.362	58.23
964.724	58.23
965.085	58.19
965.447	58.09
965.809	58.03
966.17	58.02
966.532	58.01
966.893	57.96
967.255	57.91
967.616	57.95
967.977	57.96
968.338	57.96
968.699	57.94
969.061	57.89
969.421	57.87
969.782	57.86
970.143	57.84
970.504	57.84
970.865	57.84
971.225	57.82
971.586	57.87
971.946	57.88
972.307	57.82
972.667	57.82
973.027	57.89
973.388	57.91
973.748	57.97
974.108	57.93
974.468	57.82
974.828	57.89
975.188	57.92
975.548	57.81
975.907	57.83
976.267	57.88
976.627	57.88
976.986	57.85
977.346	57.81
977.705	57.76
978.064	57.72
978.424	57.82
978.783	57.74
979.142	57.7
979.501	57.76
979.86	57.69
980.219	57.56
980.578	57.54
980.937	57.58
981.296	57.59
981.654	57.65
982.013	57.71
982.371	57.69
982.73	57.76
983.088	57.76
983.447	57.75
983.805	57.76
984.163	57.89
984.521	57.87
984.879	57.84
985.237	57.86
985.595	57.9
985.953	57.91
986.311	57.98
986.669	57.98
987.026	57.99
987.384	57.97
987.741	58.03
988.099	58.03
988.456	57.97
988.814	57.94
989.171	57.92
989.528	57.86
989.885	57.78
990.242	57.88
990.599	57.92
990.956	57.94
991.313	58.04
991.67	58.04
992.027	57.98
992.383	58.08
992.74	58.07
993.096	58.15
993.453	58.21
993.809	58.24
994.165	58.2
994.522	58.2
994.878	58.32
995.234	58.21
995.59	58.19
995.946	58.2
996.302	58.15
996.658	58.19
997.013	58.19
997.369	58.15
997.725	58.23
998.08	58.17
998.436	58.24
998.791	58.25
999.147	58.38
999.502	58.51
999.857	58.57
1000.212	58.59
1000.567	58.56
1000.922	58.59
1001.277	58.49
1001.632	58.5
1001.987	58.47
1002.342	58.34
1002.696	58.29
1003.051	58.13
1003.406	58
1003.76	58.03
1004.114	58.17
1004.469	58.23
1004.823	58.18
1005.177	58.48
1005.531	58.39
1005.885	58.43
1006.239	58.6
1006.593	58.63
1006.947	58.68
1007.301	58.74
1007.655	58.8
1008.008	58.68
1008.362	58.78
1008.715	58.93
1009.069	58.73
1009.422	58.82
1009.776	58.76
1010.129	58.66
1010.482	58.63
1010.835	58.83
1011.188	58.63
1011.541	58.5
1011.894	58.58
1012.247	58.37
1012.6	58.34
1012.952	58.29
1013.305	58.3
1013.657	58.63
1014.01	58.87
1014.362	59.15
1014.715	58.92
1015.067	59.15
1015.419	59.39
1015.771	59.61
1016.123	59.71
1016.475	59.82
1016.827	59.93
1017.179	60.01
1017.531	59.95
1017.883	59.96
1018.234	59.91
1018.586	60.02
1018.938	60.13
1019.289	59.96
1019.64	59.99
1019.992	60.28
1020.343	60.06
1020.694	59.99
1021.045	60.19
1021.396	60.02
1021.747	59.91
1022.098	59.91
1022.449	59.72
1022.8	59.84
1023.151	60.05
1023.501	60.13
1023.852	60.26
1024.202	60.42
1024.553	60.55
1024.903	60.32
1025.253	60.4
1025.604	60.46
1025.954	60.01
1026.304	60.89
1026.654	60.79
1027.004	60.73
1027.354	60.6
1027.703	60.3
1028.053	60.25
1028.403	60.2
1028.753	60.4
1029.102	60.71
1029.452	60.87
1029.801	61.48
1030.15	61.03
1030.499	61.09
897.758	640.96
901.051	652.61
904.343	652.37
907.636	642.77
910.928	633.81
914.22	643.87
917.511	627.55
920.803	602.91
924.094	578.64
927.384	584.54
930.675	572.08
933.965	566.22
937.255	561.67
940.544	540.57
943.834	523.64
947.123	514.16
950.411	487.76
953.7	480.97
956.988	463.62
960.276	447.54
963.563	437.98
966.851	414.32
970.138	406.26
973.424	380.95
976.711	376.67
979.997	356.42
983.283	350.08
986.568	338.56
989.853	328.77
993.138	319.08
996.423	312.61
999.708	305.32
1002.992	304.87
1006.275	295.77
1009.559	293.03
1012.842	284.29
1016.125	278.81
1019.408	273.76
1022.69	270.15
1025.972	269.52
1029.254	261.54
1032.536	255.79
1035.817	248.78
1039.098	244.42
1042.379	241.31
1045.659	237.95
1048.939	236.3
1052.219	231.24
1055.498	227.5
1058.778	225.31
1062.057	220.01
1065.335	219.49
1068.614	216.29
1071.892	214.28
1075.17	209.61
1078.447	205.81
1081.724	204.75
1085.001	199.93
1088.278	200.73
1091.554	198.88
1094.83	197.68
1098.106	195.4
1101.382	194.1
1104.657	193.11
1107.932	191.59
1111.206	192.15
1114.481	190.21
1117.755	188.99
1121.029	188.3
1124.302	185.36
1127.575	182.38
1130.848	181.62
1134.121	179.53
1137.393	179.22
1140.665	178.14
1143.937	176.85
1147.208	174.27
1150.48	172.5
1153.75	170.78
1157.021	170.36
1160.291	169.6
1163.561	169.65
1166.831	167.54
1170.101	166.72
1173.37	165.36
1176.639	163.91
1179.907	163.23
1183.176	162.92
1186.444	163.38
1189.711	162.17
1192.979	163
1196.246	163.15
1199.513	163.54
1202.78	164.31
1206.046	164.38
1209.312	164.79
1212.578	165.42
1215.843	168.32
1219.108	169.16
1222.373	171.45
1225.638	175.17
1228.902	177.82
1232.166	182.5
1235.43	184.38
1238.693	188.24
1241.956	194.32
1245.219	198.99
1248.482	200.94
1251.744	199.46
1255.006	199.44
1258.268	194.93
1261.529	193.01
1264.79	187.93
1268.051	185.92
1271.312	183.92
1274.572	181.07
1277.832	175.06
1281.092	173.04
1284.351	169.61
1287.61	169.45
1290.869	168.88
1294.128	168.24
1297.386	167.59
1300.644	167.87
1303.902	166.04
1307.159	164.57
1310.416	165.23
1313.673	167.53
1316.93	168.71
1320.186	170.91
1323.442	172.7
1326.697	175.39
1329.953	177.58
1333.208	182.37
1336.463	188.93
1339.717	192.03
1342.972	202.12
1346.226	207.42
1349.479	208.86
1352.733	217.28
1355.986	223.93
1359.238	228.32
1362.491	230.54
1365.743	236.92
1368.995	239.41
1372.247	242.19
1375.498	240.73
1378.749	248.47
1382	247.93
1385.251	246.12
1388.501	245.35
1391.751	246.48
1395	244.4
1398.25	247.04
1401.499	246.98
1404.748	245.18
1407.996	236.65
1411.244	237.71
1414.492	231.4
1417.74	225.67
1420.987	221.35
1424.234	217.81
1427.481	208.68
1430.728	203.89
1433.974	196.27
1437.22	188.97
1440.465	183.17
1443.711	177.34
1446.956	171.34
1450.201	165.65
1453.445	157.65
1456.689	152.78
1459.933	147.8
1463.177	141.73
1466.42	138.98
1469.663	135.3
1472.906	131.88
1476.148	128.23
1479.391	125.44
1482.633	123.33
1485.874	120.96
1489.115	119.99
1492.356	118.62
1495.597	116.16
1498.838	116.39
1502.078	115.2
1505.318	114.67
1508.557	113.8
1511.797	112.91
1515.036	112.73
1518.274	111.85
1521.513	111.15
1524.751	110.86
1527.989	111.61
1531.227	111.43
1534.464	110.91
1537.701	109.87
1540.938	109.23
1544.174	110.06
1547.41	109.73
1550.646	109.42
1553.882	110.03
1557.117	109.6
1560.352	109.18
1563.587	107.98
1566.821	108.17
1570.055	107.6
1573.289	108.06
1576.523	108.24
1579.756	107.09
1582.989	107.77
1586.222	107.24
1589.454	107.12
1592.686	107.47
1595.918	107.31
1599.15	107.2
1602.381	107.68
1605.612	107.73
1608.843	107.53
1612.073	107.59
1615.303	107.94
1618.533	107.66
1621.762	108.64
1624.992	108.56
1628.221	107.8
1631.449	107.84
1634.678	108.61
1637.906	108.24
1641.134	108.21
1644.361	108.1
1647.588	108.64
1650.815	108.86
1654.042	108.66
1657.269	107.8
1660.495	108.24
1663.72	109.07
1666.946	109.55
1670.171	109.34
1673.396	110.2
1676.621	110.7
1679.845	111.18
1683.069	111.24
1686.293	110.92
1689.517	111.65
1692.74	112.28
1695.963	112.13
1699.185	111.97
1702.408	111.93
1705.63	112.23
1708.852	112.39
1712.073	112.61
1715.294	112.25
1718.515	112.45
1721.736	112.89
1724.956	112.49
1728.176	112.58
1731.396	113.44
1734.616	113.66
1737.835	114.09
1741.054	113.27
1744.272	113.51
1747.491	113.34
1750.709	114.44
1753.927	114.24
1757.144	114.85
1760.361	115.41
1763.578	115.87
1766.795	115.87
1770.011	115.92
1773.227	116.07
1776.443	117.88
1779.658	117.1
1782.874	117.68
1786.089	117.08
1789.303	117.7
1792.518	119.02
1795.732	119.08
1798.945	119.77
1802.159	119.94
1805.372	121.55
1808.585	122.74
1811.797	123.36
1815.01	124.84
1818.222	126.09
1821.434	126.79
1824.645	127.45
1827.856	128.88
1831.067	129.89
1834.278	131.92
1837.488	132.58
1840.698	133.66
1843.908	133.69
1847.117	134.67
1850.326	135.85
1853.535	135.84
1856.744	138.16
1859.952	139.53
1863.16	138.3
1866.368	137.9
1869.575	137.2
1872.782	137.54
1875.989	136.07
1879.196	136.65
1882.402	135.1
1885.608	135.08
1888.814	134.93
1892.019	135.13
1895.224	132.5
1898.429	132.88
1901.634	133.63
1904.838	134.26
1908.042	134.5
1911.246	134.82
1914.449	134.23
1917.652	134.77
1920.855	135.1
1924.058	134.37
1927.26	133.65
1930.462	135.05
1933.664	135.73
1936.865	135.86
1940.066	133.69
1943.267	132.91
1946.467	134.41
1949.668	133.91
1952.868	133.75
1956.067	132.93
1959.267	134.39
1962.466	134.5
1965.665	135.88
1968.863	134.92
1972.061	136.92
1975.259	140.55
1978.457	142.02
1981.654	141.92
1984.852	143.7
1988.048	145.61
1991.245	147.73
1994.441	149.78
1997.637	153.92
2000.833	156.09
2004.028	159.19
2007.223	162.51
2010.418	164.81
2013.613	171.81
2016.807	176.32
2020.001	180.44
2023.194	185.02
2026.388	192.44
2029.581	202.87
2032.774	207.12
2035.966	213.34
2039.158	219.14
2042.35	221.73
2045.542	228.79
2048.733	238.09
2051.924	240.76
2055.115	244.2
2058.306	247.18
2061.496	251.61
2064.686	248.84
2067.875	249.85
2071.065	251.98
2074.254	252.05
2077.442	260.93
2080.631	260.2
2083.819	259.99
2087.007	267.05
2090.195	269.08
2093.382	270.99
2096.569	270.75
2099.756	276.62
2102.942	281.77
2106.128	288.51
2109.314	290.77
2112.5	289.21
2115.685	290.68
2118.87	291
2122.055	290.95
2125.239	298.7
2128.424	306.41
2131.608	304.75
2134.791	306.59
2137.974	306.76
2141.157	308.29
2144.34	312.32
2147.523	318.31
2150.705	324.79
2153.887	321.93
2157.068	324.65
2160.25	327.73
2163.431	324.89
2166.611	332.2
2169.792	336.35
2172.972	341.36
2176.152	340.9
2179.331	347.63
2182.511	348.33
2185.69	351.85
2188.868	365.42
2192.047	375.1
2195.225	380.29
2198.403	386.5
2201.58	379.76
2204.758	390.31
2207.935	394.5
2211.111	404.27
2214.288	405.95
2217.464	408.52
2220.64	410.48
2223.815	413.09
2226.991	407.47
2230.166	409.48
2233.34	421.04
2236.515	437.2
2239.689	434.52
2242.863	439.87
2246.036	435.54
2249.209	449.57
2252.382	447.03
2255.555	464.07
2258.727	464.07
2261.9	483.68
2265.071	491.08
2268.243	484.84
2271.414	495.64
2274.585	505.27
2277.756	506.07
2280.926	529
2284.096	526.76
2287.266	531.38
2290.436	520.76
2293.605	536.45
2296.774	547.71
2299.942	547.32
2303.111	566.71
2306.279	576.46
2309.447	575.84
2312.614	578.23
2315.781	587.73
2318.948	590.54
2322.115	602.06
2325.281	639.06
2328.447	630.08
2331.613	631.59
2334.779	641.53
2337.944	654.89
2341.109	663.45
2344.274	675.95
2347.438	690.51
2350.602	702.67
2353.766	753.58
2356.929	759.36
2360.092	764.46
2363.255	768.48
2366.418	781.88
2369.58	799.6
2372.742	794.97
2375.904	795.62
2379.066	814.26
2382.227	867.24
2385.388	864.85
2388.548	815.16
2391.709	806.42
2394.869	829.33
2398.029	835.85
2401.188	834.18
2404.347	854.98
2407.506	880.99
2410.665	852.97
2413.823	859.53
2416.981	854.46
2420.139	815.34
2423.296	880.02
2426.453	942.7
2429.61	901
2432.767	961.22
2435.923	994.81
2439.079	967.3
2442.235	988.75
2445.391	1007.44
2448.546	996.36
2451.701	1054.46
2454.855	1122.99
2458.009	993.66
2461.163	1011.14
2464.317	1021.12
2467.471	995.02
2470.624	1033.56
2473.777	1018.11
2476.929	983.5
2480.082	1054.38
2483.234	1108.77
2486.385	1120.31
2489.537	1148.12
2492.688	1274.45
2495.839	1236.17
2498.989	1277.29
2502.14	1289.49
2505.29	1224.42
2508.439	1350.05
2511.589	1384.77
2514.738	1340.83
2517.887	1322.8
2521.035	1239.13
2524.183	1222.68
2527.331	1209.24
2530.479	1187.57
2533.627	1209.21
