Data from c_3_dec_va_2n_Splice17_09.txt Node
Date: Sat Feb 29 15:01:24 EST 2020
User: sa697716
Spectrometer: FLMS03696
Trigger mode: 0
Integration Time (sec): 3.180400E-1
Scans to average: 20
Electric dark correction enabled: true
Nonlinearity correction enabled: true
Boxcar width: 5
XAxis mode: Wavelengths
Number of Pixels in Spectrum: 2048
>>>>>Begin Spectral Data<<<<<
187.83	137.18
188.298	142.3
188.766	135.36
189.233	136.64
189.701	139.62
190.169	132.14
190.636	137.54
191.104	128.47
191.571	252.94
192.039	299.13
192.506	-90.3
192.974	7347.34
193.441	-474.15
193.908	134.55
194.375	190.81
194.842	282.29
195.31	168.16
195.777	136.66
196.244	68.67
196.711	64.38
197.177	63.07
197.644	62.34
198.111	61.23
198.578	61.27
199.045	62.1
199.511	62.3
199.978	62.1
200.445	61.71
200.911	61.97
201.378	62.16
201.844	62.26
202.31	62.72
202.777	62.44
203.243	63.09
203.709	63.29
204.176	62.7
204.642	62.45
205.108	62.71
205.574	62.68
206.04	62.67
206.506	62.03
206.972	61.7
207.438	60.99
207.903	60.79
208.369	59.51
208.835	59.15
209.301	58.48
209.766	57.62
210.232	56.53
210.697	55.66
211.163	54.62
211.628	53.71
212.094	52.75
212.559	51.8
213.024	51
213.49	50.09
213.955	48.92
214.42	48.02
214.885	46.79
215.35	45.14
215.815	43.14
216.28	41.2
216.745	38.82
217.21	36.19
217.675	33.91
218.14	31.56
218.604	29.5
219.069	27.78
219.534	26.24
219.998	25.06
220.463	24.04
220.927	23.16
221.392	22.31
221.856	21.66
222.32	21.13
222.785	20.58
223.249	20.17
223.713	19.85
224.177	19.47
224.642	19.15
225.106	18.76
225.57	18.41
226.034	18.13
226.497	17.81
226.961	17.49
227.425	17.17
227.889	16.9
228.353	16.61
228.816	16.31
229.28	16.02
229.744	15.76
230.207	15.54
230.671	15.32
231.134	15.08
231.597	14.87
232.061	14.67
232.524	14.5
232.987	14.3
233.45	14.09
233.914	13.9
234.377	13.76
234.84	13.6
235.303	13.44
235.766	13.28
236.229	13.13
236.691	13
237.154	12.88
237.617	12.73
238.08	12.61
238.542	12.5
239.005	12.39
239.468	12.25
239.93	12.15
240.393	12.03
240.855	11.92
241.317	11.81
241.78	11.71
242.242	11.6
242.704	11.51
243.166	11.4
243.629	11.31
244.091	11.21
244.553	11.12
245.015	11.03
245.477	10.94
245.939	10.85
246.4	10.76
246.862	10.68
247.324	10.58
247.786	10.5
248.247	10.42
248.709	10.33
249.17	10.24
249.632	10.16
250.093	10.06
250.555	9.98
251.016	9.93
251.477	9.86
251.939	9.78
252.4	9.71
252.861	9.64
253.322	9.58
253.783	9.53
254.244	9.48
254.705	9.42
255.166	9.39
255.627	9.33
256.088	9.27
256.549	9.22
257.009	9.17
257.47	9.13
257.931	9.07
258.391	9.01
258.852	8.95
259.312	8.9
259.773	8.85
260.233	8.78
260.694	8.73
261.154	8.68
261.614	8.63
262.074	8.59
262.534	8.54
262.994	8.5
263.455	8.46
263.915	8.41
264.374	8.37
264.834	8.33
265.294	8.3
265.754	8.26
266.214	8.23
266.673	8.2
267.133	8.17
267.593	8.14
268.052	8.11
268.512	8.08
268.971	8.05
269.431	8.03
269.89	8.01
270.349	7.99
270.809	7.97
271.268	7.96
271.727	7.94
272.186	7.91
272.645	7.89
273.104	7.87
273.563	7.86
274.022	7.85
274.481	7.83
274.94	7.8
275.399	7.79
275.857	7.77
276.316	7.74
276.775	7.71
277.233	7.69
277.692	7.67
278.15	7.65
278.609	7.62
279.067	7.59
279.525	7.56
279.984	7.54
280.442	7.52
280.9	7.5
281.358	7.49
281.816	7.47
282.274	7.47
282.732	7.45
283.19	7.44
283.648	7.43
284.106	7.42
284.564	7.42
285.021	7.42
285.479	7.41
285.937	7.4
286.394	7.4
286.852	7.4
287.309	7.39
287.767	7.39
288.224	7.38
288.682	7.38
289.139	7.37
289.596	7.33
290.053	7.3
290.511	7.28
290.968	7.27
291.425	7.24
291.882	7.21
292.339	7.18
292.796	7.16
293.252	7.13
293.709	7.1
294.166	7.07
294.623	7.06
295.079	7.05
295.536	7.04
295.992	7.01
296.449	7
296.905	6.99
297.362	6.97
297.818	6.96
298.274	6.94
298.731	6.93
299.187	6.93
299.643	6.93
300.099	6.92
300.555	6.89
301.011	6.88
301.467	6.86
301.923	6.85
302.379	6.84
302.835	6.83
303.291	6.82
303.746	6.82
304.202	6.8
304.658	6.78
305.113	6.77
305.569	6.78
306.024	6.77
306.479	6.76
306.935	6.75
307.39	6.75
307.845	6.74
308.301	6.74
308.756	6.75
309.211	6.74
309.666	6.75
310.121	6.74
310.576	6.74
311.031	6.75
311.486	6.76
311.94	6.77
312.395	6.77
312.85	6.77
313.305	6.78
313.759	6.77
314.214	6.77
314.668	6.77
315.123	6.77
315.577	6.77
316.032	6.77
316.486	6.75
316.94	6.74
317.394	6.73
317.849	6.72
318.303	6.71
318.757	6.7
319.211	6.68
319.665	6.67
320.119	6.66
320.572	6.65
321.026	6.64
321.48	6.64
321.934	6.63
322.387	6.62
322.841	6.6
323.295	6.59
323.748	6.58
324.202	6.57
324.655	6.55
325.108	6.53
325.562	6.51
326.015	6.5
326.468	6.49
326.921	6.48
327.374	6.47
327.827	6.46
328.28	6.45
328.733	6.44
329.186	6.44
329.639	6.43
330.092	6.43
330.545	6.44
330.997	6.44
331.45	6.44
331.903	6.43
332.355	6.42
332.808	6.43
333.26	6.43
333.713	6.44
334.165	6.43
334.617	6.46
335.069	6.47
335.522	6.48
335.974	6.48
336.426	6.48
336.878	6.49
337.33	6.5
337.782	6.52
338.234	6.53
338.686	6.53
339.137	6.53
339.589	6.51
340.041	6.5
340.493	6.49
340.944	6.48
341.396	6.47
341.847	6.44
342.299	6.41
342.75	6.37
343.201	6.34
343.653	6.32
344.104	6.3
344.555	6.29
345.006	6.27
345.457	6.25
345.908	6.24
346.359	6.23
346.81	6.22
347.261	6.21
347.712	6.21
348.163	6.21
348.613	6.2
349.064	6.18
349.515	6.16
349.965	6.17
350.416	6.16
350.866	6.15
351.317	6.15
351.767	6.14
352.217	6.14
352.668	6.13
353.118	6.14
353.568	6.14
354.018	6.15
354.468	6.16
354.918	6.16
355.368	6.15
355.818	6.15
356.268	6.15
356.718	6.15
357.168	6.14
357.617	6.14
358.067	6.14
358.517	6.14
358.966	6.14
359.416	6.15
359.865	6.15
360.315	6.16
360.764	6.18
361.213	6.17
361.663	6.18
362.112	6.19
362.561	6.2
363.01	6.2
363.459	6.2
363.908	6.2
364.357	6.2
364.806	6.2
365.255	6.2
365.703	6.19
366.152	6.21
366.601	6.2
367.05	6.22
367.498	6.23
367.947	6.24
368.395	6.27
368.844	6.27
369.292	6.28
369.74	6.29
370.189	6.31
370.637	6.35
371.085	6.37
371.533	6.41
371.981	6.44
372.429	6.46
372.877	6.5
373.325	6.53
373.773	6.57
374.221	6.63
374.669	6.69
375.116	6.73
375.564	6.78
376.012	6.84
376.459	6.91
376.907	6.98
377.354	7.06
377.801	7.15
378.249	7.23
378.696	7.33
379.143	7.43
379.591	7.53
380.038	7.65
380.485	7.77
380.932	7.88
381.379	7.98
381.826	8.11
382.273	8.23
382.72	8.35
383.166	8.47
383.613	8.6
384.06	8.72
384.506	8.84
384.953	8.95
385.4	9.07
385.846	9.19
386.292	9.33
386.739	9.44
387.185	9.56
387.631	9.68
388.078	9.81
388.524	9.91
388.97	10.01
389.416	10.12
389.862	10.23
390.308	10.33
390.754	10.44
391.2	10.55
391.645	10.66
392.091	10.76
392.537	10.87
392.983	10.99
393.428	11.12
393.874	11.25
394.319	11.35
394.765	11.44
395.21	11.51
395.655	11.59
396.101	11.66
396.546	11.74
396.991	11.81
397.436	11.85
397.881	11.9
398.326	11.95
398.771	12.03
399.216	12.12
399.661	12.21
400.106	12.28
400.551	12.33
400.995	12.35
401.44	12.37
401.885	12.39
402.329	12.43
402.774	12.45
403.218	12.49
403.663	12.49
404.107	12.51
404.551	12.52
404.995	12.54
405.44	12.55
405.884	12.58
406.328	12.6
406.772	12.64
407.216	12.67
407.66	12.7
408.104	12.71
408.547	12.71
408.991	12.71
409.435	12.7
409.879	12.72
410.322	12.73
410.766	12.77
411.209	12.78
411.653	12.78
412.096	12.77
412.54	12.76
412.983	12.76
413.426	12.77
413.869	12.8
414.312	12.85
414.756	12.89
415.199	12.91
415.642	12.92
416.085	12.95
416.527	12.98
416.97	13
417.413	13
417.856	12.99
418.298	12.97
418.741	12.95
419.184	12.92
419.626	12.88
420.069	12.85
420.511	12.83
420.953	12.8
421.396	12.78
421.838	12.78
422.28	12.81
422.722	12.82
423.164	12.84
423.606	12.84
424.048	12.82
424.49	12.83
424.932	12.86
425.374	12.85
425.816	12.83
426.258	12.8
426.699	12.73
427.141	12.66
427.582	12.63
428.024	12.6
428.465	12.61
428.907	12.65
429.348	12.66
429.789	12.64
430.231	12.64
430.672	12.66
431.113	12.7
431.554	12.77
431.995	12.83
432.436	12.87
432.877	12.91
433.318	12.93
433.759	12.94
434.2	12.95
434.64	13.01
435.081	13.03
435.522	13.07
435.962	13.12
436.403	13.18
436.843	13.25
437.284	13.29
437.724	13.32
438.164	13.36
438.604	13.4
439.045	13.43
439.485	13.47
439.925	13.52
440.365	13.55
440.805	13.59
441.245	13.61
441.685	13.64
442.125	13.69
442.564	13.75
443.004	13.8
443.444	13.86
443.883	13.91
444.323	13.97
444.762	14.05
445.202	14.14
445.641	14.2
446.081	14.29
446.52	14.33
446.959	14.39
447.398	14.5
447.837	14.58
448.276	14.6
448.716	14.67
449.154	14.75
449.593	14.81
450.032	14.87
450.471	14.94
450.91	14.98
451.349	15.08
451.787	15.12
452.226	15.12
452.664	15.14
453.103	15.2
453.541	15.22
453.98	15.21
454.418	15.22
454.856	15.22
455.295	15.25
455.733	15.26
456.171	15.24
456.609	15.24
457.047	15.25
457.485	15.29
457.923	15.3
458.361	15.34
458.798	15.4
459.236	15.44
459.674	15.48
460.111	15.48
460.549	15.51
460.987	15.54
461.424	15.58
461.862	15.6
462.299	15.61
462.736	15.64
463.173	15.66
463.611	15.65
464.048	15.68
464.485	15.68
464.922	15.71
465.359	15.71
465.796	15.72
466.233	15.76
466.67	15.8
467.106	15.81
467.543	15.83
467.98	15.84
468.416	15.87
468.853	15.86
469.29	15.89
469.726	15.89
470.162	15.91
470.599	15.94
471.035	15.95
471.471	15.93
471.907	15.95
472.344	15.96
472.78	15.96
473.216	15.96
473.652	15.96
474.088	15.96
474.523	15.96
474.959	15.96
475.395	15.95
475.831	15.95
476.266	15.97
476.702	15.98
477.138	15.97
477.573	15.99
478.008	15.99
478.444	15.99
478.879	16.01
479.314	16.04
479.75	16.07
480.185	16.08
480.62	16.11
481.055	16.12
481.49	16.12
481.925	16.15
482.36	16.17
482.795	16.19
483.229	16.22
483.664	16.26
484.099	16.29
484.534	16.33
484.968	16.37
485.403	16.43
485.837	16.49
486.271	16.56
486.706	16.64
487.14	16.74
487.574	16.84
488.009	16.96
488.443	17.07
488.877	17.19
489.311	17.31
489.745	17.45
490.179	17.59
490.613	17.74
491.046	17.92
491.48	18.09
491.914	18.26
492.348	18.45
492.781	18.63
493.215	18.84
493.648	19.06
494.082	19.28
494.515	19.49
494.948	19.72
495.382	19.95
495.815	20.18
496.248	20.43
496.681	20.68
497.114	20.93
497.547	21.2
497.98	21.45
498.413	21.7
498.846	21.96
499.279	22.25
499.711	22.54
500.144	22.83
500.577	23.13
501.009	23.42
501.442	23.72
501.874	24.04
502.306	24.36
502.739	24.68
503.171	25.03
503.603	25.38
504.036	25.71
504.468	26.07
504.9	26.44
505.332	26.78
505.764	27.13
506.196	27.51
506.627	27.89
507.059	28.25
507.491	28.63
507.923	29
508.354	29.38
508.786	29.77
509.217	30.13
509.649	30.51
510.08	30.92
510.512	31.32
510.943	31.69
511.374	32.06
511.805	32.44
512.237	32.83
512.668	33.2
513.099	33.59
513.53	33.97
513.961	34.34
514.391	34.7
514.822	35.06
515.253	35.4
515.684	35.72
516.114	36.06
516.545	36.37
516.975	36.7
517.406	37.03
517.836	37.31
518.267	37.6
518.697	37.9
519.127	38.22
519.558	38.48
519.988	38.78
520.418	39.07
520.848	39.36
521.278	39.64
521.708	39.89
522.138	40.13
522.567	40.38
522.997	40.6
523.427	40.84
523.857	41.01
524.286	41.22
524.716	41.42
525.145	41.63
525.575	41.8
526.004	41.99
526.433	42.14
526.863	42.31
527.292	42.46
527.721	42.64
528.15	42.81
528.579	42.99
529.008	43.14
529.437	43.27
529.866	43.37
530.295	43.5
530.724	43.64
531.152	43.77
531.581	43.91
532.01	44.05
532.438	44.16
532.867	44.25
533.295	44.37
533.723	44.5
534.152	44.58
534.58	44.68
535.008	44.76
535.436	44.82
535.865	44.88
536.293	44.97
536.721	45.06
537.149	45.14
537.576	45.23
538.004	45.26
538.432	45.31
538.86	45.38
539.287	45.44
539.715	45.52
540.143	45.58
540.57	45.62
540.998	45.67
541.425	45.7
541.852	45.73
542.28	45.76
542.707	45.84
543.134	45.87
543.561	45.9
543.988	45.94
544.415	45.98
544.842	46.03
545.269	46.08
545.696	46.12
546.123	46.16
546.549	46.19
546.976	46.25
547.403	46.28
547.829	46.35
548.256	46.42
548.682	46.46
549.108	46.51
549.535	46.57
549.961	46.63
550.387	46.68
550.813	46.71
551.24	46.78
551.666	46.83
552.092	46.87
552.518	46.91
552.943	46.94
553.369	46.99
553.795	47.05
554.221	47.1
554.646	47.13
555.072	47.18
555.498	47.22
555.923	47.26
556.349	47.29
556.774	47.31
557.199	47.32
557.625	47.34
558.05	47.37
558.475	47.36
558.9	47.37
559.325	47.34
559.75	47.29
560.175	47.27
560.6	47.24
561.025	47.2
561.449	47.17
561.874	47.13
562.299	47.1
562.723	47.06
563.148	47.01
563.572	46.97
563.997	46.92
564.421	46.88
564.846	46.82
565.27	46.76
565.694	46.69
566.118	46.61
566.542	46.54
566.966	46.45
567.39	46.34
567.814	46.24
568.238	46.12
568.662	46.03
569.086	45.94
569.509	45.82
569.933	45.69
570.357	45.58
570.78	45.48
571.204	45.35
571.627	45.25
572.05	45.17
572.474	45.1
572.897	44.99
573.32	44.92
573.743	44.83
574.166	44.78
574.589	44.74
575.012	44.69
575.435	44.64
575.858	44.63
576.281	44.6
576.704	44.56
577.126	44.49
577.549	44.49
577.972	44.43
578.394	44.39
578.817	44.35
579.239	44.34
579.661	44.33
580.084	44.29
580.506	44.25
580.928	44.18
581.35	44.16
581.772	44.17
582.194	44.14
582.616	44.14
583.038	44.14
583.46	44.13
583.882	44.08
584.303	44.05
584.725	44.02
585.147	43.99
585.568	43.99
585.99	43.94
586.411	43.9
586.833	43.87
587.254	43.83
587.675	43.78
588.096	43.76
588.518	43.74
588.939	43.69
589.36	43.65
589.781	43.61
590.202	43.59
590.623	43.54
591.043	43.49
591.464	43.47
591.885	43.43
592.305	43.38
592.726	43.31
593.147	43.29
593.567	43.27
593.987	43.26
594.408	43.23
594.828	43.19
595.248	43.18
595.669	43.14
596.089	43.09
596.509	43.06
596.929	43.04
597.349	43.01
597.769	42.94
598.189	42.91
598.608	42.85
599.028	42.8
599.448	42.74
599.867	42.69
600.287	42.68
600.706	42.64
601.126	42.59
601.545	42.54
601.965	42.49
602.384	42.45
602.803	42.39
603.222	42.34
603.641	42.32
604.061	42.29
604.48	42.24
604.898	42.19
605.317	42.15
605.736	42.12
606.155	42.07
606.574	42.04
606.992	42
607.411	41.99
607.829	41.91
608.248	41.88
608.666	41.85
609.085	41.81
609.503	41.76
609.921	41.72
610.339	41.7
610.758	41.68
611.176	41.63
611.594	41.61
612.012	41.56
612.43	41.58
612.847	41.54
613.265	41.52
613.683	41.47
614.101	41.43
614.518	41.37
614.936	41.35
615.353	41.32
615.771	41.3
616.188	41.25
616.606	41.21
617.023	41.15
617.44	41.11
617.857	41.06
618.274	41.04
618.691	41.05
619.108	41.03
619.525	40.99
619.942	40.97
620.359	40.96
620.776	40.95
621.192	40.96
621.609	40.94
622.026	40.93
622.442	40.92
622.859	40.89
623.275	40.91
623.691	40.93
624.108	40.92
624.524	40.93
624.94	40.94
625.356	40.94
625.772	40.95
626.188	41
626.604	40.98
627.02	41.01
627.436	41.03
627.852	41.02
628.268	41
628.683	41.01
629.099	41
629.514	40.95
629.93	40.93
630.345	40.89
630.761	40.82
631.176	40.81
631.591	40.75
632.007	40.67
632.422	40.58
632.837	40.48
633.252	40.36
633.667	40.22
634.082	40.11
634.497	39.94
634.911	39.77
635.326	39.56
635.741	39.33
636.155	39.11
636.57	38.87
636.984	38.61
637.399	38.33
637.813	38.05
638.228	37.76
638.642	37.46
639.056	37.12
639.47	36.82
639.884	36.52
640.298	36.2
640.712	35.85
641.126	35.51
641.54	35.17
641.954	34.85
642.368	34.52
642.781	34.16
643.195	33.8
643.609	33.51
644.022	33.2
644.436	32.9
644.849	32.59
645.262	32.31
645.676	32.03
646.089	31.78
646.502	31.55
646.915	31.34
647.328	31.15
647.741	30.98
648.154	30.83
648.567	30.67
648.98	30.55
649.393	30.45
649.805	30.35
650.218	30.28
650.631	30.21
651.043	30.15
651.456	30.09
651.868	30.05
652.28	30.03
652.693	29.98
653.105	29.95
653.517	29.93
653.929	29.9
654.341	29.87
654.753	29.83
655.165	29.79
655.577	29.72
655.989	29.67
656.401	29.58
656.813	29.5
657.224	29.42
657.636	29.32
658.047	29.2
658.459	29.04
658.87	28.9
659.282	28.77
659.693	28.63
660.104	28.5
660.515	28.33
660.926	28.21
661.338	28.06
661.749	27.88
662.159	27.71
662.57	27.52
662.981	27.38
663.392	27.23
663.803	27.05
664.213	26.88
664.624	26.72
665.035	26.56
665.445	26.4
665.855	26.24
666.266	26.12
666.676	25.99
667.086	25.9
667.497	25.8
667.907	25.7
668.317	25.61
668.727	25.54
669.137	25.48
669.547	25.42
669.956	25.36
670.366	25.34
670.776	25.32
671.186	25.32
671.595	25.32
672.005	25.33
672.414	25.35
672.824	25.4
673.233	25.43
673.642	25.47
674.052	25.55
674.461	25.61
674.87	25.66
675.279	25.73
675.688	25.81
676.097	25.93
676.506	26.06
676.915	26.22
677.323	26.4
677.732	26.61
678.141	26.85
678.549	27.12
678.958	27.44
679.366	27.79
679.775	28.18
680.183	28.6
680.592	29.07
681	29.57
681.408	30.12
681.816	30.7
682.224	31.35
682.632	32.03
683.04	32.71
683.448	33.48
683.856	34.28
684.264	35.07
684.671	35.95
685.079	36.81
685.487	37.68
685.894	38.6
686.302	39.48
686.709	40.35
687.116	41.22
687.524	42.1
687.931	42.93
688.338	43.76
688.745	44.59
689.152	45.36
689.559	46.1
689.966	46.8
690.373	47.5
690.78	48.15
691.187	48.77
691.593	49.36
692	49.95
692.407	50.49
692.813	51.02
693.22	51.51
693.626	51.96
694.032	52.44
694.439	52.92
694.845	53.3
695.251	53.7
695.657	54.06
696.063	54.42
696.469	54.75
696.875	55.01
697.281	55.27
697.687	55.54
698.093	55.8
698.498	56.05
698.904	56.25
699.31	56.45
699.715	56.66
700.12	56.84
700.526	56.99
700.931	57.15
701.337	57.35
701.742	57.51
702.147	57.65
702.552	57.79
702.957	57.89
703.362	58.01
703.767	58.15
704.172	58.25
704.577	58.38
704.981	58.51
705.386	58.58
705.791	58.67
706.195	58.77
706.6	58.85
707.004	58.93
707.408	59
707.813	59.08
708.217	59.12
708.621	59.18
709.025	59.25
709.43	59.3
709.834	59.38
710.237	59.43
710.641	59.5
711.045	59.58
711.449	59.62
711.853	59.69
712.256	59.78
712.66	59.82
713.064	59.88
713.467	59.88
713.87	59.96
714.274	60.03
714.677	60.08
715.08	60.09
715.484	60.13
715.887	60.16
716.29	60.19
716.693	60.21
717.096	60.27
717.499	60.28
717.901	60.3
718.304	60.3
718.707	60.32
719.109	60.35
719.512	60.4
719.915	60.41
720.317	60.47
720.719	60.5
721.122	60.52
721.524	60.56
721.926	60.61
722.328	60.68
722.731	60.73
723.133	60.72
723.535	60.76
723.937	60.8
724.338	60.8
724.74	60.82
725.142	60.78
725.544	60.79
725.945	60.79
726.347	60.83
726.748	60.81
727.15	60.84
727.551	60.89
727.952	60.88
728.354	60.88
728.755	60.93
729.156	60.94
729.557	61.07
729.958	61.09
730.359	61.12
730.76	61.08
731.161	61.1
731.562	61.12
731.962	61.13
732.363	61.13
732.763	61.16
733.164	61.13
733.564	61.1
733.965	61.06
734.365	61.07
734.766	61.08
735.166	61.05
735.566	61.04
735.966	61.02
736.366	61
736.766	61.01
737.166	60.96
737.566	60.97
737.966	61.01
738.365	61.03
738.765	61.04
739.165	60.97
739.564	61.06
739.964	61.06
740.363	61.08
740.763	61.05
741.162	61.04
741.561	61.05
741.96	61.07
742.36	61.04
742.759	60.98
743.158	60.94
743.557	61
743.955	61
744.354	61.06
744.753	61.06
745.152	61.12
745.55	61.15
745.949	61.18
746.348	61.2
746.746	61.23
747.144	61.33
747.543	61.38
747.941	61.42
748.339	61.45
748.737	61.46
749.136	61.49
749.534	61.52
749.932	61.53
750.33	61.52
750.727	61.54
751.125	61.54
751.523	61.5
751.921	61.5
752.318	61.44
752.716	61.38
753.113	61.36
753.511	61.32
753.908	61.28
754.305	61.25
754.703	61.23
755.1	61.18
755.497	61.18
755.894	61.16
756.291	61.14
756.688	61.17
757.085	61.17
757.482	61.14
757.878	61.17
758.275	61.15
758.672	61.17
759.068	61.2
759.465	61.19
759.861	61.18
760.258	61.17
760.654	61.15
761.05	61.13
761.447	61.1
761.843	61.09
762.239	61.07
762.635	61.06
763.031	61.03
763.427	61
763.822	61
764.218	60.97
764.614	60.97
765.01	60.95
765.405	60.92
765.801	60.91
766.196	60.91
766.592	60.92
766.987	60.94
767.382	60.96
767.778	60.96
768.173	60.96
768.568	60.94
768.963	60.96
769.358	60.97
769.753	61.02
770.148	61.04
770.542	61.03
770.937	61.03
771.332	61
771.726	60.98
772.121	60.99
772.515	61.02
772.91	61.04
773.304	61.03
773.699	61.05
774.093	61
774.487	61.03
774.881	61.04
775.275	61.04
775.669	61.1
776.063	61.07
776.457	61.07
776.851	61.05
777.245	61.1
777.638	61.12
778.032	61.11
778.425	61.14
778.819	61.15
779.212	61.17
779.606	61.15
779.999	61.13
780.392	61.14
780.786	61.16
781.179	61.19
781.572	61.18
781.965	61.16
782.358	61.14
782.751	61.15
783.143	61.17
783.536	61.21
783.929	61.23
784.322	61.25
784.714	61.28
785.107	61.31
785.499	61.32
785.891	61.33
786.284	61.33
786.676	61.39
787.068	61.39
787.46	61.37
787.852	61.35
788.245	61.38
788.636	61.39
789.028	61.37
789.42	61.37
789.812	61.38
790.204	61.35
790.595	61.38
790.987	61.38
791.378	61.4
791.77	61.45
792.161	61.46
792.553	61.46
792.944	61.49
793.335	61.55
793.726	61.52
794.117	61.49
794.508	61.54
794.899	61.55
795.29	61.56
795.681	61.59
796.072	61.56
796.463	61.55
796.853	61.55
797.244	61.55
797.634	61.54
798.025	61.6
798.415	61.65
798.806	61.67
799.196	61.68
799.586	61.68
799.976	61.68
800.366	61.7
800.756	61.77
801.146	61.79
801.536	61.77
801.926	61.79
802.316	61.8
802.706	61.87
803.095	61.86
803.485	61.91
803.874	61.94
804.264	61.98
804.653	62
805.043	61.99
805.432	61.96
805.821	62.01
806.21	62.04
806.599	62.11
806.988	62.11
807.377	62.19
807.766	62.21
808.155	62.24
808.544	62.23
808.933	62.26
809.321	62.35
809.71	62.44
810.098	62.45
810.487	62.46
810.875	62.42
811.264	62.43
811.652	62.4
812.04	62.42
812.428	62.44
812.816	62.49
813.204	62.51
813.592	62.46
813.98	62.52
814.368	62.5
814.756	62.55
815.144	62.59
815.531	62.64
815.919	62.66
816.306	62.65
816.694	62.64
817.081	62.63
817.469	62.64
817.856	62.7
818.243	62.71
818.63	62.8
819.017	62.79
819.404	62.79
819.791	62.79
820.178	62.82
820.565	62.83
820.952	62.86
821.339	62.9
821.725	62.95
822.112	62.97
822.498	62.93
822.885	62.93
823.271	62.97
823.657	62.98
824.044	62.96
824.43	63
824.816	63.05
825.202	63.04
825.588	63.06
825.974	63.04
826.36	63.02
826.746	63.04
827.132	63.03
827.517	63
827.903	62.99
828.289	63.01
828.674	62.94
829.06	62.92
829.445	62.93
829.83	62.92
830.216	62.92
830.601	62.9
830.986	62.88
831.371	62.88
831.756	62.82
832.141	62.83
832.526	62.8
832.911	62.84
833.295	62.82
833.68	62.83
834.065	62.83
834.449	62.78
834.834	62.76
835.218	62.72
835.603	62.69
835.987	62.69
836.371	62.7
836.755	62.7
837.139	62.66
837.524	62.66
837.908	62.58
838.291	62.55
838.675	62.56
839.059	62.55
839.443	62.57
839.827	62.54
840.21	62.58
840.594	62.56
840.977	62.51
841.361	62.5
841.744	62.48
842.127	62.48
842.511	62.47
842.894	62.46
843.277	62.47
843.66	62.48
844.043	62.52
844.426	62.48
844.809	62.45
845.191	62.44
845.574	62.4
845.957	62.37
846.339	62.37
846.722	62.37
847.104	62.37
847.487	62.38
847.869	62.35
848.252	62.33
848.634	62.34
849.016	62.35
849.398	62.36
849.78	62.38
850.162	62.4
850.544	62.43
850.926	62.4
851.307	62.38
851.689	62.37
852.071	62.35
852.452	62.38
852.834	62.39
853.215	62.38
853.597	62.4
853.978	62.4
854.359	62.41
854.741	62.4
855.122	62.43
855.503	62.47
855.884	62.47
856.265	62.49
856.646	62.46
857.026	62.47
857.407	62.46
857.788	62.46
858.169	62.47
858.549	62.5
858.93	62.51
859.31	62.49
859.69	62.48
860.071	62.48
860.451	62.5
860.831	62.52
861.211	62.54
861.591	62.57
861.971	62.58
862.351	62.59
862.731	62.61
863.111	62.62
863.491	62.64
863.87	62.62
864.25	62.63
864.629	62.61
865.009	62.59
865.388	62.59
865.768	62.62
866.147	62.63
866.526	62.62
866.905	62.6
867.284	62.61
867.663	62.6
868.042	62.62
868.421	62.61
868.8	62.62
869.179	62.63
869.558	62.6
869.936	62.58
870.315	62.57
870.693	62.57
871.072	62.58
871.45	62.52
871.828	62.54
872.207	62.55
872.585	62.58
872.963	62.56
873.341	62.56
873.719	62.56
874.097	62.55
874.475	62.57
874.853	62.56
875.23	62.55
875.608	62.58
875.986	62.56
876.363	62.54
876.741	62.55
877.118	62.58
877.495	62.6
877.873	62.59
878.25	62.59
878.627	62.58
879.004	62.6
879.381	62.62
879.758	62.63
880.135	62.65
880.512	62.68
880.889	62.66
881.265	62.68
881.642	62.67
882.019	62.69
882.395	62.68
882.772	62.65
883.148	62.62
883.524	62.61
883.901	62.58
884.277	62.56
884.653	62.55
885.029	62.52
885.405	62.49
885.781	62.44
886.157	62.43
886.532	62.44
886.908	62.47
887.284	62.47
887.659	62.48
888.035	62.48
888.411	62.44
888.786	62.41
889.161	62.44
889.537	62.44
889.912	62.42
890.287	62.4
890.662	62.39
891.037	62.34
891.412	62.31
891.787	62.27
892.162	62.24
892.536	62.25
892.911	62.22
893.286	62.16
893.66	62.15
894.035	62.13
894.409	62.11
894.784	62.09
895.158	62.1
895.532	62.08
895.906	62.06
896.281	62.06
896.655	62.05
897.029	62.05
897.402	62.07
897.776	62.04
898.15	62.05
898.524	62.05
898.898	62.01
899.271	62
899.645	62.03
900.018	62.05
900.392	62.05
900.765	62.04
901.138	62.03
901.511	62.04
901.884	62.06
902.258	62.08
902.631	62.13
903.003	62.19
903.376	62.18
903.749	62.17
904.122	62.19
904.495	62.21
904.867	62.24
905.24	62.24
905.612	62.26
905.985	62.25
906.357	62.22
906.729	62.21
907.102	62.23
907.474	62.24
907.846	62.23
908.218	62.2
908.59	62.19
908.962	62.18
909.334	62.2
909.705	62.16
910.077	62.17
910.449	62.19
910.82	62.16
911.192	62.08
911.563	62.04
911.935	62.04
912.306	62.05
912.677	62.03
913.048	62
913.419	61.99
913.79	61.96
914.161	61.93
914.532	61.9
914.903	61.93
915.274	61.93
915.645	61.98
916.015	62
916.386	61.96
916.756	61.93
917.127	61.94
917.497	61.95
917.868	61.99
918.238	62.04
918.608	62.02
918.978	61.95
919.348	61.95
919.718	61.95
920.088	61.95
920.458	62
920.828	62.04
921.198	62.11
921.567	62.13
921.937	62.11
922.306	62.1
922.676	62.18
923.045	62.22
923.415	62.24
923.784	62.26
924.153	62.21
924.522	62.17
924.891	62.16
925.26	62.08
925.629	62.03
925.998	62.02
926.367	61.96
926.736	61.89
927.104	61.89
927.473	61.91
927.842	61.84
928.21	61.9
928.578	61.9
928.947	61.84
929.315	61.86
929.683	61.88
930.051	61.88
930.42	61.92
930.788	61.93
931.156	61.89
931.523	61.79
931.891	61.73
932.259	61.6
932.627	61.53
932.994	61.52
933.362	61.45
933.729	61.35
934.097	61.27
934.464	61.11
934.831	60.99
935.199	60.93
935.566	60.91
935.933	60.92
936.3	60.84
936.667	60.81
937.034	60.73
937.401	60.68
937.767	60.67
938.134	60.65
938.501	60.69
938.867	60.78
939.234	60.82
939.6	60.84
939.967	60.9
940.333	61.06
940.699	61.23
941.065	61.47
941.431	61.63
941.798	61.79
942.163	62
942.529	62.14
942.895	62.26
943.261	62.37
943.627	62.53
943.992	62.56
944.358	62.57
944.723	62.57
945.089	62.51
945.454	62.55
945.82	62.49
946.185	62.4
946.55	62.46
946.915	62.44
947.28	62.37
947.645	62.39
948.01	62.43
948.375	62.4
948.74	62.29
949.104	62.33
949.469	62.29
949.834	62.32
950.198	62.26
950.562	62.16
950.927	62.16
951.291	62.18
951.655	62.02
952.02	61.97
952.384	62.01
952.748	62.08
953.112	62.05
953.476	61.97
953.839	61.83
954.203	61.76
954.567	61.69
954.931	61.62
955.294	61.61
955.658	61.56
956.021	61.56
956.385	61.48
956.748	61.43
957.111	61.37
957.474	61.34
957.837	61.4
958.2	61.38
958.563	61.39
958.926	61.35
959.289	61.3
959.652	61.31
960.015	61.22
960.377	61.26
960.74	61.15
961.102	61.09
961.465	61.07
961.827	60.97
962.189	60.92
962.552	60.85
962.914	60.79
963.276	60.82
963.638	60.76
964	60.72
964.362	60.72
964.724	60.7
965.085	60.7
965.447	60.59
965.809	60.61
966.17	60.57
966.532	60.54
966.893	60.58
967.255	60.46
967.616	60.53
967.977	60.59
968.338	60.47
968.699	60.51
969.061	60.47
969.421	60.53
969.782	60.55
970.143	60.6
970.504	60.66
970.865	60.56
971.225	60.56
971.586	60.52
971.946	60.49
972.307	60.46
972.667	60.47
973.027	60.52
973.388	60.49
973.748	60.44
974.108	60.46
974.468	60.51
974.828	60.62
975.188	60.7
975.548	60.68
975.907	60.64
976.267	60.7
976.627	60.71
976.986	60.65
977.346	60.7
977.705	60.73
978.064	60.74
978.424	60.69
978.783	60.69
979.142	60.64
979.501	60.6
979.86	60.65
980.219	60.61
980.578	60.58
980.937	60.68
981.296	60.67
981.654	60.79
982.013	60.85
982.371	60.79
982.73	60.79
983.088	60.79
983.447	60.91
983.805	60.87
984.163	60.94
984.521	60.92
984.879	60.91
985.237	60.91
985.595	60.73
985.953	60.77
986.311	60.92
986.669	60.9
987.026	60.88
987.384	60.78
987.741	60.8
988.099	60.73
988.456	60.75
988.814	60.69
989.171	60.71
989.528	60.69
989.885	60.53
990.242	60.4
990.599	60.46
990.956	60.44
991.313	60.42
991.67	60.44
992.027	60.42
992.383	60.52
992.74	60.54
993.096	60.57
993.453	60.73
993.809	60.87
994.165	60.95
994.522	60.96
994.878	60.99
995.234	61
995.59	60.91
995.946	61.02
996.302	60.97
996.658	61.07
997.013	61.04
997.369	60.93
997.725	60.98
998.08	60.96
998.436	61.05
998.791	61.02
999.147	61.16
999.502	61.24
999.857	61.29
1000.212	61.24
1000.567	61.25
1000.922	61.25
1001.277	61.25
1001.632	61.13
1001.987	61.19
1002.342	61.13
1002.696	61.23
1003.051	61.16
1003.406	61.14
1003.76	60.99
1004.114	61.1
1004.469	61.03
1004.823	60.99
1005.177	61.13
1005.531	61.24
1005.885	61.24
1006.239	61.16
1006.593	61.14
1006.947	61.18
1007.301	61.3
1007.655	61.42
1008.008	61.37
1008.362	61.48
1008.715	61.7
1009.069	61.47
1009.422	61.33
1009.776	61.43
1010.129	61.38
1010.482	61.65
1010.835	61.77
1011.188	61.76
1011.541	61.62
1011.894	61.53
1012.247	61.45
1012.6	61.53
1012.952	61.95
1013.305	62.01
1013.657	62.02
1014.01	62.4
1014.362	62.38
1014.715	62.07
1015.067	62.23
1015.419	62.62
1015.771	62.98
1016.123	63.07
1016.475	63.11
1016.827	63.06
1017.179	63.06
1017.531	62.9
1017.883	62.79
1018.234	62.7
1018.586	63
1018.938	62.9
1019.289	62.67
1019.64	62.72
1019.992	62.76
1020.343	62.57
1020.694	62.47
1021.045	62.69
1021.396	62.84
1021.747	62.78
1022.098	62.75
1022.449	62.81
1022.8	62.61
1023.151	62.59
1023.501	62.55
1023.852	62.73
1024.202	62.97
1024.553	63.29
1024.903	63.33
1025.253	63.39
1025.604	63.38
1025.954	63.42
1026.304	63.95
1026.654	64.47
1027.004	64.64
1027.354	64.76
1027.703	64.71
1028.053	64.43
1028.403	64.15
1028.753	64.37
1029.102	64.18
1029.452	64.07
1029.801	63.88
1030.15	63.34
1030.499	63.07
897.758	522.06
901.051	531.53
904.343	539.79
907.636	527.37
910.928	520.13
914.22	529.57
917.511	515.78
920.803	498.08
924.094	478.97
927.384	484.86
930.675	473.22
933.965	465.68
937.255	466
940.544	443.79
943.834	429.06
947.123	421.24
950.411	397.23
953.7	392.73
956.988	381.26
960.276	366.02
963.563	359.35
966.851	341.02
970.138	336.78
973.424	313.54
976.711	310.5
979.997	299.01
983.283	291.84
986.568	284.83
989.853	277.9
993.138	268.6
996.423	263.79
999.708	257.99
1002.992	257.08
1006.275	248.3
1009.559	246.57
1012.842	239.23
1016.125	232.76
1019.408	230.46
1022.69	227.77
1025.972	224.57
1029.254	219.76
1032.536	216.25
1035.817	209.49
1039.098	206.8
1042.379	202.63
1045.659	200.6
1048.939	198.6
1052.219	196.28
1055.498	192.82
1058.778	189.68
1062.057	187.7
1065.335	186.46
1068.614	183.6
1071.892	181.05
1075.17	177.45
1078.447	176.07
1081.724	173.93
1085.001	170.47
1088.278	170.59
1091.554	169.21
1094.83	168.54
1098.106	165.73
1101.382	164.88
1104.657	163.98
1107.932	163.6
1111.206	162.83
1114.481	161.03
1117.755	160.66
1121.029	160.62
1124.302	157.67
1127.575	155.24
1130.848	154.5
1134.121	152.8
1137.393	152.31
1140.665	151.94
1143.937	150.7
1147.208	149.36
1150.48	148.04
1153.75	147
1157.021	145.67
1160.291	144.93
1163.561	144.86
1166.831	144.12
1170.101	143.78
1173.37	142.69
1176.639	141.07
1179.907	140.35
1183.176	140.09
1186.444	140.26
1189.711	138.78
1192.979	140.53
1196.246	140.31
1199.513	140.55
1202.78	140.62
1206.046	140.3
1209.312	141.43
1212.578	142.15
1215.843	144.36
1219.108	144.46
1222.373	147.25
1225.638	150.41
1228.902	152.58
1232.166	157.03
1235.43	158.51
1238.693	161.91
1241.956	165.5
1245.219	168.27
1248.482	170.43
1251.744	169.74
1255.006	170.9
1258.268	165.98
1261.529	164.6
1264.79	159.49
1268.051	158.04
1271.312	157.76
1274.572	154.01
1277.832	151.58
1281.092	149.19
1284.351	145.62
1287.61	145.63
1290.869	144.91
1294.128	144.48
1297.386	144.12
1300.644	144.08
1303.902	142.11
1307.159	141.38
1310.416	142.64
1313.673	143.49
1316.93	144.87
1320.186	147.67
1323.442	148.97
1326.697	151.17
1329.953	152.9
1333.208	156.62
1336.463	163.55
1339.717	166.5
1342.972	173.19
1346.226	177.48
1349.479	178.96
1352.733	187.03
1355.986	189.71
1359.238	193.08
1362.491	195.56
1365.743	203.36
1368.995	204.26
1372.247	204.79
1375.498	203.79
1378.749	209.19
1382	210.59
1385.251	209.27
1388.501	207.3
1391.751	210.42
1395	209.11
1398.25	210.93
1401.499	208.23
1404.748	207.77
1407.996	201.13
1411.244	201.77
1414.492	197.99
1417.74	190.6
1420.987	186.55
1424.234	184.38
1427.481	177.19
1430.728	172.82
1433.974	167.3
1437.22	160.28
1440.465	156.38
1443.711	151.83
1446.956	146.05
1450.201	140.26
1453.445	135.44
1456.689	131.34
1459.933	126.26
1463.177	121.8
1466.42	120.18
1469.663	115.87
1472.906	114.06
1476.148	110.25
1479.391	108.24
1482.633	107.09
1485.874	106.01
1489.115	104.99
1492.356	103.97
1495.597	102.69
1498.838	102.5
1502.078	101.54
1505.318	101.62
1508.557	100.5
1511.797	100.11
1515.036	99.8
1518.274	99.69
1521.513	98.17
1524.751	97.5
1527.989	98.08
1531.227	98.58
1534.464	98.1
1537.701	96.79
1540.938	96.29
1544.174	97.47
1547.41	96.98
1550.646	96.96
1553.882	96.66
1557.117	97.08
1560.352	96.88
1563.587	96.07
1566.821	95.75
1570.055	95.16
1573.289	95.52
1576.523	95.74
1579.756	94.87
1582.989	95.56
1586.222	95.2
1589.454	95.72
1592.686	95.34
1595.918	95.62
1599.15	95.55
1602.381	95.87
1605.612	96.35
1608.843	96.36
1612.073	96.2
1615.303	96.32
1618.533	95.89
1621.762	96.96
1624.992	96.14
1628.221	96.09
1631.449	96.14
1634.678	95.96
1637.906	95.82
1641.134	95.87
1644.361	95.85
1647.588	96.49
1650.815	96.58
1654.042	97.06
1657.269	96.09
1660.495	96.94
1663.72	97.39
1666.946	97.5
1670.171	98.27
1673.396	98.9
1676.621	98.75
1679.845	99.41
1683.069	98.59
1686.293	98.68
1689.517	98.54
1692.74	98.91
1695.963	98.89
1699.185	98.96
1702.408	98.59
1705.63	98.71
1708.852	98.91
1712.073	99.01
1715.294	98.54
1718.515	99.7
1721.736	99.75
1724.956	99.61
1728.176	99.56
1731.396	99.96
1734.616	100.53
1737.835	101.18
1741.054	100.57
1744.272	100.12
1747.491	100.33
1750.709	101.33
1753.927	100.99
1757.144	101.89
1760.361	102.4
1763.578	103.1
1766.795	103.19
1770.011	102.83
1773.227	102.93
1776.443	104.1
1779.658	103.88
1782.874	104.2
1786.089	103.71
1789.303	104.17
1792.518	104.17
1795.732	104.4
1798.945	105.34
1802.159	104.95
1805.372	106.14
1808.585	107.5
1811.797	107.48
1815.01	108.92
1818.222	109.7
1821.434	110.88
1824.645	111.49
1827.856	112.95
1831.067	113.91
1834.278	113.32
1837.488	115.39
1840.698	116.48
1843.908	115.92
1847.117	117.81
1850.326	118.63
1853.535	118.45
1856.744	119.2
1859.952	120.44
1863.16	119.61
1866.368	118.48
1869.575	120.2
1872.782	119.47
1875.989	116.55
1879.196	116.98
1882.402	114.99
1885.608	114.3
1888.814	114.39
1892.019	114.56
1895.224	111.87
1898.429	112.44
1901.634	112.76
1904.838	111.87
1908.042	112.04
1911.246	113.64
1914.449	113.08
1917.652	111.77
1920.855	112.87
1924.058	111.64
1927.26	110.37
1930.462	111.53
1933.664	111.11
1936.865	112.24
1940.066	111.31
1943.267	108.98
1946.467	109.6
1949.668	110
1952.868	111.99
1956.067	111.02
1959.267	112.41
1962.466	112.77
1965.665	114.62
1968.863	114.24
1972.061	115.01
1975.259	117.7
1978.457	120.47
1981.654	120.46
1984.852	121.11
1988.048	122.5
1991.245	123.63
1994.441	126.71
1997.637	129.08
2000.833	130.41
2004.028	132.57
2007.223	136.13
2010.418	137.43
2013.613	143.58
2016.807	147.71
2020.001	151.69
2023.194	155.47
2026.388	162.55
2029.581	169.08
2032.774	174.04
2035.966	179.71
2039.158	185.15
2042.35	186.71
2045.542	191.21
2048.733	198.33
2051.924	199.96
2055.115	201.52
2058.306	203.57
2061.496	206.7
2064.686	206.13
2067.875	206.66
2071.065	209.52
2074.254	209.27
2077.442	216.91
2080.631	218.42
2083.819	217.86
2087.007	224.44
2090.195	228.18
2093.382	228.09
2096.569	227.39
2099.756	232.05
2102.942	236.74
2106.128	241.43
2109.314	243.09
2112.5	242.58
2115.685	242.36
2118.87	242.59
2122.055	241.72
2125.239	246.48
2128.424	253.74
2131.608	251.4
2134.791	253.12
2137.974	252.64
2141.157	252.21
2144.34	255.14
2147.523	261.73
2150.705	268.37
2153.887	265.67
2157.068	268.12
2160.25	271.25
2163.431	269.66
2166.611	275.2
2169.792	276.07
2172.972	284.32
2176.152	283.23
2179.331	288.3
2182.511	286.32
2185.69	289.35
2188.868	300.88
2192.047	310.25
2195.225	314.66
2198.403	318.24
2201.58	315.34
2204.758	329.12
2207.935	327.7
2211.111	336.83
2214.288	339.77
2217.464	343.87
2220.64	343.98
2223.815	344.55
2226.991	340.97
2230.166	342.2
2233.34	353.36
2236.515	362.91
2239.689	357.64
2242.863	362.25
2246.036	360.23
2249.209	365.89
2252.382	364.74
2255.555	379.62
2258.727	380.27
2261.9	390.84
2265.071	398.73
2268.243	395.06
2271.414	406.9
2274.585	413.75
2277.756	414.1
2280.926	430.9
2284.096	437.05
2287.266	439.56
2290.436	431.52
2293.605	443.93
2296.774	458.6
2299.942	452.14
2303.111	467.97
2306.279	475.63
2309.447	475.26
2312.614	477.35
2315.781	486.96
2318.948	492.11
2322.115	502.4
2325.281	527.58
2328.447	522.16
2331.613	525.91
2334.779	536.56
2337.944	544.12
2341.109	556.42
2344.274	563.83
2347.438	580.6
2350.602	586.05
2353.766	618.29
2356.929	618.96
2360.092	628.66
2363.255	631.71
2366.418	637.06
2369.58	653.87
2372.742	658.51
2375.904	653.21
2379.066	672.11
2382.227	715.87
2385.388	714.07
2388.548	673.96
2391.709	669.92
2394.869	685.03
2398.029	695.9
2401.188	697.17
2404.347	712.55
2407.506	727.56
2410.665	703.58
2413.823	709.82
2416.981	702.33
2420.139	668.28
2423.296	726.93
2426.453	776.54
2429.61	742.02
2432.767	785.95
2435.923	804.51
2439.079	788.3
2442.235	803.27
2445.391	822
2448.546	809.28
2451.701	858.11
2454.855	922.45
2458.009	820.1
2461.163	824.38
2464.317	834.71
2467.471	815.56
2470.624	847.1
2473.777	822.41
2476.929	802.45
2480.082	848.57
2483.234	893.28
2486.385	909.32
2489.537	932.12
2492.688	1022.21
2495.839	1008.15
2498.989	1040.02
2502.14	1040.52
2505.29	996.63
2508.439	1102.76
2511.589	1123.69
2514.738	1103.7
2517.887	1087.06
2521.035	1016.48
2524.183	996.56
2527.331	989.56
2530.479	967.54
2533.627	986.88
