Data from c_3_dec_va_2n_Splice17_04.txt Node
Date: Sat Feb 29 15:01:15 EST 2020
User: sa697716
Spectrometer: FLMS03696
Trigger mode: 0
Integration Time (sec): 3.180400E-1
Scans to average: 20
Electric dark correction enabled: true
Nonlinearity correction enabled: true
Boxcar width: 5
XAxis mode: Wavelengths
Number of Pixels in Spectrum: 2048
>>>>>Begin Spectral Data<<<<<
187.83	60.83
188.298	52.51
188.766	51.88
189.233	40.04
189.701	46.69
190.169	56.48
190.636	52.34
191.104	14.12
191.571	-226.48
192.039	-45.16
192.506	270.9
192.974	7218.28
193.441	-515.16
193.908	93.65
194.375	15.29
194.842	68.75
195.31	89.49
195.777	79.65
196.244	33.52
196.711	42.8
197.177	40.25
197.644	41.28
198.111	41.5
198.578	41.94
199.045	42.98
199.511	43.56
199.978	43.61
200.445	43.08
200.911	43.47
201.378	43.48
201.844	43.47
202.31	44.07
202.777	44.29
203.243	44.53
203.709	44.65
204.176	43.86
204.642	43.61
205.108	43.11
205.574	43.4
206.04	42.98
206.506	42.69
206.972	42.24
207.438	41.88
207.903	41.52
208.369	40.78
208.835	40.2
209.301	40.08
209.766	39.43
210.232	39.29
210.697	38.77
211.163	38.27
211.628	38.05
212.094	37.44
212.559	36.84
213.024	36.04
213.49	35.52
213.955	35.2
214.42	34.5
214.885	33.76
215.35	32.64
215.815	31.35
216.28	29.92
216.745	28.32
217.21	26.83
217.675	25.5
218.14	24.16
218.604	22.86
219.069	21.7
219.534	20.7
219.998	19.97
220.463	19.32
220.927	18.76
221.392	18.27
221.856	17.82
222.32	17.4
222.785	16.94
223.249	16.62
223.713	16.33
224.177	16
224.642	15.75
225.106	15.43
225.57	15.2
226.034	14.98
226.497	14.73
226.961	14.51
227.425	14.26
227.889	14.06
228.353	13.83
228.816	13.64
229.28	13.44
229.744	13.26
230.207	13.1
230.671	12.93
231.134	12.73
231.597	12.55
232.061	12.38
232.524	12.24
232.987	12.1
233.45	11.96
233.914	11.82
234.377	11.69
234.84	11.55
235.303	11.43
235.766	11.29
236.229	11.17
236.691	11.07
237.154	10.97
237.617	10.87
238.08	10.76
238.542	10.66
239.005	10.55
239.468	10.44
239.93	10.35
240.393	10.25
240.855	10.16
241.317	10.08
241.78	10.01
242.242	9.91
242.704	9.82
243.166	9.74
243.629	9.67
244.091	9.6
244.553	9.54
245.015	9.47
245.477	9.38
245.939	9.3
246.4	9.22
246.862	9.14
247.324	9.06
247.786	8.99
248.247	8.92
248.709	8.86
249.17	8.79
249.632	8.72
250.093	8.64
250.555	8.57
251.016	8.53
251.477	8.47
251.939	8.42
252.4	8.37
252.861	8.31
253.322	8.25
253.783	8.21
254.244	8.16
254.705	8.12
255.166	8.1
255.627	8.07
256.088	8.01
256.549	7.97
257.009	7.93
257.47	7.89
257.931	7.86
258.391	7.81
258.852	7.76
259.312	7.72
259.773	7.68
260.233	7.63
260.694	7.59
261.154	7.55
261.614	7.5
262.074	7.46
262.534	7.41
262.994	7.37
263.455	7.35
263.915	7.32
264.374	7.28
264.834	7.25
265.294	7.22
265.754	7.19
266.214	7.17
266.673	7.15
267.133	7.12
267.593	7.1
268.052	7.07
268.512	7.05
268.971	7.03
269.431	7.01
269.89	6.98
270.349	6.96
270.809	6.95
271.268	6.94
271.727	6.92
272.186	6.91
272.645	6.89
273.104	6.88
273.563	6.86
274.022	6.84
274.481	6.82
274.94	6.8
275.399	6.79
275.857	6.77
276.316	6.74
276.775	6.71
277.233	6.68
277.692	6.66
278.15	6.63
278.609	6.61
279.067	6.6
279.525	6.57
279.984	6.55
280.442	6.53
280.9	6.51
281.358	6.5
281.816	6.48
282.274	6.48
282.732	6.47
283.19	6.46
283.648	6.45
284.106	6.43
284.564	6.43
285.021	6.43
285.479	6.42
285.937	6.41
286.394	6.41
286.852	6.41
287.309	6.41
287.767	6.4
288.224	6.39
288.682	6.38
289.139	6.37
289.596	6.35
290.053	6.33
290.511	6.3
290.968	6.28
291.425	6.26
291.882	6.23
292.339	6.2
292.796	6.17
293.252	6.15
293.709	6.13
294.166	6.1
294.623	6.09
295.079	6.07
295.536	6.05
295.992	6.03
296.449	6.02
296.905	6.01
297.362	6
297.818	5.99
298.274	5.98
298.731	5.97
299.187	5.96
299.643	5.95
300.099	5.94
300.555	5.94
301.011	5.93
301.467	5.92
301.923	5.91
302.379	5.9
302.835	5.9
303.291	5.88
303.746	5.87
304.202	5.85
304.658	5.84
305.113	5.82
305.569	5.82
306.024	5.8
306.479	5.79
306.935	5.79
307.39	5.79
307.845	5.78
308.301	5.78
308.756	5.79
309.211	5.79
309.666	5.8
310.121	5.8
310.576	5.79
311.031	5.79
311.486	5.8
311.94	5.8
312.395	5.8
312.85	5.8
313.305	5.8
313.759	5.8
314.214	5.8
314.668	5.8
315.123	5.79
315.577	5.79
316.032	5.8
316.486	5.79
316.94	5.78
317.394	5.77
317.849	5.75
318.303	5.74
318.757	5.72
319.211	5.71
319.665	5.7
320.119	5.69
320.572	5.68
321.026	5.66
321.48	5.64
321.934	5.64
322.387	5.63
322.841	5.62
323.295	5.61
323.748	5.62
324.202	5.61
324.655	5.6
325.108	5.59
325.562	5.57
326.015	5.56
326.468	5.56
326.921	5.54
327.374	5.53
327.827	5.53
328.28	5.52
328.733	5.5
329.186	5.5
329.639	5.49
330.092	5.48
330.545	5.49
330.997	5.48
331.45	5.48
331.903	5.49
332.355	5.49
332.808	5.48
333.26	5.49
333.713	5.49
334.165	5.48
334.617	5.5
335.069	5.5
335.522	5.5
335.974	5.5
336.426	5.5
336.878	5.48
337.33	5.49
337.782	5.5
338.234	5.49
338.686	5.48
339.137	5.48
339.589	5.46
340.041	5.46
340.493	5.44
340.944	5.44
341.396	5.45
341.847	5.45
342.299	5.42
342.75	5.41
343.201	5.39
343.653	5.39
344.104	5.37
344.555	5.35
345.006	5.34
345.457	5.33
345.908	5.31
346.359	5.3
346.81	5.29
347.261	5.28
347.712	5.27
348.163	5.27
348.613	5.25
349.064	5.24
349.515	5.24
349.965	5.22
350.416	5.21
350.866	5.21
351.317	5.19
351.767	5.19
352.217	5.19
352.668	5.17
353.118	5.17
353.568	5.18
354.018	5.19
354.468	5.19
354.918	5.21
355.368	5.21
355.818	5.2
356.268	5.21
356.718	5.21
357.168	5.21
357.617	5.21
358.067	5.21
358.517	5.21
358.966	5.22
359.416	5.23
359.865	5.21
360.315	5.21
360.764	5.22
361.213	5.22
361.663	5.22
362.112	5.24
362.561	5.24
363.01	5.25
363.459	5.24
363.908	5.23
364.357	5.24
364.806	5.24
365.255	5.26
365.703	5.26
366.152	5.27
366.601	5.28
367.05	5.29
367.498	5.3
367.947	5.33
368.395	5.36
368.844	5.39
369.292	5.41
369.74	5.45
370.189	5.49
370.637	5.53
371.085	5.58
371.533	5.61
371.981	5.67
372.429	5.73
372.877	5.78
373.325	5.84
373.773	5.92
374.221	6
374.669	6.09
375.116	6.18
375.564	6.29
376.012	6.37
376.459	6.49
376.907	6.6
377.354	6.71
377.801	6.83
378.249	6.97
378.696	7.1
379.143	7.24
379.591	7.37
380.038	7.52
380.485	7.66
380.932	7.82
381.379	7.97
381.826	8.12
382.273	8.29
382.72	8.45
383.166	8.62
383.613	8.78
384.06	8.96
384.506	9.13
384.953	9.29
385.4	9.46
385.846	9.62
386.292	9.79
386.739	9.97
387.185	10.14
387.631	10.31
388.078	10.48
388.524	10.63
388.97	10.76
389.416	10.9
389.862	11.04
390.308	11.18
390.754	11.33
391.2	11.47
391.645	11.59
392.091	11.72
392.537	11.84
392.983	11.98
393.428	12.12
393.874	12.26
394.319	12.37
394.765	12.46
395.21	12.55
395.655	12.64
396.101	12.72
396.546	12.79
396.991	12.86
397.436	12.92
397.881	12.98
398.326	13.04
398.771	13.12
399.216	13.21
399.661	13.29
400.106	13.35
400.551	13.41
400.995	13.44
401.44	13.46
401.885	13.47
402.329	13.49
402.774	13.5
403.218	13.5
403.663	13.51
404.107	13.52
404.551	13.54
404.995	13.55
405.44	13.54
405.884	13.54
406.328	13.56
406.772	13.57
407.216	13.59
407.66	13.61
408.104	13.62
408.547	13.61
408.991	13.59
409.435	13.58
409.879	13.56
410.322	13.56
410.766	13.55
411.209	13.56
411.653	13.55
412.096	13.52
412.54	13.49
412.983	13.47
413.426	13.46
413.869	13.46
414.312	13.47
414.756	13.49
415.199	13.49
415.642	13.49
416.085	13.5
416.527	13.52
416.97	13.53
417.413	13.52
417.856	13.49
418.298	13.45
418.741	13.42
419.184	13.39
419.626	13.33
420.069	13.29
420.511	13.25
420.953	13.21
421.396	13.15
421.838	13.13
422.28	13.12
422.722	13.13
423.164	13.12
423.606	13.13
424.048	13.1
424.49	13.09
424.932	13.09
425.374	13.08
425.816	13.03
426.258	13
426.699	12.94
427.141	12.89
427.582	12.83
428.024	12.82
428.465	12.79
428.907	12.81
429.348	12.82
429.789	12.79
430.231	12.78
430.672	12.79
431.113	12.83
431.554	12.88
431.995	12.93
432.436	12.98
432.877	12.98
433.318	12.98
433.759	12.97
434.2	12.96
434.64	13
435.081	13.03
435.522	13.08
435.962	13.12
436.403	13.18
436.843	13.23
437.284	13.27
437.724	13.35
438.164	13.41
438.604	13.48
439.045	13.53
439.485	13.58
439.925	13.6
440.365	13.61
440.805	13.61
441.245	13.63
441.685	13.68
442.125	13.72
442.564	13.75
443.004	13.8
443.444	13.82
443.883	13.89
444.323	13.94
444.762	14.03
445.202	14.12
445.641	14.19
446.081	14.24
446.52	14.3
446.959	14.38
447.398	14.48
447.837	14.57
448.276	14.65
448.716	14.71
449.154	14.77
449.593	14.85
450.032	14.91
450.471	14.98
450.91	15.03
451.349	15.12
451.787	15.16
452.226	15.16
452.664	15.17
453.103	15.2
453.541	15.23
453.98	15.25
454.418	15.25
454.856	15.27
455.295	15.3
455.733	15.32
456.171	15.32
456.609	15.35
457.047	15.39
457.485	15.43
457.923	15.48
458.361	15.5
458.798	15.56
459.236	15.62
459.674	15.65
460.111	15.68
460.549	15.72
460.987	15.76
461.424	15.77
461.862	15.81
462.299	15.84
462.736	15.85
463.173	15.89
463.611	15.9
464.048	15.93
464.485	15.95
464.922	15.98
465.359	16.02
465.796	16.03
466.233	16.06
466.67	16.07
467.106	16.08
467.543	16.09
467.98	16.11
468.416	16.13
468.853	16.14
469.29	16.16
469.726	16.17
470.162	16.17
470.599	16.18
471.035	16.19
471.471	16.17
471.907	16.2
472.344	16.22
472.78	16.21
473.216	16.23
473.652	16.22
474.088	16.23
474.523	16.22
474.959	16.22
475.395	16.21
475.831	16.22
476.266	16.24
476.702	16.21
477.138	16.19
477.573	16.19
478.008	16.18
478.444	16.18
478.879	16.18
479.314	16.19
479.75	16.21
480.185	16.23
480.62	16.24
481.055	16.26
481.49	16.29
481.925	16.32
482.36	16.35
482.795	16.38
483.229	16.43
483.664	16.47
484.099	16.54
484.534	16.6
484.968	16.67
485.403	16.74
485.837	16.83
486.271	16.91
486.706	17.02
487.14	17.14
487.574	17.25
488.009	17.38
488.443	17.51
488.877	17.66
489.311	17.81
489.745	17.96
490.179	18.13
490.613	18.3
491.046	18.49
491.48	18.68
491.914	18.88
492.348	19.08
492.781	19.29
493.215	19.51
493.648	19.74
494.082	19.97
494.515	20.21
494.948	20.45
495.382	20.71
495.815	20.98
496.248	21.26
496.681	21.55
497.114	21.84
497.547	22.13
497.98	22.42
498.413	22.72
498.846	23.04
499.279	23.36
499.711	23.69
500.144	23.99
500.577	24.31
501.009	24.64
501.442	24.99
501.874	25.33
502.306	25.71
502.739	26.06
503.171	26.42
503.603	26.79
504.036	27.17
504.468	27.56
504.9	27.97
505.332	28.37
505.764	28.78
506.196	29.17
506.627	29.59
507.059	29.98
507.491	30.42
507.923	30.84
508.354	31.27
508.786	31.68
509.217	32.1
509.649	32.5
510.08	32.95
510.512	33.33
510.943	33.73
511.374	34.14
511.805	34.53
512.237	34.92
512.668	35.3
513.099	35.69
513.53	36.08
513.961	36.46
514.391	36.82
514.822	37.14
515.253	37.51
515.684	37.84
516.114	38.19
516.545	38.51
516.975	38.85
517.406	39.18
517.836	39.5
518.267	39.81
518.697	40.12
519.127	40.46
519.558	40.75
519.988	41.02
520.418	41.29
520.848	41.55
521.278	41.83
521.708	42.1
522.138	42.31
522.567	42.54
522.997	42.76
523.427	42.97
523.857	43.15
524.286	43.36
524.716	43.56
525.145	43.79
525.575	43.99
526.004	44.15
526.433	44.29
526.863	44.5
527.292	44.68
527.721	44.83
528.15	44.96
528.579	45.13
529.008	45.29
529.437	45.44
529.866	45.56
530.295	45.67
530.724	45.86
531.152	45.99
531.581	46.1
532.01	46.18
532.438	46.32
532.867	46.45
533.295	46.57
533.723	46.69
534.152	46.77
534.58	46.87
535.008	46.95
535.436	47
535.865	47.05
536.293	47.15
536.721	47.23
537.149	47.29
537.576	47.33
538.004	47.35
538.432	47.4
538.86	47.45
539.287	47.5
539.715	47.55
540.143	47.58
540.57	47.62
540.998	47.65
541.425	47.7
541.852	47.74
542.28	47.76
542.707	47.81
543.134	47.85
543.561	47.89
543.988	47.92
544.415	47.98
544.842	48.04
545.269	48.11
545.696	48.15
546.123	48.19
546.549	48.24
546.976	48.32
547.403	48.35
547.829	48.4
548.256	48.44
548.682	48.47
549.108	48.5
549.535	48.53
549.961	48.55
550.387	48.57
550.813	48.58
551.24	48.62
551.666	48.67
552.092	48.74
552.518	48.78
552.943	48.85
553.369	48.89
553.795	48.94
554.221	48.98
554.646	49.03
555.072	49.06
555.498	49.12
555.923	49.16
556.349	49.15
556.774	49.17
557.199	49.16
557.625	49.18
558.05	49.17
558.475	49.17
558.9	49.18
559.325	49.17
559.75	49.16
560.175	49.14
560.6	49.08
561.025	49.07
561.449	49.01
561.874	48.97
562.299	48.94
562.723	48.91
563.148	48.85
563.572	48.83
563.997	48.75
564.421	48.68
564.846	48.64
565.27	48.6
565.694	48.53
566.118	48.47
566.542	48.42
566.966	48.32
567.39	48.2
567.814	48.12
568.238	47.98
568.662	47.91
569.086	47.83
569.509	47.71
569.933	47.61
570.357	47.49
570.78	47.4
571.204	47.27
571.627	47.18
572.05	47.12
572.474	47.04
572.897	46.98
573.32	46.86
573.743	46.78
574.166	46.69
574.589	46.59
575.012	46.55
575.435	46.47
575.858	46.44
576.281	46.41
576.704	46.35
577.126	46.28
577.549	46.23
577.972	46.23
578.394	46.17
578.817	46.15
579.239	46.14
579.661	46.08
580.084	46.06
580.506	46.02
580.928	45.98
581.35	45.95
581.772	45.94
582.194	45.9
582.616	45.86
583.038	45.88
583.46	45.88
583.882	45.85
584.303	45.85
584.725	45.83
585.147	45.77
585.568	45.75
585.99	45.73
586.411	45.71
586.833	45.67
587.254	45.65
587.675	45.58
588.096	45.56
588.518	45.53
588.939	45.47
589.36	45.42
589.781	45.44
590.202	45.39
590.623	45.33
591.043	45.29
591.464	45.27
591.885	45.23
592.305	45.2
592.726	45.14
593.147	45.13
593.567	45.08
593.987	45.07
594.408	45.02
594.828	44.98
595.248	44.97
595.669	44.94
596.089	44.91
596.509	44.85
596.929	44.83
597.349	44.78
597.769	44.72
598.189	44.7
598.608	44.64
599.028	44.58
599.448	44.55
599.867	44.51
600.287	44.46
600.706	44.4
601.126	44.34
601.545	44.29
601.965	44.24
602.384	44.19
602.803	44.14
603.222	44.08
603.641	44.05
604.061	44.01
604.48	43.94
604.898	43.88
605.317	43.84
605.736	43.83
606.155	43.77
606.574	43.74
606.992	43.7
607.411	43.66
607.829	43.61
608.248	43.56
608.666	43.53
609.085	43.5
609.503	43.45
609.921	43.42
610.339	43.37
610.758	43.34
611.176	43.29
611.594	43.23
612.012	43.19
612.43	43.16
612.847	43.12
613.265	43.09
613.683	43.04
614.101	43
614.518	42.95
614.936	42.91
615.353	42.86
615.771	42.83
616.188	42.81
616.606	42.76
617.023	42.73
617.44	42.7
617.857	42.66
618.274	42.63
618.691	42.59
619.108	42.57
619.525	42.56
619.942	42.56
620.359	42.55
620.776	42.52
621.192	42.5
621.609	42.48
622.026	42.46
622.442	42.47
622.859	42.46
623.275	42.5
623.691	42.49
624.108	42.5
624.524	42.49
624.94	42.51
625.356	42.54
625.772	42.58
626.188	42.59
626.604	42.59
627.02	42.59
627.436	42.58
627.852	42.54
628.268	42.52
628.683	42.48
629.099	42.5
629.514	42.43
629.93	42.39
630.345	42.32
630.761	42.26
631.176	42.23
631.591	42.18
632.007	42.09
632.422	42.03
632.837	41.95
633.252	41.83
633.667	41.67
634.082	41.55
634.497	41.39
634.911	41.24
635.326	41.06
635.741	40.85
636.155	40.63
636.57	40.43
636.984	40.15
637.399	39.87
637.813	39.61
638.228	39.34
638.642	39.08
639.056	38.78
639.47	38.45
639.884	38.14
640.298	37.8
640.712	37.46
641.126	37.11
641.54	36.79
641.954	36.47
642.368	36.13
642.781	35.79
643.195	35.41
643.609	35.09
644.022	34.78
644.436	34.46
644.849	34.16
645.262	33.88
645.676	33.6
646.089	33.36
646.502	33.12
646.915	32.91
647.328	32.73
647.741	32.54
648.154	32.38
648.567	32.25
648.98	32.13
649.393	32.02
649.805	31.91
650.218	31.83
650.631	31.75
651.043	31.69
651.456	31.65
651.868	31.6
652.28	31.57
652.693	31.49
653.105	31.46
653.517	31.42
653.929	31.39
654.341	31.34
654.753	31.27
655.165	31.22
655.577	31.13
655.989	31.06
656.401	30.95
656.813	30.83
657.224	30.75
657.636	30.63
658.047	30.51
658.459	30.34
658.87	30.2
659.282	30.06
659.693	29.88
660.104	29.71
660.515	29.52
660.926	29.36
661.338	29.19
661.749	28.98
662.159	28.8
662.57	28.57
662.981	28.4
663.392	28.2
663.803	28.01
664.213	27.83
664.624	27.67
665.035	27.48
665.445	27.32
665.855	27.16
666.266	27.01
666.676	26.86
667.086	26.74
667.497	26.63
667.907	26.53
668.317	26.43
668.727	26.33
669.137	26.24
669.547	26.19
669.956	26.12
670.366	26.09
670.776	26.06
671.186	26.04
671.595	26.03
672.005	26.02
672.414	26.03
672.824	26.05
673.233	26.08
673.642	26.11
674.052	26.17
674.461	26.23
674.87	26.31
675.279	26.39
675.688	26.48
676.097	26.6
676.506	26.73
676.915	26.87
677.323	27.08
677.732	27.29
678.141	27.54
678.549	27.81
678.958	28.15
679.366	28.49
679.775	28.91
680.183	29.35
680.592	29.85
681	30.39
681.408	30.97
681.816	31.57
682.224	32.21
682.632	32.91
683.04	33.63
683.448	34.36
683.856	35.16
684.264	35.98
684.671	36.82
685.079	37.65
685.487	38.5
685.894	39.39
686.302	40.28
686.709	41.15
687.116	41.99
687.524	42.82
687.931	43.61
688.338	44.39
688.745	45.11
689.152	45.87
689.559	46.59
689.966	47.25
690.373	47.89
690.78	48.46
691.187	49.04
691.593	49.6
692	50.13
692.407	50.65
692.813	51.13
693.22	51.56
693.626	51.95
694.032	52.37
694.439	52.78
694.845	53.13
695.251	53.51
695.657	53.81
696.063	54.12
696.469	54.42
696.875	54.65
697.281	54.89
697.687	55.2
698.093	55.43
698.498	55.62
698.904	55.81
699.31	56.01
699.715	56.18
700.12	56.34
700.526	56.53
700.931	56.68
701.337	56.85
701.742	56.96
702.147	57.06
702.552	57.18
702.957	57.31
703.362	57.47
703.767	57.56
704.172	57.68
704.577	57.82
704.981	57.9
705.386	57.98
705.791	58.07
706.195	58.19
706.6	58.28
707.004	58.37
707.408	58.45
707.813	58.5
708.217	58.56
708.621	58.63
709.025	58.66
709.43	58.68
709.834	58.74
710.237	58.8
710.641	58.89
711.045	58.9
711.449	58.93
711.853	58.94
712.256	59
712.66	59.07
713.064	59.09
713.467	59.15
713.87	59.23
714.274	59.29
714.677	59.31
715.08	59.32
715.484	59.41
715.887	59.45
716.29	59.51
716.693	59.51
717.096	59.55
717.499	59.57
717.901	59.58
718.304	59.6
718.707	59.63
719.109	59.67
719.512	59.72
719.915	59.73
720.317	59.79
720.719	59.79
721.122	59.84
721.524	59.9
721.926	59.97
722.328	59.99
722.731	60.03
723.133	60.05
723.535	60.07
723.937	60.06
724.338	60.04
724.74	60.05
725.142	60.03
725.544	60.04
725.945	60.01
726.347	59.98
726.748	59.98
727.15	59.98
727.551	59.99
727.952	59.99
728.354	60.01
728.755	60.07
729.156	60.04
729.557	60.1
729.958	60.11
730.359	60.14
730.76	60.13
731.161	60.16
731.562	60.16
731.962	60.18
732.363	60.18
732.763	60.21
733.164	60.17
733.564	60.19
733.965	60.19
734.365	60.16
734.766	60.15
735.166	60.14
735.566	60.11
735.966	60.08
736.366	60.05
736.766	60.04
737.166	60.03
737.566	60.03
737.966	60.06
738.365	60.03
738.765	60.06
739.165	60.01
739.564	60.02
739.964	60.03
740.363	60.06
740.763	60.06
741.162	60.05
741.561	60.06
741.96	60.09
742.36	60.09
742.759	60.09
743.158	60.07
743.557	60.1
743.955	60.13
744.354	60.16
744.753	60.16
745.152	60.16
745.55	60.19
745.949	60.19
746.348	60.18
746.746	60.19
747.144	60.25
747.543	60.3
747.941	60.35
748.339	60.4
748.737	60.42
749.136	60.45
749.534	60.47
749.932	60.47
750.33	60.48
750.727	60.52
751.125	60.53
751.523	60.49
751.921	60.47
752.318	60.44
752.716	60.37
753.113	60.33
753.511	60.29
753.908	60.28
754.305	60.22
754.703	60.18
755.1	60.11
755.497	60.08
755.894	60.07
756.291	60.03
756.688	60.04
757.085	60.04
757.482	60.03
757.878	60.05
758.275	60.03
758.672	60.08
759.068	60.07
759.465	60.08
759.861	60.08
760.258	60.03
760.654	60.03
761.05	60.02
761.447	60
761.843	59.98
762.239	59.96
762.635	59.97
763.031	59.94
763.427	59.93
763.822	59.89
764.218	59.87
764.614	59.86
765.01	59.83
765.405	59.79
765.801	59.77
766.196	59.75
766.592	59.73
766.987	59.72
767.382	59.71
767.778	59.72
768.173	59.74
768.568	59.71
768.963	59.75
769.358	59.76
769.753	59.77
770.148	59.79
770.542	59.79
770.937	59.76
771.332	59.75
771.726	59.74
772.121	59.7
772.515	59.7
772.91	59.75
773.304	59.74
773.699	59.76
774.093	59.74
774.487	59.76
774.881	59.79
775.275	59.85
775.669	59.83
776.063	59.83
776.457	59.86
776.851	59.82
777.245	59.83
777.638	59.81
778.032	59.83
778.425	59.85
778.819	59.84
779.212	59.82
779.606	59.8
779.999	59.8
780.392	59.85
780.786	59.84
781.179	59.86
781.572	59.81
781.965	59.82
782.358	59.78
782.751	59.77
783.143	59.77
783.536	59.82
783.929	59.84
784.322	59.82
784.714	59.79
785.107	59.81
785.499	59.85
785.891	59.86
786.284	59.84
786.676	59.91
787.068	59.92
787.46	59.95
787.852	59.9
788.245	59.89
788.636	59.92
789.028	59.89
789.42	59.87
789.812	59.88
790.204	59.86
790.595	59.92
790.987	59.88
791.378	59.92
791.77	59.95
792.161	59.98
792.553	59.99
792.944	60
793.335	60.07
793.726	60.09
794.117	60.11
794.508	60.16
794.899	60.14
795.29	60.16
795.681	60.12
796.072	60.1
796.463	60.09
796.853	60.1
797.244	60.13
797.634	60.1
798.025	60.11
798.415	60.11
798.806	60.14
799.196	60.18
799.586	60.17
799.976	60.22
800.366	60.24
800.756	60.26
801.146	60.28
801.536	60.29
801.926	60.32
802.316	60.38
802.706	60.39
803.095	60.4
803.485	60.4
803.874	60.46
804.264	60.52
804.653	60.5
805.043	60.53
805.432	60.55
805.821	60.55
806.21	60.57
806.599	60.62
806.988	60.64
807.377	60.68
807.766	60.71
808.155	60.75
808.544	60.73
808.933	60.79
809.321	60.83
809.71	60.88
810.098	60.94
810.487	60.98
810.875	60.96
811.264	60.99
811.652	61
812.04	61.01
812.428	61.04
812.816	61.1
813.204	61.12
813.592	61.13
813.98	61.11
814.368	61.11
814.756	61.13
815.144	61.15
815.531	61.16
815.919	61.18
816.306	61.17
816.694	61.16
817.081	61.14
817.469	61.2
817.856	61.24
818.243	61.28
818.63	61.3
819.017	61.3
819.404	61.29
819.791	61.3
820.178	61.33
820.565	61.36
820.952	61.34
821.339	61.39
821.725	61.39
822.112	61.38
822.498	61.39
822.885	61.42
823.271	61.45
823.657	61.46
824.044	61.45
824.43	61.46
824.816	61.49
825.202	61.51
825.588	61.49
825.974	61.43
826.36	61.41
826.746	61.41
827.132	61.38
827.517	61.35
827.903	61.38
828.289	61.39
828.674	61.35
829.06	61.36
829.445	61.37
829.83	61.39
830.216	61.43
830.601	61.43
830.986	61.41
831.371	61.44
831.756	61.43
832.141	61.41
832.526	61.39
832.911	61.39
833.295	61.33
833.68	61.32
834.065	61.31
834.449	61.27
834.834	61.25
835.218	61.21
835.603	61.15
835.987	61.14
836.371	61.12
836.755	61.09
837.139	61.08
837.524	61.07
837.908	61.01
838.291	60.96
838.675	60.97
839.059	60.97
839.443	60.99
839.827	60.98
840.21	60.98
840.594	60.98
840.977	60.98
841.361	60.98
841.744	60.98
842.127	60.97
842.511	60.97
842.894	60.95
843.277	60.96
843.66	60.93
844.043	60.93
844.426	60.94
844.809	60.93
845.191	60.92
845.574	60.9
845.957	60.88
846.339	60.87
846.722	60.86
847.104	60.85
847.487	60.86
847.869	60.88
848.252	60.85
848.634	60.84
849.016	60.86
849.398	60.84
849.78	60.85
850.162	60.86
850.544	60.9
850.926	60.89
851.307	60.91
851.689	60.87
852.071	60.84
852.452	60.85
852.834	60.85
853.215	60.83
853.597	60.84
853.978	60.84
854.359	60.81
854.741	60.82
855.122	60.82
855.503	60.85
855.884	60.85
856.265	60.82
856.646	60.84
857.026	60.83
857.407	60.79
857.788	60.79
858.169	60.82
858.549	60.86
858.93	60.82
859.31	60.8
859.69	60.77
860.071	60.77
860.451	60.81
860.831	60.81
861.211	60.81
861.591	60.85
861.971	60.81
862.351	60.82
862.731	60.82
863.111	60.84
863.491	60.87
863.87	60.87
864.25	60.87
864.629	60.87
865.009	60.85
865.388	60.87
865.768	60.88
866.147	60.93
866.526	60.92
866.905	60.9
867.284	60.9
867.663	60.9
868.042	60.91
868.421	60.89
868.8	60.9
869.179	60.91
869.558	60.89
869.936	60.87
870.315	60.85
870.693	60.84
871.072	60.84
871.45	60.82
871.828	60.83
872.207	60.85
872.585	60.88
872.963	60.86
873.341	60.86
873.719	60.83
874.097	60.84
874.475	60.86
874.853	60.87
875.23	60.88
875.608	60.89
875.986	60.89
876.363	60.84
876.741	60.81
877.118	60.82
877.495	60.85
877.873	60.87
878.25	60.85
878.627	60.83
879.004	60.83
879.381	60.8
879.758	60.76
880.135	60.77
880.512	60.81
880.889	60.83
881.265	60.86
881.642	60.84
882.019	60.86
882.395	60.89
882.772	60.9
883.148	60.88
883.524	60.91
883.901	60.92
884.277	60.89
884.653	60.87
885.029	60.86
885.405	60.83
885.781	60.78
886.157	60.76
886.532	60.72
886.908	60.74
887.284	60.77
887.659	60.76
888.035	60.75
888.411	60.75
888.786	60.71
889.161	60.71
889.537	60.73
889.912	60.71
890.287	60.68
890.662	60.66
891.037	60.6
891.412	60.53
891.787	60.5
892.162	60.47
892.536	60.45
892.911	60.45
893.286	60.37
893.66	60.32
894.035	60.32
894.409	60.33
894.784	60.31
895.158	60.31
895.532	60.3
895.906	60.28
896.281	60.26
896.655	60.24
897.029	60.24
897.402	60.29
897.776	60.27
898.15	60.25
898.524	60.21
898.898	60.19
899.271	60.21
899.645	60.21
900.018	60.18
900.392	60.21
900.765	60.22
901.138	60.2
901.511	60.18
901.884	60.22
902.258	60.21
902.631	60.24
903.003	60.26
903.376	60.28
903.749	60.28
904.122	60.31
904.495	60.3
904.867	60.3
905.24	60.31
905.612	60.3
905.985	60.28
906.357	60.26
906.729	60.25
907.102	60.25
907.474	60.23
907.846	60.23
908.218	60.22
908.59	60.21
908.962	60.22
909.334	60.21
909.705	60.28
910.077	60.25
910.449	60.28
910.82	60.25
911.192	60.23
911.563	60.18
911.935	60.17
912.306	60.17
912.677	60.2
913.048	60.16
913.419	60.17
913.79	60.11
914.161	60.1
914.532	60.12
914.903	60.12
915.274	60.14
915.645	60.18
916.015	60.18
916.386	60.16
916.756	60.14
917.127	60.12
917.497	60.09
917.868	60.13
918.238	60.18
918.608	60.16
918.978	60.17
919.348	60.13
919.718	60.12
920.088	60.13
920.458	60.17
920.828	60.18
921.198	60.22
921.567	60.24
921.937	60.21
922.306	60.16
922.676	60.2
923.045	60.15
923.415	60.16
923.784	60.16
924.153	60.14
924.522	60.1
924.891	60.06
925.26	60.03
925.629	59.99
925.998	60
926.367	60.01
926.736	59.96
927.104	59.97
927.473	60.01
927.842	59.98
928.21	59.99
928.578	59.98
928.947	59.96
929.315	59.95
929.683	59.95
930.051	59.9
930.42	59.83
930.788	59.79
931.156	59.78
931.523	59.7
931.891	59.66
932.259	59.56
932.627	59.46
932.994	59.44
933.362	59.39
933.729	59.3
934.097	59.26
934.464	59.21
934.831	59.14
935.199	59.03
935.566	58.95
935.933	58.92
936.3	58.85
936.667	58.81
937.034	58.73
937.401	58.63
937.767	58.59
938.134	58.5
938.501	58.44
938.867	58.43
939.234	58.48
939.6	58.52
939.967	58.51
940.333	58.64
940.699	58.75
941.065	58.86
941.431	58.98
941.798	59.14
942.163	59.34
942.529	59.49
942.895	59.65
943.261	59.7
943.627	59.8
943.992	59.91
944.358	59.96
944.723	60.02
945.089	60.08
945.454	60.19
945.82	60.17
946.185	60.15
946.55	60.19
946.915	60.13
947.28	60.19
947.645	60.18
948.01	60.15
948.375	60.2
948.74	60.07
949.104	60.05
949.469	59.94
949.834	59.96
950.198	59.88
950.562	59.83
950.927	59.82
951.291	59.73
951.655	59.64
952.02	59.63
952.384	59.66
952.748	59.7
953.112	59.64
953.476	59.65
953.839	59.56
954.203	59.54
954.567	59.55
954.931	59.59
955.294	59.54
955.658	59.53
956.021	59.5
956.385	59.44
956.748	59.4
957.111	59.38
957.474	59.35
957.837	59.38
958.2	59.32
958.563	59.23
958.926	59.15
959.289	59.13
959.652	59.12
960.015	59.06
960.377	59.04
960.74	59.01
961.102	58.96
961.465	58.99
961.827	58.84
962.189	58.79
962.552	58.77
962.914	58.75
963.276	58.77
963.638	58.71
964	58.7
964.362	58.62
964.724	58.63
965.085	58.64
965.447	58.54
965.809	58.56
966.17	58.62
966.532	58.66
966.893	58.63
967.255	58.59
967.616	58.58
967.977	58.58
968.338	58.51
968.699	58.46
969.061	58.36
969.421	58.4
969.782	58.41
970.143	58.39
970.504	58.32
970.865	58.26
971.225	58.25
971.586	58.34
971.946	58.33
972.307	58.37
972.667	58.48
973.027	58.55
973.388	58.54
973.748	58.56
974.108	58.52
974.468	58.52
974.828	58.54
975.188	58.59
975.548	58.56
975.907	58.59
976.267	58.58
976.627	58.49
976.986	58.5
977.346	58.44
977.705	58.51
978.064	58.54
978.424	58.45
978.783	58.48
979.142	58.43
979.501	58.27
979.86	58.25
980.219	58.22
980.578	58.18
980.937	58.12
981.296	58.09
981.654	58.12
982.013	58.08
982.371	58.15
982.73	58.03
983.088	58.02
983.447	58.14
983.805	58.08
984.163	58.06
984.521	57.94
984.879	57.94
985.237	58.01
985.595	57.94
985.953	57.92
986.311	57.96
986.669	58.05
987.026	58.08
987.384	58.13
987.741	58.19
988.099	58.29
988.456	58.45
988.814	58.4
989.171	58.37
989.528	58.34
989.885	58.37
990.242	58.45
990.599	58.48
990.956	58.42
991.313	58.36
991.67	58.26
992.027	58.09
992.383	58.1
992.74	58.18
993.096	58.18
993.453	58.14
993.809	58.25
994.165	58.07
994.522	58
994.878	57.96
995.234	57.89
995.59	57.91
995.946	58.05
996.302	57.87
996.658	57.95
997.013	57.98
997.369	57.98
997.725	57.94
998.08	58.03
998.436	58.11
998.791	58.13
999.147	58.18
999.502	58.22
999.857	58.2
1000.212	58.27
1000.567	58.32
1000.922	58.34
1001.277	58.41
1001.632	58.45
1001.987	58.44
1002.342	58.33
1002.696	58.3
1003.051	58.22
1003.406	58.14
1003.76	58.07
1004.114	58.17
1004.469	57.86
1004.823	57.85
1005.177	57.93
1005.531	57.69
1005.885	57.7
1006.239	57.64
1006.593	57.61
1006.947	57.65
1007.301	57.56
1007.655	57.59
1008.008	57.34
1008.362	57.44
1008.715	57.41
1009.069	57.27
1009.422	57.13
1009.776	57.1
1010.129	57.27
1010.482	57.56
1010.835	57.83
1011.188	57.91
1011.541	57.94
1011.894	57.98
1012.247	57.99
1012.6	57.99
1012.952	58.02
1013.305	58.22
1013.657	58.18
1014.01	58.1
1014.362	57.75
1014.715	57.46
1015.067	57.69
1015.419	57.8
1015.771	58.3
1016.123	58.34
1016.475	58.57
1016.827	58.58
1017.179	58.5
1017.531	58.52
1017.883	58.68
1018.234	58.62
1018.586	58.6
1018.938	58.37
1019.289	58.17
1019.64	58.07
1019.992	58.31
1020.343	58.22
1020.694	58.26
1021.045	58.63
1021.396	58.64
1021.747	58.55
1022.098	59.05
1022.449	59.08
1022.8	58.9
1023.151	58.83
1023.501	58.56
1023.852	58.33
1024.202	58.04
1024.553	57.98
1024.903	57.86
1025.253	58.26
1025.604	58.45
1025.954	58.06
1026.304	58.24
1026.654	58.41
1027.004	58.65
1027.354	58.68
1027.703	58.56
1028.053	58.37
1028.403	57.93
1028.753	58.01
1029.102	57.65
1029.452	57.45
1029.801	57.63
1030.15	57.43
1030.499	57.48
897.758	519.56
901.051	534.08
904.343	542.13
907.636	530.73
910.928	524
914.22	529.45
917.511	515.18
920.803	497.36
924.094	477.1
927.384	481.66
930.675	471.9
933.965	466.96
937.255	463.9
940.544	441.38
943.834	426.29
947.123	418.23
950.411	398.05
953.7	391.94
956.988	380.14
960.276	367.25
963.563	360.37
966.851	342.64
970.138	336.22
973.424	314.34
976.711	310.44
979.997	298.83
983.283	292.42
986.568	284.08
989.853	276.9
993.138	267.83
996.423	261.87
999.708	256.11
1002.992	255.43
1006.275	248.09
1009.559	245.73
1012.842	238.42
1016.125	232.36
1019.408	228.62
1022.69	227
1025.972	224.34
1029.254	219.78
1032.536	216.38
1035.817	210.05
1039.098	207.19
1042.379	202.23
1045.659	200.23
1048.939	198.59
1052.219	196.5
1055.498	193.3
1058.778	190
1062.057	187.45
1065.335	186.17
1068.614	183.52
1071.892	180.62
1075.17	177.97
1078.447	176.33
1081.724	174.49
1085.001	170.93
1088.278	170.51
1091.554	169.93
1094.83	169.09
1098.106	166.66
1101.382	165.47
1104.657	164.56
1107.932	164.31
1111.206	162.4
1114.481	162.15
1117.755	161.52
1121.029	161.9
1124.302	158.66
1127.575	156.12
1130.848	155.31
1134.121	153.41
1137.393	152.97
1140.665	152.79
1143.937	151
1147.208	149.67
1150.48	147.69
1153.75	146.86
1157.021	145.23
1160.291	145
1163.561	144.45
1166.831	143.04
1170.101	143.06
1173.37	142
1176.639	139.8
1179.907	140.32
1183.176	140.09
1186.444	140.31
1189.711	138.98
1192.979	140.72
1196.246	140.32
1199.513	140.72
1202.78	141.46
1206.046	140.77
1209.312	141.83
1212.578	143
1215.843	144.61
1219.108	145.28
1222.373	147.7
1225.638	150.21
1228.902	152
1232.166	157.09
1235.43	158.45
1238.693	161.9
1241.956	165.93
1245.219	168.78
1248.482	170.38
1251.744	169.31
1255.006	169.75
1258.268	165.9
1261.529	164.88
1264.79	160.35
1268.051	158.57
1271.312	157.66
1274.572	154.44
1277.832	151.48
1281.092	149.49
1284.351	146.38
1287.61	146.35
1290.869	145.63
1294.128	144.83
1297.386	143.96
1300.644	144.36
1303.902	142
1307.159	141.23
1310.416	142.25
1313.673	143.35
1316.93	144.86
1320.186	147.15
1323.442	148.25
1326.697	150.61
1329.953	151.93
1333.208	156.5
1336.463	162.26
1339.717	165.24
1342.972	172.22
1346.226	177.18
1349.479	178.34
1352.733	185.15
1355.986	188.54
1359.238	191.85
1362.491	194.45
1365.743	201.67
1368.995	202.94
1372.247	204.38
1375.498	203.71
1378.749	209.87
1382	209.2
1385.251	207.71
1388.501	207.73
1391.751	210.27
1395	209.16
1398.25	210.82
1401.499	208.62
1404.748	207.8
1407.996	199.92
1411.244	200.32
1414.492	196.46
1417.74	190.55
1420.987	187.26
1424.234	184.07
1427.481	176.67
1430.728	172.29
1433.974	165.59
1437.22	160.4
1440.465	156.36
1443.711	152.49
1446.956	146.52
1450.201	141.72
1453.445	136.21
1456.689	131.83
1459.933	126.6
1463.177	122.45
1466.42	120.85
1469.663	116.91
1472.906	114.33
1476.148	110.65
1479.391	108.42
1482.633	107.48
1485.874	105.42
1489.115	104.59
1492.356	103.54
1495.597	102.29
1498.838	102.19
1502.078	101.24
1505.318	101.94
1508.557	100.58
1511.797	99.95
1515.036	99.84
1518.274	99.46
1521.513	98.72
1524.751	97.51
1527.989	98.7
1531.227	99.05
1534.464	98.6
1537.701	97.57
1540.938	96.87
1544.174	98.12
1547.41	97.81
1550.646	97.86
1553.882	97.79
1557.117	97.8
1560.352	98.17
1563.587	96.86
1566.821	96.62
1570.055	95.96
1573.289	96.45
1576.523	96.86
1579.756	96.04
1582.989	96.74
1586.222	96.69
1589.454	96.9
1592.686	96.68
1595.918	96.57
1599.15	96.63
1602.381	96.84
1605.612	97.43
1608.843	96.93
1612.073	96.97
1615.303	97.01
1618.533	96.43
1621.762	96.96
1624.992	96.82
1628.221	96.45
1631.449	97.08
1634.678	96.94
1637.906	96.99
1641.134	97.03
1644.361	97.27
1647.588	97.42
1650.815	97.58
1654.042	98.03
1657.269	97.05
1660.495	97.51
1663.72	98.21
1666.946	98.02
1670.171	98.79
1673.396	99.25
1676.621	99.31
1679.845	99.23
1683.069	99.34
1686.293	99.22
1689.517	99.18
1692.74	99.83
1695.963	99.81
1699.185	99.92
1702.408	99.46
1705.63	99.29
1708.852	99.51
1712.073	99.31
1715.294	99.54
1718.515	99.97
1721.736	100.14
1724.956	100.09
1728.176	99.89
1731.396	100.37
1734.616	100.43
1737.835	101.08
1741.054	100.51
1744.272	100.48
1747.491	100.8
1750.709	101.46
1753.927	100.9
1757.144	101.74
1760.361	101.84
1763.578	103.07
1766.795	102.88
1770.011	102.72
1773.227	102.95
1776.443	104.3
1779.658	103.81
1782.874	104.06
1786.089	103.74
1789.303	104.13
1792.518	104.34
1795.732	105.05
1798.945	105.36
1802.159	105.14
1805.372	106.45
1808.585	107.54
1811.797	107.72
1815.01	108.54
1818.222	109.24
1821.434	110.88
1824.645	111.38
1827.856	112.83
1831.067	113.11
1834.278	113.2
1837.488	115.23
1840.698	116.22
1843.908	116.11
1847.117	117.62
1850.326	118.62
1853.535	118.74
1856.744	119.39
1859.952	121.04
1863.16	119.91
1866.368	119.25
1869.575	120.4
1872.782	118.91
1875.989	117.34
1879.196	116.97
1882.402	115.11
1885.608	114.87
1888.814	114.83
1892.019	114.52
1895.224	111.49
1898.429	112.36
1901.634	112.68
1904.838	112.27
1908.042	112.58
1911.246	112.89
1914.449	112.86
1917.652	112.16
1920.855	112.76
1924.058	111.1
1927.26	109.91
1930.462	111.58
1933.664	110.93
1936.865	111.35
1940.066	110.41
1943.267	108.88
1946.467	109.04
1949.668	109.42
1952.868	110.69
1956.067	110.22
1959.267	111.79
1962.466	112.13
1965.665	113.78
1968.863	113.18
1972.061	114.25
1975.259	116.63
1978.457	118.38
1981.654	119.44
1984.852	120.11
1988.048	121.8
1991.245	122.66
1994.441	125.5
1997.637	128.61
2000.833	129.56
2004.028	132.57
2007.223	136.05
2010.418	137.32
2013.613	143.99
2016.807	147.57
2020.001	151.36
2023.194	155.21
2026.388	161.93
2029.581	169.07
2032.774	173.89
2035.966	179.07
2039.158	183.58
2042.35	186.44
2045.542	190.55
2048.733	197.62
2051.924	198.9
2055.115	201.57
2058.306	203.13
2061.496	206.75
2064.686	206.81
2067.875	205.85
2071.065	208.72
2074.254	209
2077.442	215.28
2080.631	217.45
2083.819	217.16
2087.007	224.27
2090.195	227.48
2093.382	228.23
2096.569	227.68
2099.756	232.37
2102.942	237.23
2106.128	241.87
2109.314	242.61
2112.5	242.8
2115.685	241.73
2118.87	241.92
2122.055	240.08
2125.239	244.6
2128.424	250.65
2131.608	249.26
2134.791	247.78
2137.974	249.28
2141.157	250.31
2144.34	253.45
2147.523	260.16
2150.705	266.6
2153.887	265.01
2157.068	268.52
2160.25	270.95
2163.431	268.62
2166.611	273.66
2169.792	277.76
2172.972	282.3
2176.152	282.1
2179.331	287.01
2182.511	284.64
2185.69	287.94
2188.868	298.65
2192.047	307.68
2195.225	310.59
2198.403	316.65
2201.58	314.38
2204.758	328.44
2207.935	329.59
2211.111	337.85
2214.288	340.68
2217.464	344.34
2220.64	344.97
2223.815	347.29
2226.991	342.53
2230.166	345.38
2233.34	357.17
2236.515	366.78
2239.689	358.9
2242.863	364.56
2246.036	359.59
2249.209	368.51
2252.382	366.76
2255.555	380.36
2258.727	379.72
2261.9	393.53
2265.071	399.82
2268.243	391.68
2271.414	402.73
2274.585	411.59
2277.756	411.15
2280.926	427.33
2284.096	433.41
2287.266	438.65
2290.436	430.56
2293.605	440.06
2296.774	452.26
2299.942	451.21
2303.111	467.48
2306.279	476.59
2309.447	474.26
2312.614	475.57
2315.781	489.23
2318.948	487.64
2322.115	495.05
2325.281	523.52
2328.447	520.95
2331.613	522.46
2334.779	528.42
2337.944	538.51
2341.109	546.79
2344.274	553.57
2347.438	571.06
2350.602	575.25
2353.766	611.49
2356.929	611.47
2360.092	617.48
2363.255	620.83
2366.418	627.71
2369.58	644.68
2372.742	648.86
2375.904	646.29
2379.066	665.31
2382.227	706.6
2385.388	700.87
2388.548	664.13
2391.709	662.02
2394.869	681.8
2398.029	685.04
2401.188	682.74
2404.347	700.48
2407.506	715.38
2410.665	689.05
2413.823	702.17
2416.981	694.88
2420.139	665.61
2423.296	720.4
2426.453	769
2429.61	731.47
2432.767	781.12
2435.923	804.72
2439.079	786.96
2442.235	802.77
2445.391	821.19
2448.546	804.53
2451.701	851.33
2454.855	913.1
2458.009	812.28
2461.163	819.44
2464.317	828.85
2467.471	814.52
2470.624	841.74
2473.777	816.65
2476.929	793.92
2480.082	847.85
2483.234	887.68
2486.385	906.14
2489.537	927.76
2492.688	1019.31
2495.839	1005.13
2498.989	1036.02
2502.14	1034.62
2505.29	997.12
2508.439	1097.49
2511.589	1120.24
2514.738	1098.17
2517.887	1086.13
2521.035	1014.13
2524.183	996.14
2527.331	986.02
2530.479	961.78
2533.627	983.71
