Data from c_3_div_il_4n_Splice17_20.txt Node
Date: Sat Feb 29 14:58:14 EST 2020
User: sa697716
Spectrometer: FLMS03696
Trigger mode: 0
Integration Time (sec): 3.180400E-1
Scans to average: 20
Electric dark correction enabled: true
Nonlinearity correction enabled: true
Boxcar width: 5
XAxis mode: Wavelengths
Number of Pixels in Spectrum: 2048
>>>>>Begin Spectral Data<<<<<
187.83	95.65
188.298	91.51
188.766	80.71
189.233	84.48
189.701	92.83
190.169	97.19
190.636	106.32
191.104	104.62
191.571	408.54
192.039	336.54
192.506	-533.82
192.974	-844.5
193.441	512.4
193.908	14.28
194.375	54.88
194.842	162.84
195.31	134.08
195.777	135.01
196.244	60.9
196.711	55.64
197.177	52.14
197.644	53.24
198.111	53.31
198.578	54.23
199.045	54.02
199.511	54.24
199.978	54.05
200.445	54.04
200.911	54.69
201.378	54.85
201.844	55.84
202.31	56.76
202.777	56.96
203.243	57.16
203.709	57
204.176	56.59
204.642	56.38
205.108	56.23
205.574	56.37
206.04	55.75
206.506	55.26
206.972	54.23
207.438	53.25
207.903	53.12
208.369	51.89
208.835	51.46
209.301	50.86
209.766	49.6
210.232	48.93
210.697	47.7
211.163	46.9
211.628	45.97
212.094	45.25
212.559	44.4
213.024	43.02
213.49	42.33
213.955	41.13
214.42	40.03
214.885	38.77
215.35	37.15
215.815	34.83
216.28	32.53
216.745	30.05
217.21	27.33
217.675	24.83
218.14	22.5
218.604	20.41
219.069	18.72
219.534	17.24
219.998	16.05
220.463	14.91
220.927	14.13
221.392	13.33
221.856	12.67
222.32	12.11
222.785	11.64
223.249	11.25
223.713	10.88
224.177	10.52
224.642	10.23
225.106	9.94
225.57	9.69
226.034	9.44
226.497	9.21
226.961	8.99
227.425	8.77
227.889	8.57
228.353	8.38
228.816	8.2
229.28	8.02
229.744	7.86
230.207	7.69
230.671	7.54
231.134	7.4
231.597	7.25
232.061	7.12
232.524	7.01
232.987	6.88
233.45	6.78
233.914	6.68
234.377	6.6
234.84	6.49
235.303	6.41
235.766	6.34
236.229	6.27
236.691	6.21
237.154	6.14
237.617	6.08
238.08	6.02
238.542	5.94
239.005	5.88
239.468	5.81
239.93	5.76
240.393	5.71
240.855	5.64
241.317	5.58
241.78	5.53
242.242	5.48
242.704	5.42
243.166	5.38
243.629	5.34
244.091	5.29
244.553	5.25
245.015	5.2
245.477	5.15
245.939	5.11
246.4	5.05
246.862	5.01
247.324	4.97
247.786	4.93
248.247	4.89
248.709	4.84
249.17	4.8
249.632	4.77
250.093	4.71
250.555	4.69
251.016	4.67
251.477	4.65
251.939	4.62
252.4	4.58
252.861	4.57
253.322	4.54
253.783	4.52
254.244	4.49
254.705	4.46
255.166	4.46
255.627	4.42
256.088	4.38
256.549	4.35
257.009	4.32
257.47	4.28
257.931	4.24
258.391	4.2
258.852	4.17
259.312	4.14
259.773	4.1
260.233	4.05
260.694	4.03
261.154	4
261.614	3.97
262.074	3.94
262.534	3.9
262.994	3.88
263.455	3.86
263.915	3.84
264.374	3.81
264.834	3.79
265.294	3.77
265.754	3.75
266.214	3.74
266.673	3.73
267.133	3.71
267.593	3.71
268.052	3.69
268.512	3.67
268.971	3.66
269.431	3.66
269.89	3.65
270.349	3.64
270.809	3.62
271.268	3.62
271.727	3.61
272.186	3.6
272.645	3.58
273.104	3.57
273.563	3.57
274.022	3.57
274.481	3.56
274.94	3.55
275.399	3.55
275.857	3.55
276.316	3.53
276.775	3.52
277.233	3.51
277.692	3.52
278.15	3.51
278.609	3.49
279.067	3.48
279.525	3.47
279.984	3.47
280.442	3.48
280.9	3.47
281.358	3.47
281.816	3.48
282.274	3.47
282.732	3.47
283.19	3.47
283.648	3.48
284.106	3.48
284.564	3.48
285.021	3.47
285.479	3.46
285.937	3.45
286.394	3.45
286.852	3.45
287.309	3.44
287.767	3.43
288.224	3.42
288.682	3.4
289.139	3.4
289.596	3.39
290.053	3.37
290.511	3.35
290.968	3.34
291.425	3.33
291.882	3.31
292.339	3.3
292.796	3.29
293.252	3.27
293.709	3.27
294.166	3.26
294.623	3.25
295.079	3.25
295.536	3.24
295.992	3.23
296.449	3.23
296.905	3.21
297.362	3.2
297.818	3.2
298.274	3.19
298.731	3.18
299.187	3.17
299.643	3.17
300.099	3.17
300.555	3.16
301.011	3.16
301.467	3.16
301.923	3.16
302.379	3.16
302.835	3.17
303.291	3.16
303.746	3.16
304.202	3.15
304.658	3.15
305.113	3.14
305.569	3.15
306.024	3.15
306.479	3.15
306.935	3.15
307.39	3.15
307.845	3.15
308.301	3.16
308.756	3.17
309.211	3.19
309.666	3.18
310.121	3.19
310.576	3.19
311.031	3.19
311.486	3.19
311.94	3.19
312.395	3.19
312.85	3.18
313.305	3.18
313.759	3.18
314.214	3.17
314.668	3.18
315.123	3.18
315.577	3.19
316.032	3.18
316.486	3.18
316.94	3.18
317.394	3.17
317.849	3.18
318.303	3.17
318.757	3.16
319.211	3.15
319.665	3.14
320.119	3.13
320.572	3.13
321.026	3.12
321.48	3.11
321.934	3.12
322.387	3.12
322.841	3.11
323.295	3.11
323.748	3.12
324.202	3.12
324.655	3.13
325.108	3.12
325.562	3.1
326.015	3.11
326.468	3.11
326.921	3.1
327.374	3.1
327.827	3.1
328.28	3.09
328.733	3.09
329.186	3.08
329.639	3.07
330.092	3.08
330.545	3.09
330.997	3.09
331.45	3.1
331.903	3.1
332.355	3.1
332.808	3.1
333.26	3.11
333.713	3.13
334.165	3.13
334.617	3.14
335.069	3.15
335.522	3.15
335.974	3.15
336.426	3.16
336.878	3.16
337.33	3.16
337.782	3.16
338.234	3.17
338.686	3.15
339.137	3.16
339.589	3.15
340.041	3.14
340.493	3.13
340.944	3.13
341.396	3.12
341.847	3.12
342.299	3.1
342.75	3.08
343.201	3.07
343.653	3.07
344.104	3.05
344.555	3.04
345.006	3.04
345.457	3.02
345.908	3.02
346.359	3.02
346.81	3.02
347.261	3.01
347.712	3.02
348.163	3.01
348.613	3.01
349.064	3
349.515	3
349.965	2.99
350.416	2.99
350.866	3
351.317	2.99
351.767	2.99
352.217	3
352.668	3
353.118	3
353.568	3.01
354.018	3.03
354.468	3.03
354.918	3.04
355.368	3.06
355.818	3.05
356.268	3.06
356.718	3.06
357.168	3.06
357.617	3.07
358.067	3.07
358.517	3.08
358.966	3.08
359.416	3.1
359.865	3.1
360.315	3.09
360.764	3.1
361.213	3.09
361.663	3.11
362.112	3.13
362.561	3.14
363.01	3.15
363.459	3.15
363.908	3.16
364.357	3.17
364.806	3.18
365.255	3.21
365.703	3.23
366.152	3.26
366.601	3.28
367.05	3.29
367.498	3.31
367.947	3.34
368.395	3.37
368.844	3.4
369.292	3.42
369.74	3.45
370.189	3.48
370.637	3.5
371.085	3.52
371.533	3.55
371.981	3.58
372.429	3.61
372.877	3.64
373.325	3.67
373.773	3.7
374.221	3.75
374.669	3.79
375.116	3.83
375.564	3.87
376.012	3.92
376.459	3.97
376.907	4
377.354	4.04
377.801	4.09
378.249	4.14
378.696	4.18
379.143	4.22
379.591	4.26
380.038	4.33
380.485	4.38
380.932	4.42
381.379	4.46
381.826	4.51
382.273	4.56
382.72	4.61
383.166	4.66
383.613	4.72
384.06	4.76
384.506	4.81
384.953	4.84
385.4	4.88
385.846	4.92
386.292	4.98
386.739	5.02
387.185	5.08
387.631	5.13
388.078	5.17
388.524	5.19
388.97	5.23
389.416	5.25
389.862	5.28
390.308	5.32
390.754	5.35
391.2	5.38
391.645	5.41
392.091	5.43
392.537	5.45
392.983	5.49
393.428	5.53
393.874	5.57
394.319	5.6
394.765	5.63
395.21	5.63
395.655	5.66
396.101	5.68
396.546	5.68
396.991	5.69
397.436	5.7
397.881	5.7
398.326	5.72
398.771	5.72
399.216	5.75
399.661	5.76
400.106	5.79
400.551	5.79
400.995	5.77
401.44	5.76
401.885	5.76
402.329	5.76
402.774	5.75
403.218	5.74
403.663	5.73
404.107	5.73
404.551	5.73
404.995	5.72
405.44	5.72
405.884	5.73
406.328	5.73
406.772	5.74
407.216	5.76
407.66	5.76
408.104	5.76
408.547	5.76
408.991	5.74
409.435	5.72
409.879	5.71
410.322	5.72
410.766	5.71
411.209	5.72
411.653	5.71
412.096	5.69
412.54	5.69
412.983	5.69
413.426	5.7
413.869	5.72
414.312	5.74
414.756	5.76
415.199	5.78
415.642	5.79
416.085	5.8
416.527	5.82
416.97	5.84
417.413	5.82
417.856	5.8
418.298	5.79
418.741	5.77
419.184	5.75
419.626	5.73
420.069	5.73
420.511	5.71
420.953	5.69
421.396	5.67
421.838	5.68
422.28	5.69
422.722	5.71
423.164	5.72
423.606	5.71
424.048	5.73
424.49	5.75
424.932	5.74
425.374	5.75
425.816	5.75
426.258	5.74
426.699	5.71
427.141	5.68
427.582	5.68
428.024	5.69
428.465	5.69
428.907	5.7
429.348	5.69
429.789	5.67
430.231	5.65
430.672	5.65
431.113	5.66
431.554	5.68
431.995	5.69
432.436	5.69
432.877	5.67
433.318	5.65
433.759	5.63
434.2	5.63
434.64	5.64
435.081	5.65
435.522	5.66
435.962	5.69
436.403	5.7
436.843	5.7
437.284	5.7
437.724	5.73
438.164	5.74
438.604	5.78
439.045	5.79
439.485	5.79
439.925	5.81
440.365	5.8
440.805	5.77
441.245	5.78
441.685	5.8
442.125	5.82
442.564	5.83
443.004	5.85
443.444	5.85
443.883	5.84
444.323	5.85
444.762	5.89
445.202	5.93
445.641	5.96
446.081	5.99
446.52	5.99
446.959	6
447.398	6
447.837	6.04
448.276	6.07
448.716	6.11
449.154	6.13
449.593	6.12
450.032	6.11
450.471	6.12
450.91	6.13
451.349	6.14
451.787	6.14
452.226	6.14
452.664	6.11
453.103	6.09
453.541	6.08
453.98	6.07
454.418	6.07
454.856	6.05
455.295	6.02
455.733	6
456.171	5.98
456.609	5.97
457.047	5.98
457.485	5.97
457.923	5.95
458.361	5.94
458.798	5.93
459.236	5.94
459.674	5.94
460.111	5.94
460.549	5.94
460.987	5.94
461.424	5.92
461.862	5.9
462.299	5.89
462.736	5.89
463.173	5.88
463.611	5.86
464.048	5.85
464.485	5.85
464.922	5.85
465.359	5.87
465.796	5.85
466.233	5.88
466.67	5.9
467.106	5.89
467.543	5.9
467.98	5.92
468.416	5.94
468.853	5.96
469.29	5.98
469.726	5.98
470.162	5.96
470.599	5.99
471.035	6
471.471	5.99
471.907	6.01
472.344	6.02
472.78	6.02
473.216	6.03
473.652	6.03
474.088	6.03
474.523	6.04
474.959	6.03
475.395	6.02
475.831	6.02
476.266	6.03
476.702	6.01
477.138	6.01
477.573	6.01
478.008	6
478.444	5.99
478.879	5.98
479.314	5.97
479.75	5.98
480.185	5.98
480.62	5.97
481.055	5.96
481.49	5.95
481.925	5.94
482.36	5.93
482.795	5.92
483.229	5.92
483.664	5.92
484.099	5.92
484.534	5.91
484.968	5.92
485.403	5.92
485.837	5.93
486.271	5.93
486.706	5.95
487.14	5.97
487.574	5.98
488.009	5.99
488.443	6.01
488.877	6.02
489.311	6.04
489.745	6.07
490.179	6.09
490.613	6.12
491.046	6.15
491.48	6.18
491.914	6.21
492.348	6.26
492.781	6.29
493.215	6.32
493.648	6.38
494.082	6.44
494.515	6.49
494.948	6.55
495.382	6.6
495.815	6.66
496.248	6.72
496.681	6.78
497.114	6.84
497.547	6.91
497.98	6.99
498.413	7.07
498.846	7.14
499.279	7.23
499.711	7.32
500.144	7.4
500.577	7.5
501.009	7.6
501.442	7.7
501.874	7.82
502.306	7.94
502.739	8.06
503.171	8.18
503.603	8.31
504.036	8.43
504.468	8.58
504.9	8.74
505.332	8.89
505.764	9.04
506.196	9.21
506.627	9.38
507.059	9.56
507.491	9.75
507.923	9.94
508.354	10.14
508.786	10.33
509.217	10.51
509.649	10.72
510.08	10.94
510.512	11.16
510.943	11.39
511.374	11.6
511.805	11.82
512.237	12.06
512.668	12.28
513.099	12.53
513.53	12.77
513.961	13.06
514.391	13.31
514.822	13.54
515.253	13.79
515.684	14.04
516.114	14.31
516.545	14.58
516.975	14.83
517.406	15.1
517.836	15.36
518.267	15.63
518.697	15.89
519.127	16.15
519.558	16.42
519.988	16.68
520.418	16.93
520.848	17.19
521.278	17.43
521.708	17.51
522.138	17.72
522.567	17.93
522.997	18.15
523.427	18.37
523.857	18.56
524.286	18.77
524.716	18.97
525.145	19.16
525.575	19.34
526.004	19.54
526.433	19.88
526.863	20.09
527.292	20.28
527.721	20.44
528.15	20.58
528.579	20.75
529.008	20.89
529.437	21.04
529.866	21.17
530.295	21.3
530.724	21.43
531.152	21.56
531.581	21.66
532.01	21.76
532.438	21.86
532.867	21.97
533.295	22.05
533.723	22.14
534.152	22.23
534.58	22.3
535.008	22.36
535.436	22.42
535.865	22.47
536.293	22.53
536.721	22.57
537.149	22.62
537.576	22.68
538.004	22.73
538.432	22.77
538.86	22.79
539.287	22.84
539.715	22.86
540.143	22.89
540.57	22.93
540.998	22.97
541.425	23
541.852	23.04
542.28	23.06
542.707	23.1
543.134	23.13
543.561	23.15
543.988	23.19
544.415	23.23
544.842	23.24
545.269	23.26
545.696	23.29
546.123	23.31
546.549	23.35
546.976	23.37
547.403	23.39
547.829	23.42
548.256	23.45
548.682	23.46
549.108	23.49
549.535	23.51
549.961	23.52
550.387	23.54
550.813	23.54
551.24	23.54
551.666	23.56
552.092	23.57
552.518	23.57
552.943	23.57
553.369	23.58
553.795	23.57
554.221	23.57
554.646	23.56
555.072	23.53
555.498	23.49
555.923	23.46
556.349	23.4
556.774	23.34
557.199	23.3
557.625	23.24
558.05	23.16
558.475	23.09
558.9	23.03
559.325	22.95
559.75	22.87
560.175	22.81
560.6	22.73
561.025	22.64
561.449	22.55
561.874	22.45
562.299	22.37
562.723	22.28
563.148	22.18
563.572	22.08
563.997	21.97
564.421	21.85
564.846	21.73
565.27	21.61
565.694	21.5
566.118	21.36
566.542	21.23
566.966	21.08
567.39	20.93
567.814	20.78
568.238	20.61
568.662	20.47
569.086	20.33
569.509	20.19
569.933	20.04
570.357	19.89
570.78	19.75
571.204	19.61
571.627	19.47
572.05	19.34
572.474	19.22
572.897	19.12
573.32	19
573.743	18.88
574.166	18.75
574.589	18.64
575.012	18.55
575.435	18.44
575.858	18.35
576.281	18.27
576.704	18.18
577.126	18.07
577.549	17.98
577.972	17.9
578.394	17.82
578.817	17.74
579.239	17.67
579.661	17.59
580.084	17.51
580.506	17.45
580.928	17.37
581.35	17.3
581.772	17.25
582.194	17.17
582.616	17.1
583.038	17.04
583.46	16.97
583.882	16.91
584.303	16.82
584.725	16.77
585.147	16.69
585.568	16.62
585.99	16.57
586.411	16.51
586.833	16.46
587.254	16.42
587.675	16.37
588.096	16.32
588.518	16.27
588.939	16.25
589.36	16.2
589.781	16.17
590.202	16.13
590.623	16.08
591.043	16.05
591.464	16.02
591.885	15.99
592.305	15.97
592.726	15.93
593.147	15.91
593.567	15.89
593.987	15.86
594.408	15.84
594.828	15.82
595.248	15.8
595.669	15.76
596.089	15.73
596.509	15.68
596.929	15.64
597.349	15.61
597.769	15.58
598.189	15.54
598.608	15.5
599.028	15.47
599.448	15.43
599.867	15.4
600.287	15.38
600.706	15.34
601.126	15.29
601.545	15.26
601.965	15.22
602.384	15.18
602.803	15.12
603.222	15.05
603.641	15
604.061	14.94
604.48	14.87
604.898	14.8
605.317	14.76
605.736	14.7
606.155	14.62
606.574	14.55
606.992	14.47
607.411	14.4
607.829	14.3
608.248	14.23
608.666	14.16
609.085	14.09
609.503	14
609.921	13.92
610.339	13.85
610.758	13.78
611.176	13.71
611.594	13.64
612.012	13.56
612.43	13.53
612.847	13.46
613.265	13.4
613.683	13.33
614.101	13.29
614.518	13.21
614.936	13.14
615.353	13.07
615.771	13.01
616.188	12.96
616.606	12.91
617.023	12.87
617.44	12.8
617.857	12.74
618.274	12.7
618.691	12.65
619.108	12.62
619.525	12.58
619.942	12.53
620.359	12.5
620.776	12.46
621.192	12.44
621.609	12.41
622.026	12.4
622.442	12.36
622.859	12.34
623.275	12.33
623.691	12.31
624.108	12.29
624.524	12.27
624.94	12.26
625.356	12.24
625.772	12.22
626.188	12.22
626.604	12.2
627.02	12.19
627.436	12.19
627.852	12.18
628.268	12.16
628.683	12.16
629.099	12.15
629.514	12.13
629.93	12.12
630.345	12.08
630.761	12.04
631.176	12.01
631.591	11.98
632.007	11.94
632.422	11.91
632.837	11.86
633.252	11.83
633.667	11.76
634.082	11.7
634.497	11.64
634.911	11.58
635.326	11.52
635.741	11.46
636.155	11.39
636.57	11.31
636.984	11.21
637.399	11.11
637.813	11
638.228	10.93
638.642	10.85
639.056	10.76
639.47	10.68
639.884	10.55
640.298	10.45
640.712	10.34
641.126	10.22
641.54	10.12
641.954	10.02
642.368	9.92
642.781	9.79
643.195	9.68
643.609	9.59
644.022	9.48
644.436	9.39
644.849	9.28
645.262	9.2
645.676	9.12
646.089	9.04
646.502	8.96
646.915	8.89
647.328	8.84
647.741	8.78
648.154	8.73
648.567	8.67
648.98	8.64
649.393	8.6
649.805	8.54
650.218	8.49
650.631	8.45
651.043	8.41
651.456	8.37
651.868	8.34
652.28	8.3
652.693	8.24
653.105	8.19
653.517	8.14
653.929	8.09
654.341	8.05
654.753	8
655.165	7.95
655.577	7.87
655.989	7.8
656.401	7.72
656.813	7.65
657.224	7.57
657.636	7.5
658.047	7.41
658.459	7.33
658.87	7.24
659.282	7.17
659.693	7.08
660.104	7.01
660.515	6.93
660.926	6.85
661.338	6.76
661.749	6.68
662.159	6.6
662.57	6.53
662.981	6.46
663.392	6.4
663.803	6.32
664.213	6.25
664.624	6.21
665.035	6.15
665.445	6.1
665.855	6.06
666.266	6.04
666.676	6
667.086	5.96
667.497	5.92
667.907	5.87
668.317	5.84
668.727	5.82
669.137	5.8
669.547	5.78
669.956	5.76
670.366	5.75
670.776	5.72
671.186	5.71
671.595	5.71
672.005	5.72
672.414	5.72
672.824	5.75
673.233	5.75
673.642	5.74
674.052	5.74
674.461	5.75
674.87	5.77
675.279	5.79
675.688	5.8
676.097	5.81
676.506	5.82
676.915	5.84
677.323	5.86
677.732	5.9
678.141	5.95
678.549	6
678.958	6.05
679.366	6.08
679.775	6.14
680.183	6.2
680.592	6.28
681	6.36
681.408	6.45
681.816	6.53
682.224	6.65
682.632	6.78
683.04	6.91
683.448	7.05
683.856	7.21
684.264	7.38
684.671	7.58
685.079	7.78
685.487	8.03
685.894	8.28
686.302	8.54
686.709	8.81
687.116	9.1
687.524	9.42
687.931	9.76
688.338	10.13
688.745	10.53
689.152	10.93
689.559	11.34
689.966	11.76
690.373	12.24
690.78	12.71
691.187	13.21
691.593	13.7
692	14.21
692.407	14.72
692.813	15.23
693.22	15.75
693.626	16.28
694.032	16.83
694.439	17.37
694.845	17.88
695.251	18.43
695.657	18.96
696.063	19.51
696.469	20.04
696.875	20.56
697.281	21.07
697.687	21.59
698.093	22.09
698.498	22.59
698.904	23.07
699.31	23.57
699.715	24.05
700.12	24.49
700.526	24.93
700.931	25.38
701.337	25.83
701.742	26.27
702.147	26.69
702.552	27.11
702.957	27.53
703.362	27.95
703.767	28.34
704.172	28.73
704.577	29.14
704.981	29.55
705.386	29.9
705.791	30.29
706.195	30.65
706.6	31.01
707.004	31.37
707.408	31.71
707.813	32.03
708.217	32.36
708.621	32.69
709.025	33.01
709.43	33.29
709.834	33.62
710.237	33.92
710.641	34.26
711.045	34.54
711.449	34.84
711.853	35.12
712.256	35.43
712.66	35.7
713.064	35.97
713.467	36.22
713.87	36.49
714.274	36.75
714.677	37
715.08	37.21
715.484	37.46
715.887	37.69
716.29	37.95
716.693	38.14
717.096	38.38
717.499	38.61
717.901	38.83
718.304	39.03
718.707	39.23
719.109	39.45
719.512	39.68
719.915	39.86
720.317	40.08
720.719	40.27
721.122	40.49
721.524	40.67
721.926	40.86
722.328	41.05
722.731	41.25
723.133	41.43
723.535	41.59
723.937	41.74
724.338	41.9
724.74	41.98
725.142	42.03
725.544	42.14
725.945	42.23
726.347	42.35
726.748	42.44
727.15	42.56
727.551	42.67
727.952	42.75
728.354	42.88
728.755	43
729.156	43.14
729.557	43.35
729.958	43.48
730.359	43.59
730.76	43.68
731.161	43.8
731.562	43.88
731.962	43.92
732.363	44.03
732.763	44.08
733.164	44.13
733.564	44.19
733.965	44.2
734.365	44.23
734.766	44.3
735.166	44.32
735.566	44.33
735.966	44.34
736.366	44.41
736.766	44.42
737.166	44.46
737.566	44.51
737.966	44.56
738.365	44.59
738.765	44.64
739.165	44.67
739.564	44.73
739.964	44.8
740.363	44.85
740.763	44.89
741.162	44.92
741.561	44.92
741.96	44.93
742.36	44.94
742.759	44.99
743.158	45
743.557	45.02
743.955	45.03
744.354	45.07
744.753	45.09
745.152	45.13
745.55	45.17
745.949	45.22
746.348	45.28
746.746	45.32
747.144	45.37
747.543	45.42
747.941	45.5
748.339	45.55
748.737	45.57
749.136	45.62
749.534	45.64
749.932	45.68
750.33	45.71
750.727	45.74
751.125	45.76
751.523	45.73
751.921	45.71
752.318	45.67
752.716	45.64
753.113	45.63
753.511	45.58
753.908	45.55
754.305	45.51
754.703	45.45
755.1	45.4
755.497	45.39
755.894	45.37
756.291	45.35
756.688	45.31
757.085	45.27
757.482	45.26
757.878	45.3
758.275	45.29
758.672	45.29
759.068	45.34
759.465	45.38
759.861	45.36
760.258	45.33
760.654	45.33
761.05	45.36
761.447	45.39
761.843	45.36
762.239	45.32
762.635	45.33
763.031	45.32
763.427	45.29
763.822	45.24
764.218	45.25
764.614	45.26
765.01	45.26
765.405	45.28
765.801	45.27
766.196	45.3
766.592	45.34
766.987	45.36
767.382	45.35
767.778	45.36
768.173	45.38
768.568	45.36
768.963	45.37
769.358	45.37
769.753	45.39
770.148	45.39
770.542	45.38
770.937	45.36
771.332	45.35
771.726	45.34
772.121	45.32
772.515	45.33
772.91	45.35
773.304	45.35
773.699	45.34
774.093	45.29
774.487	45.29
774.881	45.3
775.275	45.31
775.669	45.31
776.063	45.32
776.457	45.34
776.851	45.32
777.245	45.33
777.638	45.33
778.032	45.37
778.425	45.4
778.819	45.4
779.212	45.38
779.606	45.37
779.999	45.38
780.392	45.4
780.786	45.41
781.179	45.46
781.572	45.42
781.965	45.44
782.358	45.42
782.751	45.46
783.143	45.46
783.536	45.49
783.929	45.51
784.322	45.49
784.714	45.5
785.107	45.52
785.499	45.5
785.891	45.51
786.284	45.48
786.676	45.46
787.068	45.43
787.46	45.43
787.852	45.42
788.245	45.39
788.636	45.42
789.028	45.41
789.42	45.42
789.812	45.42
790.204	45.4
790.595	45.44
790.987	45.49
791.378	45.49
791.77	45.51
792.161	45.54
792.553	45.55
792.944	45.57
793.335	45.58
793.726	45.55
794.117	45.56
794.508	45.6
794.899	45.61
795.29	45.58
795.681	45.61
796.072	45.61
796.463	45.56
796.853	45.57
797.244	45.57
797.634	45.55
798.025	45.56
798.415	45.57
798.806	45.58
799.196	45.58
799.586	45.59
799.976	45.58
800.366	45.61
800.756	45.66
801.146	45.68
801.536	45.68
801.926	45.69
802.316	45.71
802.706	45.75
803.095	45.73
803.485	45.75
803.874	45.75
804.264	45.81
804.653	45.77
805.043	45.76
805.432	45.74
805.821	45.74
806.21	45.8
806.599	45.82
806.988	45.79
807.377	45.84
807.766	45.86
808.155	45.88
808.544	45.83
808.933	45.88
809.321	45.89
809.71	45.94
810.098	45.95
810.487	45.91
810.875	45.88
811.264	45.93
811.652	45.92
812.04	45.91
812.428	45.91
812.816	45.93
813.204	45.92
813.592	45.93
813.98	45.95
814.368	45.97
814.756	46
815.144	46.04
815.531	46.02
815.919	46.03
816.306	46.01
816.694	46.03
817.081	46.03
817.469	46.05
817.856	46.09
818.243	46.07
818.63	46.11
819.017	46.1
819.404	46.07
819.791	46.07
820.178	46.08
820.565	46.11
820.952	46.1
821.339	46.13
821.725	46.11
822.112	46.07
822.498	46.07
822.885	46.05
823.271	46.07
823.657	46.06
824.044	46.05
824.43	46.07
824.816	46.06
825.202	46.05
825.588	46.03
825.974	46.05
826.36	46.04
826.746	46.05
827.132	46.01
827.517	46
827.903	46.02
828.289	46.02
828.674	45.97
829.06	45.97
829.445	46
829.83	45.99
830.216	45.96
830.601	45.95
830.986	45.92
831.371	45.97
831.756	45.94
832.141	45.95
832.526	45.94
832.911	45.96
833.295	45.93
833.68	45.91
834.065	45.93
834.449	45.91
834.834	45.92
835.218	45.93
835.603	45.91
835.987	45.89
836.371	45.9
836.755	45.87
837.139	45.84
837.524	45.86
837.908	45.8
838.291	45.78
838.675	45.77
839.059	45.76
839.443	45.73
839.827	45.7
840.21	45.73
840.594	45.7
840.977	45.71
841.361	45.7
841.744	45.69
842.127	45.72
842.511	45.69
842.894	45.69
843.277	45.69
843.66	45.7
844.043	45.71
844.426	45.65
844.809	45.66
845.191	45.66
845.574	45.64
845.957	45.6
846.339	45.59
846.722	45.61
847.104	45.61
847.487	45.6
847.869	45.6
848.252	45.57
848.634	45.61
849.016	45.6
849.398	45.6
849.78	45.62
850.162	45.64
850.544	45.65
850.926	45.61
851.307	45.64
851.689	45.61
852.071	45.59
852.452	45.58
852.834	45.56
853.215	45.55
853.597	45.56
853.978	45.53
854.359	45.56
854.741	45.55
855.122	45.57
855.503	45.56
855.884	45.58
856.265	45.58
856.646	45.6
857.026	45.6
857.407	45.59
857.788	45.6
858.169	45.62
858.549	45.63
858.93	45.63
859.31	45.62
859.69	45.63
860.071	45.64
860.451	45.65
860.831	45.67
861.211	45.69
861.591	45.71
861.971	45.7
862.351	45.7
862.731	45.68
863.111	45.69
863.491	45.71
863.87	45.71
864.25	45.71
864.629	45.68
865.009	45.65
865.388	45.64
865.768	45.62
866.147	45.62
866.526	45.61
866.905	45.6
867.284	45.59
867.663	45.58
868.042	45.58
868.421	45.54
868.8	45.54
869.179	45.53
869.558	45.53
869.936	45.54
870.315	45.52
870.693	45.52
871.072	45.51
871.45	45.5
871.828	45.48
872.207	45.5
872.585	45.52
872.963	45.54
873.341	45.56
873.719	45.56
874.097	45.56
874.475	45.57
874.853	45.56
875.23	45.57
875.608	45.57
875.986	45.57
876.363	45.53
876.741	45.55
877.118	45.53
877.495	45.52
877.873	45.51
878.25	45.49
878.627	45.49
879.004	45.49
879.381	45.52
879.758	45.49
880.135	45.49
880.512	45.51
880.889	45.49
881.265	45.52
881.642	45.52
882.019	45.52
882.395	45.52
882.772	45.53
883.148	45.56
883.524	45.55
883.901	45.57
884.277	45.57
884.653	45.56
885.029	45.55
885.405	45.57
885.781	45.57
886.157	45.6
886.532	45.6
886.908	45.62
887.284	45.64
887.659	45.64
888.035	45.64
888.411	45.6
888.786	45.59
889.161	45.61
889.537	45.59
889.912	45.55
890.287	45.53
890.662	45.5
891.037	45.45
891.412	45.38
891.787	45.37
892.162	45.34
892.536	45.36
892.911	45.35
893.286	45.31
893.66	45.26
894.035	45.23
894.409	45.22
894.784	45.21
895.158	45.22
895.532	45.21
895.906	45.19
896.281	45.17
896.655	45.14
897.029	45.08
897.402	45.06
897.776	45.08
898.15	45.08
898.524	45.06
898.898	45.03
899.271	45.02
899.645	45.01
900.018	44.99
900.392	45.01
900.765	45.02
901.138	45.04
901.511	45.06
901.884	45.07
902.258	45.06
902.631	45.07
903.003	45.08
903.376	45.06
903.749	45.11
904.122	45.11
904.495	45.11
904.867	45.11
905.24	45.12
905.612	45.13
905.985	45.12
906.357	45.12
906.729	45.11
907.102	45.13
907.474	45.17
907.846	45.14
908.218	45.15
908.59	45.14
908.962	45.14
909.334	45.13
909.705	45.12
910.077	45.1
910.449	45.13
910.82	45.12
911.192	45.14
911.563	45.08
911.935	45.07
912.306	45.06
912.677	45.07
913.048	45.07
913.419	45.09
913.79	45.08
914.161	45.11
914.532	45.12
914.903	45.16
915.274	45.14
915.645	45.2
916.015	45.22
916.386	45.23
916.756	45.19
917.127	45.2
917.497	45.2
917.868	45.2
918.238	45.23
918.608	45.23
918.978	45.21
919.348	45.2
919.718	45.19
920.088	45.19
920.458	45.22
920.828	45.27
921.198	45.29
921.567	45.31
921.937	45.32
922.306	45.3
922.676	45.32
923.045	45.3
923.415	45.34
923.784	45.36
924.153	45.33
924.522	45.29
924.891	45.29
925.26	45.27
925.629	45.27
925.998	45.28
926.367	45.27
926.736	45.24
927.104	45.26
927.473	45.26
927.842	45.18
928.21	45.25
928.578	45.26
928.947	45.22
929.315	45.2
929.683	45.19
930.051	45.15
930.42	45.11
930.788	45.12
931.156	45.07
931.523	45.03
931.891	45.01
932.259	44.9
932.627	44.84
932.994	44.84
933.362	44.76
933.729	44.65
934.097	44.58
934.464	44.55
934.831	44.44
935.199	44.42
935.566	44.37
935.933	44.5
936.3	44.47
936.667	44.48
937.034	44.44
937.401	44.43
937.767	44.52
938.134	44.59
938.501	44.58
938.867	44.67
939.234	44.73
939.6	44.74
939.967	44.62
940.333	44.73
940.699	44.86
941.065	44.98
941.431	45.11
941.798	45.18
942.163	45.28
942.529	45.43
942.895	45.52
943.261	45.63
943.627	45.81
943.992	45.86
944.358	45.81
944.723	45.83
945.089	45.85
945.454	45.87
945.82	45.84
946.185	45.87
946.55	45.95
946.915	45.93
947.28	45.82
947.645	45.76
948.01	45.73
948.375	45.79
948.74	45.72
949.104	45.73
949.469	45.68
949.834	45.74
950.198	45.63
950.562	45.58
950.927	45.51
951.291	45.5
951.655	45.44
952.02	45.45
952.384	45.44
952.748	45.41
953.112	45.38
953.476	45.34
953.839	45.25
954.203	45.23
954.567	45.19
954.931	45.16
955.294	45.12
955.658	45.05
956.021	44.98
956.385	45.03
956.748	45
957.111	44.97
957.474	44.98
957.837	45.03
958.2	45.06
958.563	45.01
958.926	45.02
959.289	45.02
959.652	45.08
960.015	45.04
960.377	44.95
960.74	44.95
961.102	44.87
961.465	44.81
961.827	44.67
962.189	44.56
962.552	44.51
962.914	44.47
963.276	44.48
963.638	44.38
964	44.35
964.362	44.39
964.724	44.4
965.085	44.41
965.447	44.37
965.809	44.35
966.17	44.39
966.532	44.38
966.893	44.39
967.255	44.36
967.616	44.38
967.977	44.4
968.338	44.24
968.699	44.14
969.061	44.1
969.421	44.1
969.782	44.16
970.143	44.15
970.504	44.14
970.865	44.05
971.225	44.02
971.586	44.06
971.946	44.03
972.307	44.13
972.667	44.2
973.027	44.24
973.388	44.29
973.748	44.29
974.108	44.18
974.468	44.24
974.828	44.33
975.188	44.43
975.548	44.43
975.907	44.48
976.267	44.46
976.627	44.44
976.986	44.46
977.346	44.45
977.705	44.45
978.064	44.58
978.424	44.58
978.783	44.6
979.142	44.49
979.501	44.46
979.86	44.46
980.219	44.49
980.578	44.51
980.937	44.56
981.296	44.55
981.654	44.71
982.013	44.69
982.371	44.74
982.73	44.68
983.088	44.71
983.447	44.72
983.805	44.73
984.163	44.72
984.521	44.64
984.879	44.58
985.237	44.6
985.595	44.54
985.953	44.54
986.311	44.47
986.669	44.59
987.026	44.6
987.384	44.6
987.741	44.61
988.099	44.59
988.456	44.67
988.814	44.73
989.171	44.79
989.528	44.7
989.885	44.67
990.242	44.68
990.599	44.64
990.956	44.78
991.313	44.91
991.67	44.97
992.027	45.01
992.383	45.04
992.74	45.01
993.096	44.96
993.453	44.96
993.809	45.11
994.165	45.17
994.522	45.13
994.878	44.99
995.234	44.98
995.59	44.88
995.946	44.94
996.302	44.92
996.658	45.09
997.013	45.23
997.369	45.37
997.725	45.31
998.08	45.2
998.436	45.36
998.791	45.33
999.147	45.2
999.502	45.43
999.857	45.56
1000.212	45.64
1000.567	45.57
1000.922	45.52
1001.277	45.43
1001.632	45.6
1001.987	45.71
1002.342	45.68
1002.696	45.84
1003.051	45.87
1003.406	45.71
1003.76	45.59
1004.114	45.68
1004.469	45.68
1004.823	45.75
1005.177	45.9
1005.531	45.78
1005.885	45.86
1006.239	45.86
1006.593	45.96
1006.947	46
1007.301	46.1
1007.655	46.13
1008.008	46.02
1008.362	46.04
1008.715	45.9
1009.069	45.83
1009.422	45.73
1009.776	45.78
1010.129	45.7
1010.482	45.67
1010.835	45.89
1011.188	45.89
1011.541	45.58
1011.894	45.63
1012.247	45.63
1012.6	45.83
1012.952	45.77
1013.305	45.95
1013.657	46.09
1014.01	46.37
1014.362	46.34
1014.715	46.15
1015.067	46.46
1015.419	47.02
1015.771	47.42
1016.123	47.38
1016.475	47.62
1016.827	47.85
1017.179	47.91
1017.531	47.89
1017.883	48.03
1018.234	48.23
1018.586	48.34
1018.938	47.99
1019.289	47.66
1019.64	47.57
1019.992	47.93
1020.343	47.59
1020.694	47.81
1021.045	48.03
1021.396	48.2
1021.747	48.01
1022.098	47.98
1022.449	47.96
1022.8	47.99
1023.151	48.35
1023.501	48.28
1023.852	48.35
1024.202	48.52
1024.553	48.38
1024.903	48.53
1025.253	48.69
1025.604	48.83
1025.954	48.76
1026.304	49.44
1026.654	49.99
1027.004	50.09
1027.354	50.19
1027.703	50.14
1028.053	50.06
1028.403	50
1028.753	49.84
1029.102	49.42
1029.452	49.23
1029.801	49.2
1030.15	48.91
1030.499	48.53
897.758	453.97
901.051	464.73
904.343	470.6
907.636	464.92
910.928	455.78
914.22	465.47
917.511	454.37
920.803	434.2
924.094	419.44
927.384	423.03
930.675	412.15
933.965	407.77
937.255	405.64
940.544	386.35
943.834	369.28
947.123	365.54
950.411	341.48
953.7	338.26
956.988	328.94
960.276	314.53
963.563	311.84
966.851	293.23
970.138	287.99
973.424	269.44
976.711	266.63
979.997	257.41
983.283	249.77
986.568	243.73
989.853	238.1
993.138	229.97
996.423	224.71
999.708	219.24
1002.992	218.94
1006.275	213.39
1009.559	211.74
1012.842	204.75
1016.125	198.93
1019.408	197.17
1022.69	195.54
1025.972	191.46
1029.254	188.99
1032.536	186.29
1035.817	180.07
1039.098	178.52
1042.379	173.25
1045.659	171.11
1048.939	170.61
1052.219	167.45
1055.498	164.77
1058.778	162.28
1062.057	160.47
1065.335	158.34
1068.614	156.03
1071.892	153.36
1075.17	149.89
1078.447	149.04
1081.724	147.04
1085.001	144.08
1088.278	143.82
1091.554	141.42
1094.83	140.72
1098.106	138.6
1101.382	137.71
1104.657	136.66
1107.932	136.99
1111.206	136.67
1114.481	136.03
1117.755	135.19
1121.029	134.36
1124.302	132.82
1127.575	131.91
1130.848	131.03
1134.121	129.75
1137.393	129.34
1140.665	129.63
1143.937	127.17
1147.208	125.38
1150.48	123.73
1153.75	123.44
1157.021	123.07
1160.291	121.58
1163.561	121.02
1166.831	120.05
1170.101	119.19
1173.37	118.78
1176.639	116.84
1179.907	117.09
1183.176	116.89
1186.444	117.35
1189.711	116.07
1192.979	115.98
1196.246	117.09
1199.513	116.71
1202.78	117.42
1206.046	117.55
1209.312	118.36
1212.578	118.67
1215.843	120.89
1219.108	121.77
1222.373	122.68
1225.638	124.94
1228.902	128.19
1232.166	131.42
1235.43	132.82
1238.693	136.16
1241.956	138.99
1245.219	141.62
1248.482	143.59
1251.744	142.19
1255.006	144.06
1258.268	139.87
1261.529	139.14
1264.79	134.85
1268.051	133.05
1271.312	132.56
1274.572	129.53
1277.832	127.11
1281.092	124.89
1284.351	121.98
1287.61	122.17
1290.869	120.26
1294.128	120.75
1297.386	120.18
1300.644	119.09
1303.902	117.88
1307.159	117.11
1310.416	117.36
1313.673	119.01
1316.93	119.88
1320.186	122.5
1323.442	123.51
1326.697	126.3
1329.953	128.06
1333.208	131.35
1336.463	138.46
1339.717	140.74
1342.972	147.71
1346.226	151.35
1349.479	151.28
1352.733	157.56
1355.986	160.3
1359.238	163.79
1362.491	164.66
1365.743	170.68
1368.995	170.62
1372.247	172.7
1375.498	172.64
1378.749	177.01
1382	177.87
1385.251	176.42
1388.501	176.58
1391.751	178.55
1395	176.43
1398.25	178.11
1401.499	176.41
1404.748	177.65
1407.996	168.09
1411.244	168.67
1414.492	165.87
1417.74	159.9
1420.987	157.99
1424.234	154.71
1427.481	148.26
1430.728	144.81
1433.974	139.82
1437.22	134.81
1440.465	129.77
1443.711	127.14
1446.956	121.92
1450.201	118.25
1453.445	113.18
1456.689	109.52
1459.933	106.09
1463.177	101.69
1466.42	99.46
1469.663	96.57
1472.906	93.97
1476.148	91.51
1479.391	89.44
1482.633	88.18
1485.874	85.77
1489.115	85.54
1492.356	84.42
1495.597	82.24
1498.838	82.8
1502.078	82.12
1505.318	81.59
1508.557	81.08
1511.797	80.48
1515.036	79.84
1518.274	80.34
1521.513	79.92
1524.751	78.83
1527.989	79.41
1531.227	80.16
1534.464	79.33
1537.701	79
1540.938	78.48
1544.174	78.34
1547.41	78.47
1550.646	78.63
1553.882	78
1557.117	77.61
1560.352	77.81
1563.587	76.89
1566.821	76.47
1570.055	76.3
1573.289	76.43
1576.523	76.88
1579.756	76.73
1582.989	76.95
1586.222	76.76
1589.454	77.13
1592.686	77.12
1595.918	77.12
1599.15	76.91
1602.381	77.44
1605.612	77.54
1608.843	77.29
1612.073	77.03
1615.303	77.43
1618.533	77.24
1621.762	77.4
1624.992	77.02
1628.221	76.64
1631.449	77.33
1634.678	77.4
1637.906	77.11
1641.134	77.32
1644.361	77.32
1647.588	78.11
1650.815	77.92
1654.042	77.69
1657.269	77.47
1660.495	78.17
1663.72	78.64
1666.946	78.17
1670.171	78.9
1673.396	79.24
1676.621	79.28
1679.845	79.69
1683.069	79.02
1686.293	79.3
1689.517	79.43
1692.74	79.92
1695.963	79.59
1699.185	79.8
1702.408	79.18
1705.63	78.98
1708.852	80.01
1712.073	79.78
1715.294	79.48
1718.515	80.45
1721.736	80.3
1724.956	80.68
1728.176	80.66
1731.396	80.94
1734.616	81.19
1737.835	82.32
1741.054	82.06
1744.272	81.65
1747.491	82.52
1750.709	82.75
1753.927	82.23
1757.144	82.79
1760.361	82.99
1763.578	83.35
1766.795	83.98
1770.011	83.43
1773.227	84.18
1776.443	85.63
1779.658	84.69
1782.874	84.97
1786.089	84.59
1789.303	84.98
1792.518	85.52
1795.732	86.04
1798.945	86.88
1802.159	86.48
1805.372	88.17
1808.585	88.21
1811.797	87.79
1815.01	89.09
1818.222	89.35
1821.434	90.99
1824.645	91.48
1827.856	92.41
1831.067	93.01
1834.278	93.08
1837.488	94.41
1840.698	95.19
1843.908	95.05
1847.117	96.39
1850.326	97.22
1853.535	97.65
1856.744	98.2
1859.952	99
1863.16	98.85
1866.368	98.56
1869.575	99.08
1872.782	98.31
1875.989	96.56
1879.196	96.96
1882.402	96.1
1885.608	96.07
1888.814	95.9
1892.019	96.86
1895.224	95.18
1898.429	95.65
1901.634	95.5
1904.838	96.15
1908.042	96.72
1911.246	96.69
1914.449	96.76
1917.652	96.44
1920.855	96.75
1924.058	95.88
1927.26	94.66
1930.462	95.44
1933.664	95.16
1936.865	95.86
1940.066	94.82
1943.267	93.19
1946.467	94.99
1949.668	94.8
1952.868	95.38
1956.067	94.92
1959.267	95.74
1962.466	96.45
1965.665	98.16
1968.863	97.97
1972.061	97.99
1975.259	99.9
1978.457	102.76
1981.654	102
1984.852	103.34
1988.048	104.25
1991.245	105.47
1994.441	107.98
1997.637	110.2
2000.833	111.4
2004.028	112.9
2007.223	117.14
2010.418	118.62
2013.613	122.38
2016.807	126.75
2020.001	129.67
2023.194	133.36
2026.388	139.52
2029.581	146.46
2032.774	150.07
2035.966	153.97
2039.158	158.83
2042.35	159.39
2045.542	162.28
2048.733	171.64
2051.924	171.98
2055.115	174.09
2058.306	176.61
2061.496	177.93
2064.686	177.01
2067.875	175.72
2071.065	180.18
2074.254	179.72
2077.442	185.08
2080.631	187.7
2083.819	184.83
2087.007	191.28
2090.195	192.56
2093.382	192.37
2096.569	193.52
2099.756	196.62
2102.942	201.91
2106.128	204.39
2109.314	208.68
2112.5	209.08
2115.685	209.95
2118.87	210.28
2122.055	210.31
2125.239	215.52
2128.424	221.54
2131.608	219.95
2134.791	219.55
2137.974	219.38
2141.157	220.05
2144.34	219.81
2147.523	227.19
2150.705	230.88
2153.887	228.05
2157.068	230.03
2160.25	229.84
2163.431	231.26
2166.611	233.36
2169.792	238.47
2172.972	242.59
2176.152	242.89
2179.331	247.98
2182.511	245.24
2185.69	250.02
2188.868	261.31
2192.047	268.06
2195.225	276.14
2198.403	275
2201.58	273.9
2204.758	283.31
2207.935	284.37
2211.111	292.32
2214.288	294.84
2217.464	299.55
2220.64	297.62
2223.815	297.61
2226.991	293.44
2230.166	294.93
2233.34	305.61
2236.515	313.31
2239.689	306.56
2242.863	313.11
2246.036	309.97
2249.209	315.15
2252.382	312.37
2255.555	323.57
2258.727	326.42
2261.9	337.35
2265.071	342.35
2268.243	337.5
2271.414	349.64
2274.585	357.41
2277.756	356.22
2280.926	365.76
2284.096	372.9
2287.266	375.5
2290.436	368.89
2293.605	376.1
2296.774	388.92
2299.942	387.54
2303.111	403.32
2306.279	408.6
2309.447	408.59
2312.614	412.25
2315.781	422.64
2318.948	416.66
2322.115	427.29
2325.281	453.86
2328.447	446.46
2331.613	450.86
2334.779	457.4
2337.944	461.57
2341.109	470.22
2344.274	476.13
2347.438	484.36
2350.602	496.73
2353.766	532.87
2356.929	532.64
2360.092	540.42
2363.255	547.96
2366.418	550.03
2369.58	562.04
2372.742	567.59
2375.904	563.85
2379.066	581.35
2382.227	621.05
2385.388	617.4
2388.548	588.36
2391.709	582.41
2394.869	594.85
2398.029	602.77
2401.188	601.93
2404.347	620.1
2407.506	637.22
2410.665	617.16
2413.823	620.81
2416.981	617.86
2420.139	587.24
2423.296	638.47
2426.453	679.02
2429.61	648.9
2432.767	688.89
2435.923	710.57
2439.079	697.11
2442.235	703
2445.391	717.14
2448.546	707.67
2451.701	749.17
2454.855	799.24
2458.009	704.3
2461.163	716.24
2464.317	724.73
2467.471	708.71
2470.624	740.16
2473.777	716.04
2476.929	696.71
2480.082	740.97
2483.234	782.17
2486.385	795.23
2489.537	815.36
2492.688	893.97
2495.839	883.72
2498.989	905.36
2502.14	909.91
2505.29	869.29
2508.439	955.79
2511.589	987.15
2514.738	964
2517.887	947
2521.035	885.92
2524.183	872.85
2527.331	867.75
2530.479	843.95
2533.627	864.93
