Data from C_3_dec_on_6n_Splice17_19.txt Node
Date: Sat Feb 29 15:08:10 EST 2020
User: sa697716
Spectrometer: FLMS03696
Trigger mode: 0
Integration Time (sec): 3.180400E-1
Scans to average: 20
Electric dark correction enabled: true
Nonlinearity correction enabled: true
Boxcar width: 5
XAxis mode: Wavelengths
Number of Pixels in Spectrum: 2048
>>>>>Begin Spectral Data<<<<<
187.83	119.72
188.298	116.91
188.766	105.72
189.233	103.06
189.701	110.59
190.169	113.36
190.636	104.99
191.104	74.62
191.571	135.12
192.039	76.82
192.506	188.35
192.974	1839.51
193.441	137.89
193.908	30.46
194.375	3.89
194.842	70.69
195.31	28.41
195.777	-11.55
196.244	48.2
196.711	75.91
197.177	78.99
197.644	80.13
198.111	82.15
198.578	83.28
199.045	84.29
199.511	84.67
199.978	85.42
200.445	85.67
200.911	85.92
201.378	85.92
201.844	86.63
202.31	87.34
202.777	87.73
203.243	88.17
203.709	87.84
204.176	87.03
204.642	86.74
205.108	85.9
205.574	86.08
206.04	85.57
206.506	85.31
206.972	84.66
207.438	83.45
207.903	82.7
208.369	80.52
208.835	79.49
209.301	78.78
209.766	76.9
210.232	75.22
210.697	73.73
211.163	72.23
211.628	70.56
212.094	69.1
212.559	67.74
213.024	66.17
213.49	64.61
213.955	62.95
214.42	61.01
214.885	59
215.35	56.71
215.815	53.48
216.28	49.85
216.745	45.8
217.21	41.58
217.675	37.55
218.14	33.92
218.604	30.79
219.069	28.07
219.534	25.75
219.998	23.83
220.463	22.19
220.927	20.77
221.392	19.59
221.856	18.6
222.32	17.76
222.785	17.03
223.249	16.4
223.713	15.87
224.177	15.33
224.642	14.88
225.106	14.47
225.57	14.07
226.034	13.74
226.497	13.38
226.961	13.01
227.425	12.69
227.889	12.39
228.353	12.08
228.816	11.83
229.28	11.55
229.744	11.3
230.207	11.06
230.671	10.83
231.134	10.61
231.597	10.42
232.061	10.26
232.524	10.09
232.987	9.93
233.45	9.77
233.914	9.6
234.377	9.49
234.84	9.36
235.303	9.24
235.766	9.12
236.229	9.02
236.691	8.92
237.154	8.81
237.617	8.72
238.08	8.61
238.542	8.54
239.005	8.44
239.468	8.34
239.93	8.26
240.393	8.17
240.855	8.08
241.317	7.98
241.78	7.9
242.242	7.81
242.704	7.73
243.166	7.66
243.629	7.57
244.091	7.49
244.553	7.44
245.015	7.35
245.477	7.26
245.939	7.2
246.4	7.13
246.862	7.06
247.324	7
247.786	6.94
248.247	6.87
248.709	6.79
249.17	6.72
249.632	6.66
250.093	6.59
250.555	6.55
251.016	6.49
251.477	6.44
251.939	6.37
252.4	6.31
252.861	6.26
253.322	6.19
253.783	6.15
254.244	6.11
254.705	6.05
255.166	6.02
255.627	5.96
256.088	5.9
256.549	5.84
257.009	5.79
257.47	5.74
257.931	5.68
258.391	5.62
258.852	5.55
259.312	5.49
259.773	5.44
260.233	5.38
260.694	5.32
261.154	5.27
261.614	5.21
262.074	5.17
262.534	5.1
262.994	5.05
263.455	5.01
263.915	4.96
264.374	4.92
264.834	4.88
265.294	4.83
265.754	4.78
266.214	4.75
266.673	4.71
267.133	4.68
267.593	4.65
268.052	4.62
268.512	4.58
268.971	4.56
269.431	4.54
269.89	4.51
270.349	4.48
270.809	4.47
271.268	4.46
271.727	4.43
272.186	4.41
272.645	4.39
273.104	4.38
273.563	4.36
274.022	4.35
274.481	4.33
274.94	4.31
275.399	4.3
275.857	4.29
276.316	4.26
276.775	4.24
277.233	4.22
277.692	4.21
278.15	4.19
278.609	4.18
279.067	4.16
279.525	4.15
279.984	4.14
280.442	4.14
280.9	4.13
281.358	4.12
281.816	4.13
282.274	4.11
282.732	4.11
283.19	4.11
283.648	4.11
284.106	4.1
284.564	4.11
285.021	4.11
285.479	4.1
285.937	4.09
286.394	4.09
286.852	4.09
287.309	4.08
287.767	4.07
288.224	4.06
288.682	4.04
289.139	4.03
289.596	4
290.053	3.98
290.511	3.95
290.968	3.93
291.425	3.91
291.882	3.88
292.339	3.85
292.796	3.83
293.252	3.81
293.709	3.79
294.166	3.76
294.623	3.75
295.079	3.74
295.536	3.73
295.992	3.71
296.449	3.7
296.905	3.68
297.362	3.67
297.818	3.66
298.274	3.65
298.731	3.64
299.187	3.63
299.643	3.62
300.099	3.61
300.555	3.59
301.011	3.59
301.467	3.58
301.923	3.58
302.379	3.57
302.835	3.57
303.291	3.56
303.746	3.55
304.202	3.55
304.658	3.54
305.113	3.54
305.569	3.54
306.024	3.55
306.479	3.54
306.935	3.55
307.39	3.56
307.845	3.57
308.301	3.57
308.756	3.57
309.211	3.58
309.666	3.6
310.121	3.6
310.576	3.6
311.031	3.6
311.486	3.61
311.94	3.6
312.395	3.6
312.85	3.59
313.305	3.59
313.759	3.59
314.214	3.58
314.668	3.58
315.123	3.59
315.577	3.59
316.032	3.59
316.486	3.58
316.94	3.58
317.394	3.58
317.849	3.56
318.303	3.56
318.757	3.54
319.211	3.53
319.665	3.51
320.119	3.49
320.572	3.47
321.026	3.46
321.48	3.45
321.934	3.44
322.387	3.43
322.841	3.42
323.295	3.41
323.748	3.4
324.202	3.4
324.655	3.4
325.108	3.4
325.562	3.39
326.015	3.38
326.468	3.37
326.921	3.36
327.374	3.36
327.827	3.36
328.28	3.36
328.733	3.35
329.186	3.36
329.639	3.35
330.092	3.35
330.545	3.35
330.997	3.35
331.45	3.36
331.903	3.37
332.355	3.37
332.808	3.38
333.26	3.38
333.713	3.39
334.165	3.39
334.617	3.41
335.069	3.42
335.522	3.43
335.974	3.44
336.426	3.45
336.878	3.45
337.33	3.45
337.782	3.45
338.234	3.45
338.686	3.45
339.137	3.46
339.589	3.45
340.041	3.44
340.493	3.41
340.944	3.4
341.396	3.39
341.847	3.37
342.299	3.35
342.75	3.32
343.201	3.3
343.653	3.28
344.104	3.26
344.555	3.24
345.006	3.23
345.457	3.22
345.908	3.21
346.359	3.19
346.81	3.2
347.261	3.18
347.712	3.19
348.163	3.19
348.613	3.19
349.064	3.17
349.515	3.17
349.965	3.16
350.416	3.16
350.866	3.16
351.317	3.15
351.767	3.15
352.217	3.16
352.668	3.16
353.118	3.16
353.568	3.17
354.018	3.19
354.468	3.2
354.918	3.21
355.368	3.22
355.818	3.22
356.268	3.24
356.718	3.24
357.168	3.24
357.617	3.24
358.067	3.24
358.517	3.24
358.966	3.25
359.416	3.26
359.865	3.26
360.315	3.27
360.764	3.28
361.213	3.27
361.663	3.27
362.112	3.29
362.561	3.3
363.01	3.3
363.459	3.31
363.908	3.31
364.357	3.3
364.806	3.31
365.255	3.32
365.703	3.32
366.152	3.33
366.601	3.35
367.05	3.36
367.498	3.36
367.947	3.37
368.395	3.38
368.844	3.39
369.292	3.41
369.74	3.42
370.189	3.41
370.637	3.42
371.085	3.43
371.533	3.43
371.981	3.43
372.429	3.44
372.877	3.45
373.325	3.45
373.773	3.46
374.221	3.47
374.669	3.48
375.116	3.49
375.564	3.5
376.012	3.52
376.459	3.53
376.907	3.55
377.354	3.58
377.801	3.6
378.249	3.62
378.696	3.65
379.143	3.66
379.591	3.68
380.038	3.71
380.485	3.72
380.932	3.75
381.379	3.76
381.826	3.78
382.273	3.78
382.72	3.8
383.166	3.82
383.613	3.83
384.06	3.84
384.506	3.85
384.953	3.86
385.4	3.89
385.846	3.9
386.292	3.91
386.739	3.93
387.185	3.96
387.631	3.97
388.078	3.99
388.524	3.99
388.97	3.99
389.416	4.01
389.862	4.03
390.308	4.03
390.754	4.06
391.2	4.08
391.645	4.11
392.091	4.13
392.537	4.15
392.983	4.18
393.428	4.21
393.874	4.25
394.319	4.28
394.765	4.29
395.21	4.3
395.655	4.32
396.101	4.34
396.546	4.34
396.991	4.34
397.436	4.34
397.881	4.36
398.326	4.37
398.771	4.38
399.216	4.41
399.661	4.43
400.106	4.44
400.551	4.44
400.995	4.43
401.44	4.43
401.885	4.44
402.329	4.46
402.774	4.44
403.218	4.46
403.663	4.44
404.107	4.44
404.551	4.44
404.995	4.44
405.44	4.45
405.884	4.46
406.328	4.46
406.772	4.47
407.216	4.47
407.66	4.49
408.104	4.49
408.547	4.5
408.991	4.5
409.435	4.5
409.879	4.51
410.322	4.51
410.766	4.53
411.209	4.55
411.653	4.55
412.096	4.56
412.54	4.56
412.983	4.57
413.426	4.6
413.869	4.63
414.312	4.65
414.756	4.68
415.199	4.71
415.642	4.73
416.085	4.75
416.527	4.77
416.97	4.77
417.413	4.76
417.856	4.76
418.298	4.74
418.741	4.72
419.184	4.72
419.626	4.7
420.069	4.68
420.511	4.67
420.953	4.65
421.396	4.65
421.838	4.68
422.28	4.71
422.722	4.72
423.164	4.73
423.606	4.74
424.048	4.72
424.49	4.73
424.932	4.73
425.374	4.73
425.816	4.71
426.258	4.69
426.699	4.65
427.141	4.62
427.582	4.61
428.024	4.62
428.465	4.63
428.907	4.65
429.348	4.65
429.789	4.67
430.231	4.69
430.672	4.72
431.113	4.76
431.554	4.79
431.995	4.83
432.436	4.85
432.877	4.84
433.318	4.85
433.759	4.86
434.2	4.88
434.64	4.9
435.081	4.9
435.522	4.94
435.962	4.96
436.403	4.98
436.843	4.99
437.284	5
437.724	5.04
438.164	5.06
438.604	5.08
439.045	5.1
439.485	5.1
439.925	5.12
440.365	5.1
440.805	5.09
441.245	5.09
441.685	5.11
442.125	5.13
442.564	5.15
443.004	5.15
443.444	5.18
443.883	5.19
444.323	5.19
444.762	5.22
445.202	5.26
445.641	5.28
446.081	5.32
446.52	5.33
446.959	5.35
447.398	5.39
447.837	5.42
448.276	5.41
448.716	5.44
449.154	5.47
449.593	5.49
450.032	5.48
450.471	5.5
450.91	5.48
451.349	5.49
451.787	5.48
452.226	5.45
452.664	5.42
453.103	5.39
453.541	5.37
453.98	5.33
454.418	5.3
454.856	5.27
455.295	5.24
455.733	5.22
456.171	5.19
456.609	5.17
457.047	5.15
457.485	5.14
457.923	5.15
458.361	5.13
458.798	5.14
459.236	5.14
459.674	5.15
460.111	5.15
460.549	5.13
460.987	5.14
461.424	5.13
461.862	5.13
462.299	5.13
462.736	5.12
463.173	5.13
463.611	5.12
464.048	5.12
464.485	5.11
464.922	5.1
465.359	5.14
465.796	5.14
466.233	5.17
466.67	5.18
467.106	5.17
467.543	5.17
467.98	5.16
468.416	5.17
468.853	5.17
469.29	5.18
469.726	5.19
470.162	5.16
470.599	5.13
471.035	5.13
471.471	5.12
471.907	5.14
472.344	5.13
472.78	5.14
473.216	5.15
473.652	5.13
474.088	5.12
474.523	5.1
474.959	5.1
475.395	5.11
475.831	5.1
476.266	5.09
476.702	5.07
477.138	5.05
477.573	5.03
478.008	5.01
478.444	5
478.879	4.98
479.314	4.97
479.75	4.96
480.185	4.94
480.62	4.92
481.055	4.9
481.49	4.88
481.925	4.87
482.36	4.85
482.795	4.84
483.229	4.81
483.664	4.8
484.099	4.79
484.534	4.79
484.968	4.77
485.403	4.76
485.837	4.75
486.271	4.75
486.706	4.74
487.14	4.75
487.574	4.75
488.009	4.75
488.443	4.76
488.877	4.76
489.311	4.76
489.745	4.79
490.179	4.8
490.613	4.82
491.046	4.84
491.48	4.86
491.914	4.87
492.348	4.9
492.781	4.93
493.215	4.96
493.648	4.99
494.082	5.03
494.515	5.05
494.948	5.09
495.382	5.13
495.815	5.17
496.248	5.22
496.681	5.26
497.114	5.3
497.547	5.34
497.98	5.39
498.413	5.44
498.846	5.49
499.279	5.55
499.711	5.61
500.144	5.67
500.577	5.73
501.009	5.8
501.442	5.88
501.874	5.96
502.306	6.05
502.739	6.13
503.171	6.23
503.603	6.33
504.036	6.44
504.468	6.55
504.9	6.68
505.332	6.81
505.764	6.94
506.196	7.08
506.627	7.23
507.059	7.37
507.491	7.54
507.923	7.7
508.354	7.87
508.786	8.05
509.217	8.23
509.649	8.42
510.08	8.61
510.512	8.81
510.943	9.03
511.374	9.24
511.805	9.46
512.237	9.69
512.668	9.91
513.099	10.16
513.53	10.41
513.961	10.67
514.391	10.92
514.822	11.19
515.253	11.45
515.684	11.71
516.114	12
516.545	12.27
516.975	12.56
517.406	12.86
517.836	13.13
518.267	13.43
518.697	13.72
519.127	14.01
519.558	14.31
519.988	14.61
520.418	14.9
520.848	15.2
521.278	15.51
521.708	15.67
522.138	15.94
522.567	16.24
522.997	16.51
523.427	16.77
523.857	17.05
524.286	17.29
524.716	17.56
525.145	17.81
525.575	18.05
526.004	18.27
526.433	18.64
526.863	18.88
527.292	19.1
527.721	19.3
528.15	19.51
528.579	19.7
529.008	19.9
529.437	20.07
529.866	20.22
530.295	20.39
530.724	20.58
531.152	20.73
531.581	20.87
532.01	21
532.438	21.14
532.867	21.25
533.295	21.37
533.723	21.49
534.152	21.61
534.58	21.72
535.008	21.79
535.436	21.86
535.865	21.91
536.293	21.98
536.721	22.06
537.149	22.11
537.576	22.17
538.004	22.23
538.432	22.27
538.86	22.3
539.287	22.35
539.715	22.42
540.143	22.45
540.57	22.5
540.998	22.54
541.425	22.57
541.852	22.6
542.28	22.61
542.707	22.65
543.134	22.68
543.561	22.71
543.988	22.75
544.415	22.77
544.842	22.81
545.269	22.85
545.696	22.9
546.123	22.94
546.549	22.98
546.976	23.04
547.403	23.06
547.829	23.08
548.256	23.11
548.682	23.13
549.108	23.14
549.535	23.15
549.961	23.15
550.387	23.15
550.813	23.15
551.24	23.16
551.666	23.16
552.092	23.17
552.518	23.16
552.943	23.16
553.369	23.14
553.795	23.12
554.221	23.09
554.646	23.07
555.072	23.03
555.498	22.98
555.923	22.93
556.349	22.86
556.774	22.8
557.199	22.73
557.625	22.64
558.05	22.54
558.475	22.46
558.9	22.38
559.325	22.28
559.75	22.17
560.175	22.04
560.6	21.92
561.025	21.81
561.449	21.66
561.874	21.53
562.299	21.39
562.723	21.25
563.148	21.1
563.572	20.94
563.997	20.78
564.421	20.62
564.846	20.45
565.27	20.27
565.694	20.08
566.118	19.9
566.542	19.71
566.966	19.53
567.39	19.35
567.814	19.15
568.238	18.95
568.662	18.76
569.086	18.56
569.509	18.37
569.933	18.17
570.357	18
570.78	17.82
571.204	17.65
571.627	17.48
572.05	17.32
572.474	17.16
572.897	17.02
573.32	16.87
573.743	16.72
574.166	16.59
574.589	16.46
575.012	16.32
575.435	16.2
575.858	16.09
576.281	15.97
576.704	15.85
577.126	15.74
577.549	15.63
577.972	15.54
578.394	15.46
578.817	15.35
579.239	15.25
579.661	15.17
580.084	15.08
580.506	14.99
580.928	14.9
581.35	14.82
581.772	14.75
582.194	14.67
582.616	14.58
583.038	14.5
583.46	14.44
583.882	14.37
584.303	14.3
584.725	14.23
585.147	14.15
585.568	14.06
585.99	14
586.411	13.93
586.833	13.87
587.254	13.81
587.675	13.74
588.096	13.67
588.518	13.62
588.939	13.57
589.36	13.52
589.781	13.47
590.202	13.44
590.623	13.39
591.043	13.33
591.464	13.3
591.885	13.25
592.305	13.23
592.726	13.18
593.147	13.15
593.567	13.1
593.987	13.07
594.408	13.05
594.828	13.01
595.248	12.99
595.669	12.97
596.089	12.92
596.509	12.89
596.929	12.84
597.349	12.8
597.769	12.76
598.189	12.72
598.608	12.67
599.028	12.62
599.448	12.58
599.867	12.53
600.287	12.46
600.706	12.43
601.126	12.36
601.545	12.32
601.965	12.25
602.384	12.22
602.803	12.15
603.222	12.09
603.641	12.03
604.061	11.98
604.48	11.91
604.898	11.85
605.317	11.79
605.736	11.72
606.155	11.67
606.574	11.61
606.992	11.53
607.411	11.49
607.829	11.38
608.248	11.33
608.666	11.26
609.085	11.2
609.503	11.13
609.921	11.06
610.339	11.01
610.758	10.94
611.176	10.88
611.594	10.82
612.012	10.75
612.43	10.74
612.847	10.65
613.265	10.6
613.683	10.53
614.101	10.47
614.518	10.4
614.936	10.33
615.353	10.25
615.771	10.19
616.188	10.14
616.606	10.1
617.023	10.04
617.44	9.99
617.857	9.94
618.274	9.9
618.691	9.85
619.108	9.83
619.525	9.79
619.942	9.77
620.359	9.74
620.776	9.71
621.192	9.67
621.609	9.64
622.026	9.63
622.442	9.61
622.859	9.6
623.275	9.59
623.691	9.56
624.108	9.56
624.524	9.56
624.94	9.55
625.356	9.53
625.772	9.52
626.188	9.53
626.604	9.51
627.02	9.5
627.436	9.48
627.852	9.47
628.268	9.47
628.683	9.44
629.099	9.42
629.514	9.4
629.93	9.38
630.345	9.36
630.761	9.32
631.176	9.3
631.591	9.26
632.007	9.22
632.422	9.17
632.837	9.12
633.252	9.08
633.667	9.03
634.082	8.96
634.497	8.89
634.911	8.82
635.326	8.76
635.741	8.67
636.155	8.6
636.57	8.51
636.984	8.4
637.399	8.3
637.813	8.2
638.228	8.1
638.642	8.02
639.056	7.92
639.47	7.82
639.884	7.72
640.298	7.63
640.712	7.53
641.126	7.43
641.54	7.34
641.954	7.28
642.368	7.19
642.781	7.1
643.195	7
643.609	6.92
644.022	6.84
644.436	6.75
644.849	6.68
645.262	6.61
645.676	6.55
646.089	6.49
646.502	6.42
646.915	6.37
647.328	6.34
647.741	6.3
648.154	6.26
648.567	6.23
648.98	6.23
649.393	6.2
649.805	6.18
650.218	6.16
650.631	6.14
651.043	6.14
651.456	6.12
651.868	6.09
652.28	6.07
652.693	6.04
653.105	6
653.517	5.97
653.929	5.95
654.341	5.93
654.753	5.89
655.165	5.86
655.577	5.82
655.989	5.77
656.401	5.74
656.813	5.71
657.224	5.68
657.636	5.64
658.047	5.6
658.459	5.57
658.87	5.52
659.282	5.48
659.693	5.45
660.104	5.42
660.515	5.39
660.926	5.36
661.338	5.32
661.749	5.29
662.159	5.26
662.57	5.22
662.981	5.19
663.392	5.15
663.803	5.13
664.213	5.1
664.624	5.09
665.035	5.05
665.445	5.03
665.855	5.02
666.266	5
666.676	5
667.086	4.99
667.497	4.97
667.907	4.96
668.317	4.95
668.727	4.97
669.137	4.97
669.547	4.98
669.956	5
670.366	5.02
670.776	5.03
671.186	5.04
671.595	5.07
672.005	5.1
672.414	5.12
672.824	5.15
673.233	5.16
673.642	5.19
674.052	5.21
674.461	5.24
674.87	5.26
675.279	5.3
675.688	5.33
676.097	5.37
676.506	5.4
676.915	5.45
677.323	5.49
677.732	5.54
678.141	5.58
678.549	5.63
678.958	5.68
679.366	5.72
679.775	5.79
680.183	5.85
680.592	5.9
681	5.96
681.408	6.02
681.816	6.09
682.224	6.17
682.632	6.26
683.04	6.33
683.448	6.43
683.856	6.53
684.264	6.64
684.671	6.76
685.079	6.93
685.487	7.1
685.894	7.29
686.302	7.49
686.709	7.71
687.116	7.95
687.524	8.22
687.931	8.5
688.338	8.82
688.745	9.16
689.152	9.53
689.559	9.91
689.966	10.32
690.373	10.76
690.78	11.23
691.187	11.72
691.593	12.24
692	12.77
692.407	13.36
692.813	13.95
693.22	14.55
693.626	15.17
694.032	15.82
694.439	16.5
694.845	17.17
695.251	17.84
695.657	18.53
696.063	19.23
696.469	19.94
696.875	20.61
697.281	21.31
697.687	22.04
698.093	22.76
698.498	23.46
698.904	24.13
699.31	24.83
699.715	25.52
700.12	26.2
700.526	26.88
700.931	27.56
701.337	28.25
701.742	28.91
702.147	29.55
702.552	30.2
702.957	30.85
703.362	31.52
703.767	32.14
704.172	32.77
704.577	33.4
704.981	34.05
705.386	34.66
705.791	35.26
706.195	35.84
706.6	36.43
707.004	37.01
707.408	37.58
707.813	38.12
708.217	38.69
708.621	39.25
709.025	39.8
709.43	40.31
709.834	40.86
710.237	41.39
710.641	41.94
711.045	42.45
711.449	42.93
711.853	43.42
712.256	43.95
712.66	44.45
713.064	44.94
713.467	45.41
713.87	45.9
714.274	46.42
714.677	46.91
715.08	47.36
715.484	47.86
715.887	48.35
716.29	48.82
716.693	49.22
717.096	49.65
717.499	50.09
717.901	50.5
718.304	50.9
718.707	51.24
719.109	51.61
719.512	52.02
719.915	52.38
720.317	52.71
720.719	53.07
721.122	53.45
721.524	53.83
721.926	54.18
722.328	54.53
722.731	54.85
723.133	55.21
723.535	55.55
723.937	55.85
724.338	56.13
724.74	56.44
725.142	56.69
725.544	56.94
725.945	57.18
726.347	57.41
726.748	57.64
727.15	57.89
727.551	58.13
727.952	58.32
728.354	58.53
728.755	58.73
729.156	58.95
729.557	59.17
729.958	59.37
730.359	59.55
730.76	59.73
731.161	59.93
731.562	60.12
731.962	60.28
732.363	60.4
732.763	60.57
733.164	60.74
733.564	60.84
733.965	60.96
734.365	61.07
734.766	61.2
735.166	61.3
735.566	61.39
735.966	61.46
736.366	61.54
736.766	61.67
737.166	61.76
737.566	61.82
737.966	61.92
738.365	62.02
738.765	62.13
739.165	62.19
739.564	62.26
739.964	62.34
740.363	62.39
740.763	62.47
741.162	62.5
741.561	62.57
741.96	62.66
742.36	62.71
742.759	62.75
743.158	62.74
743.557	62.8
743.955	62.9
744.354	62.96
744.753	63.04
745.152	63.09
745.55	63.17
745.949	63.19
746.348	63.2
746.746	63.25
747.144	63.33
747.543	63.39
747.941	63.47
748.339	63.52
748.737	63.57
749.136	63.59
749.534	63.63
749.932	63.65
750.33	63.7
750.727	63.74
751.125	63.76
751.523	63.75
751.921	63.77
752.318	63.76
752.716	63.72
753.113	63.74
753.511	63.73
753.908	63.69
754.305	63.65
754.703	63.63
755.1	63.61
755.497	63.6
755.894	63.59
756.291	63.55
756.688	63.55
757.085	63.56
757.482	63.55
757.878	63.56
758.275	63.58
758.672	63.65
759.068	63.67
759.465	63.69
759.861	63.68
760.258	63.68
760.654	63.71
761.05	63.69
761.447	63.67
761.843	63.63
762.239	63.59
762.635	63.57
763.031	63.51
763.427	63.49
763.822	63.46
764.218	63.47
764.614	63.47
765.01	63.47
765.405	63.43
765.801	63.46
766.196	63.45
766.592	63.49
766.987	63.48
767.382	63.53
767.778	63.56
768.173	63.56
768.568	63.54
768.963	63.53
769.358	63.51
769.753	63.55
770.148	63.54
770.542	63.56
770.937	63.54
771.332	63.54
771.726	63.48
772.121	63.42
772.515	63.43
772.91	63.41
773.304	63.41
773.699	63.41
774.093	63.37
774.487	63.36
774.881	63.33
775.275	63.34
775.669	63.37
776.063	63.37
776.457	63.37
776.851	63.36
777.245	63.42
777.638	63.43
778.032	63.45
778.425	63.48
778.819	63.51
779.212	63.5
779.606	63.51
779.999	63.47
780.392	63.53
780.786	63.55
781.179	63.56
781.572	63.54
781.965	63.56
782.358	63.54
782.751	63.56
783.143	63.58
783.536	63.65
783.929	63.63
784.322	63.69
784.714	63.68
785.107	63.69
785.499	63.7
785.891	63.72
786.284	63.7
786.676	63.74
787.068	63.73
787.46	63.7
787.852	63.7
788.245	63.75
788.636	63.73
789.028	63.73
789.42	63.69
789.812	63.68
790.204	63.63
790.595	63.7
790.987	63.7
791.378	63.72
791.77	63.8
792.161	63.78
792.553	63.77
792.944	63.79
793.335	63.8
793.726	63.83
794.117	63.82
794.508	63.89
794.899	63.85
795.29	63.85
795.681	63.83
796.072	63.79
796.463	63.78
796.853	63.78
797.244	63.8
797.634	63.79
798.025	63.84
798.415	63.89
798.806	63.89
799.196	63.96
799.586	63.98
799.976	64
800.366	64.03
800.756	64.04
801.146	64.04
801.536	64.04
801.926	64.06
802.316	64.04
802.706	64.06
803.095	64.07
803.485	64.05
803.874	64.06
804.264	64.09
804.653	64.06
805.043	64.08
805.432	64.08
805.821	64.08
806.21	64.14
806.599	64.22
806.988	64.21
807.377	64.25
807.766	64.25
808.155	64.26
808.544	64.24
808.933	64.3
809.321	64.35
809.71	64.44
810.098	64.47
810.487	64.46
810.875	64.41
811.264	64.46
811.652	64.48
812.04	64.5
812.428	64.53
812.816	64.6
813.204	64.61
813.592	64.57
813.98	64.55
814.368	64.58
814.756	64.63
815.144	64.66
815.531	64.62
815.919	64.62
816.306	64.63
816.694	64.63
817.081	64.58
817.469	64.6
817.856	64.67
818.243	64.66
818.63	64.72
819.017	64.7
819.404	64.68
819.791	64.7
820.178	64.69
820.565	64.7
820.952	64.7
821.339	64.77
821.725	64.78
822.112	64.75
822.498	64.76
822.885	64.71
823.271	64.71
823.657	64.72
824.044	64.7
824.43	64.7
824.816	64.69
825.202	64.7
825.588	64.67
825.974	64.66
826.36	64.66
826.746	64.68
827.132	64.64
827.517	64.59
827.903	64.61
828.289	64.64
828.674	64.62
829.06	64.64
829.445	64.64
829.83	64.63
830.216	64.62
830.601	64.59
830.986	64.56
831.371	64.6
831.756	64.59
832.141	64.56
832.526	64.53
832.911	64.54
833.295	64.52
833.68	64.5
834.065	64.5
834.449	64.47
834.834	64.45
835.218	64.4
835.603	64.37
835.987	64.35
836.371	64.39
836.755	64.35
837.139	64.35
837.524	64.28
837.908	64.22
838.291	64.18
838.675	64.18
839.059	64.17
839.443	64.17
839.827	64.14
840.21	64.19
840.594	64.14
840.977	64.13
841.361	64.1
841.744	64.14
842.127	64.16
842.511	64.18
842.894	64.14
843.277	64.13
843.66	64.11
844.043	64.09
844.426	64.03
844.809	64
845.191	63.99
845.574	63.97
845.957	63.94
846.339	63.94
846.722	63.92
847.104	63.94
847.487	63.98
847.869	63.99
848.252	63.99
848.634	64.01
849.016	64.04
849.398	64.05
849.78	64.07
850.162	64.06
850.544	64.08
850.926	64.07
851.307	64.03
851.689	63.99
852.071	63.98
852.452	64
852.834	64
853.215	64.01
853.597	64
853.978	63.97
854.359	63.98
854.741	63.94
855.122	63.96
855.503	64
855.884	64
856.265	63.99
856.646	63.95
857.026	63.96
857.407	63.92
857.788	63.93
858.169	63.92
858.549	63.95
858.93	63.97
859.31	63.94
859.69	63.91
860.071	63.9
860.451	63.91
860.831	63.97
861.211	63.95
861.591	63.98
861.971	63.94
862.351	63.97
862.731	63.94
863.111	63.96
863.491	64
863.87	64.01
864.25	64.06
864.629	64.03
865.009	64
865.388	63.99
865.768	63.99
866.147	64.01
866.526	64.02
866.905	64.02
867.284	64.04
867.663	64.03
868.042	64.02
868.421	63.99
868.8	63.99
869.179	64.04
869.558	64.04
869.936	64.04
870.315	64.06
870.693	64.05
871.072	64.04
871.45	63.99
871.828	64
872.207	64.03
872.585	64.03
872.963	64.02
873.341	63.99
873.719	63.99
874.097	64.01
874.475	63.98
874.853	63.99
875.23	64
875.608	64.04
875.986	63.98
876.363	63.93
876.741	63.93
877.118	63.96
877.495	63.91
877.873	63.9
878.25	63.86
878.627	63.87
879.004	63.86
879.381	63.85
879.758	63.77
880.135	63.8
880.512	63.82
880.889	63.85
881.265	63.85
881.642	63.84
882.019	63.86
882.395	63.83
882.772	63.79
883.148	63.78
883.524	63.76
883.901	63.76
884.277	63.73
884.653	63.72
885.029	63.71
885.405	63.7
885.781	63.68
886.157	63.68
886.532	63.67
886.908	63.69
887.284	63.69
887.659	63.72
888.035	63.71
888.411	63.68
888.786	63.67
889.161	63.63
889.537	63.61
889.912	63.61
890.287	63.56
890.662	63.58
891.037	63.52
891.412	63.46
891.787	63.4
892.162	63.36
892.536	63.35
892.911	63.31
893.286	63.26
893.66	63.21
894.035	63.16
894.409	63.16
894.784	63.1
895.158	63.1
895.532	63.05
895.906	63.04
896.281	63.05
896.655	63.04
897.029	63.05
897.402	63.06
897.776	63.08
898.15	63.11
898.524	63.11
898.898	63.09
899.271	63.08
899.645	63.14
900.018	63.14
900.392	63.15
900.765	63.17
901.138	63.18
901.511	63.18
901.884	63.17
902.258	63.16
902.631	63.19
903.003	63.23
903.376	63.24
903.749	63.25
904.122	63.29
904.495	63.3
904.867	63.28
905.24	63.27
905.612	63.26
905.985	63.27
906.357	63.27
906.729	63.21
907.102	63.21
907.474	63.22
907.846	63.21
908.218	63.16
908.59	63.11
908.962	63.12
909.334	63.1
909.705	63.11
910.077	63.06
910.449	63.08
910.82	63.09
911.192	63.07
911.563	63.11
911.935	63.09
912.306	63.09
912.677	63.14
913.048	63.14
913.419	63.17
913.79	63.19
914.161	63.18
914.532	63.17
914.903	63.19
915.274	63.18
915.645	63.17
916.015	63.16
916.386	63.17
916.756	63.14
917.127	63.14
917.497	63.13
917.868	63.1
918.238	63.15
918.608	63.15
918.978	63.15
919.348	63.11
919.718	63.09
920.088	63.11
920.458	63.15
920.828	63.17
921.198	63.19
921.567	63.16
921.937	63.19
922.306	63.17
922.676	63.21
923.045	63.2
923.415	63.22
923.784	63.21
924.153	63.2
924.522	63.18
924.891	63.14
925.26	63.11
925.629	63.12
925.998	63.15
926.367	63.14
926.736	63.08
927.104	63.05
927.473	63.13
927.842	63.13
928.21	63.17
928.578	63.13
928.947	63.16
929.315	63.16
929.683	63.19
930.051	63.14
930.42	63.16
930.788	63.17
931.156	63.16
931.523	63.11
931.891	63.11
932.259	63.05
932.627	63.03
932.994	62.96
933.362	62.89
933.729	62.8
934.097	62.76
934.464	62.71
934.831	62.65
935.199	62.6
935.566	62.51
935.933	62.47
936.3	62.39
936.667	62.38
937.034	62.4
937.401	62.45
937.767	62.44
938.134	62.5
938.501	62.47
938.867	62.56
939.234	62.7
939.6	62.81
939.967	62.83
940.333	63
940.699	63.12
941.065	63.16
941.431	63.29
941.798	63.45
942.163	63.48
942.529	63.66
942.895	63.79
943.261	63.83
943.627	64.02
943.992	64.06
944.358	64.06
944.723	64.08
945.089	64.18
945.454	64.21
945.82	64.15
946.185	64.21
946.55	64.25
946.915	64.13
947.28	64.12
947.645	64
948.01	64.03
948.375	64.1
948.74	64.02
949.104	63.95
949.469	63.82
949.834	63.78
950.198	63.63
950.562	63.48
950.927	63.43
951.291	63.36
951.655	63.37
952.02	63.32
952.384	63.26
952.748	63.21
953.112	63.17
953.476	63.15
953.839	63.11
954.203	63.11
954.567	63.05
954.931	63.01
955.294	62.96
955.658	62.79
956.021	62.73
956.385	62.63
956.748	62.62
957.111	62.52
957.474	62.55
957.837	62.53
958.2	62.47
958.563	62.45
958.926	62.36
959.289	62.34
959.652	62.39
960.015	62.31
960.377	62.31
960.74	62.28
961.102	62.35
961.465	62.31
961.827	62.18
962.189	62.14
962.552	62.11
962.914	62.13
963.276	62.15
963.638	62.03
964	62.05
964.362	62
964.724	61.97
965.085	61.86
965.447	61.72
965.809	61.74
966.17	61.79
966.532	61.77
966.893	61.72
967.255	61.57
967.616	61.65
967.977	61.63
968.338	61.6
968.699	61.53
969.061	61.55
969.421	61.58
969.782	61.64
970.143	61.52
970.504	61.52
970.865	61.48
971.225	61.48
971.586	61.51
971.946	61.53
972.307	61.55
972.667	61.63
973.027	61.63
973.388	61.62
973.748	61.6
974.108	61.65
974.468	61.67
974.828	61.75
975.188	61.85
975.548	61.8
975.907	61.78
976.267	61.77
976.627	61.75
976.986	61.74
977.346	61.8
977.705	61.84
978.064	61.81
978.424	61.76
978.783	61.79
979.142	61.78
979.501	61.69
979.86	61.71
980.219	61.62
980.578	61.57
980.937	61.6
981.296	61.62
981.654	61.71
982.013	61.84
982.371	61.87
982.73	61.82
983.088	61.77
983.447	61.84
983.805	61.85
984.163	62
984.521	61.96
984.879	61.94
985.237	61.98
985.595	61.98
985.953	61.85
986.311	61.93
986.669	61.96
987.026	62.09
987.384	62.09
987.741	62.2
988.099	62.13
988.456	62.23
988.814	62.3
989.171	62.28
989.528	62.18
989.885	62.29
990.242	62.33
990.599	62.38
990.956	62.41
991.313	62.58
991.67	62.56
992.027	62.65
992.383	62.79
992.74	62.79
993.096	62.76
993.453	62.8
993.809	62.84
994.165	62.85
994.522	62.89
994.878	62.89
995.234	62.85
995.59	62.67
995.946	62.8
996.302	62.54
996.658	62.54
997.013	62.63
997.369	62.66
997.725	62.72
998.08	62.8
998.436	62.91
998.791	62.83
999.147	62.82
999.502	63.09
999.857	63.04
1000.212	63.28
1000.567	63.39
1000.922	63.5
1001.277	63.52
1001.632	63.61
1001.987	63.55
1002.342	63.58
1002.696	63.76
1003.051	63.71
1003.406	63.77
1003.76	63.81
1004.114	63.94
1004.469	63.91
1004.823	63.93
1005.177	64.15
1005.531	63.95
1005.885	64.02
1006.239	64.04
1006.593	64.06
1006.947	64.2
1007.301	64.34
1007.655	64.45
1008.008	64.3
1008.362	64.38
1008.715	64.41
1009.069	64.21
1009.422	64.33
1009.776	64.5
1010.129	64.49
1010.482	64.54
1010.835	64.69
1011.188	64.51
1011.541	64.6
1011.894	64.84
1012.247	64.91
1012.6	64.92
1012.952	65.09
1013.305	65.35
1013.657	65.51
1014.01	65.84
1014.362	66.14
1014.715	66
1015.067	66.12
1015.419	66.17
1015.771	66.35
1016.123	66.53
1016.475	66.85
1016.827	67.14
1017.179	67.1
1017.531	67.08
1017.883	67.09
1018.234	66.98
1018.586	67.41
1018.938	67.3
1019.289	67.47
1019.64	67.55
1019.992	67.6
1020.343	67.36
1020.694	67.35
1021.045	67.43
1021.396	67.33
1021.747	67.21
1022.098	67.4
1022.449	67.28
1022.8	67.87
1023.151	68.13
1023.501	68.22
1023.852	68.53
1024.202	68.72
1024.553	68.76
1024.903	69.17
1025.253	69.67
1025.604	69.88
1025.954	69.52
1026.304	69.95
1026.654	69.93
1027.004	69.79
1027.354	70
1027.703	70.28
1028.053	70.21
1028.403	70.06
1028.753	70.31
1029.102	70.42
1029.452	70.72
1029.801	71.54
1030.15	71.47
1030.499	71.6
897.758	641.91
901.051	657.13
904.343	660.82
907.636	648.54
910.928	638.04
914.22	650.24
917.511	632.3
920.803	604.35
924.094	578.91
927.384	585.98
930.675	570.43
933.965	564.91
937.255	560.55
940.544	536.31
943.834	519.4
947.123	511.06
950.411	482.55
953.7	477.01
956.988	461.08
960.276	442.21
963.563	434.4
966.851	411.83
970.138	404.82
973.424	379.34
976.711	375
979.997	356.05
983.283	349.2
986.568	337.94
989.853	329.86
993.138	318.92
996.423	313.23
999.708	304.99
1002.992	307.53
1006.275	295.85
1009.559	292.33
1012.842	285.05
1016.125	278.69
1019.408	274.09
1022.69	270.77
1025.972	268.03
1029.254	260.72
1032.536	257
1035.817	248.87
1039.098	244.11
1042.379	241.35
1045.659	238.3
1048.939	234.57
1052.219	231.53
1055.498	226.86
1058.778	224.67
1062.057	220.98
1065.335	220.22
1068.614	216.3
1071.892	214.33
1075.17	209.53
1078.447	206.24
1081.724	205.14
1085.001	200.84
1088.278	201.11
1091.554	199.51
1094.83	198.29
1098.106	194.64
1101.382	194.18
1104.657	192.99
1107.932	191.76
1111.206	191.72
1114.481	189.96
1117.755	188.58
1121.029	188.56
1124.302	185.2
1127.575	182.25
1130.848	181.1
1134.121	179.66
1137.393	178.44
1140.665	178.23
1143.937	177.04
1147.208	173.75
1150.48	172.37
1153.75	171.02
1157.021	169.63
1160.291	168.3
1163.561	168.76
1166.831	166.97
1170.101	165.93
1173.37	164.95
1176.639	163.2
1179.907	163.03
1183.176	163.54
1186.444	163.14
1189.711	161.99
1192.979	163.89
1196.246	164.14
1199.513	164.01
1202.78	163.88
1206.046	164.24
1209.312	165.01
1212.578	165.25
1215.843	167.1
1219.108	168.38
1222.373	171.55
1225.638	174.15
1228.902	176.65
1232.166	182.34
1235.43	184.89
1238.693	190.19
1241.956	195.35
1245.219	199.31
1248.482	201.47
1251.744	200.94
1255.006	200.51
1258.268	194.93
1261.529	193.57
1264.79	189.3
1268.051	185.51
1271.312	183.61
1274.572	179.85
1277.832	174.69
1281.092	173.06
1284.351	169.67
1287.61	169.6
1290.869	168.4
1294.128	168.33
1297.386	167.72
1300.644	167.36
1303.902	166.01
1307.159	164.24
1310.416	165.37
1313.673	167.75
1316.93	168.62
1320.186	170.87
1323.442	172.44
1326.697	175.75
1329.953	177.85
1333.208	182.55
1336.463	188.55
1339.717	192.31
1342.972	202.06
1346.226	206.42
1349.479	207.57
1352.733	216.14
1355.986	222.97
1359.238	227.31
1362.491	228.97
1365.743	236.26
1368.995	238.77
1372.247	241.19
1375.498	240.16
1378.749	248.43
1382	248.51
1385.251	247.84
1388.501	246.7
1391.751	247.5
1395	244.4
1398.25	248.39
1401.499	247.91
1404.748	246.81
1407.996	237.89
1411.244	238.58
1414.492	232.88
1417.74	228.24
1420.987	221.82
1424.234	218.8
1427.481	209.51
1430.728	205.45
1433.974	197.38
1437.22	189.13
1440.465	183.88
1443.711	178.12
1446.956	173.09
1450.201	166.75
1453.445	158.08
1456.689	153.76
1459.933	148.41
1463.177	143.12
1466.42	140.86
1469.663	136.29
1472.906	133.18
1476.148	129.46
1479.391	126.74
1482.633	123.87
1485.874	121.87
1489.115	121.29
1492.356	119.51
1495.597	117.33
1498.838	117.1
1502.078	115.49
1505.318	115.5
1508.557	114.79
1511.797	113.68
1515.036	113.71
1518.274	112.46
1521.513	110.78
1524.751	110.51
1527.989	111.88
1531.227	111.82
1534.464	111.31
1537.701	110.24
1540.938	109.52
1544.174	109.98
1547.41	109.63
1550.646	109.38
1553.882	110.39
1557.117	110.5
1560.352	109.93
1563.587	108.78
1566.821	108.77
1570.055	108.23
1573.289	108.67
1576.523	108.87
1579.756	108.15
1582.989	108.39
1586.222	108.1
1589.454	107.85
1592.686	107.93
1595.918	108.21
1599.15	107.85
1602.381	108.28
1605.612	108.38
1608.843	108.42
1612.073	108.37
1615.303	108.69
1618.533	108.35
1621.762	108.56
1624.992	108.93
1628.221	108.83
1631.449	108.95
1634.678	109.07
1637.906	108.9
1641.134	108.86
1644.361	108.97
1647.588	109.04
1650.815	109.3
1654.042	109.82
1657.269	109.37
1660.495	109.63
1663.72	109.89
1666.946	110.14
1670.171	110.67
1673.396	111.21
1676.621	111.82
1679.845	111.91
1683.069	112.04
1686.293	111.88
1689.517	111.76
1692.74	112.61
1695.963	112.33
1699.185	112.63
1702.408	112.33
1705.63	112.56
1708.852	112.72
1712.073	112.73
1715.294	112.39
1718.515	113.26
1721.736	113.3
1724.956	113.47
1728.176	113.22
1731.396	114.04
1734.616	113.9
1737.835	114.42
1741.054	113.7
1744.272	114.09
1747.491	114.04
1750.709	114.99
1753.927	114.79
1757.144	114.95
1760.361	115.58
1763.578	116.13
1766.795	116.07
1770.011	115.97
1773.227	116.21
1776.443	117.67
1779.658	117.07
1782.874	117.3
1786.089	116.88
1789.303	117.41
1792.518	118.85
1795.732	119.25
1798.945	119.76
1802.159	120.42
1805.372	122.39
1808.585	123.42
1811.797	123.93
1815.01	125.01
1818.222	126.69
1821.434	126.89
1824.645	127.57
1827.856	129.28
1831.067	129.74
1834.278	132.04
1837.488	132.31
1840.698	133.17
1843.908	133.19
1847.117	134.53
1850.326	136.13
1853.535	135.43
1856.744	138.71
1859.952	139.8
1863.16	139.04
1866.368	138.11
1869.575	137.94
1872.782	137.67
1875.989	136.21
1879.196	136.31
1882.402	134.86
1885.608	134.53
1888.814	134.76
1892.019	134.67
1895.224	132.43
1898.429	132.18
1901.634	133.67
1904.838	134.08
1908.042	134.96
1911.246	135.58
1914.449	135.52
1917.652	135.31
1920.855	135.48
1924.058	134.86
1927.26	133.94
1930.462	135.51
1933.664	136.21
1936.865	136.22
1940.066	133.52
1943.267	132.97
1946.467	133.68
1949.668	133.55
1952.868	134.65
1956.067	134.3
1959.267	135.14
1962.466	135.26
1965.665	136.05
1968.863	136.39
1972.061	137.52
1975.259	141.2
1978.457	142.59
1981.654	143.46
1984.852	145.16
1988.048	146.44
1991.245	148.34
1994.441	150.93
1997.637	155
2000.833	156.9
2004.028	159.26
2007.223	163.34
2010.418	165.58
2013.613	171.86
2016.807	176.28
2020.001	180.16
2023.194	184.68
2026.388	192.04
2029.581	202.88
2032.774	207.75
2035.966	214.31
2039.158	219.48
2042.35	224.07
2045.542	229.64
2048.733	240.37
2051.924	240.44
2055.115	246.15
2058.306	248.98
2061.496	254.49
2064.686	250.79
2067.875	248.61
2071.065	252.6
2074.254	253.11
2077.442	258.94
2080.631	261.32
2083.819	260.21
2087.007	270.64
2090.195	271.44
2093.382	272.28
2096.569	271.66
2099.756	278.2
2102.942	285.52
2106.128	289.91
2109.314	292.56
2112.5	292.61
2115.685	291.92
2118.87	291.99
2122.055	291.09
2125.239	298.33
2128.424	304.65
2131.608	302.12
2134.791	302.01
2137.974	302.88
2141.157	304.23
2144.34	307
2147.523	314.49
2150.705	320.26
2153.887	316.83
2157.068	319.01
2160.25	322.13
2163.431	322.41
2166.611	328.57
2169.792	335.32
2172.972	340.15
2176.152	340.75
2179.331	347.13
2182.511	345
2185.69	350.5
2188.868	365.7
2192.047	375.4
2195.225	380.46
2198.403	385.38
2201.58	380.31
2204.758	389.78
2207.935	392.65
2211.111	402.88
2214.288	405.62
2217.464	411.23
2220.64	410.94
2223.815	413.03
2226.991	406.95
2230.166	410.42
2233.34	422.47
2236.515	436.86
2239.689	433.57
2242.863	440.91
2246.036	435.32
2249.209	448.11
2252.382	447.4
2255.555	466.35
2258.727	467.82
2261.9	484.68
2265.071	490.9
2268.243	483.94
2271.414	496.68
2274.585	507.62
2277.756	508.13
2280.926	528.7
2284.096	529.52
2287.266	532.3
2290.436	520.9
2293.605	535.28
2296.774	549.99
2299.942	548.43
2303.111	566.55
2306.279	576.01
2309.447	576.48
2312.614	578.91
2315.781	595.91
2318.948	599.32
2322.115	609.47
2325.281	644.11
2328.447	635.56
2331.613	640.06
2334.779	650.85
2337.944	661.75
2341.109	671.6
2344.274	681.82
2347.438	696.93
2350.602	705.41
2353.766	751.79
2356.929	755.57
2360.092	761.64
2363.255	764.65
2366.418	773.09
2369.58	788.76
2372.742	790.77
2375.904	790.53
2379.066	811.91
2382.227	860.57
2385.388	861.3
2388.548	812.31
2391.709	805.85
2394.869	825.43
2398.029	836.55
2401.188	839.54
2404.347	861.99
2407.506	889.43
2410.665	856.38
2413.823	860.88
2416.981	860.83
2420.139	812.71
2423.296	881.56
2426.453	942.89
2429.61	900.09
2432.767	957.27
2435.923	986.69
2439.079	960.45
2442.235	980.75
2445.391	1001.79
2448.546	987.5
2451.701	1045.98
2454.855	1123.42
2458.009	986.21
2461.163	998.11
2464.317	1016.61
2467.471	993.12
2470.624	1027.34
2473.777	1001.72
2476.929	973.07
2480.082	1040.15
2483.234	1095.83
2486.385	1104.47
2489.537	1130.39
2492.688	1251.54
2495.839	1226.99
2498.989	1263.5
2502.14	1270.84
2505.29	1210.63
2508.439	1345.61
2511.589	1374.56
2514.738	1337.08
2517.887	1326.63
2521.035	1251.3
2524.183	1231.14
2527.331	1219.07
2530.479	1194.47
2533.627	1218.74
