Data from C_3_div_oh_2n_Splice17_15.txt Node
Date: Sat Feb 29 14:39:06 EST 2020
User: sa697716
Spectrometer: FLMS03696
Trigger mode: 0
Integration Time (sec): 3.180400E-1
Scans to average: 20
Electric dark correction enabled: true
Nonlinearity correction enabled: true
Boxcar width: 5
XAxis mode: Wavelengths
Number of Pixels in Spectrum: 2048
>>>>>Begin Spectral Data<<<<<
187.83	71.28
188.298	77.83
188.766	79.05
189.233	68.87
189.701	72.62
190.169	72.64
190.636	70.62
191.104	69.16
191.571	271.96
192.039	238.16
192.506	67.07
192.974	11115.48
193.441	-1221.37
193.908	178.45
194.375	194.2
194.842	210.55
195.31	126.1
195.777	132.83
196.244	3.42
196.711	-13.24
197.177	-17.98
197.644	-18.31
198.111	-20.53
198.578	-20.92
199.045	-20.79
199.511	-19.68
199.978	-18.77
200.445	-18.65
200.911	-18.63
201.378	-18.25
201.844	-18.03
202.31	-17.46
202.777	-17.13
203.243	-16.54
203.709	-15.64
204.176	-15.24
204.642	-15.5
205.108	-15.79
205.574	-15.46
206.04	-15.39
206.506	-15.14
206.972	-14.68
207.438	-14.66
207.903	-13.76
208.369	-13.7
208.835	-13.27
209.301	-12.48
209.766	-11.03
210.232	-10.25
210.697	-9.85
211.163	-9.1
211.628	-8.94
212.094	-8.58
212.559	-8.25
213.024	-8.39
213.49	-7.55
213.955	-6.98
214.42	-6.43
214.885	-6.51
215.35	-5.85
215.815	-4.98
216.28	-4.17
216.745	-2.76
217.21	-1.53
217.675	-0.3
218.14	0.53
218.604	1.24
219.069	1.83
219.534	2.29
219.998	2.76
220.463	3.09
220.927	3.37
221.392	3.6
221.856	3.71
222.32	3.83
222.785	3.94
223.249	4.04
223.713	4.12
224.177	4.13
224.642	4.2
225.106	4.27
225.57	4.31
226.034	4.36
226.497	4.38
226.961	4.43
227.425	4.41
227.889	4.39
228.353	4.39
228.816	4.4
229.28	4.38
229.744	4.37
230.207	4.35
230.671	4.33
231.134	4.3
231.597	4.27
232.061	4.22
232.524	4.21
232.987	4.19
233.45	4.16
233.914	4.14
234.377	4.15
234.84	4.1
235.303	4.06
235.766	4.04
236.229	4.01
236.691	3.99
237.154	3.97
237.617	3.93
238.08	3.9
238.542	3.86
239.005	3.83
239.468	3.78
239.93	3.76
240.393	3.75
240.855	3.71
241.317	3.7
241.78	3.68
242.242	3.66
242.704	3.63
243.166	3.63
243.629	3.61
244.091	3.59
244.553	3.59
245.015	3.59
245.477	3.55
245.939	3.54
246.4	3.51
246.862	3.51
247.324	3.5
247.786	3.5
248.247	3.49
248.709	3.48
249.17	3.47
249.632	3.45
250.093	3.43
250.555	3.43
251.016	3.43
251.477	3.41
251.939	3.39
252.4	3.38
252.861	3.38
253.322	3.35
253.783	3.35
254.244	3.34
254.705	3.34
255.166	3.33
255.627	3.32
256.088	3.3
256.549	3.31
257.009	3.32
257.47	3.31
257.931	3.3
258.391	3.29
258.852	3.28
259.312	3.28
259.773	3.27
260.233	3.25
260.694	3.25
261.154	3.25
261.614	3.23
262.074	3.22
262.534	3.21
262.994	3.21
263.455	3.21
263.915	3.21
264.374	3.21
264.834	3.21
265.294	3.21
265.754	3.19
266.214	3.19
266.673	3.19
267.133	3.19
267.593	3.19
268.052	3.19
268.512	3.18
268.971	3.17
269.431	3.16
269.89	3.15
270.349	3.14
270.809	3.15
271.268	3.14
271.727	3.13
272.186	3.13
272.645	3.12
273.104	3.11
273.563	3.11
274.022	3.12
274.481	3.12
274.94	3.12
275.399	3.12
275.857	3.12
276.316	3.11
276.775	3.1
277.233	3.1
277.692	3.09
278.15	3.08
278.609	3.06
279.067	3.05
279.525	3.03
279.984	3.02
280.442	3.01
280.9	3
281.358	2.99
281.816	2.98
282.274	2.97
282.732	2.97
283.19	2.97
283.648	2.96
284.106	2.95
284.564	2.96
285.021	2.95
285.479	2.96
285.937	2.95
286.394	2.95
286.852	2.95
287.309	2.95
287.767	2.95
288.224	2.95
288.682	2.96
289.139	2.97
289.596	2.96
290.053	2.96
290.511	2.95
290.968	2.96
291.425	2.96
291.882	2.96
292.339	2.96
292.796	2.96
293.252	2.96
293.709	2.95
294.166	2.93
294.623	2.93
295.079	2.93
295.536	2.93
295.992	2.92
296.449	2.92
296.905	2.91
297.362	2.9
297.818	2.89
298.274	2.88
298.731	2.88
299.187	2.88
299.643	2.87
300.099	2.87
300.555	2.85
301.011	2.85
301.467	2.83
301.923	2.83
302.379	2.83
302.835	2.82
303.291	2.81
303.746	2.81
304.202	2.79
304.658	2.78
305.113	2.77
305.569	2.76
306.024	2.75
306.479	2.74
306.935	2.73
307.39	2.71
307.845	2.71
308.301	2.7
308.756	2.7
309.211	2.7
309.666	2.7
310.121	2.69
310.576	2.68
311.031	2.68
311.486	2.67
311.94	2.67
312.395	2.67
312.85	2.66
313.305	2.65
313.759	2.64
314.214	2.63
314.668	2.63
315.123	2.63
315.577	2.62
316.032	2.62
316.486	2.61
316.94	2.61
317.394	2.59
317.849	2.6
318.303	2.59
318.757	2.58
319.211	2.57
319.665	2.57
320.119	2.56
320.572	2.57
321.026	2.57
321.48	2.57
321.934	2.56
322.387	2.56
322.841	2.56
323.295	2.55
323.748	2.55
324.202	2.55
324.655	2.54
325.108	2.53
325.562	2.51
326.015	2.5
326.468	2.49
326.921	2.48
327.374	2.48
327.827	2.47
328.28	2.46
328.733	2.45
329.186	2.44
329.639	2.43
330.092	2.43
330.545	2.43
330.997	2.43
331.45	2.42
331.903	2.42
332.355	2.4
332.808	2.4
333.26	2.4
333.713	2.39
334.165	2.39
334.617	2.39
335.069	2.39
335.522	2.38
335.974	2.37
336.426	2.37
336.878	2.37
337.33	2.37
337.782	2.37
338.234	2.37
338.686	2.37
339.137	2.37
339.589	2.37
340.041	2.37
340.493	2.37
340.944	2.37
341.396	2.38
341.847	2.38
342.299	2.37
342.75	2.36
343.201	2.35
343.653	2.36
344.104	2.35
344.555	2.34
345.006	2.34
345.457	2.35
345.908	2.35
346.359	2.35
346.81	2.35
347.261	2.35
347.712	2.35
348.163	2.35
348.613	2.35
349.064	2.34
349.515	2.34
349.965	2.33
350.416	2.32
350.866	2.32
351.317	2.31
351.767	2.31
352.217	2.31
352.668	2.31
353.118	2.31
353.568	2.31
354.018	2.32
354.468	2.31
354.918	2.32
355.368	2.33
355.818	2.32
356.268	2.32
356.718	2.32
357.168	2.32
357.617	2.31
358.067	2.31
358.517	2.3
358.966	2.3
359.416	2.31
359.865	2.31
360.315	2.31
360.764	2.32
361.213	2.31
361.663	2.31
362.112	2.31
362.561	2.31
363.01	2.32
363.459	2.33
363.908	2.32
364.357	2.32
364.806	2.32
365.255	2.31
365.703	2.3
366.152	2.3
366.601	2.3
367.05	2.3
367.498	2.32
367.947	2.31
368.395	2.31
368.844	2.31
369.292	2.3
369.74	2.3
370.189	2.3
370.637	2.3
371.085	2.3
371.533	2.3
371.981	2.29
372.429	2.27
372.877	2.26
373.325	2.26
373.773	2.25
374.221	2.25
374.669	2.24
375.116	2.24
375.564	2.24
376.012	2.23
376.459	2.22
376.907	2.23
377.354	2.22
377.801	2.22
378.249	2.23
378.696	2.23
379.143	2.22
379.591	2.21
380.038	2.22
380.485	2.21
380.932	2.22
381.379	2.22
381.826	2.2
382.273	2.2
382.72	2.2
383.166	2.2
383.613	2.21
384.06	2.21
384.506	2.21
384.953	2.21
385.4	2.2
385.846	2.19
386.292	2.2
386.739	2.2
387.185	2.21
387.631	2.22
388.078	2.21
388.524	2.19
388.97	2.18
389.416	2.19
389.862	2.19
390.308	2.19
390.754	2.19
391.2	2.2
391.645	2.2
392.091	2.19
392.537	2.18
392.983	2.18
393.428	2.19
393.874	2.2
394.319	2.2
394.765	2.19
395.21	2.18
395.655	2.18
396.101	2.17
396.546	2.15
396.991	2.15
397.436	2.13
397.881	2.13
398.326	2.13
398.771	2.13
399.216	2.13
399.661	2.12
400.106	2.13
400.551	2.12
400.995	2.12
401.44	2.12
401.885	2.13
402.329	2.15
402.774	2.13
403.218	2.11
403.663	2.09
404.107	2.09
404.551	2.09
404.995	2.08
405.44	2.06
405.884	2.06
406.328	2.05
406.772	2.05
407.216	2.03
407.66	2.04
408.104	2.04
408.547	2.05
408.991	2.03
409.435	2.01
409.879	2.01
410.322	2.01
410.766	2
411.209	2
411.653	1.98
412.096	1.97
412.54	1.96
412.983	1.95
413.426	1.94
413.869	1.93
414.312	1.94
414.756	1.94
415.199	1.93
415.642	1.95
416.085	1.94
416.527	1.95
416.97	1.95
417.413	1.95
417.856	1.96
418.298	1.96
418.741	1.97
419.184	1.97
419.626	1.96
420.069	1.96
420.511	1.93
420.953	1.92
421.396	1.93
421.838	1.94
422.28	1.95
422.722	1.94
423.164	1.92
423.606	1.91
424.048	1.9
424.49	1.91
424.932	1.89
425.374	1.9
425.816	1.91
426.258	1.91
426.699	1.89
427.141	1.86
427.582	1.87
428.024	1.88
428.465	1.88
428.907	1.88
429.348	1.87
429.789	1.88
430.231	1.87
430.672	1.85
431.113	1.84
431.554	1.82
431.995	1.82
432.436	1.8
432.877	1.78
433.318	1.76
433.759	1.75
434.2	1.75
434.64	1.73
435.081	1.71
435.522	1.71
435.962	1.72
436.403	1.73
436.843	1.74
437.284	1.75
437.724	1.76
438.164	1.78
438.604	1.79
439.045	1.78
439.485	1.77
439.925	1.76
440.365	1.73
440.805	1.72
441.245	1.69
441.685	1.68
442.125	1.66
442.564	1.65
443.004	1.64
443.444	1.63
443.883	1.63
444.323	1.62
444.762	1.64
445.202	1.66
445.641	1.66
446.081	1.69
446.52	1.67
446.959	1.66
447.398	1.64
447.837	1.67
448.276	1.66
448.716	1.67
449.154	1.68
449.593	1.66
450.032	1.67
450.471	1.67
450.91	1.65
451.349	1.65
451.787	1.68
452.226	1.67
452.664	1.64
453.103	1.64
453.541	1.63
453.98	1.63
454.418	1.63
454.856	1.6
455.295	1.59
455.733	1.61
456.171	1.62
456.609	1.62
457.047	1.63
457.485	1.63
457.923	1.64
458.361	1.65
458.798	1.65
459.236	1.65
459.674	1.65
460.111	1.67
460.549	1.65
460.987	1.66
461.424	1.64
461.862	1.64
462.299	1.64
462.736	1.63
463.173	1.61
463.611	1.6
464.048	1.59
464.485	1.6
464.922	1.58
465.359	1.58
465.796	1.56
466.233	1.57
466.67	1.57
467.106	1.56
467.543	1.56
467.98	1.57
468.416	1.58
468.853	1.58
469.29	1.58
469.726	1.6
470.162	1.59
470.599	1.6
471.035	1.59
471.471	1.59
471.907	1.59
472.344	1.59
472.78	1.59
473.216	1.58
473.652	1.59
474.088	1.61
474.523	1.61
474.959	1.62
475.395	1.62
475.831	1.64
476.266	1.64
476.702	1.65
477.138	1.65
477.573	1.65
478.008	1.66
478.444	1.66
478.879	1.65
479.314	1.65
479.75	1.66
480.185	1.67
480.62	1.67
481.055	1.67
481.49	1.67
481.925	1.67
482.36	1.67
482.795	1.67
483.229	1.68
483.664	1.68
484.099	1.67
484.534	1.66
484.968	1.66
485.403	1.66
485.837	1.66
486.271	1.65
486.706	1.66
487.14	1.66
487.574	1.66
488.009	1.66
488.443	1.66
488.877	1.66
489.311	1.66
489.745	1.67
490.179	1.67
490.613	1.67
491.046	1.68
491.48	1.69
491.914	1.68
492.348	1.68
492.781	1.68
493.215	1.67
493.648	1.68
494.082	1.69
494.515	1.68
494.948	1.67
495.382	1.66
495.815	1.65
496.248	1.64
496.681	1.64
497.114	1.64
497.547	1.63
497.98	1.63
498.413	1.63
498.846	1.62
499.279	1.62
499.711	1.62
500.144	1.63
500.577	1.63
501.009	1.63
501.442	1.62
501.874	1.62
502.306	1.62
502.739	1.6
503.171	1.6
503.603	1.6
504.036	1.6
504.468	1.6
504.9	1.61
505.332	1.61
505.764	1.61
506.196	1.62
506.627	1.61
507.059	1.61
507.491	1.62
507.923	1.62
508.354	1.62
508.786	1.62
509.217	1.61
509.649	1.6
510.08	1.61
510.512	1.6
510.943	1.61
511.374	1.61
511.805	1.61
512.237	1.61
512.668	1.61
513.099	1.61
513.53	1.61
513.961	1.62
514.391	1.61
514.822	1.59
515.253	1.6
515.684	1.58
516.114	1.59
516.545	1.59
516.975	1.59
517.406	1.59
517.836	1.59
518.267	1.58
518.697	1.58
519.127	1.6
519.558	1.61
519.988	1.62
520.418	1.62
520.848	1.62
521.278	1.63
521.708	1.57
522.138	1.58
522.567	1.57
522.997	1.57
523.427	1.57
523.857	1.55
524.286	1.54
524.716	1.54
525.145	1.54
525.575	1.55
526.004	1.54
526.433	1.59
526.863	1.59
527.292	1.6
527.721	1.6
528.15	1.6
528.579	1.6
529.008	1.6
529.437	1.6
529.866	1.6
530.295	1.6
530.724	1.6
531.152	1.61
531.581	1.61
532.01	1.61
532.438	1.62
532.867	1.62
533.295	1.62
533.723	1.63
534.152	1.64
534.58	1.64
535.008	1.64
535.436	1.64
535.865	1.63
536.293	1.64
536.721	1.64
537.149	1.63
537.576	1.64
538.004	1.64
538.432	1.63
538.86	1.62
539.287	1.62
539.715	1.61
540.143	1.61
540.57	1.6
540.998	1.6
541.425	1.6
541.852	1.6
542.28	1.58
542.707	1.59
543.134	1.59
543.561	1.58
543.988	1.59
544.415	1.6
544.842	1.61
545.269	1.62
545.696	1.61
546.123	1.61
546.549	1.62
546.976	1.63
547.403	1.63
547.829	1.62
548.256	1.63
548.682	1.62
549.108	1.61
549.535	1.6
549.961	1.59
550.387	1.59
550.813	1.58
551.24	1.58
551.666	1.6
552.092	1.6
552.518	1.6
552.943	1.59
553.369	1.59
553.795	1.59
554.221	1.58
554.646	1.59
555.072	1.58
555.498	1.6
555.923	1.6
556.349	1.58
556.774	1.58
557.199	1.58
557.625	1.59
558.05	1.59
558.475	1.59
558.9	1.6
559.325	1.59
559.75	1.59
560.175	1.58
560.6	1.59
561.025	1.59
561.449	1.58
561.874	1.58
562.299	1.58
562.723	1.58
563.148	1.58
563.572	1.58
563.997	1.59
564.421	1.59
564.846	1.6
565.27	1.58
565.694	1.57
566.118	1.58
566.542	1.58
566.966	1.59
567.39	1.59
567.814	1.6
568.238	1.6
568.662	1.6
569.086	1.6
569.509	1.6
569.933	1.6
570.357	1.6
570.78	1.6
571.204	1.6
571.627	1.6
572.05	1.59
572.474	1.58
572.897	1.57
573.32	1.56
573.743	1.57
574.166	1.56
574.589	1.56
575.012	1.56
575.435	1.55
575.858	1.55
576.281	1.56
576.704	1.56
577.126	1.57
577.549	1.58
577.972	1.58
578.394	1.56
578.817	1.56
579.239	1.56
579.661	1.56
580.084	1.56
580.506	1.56
580.928	1.55
581.35	1.54
581.772	1.54
582.194	1.53
582.616	1.54
583.038	1.55
583.46	1.56
583.882	1.57
584.303	1.57
584.725	1.58
585.147	1.54
585.568	1.54
585.99	1.54
586.411	1.54
586.833	1.53
587.254	1.53
587.675	1.53
588.096	1.53
588.518	1.52
588.939	1.53
589.36	1.52
589.781	1.54
590.202	1.54
590.623	1.54
591.043	1.54
591.464	1.53
591.885	1.53
592.305	1.54
592.726	1.53
593.147	1.54
593.567	1.53
593.987	1.54
594.408	1.55
594.828	1.54
595.248	1.54
595.669	1.54
596.089	1.55
596.509	1.54
596.929	1.54
597.349	1.54
597.769	1.54
598.189	1.54
598.608	1.55
599.028	1.55
599.448	1.56
599.867	1.57
600.287	1.56
600.706	1.57
601.126	1.57
601.545	1.56
601.965	1.57
602.384	1.57
602.803	1.56
603.222	1.56
603.641	1.56
604.061	1.55
604.48	1.55
604.898	1.56
605.317	1.56
605.736	1.55
606.155	1.56
606.574	1.56
606.992	1.56
607.411	1.57
607.829	1.53
608.248	1.53
608.666	1.53
609.085	1.53
609.503	1.52
609.921	1.51
610.339	1.53
610.758	1.52
611.176	1.52
611.594	1.52
612.012	1.51
612.43	1.57
612.847	1.57
613.265	1.56
613.683	1.56
614.101	1.57
614.518	1.56
614.936	1.56
615.353	1.56
615.771	1.56
616.188	1.56
616.606	1.57
617.023	1.56
617.44	1.56
617.857	1.56
618.274	1.56
618.691	1.56
619.108	1.57
619.525	1.56
619.942	1.56
620.359	1.56
620.776	1.56
621.192	1.57
621.609	1.57
622.026	1.57
622.442	1.55
622.859	1.55
623.275	1.56
623.691	1.56
624.108	1.56
624.524	1.56
624.94	1.55
625.356	1.55
625.772	1.54
626.188	1.55
626.604	1.53
627.02	1.53
627.436	1.53
627.852	1.52
628.268	1.51
628.683	1.51
629.099	1.51
629.514	1.51
629.93	1.5
630.345	1.49
630.761	1.48
631.176	1.5
631.591	1.51
632.007	1.51
632.422	1.52
632.837	1.51
633.252	1.52
633.667	1.51
634.082	1.52
634.497	1.52
634.911	1.52
635.326	1.51
635.741	1.5
636.155	1.5
636.57	1.49
636.984	1.48
637.399	1.48
637.813	1.46
638.228	1.46
638.642	1.46
639.056	1.46
639.47	1.46
639.884	1.47
640.298	1.47
640.712	1.47
641.126	1.47
641.54	1.47
641.954	1.49
642.368	1.5
642.781	1.5
643.195	1.49
643.609	1.49
644.022	1.5
644.436	1.5
644.849	1.5
645.262	1.51
645.676	1.5
646.089	1.49
646.502	1.47
646.915	1.46
647.328	1.47
647.741	1.47
648.154	1.47
648.567	1.47
648.98	1.47
649.393	1.47
649.805	1.45
650.218	1.46
650.631	1.48
651.043	1.48
651.456	1.49
651.868	1.48
652.28	1.49
652.693	1.47
653.105	1.47
653.517	1.47
653.929	1.48
654.341	1.49
654.753	1.49
655.165	1.49
655.577	1.49
655.989	1.47
656.401	1.47
656.813	1.46
657.224	1.46
657.636	1.46
658.047	1.45
658.459	1.43
658.87	1.43
659.282	1.43
659.693	1.42
660.104	1.41
660.515	1.42
660.926	1.42
661.338	1.43
661.749	1.43
662.159	1.42
662.57	1.43
662.981	1.44
663.392	1.42
663.803	1.42
664.213	1.42
664.624	1.42
665.035	1.41
665.445	1.41
665.855	1.41
666.266	1.42
666.676	1.42
667.086	1.41
667.497	1.39
667.907	1.39
668.317	1.37
668.727	1.38
669.137	1.38
669.547	1.39
669.956	1.38
670.366	1.38
670.776	1.37
671.186	1.37
671.595	1.38
672.005	1.38
672.414	1.39
672.824	1.4
673.233	1.4
673.642	1.4
674.052	1.39
674.461	1.38
674.87	1.38
675.279	1.38
675.688	1.38
676.097	1.38
676.506	1.38
676.915	1.39
677.323	1.39
677.732	1.39
678.141	1.39
678.549	1.41
678.958	1.42
679.366	1.41
679.775	1.4
680.183	1.41
680.592	1.41
681	1.4
681.408	1.39
681.816	1.39
682.224	1.39
682.632	1.39
683.04	1.38
683.448	1.38
683.856	1.39
684.264	1.4
684.671	1.4
685.079	1.4
685.487	1.41
685.894	1.4
686.302	1.39
686.709	1.39
687.116	1.39
687.524	1.39
687.931	1.38
688.338	1.39
688.745	1.39
689.152	1.39
689.559	1.38
689.966	1.38
690.373	1.38
690.78	1.39
691.187	1.38
691.593	1.39
692	1.38
692.407	1.4
692.813	1.39
693.22	1.39
693.626	1.39
694.032	1.38
694.439	1.4
694.845	1.41
695.251	1.41
695.657	1.42
696.063	1.41
696.469	1.42
696.875	1.42
697.281	1.42
697.687	1.44
698.093	1.45
698.498	1.46
698.904	1.45
699.31	1.44
699.715	1.45
700.12	1.44
700.526	1.45
700.931	1.45
701.337	1.44
701.742	1.44
702.147	1.42
702.552	1.43
702.957	1.42
703.362	1.42
703.767	1.43
704.172	1.43
704.577	1.43
704.981	1.44
705.386	1.44
705.791	1.46
706.195	1.46
706.6	1.47
707.004	1.46
707.408	1.47
707.813	1.45
708.217	1.45
708.621	1.46
709.025	1.46
709.43	1.44
709.834	1.45
710.237	1.43
710.641	1.43
711.045	1.41
711.449	1.4
711.853	1.38
712.256	1.39
712.66	1.4
713.064	1.39
713.467	1.4
713.87	1.42
714.274	1.4
714.677	1.41
715.08	1.4
715.484	1.41
715.887	1.41
716.29	1.42
716.693	1.42
717.096	1.42
717.499	1.41
717.901	1.41
718.304	1.41
718.707	1.42
719.109	1.42
719.512	1.43
719.915	1.42
720.317	1.43
720.719	1.42
721.122	1.43
721.524	1.42
721.926	1.43
722.328	1.42
722.731	1.42
723.133	1.41
723.535	1.41
723.937	1.41
724.338	1.42
724.74	1.4
725.142	1.33
725.544	1.32
725.945	1.3
726.347	1.29
726.748	1.29
727.15	1.28
727.551	1.27
727.952	1.28
728.354	1.28
728.755	1.28
729.156	1.3
729.557	1.38
729.958	1.38
730.359	1.41
730.76	1.41
731.161	1.41
731.562	1.43
731.962	1.45
732.363	1.43
732.763	1.44
733.164	1.44
733.564	1.42
733.965	1.43
734.365	1.44
734.766	1.43
735.166	1.44
735.566	1.44
735.966	1.42
736.366	1.41
736.766	1.4
737.166	1.39
737.566	1.4
737.966	1.41
738.365	1.4
738.765	1.39
739.165	1.39
739.564	1.39
739.964	1.38
740.363	1.41
740.763	1.42
741.162	1.44
741.561	1.43
741.96	1.42
742.36	1.42
742.759	1.41
743.158	1.41
743.557	1.4
743.955	1.41
744.354	1.42
744.753	1.41
745.152	1.4
745.55	1.38
745.949	1.39
746.348	1.4
746.746	1.39
747.144	1.39
747.543	1.39
747.941	1.4
748.339	1.39
748.737	1.38
749.136	1.37
749.534	1.38
749.932	1.38
750.33	1.37
750.727	1.39
751.125	1.4
751.523	1.42
751.921	1.43
752.318	1.42
752.716	1.43
753.113	1.44
753.511	1.44
753.908	1.43
754.305	1.42
754.703	1.42
755.1	1.42
755.497	1.42
755.894	1.41
756.291	1.41
756.688	1.41
757.085	1.4
757.482	1.41
757.878	1.43
758.275	1.42
758.672	1.43
759.068	1.44
759.465	1.45
759.861	1.43
760.258	1.43
760.654	1.42
761.05	1.43
761.447	1.45
761.843	1.44
762.239	1.42
762.635	1.41
763.031	1.43
763.427	1.43
763.822	1.42
764.218	1.43
764.614	1.43
765.01	1.43
765.405	1.42
765.801	1.4
766.196	1.4
766.592	1.42
766.987	1.42
767.382	1.41
767.778	1.41
768.173	1.4
768.568	1.39
768.963	1.41
769.358	1.4
769.753	1.42
770.148	1.41
770.542	1.41
770.937	1.41
771.332	1.41
771.726	1.4
772.121	1.4
772.515	1.42
772.91	1.43
773.304	1.43
773.699	1.44
774.093	1.42
774.487	1.43
774.881	1.44
775.275	1.44
775.669	1.44
776.063	1.43
776.457	1.44
776.851	1.4
777.245	1.4
777.638	1.37
778.032	1.38
778.425	1.36
778.819	1.36
779.212	1.35
779.606	1.33
779.999	1.34
780.392	1.35
780.786	1.34
781.179	1.35
781.572	1.35
781.965	1.33
782.358	1.33
782.751	1.34
783.143	1.33
783.536	1.32
783.929	1.33
784.322	1.35
784.714	1.34
785.107	1.34
785.499	1.33
785.891	1.32
786.284	1.34
786.676	1.35
787.068	1.37
787.46	1.38
787.852	1.39
788.245	1.37
788.636	1.35
789.028	1.33
789.42	1.32
789.812	1.33
790.204	1.35
790.595	1.34
790.987	1.31
791.378	1.29
791.77	1.3
792.161	1.31
792.553	1.31
792.944	1.31
793.335	1.33
793.726	1.34
794.117	1.34
794.508	1.34
794.899	1.35
795.29	1.37
795.681	1.36
796.072	1.35
796.463	1.32
796.853	1.31
797.244	1.32
797.634	1.31
798.025	1.31
798.415	1.31
798.806	1.31
799.196	1.3
799.586	1.29
799.976	1.29
800.366	1.27
800.756	1.32
801.146	1.34
801.536	1.33
801.926	1.35
802.316	1.37
802.706	1.36
803.095	1.36
803.485	1.38
803.874	1.38
804.264	1.4
804.653	1.41
805.043	1.42
805.432	1.39
805.821	1.39
806.21	1.4
806.599	1.38
806.988	1.38
807.377	1.37
807.766	1.38
808.155	1.39
808.544	1.39
808.933	1.41
809.321	1.38
809.71	1.4
810.098	1.39
810.487	1.36
810.875	1.36
811.264	1.37
811.652	1.37
812.04	1.37
812.428	1.36
812.816	1.34
813.204	1.33
813.592	1.35
813.98	1.34
814.368	1.37
814.756	1.38
815.144	1.39
815.531	1.39
815.919	1.39
816.306	1.38
816.694	1.39
817.081	1.39
817.469	1.38
817.856	1.36
818.243	1.37
818.63	1.39
819.017	1.4
819.404	1.39
819.791	1.41
820.178	1.39
820.565	1.39
820.952	1.38
821.339	1.4
821.725	1.44
822.112	1.47
822.498	1.49
822.885	1.48
823.271	1.48
823.657	1.5
824.044	1.49
824.43	1.52
824.816	1.51
825.202	1.52
825.588	1.53
825.974	1.51
826.36	1.5
826.746	1.48
827.132	1.47
827.517	1.45
827.903	1.45
828.289	1.45
828.674	1.44
829.06	1.46
829.445	1.48
829.83	1.47
830.216	1.47
830.601	1.49
830.986	1.49
831.371	1.5
831.756	1.51
832.141	1.51
832.526	1.51
832.911	1.53
833.295	1.52
833.68	1.52
834.065	1.52
834.449	1.52
834.834	1.5
835.218	1.48
835.603	1.48
835.987	1.5
836.371	1.5
836.755	1.49
837.139	1.49
837.524	1.49
837.908	1.48
838.291	1.47
838.675	1.47
839.059	1.49
839.443	1.52
839.827	1.52
840.21	1.5
840.594	1.5
840.977	1.5
841.361	1.5
841.744	1.51
842.127	1.5
842.511	1.5
842.894	1.5
843.277	1.51
843.66	1.51
844.043	1.51
844.426	1.52
844.809	1.52
845.191	1.52
845.574	1.52
845.957	1.51
846.339	1.51
846.722	1.51
847.104	1.52
847.487	1.51
847.869	1.5
848.252	1.5
848.634	1.51
849.016	1.5
849.398	1.5
849.78	1.5
850.162	1.51
850.544	1.52
850.926	1.52
851.307	1.53
851.689	1.51
852.071	1.51
852.452	1.51
852.834	1.51
853.215	1.53
853.597	1.53
853.978	1.51
854.359	1.52
854.741	1.51
855.122	1.51
855.503	1.52
855.884	1.53
856.265	1.53
856.646	1.54
857.026	1.53
857.407	1.51
857.788	1.52
858.169	1.53
858.549	1.52
858.93	1.52
859.31	1.54
859.69	1.53
860.071	1.55
860.451	1.56
860.831	1.55
861.211	1.54
861.591	1.54
861.971	1.54
862.351	1.55
862.731	1.54
863.111	1.54
863.491	1.54
863.87	1.54
864.25	1.52
864.629	1.51
865.009	1.51
865.388	1.53
865.768	1.53
866.147	1.54
866.526	1.54
866.905	1.54
867.284	1.54
867.663	1.55
868.042	1.54
868.421	1.55
868.8	1.55
869.179	1.55
869.558	1.53
869.936	1.53
870.315	1.52
870.693	1.52
871.072	1.53
871.45	1.53
871.828	1.52
872.207	1.52
872.585	1.53
872.963	1.53
873.341	1.55
873.719	1.56
874.097	1.55
874.475	1.56
874.853	1.55
875.23	1.55
875.608	1.54
875.986	1.53
876.363	1.54
876.741	1.55
877.118	1.54
877.495	1.54
877.873	1.52
878.25	1.53
878.627	1.54
879.004	1.54
879.381	1.55
879.758	1.54
880.135	1.53
880.512	1.53
880.889	1.5
881.265	1.49
881.642	1.49
882.019	1.5
882.395	1.5
882.772	1.49
883.148	1.49
883.524	1.47
883.901	1.5
884.277	1.5
884.653	1.51
885.029	1.52
885.405	1.53
885.781	1.52
886.157	1.53
886.532	1.53
886.908	1.54
887.284	1.54
887.659	1.56
888.035	1.56
888.411	1.57
888.786	1.57
889.161	1.57
889.537	1.58
889.912	1.58
890.287	1.57
890.662	1.57
891.037	1.57
891.412	1.56
891.787	1.56
892.162	1.56
892.536	1.56
892.911	1.55
893.286	1.55
893.66	1.55
894.035	1.55
894.409	1.56
894.784	1.56
895.158	1.58
895.532	1.58
895.906	1.59
896.281	1.59
896.655	1.58
897.029	1.58
897.402	1.58
897.776	1.57
898.15	1.57
898.524	1.57
898.898	1.58
899.271	1.57
899.645	1.57
900.018	1.55
900.392	1.55
900.765	1.54
901.138	1.54
901.511	1.54
901.884	1.54
902.258	1.55
902.631	1.54
903.003	1.52
903.376	1.51
903.749	1.5
904.122	1.5
904.495	1.5
904.867	1.5
905.24	1.52
905.612	1.52
905.985	1.53
906.357	1.53
906.729	1.53
907.102	1.54
907.474	1.55
907.846	1.54
908.218	1.54
908.59	1.52
908.962	1.52
909.334	1.52
909.705	1.51
910.077	1.5
910.449	1.49
910.82	1.49
911.192	1.49
911.563	1.48
911.935	1.47
912.306	1.48
912.677	1.5
913.048	1.5
913.419	1.47
913.79	1.46
914.161	1.44
914.532	1.45
914.903	1.45
915.274	1.43
915.645	1.44
916.015	1.45
916.386	1.44
916.756	1.41
917.127	1.41
917.497	1.45
917.868	1.45
918.238	1.45
918.608	1.45
918.978	1.44
919.348	1.46
919.718	1.43
920.088	1.4
920.458	1.41
920.828	1.43
921.198	1.41
921.567	1.39
921.937	1.4
922.306	1.42
922.676	1.42
923.045	1.39
923.415	1.37
923.784	1.38
924.153	1.41
924.522	1.37
924.891	1.35
925.26	1.36
925.629	1.38
925.998	1.37
926.367	1.36
926.736	1.35
927.104	1.35
927.473	1.35
927.842	1.33
928.21	1.3
928.578	1.31
928.947	1.31
929.315	1.33
929.683	1.31
930.051	1.3
930.42	1.26
930.788	1.25
931.156	1.28
931.523	1.29
931.891	1.31
932.259	1.34
932.627	1.31
932.994	1.32
933.362	1.3
933.729	1.26
934.097	1.26
934.464	1.29
934.831	1.31
935.199	1.28
935.566	1.31
935.933	1.3
936.3	1.27
936.667	1.3
937.034	1.24
937.401	1.17
937.767	1.2
938.134	1.13
938.501	1.08
938.867	1.02
939.234	0.99
939.6	0.94
939.967	0.92
940.333	0.91
940.699	0.96
941.065	0.93
941.431	0.94
941.798	0.93
942.163	0.97
942.529	0.95
942.895	0.98
943.261	0.94
943.627	0.92
943.992	0.88
944.358	0.89
944.723	0.77
945.089	0.81
945.454	0.87
945.82	0.83
946.185	0.81
946.55	0.8
946.915	0.79
947.28	0.81
947.645	0.86
948.01	0.87
948.375	0.83
948.74	0.89
949.104	0.91
949.469	0.92
949.834	0.94
950.198	1
950.562	1.09
950.927	1.08
951.291	1.05
951.655	0.96
952.02	0.97
952.384	1.03
952.748	1.02
953.112	0.99
953.476	0.96
953.839	1.01
954.203	1
954.567	0.98
954.931	1.01
955.294	1.07
955.658	1.09
956.021	1.13
956.385	1.11
956.748	1.12
957.111	1.14
957.474	1.19
957.837	1.17
958.2	1.16
958.563	1.17
958.926	1.16
959.289	1.15
959.652	1.17
960.015	1.17
960.377	1.21
960.74	1.15
961.102	1.2
961.465	1.14
961.827	1.07
962.189	1.05
962.552	1.05
962.914	1.04
963.276	1.01
963.638	1.01
964	0.99
964.362	1
964.724	1.09
965.085	1.05
965.447	1.11
965.809	1.18
966.17	1.22
966.532	1.18
966.893	1.21
967.255	1.24
967.616	1.2
967.977	1.22
968.338	1.16
968.699	1.13
969.061	1.1
969.421	1.07
969.782	1.07
970.143	1
970.504	0.97
970.865	0.91
971.225	0.9
971.586	0.98
971.946	0.95
972.307	0.93
972.667	0.93
973.027	1.01
973.388	0.96
973.748	0.9
974.108	0.94
974.468	0.99
974.828	0.99
975.188	0.97
975.548	0.89
975.907	0.9
976.267	0.94
976.627	0.89
976.986	0.83
977.346	0.85
977.705	0.9
978.064	0.94
978.424	0.94
978.783	0.93
979.142	0.94
979.501	0.95
979.86	0.91
980.219	0.86
980.578	0.9
980.937	0.89
981.296	0.9
981.654	0.86
982.013	0.82
982.371	0.82
982.73	0.82
983.088	0.77
983.447	0.77
983.805	0.81
984.163	0.79
984.521	0.77
984.879	0.83
985.237	0.84
985.595	0.88
985.953	0.85
986.311	0.81
986.669	0.7
987.026	0.65
987.384	0.62
987.741	0.61
988.099	0.61
988.456	0.67
988.814	0.64
989.171	0.55
989.528	0.45
989.885	0.4
990.242	0.41
990.599	0.46
990.956	0.51
991.313	0.47
991.67	0.46
992.027	0.41
992.383	0.32
992.74	0.19
993.096	0.13
993.453	0.16
993.809	0.22
994.165	0.18
994.522	0.18
994.878	0.25
995.234	0.28
995.59	0.22
995.946	0.23
996.302	0.22
996.658	0.36
997.013	0.41
997.369	0.36
997.725	0.27
998.08	0.16
998.436	0.18
998.791	0.02
999.147	-0.1
999.502	-0.15
999.857	-0.17
1000.212	-0.27
1000.567	-0.43
1000.922	-0.51
1001.277	-0.53
1001.632	-0.42
1001.987	-0.31
1002.342	-0.32
1002.696	-0.3
1003.051	-0.4
1003.406	-0.46
1003.76	-0.52
1004.114	-0.51
1004.469	-0.45
1004.823	-0.38
1005.177	-0.28
1005.531	-0.51
1005.885	-0.58
1006.239	-0.64
1006.593	-0.79
1006.947	-0.57
1007.301	-0.48
1007.655	-0.37
1008.008	-0.34
1008.362	-0.43
1008.715	-0.49
1009.069	-0.67
1009.422	-0.8
1009.776	-0.74
1010.129	-0.87
1010.482	-0.65
1010.835	-0.76
1011.188	-0.95
1011.541	-1.2
1011.894	-1.33
1012.247	-1.4
1012.6	-1.45
1012.952	-1.48
1013.305	-1.37
1013.657	-1.42
1014.01	-1.29
1014.362	-1.33
1014.715	-1.52
1015.067	-1.42
1015.419	-1.4
1015.771	-1.39
1016.123	-1.65
1016.475	-1.58
1016.827	-1.51
1017.179	-1.49
1017.531	-1.52
1017.883	-1.57
1018.234	-1.83
1018.586	-1.88
1018.938	-2.12
1019.289	-2.19
1019.64	-2.07
1019.992	-1.74
1020.343	-1.96
1020.694	-2.39
1021.045	-2.41
1021.396	-2.58
1021.747	-2.51
1022.098	-2.28
1022.449	-2.14
1022.8	-2.16
1023.151	-2.38
1023.501	-2.26
1023.852	-2.48
1024.202	-2.46
1024.553	-2.03
1024.903	-1.9
1025.253	-2.13
1025.604	-2.37
1025.954	-2.81
1026.304	-2.56
1026.654	-2.36
1027.004	-2.19
1027.354	-2.51
1027.703	-2.56
1028.053	-2.78
1028.403	-3.42
1028.753	-3.68
1029.102	-3.71
1029.452	-3.99
1029.801	-3.98
1030.15	-4.38
1030.499	-4.62
897.758	511.97
901.051	526.6
904.343	532.34
907.636	522.47
910.928	512.61
914.22	523.41
917.511	513.12
920.803	487.65
924.094	468.15
927.384	470.69
930.675	454.91
933.965	452.65
937.255	449.54
940.544	426.78
943.834	405.32
947.123	399.49
950.411	374.76
953.7	366.82
956.988	357.11
960.276	339.03
963.563	332.15
966.851	311.76
970.138	307.49
973.424	284.27
976.711	280.6
979.997	271.02
983.283	262.3
986.568	253.04
989.853	247.53
993.138	236.03
996.423	231.97
999.708	224.46
1002.992	224.82
1006.275	215.21
1009.559	211.87
1012.842	204.62
1016.125	197.32
1019.408	193.6
1022.69	192.4
1025.972	186.19
1029.254	182.24
1032.536	177.22
1035.817	171.02
1039.098	167.68
1042.379	163.91
1045.659	161.18
1048.939	159.22
1052.219	155.23
1055.498	152.42
1058.778	147.4
1062.057	146.39
1065.335	144.96
1068.614	142.17
1071.892	138.15
1075.17	135.89
1078.447	132.52
1081.724	131.32
1085.001	126.62
1088.278	127.06
1091.554	124.75
1094.83	124.28
1098.106	120.96
1101.382	119.8
1104.657	119.36
1107.932	119.81
1111.206	118.27
1114.481	116.01
1117.755	114.86
1121.029	115.96
1124.302	112.76
1127.575	111.16
1130.848	110.08
1134.121	108.48
1137.393	108.31
1140.665	106.68
1143.937	105.21
1147.208	103.55
1150.48	103.37
1153.75	102.17
1157.021	99.98
1160.291	99.81
1163.561	99.6
1166.831	99.28
1170.101	98.62
1173.37	97.7
1176.639	96.68
1179.907	95.84
1183.176	95.2
1186.444	95.79
1189.711	94.71
1192.979	95.8
1196.246	96.31
1199.513	95.96
1202.78	95.63
1206.046	95.82
1209.312	96.64
1212.578	97.45
1215.843	99.98
1219.108	101.42
1222.373	103.17
1225.638	106.51
1228.902	109.56
1232.166	113.56
1235.43	115.94
1238.693	119.67
1241.956	123.6
1245.219	126.87
1248.482	127.61
1251.744	127.55
1255.006	128.15
1258.268	124.24
1261.529	122.52
1264.79	117.95
1268.051	114.73
1271.312	113.32
1274.572	110.16
1277.832	106.69
1281.092	104.67
1284.351	102.69
1287.61	102.08
1290.869	100.01
1294.128	99.32
1297.386	99.35
1300.644	99.56
1303.902	98.61
1307.159	98.03
1310.416	99.4
1313.673	100.58
1316.93	103.18
1320.186	104.84
1323.442	107.11
1326.697	111.01
1329.953	112.43
1333.208	116.87
1336.463	123.85
1339.717	127.41
1342.972	135.81
1346.226	140.48
1349.479	142.79
1352.733	149.58
1355.986	155.11
1359.238	159.38
1362.491	161.72
1365.743	170.84
1368.995	172.94
1372.247	173.27
1375.498	173.02
1378.749	180.25
1382	180.78
1385.251	180.27
1388.501	182.15
1391.751	185.27
1395	183.55
1398.25	186.1
1401.499	184.04
1404.748	184.28
1407.996	179.98
1411.244	181.08
1414.492	178.16
1417.74	174.28
1420.987	170.39
1424.234	166.72
1427.481	159.19
1430.728	156
1433.974	148.71
1437.22	144.88
1440.465	139.18
1443.711	135.22
1446.956	130.39
1450.201	124.97
1453.445	119.28
1456.689	115.73
1459.933	110.83
1463.177	105.71
1466.42	103.84
1469.663	100.76
1472.906	97.12
1476.148	93.44
1479.391	90.89
1482.633	88.97
1485.874	86.45
1489.115	85.22
1492.356	82.97
1495.597	80.97
1498.838	80.63
1502.078	78.59
1505.318	78.03
1508.557	76.8
1511.797	76.08
1515.036	75.24
1518.274	74.24
1521.513	72.34
1524.751	71.72
1527.989	71.72
1531.227	71.43
1534.464	70.5
1537.701	69.28
1540.938	68.56
1544.174	68.87
1547.41	68.29
1550.646	67.96
1553.882	67.77
1557.117	67.22
1560.352	66.41
1563.587	65.24
1566.821	64.76
1570.055	64.43
1573.289	63.73
1576.523	63.61
1579.756	62.74
1582.989	62.61
1586.222	61.37
1589.454	61.58
1592.686	62.25
1595.918	61.43
1599.15	61.53
1602.381	61.32
1605.612	60.95
1608.843	61.01
1612.073	61.26
1615.303	61.29
1618.533	60.92
1621.762	61.16
1624.992	60.53
1628.221	59.27
1631.449	60.27
1634.678	60.02
1637.906	60.01
1641.134	60.18
1644.361	60.38
1647.588	60.49
1650.815	60.5
1654.042	60.24
1657.269	60.14
1660.495	60.7
1663.72	61.41
1666.946	60.99
1670.171	61.47
1673.396	62.03
1676.621	61.62
1679.845	62.26
1683.069	61.68
1686.293	61.59
1689.517	62.03
1692.74	62.5
1695.963	62.43
1699.185	62.37
1702.408	62.05
1705.63	62.39
1708.852	62.72
1712.073	62.86
1715.294	62.34
1718.515	63.81
1721.736	63.9
1724.956	64.35
1728.176	64.29
1731.396	64.1
1734.616	65.08
1737.835	66
1741.054	65.42
1744.272	65.86
1747.491	66.3
1750.709	67.33
1753.927	67.09
1757.144	68.1
1760.361	68.24
1763.578	68.83
1766.795	69.67
1770.011	70.3
1773.227	70.69
1776.443	71.93
1779.658	71.46
1782.874	72.04
1786.089	71.76
1789.303	71.89
1792.518	72.77
1795.732	73.71
1798.945	74.56
1802.159	74.87
1805.372	74.95
1808.585	76.13
1811.797	77.09
1815.01	78.28
1818.222	79.49
1821.434	81.3
1824.645	81.98
1827.856	82.64
1831.067	83.15
1834.278	85.39
1837.488	86.52
1840.698	87.5
1843.908	87.48
1847.117	89.51
1850.326	90.89
1853.535	92.43
1856.744	93.49
1859.952	96.03
1863.16	96.8
1866.368	97.81
1869.575	98.85
1872.782	99.91
1875.989	100.98
1879.196	103
1882.402	102.64
1885.608	103.82
1888.814	104.11
1892.019	107.88
1895.224	106.89
1898.429	108.4
1901.634	110.02
1904.838	110.54
1908.042	112.38
1911.246	112.02
1914.449	111.94
1917.652	112.49
1920.855	112.48
1924.058	112.97
1927.26	110.83
1930.462	112.25
1933.664	111.24
1936.865	112.45
1940.066	110.4
1943.267	109.54
1946.467	111.03
1949.668	110.4
1952.868	110.85
1956.067	111.12
1959.267	111.49
1962.466	112.29
1965.665	112.54
1968.863	113.04
1972.061	113
1975.259	116.14
1978.457	117.48
1981.654	117.78
1984.852	119.22
1988.048	120.76
1991.245	122.24
1994.441	123.81
1997.637	126.23
2000.833	129.09
2004.028	131.08
2007.223	134.59
2010.418	136.82
2013.613	142.77
2016.807	146.45
2020.001	150.44
2023.194	153.41
2026.388	158.73
2029.581	167.23
2032.774	172.01
2035.966	175.83
2039.158	181.05
2042.35	184.06
2045.542	188.29
2048.733	194.94
2051.924	196.22
2055.115	199.17
2058.306	202.38
2061.496	205.06
2064.686	204.82
2067.875	203.29
2071.065	207.23
2074.254	207.65
2077.442	211.49
2080.631	213.07
2083.819	213.26
2087.007	218.79
2090.195	221.42
2093.382	221.01
2096.569	222.28
2099.756	225.16
2102.942	230.82
2106.128	233.14
2109.314	236.32
2112.5	238.6
2115.685	234.11
2118.87	234.53
2122.055	237.36
2125.239	241.08
2128.424	246.32
2131.608	243.98
2134.791	245.66
2137.974	246.98
2141.157	250.45
2144.34	250.25
2147.523	252.71
2150.705	263.04
2153.887	260.95
2157.068	260.96
2160.25	263.35
2163.431	264.72
2166.611	268.61
2169.792	272.13
2172.972	275.44
2176.152	275.52
2179.331	282.54
2182.511	286.61
2185.69	288.21
2188.868	297.29
2192.047	305.93
2195.225	311.82
2198.403	314.01
2201.58	313.97
2204.758	322.35
2207.935	324.49
2211.111	330.98
2214.288	333.93
2217.464	334.55
2220.64	339.14
2223.815	339.61
2226.991	333.21
2230.166	336.5
2233.34	345.43
2236.515	355.92
2239.689	352.49
2242.863	358.22
2246.036	355.42
2249.209	361.15
2252.382	364.38
2255.555	377.02
2258.727	380.33
2261.9	393.03
2265.071	398.43
2268.243	396.44
2271.414	406.34
2274.585	416.49
2277.756	417.51
2280.926	434.9
2284.096	437.22
2287.266	437.39
2290.436	431.82
2293.605	441.89
2296.774	457.59
2299.942	456.63
2303.111	472.01
2306.279	484.49
2309.447	484.62
2312.614	487.72
2315.781	497.05
2318.948	504.32
2322.115	514.3
2325.281	533.07
2328.447	533.95
2331.613	540.69
2334.779	548.95
2337.944	556.99
2341.109	562.24
2344.274	568.1
2347.438	583.95
2350.602	590.16
2353.766	635.44
2356.929	636.15
2360.092	650.45
2363.255	651.17
2366.418	656.73
2369.58	666.76
2372.742	668.81
2375.904	666.76
2379.066	686.24
2382.227	725.95
2385.388	726.5
2388.548	680.44
2391.709	673.15
2394.869	694.7
2398.029	694.39
2401.188	699.45
2404.347	724.97
2407.506	746.66
2410.665	721.37
2413.823	727.89
2416.981	727.46
2420.139	695.5
2423.296	747.84
2426.453	799.66
2429.61	757.3
2432.767	811.08
2435.923	831.35
2439.079	802.38
2442.235	824.04
2445.391	841.78
2448.546	825.52
2451.701	875.08
2454.855	929.59
2458.009	824.77
2461.163	834.48
2464.317	857.74
2467.471	840.85
2470.624	865.27
2473.777	862.24
2476.929	833.05
2480.082	882.63
2483.234	933.11
2486.385	938.16
2489.537	965.99
2492.688	1065.69
2495.839	1052.73
2498.989	1078.77
2502.14	1076.46
2505.29	1039.17
2508.439	1128.51
2511.589	1158
2514.738	1128.61
2517.887	1116.68
2521.035	1054.58
2524.183	1035.81
2527.331	1025.77
2530.479	1000.99
2533.627	1016.18
