Data from C_3_div_oh_2n_Splice17_19.txt Node
Date: Sat Feb 29 14:39:14 EST 2020
User: sa697716
Spectrometer: FLMS03696
Trigger mode: 0
Integration Time (sec): 3.180400E-1
Scans to average: 20
Electric dark correction enabled: true
Nonlinearity correction enabled: true
Boxcar width: 5
XAxis mode: Wavelengths
Number of Pixels in Spectrum: 2048
>>>>>Begin Spectral Data<<<<<
187.83	69.25
188.298	69.78
188.766	70.74
189.233	48.49
189.701	52.09
190.169	59.31
190.636	56.99
191.104	33.58
191.571	31.36
192.039	88.3
192.506	312.61
192.974	8565.91
193.441	-939.5
193.908	137.61
194.375	56.76
194.842	18.29
195.31	5.07
195.777	27.46
196.244	-31.96
196.711	-18.25
197.177	-20.52
197.644	-20.27
198.111	-21.27
198.578	-21.25
199.045	-20.31
199.511	-19.9
199.978	-19.03
200.445	-18.53
200.911	-18.3
201.378	-17.72
201.844	-17.92
202.31	-17.47
202.777	-16.81
203.243	-15.79
203.709	-14.89
204.176	-14.89
204.642	-14.24
205.108	-14.3
205.574	-13.87
206.04	-14.15
206.506	-14.06
206.972	-13.44
207.438	-13.38
207.903	-12.79
208.369	-12.55
208.835	-12.62
209.301	-12.07
209.766	-11.16
210.232	-10.17
210.697	-9.41
211.163	-8.46
211.628	-7.93
212.094	-7.58
212.559	-7.12
213.024	-7.02
213.49	-7.01
213.955	-6.33
214.42	-5.68
214.885	-5.55
215.35	-5.08
215.815	-4.44
216.28	-3.58
216.745	-2.41
217.21	-1.27
217.675	-0.13
218.14	0.7
218.604	1.43
219.069	2.02
219.534	2.46
219.998	2.84
220.463	3.21
220.927	3.43
221.392	3.67
221.856	3.79
222.32	3.89
222.785	3.93
223.249	4.06
223.713	4.14
224.177	4.15
224.642	4.18
225.106	4.23
225.57	4.26
226.034	4.34
226.497	4.34
226.961	4.33
227.425	4.31
227.889	4.34
228.353	4.29
228.816	4.31
229.28	4.29
229.744	4.3
230.207	4.29
230.671	4.25
231.134	4.22
231.597	4.19
232.061	4.18
232.524	4.18
232.987	4.15
233.45	4.12
233.914	4.11
234.377	4.1
234.84	4.07
235.303	4.05
235.766	4.03
236.229	4
236.691	3.96
237.154	3.94
237.617	3.89
238.08	3.85
238.542	3.83
239.005	3.79
239.468	3.73
239.93	3.7
240.393	3.66
240.855	3.63
241.317	3.61
241.78	3.6
242.242	3.58
242.704	3.58
243.166	3.56
243.629	3.54
244.091	3.52
244.553	3.52
245.015	3.51
245.477	3.49
245.939	3.48
246.4	3.46
246.862	3.45
247.324	3.45
247.786	3.44
248.247	3.43
248.709	3.42
249.17	3.42
249.632	3.4
250.093	3.38
250.555	3.38
251.016	3.37
251.477	3.37
251.939	3.36
252.4	3.33
252.861	3.32
253.322	3.31
253.783	3.3
254.244	3.3
254.705	3.29
255.166	3.31
255.627	3.3
256.088	3.29
256.549	3.28
257.009	3.28
257.47	3.28
257.931	3.28
258.391	3.27
258.852	3.27
259.312	3.26
259.773	3.25
260.233	3.24
260.694	3.22
261.154	3.22
261.614	3.22
262.074	3.21
262.534	3.19
262.994	3.19
263.455	3.19
263.915	3.19
264.374	3.18
264.834	3.17
265.294	3.17
265.754	3.17
266.214	3.16
266.673	3.16
267.133	3.15
267.593	3.15
268.052	3.14
268.512	3.13
268.971	3.12
269.431	3.12
269.89	3.11
270.349	3.1
270.809	3.1
271.268	3.09
271.727	3.08
272.186	3.07
272.645	3.07
273.104	3.08
273.563	3.08
274.022	3.09
274.481	3.09
274.94	3.08
275.399	3.09
275.857	3.09
276.316	3.08
276.775	3.07
277.233	3.07
277.692	3.06
278.15	3.05
278.609	3.03
279.067	3.01
279.525	2.99
279.984	2.98
280.442	2.98
280.9	2.97
281.358	2.95
281.816	2.95
282.274	2.94
282.732	2.94
283.19	2.93
283.648	2.93
284.106	2.92
284.564	2.94
285.021	2.94
285.479	2.93
285.937	2.93
286.394	2.92
286.852	2.93
287.309	2.94
287.767	2.94
288.224	2.94
288.682	2.94
289.139	2.94
289.596	2.93
290.053	2.93
290.511	2.92
290.968	2.92
291.425	2.92
291.882	2.92
292.339	2.92
292.796	2.91
293.252	2.91
293.709	2.91
294.166	2.9
294.623	2.9
295.079	2.9
295.536	2.9
295.992	2.89
296.449	2.89
296.905	2.87
297.362	2.86
297.818	2.86
298.274	2.86
298.731	2.86
299.187	2.86
299.643	2.85
300.099	2.84
300.555	2.84
301.011	2.84
301.467	2.83
301.923	2.83
302.379	2.82
302.835	2.81
303.291	2.8
303.746	2.78
304.202	2.77
304.658	2.76
305.113	2.75
305.569	2.75
306.024	2.73
306.479	2.72
306.935	2.71
307.39	2.7
307.845	2.7
308.301	2.69
308.756	2.68
309.211	2.68
309.666	2.67
310.121	2.66
310.576	2.65
311.031	2.64
311.486	2.64
311.94	2.64
312.395	2.64
312.85	2.63
313.305	2.62
313.759	2.62
314.214	2.62
314.668	2.61
315.123	2.6
315.577	2.6
316.032	2.59
316.486	2.59
316.94	2.58
317.394	2.57
317.849	2.57
318.303	2.57
318.757	2.56
319.211	2.55
319.665	2.55
320.119	2.54
320.572	2.55
321.026	2.55
321.48	2.55
321.934	2.54
322.387	2.54
322.841	2.53
323.295	2.53
323.748	2.52
324.202	2.52
324.655	2.52
325.108	2.51
325.562	2.49
326.015	2.48
326.468	2.47
326.921	2.46
327.374	2.46
327.827	2.44
328.28	2.44
328.733	2.43
329.186	2.42
329.639	2.41
330.092	2.41
330.545	2.41
330.997	2.41
331.45	2.4
331.903	2.39
332.355	2.39
332.808	2.39
333.26	2.37
333.713	2.38
334.165	2.38
334.617	2.38
335.069	2.38
335.522	2.38
335.974	2.38
336.426	2.38
336.878	2.38
337.33	2.36
337.782	2.37
338.234	2.37
338.686	2.36
339.137	2.36
339.589	2.37
340.041	2.36
340.493	2.35
340.944	2.35
341.396	2.35
341.847	2.34
342.299	2.34
342.75	2.34
343.201	2.34
343.653	2.34
344.104	2.34
344.555	2.33
345.006	2.33
345.457	2.33
345.908	2.34
346.359	2.34
346.81	2.35
347.261	2.35
347.712	2.35
348.163	2.35
348.613	2.34
349.064	2.33
349.515	2.33
349.965	2.33
350.416	2.32
350.866	2.32
351.317	2.31
351.767	2.3
352.217	2.3
352.668	2.3
353.118	2.3
353.568	2.31
354.018	2.32
354.468	2.31
354.918	2.31
355.368	2.31
355.818	2.31
356.268	2.31
356.718	2.31
357.168	2.3
357.617	2.3
358.067	2.3
358.517	2.3
358.966	2.3
359.416	2.31
359.865	2.31
360.315	2.3
360.764	2.3
361.213	2.29
361.663	2.29
362.112	2.3
362.561	2.3
363.01	2.31
363.459	2.3
363.908	2.29
364.357	2.29
364.806	2.29
365.255	2.3
365.703	2.3
366.152	2.29
366.601	2.3
367.05	2.3
367.498	2.29
367.947	2.27
368.395	2.28
368.844	2.27
369.292	2.27
369.74	2.26
370.189	2.25
370.637	2.25
371.085	2.26
371.533	2.25
371.981	2.26
372.429	2.26
372.877	2.26
373.325	2.25
373.773	2.25
374.221	2.23
374.669	2.23
375.116	2.23
375.564	2.22
376.012	2.22
376.459	2.21
376.907	2.21
377.354	2.2
377.801	2.2
378.249	2.21
378.696	2.21
379.143	2.23
379.591	2.23
380.038	2.23
380.485	2.23
380.932	2.22
381.379	2.22
381.826	2.22
382.273	2.21
382.72	2.21
383.166	2.21
383.613	2.21
384.06	2.2
384.506	2.19
384.953	2.2
385.4	2.19
385.846	2.19
386.292	2.19
386.739	2.18
387.185	2.19
387.631	2.19
388.078	2.19
388.524	2.17
388.97	2.18
389.416	2.18
389.862	2.17
390.308	2.17
390.754	2.16
391.2	2.17
391.645	2.18
392.091	2.15
392.537	2.15
392.983	2.14
393.428	2.14
393.874	2.14
394.319	2.14
394.765	2.14
395.21	2.13
395.655	2.14
396.101	2.13
396.546	2.12
396.991	2.13
397.436	2.11
397.881	2.11
398.326	2.12
398.771	2.11
399.216	2.11
399.661	2.1
400.106	2.11
400.551	2.1
400.995	2.09
401.44	2.08
401.885	2.09
402.329	2.09
402.774	2.09
403.218	2.07
403.663	2.05
404.107	2.05
404.551	2.06
404.995	2.04
405.44	2.04
405.884	2.05
406.328	2.05
406.772	2.04
407.216	2.03
407.66	2.04
408.104	2.04
408.547	2.04
408.991	2.03
409.435	2.03
409.879	2.03
410.322	2.03
410.766	2.02
411.209	2.02
411.653	2
412.096	1.99
412.54	1.98
412.983	1.97
413.426	1.97
413.869	1.96
414.312	1.96
414.756	1.94
415.199	1.94
415.642	1.94
416.085	1.93
416.527	1.95
416.97	1.96
417.413	1.95
417.856	1.96
418.298	1.94
418.741	1.95
419.184	1.94
419.626	1.93
420.069	1.92
420.511	1.92
420.953	1.92
421.396	1.91
421.838	1.91
422.28	1.92
422.722	1.92
423.164	1.91
423.606	1.92
424.048	1.92
424.49	1.93
424.932	1.92
425.374	1.93
425.816	1.93
426.258	1.92
426.699	1.9
427.141	1.88
427.582	1.89
428.024	1.89
428.465	1.88
428.907	1.88
429.348	1.88
429.789	1.87
430.231	1.85
430.672	1.85
431.113	1.85
431.554	1.84
431.995	1.84
432.436	1.82
432.877	1.82
433.318	1.81
433.759	1.79
434.2	1.76
434.64	1.77
435.081	1.77
435.522	1.75
435.962	1.77
436.403	1.77
436.843	1.75
437.284	1.76
437.724	1.77
438.164	1.77
438.604	1.77
439.045	1.76
439.485	1.73
439.925	1.7
440.365	1.68
440.805	1.64
441.245	1.63
441.685	1.65
442.125	1.62
442.564	1.61
443.004	1.6
443.444	1.59
443.883	1.59
444.323	1.6
444.762	1.62
445.202	1.66
445.641	1.66
446.081	1.68
446.52	1.65
446.959	1.64
447.398	1.65
447.837	1.64
448.276	1.64
448.716	1.64
449.154	1.64
449.593	1.62
450.032	1.61
450.471	1.63
450.91	1.62
451.349	1.63
451.787	1.63
452.226	1.61
452.664	1.62
453.103	1.63
453.541	1.64
453.98	1.64
454.418	1.63
454.856	1.62
455.295	1.61
455.733	1.61
456.171	1.63
456.609	1.64
457.047	1.65
457.485	1.64
457.923	1.64
458.361	1.62
458.798	1.62
459.236	1.64
459.674	1.63
460.111	1.63
460.549	1.62
460.987	1.61
461.424	1.61
461.862	1.6
462.299	1.6
462.736	1.6
463.173	1.6
463.611	1.59
464.048	1.59
464.485	1.59
464.922	1.57
465.359	1.58
465.796	1.56
466.233	1.55
466.67	1.55
467.106	1.54
467.543	1.54
467.98	1.54
468.416	1.55
468.853	1.54
469.29	1.54
469.726	1.56
470.162	1.55
470.599	1.57
471.035	1.58
471.471	1.57
471.907	1.59
472.344	1.59
472.78	1.6
473.216	1.6
473.652	1.6
474.088	1.61
474.523	1.62
474.959	1.63
475.395	1.62
475.831	1.63
476.266	1.64
476.702	1.64
477.138	1.64
477.573	1.64
478.008	1.65
478.444	1.65
478.879	1.65
479.314	1.66
479.75	1.65
480.185	1.66
480.62	1.66
481.055	1.66
481.49	1.67
481.925	1.68
482.36	1.67
482.795	1.67
483.229	1.67
483.664	1.67
484.099	1.66
484.534	1.66
484.968	1.66
485.403	1.66
485.837	1.66
486.271	1.65
486.706	1.64
487.14	1.65
487.574	1.66
488.009	1.65
488.443	1.65
488.877	1.65
489.311	1.66
489.745	1.66
490.179	1.66
490.613	1.66
491.046	1.66
491.48	1.67
491.914	1.66
492.348	1.66
492.781	1.66
493.215	1.66
493.648	1.66
494.082	1.66
494.515	1.65
494.948	1.64
495.382	1.63
495.815	1.64
496.248	1.63
496.681	1.64
497.114	1.63
497.547	1.63
497.98	1.63
498.413	1.63
498.846	1.63
499.279	1.63
499.711	1.63
500.144	1.63
500.577	1.62
501.009	1.61
501.442	1.61
501.874	1.6
502.306	1.6
502.739	1.59
503.171	1.59
503.603	1.59
504.036	1.6
504.468	1.6
504.9	1.6
505.332	1.61
505.764	1.62
506.196	1.63
506.627	1.63
507.059	1.62
507.491	1.63
507.923	1.63
508.354	1.62
508.786	1.62
509.217	1.61
509.649	1.61
510.08	1.62
510.512	1.6
510.943	1.61
511.374	1.61
511.805	1.61
512.237	1.61
512.668	1.61
513.099	1.61
513.53	1.61
513.961	1.62
514.391	1.61
514.822	1.6
515.253	1.61
515.684	1.59
516.114	1.59
516.545	1.59
516.975	1.59
517.406	1.59
517.836	1.59
518.267	1.58
518.697	1.58
519.127	1.59
519.558	1.59
519.988	1.59
520.418	1.59
520.848	1.59
521.278	1.6
521.708	1.55
522.138	1.55
522.567	1.54
522.997	1.53
523.427	1.54
523.857	1.53
524.286	1.54
524.716	1.53
525.145	1.54
525.575	1.54
526.004	1.53
526.433	1.59
526.863	1.6
527.292	1.61
527.721	1.61
528.15	1.6
528.579	1.61
529.008	1.61
529.437	1.62
529.866	1.62
530.295	1.63
530.724	1.64
531.152	1.65
531.581	1.64
532.01	1.64
532.438	1.65
532.867	1.65
533.295	1.65
533.723	1.66
534.152	1.66
534.58	1.66
535.008	1.65
535.436	1.63
535.865	1.63
536.293	1.65
536.721	1.64
537.149	1.64
537.576	1.64
538.004	1.65
538.432	1.62
538.86	1.62
539.287	1.63
539.715	1.63
540.143	1.64
540.57	1.63
540.998	1.64
541.425	1.64
541.852	1.64
542.28	1.63
542.707	1.64
543.134	1.65
543.561	1.64
543.988	1.64
544.415	1.64
544.842	1.65
545.269	1.66
545.696	1.65
546.123	1.65
546.549	1.64
546.976	1.65
547.403	1.64
547.829	1.65
548.256	1.66
548.682	1.65
549.108	1.65
549.535	1.63
549.961	1.63
550.387	1.61
550.813	1.6
551.24	1.61
551.666	1.61
552.092	1.62
552.518	1.62
552.943	1.6
553.369	1.6
553.795	1.61
554.221	1.61
554.646	1.6
555.072	1.6
555.498	1.63
555.923	1.64
556.349	1.63
556.774	1.63
557.199	1.64
557.625	1.65
558.05	1.64
558.475	1.62
558.9	1.63
559.325	1.64
559.75	1.63
560.175	1.62
560.6	1.61
561.025	1.6
561.449	1.59
561.874	1.59
562.299	1.58
562.723	1.59
563.148	1.59
563.572	1.59
563.997	1.58
564.421	1.59
564.846	1.6
565.27	1.6
565.694	1.6
566.118	1.61
566.542	1.61
566.966	1.62
567.39	1.62
567.814	1.63
568.238	1.63
568.662	1.63
569.086	1.64
569.509	1.64
569.933	1.63
570.357	1.62
570.78	1.63
571.204	1.62
571.627	1.61
572.05	1.61
572.474	1.61
572.897	1.59
573.32	1.59
573.743	1.57
574.166	1.57
574.589	1.57
575.012	1.57
575.435	1.55
575.858	1.55
576.281	1.55
576.704	1.56
577.126	1.56
577.549	1.57
577.972	1.56
578.394	1.56
578.817	1.56
579.239	1.56
579.661	1.57
580.084	1.55
580.506	1.56
580.928	1.56
581.35	1.55
581.772	1.54
582.194	1.54
582.616	1.55
583.038	1.55
583.46	1.55
583.882	1.56
584.303	1.55
584.725	1.56
585.147	1.53
585.568	1.53
585.99	1.54
586.411	1.54
586.833	1.55
587.254	1.55
587.675	1.54
588.096	1.54
588.518	1.53
588.939	1.54
589.36	1.54
589.781	1.56
590.202	1.55
590.623	1.55
591.043	1.54
591.464	1.53
591.885	1.52
592.305	1.54
592.726	1.54
593.147	1.54
593.567	1.54
593.987	1.54
594.408	1.53
594.828	1.54
595.248	1.54
595.669	1.54
596.089	1.54
596.509	1.54
596.929	1.53
597.349	1.54
597.769	1.54
598.189	1.55
598.608	1.54
599.028	1.55
599.448	1.57
599.867	1.56
600.287	1.56
600.706	1.57
601.126	1.58
601.545	1.57
601.965	1.57
602.384	1.57
602.803	1.56
603.222	1.56
603.641	1.56
604.061	1.55
604.48	1.56
604.898	1.56
605.317	1.55
605.736	1.55
606.155	1.55
606.574	1.55
606.992	1.55
607.411	1.56
607.829	1.51
608.248	1.52
608.666	1.52
609.085	1.53
609.503	1.52
609.921	1.52
610.339	1.53
610.758	1.53
611.176	1.54
611.594	1.53
612.012	1.52
612.43	1.58
612.847	1.59
613.265	1.58
613.683	1.57
614.101	1.57
614.518	1.57
614.936	1.57
615.353	1.57
615.771	1.57
616.188	1.58
616.606	1.58
617.023	1.57
617.44	1.56
617.857	1.56
618.274	1.56
618.691	1.56
619.108	1.57
619.525	1.57
619.942	1.56
620.359	1.56
620.776	1.55
621.192	1.56
621.609	1.55
622.026	1.55
622.442	1.54
622.859	1.55
623.275	1.56
623.691	1.55
624.108	1.55
624.524	1.55
624.94	1.55
625.356	1.55
625.772	1.56
626.188	1.57
626.604	1.55
627.02	1.55
627.436	1.55
627.852	1.55
628.268	1.54
628.683	1.53
629.099	1.54
629.514	1.54
629.93	1.53
630.345	1.51
630.761	1.5
631.176	1.51
631.591	1.51
632.007	1.5
632.422	1.51
632.837	1.52
633.252	1.53
633.667	1.51
634.082	1.51
634.497	1.5
634.911	1.5
635.326	1.49
635.741	1.49
636.155	1.49
636.57	1.49
636.984	1.48
637.399	1.47
637.813	1.46
638.228	1.47
638.642	1.48
639.056	1.49
639.47	1.48
639.884	1.48
640.298	1.48
640.712	1.48
641.126	1.48
641.54	1.48
641.954	1.5
642.368	1.49
642.781	1.49
643.195	1.47
643.609	1.47
644.022	1.48
644.436	1.48
644.849	1.48
645.262	1.49
645.676	1.49
646.089	1.48
646.502	1.47
646.915	1.47
647.328	1.48
647.741	1.47
648.154	1.47
648.567	1.47
648.98	1.47
649.393	1.46
649.805	1.44
650.218	1.45
650.631	1.45
651.043	1.45
651.456	1.45
651.868	1.44
652.28	1.46
652.693	1.45
653.105	1.45
653.517	1.45
653.929	1.46
654.341	1.46
654.753	1.45
655.165	1.46
655.577	1.46
655.989	1.44
656.401	1.44
656.813	1.43
657.224	1.44
657.636	1.45
658.047	1.45
658.459	1.45
658.87	1.45
659.282	1.46
659.693	1.46
660.104	1.45
660.515	1.46
660.926	1.46
661.338	1.47
661.749	1.45
662.159	1.45
662.57	1.45
662.981	1.44
663.392	1.43
663.803	1.42
664.213	1.42
664.624	1.42
665.035	1.41
665.445	1.42
665.855	1.42
666.266	1.44
666.676	1.42
667.086	1.42
667.497	1.42
667.907	1.4
668.317	1.41
668.727	1.41
669.137	1.4
669.547	1.41
669.956	1.4
670.366	1.4
670.776	1.39
671.186	1.39
671.595	1.4
672.005	1.41
672.414	1.41
672.824	1.42
673.233	1.41
673.642	1.4
674.052	1.4
674.461	1.39
674.87	1.39
675.279	1.4
675.688	1.4
676.097	1.39
676.506	1.39
676.915	1.4
677.323	1.39
677.732	1.39
678.141	1.4
678.549	1.42
678.958	1.42
679.366	1.41
679.775	1.4
680.183	1.4
680.592	1.4
681	1.39
681.408	1.39
681.816	1.38
682.224	1.38
682.632	1.38
683.04	1.37
683.448	1.37
683.856	1.37
684.264	1.38
684.671	1.38
685.079	1.38
685.487	1.39
685.894	1.39
686.302	1.39
686.709	1.38
687.116	1.38
687.524	1.38
687.931	1.38
688.338	1.39
688.745	1.39
689.152	1.38
689.559	1.39
689.966	1.38
690.373	1.38
690.78	1.38
691.187	1.39
691.593	1.38
692	1.38
692.407	1.39
692.813	1.38
693.22	1.39
693.626	1.4
694.032	1.4
694.439	1.41
694.845	1.41
695.251	1.43
695.657	1.43
696.063	1.45
696.469	1.47
696.875	1.47
697.281	1.46
697.687	1.47
698.093	1.47
698.498	1.48
698.904	1.48
699.31	1.48
699.715	1.49
700.12	1.48
700.526	1.48
700.931	1.49
701.337	1.49
701.742	1.5
702.147	1.49
702.552	1.49
702.957	1.48
703.362	1.48
703.767	1.48
704.172	1.47
704.577	1.48
704.981	1.47
705.386	1.47
705.791	1.46
706.195	1.48
706.6	1.49
707.004	1.48
707.408	1.48
707.813	1.47
708.217	1.47
708.621	1.48
709.025	1.48
709.43	1.47
709.834	1.49
710.237	1.49
710.641	1.48
711.045	1.46
711.449	1.48
711.853	1.46
712.256	1.49
712.66	1.48
713.064	1.48
713.467	1.47
713.87	1.47
714.274	1.46
714.677	1.47
715.08	1.45
715.484	1.46
715.887	1.46
716.29	1.46
716.693	1.45
717.096	1.45
717.499	1.45
717.901	1.45
718.304	1.46
718.707	1.46
719.109	1.47
719.512	1.48
719.915	1.46
720.317	1.46
720.719	1.46
721.122	1.47
721.524	1.47
721.926	1.48
722.328	1.48
722.731	1.46
723.133	1.46
723.535	1.45
723.937	1.45
724.338	1.46
724.74	1.45
725.142	1.4
725.544	1.39
725.945	1.36
726.347	1.36
726.748	1.35
727.15	1.36
727.551	1.35
727.952	1.36
728.354	1.38
728.755	1.38
729.156	1.38
729.557	1.45
729.958	1.45
730.359	1.47
730.76	1.46
731.161	1.46
731.562	1.46
731.962	1.45
732.363	1.46
732.763	1.44
733.164	1.45
733.564	1.45
733.965	1.47
734.365	1.47
734.766	1.47
735.166	1.48
735.566	1.49
735.966	1.48
736.366	1.48
736.766	1.46
737.166	1.45
737.566	1.45
737.966	1.45
738.365	1.43
738.765	1.43
739.165	1.43
739.564	1.43
739.964	1.41
740.363	1.43
740.763	1.44
741.162	1.46
741.561	1.47
741.96	1.47
742.36	1.46
742.759	1.46
743.158	1.45
743.557	1.45
743.955	1.47
744.354	1.48
744.753	1.46
745.152	1.46
745.55	1.45
745.949	1.45
746.348	1.46
746.746	1.46
747.144	1.46
747.543	1.48
747.941	1.47
748.339	1.46
748.737	1.45
749.136	1.45
749.534	1.45
749.932	1.44
750.33	1.44
750.727	1.45
751.125	1.44
751.523	1.46
751.921	1.46
752.318	1.46
752.716	1.46
753.113	1.48
753.511	1.49
753.908	1.5
754.305	1.5
754.703	1.48
755.1	1.46
755.497	1.47
755.894	1.45
756.291	1.46
756.688	1.47
757.085	1.46
757.482	1.47
757.878	1.49
758.275	1.48
758.672	1.5
759.068	1.51
759.465	1.53
759.861	1.51
760.258	1.5
760.654	1.49
761.05	1.5
761.447	1.51
761.843	1.5
762.239	1.49
762.635	1.47
763.031	1.47
763.427	1.47
763.822	1.46
764.218	1.48
764.614	1.49
765.01	1.47
765.405	1.45
765.801	1.44
766.196	1.42
766.592	1.42
766.987	1.44
767.382	1.45
767.778	1.44
768.173	1.43
768.568	1.41
768.963	1.43
769.358	1.44
769.753	1.44
770.148	1.43
770.542	1.45
770.937	1.45
771.332	1.43
771.726	1.41
772.121	1.4
772.515	1.41
772.91	1.41
773.304	1.39
773.699	1.39
774.093	1.38
774.487	1.39
774.881	1.38
775.275	1.38
775.669	1.39
776.063	1.39
776.457	1.4
776.851	1.37
777.245	1.37
777.638	1.37
778.032	1.37
778.425	1.36
778.819	1.37
779.212	1.37
779.606	1.36
779.999	1.36
780.392	1.36
780.786	1.37
781.179	1.39
781.572	1.39
781.965	1.37
782.358	1.37
782.751	1.39
783.143	1.39
783.536	1.37
783.929	1.37
784.322	1.39
784.714	1.4
785.107	1.38
785.499	1.36
785.891	1.35
786.284	1.38
786.676	1.39
787.068	1.38
787.46	1.36
787.852	1.38
788.245	1.36
788.636	1.35
789.028	1.34
789.42	1.35
789.812	1.38
790.204	1.38
790.595	1.36
790.987	1.33
791.378	1.33
791.77	1.35
792.161	1.35
792.553	1.35
792.944	1.35
793.335	1.37
793.726	1.36
794.117	1.36
794.508	1.37
794.899	1.38
795.29	1.41
795.681	1.4
796.072	1.4
796.463	1.38
796.853	1.38
797.244	1.39
797.634	1.36
798.025	1.37
798.415	1.38
798.806	1.39
799.196	1.37
799.586	1.37
799.976	1.38
800.366	1.35
800.756	1.38
801.146	1.38
801.536	1.37
801.926	1.39
802.316	1.4
802.706	1.4
803.095	1.4
803.485	1.42
803.874	1.4
804.264	1.38
804.653	1.39
805.043	1.39
805.432	1.39
805.821	1.39
806.21	1.41
806.599	1.41
806.988	1.41
807.377	1.4
807.766	1.39
808.155	1.41
808.544	1.42
808.933	1.43
809.321	1.43
809.71	1.44
810.098	1.44
810.487	1.43
810.875	1.43
811.264	1.42
811.652	1.41
812.04	1.42
812.428	1.42
812.816	1.42
813.204	1.41
813.592	1.42
813.98	1.42
814.368	1.43
814.756	1.41
815.144	1.43
815.531	1.43
815.919	1.44
816.306	1.43
816.694	1.44
817.081	1.46
817.469	1.45
817.856	1.44
818.243	1.43
818.63	1.45
819.017	1.47
819.404	1.45
819.791	1.47
820.178	1.47
820.565	1.46
820.952	1.46
821.339	1.45
821.725	1.48
822.112	1.48
822.498	1.51
822.885	1.5
823.271	1.51
823.657	1.52
824.044	1.53
824.43	1.53
824.816	1.52
825.202	1.52
825.588	1.53
825.974	1.53
826.36	1.52
826.746	1.5
827.132	1.5
827.517	1.47
827.903	1.48
828.289	1.46
828.674	1.46
829.06	1.47
829.445	1.48
829.83	1.48
830.216	1.48
830.601	1.5
830.986	1.5
831.371	1.51
831.756	1.52
832.141	1.5
832.526	1.5
832.911	1.53
833.295	1.54
833.68	1.53
834.065	1.53
834.449	1.52
834.834	1.51
835.218	1.51
835.603	1.51
835.987	1.51
836.371	1.52
836.755	1.52
837.139	1.52
837.524	1.52
837.908	1.52
838.291	1.52
838.675	1.53
839.059	1.55
839.443	1.56
839.827	1.55
840.21	1.57
840.594	1.55
840.977	1.55
841.361	1.54
841.744	1.54
842.127	1.55
842.511	1.55
842.894	1.55
843.277	1.55
843.66	1.55
844.043	1.56
844.426	1.55
844.809	1.56
845.191	1.56
845.574	1.56
845.957	1.55
846.339	1.56
846.722	1.56
847.104	1.56
847.487	1.55
847.869	1.54
848.252	1.54
848.634	1.53
849.016	1.54
849.398	1.55
849.78	1.55
850.162	1.56
850.544	1.55
850.926	1.55
851.307	1.56
851.689	1.55
852.071	1.57
852.452	1.58
852.834	1.6
853.215	1.6
853.597	1.59
853.978	1.58
854.359	1.58
854.741	1.56
855.122	1.57
855.503	1.55
855.884	1.56
856.265	1.56
856.646	1.55
857.026	1.54
857.407	1.52
857.788	1.54
858.169	1.54
858.549	1.55
858.93	1.54
859.31	1.55
859.69	1.56
860.071	1.57
860.451	1.57
860.831	1.57
861.211	1.57
861.591	1.57
861.971	1.56
862.351	1.56
862.731	1.55
863.111	1.56
863.491	1.55
863.87	1.55
864.25	1.54
864.629	1.54
865.009	1.54
865.388	1.54
865.768	1.53
866.147	1.52
866.526	1.54
866.905	1.55
867.284	1.55
867.663	1.55
868.042	1.55
868.421	1.54
868.8	1.53
869.179	1.53
869.558	1.52
869.936	1.55
870.315	1.55
870.693	1.55
871.072	1.54
871.45	1.53
871.828	1.54
872.207	1.54
872.585	1.55
872.963	1.58
873.341	1.58
873.719	1.6
874.097	1.6
874.475	1.61
874.853	1.61
875.23	1.62
875.608	1.62
875.986	1.61
876.363	1.63
876.741	1.64
877.118	1.6
877.495	1.6
877.873	1.59
878.25	1.57
878.627	1.56
879.004	1.55
879.381	1.57
879.758	1.56
880.135	1.55
880.512	1.53
880.889	1.52
881.265	1.53
881.642	1.52
882.019	1.53
882.395	1.54
882.772	1.54
883.148	1.54
883.524	1.52
883.901	1.53
884.277	1.55
884.653	1.57
885.029	1.57
885.405	1.57
885.781	1.58
886.157	1.58
886.532	1.58
886.908	1.58
887.284	1.58
887.659	1.6
888.035	1.6
888.411	1.6
888.786	1.6
889.161	1.59
889.537	1.6
889.912	1.6
890.287	1.61
890.662	1.62
891.037	1.61
891.412	1.6
891.787	1.59
892.162	1.59
892.536	1.59
892.911	1.59
893.286	1.59
893.66	1.6
894.035	1.6
894.409	1.59
894.784	1.6
895.158	1.61
895.532	1.61
895.906	1.61
896.281	1.6
896.655	1.6
897.029	1.57
897.402	1.58
897.776	1.57
898.15	1.56
898.524	1.56
898.898	1.57
899.271	1.55
899.645	1.56
900.018	1.54
900.392	1.55
900.765	1.56
901.138	1.57
901.511	1.56
901.884	1.56
902.258	1.55
902.631	1.55
903.003	1.54
903.376	1.55
903.749	1.56
904.122	1.57
904.495	1.56
904.867	1.55
905.24	1.55
905.612	1.56
905.985	1.58
906.357	1.57
906.729	1.57
907.102	1.56
907.474	1.56
907.846	1.53
908.218	1.53
908.59	1.51
908.962	1.52
909.334	1.52
909.705	1.51
910.077	1.49
910.449	1.5
910.82	1.49
911.192	1.49
911.563	1.49
911.935	1.48
912.306	1.49
912.677	1.52
913.048	1.5
913.419	1.49
913.79	1.47
914.161	1.47
914.532	1.47
914.903	1.49
915.274	1.47
915.645	1.48
916.015	1.49
916.386	1.49
916.756	1.45
917.127	1.46
917.497	1.48
917.868	1.5
918.238	1.5
918.608	1.5
918.978	1.5
919.348	1.49
919.718	1.48
920.088	1.48
920.458	1.48
920.828	1.49
921.198	1.49
921.567	1.48
921.937	1.48
922.306	1.5
922.676	1.5
923.045	1.47
923.415	1.47
923.784	1.47
924.153	1.47
924.522	1.46
924.891	1.44
925.26	1.43
925.629	1.42
925.998	1.41
926.367	1.4
926.736	1.38
927.104	1.38
927.473	1.38
927.842	1.37
928.21	1.36
928.578	1.36
928.947	1.38
929.315	1.38
929.683	1.38
930.051	1.4
930.42	1.36
930.788	1.34
931.156	1.34
931.523	1.33
931.891	1.3
932.259	1.32
932.627	1.31
932.994	1.33
933.362	1.3
933.729	1.25
934.097	1.21
934.464	1.24
934.831	1.29
935.199	1.28
935.566	1.34
935.933	1.35
936.3	1.31
936.667	1.32
937.034	1.27
937.401	1.25
937.767	1.3
938.134	1.28
938.501	1.22
938.867	1.16
939.234	1.14
939.6	1.03
939.967	1.06
940.333	1.1
940.699	1.09
941.065	1.06
941.431	1.04
941.798	1
942.163	0.99
942.529	1.03
942.895	0.99
943.261	0.96
943.627	1.02
943.992	1.01
944.358	0.96
944.723	0.9
945.089	0.89
945.454	0.95
945.82	0.91
946.185	0.9
946.55	0.88
946.915	0.9
947.28	0.9
947.645	0.89
948.01	0.79
948.375	0.77
948.74	0.8
949.104	0.82
949.469	0.85
949.834	0.89
950.198	0.93
950.562	0.95
950.927	0.94
951.291	0.97
951.655	0.97
952.02	0.99
952.384	1.05
952.748	1.05
953.112	1.04
953.476	1.04
953.839	1.05
954.203	1.03
954.567	1
954.931	1.03
955.294	1.06
955.658	1.05
956.021	1.13
956.385	1.17
956.748	1.19
957.111	1.21
957.474	1.16
957.837	1.17
958.2	1.22
958.563	1.24
958.926	1.23
959.289	1.13
959.652	1.18
960.015	1.14
960.377	1.11
960.74	1.1
961.102	1.09
961.465	1.1
961.827	1.03
962.189	1.02
962.552	1.04
962.914	1.01
963.276	1.01
963.638	0.95
964	0.94
964.362	0.93
964.724	0.96
965.085	0.98
965.447	1
965.809	1.01
966.17	1
966.532	0.94
966.893	1.01
967.255	1.07
967.616	1.09
967.977	1.17
968.338	1.11
968.699	1.05
969.061	1
969.421	0.98
969.782	0.98
970.143	0.96
970.504	0.97
970.865	0.91
971.225	0.92
971.586	0.97
971.946	0.89
972.307	0.94
972.667	0.99
973.027	1.06
973.388	1.08
973.748	1.1
974.108	1.13
974.468	1.15
974.828	1.16
975.188	1.07
975.548	1.02
975.907	1.02
976.267	1.03
976.627	0.93
976.986	0.83
977.346	0.84
977.705	0.83
978.064	0.81
978.424	0.81
978.783	0.77
979.142	0.81
979.501	0.81
979.86	0.8
980.219	0.72
980.578	0.81
980.937	0.82
981.296	0.8
981.654	0.79
982.013	0.84
982.371	0.79
982.73	0.79
983.088	0.78
983.447	0.75
983.805	0.79
984.163	0.78
984.521	0.77
984.879	0.82
985.237	0.78
985.595	0.78
985.953	0.73
986.311	0.77
986.669	0.81
987.026	0.79
987.384	0.77
987.741	0.79
988.099	0.74
988.456	0.7
988.814	0.66
989.171	0.72
989.528	0.67
989.885	0.66
990.242	0.65
990.599	0.56
990.956	0.65
991.313	0.59
991.67	0.5
992.027	0.59
992.383	0.56
992.74	0.57
993.096	0.5
993.453	0.48
993.809	0.33
994.165	0.3
994.522	0.28
994.878	0.15
995.234	0.21
995.59	0.07
995.946	0.03
996.302	0.02
996.658	0.06
997.013	0.03
997.369	0.05
997.725	0.17
998.08	0.04
998.436	0.08
998.791	0.02
999.147	-0.12
999.502	0.05
999.857	0.01
1000.212	-0.05
1000.567	-0.17
1000.922	-0.19
1001.277	-0.33
1001.632	-0.35
1001.987	-0.35
1002.342	-0.41
1002.696	-0.42
1003.051	-0.49
1003.406	-0.76
1003.76	-0.76
1004.114	-0.79
1004.469	-0.74
1004.823	-0.67
1005.177	-0.57
1005.531	-0.7
1005.885	-0.71
1006.239	-0.86
1006.593	-0.93
1006.947	-0.67
1007.301	-0.64
1007.655	-0.59
1008.008	-0.59
1008.362	-0.73
1008.715	-0.93
1009.069	-0.93
1009.422	-0.87
1009.776	-0.81
1010.129	-0.66
1010.482	-0.54
1010.835	-0.68
1011.188	-0.76
1011.541	-1.09
1011.894	-1.36
1012.247	-1.33
1012.6	-1.41
1012.952	-1.56
1013.305	-1.68
1013.657	-1.8
1014.01	-1.77
1014.362	-1.8
1014.715	-1.86
1015.067	-1.5
1015.419	-1.2
1015.771	-0.97
1016.123	-1.18
1016.475	-1.17
1016.827	-1.17
1017.179	-1.13
1017.531	-0.99
1017.883	-1.1
1018.234	-1.22
1018.586	-1.48
1018.938	-1.91
1019.289	-2.33
1019.64	-2.44
1019.992	-2.36
1020.343	-2.45
1020.694	-2.75
1021.045	-2.9
1021.396	-2.99
1021.747	-2.91
1022.098	-2.68
1022.449	-2.47
1022.8	-2.56
1023.151	-2.47
1023.501	-2.59
1023.852	-2.72
1024.202	-2.45
1024.553	-2.14
1024.903	-2.13
1025.253	-2.35
1025.604	-2.44
1025.954	-2.99
1026.304	-2.81
1026.654	-2.63
1027.004	-2.38
1027.354	-2.16
1027.703	-2.01
1028.053	-2.21
1028.403	-2.74
1028.753	-2.75
1029.102	-2.95
1029.452	-3.46
1029.801	-3.57
1030.15	-3.89
1030.499	-3.97
897.758	516.41
901.051	532.93
904.343	534.29
907.636	527.27
910.928	518.7
914.22	524.23
917.511	515.4
920.803	491.77
924.094	471.2
927.384	473.65
930.675	460.94
933.965	457.08
937.255	449.71
940.544	430.4
943.834	406.18
947.123	399.55
950.411	378.03
953.7	369.19
956.988	355.96
960.276	339.2
963.563	333.06
966.851	311.56
970.138	306.73
973.424	284.93
976.711	281.56
979.997	272.41
983.283	264.09
986.568	255.2
989.853	247.58
993.138	236.67
996.423	232.34
999.708	224.83
1002.992	224.22
1006.275	215.31
1009.559	213.51
1012.842	205.08
1016.125	197.77
1019.408	193.31
1022.69	191.89
1025.972	187.42
1029.254	184.23
1032.536	179.52
1035.817	172.31
1039.098	170.23
1042.379	166.18
1045.659	162.21
1048.939	160.67
1052.219	157.16
1055.498	154.25
1058.778	149.69
1062.057	147.68
1065.335	145.64
1068.614	142.49
1071.892	140.37
1075.17	137.05
1078.447	134.02
1081.724	133.19
1085.001	128.73
1088.278	128.93
1091.554	126.46
1094.83	125.77
1098.106	123.16
1101.382	121.45
1104.657	121.51
1107.932	120.61
1111.206	119.54
1114.481	117.49
1117.755	116.32
1121.029	117.23
1124.302	113.93
1127.575	112.36
1130.848	111.53
1134.121	110.3
1137.393	110.52
1140.665	108.39
1143.937	107.5
1147.208	105.59
1150.48	105.12
1153.75	104.07
1157.021	101.97
1160.291	101.78
1163.561	101.86
1166.831	101.15
1170.101	100.03
1173.37	99.42
1176.639	98.49
1179.907	97.72
1183.176	97.18
1186.444	97.99
1189.711	96.86
1192.979	97.65
1196.246	98.04
1199.513	97.97
1202.78	97.57
1206.046	97.88
1209.312	98.38
1212.578	99.51
1215.843	101.32
1219.108	103.03
1222.373	104.47
1225.638	107.55
1228.902	110.45
1232.166	115.05
1235.43	117.18
1238.693	120.95
1241.956	124.51
1245.219	128.32
1248.482	128.39
1251.744	128.93
1255.006	129.05
1258.268	125.73
1261.529	124.04
1264.79	120.41
1268.051	116.11
1271.312	114.89
1274.572	112.44
1277.832	109.21
1281.092	106.31
1284.351	104.5
1287.61	104.39
1290.869	102.3
1294.128	101.55
1297.386	101.84
1300.644	101.35
1303.902	100.6
1307.159	101.06
1310.416	101.89
1313.673	102.96
1316.93	106.28
1320.186	108.15
1323.442	110.07
1326.697	114.25
1329.953	114.83
1333.208	118.96
1336.463	126.45
1339.717	130.6
1342.972	137.35
1346.226	142.03
1349.479	144.23
1352.733	151
1355.986	155.65
1359.238	159.71
1362.491	161.63
1365.743	171.82
1368.995	174.65
1372.247	174.28
1375.498	174.22
1378.749	181.27
1382	183.16
1385.251	182.38
1388.501	183.6
1391.751	187.74
1395	185.96
1398.25	188.5
1401.499	187.22
1404.748	186.46
1407.996	182.78
1411.244	183.37
1414.492	180.67
1417.74	176.07
1420.987	172.3
1424.234	167.88
1427.481	161.26
1430.728	157.67
1433.974	150.62
1437.22	145.97
1440.465	140.49
1443.711	136.41
1446.956	131.97
1450.201	126.17
1453.445	120.1
1456.689	116.69
1459.933	112.16
1463.177	105.77
1466.42	104.33
1469.663	101.48
1472.906	97.84
1476.148	94.66
1479.391	92
1482.633	89.95
1485.874	87.45
1489.115	86.46
1492.356	84.15
1495.597	82.6
1498.838	82.52
1502.078	80.38
1505.318	79.73
1508.557	78.54
1511.797	77.44
1515.036	76.25
1518.274	75.47
1521.513	73.99
1524.751	73.01
1527.989	73.16
1531.227	72.45
1534.464	71.87
1537.701	70.68
1540.938	69.9
1544.174	69.55
1547.41	69.64
1550.646	69.64
1553.882	69.13
1557.117	68.31
1560.352	67.64
1563.587	66.3
1566.821	66.15
1570.055	65.21
1573.289	64.71
1576.523	64.74
1579.756	64.29
1582.989	63.79
1586.222	62.66
1589.454	62.4
1592.686	62.97
1595.918	62.4
1599.15	62.55
1602.381	62.31
1605.612	62.43
1608.843	62.14
1612.073	62.31
1615.303	62.45
1618.533	61.87
1621.762	61.57
1624.992	61.75
1628.221	60.65
1631.449	61.5
1634.678	61.17
1637.906	61.06
1641.134	61.38
1644.361	61.52
1647.588	61.33
1650.815	61.24
1654.042	61.09
1657.269	61.43
1660.495	61.88
1663.72	62.12
1666.946	61.9
1670.171	62.43
1673.396	62.83
1676.621	62.19
1679.845	62.96
1683.069	62.76
1686.293	62.63
1689.517	63.15
1692.74	63.59
1695.963	63.49
1699.185	63.84
1702.408	63.47
1705.63	63.5
1708.852	64.11
1712.073	64.52
1715.294	64.09
1718.515	65.78
1721.736	65.8
1724.956	66.14
1728.176	66.07
1731.396	66.36
1734.616	67.01
1737.835	67.8
1741.054	67.83
1744.272	67.79
1747.491	67.86
1750.709	68.87
1753.927	68.23
1757.144	69.14
1760.361	69.41
1763.578	70.11
1766.795	70.68
1770.011	71.52
1773.227	71.75
1776.443	72.78
1779.658	72.62
1782.874	73.63
1786.089	73.23
1789.303	73.5
1792.518	74.53
1795.732	75.24
1798.945	76.15
1802.159	76.11
1805.372	76.28
1808.585	77.77
1811.797	78.25
1815.01	79.89
1818.222	80.76
1821.434	82.25
1824.645	82.76
1827.856	83.82
1831.067	84.16
1834.278	86.21
1837.488	87.34
1840.698	88.5
1843.908	88.26
1847.117	90.81
1850.326	91.69
1853.535	92.8
1856.744	94.83
1859.952	97.36
1863.16	97.64
1866.368	98.7
1869.575	99.83
1872.782	100.51
1875.989	101.14
1879.196	103.28
1882.402	102.78
1885.608	104.2
1888.814	105.41
1892.019	108.31
1895.224	106.93
1898.429	108.89
1901.634	110.62
1904.838	110.71
1908.042	112.98
1911.246	112.48
1914.449	112.14
1917.652	112.76
1920.855	112.83
1924.058	112.36
1927.26	110.6
1930.462	112.84
1933.664	111.96
1936.865	112.87
1940.066	111.11
1943.267	110.01
1946.467	111.58
1949.668	111.33
1952.868	112.17
1956.067	112.41
1959.267	112.05
1962.466	112.78
1965.665	112.68
1968.863	112.77
1972.061	112.31
1975.259	116.34
1978.457	117.95
1981.654	118.39
1984.852	119.49
1988.048	120.36
1991.245	122
1994.441	125.14
1997.637	126.63
2000.833	129.3
2004.028	131.15
2007.223	135.31
2010.418	136.11
2013.613	142.9
2016.807	146.86
2020.001	150.28
2023.194	153.38
2026.388	158.21
2029.581	167.15
2032.774	171.99
2035.966	176.46
2039.158	182.11
2042.35	185.2
2045.542	188.79
2048.733	193.71
2051.924	195.57
2055.115	199.09
2058.306	202.24
2061.496	204.74
2064.686	204.05
2067.875	202.95
2071.065	205.9
2074.254	206.38
2077.442	210.96
2080.631	213.76
2083.819	214.77
2087.007	219.15
2090.195	221.59
2093.382	220.95
2096.569	221.84
2099.756	225.92
2102.942	231.86
2106.128	235.91
2109.314	237.94
2112.5	238.95
2115.685	236.56
2118.87	236.01
2122.055	238.77
2125.239	242.93
2128.424	249.39
2131.608	247.69
2134.791	247.93
2137.974	248.63
2141.157	251.37
2144.34	252.98
2147.523	255.83
2150.705	262.93
2153.887	261.1
2157.068	261.92
2160.25	265.91
2163.431	264.37
2166.611	267.45
2169.792	271.8
2172.972	276.4
2176.152	276.38
2179.331	283.04
2182.511	285.8
2185.69	288.96
2188.868	298.35
2192.047	306.37
2195.225	310.86
2198.403	316.1
2201.58	315.13
2204.758	323.67
2207.935	325.83
2211.111	332.38
2214.288	334.28
2217.464	336.89
2220.64	340.39
2223.815	342.53
2226.991	337.01
2230.166	339.66
2233.34	349.26
2236.515	358.62
2239.689	354.15
2242.863	360.48
2246.036	356.38
2249.209	364.1
2252.382	365.04
2255.555	378.55
2258.727	381.68
2261.9	394.66
2265.071	398.89
2268.243	396.13
2271.414	409.42
2274.585	417.97
2277.756	419.83
2280.926	436.41
2284.096	435.35
2287.266	437.91
2290.436	430.95
2293.605	440.16
2296.774	456.55
2299.942	459.46
2303.111	472.25
2306.279	483.66
2309.447	485.82
2312.614	488.02
2315.781	498.65
2318.948	507.67
2322.115	516.67
2325.281	540.75
2328.447	541.8
2331.613	543.43
2334.779	548.76
2337.944	561.56
2341.109	567.82
2344.274	574.58
2347.438	585.2
2350.602	594.23
2353.766	637.74
2356.929	640.97
2360.092	648.63
2363.255	648.29
2366.418	658.81
2369.58	666.46
2372.742	672.58
2375.904	670.91
2379.066	686.54
2382.227	726.85
2385.388	728.07
2388.548	681.05
2391.709	672.89
2394.869	693.6
2398.029	697.53
2401.188	697.54
2404.347	725.87
2407.506	739.09
2410.665	711.35
2413.823	720.33
2416.981	724.74
2420.139	687.53
2423.296	746.27
2426.453	798.54
2429.61	757.19
2432.767	806.75
2435.923	831.22
2439.079	805.61
2442.235	823.81
2445.391	850.39
2448.546	834.5
2451.701	879.4
2454.855	941.71
2458.009	834.96
2461.163	836.29
2464.317	862.42
2467.471	843.24
2470.624	867.66
2473.777	856.62
2476.929	834.82
2480.082	879.42
2483.234	930.39
2486.385	945.66
2489.537	969.41
2492.688	1064.84
2495.839	1059.19
2498.989	1078.36
2502.14	1078.95
2505.29	1045.19
2508.439	1144.35
2511.589	1168.5
2514.738	1143.72
2517.887	1127.71
2521.035	1058.77
2524.183	1040.1
2527.331	1026.64
2530.479	1002.39
2533.627	1024.64
