Data from c_3_div_wi_4n_Splice17_17.txt Node
Date: Sat Feb 29 14:42:42 EST 2020
User: sa697716
Spectrometer: FLMS03696
Trigger mode: 0
Integration Time (sec): 3.180400E-1
Scans to average: 20
Electric dark correction enabled: true
Nonlinearity correction enabled: true
Boxcar width: 5
XAxis mode: Wavelengths
Number of Pixels in Spectrum: 2048
>>>>>Begin Spectral Data<<<<<
187.83	85.6
188.298	93.74
188.766	85.76
189.233	81.71
189.701	74.1
190.169	71.06
190.636	73.27
191.104	53.58
191.571	197.29
192.039	248.7
192.506	-200.54
192.974	4525
193.441	-673.22
193.908	118.48
194.375	153.47
194.842	96.79
195.31	61.58
195.777	87.21
196.244	39.25
196.711	29.99
197.177	27.03
197.644	25.32
198.111	24.11
198.578	23.65
199.045	24.29
199.511	24.87
199.978	25.41
200.445	25.14
200.911	25.1
201.378	25.01
201.844	25.22
202.31	25.7
202.777	26.15
203.243	26.61
203.709	27.33
204.176	26.99
204.642	26.93
205.108	26.73
205.574	27.26
206.04	27.42
206.506	27.63
206.972	27.52
207.438	27.09
207.903	27.11
208.369	26.49
208.835	26.18
209.301	26.66
209.766	26.33
210.232	26.51
210.697	26.17
211.163	26.09
211.628	25.68
212.094	25.72
212.559	25.76
213.024	25.45
213.49	25.49
213.955	25.21
214.42	24.65
214.885	24.53
215.35	24.19
215.815	23.66
216.28	23.36
216.745	22.95
217.21	22.37
217.675	21.76
218.14	21.22
218.604	20.68
219.069	20.31
219.534	19.92
219.998	19.48
220.463	19.17
220.927	18.89
221.392	18.55
221.856	18.26
222.32	18.03
222.785	17.81
223.249	17.62
223.713	17.49
224.177	17.27
224.642	17.1
225.106	16.95
225.57	16.76
226.034	16.6
226.497	16.43
226.961	16.27
227.425	16.06
227.889	15.9
228.353	15.71
228.816	15.52
229.28	15.3
229.744	15.15
230.207	14.99
230.671	14.79
231.134	14.61
231.597	14.41
232.061	14.24
232.524	14.1
232.987	13.94
233.45	13.77
233.914	13.61
234.377	13.5
234.84	13.34
235.303	13.19
235.766	13.07
236.229	12.94
236.691	12.82
237.154	12.7
237.617	12.57
238.08	12.45
238.542	12.36
239.005	12.27
239.468	12.15
239.93	12.05
240.393	11.93
240.855	11.82
241.317	11.72
241.78	11.65
242.242	11.54
242.704	11.46
243.166	11.38
243.629	11.28
244.091	11.18
244.553	11.09
245.015	11.01
245.477	10.93
245.939	10.85
246.4	10.77
246.862	10.71
247.324	10.64
247.786	10.57
248.247	10.49
248.709	10.44
249.17	10.37
249.632	10.31
250.093	10.23
250.555	10.18
251.016	10.13
251.477	10.07
251.939	10.01
252.4	9.97
252.861	9.93
253.322	9.88
253.783	9.83
254.244	9.8
254.705	9.77
255.166	9.75
255.627	9.7
256.088	9.66
256.549	9.62
257.009	9.58
257.47	9.54
257.931	9.49
258.391	9.44
258.852	9.4
259.312	9.35
259.773	9.3
260.233	9.25
260.694	9.21
261.154	9.17
261.614	9.12
262.074	9.07
262.534	9.02
262.994	8.98
263.455	8.94
263.915	8.9
264.374	8.84
264.834	8.8
265.294	8.75
265.754	8.7
266.214	8.66
266.673	8.63
267.133	8.59
267.593	8.55
268.052	8.5
268.512	8.46
268.971	8.42
269.431	8.39
269.89	8.36
270.349	8.33
270.809	8.3
271.268	8.26
271.727	8.22
272.186	8.19
272.645	8.16
273.104	8.13
273.563	8.1
274.022	8.06
274.481	8.03
274.94	7.99
275.399	7.95
275.857	7.92
276.316	7.88
276.775	7.83
277.233	7.8
277.692	7.77
278.15	7.73
278.609	7.68
279.067	7.64
279.525	7.61
279.984	7.58
280.442	7.55
280.9	7.52
281.358	7.48
281.816	7.46
282.274	7.43
282.732	7.4
283.19	7.39
283.648	7.38
284.106	7.36
284.564	7.35
285.021	7.33
285.479	7.32
285.937	7.3
286.394	7.29
286.852	7.28
287.309	7.26
287.767	7.24
288.224	7.22
288.682	7.2
289.139	7.19
289.596	7.16
290.053	7.13
290.511	7.1
290.968	7.07
291.425	7.04
291.882	7.02
292.339	6.99
292.796	6.97
293.252	6.95
293.709	6.92
294.166	6.89
294.623	6.87
295.079	6.85
295.536	6.84
295.992	6.82
296.449	6.8
296.905	6.78
297.362	6.76
297.818	6.76
298.274	6.74
298.731	6.72
299.187	6.71
299.643	6.69
300.099	6.68
300.555	6.65
301.011	6.64
301.467	6.62
301.923	6.61
302.379	6.6
302.835	6.58
303.291	6.56
303.746	6.55
304.202	6.53
304.658	6.52
305.113	6.51
305.569	6.5
306.024	6.49
306.479	6.48
306.935	6.47
307.39	6.46
307.845	6.45
308.301	6.44
308.756	6.44
309.211	6.43
309.666	6.42
310.121	6.42
310.576	6.41
311.031	6.41
311.486	6.4
311.94	6.39
312.395	6.38
312.85	6.38
313.305	6.37
313.759	6.36
314.214	6.35
314.668	6.35
315.123	6.34
315.577	6.33
316.032	6.33
316.486	6.31
316.94	6.3
317.394	6.29
317.849	6.28
318.303	6.27
318.757	6.25
319.211	6.23
319.665	6.22
320.119	6.21
320.572	6.19
321.026	6.17
321.48	6.16
321.934	6.15
322.387	6.15
322.841	6.13
323.295	6.12
323.748	6.1
324.202	6.09
324.655	6.08
325.108	6.06
325.562	6.04
326.015	6.03
326.468	6.01
326.921	5.99
327.374	5.99
327.827	5.98
328.28	5.96
328.733	5.95
329.186	5.95
329.639	5.93
330.092	5.92
330.545	5.91
330.997	5.91
331.45	5.9
331.903	5.88
332.355	5.88
332.808	5.87
333.26	5.86
333.713	5.86
334.165	5.85
334.617	5.87
335.069	5.87
335.522	5.87
335.974	5.86
336.426	5.87
336.878	5.87
337.33	5.87
337.782	5.88
338.234	5.88
338.686	5.89
339.137	5.9
339.589	5.89
340.041	5.89
340.493	5.88
340.944	5.86
341.396	5.86
341.847	5.86
342.299	5.85
342.75	5.84
343.201	5.82
343.653	5.81
344.104	5.8
344.555	5.78
345.006	5.78
345.457	5.78
345.908	5.78
346.359	5.78
346.81	5.78
347.261	5.78
347.712	5.78
348.163	5.78
348.613	5.79
349.064	5.79
349.515	5.8
349.965	5.81
350.416	5.82
350.866	5.83
351.317	5.83
351.767	5.85
352.217	5.86
352.668	5.88
353.118	5.91
353.568	5.94
354.018	5.97
354.468	5.99
354.918	6.01
355.368	6.05
355.818	6.07
356.268	6.11
356.718	6.15
357.168	6.18
357.617	6.21
358.067	6.25
358.517	6.27
358.966	6.32
359.416	6.36
359.865	6.4
360.315	6.44
360.764	6.49
361.213	6.52
361.663	6.57
362.112	6.64
362.561	6.7
363.01	6.76
363.459	6.81
363.908	6.87
364.357	6.93
364.806	6.98
365.255	7.05
365.703	7.12
366.152	7.18
366.601	7.23
367.05	7.27
367.498	7.33
367.947	7.38
368.395	7.43
368.844	7.47
369.292	7.51
369.74	7.57
370.189	7.62
370.637	7.67
371.085	7.72
371.533	7.76
371.981	7.81
372.429	7.85
372.877	7.9
373.325	7.94
373.773	7.99
374.221	8.03
374.669	8.06
375.116	8.09
375.564	8.12
376.012	8.16
376.459	8.19
376.907	8.22
377.354	8.26
377.801	8.29
378.249	8.32
378.696	8.36
379.143	8.39
379.591	8.42
380.038	8.45
380.485	8.49
380.932	8.51
381.379	8.52
381.826	8.55
382.273	8.57
382.72	8.6
383.166	8.61
383.613	8.63
384.06	8.64
384.506	8.65
384.953	8.67
385.4	8.68
385.846	8.69
386.292	8.72
386.739	8.73
387.185	8.75
387.631	8.77
388.078	8.78
388.524	8.78
388.97	8.78
389.416	8.79
389.862	8.79
390.308	8.79
390.754	8.8
391.2	8.8
391.645	8.81
392.091	8.8
392.537	8.8
392.983	8.81
393.428	8.83
393.874	8.86
394.319	8.86
394.765	8.86
395.21	8.85
395.655	8.83
396.101	8.82
396.546	8.81
396.991	8.79
397.436	8.76
397.881	8.74
398.326	8.74
398.771	8.72
399.216	8.71
399.661	8.72
400.106	8.73
400.551	8.71
400.995	8.69
401.44	8.67
401.885	8.66
402.329	8.66
402.774	8.62
403.218	8.57
403.663	8.55
404.107	8.54
404.551	8.52
404.995	8.48
405.44	8.47
405.884	8.45
406.328	8.43
406.772	8.41
407.216	8.4
407.66	8.4
408.104	8.39
408.547	8.38
408.991	8.35
409.435	8.33
409.879	8.31
410.322	8.3
410.766	8.3
411.209	8.3
411.653	8.27
412.096	8.24
412.54	8.23
412.983	8.21
413.426	8.2
413.869	8.18
414.312	8.18
414.756	8.18
415.199	8.19
415.642	8.19
416.085	8.2
416.527	8.22
416.97	8.22
417.413	8.22
417.856	8.2
418.298	8.17
418.741	8.16
419.184	8.15
419.626	8.13
420.069	8.11
420.511	8.09
420.953	8.06
421.396	8.05
421.838	8.05
422.28	8.06
422.722	8.08
423.164	8.11
423.606	8.1
424.048	8.09
424.49	8.1
424.932	8.11
425.374	8.11
425.816	8.1
426.258	8.08
426.699	8.03
427.141	7.99
427.582	7.97
428.024	7.95
428.465	7.96
428.907	7.96
429.348	7.95
429.789	7.93
430.231	7.91
430.672	7.91
431.113	7.92
431.554	7.94
431.995	7.95
432.436	7.93
432.877	7.91
433.318	7.92
433.759	7.9
434.2	7.89
434.64	7.9
435.081	7.89
435.522	7.9
435.962	7.91
436.403	7.93
436.843	7.95
437.284	7.99
437.724	8
438.164	7.98
438.604	8.01
439.045	8.02
439.485	8.03
439.925	8.03
440.365	8.03
440.805	8.04
441.245	8.03
441.685	8.03
442.125	8.02
442.564	8.05
443.004	8.08
443.444	8.08
443.883	8.11
444.323	8.12
444.762	8.18
445.202	8.21
445.641	8.23
446.081	8.25
446.52	8.28
446.959	8.3
447.398	8.34
447.837	8.37
448.276	8.39
448.716	8.42
449.154	8.45
449.593	8.48
450.032	8.52
450.471	8.55
450.91	8.58
451.349	8.6
451.787	8.62
452.226	8.6
452.664	8.6
453.103	8.61
453.541	8.61
453.98	8.61
454.418	8.59
454.856	8.56
455.295	8.54
455.733	8.52
456.171	8.5
456.609	8.51
457.047	8.5
457.485	8.5
457.923	8.49
458.361	8.47
458.798	8.47
459.236	8.48
459.674	8.47
460.111	8.47
460.549	8.46
460.987	8.45
461.424	8.43
461.862	8.42
462.299	8.41
462.736	8.41
463.173	8.41
463.611	8.38
464.048	8.36
464.485	8.35
464.922	8.34
465.359	8.34
465.796	8.33
466.233	8.33
466.67	8.34
467.106	8.33
467.543	8.33
467.98	8.32
468.416	8.33
468.853	8.34
469.29	8.35
469.726	8.34
470.162	8.34
470.599	8.36
471.035	8.37
471.471	8.37
471.907	8.38
472.344	8.37
472.78	8.38
473.216	8.38
473.652	8.4
474.088	8.4
474.523	8.41
474.959	8.42
475.395	8.43
475.831	8.43
476.266	8.43
476.702	8.43
477.138	8.43
477.573	8.42
478.008	8.43
478.444	8.42
478.879	8.41
479.314	8.4
479.75	8.42
480.185	8.4
480.62	8.38
481.055	8.37
481.49	8.37
481.925	8.38
482.36	8.37
482.795	8.36
483.229	8.36
483.664	8.35
484.099	8.36
484.534	8.36
484.968	8.36
485.403	8.38
485.837	8.39
486.271	8.41
486.706	8.41
487.14	8.45
487.574	8.47
488.009	8.49
488.443	8.53
488.877	8.55
489.311	8.57
489.745	8.61
490.179	8.64
490.613	8.67
491.046	8.71
491.48	8.77
491.914	8.82
492.348	8.87
492.781	8.92
493.215	8.96
493.648	9.04
494.082	9.13
494.515	9.19
494.948	9.26
495.382	9.34
495.815	9.42
496.248	9.5
496.681	9.59
497.114	9.68
497.547	9.79
497.98	9.9
498.413	9.99
498.846	10.11
499.279	10.22
499.711	10.34
500.144	10.47
500.577	10.61
501.009	10.75
501.442	10.91
501.874	11.06
502.306	11.23
502.739	11.39
503.171	11.57
503.603	11.76
504.036	11.96
504.468	12.16
504.9	12.39
505.332	12.61
505.764	12.85
506.196	13.08
506.627	13.32
507.059	13.55
507.491	13.82
507.923	14.08
508.354	14.36
508.786	14.63
509.217	14.91
509.649	15.2
510.08	15.49
510.512	15.78
510.943	16.09
511.374	16.4
511.805	16.73
512.237	17.05
512.668	17.37
513.099	17.74
513.53	18.08
513.961	18.44
514.391	18.77
514.822	19.12
515.253	19.48
515.684	19.84
516.114	20.22
516.545	20.58
516.975	20.95
517.406	21.31
517.836	21.64
518.267	22.01
518.697	22.36
519.127	22.72
519.558	23.07
519.988	23.43
520.418	23.76
520.848	24.08
521.278	24.42
521.708	24.72
522.138	25.02
522.567	25.34
522.997	25.62
523.427	25.93
523.857	26.2
524.286	26.49
524.716	26.74
525.145	27.01
525.575	27.26
526.004	27.51
526.433	27.76
526.863	28.04
527.292	28.27
527.721	28.48
528.15	28.68
528.579	28.9
529.008	29.09
529.437	29.28
529.866	29.45
530.295	29.62
530.724	29.81
531.152	29.96
531.581	30.07
532.01	30.19
532.438	30.31
532.867	30.45
533.295	30.55
533.723	30.67
534.152	30.78
534.58	30.85
535.008	30.91
535.436	30.97
535.865	31.04
536.293	31.12
536.721	31.18
537.149	31.25
537.576	31.28
538.004	31.31
538.432	31.34
538.86	31.35
539.287	31.4
539.715	31.46
540.143	31.49
540.57	31.51
540.998	31.54
541.425	31.57
541.852	31.59
542.28	31.64
542.707	31.67
543.134	31.69
543.561	31.72
543.988	31.74
544.415	31.76
544.842	31.78
545.269	31.81
545.696	31.82
546.123	31.85
546.549	31.87
546.976	31.89
547.403	31.93
547.829	31.96
548.256	31.98
548.682	32
549.108	32.04
549.535	32.09
549.961	32.08
550.387	32.08
550.813	32.08
551.24	32.09
551.666	32.11
552.092	32.1
552.518	32.08
552.943	32.08
553.369	32.07
553.795	32.03
554.221	31.98
554.646	31.96
555.072	31.94
555.498	31.9
555.923	31.83
556.349	31.74
556.774	31.67
557.199	31.62
557.625	31.53
558.05	31.43
558.475	31.34
558.9	31.25
559.325	31.13
559.75	31
560.175	30.88
560.6	30.77
561.025	30.66
561.449	30.51
561.874	30.35
562.299	30.22
562.723	30.09
563.148	29.92
563.572	29.77
563.997	29.63
564.421	29.46
564.846	29.29
565.27	29.12
565.694	28.93
566.118	28.75
566.542	28.58
566.966	28.39
567.39	28.18
567.814	28
568.238	27.78
568.662	27.58
569.086	27.38
569.509	27.19
569.933	26.98
570.357	26.76
570.78	26.57
571.204	26.36
571.627	26.15
572.05	25.98
572.474	25.79
572.897	25.62
573.32	25.42
573.743	25.25
574.166	25.08
574.589	24.92
575.012	24.8
575.435	24.63
575.858	24.48
576.281	24.36
576.704	24.21
577.126	24.06
577.549	23.93
577.972	23.8
578.394	23.67
578.817	23.55
579.239	23.43
579.661	23.32
580.084	23.21
580.506	23.12
580.928	23.01
581.35	22.94
581.772	22.84
582.194	22.74
582.616	22.66
583.038	22.58
583.46	22.5
583.882	22.41
584.303	22.32
584.725	22.24
585.147	22.16
585.568	22.05
585.99	21.96
586.411	21.89
586.833	21.81
587.254	21.75
587.675	21.68
588.096	21.62
588.518	21.55
588.939	21.5
589.36	21.44
589.781	21.38
590.202	21.34
590.623	21.27
591.043	21.22
591.464	21.17
591.885	21.12
592.305	21.08
592.726	21.02
593.147	20.99
593.567	20.92
593.987	20.9
594.408	20.86
594.828	20.82
595.248	20.79
595.669	20.75
596.089	20.72
596.509	20.65
596.929	20.59
597.349	20.54
597.769	20.5
598.189	20.46
598.608	20.4
599.028	20.35
599.448	20.31
599.867	20.24
600.287	20.19
600.706	20.13
601.126	20.08
601.545	20.03
601.965	19.97
602.384	19.91
602.803	19.85
603.222	19.77
603.641	19.71
604.061	19.61
604.48	19.54
604.898	19.46
605.317	19.39
605.736	19.31
606.155	19.21
606.574	19.11
606.992	19.03
607.411	18.93
607.829	18.81
608.248	18.72
608.666	18.63
609.085	18.55
609.503	18.45
609.921	18.35
610.339	18.27
610.758	18.2
611.176	18.11
611.594	18.01
612.012	17.91
612.43	17.85
612.847	17.76
613.265	17.68
613.683	17.58
614.101	17.48
614.518	17.38
614.936	17.28
615.353	17.19
615.771	17.11
616.188	17.03
616.606	16.97
617.023	16.9
617.44	16.82
617.857	16.76
618.274	16.7
618.691	16.65
619.108	16.61
619.525	16.56
619.942	16.5
620.359	16.46
620.776	16.41
621.192	16.36
621.609	16.32
622.026	16.28
622.442	16.22
622.859	16.19
623.275	16.17
623.691	16.15
624.108	16.14
624.524	16.14
624.94	16.12
625.356	16.1
625.772	16.09
626.188	16.08
626.604	16.07
627.02	16.08
627.436	16.07
627.852	16.04
628.268	16.01
628.683	15.98
629.099	15.96
629.514	15.92
629.93	15.9
630.345	15.86
630.761	15.81
631.176	15.78
631.591	15.72
632.007	15.66
632.422	15.61
632.837	15.53
633.252	15.47
633.667	15.37
634.082	15.28
634.497	15.18
634.911	15.09
635.326	14.98
635.741	14.87
636.155	14.73
636.57	14.61
636.984	14.46
637.399	14.32
637.813	14.17
638.228	14.03
638.642	13.9
639.056	13.74
639.47	13.6
639.884	13.45
640.298	13.29
640.712	13.15
641.126	13
641.54	12.86
641.954	12.73
642.368	12.59
642.781	12.45
643.195	12.3
643.609	12.17
644.022	12.04
644.436	11.92
644.849	11.8
645.262	11.69
645.676	11.57
646.089	11.47
646.502	11.36
646.915	11.27
647.328	11.18
647.741	11.1
648.154	11.04
648.567	10.95
648.98	10.9
649.393	10.84
649.805	10.77
650.218	10.72
650.631	10.67
651.043	10.64
651.456	10.61
651.868	10.56
652.28	10.52
652.693	10.47
653.105	10.44
653.517	10.39
653.929	10.33
654.341	10.3
654.753	10.23
655.165	10.17
655.577	10.09
655.989	10
656.401	9.93
656.813	9.85
657.224	9.78
657.636	9.7
658.047	9.6
658.459	9.5
658.87	9.41
659.282	9.34
659.693	9.25
660.104	9.17
660.515	9.08
660.926	9
661.338	8.92
661.749	8.83
662.159	8.74
662.57	8.67
662.981	8.62
663.392	8.53
663.803	8.46
664.213	8.41
664.624	8.36
665.035	8.31
665.445	8.26
665.855	8.21
666.266	8.18
666.676	8.14
667.086	8.12
667.497	8.08
667.907	8.06
668.317	8.02
668.727	8.01
669.137	7.99
669.547	8
669.956	8.01
670.366	8.02
670.776	8.03
671.186	8.04
671.595	8.05
672.005	8.08
672.414	8.1
672.824	8.13
673.233	8.15
673.642	8.17
674.052	8.19
674.461	8.19
674.87	8.21
675.279	8.25
675.688	8.28
676.097	8.32
676.506	8.36
676.915	8.4
677.323	8.45
677.732	8.51
678.141	8.57
678.549	8.64
678.958	8.71
679.366	8.77
679.775	8.85
680.183	8.95
680.592	9.03
681	9.11
681.408	9.22
681.816	9.33
682.224	9.45
682.632	9.61
683.04	9.76
683.448	9.94
683.856	10.14
684.264	10.37
684.671	10.61
685.079	10.87
685.487	11.17
685.894	11.48
686.302	11.82
686.709	12.19
687.116	12.59
687.524	13.01
687.931	13.46
688.338	13.95
688.745	14.47
689.152	15.01
689.559	15.59
689.966	16.18
690.373	16.81
690.78	17.44
691.187	18.11
691.593	18.79
692	19.51
692.407	20.22
692.813	20.95
693.22	21.65
693.626	22.4
694.032	23.14
694.439	23.9
694.845	24.64
695.251	25.4
695.657	26.16
696.063	26.9
696.469	27.64
696.875	28.39
697.281	29.12
697.687	29.86
698.093	30.58
698.498	31.31
698.904	32.01
699.31	32.72
699.715	33.4
700.12	34.06
700.526	34.73
700.931	35.38
701.337	36.02
701.742	36.63
702.147	37.25
702.552	37.88
702.957	38.47
703.362	39.07
703.767	39.63
704.172	40.2
704.577	40.76
704.981	41.33
705.386	41.87
705.791	42.42
706.195	42.92
706.6	43.42
707.004	43.92
707.408	44.41
707.813	44.87
708.217	45.36
708.621	45.84
709.025	46.3
709.43	46.72
709.834	47.19
710.237	47.6
710.641	48.05
711.045	48.46
711.449	48.86
711.853	49.27
712.256	49.7
712.66	50.1
713.064	50.45
713.467	50.83
713.87	51.21
714.274	51.56
714.677	51.93
715.08	52.28
715.484	52.64
715.887	53.03
716.29	53.37
716.693	53.65
717.096	53.95
717.499	54.3
717.901	54.58
718.304	54.89
718.707	55.16
719.109	55.5
719.512	55.83
719.915	56.12
720.317	56.36
720.719	56.62
721.122	56.92
721.524	57.19
721.926	57.47
722.328	57.73
722.731	57.95
723.133	58.2
723.535	58.41
723.937	58.6
724.338	58.8
724.74	58.98
725.142	59.14
725.544	59.29
725.945	59.46
726.347	59.64
726.748	59.78
727.15	59.96
727.551	60.15
727.952	60.27
728.354	60.45
728.755	60.59
729.156	60.76
729.557	60.93
729.958	61.13
730.359	61.26
730.76	61.35
731.161	61.49
731.562	61.6
731.962	61.71
732.363	61.82
732.763	61.91
733.164	61.98
733.564	62.06
733.965	62.15
734.365	62.19
734.766	62.29
735.166	62.35
735.566	62.38
735.966	62.43
736.366	62.45
736.766	62.49
737.166	62.54
737.566	62.62
737.966	62.67
738.365	62.74
738.765	62.82
739.165	62.83
739.564	62.89
739.964	62.98
740.363	63.02
740.763	63.07
741.162	63.11
741.561	63.16
741.96	63.18
742.36	63.21
742.759	63.22
743.158	63.22
743.557	63.3
743.955	63.35
744.354	63.41
744.753	63.47
745.152	63.52
745.55	63.61
745.949	63.65
746.348	63.68
746.746	63.71
747.144	63.77
747.543	63.81
747.941	63.85
748.339	63.91
748.737	63.95
749.136	63.99
749.534	64.02
749.932	64
750.33	64.04
750.727	64.07
751.125	64.13
751.523	64.09
751.921	64.11
752.318	64.09
752.716	64.04
753.113	64.01
753.511	63.97
753.908	63.92
754.305	63.89
754.703	63.85
755.1	63.79
755.497	63.73
755.894	63.75
756.291	63.72
756.688	63.7
757.085	63.71
757.482	63.74
757.878	63.73
758.275	63.76
758.672	63.81
759.068	63.83
759.465	63.85
759.861	63.84
760.258	63.81
760.654	63.82
761.05	63.81
761.447	63.78
761.843	63.69
762.239	63.66
762.635	63.63
763.031	63.59
763.427	63.56
763.822	63.53
764.218	63.53
764.614	63.55
765.01	63.56
765.405	63.53
765.801	63.54
766.196	63.57
766.592	63.6
766.987	63.61
767.382	63.6
767.778	63.6
768.173	63.62
768.568	63.58
768.963	63.57
769.358	63.54
769.753	63.54
770.148	63.52
770.542	63.48
770.937	63.46
771.332	63.46
771.726	63.45
772.121	63.44
772.515	63.43
772.91	63.43
773.304	63.41
773.699	63.42
774.093	63.4
774.487	63.43
774.881	63.48
775.275	63.43
775.669	63.41
776.063	63.39
776.457	63.35
776.851	63.32
777.245	63.34
777.638	63.32
778.032	63.29
778.425	63.32
778.819	63.31
779.212	63.26
779.606	63.27
779.999	63.28
780.392	63.32
780.786	63.34
781.179	63.39
781.572	63.38
781.965	63.38
782.358	63.34
782.751	63.3
783.143	63.28
783.536	63.36
783.929	63.38
784.322	63.38
784.714	63.37
785.107	63.38
785.499	63.41
785.891	63.44
786.284	63.42
786.676	63.5
787.068	63.52
787.46	63.55
787.852	63.55
788.245	63.59
788.636	63.59
789.028	63.59
789.42	63.58
789.812	63.55
790.204	63.51
790.595	63.55
790.987	63.54
791.378	63.54
791.77	63.57
792.161	63.55
792.553	63.54
792.944	63.56
793.335	63.59
793.726	63.59
794.117	63.59
794.508	63.67
794.899	63.69
795.29	63.7
795.681	63.72
796.072	63.7
796.463	63.68
796.853	63.69
797.244	63.7
797.634	63.67
798.025	63.75
798.415	63.78
798.806	63.8
799.196	63.81
799.586	63.83
799.976	63.83
800.366	63.86
800.756	63.85
801.146	63.83
801.536	63.85
801.926	63.88
802.316	63.87
802.706	63.91
803.095	63.93
803.485	63.94
803.874	63.93
804.264	63.96
804.653	63.97
805.043	64.02
805.432	64.02
805.821	64.02
806.21	64.07
806.599	64.08
806.988	64.03
807.377	64.04
807.766	64.06
808.155	64.11
808.544	64.12
808.933	64.15
809.321	64.18
809.71	64.26
810.098	64.28
810.487	64.28
810.875	64.28
811.264	64.31
811.652	64.31
812.04	64.33
812.428	64.35
812.816	64.37
813.204	64.38
813.592	64.39
813.98	64.37
814.368	64.38
814.756	64.41
815.144	64.44
815.531	64.47
815.919	64.5
816.306	64.51
816.694	64.52
817.081	64.53
817.469	64.61
817.856	64.65
818.243	64.66
818.63	64.71
819.017	64.74
819.404	64.74
819.791	64.76
820.178	64.79
820.565	64.8
820.952	64.79
821.339	64.83
821.725	64.79
822.112	64.81
822.498	64.85
822.885	64.85
823.271	64.87
823.657	64.89
824.044	64.91
824.43	64.88
824.816	64.88
825.202	64.88
825.588	64.89
825.974	64.91
826.36	64.88
826.746	64.89
827.132	64.87
827.517	64.86
827.903	64.87
828.289	64.84
828.674	64.84
829.06	64.86
829.445	64.89
829.83	64.87
830.216	64.84
830.601	64.85
830.986	64.85
831.371	64.87
831.756	64.83
832.141	64.85
832.526	64.84
832.911	64.87
833.295	64.89
833.68	64.88
834.065	64.88
834.449	64.87
834.834	64.83
835.218	64.8
835.603	64.79
835.987	64.76
836.371	64.74
836.755	64.72
837.139	64.68
837.524	64.64
837.908	64.58
838.291	64.58
838.675	64.58
839.059	64.58
839.443	64.56
839.827	64.53
840.21	64.59
840.594	64.55
840.977	64.58
841.361	64.58
841.744	64.6
842.127	64.58
842.511	64.56
842.894	64.54
843.277	64.54
843.66	64.54
844.043	64.55
844.426	64.49
844.809	64.49
845.191	64.47
845.574	64.44
845.957	64.38
846.339	64.37
846.722	64.38
847.104	64.39
847.487	64.39
847.869	64.4
848.252	64.38
848.634	64.42
849.016	64.44
849.398	64.45
849.78	64.46
850.162	64.47
850.544	64.53
850.926	64.51
851.307	64.51
851.689	64.5
852.071	64.49
852.452	64.49
852.834	64.47
853.215	64.44
853.597	64.45
853.978	64.45
854.359	64.47
854.741	64.45
855.122	64.45
855.503	64.45
855.884	64.42
856.265	64.42
856.646	64.41
857.026	64.41
857.407	64.4
857.788	64.39
858.169	64.4
858.549	64.4
858.93	64.41
859.31	64.4
859.69	64.41
860.071	64.43
860.451	64.43
860.831	64.46
861.211	64.47
861.591	64.49
861.971	64.44
862.351	64.45
862.731	64.46
863.111	64.46
863.491	64.49
863.87	64.5
864.25	64.53
864.629	64.51
865.009	64.47
865.388	64.47
865.768	64.49
866.147	64.53
866.526	64.52
866.905	64.53
867.284	64.5
867.663	64.5
868.042	64.47
868.421	64.45
868.8	64.47
869.179	64.48
869.558	64.49
869.936	64.47
870.315	64.47
870.693	64.46
871.072	64.42
871.45	64.39
871.828	64.37
872.207	64.39
872.585	64.39
872.963	64.36
873.341	64.36
873.719	64.37
874.097	64.37
874.475	64.37
874.853	64.39
875.23	64.42
875.608	64.45
875.986	64.43
876.363	64.42
876.741	64.43
877.118	64.42
877.495	64.43
877.873	64.36
878.25	64.36
878.627	64.37
879.004	64.35
879.381	64.31
879.758	64.27
880.135	64.3
880.512	64.3
880.889	64.29
881.265	64.35
881.642	64.34
882.019	64.4
882.395	64.36
882.772	64.33
883.148	64.31
883.524	64.34
883.901	64.36
884.277	64.35
884.653	64.34
885.029	64.34
885.405	64.29
885.781	64.29
886.157	64.27
886.532	64.28
886.908	64.31
887.284	64.33
887.659	64.33
888.035	64.34
888.411	64.31
888.786	64.29
889.161	64.28
889.537	64.27
889.912	64.22
890.287	64.22
890.662	64.2
891.037	64.14
891.412	64.11
891.787	64.08
892.162	64.02
892.536	64.02
892.911	63.98
893.286	63.94
893.66	63.9
894.035	63.94
894.409	63.9
894.784	63.89
895.158	63.91
895.532	63.86
895.906	63.85
896.281	63.85
896.655	63.83
897.029	63.84
897.402	63.84
897.776	63.85
898.15	63.81
898.524	63.8
898.898	63.75
899.271	63.72
899.645	63.71
900.018	63.7
900.392	63.73
900.765	63.75
901.138	63.77
901.511	63.71
901.884	63.71
902.258	63.68
902.631	63.68
903.003	63.69
903.376	63.67
903.749	63.74
904.122	63.73
904.495	63.7
904.867	63.66
905.24	63.62
905.612	63.65
905.985	63.63
906.357	63.62
906.729	63.6
907.102	63.6
907.474	63.59
907.846	63.52
908.218	63.48
908.59	63.44
908.962	63.41
909.334	63.44
909.705	63.42
910.077	63.4
910.449	63.42
910.82	63.38
911.192	63.38
911.563	63.37
911.935	63.38
912.306	63.39
912.677	63.42
913.048	63.43
913.419	63.39
913.79	63.39
914.161	63.38
914.532	63.36
914.903	63.39
915.274	63.38
915.645	63.39
916.015	63.39
916.386	63.36
916.756	63.3
917.127	63.27
917.497	63.23
917.868	63.21
918.238	63.19
918.608	63.17
918.978	63.11
919.348	63.07
919.718	63.04
920.088	63.07
920.458	63.1
920.828	63.15
921.198	63.16
921.567	63.19
921.937	63.21
922.306	63.23
922.676	63.27
923.045	63.23
923.415	63.24
923.784	63.22
924.153	63.19
924.522	63.12
924.891	63.07
925.26	63.05
925.629	63.04
925.998	63.05
926.367	63.03
926.736	62.97
927.104	63.01
927.473	62.99
927.842	62.98
928.21	62.94
928.578	62.91
928.947	62.89
929.315	62.88
929.683	62.85
930.051	62.77
930.42	62.74
930.788	62.73
931.156	62.68
931.523	62.64
931.891	62.54
932.259	62.47
932.627	62.37
932.994	62.33
933.362	62.24
933.729	62.1
934.097	61.98
934.464	61.86
934.831	61.73
935.199	61.67
935.566	61.49
935.933	61.45
936.3	61.34
936.667	61.31
937.034	61.14
937.401	61.05
937.767	61.02
938.134	60.98
938.501	60.93
938.867	60.96
939.234	60.94
939.6	61
939.967	60.99
940.333	61.1
940.699	61.19
941.065	61.36
941.431	61.42
941.798	61.52
942.163	61.66
942.529	61.82
942.895	61.77
943.261	61.82
943.627	61.93
943.992	61.99
944.358	62.05
944.723	62.09
945.089	62.12
945.454	62.22
945.82	62.25
946.185	62.34
946.55	62.38
946.915	62.45
947.28	62.45
947.645	62.43
948.01	62.44
948.375	62.47
948.74	62.39
949.104	62.41
949.469	62.28
949.834	62.26
950.198	62.08
950.562	61.98
950.927	61.99
951.291	61.98
951.655	61.92
952.02	61.91
952.384	61.85
952.748	61.82
953.112	61.75
953.476	61.78
953.839	61.68
954.203	61.63
954.567	61.6
954.931	61.49
955.294	61.38
955.658	61.38
956.021	61.33
956.385	61.31
956.748	61.33
957.111	61.2
957.474	61.16
957.837	61.2
958.2	61.2
958.563	61.17
958.926	61.12
959.289	61.17
959.652	61.15
960.015	61.15
960.377	61.09
960.74	61
961.102	61.09
961.465	61.1
961.827	60.97
962.189	60.93
962.552	60.9
962.914	60.94
963.276	60.83
963.638	60.77
964	60.72
964.362	60.65
964.724	60.69
965.085	60.57
965.447	60.42
965.809	60.44
966.17	60.46
966.532	60.39
966.893	60.28
967.255	60.28
967.616	60.25
967.977	60.22
968.338	60.2
968.699	60.12
969.061	60.1
969.421	60.22
969.782	60.18
970.143	60.09
970.504	60.04
970.865	60.02
971.225	60.05
971.586	60.09
971.946	60.05
972.307	60.04
972.667	60.04
973.027	60.03
973.388	59.94
973.748	59.94
974.108	59.98
974.468	60.01
974.828	60.07
975.188	60.04
975.548	59.99
975.907	60.03
976.267	60.07
976.627	60.03
976.986	60.04
977.346	60.06
977.705	60.05
978.064	60.02
978.424	59.97
978.783	59.95
979.142	59.85
979.501	59.8
979.86	59.67
980.219	59.53
980.578	59.49
980.937	59.51
981.296	59.46
981.654	59.5
982.013	59.52
982.371	59.52
982.73	59.46
983.088	59.42
983.447	59.48
983.805	59.54
984.163	59.6
984.521	59.56
984.879	59.55
985.237	59.52
985.595	59.4
985.953	59.25
986.311	59.23
986.669	59.14
987.026	59.19
987.384	59.02
987.741	59
988.099	58.97
988.456	59.06
988.814	58.99
989.171	58.88
989.528	58.89
989.885	58.95
990.242	58.99
990.599	59.12
990.956	59.18
991.313	59.23
991.67	59.2
992.027	59.1
992.383	59.05
992.74	58.97
993.096	58.91
993.453	58.98
993.809	58.99
994.165	58.9
994.522	58.74
994.878	58.71
995.234	58.65
995.59	58.54
995.946	58.68
996.302	58.48
996.658	58.51
997.013	58.67
997.369	58.54
997.725	58.49
998.08	58.43
998.436	58.58
998.791	58.4
999.147	58.44
999.502	58.48
999.857	58.36
1000.212	58.49
1000.567	58.52
1000.922	58.49
1001.277	58.52
1001.632	58.47
1001.987	58.54
1002.342	58.48
1002.696	58.59
1003.051	58.41
1003.406	58.35
1003.76	58.32
1004.114	58.35
1004.469	58.16
1004.823	58.1
1005.177	58.12
1005.531	58.03
1005.885	58.09
1006.239	57.95
1006.593	57.84
1006.947	57.9
1007.301	57.88
1007.655	57.77
1008.008	57.62
1008.362	57.62
1008.715	57.61
1009.069	57.42
1009.422	57.39
1009.776	57.19
1010.129	57.16
1010.482	57.16
1010.835	57.17
1011.188	57.15
1011.541	57.1
1011.894	57.09
1012.247	56.9
1012.6	56.87
1012.952	56.92
1013.305	56.92
1013.657	56.92
1014.01	57.12
1014.362	57.13
1014.715	57.01
1015.067	57.08
1015.419	57.24
1015.771	57.53
1016.123	57.64
1016.475	57.69
1016.827	57.79
1017.179	57.97
1017.531	57.86
1017.883	57.62
1018.234	57.62
1018.586	57.57
1018.938	57.47
1019.289	57.2
1019.64	56.85
1019.992	56.94
1020.343	56.65
1020.694	56.45
1021.045	56.26
1021.396	56.15
1021.747	56.1
1022.098	56.22
1022.449	56.27
1022.8	56.1
1023.151	56.38
1023.501	56.58
1023.852	56.48
1024.202	56.84
1024.553	56.82
1024.903	56.67
1025.253	56.65
1025.604	56.53
1025.954	55.88
1026.304	56.31
1026.654	56.48
1027.004	56.47
1027.354	56.56
1027.703	56.53
1028.053	56.1
1028.403	55.84
1028.753	55.83
1029.102	55.87
1029.452	55.84
1029.801	55.95
1030.15	55.5
1030.499	55.31
897.758	582.91
901.051	593.73
904.343	599.81
907.636	591.72
910.928	580.38
914.22	590.44
917.511	578.58
920.803	559.07
924.094	536.62
927.384	542.01
930.675	524.36
933.965	520.11
937.255	520.99
940.544	498.19
943.834	475.02
947.123	469.45
950.411	446.42
953.7	437.86
956.988	420.07
960.276	402.69
963.563	398.03
966.851	376.22
970.138	370.99
973.424	344.72
976.711	340.94
979.997	330.43
983.283	321.65
986.568	310.07
989.853	301.36
993.138	291.06
996.423	287.24
999.708	276.7
1002.992	279.26
1006.275	269.47
1009.559	267.38
1012.842	258.74
1016.125	250.85
1019.408	246.73
1022.69	245.4
1025.972	243.36
1029.254	237.94
1032.536	232.1
1035.817	226.39
1039.098	221.78
1042.379	218.21
1045.659	214.94
1048.939	212.93
1052.219	209.94
1055.498	206.54
1058.778	202.47
1062.057	198.84
1065.335	197.72
1068.614	194.45
1071.892	191.94
1075.17	189.04
1078.447	186.33
1081.724	184.94
1085.001	180.06
1088.278	179.15
1091.554	178.14
1094.83	177.81
1098.106	174.35
1101.382	172.8
1104.657	173.1
1107.932	172.65
1111.206	170.98
1114.481	168.43
1117.755	166.84
1121.029	168.12
1124.302	165.75
1127.575	162.3
1130.848	160.99
1134.121	159.43
1137.393	159.15
1140.665	157.82
1143.937	155.31
1147.208	154.03
1150.48	153.28
1153.75	152.86
1157.021	150.23
1160.291	149.55
1163.561	149.4
1166.831	148.58
1170.101	148.39
1173.37	147.2
1176.639	145.5
1179.907	145.5
1183.176	144.03
1186.444	143.87
1189.711	143.02
1192.979	145.18
1196.246	144.71
1199.513	145.32
1202.78	144.27
1206.046	144.71
1209.312	145.84
1212.578	146.79
1215.843	149.25
1219.108	150.89
1222.373	153.69
1225.638	156.04
1228.902	158.38
1232.166	164
1235.43	165.39
1238.693	170.2
1241.956	174.3
1245.219	178.57
1248.482	179.06
1251.744	178.31
1255.006	180.38
1258.268	175.08
1261.529	173.64
1264.79	169.47
1268.051	165.88
1271.312	164.61
1274.572	162.02
1277.832	157.02
1281.092	154.76
1284.351	152.2
1287.61	152.23
1290.869	150.43
1294.128	150.82
1297.386	149.45
1300.644	148.79
1303.902	147.7
1307.159	146.65
1310.416	147.32
1313.673	149.78
1316.93	150.27
1320.186	152.95
1323.442	154.09
1326.697	156.82
1329.953	158.62
1333.208	164.31
1336.463	170.71
1339.717	174.07
1342.972	182.83
1346.226	188
1349.479	189.09
1352.733	198.73
1355.986	203.23
1359.238	207.92
1362.491	210.24
1365.743	216.63
1368.995	217.83
1372.247	216.39
1375.498	215.93
1378.749	222.12
1382	221.21
1385.251	221.08
1388.501	220.12
1391.751	221.11
1395	219.99
1398.25	220.9
1401.499	219.41
1404.748	218.71
1407.996	215.39
1411.244	215.15
1414.492	212.02
1417.74	205.19
1420.987	200.29
1424.234	195.73
1427.481	189.02
1430.728	183.26
1433.974	177.17
1437.22	172.9
1440.465	166.15
1443.711	161.18
1446.956	156.43
1450.201	150.22
1453.445	144.37
1456.689	140.29
1459.933	136.01
1463.177	129.95
1466.42	127.88
1469.663	124.09
1472.906	119.8
1476.148	116.72
1479.391	114.35
1482.633	112.03
1485.874	110.26
1489.115	109.43
1492.356	107.42
1495.597	105.24
1498.838	105.78
1502.078	104.45
1505.318	103.99
1508.557	103.45
1511.797	103.03
1515.036	101.9
1518.274	102.02
1521.513	100.34
1524.751	99.78
1527.989	100.61
1531.227	100.42
1534.464	99.42
1537.701	99.1
1540.938	98.62
1544.174	99.19
1547.41	98.31
1550.646	99.08
1553.882	98.97
1557.117	98.44
1560.352	97.71
1563.587	97.19
1566.821	97.06
1570.055	96.59
1573.289	96.3
1576.523	96.29
1579.756	95.33
1582.989	95.95
1586.222	95.35
1589.454	95.07
1592.686	95.86
1595.918	95.61
1599.15	95.22
1602.381	95.11
1605.612	95.52
1608.843	95.3
1612.073	95.9
1615.303	95.98
1618.533	95.76
1621.762	95.14
1624.992	95.47
1628.221	94.72
1631.449	95.67
1634.678	95.93
1637.906	96.63
1641.134	96.58
1644.361	96.54
1647.588	96.6
1650.815	96.75
1654.042	97.45
1657.269	97.71
1660.495	98
1663.72	98.2
1666.946	98.32
1670.171	98.62
1673.396	98.71
1676.621	98.87
1679.845	98.87
1683.069	98.99
1686.293	98.83
1689.517	98.69
1692.74	99.21
1695.963	99.08
1699.185	99.83
1702.408	99.47
1705.63	99.83
1708.852	100.49
1712.073	100.02
1715.294	100.46
1718.515	100.89
1721.736	100.92
1724.956	101.29
1728.176	101.1
1731.396	101.59
1734.616	101.46
1737.835	101.87
1741.054	100.79
1744.272	100.99
1747.491	100.99
1750.709	101.83
1753.927	101.52
1757.144	102.01
1760.361	101.95
1763.578	102.5
1766.795	102.87
1770.011	103.27
1773.227	103.84
1776.443	105.19
1779.658	104.55
1782.874	105.99
1786.089	105.56
1789.303	105.74
1792.518	107.01
1795.732	107.25
1798.945	108.74
1802.159	108.69
1805.372	109.71
1808.585	110.54
1811.797	111.63
1815.01	112.31
1818.222	112.67
1821.434	114.44
1824.645	114.91
1827.856	115.84
1831.067	116.62
1834.278	117.95
1837.488	118.8
1840.698	119.46
1843.908	119.34
1847.117	120.02
1850.326	121.76
1853.535	122.44
1856.744	122.91
1859.952	124.53
1863.16	124.62
1866.368	124.81
1869.575	124.85
1872.782	123.7
1875.989	123.18
1879.196	123.5
1882.402	122.56
1885.608	122.53
1888.814	122.22
1892.019	123.67
1895.224	121.8
1898.429	122.2
1901.634	122.57
1904.838	122.38
1908.042	124.92
1911.246	124.12
1914.449	124.29
1917.652	123.68
1920.855	124.61
1924.058	123.02
1927.26	121.69
1930.462	123.01
1933.664	122.96
1936.865	123.87
1940.066	122.26
1943.267	120.08
1946.467	122.7
1949.668	122.89
1952.868	123.64
1956.067	123.09
1959.267	124.55
1962.466	125.09
1965.665	125.31
1968.863	125.43
1972.061	126.8
1975.259	130.07
1978.457	132.47
1981.654	132.48
1984.852	133.46
1988.048	135.84
1991.245	136.88
1994.441	140.36
1997.637	142.15
2000.833	146.16
2004.028	148.58
2007.223	150.06
2010.418	152.59
2013.613	159.48
2016.807	163.3
2020.001	166.21
2023.194	170.61
2026.388	177.23
2029.581	187.24
2032.774	194
2035.966	197.76
2039.158	202.77
2042.35	207.31
2045.542	210.52
2048.733	217.14
2051.924	221.5
2055.115	226.7
2058.306	229.53
2061.496	232.9
2064.686	230.23
2067.875	229.43
2071.065	232.63
2074.254	232.96
2077.442	240.84
2080.631	243.4
2083.819	244.26
2087.007	246.01
2090.195	249.92
2093.382	249.64
2096.569	250.52
2099.756	255.66
2102.942	261.71
2106.128	266.38
2109.314	267.93
2112.5	266.84
2115.685	263.72
2118.87	264.42
2122.055	269.5
2125.239	272.64
2128.424	278.82
2131.608	279.05
2134.791	277.67
2137.974	276.94
2141.157	280.52
2144.34	283.44
2147.523	286.88
2150.705	296.35
2153.887	294.46
2157.068	294.29
2160.25	297.68
2163.431	298.56
2166.611	300.55
2169.792	306.26
2172.972	310.55
2176.152	311.71
2179.331	317.91
2182.511	320.02
2185.69	323.14
2188.868	335.78
2192.047	344.79
2195.225	350.46
2198.403	354.24
2201.58	351.04
2204.758	363.17
2207.935	367.4
2211.111	373.2
2214.288	375.9
2217.464	379.07
2220.64	384.2
2223.815	383.03
2226.991	375.97
2230.166	379.31
2233.34	389.73
2236.515	400.3
2239.689	395.76
2242.863	402.27
2246.036	397.78
2249.209	406.83
2252.382	406.73
2255.555	419.66
2258.727	423.71
2261.9	437.31
2265.071	441.19
2268.243	439.56
2271.414	452.81
2274.585	462.33
2277.756	461.96
2280.926	484.5
2284.096	484.56
2287.266	487.13
2290.436	478.07
2293.605	488.43
2296.774	504.43
2299.942	503.3
2303.111	516.75
2306.279	530.07
2309.447	529.69
2312.614	530.21
2315.781	538.95
2318.948	545.99
2322.115	556.59
2325.281	586.04
2328.447	585.97
2331.613	587.75
2334.779	600.84
2337.944	608.98
2341.109	614.5
2344.274	622.76
2347.438	642.25
2350.602	654.64
2353.766	695.41
2356.929	698.36
2360.092	707.71
2363.255	707.69
2366.418	719.24
2369.58	732.17
2372.742	739.2
2375.904	737.33
2379.066	757.3
2382.227	794.45
2385.388	786.22
2388.548	752.44
2391.709	748.01
2394.869	764.95
2398.029	766.59
2401.188	769.92
2404.347	791.69
2407.506	809.93
2410.665	788.89
2413.823	785.99
2416.981	791.93
2420.139	754.98
2423.296	811.84
2426.453	869.19
2429.61	820.94
2432.767	878.23
2435.923	905.14
2439.079	874.44
2442.235	896.61
2445.391	912.91
2448.546	911.38
2451.701	959.3
2454.855	1024.5
2458.009	907.31
2461.163	912.92
2464.317	937.1
2467.471	916.24
2470.624	944.71
2473.777	927.08
2476.929	898.61
2480.082	953.3
2483.234	1002.41
2486.385	1015.37
2489.537	1043.32
2492.688	1140.55
2495.839	1129.47
2498.989	1160
2502.14	1160.38
2505.29	1116.84
2508.439	1238.16
2511.589	1264.15
2514.738	1231.27
2517.887	1219.18
2521.035	1142.52
2524.183	1127.35
2527.331	1121.49
2530.479	1089.72
2533.627	1115.3
