Data from C_3_dec_on_6n_Splice17_17.txt Node
Date: Sat Feb 29 15:08:07 EST 2020
User: sa697716
Spectrometer: FLMS03696
Trigger mode: 0
Integration Time (sec): 3.180400E-1
Scans to average: 20
Electric dark correction enabled: true
Nonlinearity correction enabled: true
Boxcar width: 5
XAxis mode: Wavelengths
Number of Pixels in Spectrum: 2048
>>>>>Begin Spectral Data<<<<<
187.83	103.59
188.298	109.33
188.766	97.97
189.233	100
189.701	107.99
190.169	106.22
190.636	108.07
191.104	81.43
191.571	123.88
192.039	53.27
192.506	111.59
192.974	7623.56
193.441	-548.97
193.908	99.64
194.375	113.76
194.842	193.83
195.31	133.7
195.777	140.12
196.244	84.54
196.711	84.78
197.177	82.06
197.644	81.72
198.111	81.84
198.578	82.53
199.045	83.25
199.511	84.38
199.978	84.76
200.445	84.76
200.911	84.8
201.378	84.81
201.844	85.28
202.31	85.76
202.777	86.04
203.243	86.12
203.709	86.2
204.176	85.87
204.642	84.72
205.108	84.07
205.574	83.89
206.04	83.69
206.506	83.28
206.972	82.31
207.438	81.51
207.903	80.8
208.369	79.08
208.835	77.83
209.301	76.62
209.766	75.34
210.232	73.93
210.697	72.48
211.163	71.04
211.628	69.28
212.094	68.12
212.559	66.46
213.024	65.07
213.49	63.82
213.955	62.34
214.42	60.4
214.885	58.5
215.35	55.83
215.815	52.21
216.28	48.43
216.745	44.59
217.21	40.42
217.675	36.71
218.14	33.15
218.604	30.01
219.069	27.33
219.534	25.11
219.998	23.25
220.463	21.77
220.927	20.55
221.392	19.4
221.856	18.4
222.32	17.59
222.785	16.86
223.249	16.27
223.713	15.79
224.177	15.32
224.642	14.92
225.106	14.52
225.57	14.12
226.034	13.77
226.497	13.46
226.961	13.17
227.425	12.85
227.889	12.55
228.353	12.23
228.816	11.96
229.28	11.66
229.744	11.38
230.207	11.14
230.671	10.92
231.134	10.7
231.597	10.49
232.061	10.3
232.524	10.15
232.987	10
233.45	9.86
233.914	9.69
234.377	9.58
234.84	9.46
235.303	9.33
235.766	9.23
236.229	9.12
236.691	9.02
237.154	8.92
237.617	8.8
238.08	8.73
238.542	8.64
239.005	8.57
239.468	8.47
239.93	8.39
240.393	8.32
240.855	8.21
241.317	8.14
241.78	8.06
242.242	7.96
242.704	7.89
243.166	7.8
243.629	7.72
244.091	7.64
244.553	7.57
245.015	7.5
245.477	7.42
245.939	7.35
246.4	7.25
246.862	7.18
247.324	7.12
247.786	7.05
248.247	6.99
248.709	6.91
249.17	6.83
249.632	6.77
250.093	6.67
250.555	6.6
251.016	6.55
251.477	6.49
251.939	6.43
252.4	6.37
252.861	6.32
253.322	6.26
253.783	6.22
254.244	6.18
254.705	6.12
255.166	6.09
255.627	6.06
256.088	6
256.549	5.96
257.009	5.91
257.47	5.86
257.931	5.8
258.391	5.73
258.852	5.67
259.312	5.61
259.773	5.55
260.233	5.49
260.694	5.43
261.154	5.37
261.614	5.32
262.074	5.26
262.534	5.2
262.994	5.16
263.455	5.12
263.915	5.07
264.374	5.02
264.834	4.98
265.294	4.94
265.754	4.89
266.214	4.85
266.673	4.81
267.133	4.78
267.593	4.75
268.052	4.71
268.512	4.68
268.971	4.66
269.431	4.63
269.89	4.6
270.349	4.58
270.809	4.56
271.268	4.55
271.727	4.53
272.186	4.51
272.645	4.49
273.104	4.47
273.563	4.46
274.022	4.44
274.481	4.42
274.94	4.4
275.399	4.38
275.857	4.37
276.316	4.34
276.775	4.32
277.233	4.3
277.692	4.29
278.15	4.27
278.609	4.26
279.067	4.23
279.525	4.21
279.984	4.21
280.442	4.2
280.9	4.19
281.358	4.18
281.816	4.18
282.274	4.17
282.732	4.17
283.19	4.17
283.648	4.17
284.106	4.17
284.564	4.18
285.021	4.17
285.479	4.17
285.937	4.16
286.394	4.16
286.852	4.15
287.309	4.15
287.767	4.14
288.224	4.13
288.682	4.11
289.139	4.1
289.596	4.08
290.053	4.05
290.511	4.03
290.968	4.01
291.425	3.99
291.882	3.96
292.339	3.92
292.796	3.9
293.252	3.88
293.709	3.85
294.166	3.83
294.623	3.81
295.079	3.8
295.536	3.78
295.992	3.76
296.449	3.75
296.905	3.73
297.362	3.73
297.818	3.71
298.274	3.7
298.731	3.69
299.187	3.68
299.643	3.66
300.099	3.65
300.555	3.65
301.011	3.64
301.467	3.63
301.923	3.62
302.379	3.62
302.835	3.61
303.291	3.61
303.746	3.61
304.202	3.6
304.658	3.61
305.113	3.61
305.569	3.61
306.024	3.61
306.479	3.6
306.935	3.61
307.39	3.61
307.845	3.61
308.301	3.62
308.756	3.62
309.211	3.62
309.666	3.62
310.121	3.62
310.576	3.62
311.031	3.63
311.486	3.63
311.94	3.63
312.395	3.64
312.85	3.64
313.305	3.64
313.759	3.64
314.214	3.65
314.668	3.65
315.123	3.66
315.577	3.65
316.032	3.65
316.486	3.65
316.94	3.65
317.394	3.63
317.849	3.62
318.303	3.61
318.757	3.59
319.211	3.57
319.665	3.56
320.119	3.53
320.572	3.53
321.026	3.52
321.48	3.5
321.934	3.49
322.387	3.48
322.841	3.48
323.295	3.47
323.748	3.46
324.202	3.46
324.655	3.46
325.108	3.45
325.562	3.44
326.015	3.43
326.468	3.42
326.921	3.42
327.374	3.41
327.827	3.41
328.28	3.4
328.733	3.4
329.186	3.39
329.639	3.38
330.092	3.38
330.545	3.39
330.997	3.39
331.45	3.4
331.903	3.4
332.355	3.4
332.808	3.42
333.26	3.41
333.713	3.42
334.165	3.43
334.617	3.44
335.069	3.44
335.522	3.46
335.974	3.46
336.426	3.47
336.878	3.47
337.33	3.47
337.782	3.48
338.234	3.48
338.686	3.49
339.137	3.49
339.589	3.49
340.041	3.48
340.493	3.46
340.944	3.45
341.396	3.43
341.847	3.43
342.299	3.4
342.75	3.37
343.201	3.35
343.653	3.34
344.104	3.32
344.555	3.29
345.006	3.28
345.457	3.28
345.908	3.27
346.359	3.26
346.81	3.26
347.261	3.26
347.712	3.26
348.163	3.25
348.613	3.23
349.064	3.23
349.515	3.24
349.965	3.23
350.416	3.22
350.866	3.22
351.317	3.21
351.767	3.21
352.217	3.2
352.668	3.2
353.118	3.21
353.568	3.22
354.018	3.24
354.468	3.23
354.918	3.25
355.368	3.25
355.818	3.25
356.268	3.27
356.718	3.27
357.168	3.28
357.617	3.29
358.067	3.28
358.517	3.28
358.966	3.29
359.416	3.3
359.865	3.3
360.315	3.31
360.764	3.31
361.213	3.32
361.663	3.32
362.112	3.32
362.561	3.34
363.01	3.34
363.459	3.35
363.908	3.37
364.357	3.37
364.806	3.38
365.255	3.39
365.703	3.4
366.152	3.41
366.601	3.42
367.05	3.44
367.498	3.44
367.947	3.46
368.395	3.47
368.844	3.47
369.292	3.48
369.74	3.49
370.189	3.49
370.637	3.49
371.085	3.5
371.533	3.5
371.981	3.51
372.429	3.52
372.877	3.53
373.325	3.52
373.773	3.53
374.221	3.54
374.669	3.55
375.116	3.56
375.564	3.57
376.012	3.59
376.459	3.62
376.907	3.63
377.354	3.64
377.801	3.66
378.249	3.68
378.696	3.7
379.143	3.72
379.591	3.73
380.038	3.77
380.485	3.79
380.932	3.79
381.379	3.79
381.826	3.81
382.273	3.82
382.72	3.84
383.166	3.85
383.613	3.86
384.06	3.88
384.506	3.89
384.953	3.89
385.4	3.91
385.846	3.92
386.292	3.94
386.739	3.96
387.185	3.99
387.631	4
388.078	4.02
388.524	4.02
388.97	4.04
389.416	4.06
389.862	4.08
390.308	4.09
390.754	4.12
391.2	4.14
391.645	4.16
392.091	4.17
392.537	4.18
392.983	4.2
393.428	4.23
393.874	4.26
394.319	4.28
394.765	4.31
395.21	4.32
395.655	4.33
396.101	4.34
396.546	4.35
396.991	4.36
397.436	4.37
397.881	4.38
398.326	4.41
398.771	4.42
399.216	4.44
399.661	4.44
400.106	4.47
400.551	4.46
400.995	4.45
401.44	4.45
401.885	4.46
402.329	4.47
402.774	4.47
403.218	4.47
403.663	4.46
404.107	4.46
404.551	4.48
404.995	4.47
405.44	4.48
405.884	4.49
406.328	4.48
406.772	4.48
407.216	4.49
407.66	4.5
408.104	4.5
408.547	4.51
408.991	4.51
409.435	4.49
409.879	4.51
410.322	4.53
410.766	4.54
411.209	4.57
411.653	4.57
412.096	4.59
412.54	4.58
412.983	4.6
413.426	4.63
413.869	4.65
414.312	4.69
414.756	4.7
415.199	4.7
415.642	4.72
416.085	4.74
416.527	4.77
416.97	4.78
417.413	4.79
417.856	4.77
418.298	4.75
418.741	4.75
419.184	4.72
419.626	4.7
420.069	4.71
420.511	4.69
420.953	4.68
421.396	4.68
421.838	4.69
422.28	4.71
422.722	4.74
423.164	4.76
423.606	4.77
424.048	4.77
424.49	4.79
424.932	4.78
425.374	4.8
425.816	4.78
426.258	4.76
426.699	4.72
427.141	4.7
427.582	4.69
428.024	4.68
428.465	4.69
428.907	4.71
429.348	4.71
429.789	4.73
430.231	4.72
430.672	4.75
431.113	4.78
431.554	4.82
431.995	4.83
432.436	4.85
432.877	4.85
433.318	4.84
433.759	4.87
434.2	4.89
434.64	4.92
435.081	4.93
435.522	4.97
435.962	4.99
436.403	5.04
436.843	5.06
437.284	5.06
437.724	5.1
438.164	5.12
438.604	5.14
439.045	5.13
439.485	5.13
439.925	5.15
440.365	5.13
440.805	5.12
441.245	5.08
441.685	5.1
442.125	5.12
442.564	5.11
443.004	5.13
443.444	5.12
443.883	5.14
444.323	5.15
444.762	5.18
445.202	5.22
445.641	5.27
446.081	5.31
446.52	5.31
446.959	5.35
447.398	5.4
447.837	5.43
448.276	5.46
448.716	5.49
449.154	5.52
449.593	5.55
450.032	5.56
450.471	5.54
450.91	5.53
451.349	5.52
451.787	5.51
452.226	5.47
452.664	5.45
453.103	5.44
453.541	5.4
453.98	5.37
454.418	5.33
454.856	5.29
455.295	5.27
455.733	5.25
456.171	5.24
456.609	5.22
457.047	5.19
457.485	5.18
457.923	5.16
458.361	5.14
458.798	5.16
459.236	5.16
459.674	5.15
460.111	5.16
460.549	5.15
460.987	5.16
461.424	5.16
461.862	5.17
462.299	5.17
462.736	5.18
463.173	5.2
463.611	5.19
464.048	5.21
464.485	5.21
464.922	5.21
465.359	5.22
465.796	5.2
466.233	5.2
466.67	5.22
467.106	5.2
467.543	5.21
467.98	5.2
468.416	5.2
468.853	5.18
469.29	5.18
469.726	5.19
470.162	5.2
470.599	5.22
471.035	5.22
471.471	5.19
471.907	5.2
472.344	5.19
472.78	5.18
473.216	5.18
473.652	5.18
474.088	5.16
474.523	5.15
474.959	5.12
475.395	5.12
475.831	5.1
476.266	5.1
476.702	5.09
477.138	5.06
477.573	5.05
478.008	5.03
478.444	5.02
478.879	5.01
479.314	4.98
479.75	4.98
480.185	4.95
480.62	4.94
481.055	4.92
481.49	4.9
481.925	4.89
482.36	4.87
482.795	4.87
483.229	4.85
483.664	4.84
484.099	4.83
484.534	4.81
484.968	4.81
485.403	4.8
485.837	4.8
486.271	4.79
486.706	4.79
487.14	4.79
487.574	4.79
488.009	4.8
488.443	4.8
488.877	4.81
489.311	4.82
489.745	4.83
490.179	4.84
490.613	4.86
491.046	4.88
491.48	4.9
491.914	4.92
492.348	4.93
492.781	4.94
493.215	4.96
493.648	4.99
494.082	5.02
494.515	5.05
494.948	5.07
495.382	5.1
495.815	5.14
496.248	5.19
496.681	5.23
497.114	5.27
497.547	5.33
497.98	5.39
498.413	5.44
498.846	5.5
499.279	5.56
499.711	5.63
500.144	5.69
500.577	5.76
501.009	5.82
501.442	5.91
501.874	5.99
502.306	6.06
502.739	6.14
503.171	6.24
503.603	6.35
504.036	6.46
504.468	6.57
504.9	6.7
505.332	6.83
505.764	6.96
506.196	7.08
506.627	7.22
507.059	7.37
507.491	7.54
507.923	7.69
508.354	7.84
508.786	8.01
509.217	8.18
509.649	8.36
510.08	8.57
510.512	8.75
510.943	8.96
511.374	9.17
511.805	9.4
512.237	9.61
512.668	9.84
513.099	10.1
513.53	10.35
513.961	10.61
514.391	10.86
514.822	11.11
515.253	11.39
515.684	11.66
516.114	11.95
516.545	12.24
516.975	12.54
517.406	12.82
517.836	13.11
518.267	13.4
518.697	13.7
519.127	14
519.558	14.3
519.988	14.6
520.418	14.89
520.848	15.19
521.278	15.49
521.708	15.7
522.138	15.97
522.567	16.25
522.997	16.53
523.427	16.79
523.857	17.05
524.286	17.31
524.716	17.56
525.145	17.83
525.575	18.07
526.004	18.3
526.433	18.61
526.863	18.85
527.292	19.08
527.721	19.29
528.15	19.49
528.579	19.68
529.008	19.88
529.437	20.04
529.866	20.19
530.295	20.36
530.724	20.54
531.152	20.69
531.581	20.82
532.01	20.96
532.438	21.09
532.867	21.22
533.295	21.34
533.723	21.47
534.152	21.59
534.58	21.69
535.008	21.76
535.436	21.82
535.865	21.86
536.293	21.95
536.721	22.01
537.149	22.07
537.576	22.13
538.004	22.17
538.432	22.21
538.86	22.26
539.287	22.3
539.715	22.36
540.143	22.41
540.57	22.47
540.998	22.5
541.425	22.54
541.852	22.56
542.28	22.57
542.707	22.61
543.134	22.63
543.561	22.64
543.988	22.68
544.415	22.71
544.842	22.73
545.269	22.77
545.696	22.78
546.123	22.82
546.549	22.86
546.976	22.9
547.403	22.93
547.829	22.97
548.256	23.01
548.682	23.03
549.108	23.06
549.535	23.07
549.961	23.1
550.387	23.12
550.813	23.12
551.24	23.13
551.666	23.15
552.092	23.15
552.518	23.13
552.943	23.13
553.369	23.11
553.795	23.07
554.221	23.05
554.646	23.01
555.072	22.99
555.498	22.96
555.923	22.91
556.349	22.82
556.774	22.77
557.199	22.7
557.625	22.62
558.05	22.55
558.475	22.48
558.9	22.38
559.325	22.27
559.75	22.14
560.175	22.02
560.6	21.91
561.025	21.8
561.449	21.65
561.874	21.52
562.299	21.37
562.723	21.22
563.148	21.06
563.572	20.91
563.997	20.75
564.421	20.57
564.846	20.4
565.27	20.22
565.694	20.03
566.118	19.85
566.542	19.67
566.966	19.49
567.39	19.29
567.814	19.09
568.238	18.9
568.662	18.72
569.086	18.55
569.509	18.37
569.933	18.18
570.357	17.99
570.78	17.82
571.204	17.63
571.627	17.46
572.05	17.3
572.474	17.15
572.897	17.01
573.32	16.86
573.743	16.71
574.166	16.57
574.589	16.43
575.012	16.33
575.435	16.2
575.858	16.08
576.281	15.96
576.704	15.84
577.126	15.72
577.549	15.6
577.972	15.52
578.394	15.41
578.817	15.3
579.239	15.19
579.661	15.09
580.084	14.99
580.506	14.91
580.928	14.81
581.35	14.73
581.772	14.65
582.194	14.58
582.616	14.49
583.038	14.42
583.46	14.37
583.882	14.3
584.303	14.22
584.725	14.15
585.147	14.07
585.568	14.02
585.99	13.97
586.411	13.9
586.833	13.84
587.254	13.78
587.675	13.73
588.096	13.68
588.518	13.63
588.939	13.59
589.36	13.54
589.781	13.51
590.202	13.45
590.623	13.38
591.043	13.33
591.464	13.29
591.885	13.24
592.305	13.21
592.726	13.14
593.147	13.1
593.567	13.05
593.987	13.02
594.408	12.97
594.828	12.94
595.248	12.92
595.669	12.9
596.089	12.86
596.509	12.84
596.929	12.78
597.349	12.73
597.769	12.69
598.189	12.66
598.608	12.61
599.028	12.58
599.448	12.54
599.867	12.5
600.287	12.45
600.706	12.41
601.126	12.36
601.545	12.31
601.965	12.27
602.384	12.23
602.803	12.18
603.222	12.12
603.641	12.07
604.061	12.01
604.48	11.95
604.898	11.88
605.317	11.81
605.736	11.75
606.155	11.69
606.574	11.62
606.992	11.55
607.411	11.49
607.829	11.38
608.248	11.32
608.666	11.24
609.085	11.17
609.503	11.1
609.921	11.02
610.339	10.96
610.758	10.89
611.176	10.83
611.594	10.76
612.012	10.68
612.43	10.67
612.847	10.62
613.265	10.56
613.683	10.5
614.101	10.43
614.518	10.37
614.936	10.31
615.353	10.25
615.771	10.19
616.188	10.15
616.606	10.1
617.023	10.04
617.44	9.97
617.857	9.92
618.274	9.87
618.691	9.85
619.108	9.81
619.525	9.78
619.942	9.76
620.359	9.73
620.776	9.7
621.192	9.67
621.609	9.65
622.026	9.63
622.442	9.62
622.859	9.61
623.275	9.59
623.691	9.57
624.108	9.56
624.524	9.54
624.94	9.51
625.356	9.51
625.772	9.51
626.188	9.51
626.604	9.48
627.02	9.47
627.436	9.46
627.852	9.44
628.268	9.42
628.683	9.4
629.099	9.39
629.514	9.38
629.93	9.35
630.345	9.32
630.761	9.29
631.176	9.29
631.591	9.25
632.007	9.19
632.422	9.17
632.837	9.13
633.252	9.08
633.667	9.03
634.082	8.98
634.497	8.91
634.911	8.84
635.326	8.76
635.741	8.67
636.155	8.59
636.57	8.52
636.984	8.4
637.399	8.31
637.813	8.21
638.228	8.11
638.642	8.03
639.056	7.93
639.47	7.83
639.884	7.73
640.298	7.65
640.712	7.56
641.126	7.46
641.54	7.38
641.954	7.31
642.368	7.22
642.781	7.13
643.195	7.03
643.609	6.95
644.022	6.88
644.436	6.8
644.849	6.73
645.262	6.66
645.676	6.6
646.089	6.54
646.502	6.46
646.915	6.41
647.328	6.36
647.741	6.32
648.154	6.3
648.567	6.26
648.98	6.23
649.393	6.2
649.805	6.17
650.218	6.16
650.631	6.13
651.043	6.12
651.456	6.11
651.868	6.08
652.28	6.07
652.693	6.03
653.105	6.01
653.517	5.99
653.929	5.97
654.341	5.94
654.753	5.9
655.165	5.87
655.577	5.82
655.989	5.79
656.401	5.75
656.813	5.71
657.224	5.68
657.636	5.64
658.047	5.6
658.459	5.55
658.87	5.51
659.282	5.48
659.693	5.45
660.104	5.41
660.515	5.38
660.926	5.36
661.338	5.33
661.749	5.29
662.159	5.25
662.57	5.21
662.981	5.19
663.392	5.17
663.803	5.14
664.213	5.11
664.624	5.1
665.035	5.07
665.445	5.06
665.855	5.05
666.266	5.06
666.676	5.05
667.086	5.05
667.497	5.04
667.907	5.03
668.317	5.02
668.727	5.03
669.137	5.02
669.547	5.04
669.956	5.03
670.366	5.04
670.776	5.05
671.186	5.06
671.595	5.08
672.005	5.11
672.414	5.14
672.824	5.18
673.233	5.2
673.642	5.23
674.052	5.26
674.461	5.28
674.87	5.3
675.279	5.32
675.688	5.36
676.097	5.4
676.506	5.42
676.915	5.45
677.323	5.49
677.732	5.52
678.141	5.57
678.549	5.62
678.958	5.67
679.366	5.72
679.775	5.79
680.183	5.85
680.592	5.91
681	5.97
681.408	6.04
681.816	6.1
682.224	6.19
682.632	6.28
683.04	6.38
683.448	6.46
683.856	6.57
684.264	6.67
684.671	6.8
685.079	6.93
685.487	7.09
685.894	7.27
686.302	7.47
686.709	7.68
687.116	7.91
687.524	8.15
687.931	8.43
688.338	8.76
688.745	9.1
689.152	9.48
689.559	9.88
689.966	10.3
690.373	10.75
690.78	11.21
691.187	11.7
691.593	12.22
692	12.78
692.407	13.35
692.813	13.93
693.22	14.53
693.626	15.16
694.032	15.79
694.439	16.43
694.845	17.09
695.251	17.76
695.657	18.45
696.063	19.16
696.469	19.84
696.875	20.53
697.281	21.24
697.687	21.95
698.093	22.64
698.498	23.36
698.904	24.07
699.31	24.76
699.715	25.46
700.12	26.14
700.526	26.85
700.931	27.53
701.337	28.21
701.742	28.85
702.147	29.52
702.552	30.18
702.957	30.81
703.362	31.44
703.767	32.07
704.172	32.72
704.577	33.33
704.981	33.94
705.386	34.55
705.791	35.16
706.195	35.75
706.6	36.34
707.004	36.92
707.408	37.49
707.813	38.03
708.217	38.57
708.621	39.12
709.025	39.67
709.43	40.19
709.834	40.73
710.237	41.23
710.641	41.75
711.045	42.24
711.449	42.77
711.853	43.32
712.256	43.86
712.66	44.4
713.064	44.88
713.467	45.37
713.87	45.87
714.274	46.36
714.677	46.84
715.08	47.31
715.484	47.79
715.887	48.25
716.29	48.66
716.693	49.1
717.096	49.53
717.499	49.98
717.901	50.38
718.304	50.76
718.707	51.13
719.109	51.54
719.512	51.94
719.915	52.3
720.317	52.67
720.719	53.04
721.122	53.4
721.524	53.77
721.926	54.11
722.328	54.46
722.731	54.8
723.133	55.14
723.535	55.45
723.937	55.76
724.338	56.07
724.74	56.31
725.142	56.55
725.544	56.79
725.945	57.02
726.347	57.27
726.748	57.5
727.15	57.72
727.551	57.94
727.952	58.14
728.354	58.36
728.755	58.55
729.156	58.76
729.557	58.98
729.958	59.22
730.359	59.4
730.76	59.56
731.161	59.74
731.562	59.93
731.962	60.11
732.363	60.29
732.763	60.46
733.164	60.6
733.564	60.76
733.965	60.88
734.365	60.96
734.766	61.09
735.166	61.18
735.566	61.26
735.966	61.32
736.366	61.39
736.766	61.47
737.166	61.55
737.566	61.64
737.966	61.76
738.365	61.88
738.765	61.95
739.165	62.02
739.564	62.12
739.964	62.19
740.363	62.26
740.763	62.34
741.162	62.4
741.561	62.45
741.96	62.52
742.36	62.58
742.759	62.59
743.158	62.64
743.557	62.71
743.955	62.79
744.354	62.89
744.753	63
745.152	63
745.55	63.05
745.949	63.08
746.348	63.13
746.746	63.14
747.144	63.21
747.543	63.28
747.941	63.36
748.339	63.43
748.737	63.48
749.136	63.5
749.534	63.61
749.932	63.63
750.33	63.7
750.727	63.73
751.125	63.75
751.523	63.75
751.921	63.78
752.318	63.75
752.716	63.71
753.113	63.68
753.511	63.65
753.908	63.61
754.305	63.59
754.703	63.53
755.1	63.5
755.497	63.51
755.894	63.5
756.291	63.49
756.688	63.47
757.085	63.47
757.482	63.47
757.878	63.49
758.275	63.51
758.672	63.56
759.068	63.63
759.465	63.66
759.861	63.61
760.258	63.59
760.654	63.55
761.05	63.57
761.447	63.54
761.843	63.49
762.239	63.47
762.635	63.45
763.031	63.43
763.427	63.39
763.822	63.38
764.218	63.4
764.614	63.43
765.01	63.46
765.405	63.43
765.801	63.41
766.196	63.45
766.592	63.47
766.987	63.48
767.382	63.47
767.778	63.49
768.173	63.44
768.568	63.43
768.963	63.37
769.358	63.35
769.753	63.37
770.148	63.42
770.542	63.4
770.937	63.37
771.332	63.36
771.726	63.31
772.121	63.28
772.515	63.31
772.91	63.3
773.304	63.32
773.699	63.29
774.093	63.25
774.487	63.23
774.881	63.28
775.275	63.33
775.669	63.35
776.063	63.39
776.457	63.36
776.851	63.34
777.245	63.34
777.638	63.35
778.032	63.39
778.425	63.41
778.819	63.43
779.212	63.41
779.606	63.38
779.999	63.37
780.392	63.33
780.786	63.36
781.179	63.35
781.572	63.36
781.965	63.38
782.358	63.38
782.751	63.41
783.143	63.38
783.536	63.41
783.929	63.43
784.322	63.43
784.714	63.46
785.107	63.49
785.499	63.51
785.891	63.52
786.284	63.48
786.676	63.51
787.068	63.49
787.46	63.51
787.852	63.46
788.245	63.41
788.636	63.41
789.028	63.39
789.42	63.4
789.812	63.43
790.204	63.4
790.595	63.41
790.987	63.42
791.378	63.44
791.77	63.41
792.161	63.48
792.553	63.52
792.944	63.55
793.335	63.6
793.726	63.58
794.117	63.55
794.508	63.59
794.899	63.6
795.29	63.61
795.681	63.65
796.072	63.69
796.463	63.68
796.853	63.69
797.244	63.67
797.634	63.7
798.025	63.75
798.415	63.81
798.806	63.83
799.196	63.87
799.586	63.87
799.976	63.85
800.366	63.88
800.756	63.91
801.146	63.87
801.536	63.93
801.926	63.91
802.316	63.92
802.706	63.94
803.095	63.99
803.485	64
803.874	64.04
804.264	64.06
804.653	64.01
805.043	64.01
805.432	64.03
805.821	64.01
806.21	64.06
806.599	64.12
806.988	64.13
807.377	64.11
807.766	64.15
808.155	64.18
808.544	64.19
808.933	64.27
809.321	64.33
809.71	64.37
810.098	64.41
810.487	64.4
810.875	64.37
811.264	64.37
811.652	64.42
812.04	64.43
812.428	64.45
812.816	64.49
813.204	64.48
813.592	64.45
813.98	64.46
814.368	64.47
814.756	64.53
815.144	64.56
815.531	64.57
815.919	64.56
816.306	64.52
816.694	64.52
817.081	64.51
817.469	64.53
817.856	64.59
818.243	64.61
818.63	64.64
819.017	64.6
819.404	64.58
819.791	64.61
820.178	64.67
820.565	64.7
820.952	64.7
821.339	64.69
821.725	64.71
822.112	64.65
822.498	64.65
822.885	64.65
823.271	64.69
823.657	64.68
824.044	64.68
824.43	64.66
824.816	64.65
825.202	64.64
825.588	64.65
825.974	64.64
826.36	64.67
826.746	64.66
827.132	64.62
827.517	64.57
827.903	64.57
828.289	64.52
828.674	64.52
829.06	64.55
829.445	64.56
829.83	64.54
830.216	64.54
830.601	64.52
830.986	64.5
831.371	64.52
831.756	64.49
832.141	64.51
832.526	64.49
832.911	64.46
833.295	64.45
833.68	64.44
834.065	64.43
834.449	64.37
834.834	64.34
835.218	64.34
835.603	64.31
835.987	64.29
836.371	64.27
836.755	64.26
837.139	64.23
837.524	64.16
837.908	64.11
838.291	64.09
838.675	64.09
839.059	64.06
839.443	64.04
839.827	64.03
840.21	64.05
840.594	64.04
840.977	64
841.361	64.02
841.744	64.03
842.127	64.02
842.511	64.03
842.894	64
843.277	64
843.66	63.99
844.043	63.99
844.426	63.97
844.809	63.94
845.191	63.95
845.574	63.92
845.957	63.89
846.339	63.88
846.722	63.88
847.104	63.9
847.487	63.93
847.869	63.92
848.252	63.91
848.634	63.89
849.016	63.9
849.398	63.9
849.78	63.9
850.162	63.91
850.544	63.93
850.926	63.9
851.307	63.9
851.689	63.84
852.071	63.83
852.452	63.82
852.834	63.82
853.215	63.81
853.597	63.82
853.978	63.78
854.359	63.77
854.741	63.74
855.122	63.78
855.503	63.79
855.884	63.82
856.265	63.81
856.646	63.8
857.026	63.79
857.407	63.78
857.788	63.79
858.169	63.86
858.549	63.89
858.93	63.89
859.31	63.85
859.69	63.82
860.071	63.81
860.451	63.82
860.831	63.84
861.211	63.86
861.591	63.9
861.971	63.9
862.351	63.92
862.731	63.87
863.111	63.9
863.491	63.92
863.87	63.93
864.25	63.95
864.629	63.96
865.009	63.94
865.388	63.94
865.768	63.89
866.147	63.91
866.526	63.88
866.905	63.9
867.284	63.9
867.663	63.92
868.042	63.91
868.421	63.91
868.8	63.89
869.179	63.91
869.558	63.93
869.936	63.95
870.315	63.94
870.693	63.92
871.072	63.89
871.45	63.86
871.828	63.86
872.207	63.88
872.585	63.87
872.963	63.85
873.341	63.84
873.719	63.81
874.097	63.76
874.475	63.74
874.853	63.76
875.23	63.76
875.608	63.79
875.986	63.77
876.363	63.75
876.741	63.75
877.118	63.76
877.495	63.76
877.873	63.76
878.25	63.76
878.627	63.74
879.004	63.72
879.381	63.73
879.758	63.68
880.135	63.66
880.512	63.67
880.889	63.69
881.265	63.69
881.642	63.64
882.019	63.66
882.395	63.67
882.772	63.66
883.148	63.66
883.524	63.67
883.901	63.67
884.277	63.66
884.653	63.67
885.029	63.65
885.405	63.62
885.781	63.62
886.157	63.61
886.532	63.6
886.908	63.6
887.284	63.61
887.659	63.6
888.035	63.6
888.411	63.55
888.786	63.52
889.161	63.5
889.537	63.53
889.912	63.51
890.287	63.47
890.662	63.45
891.037	63.4
891.412	63.32
891.787	63.27
892.162	63.24
892.536	63.25
892.911	63.22
893.286	63.17
893.66	63.12
894.035	63.1
894.409	63.09
894.784	63.05
895.158	63.07
895.532	63.05
895.906	63.02
896.281	63
896.655	62.98
897.029	62.97
897.402	62.99
897.776	63
898.15	62.99
898.524	63
898.898	62.99
899.271	62.96
899.645	62.98
900.018	62.98
900.392	63
900.765	63.01
901.138	63.02
901.511	62.97
901.884	62.97
902.258	62.99
902.631	63.01
903.003	63.03
903.376	63.06
903.749	63.08
904.122	63.13
904.495	63.15
904.867	63.15
905.24	63.13
905.612	63.16
905.985	63.12
906.357	63.09
906.729	63.05
907.102	63.07
907.474	63.09
907.846	63.06
908.218	63.02
908.59	63
908.962	63
909.334	63.01
909.705	63.04
910.077	63.04
910.449	63.08
910.82	63.07
911.192	63
911.563	62.96
911.935	62.95
912.306	62.96
912.677	62.94
913.048	62.92
913.419	62.93
913.79	62.89
914.161	62.87
914.532	62.84
914.903	62.83
915.274	62.86
915.645	62.89
916.015	62.92
916.386	62.9
916.756	62.87
917.127	62.9
917.497	62.9
917.868	62.91
918.238	62.94
918.608	62.96
918.978	62.98
919.348	62.98
919.718	62.96
920.088	62.96
920.458	63.01
920.828	63
921.198	63.01
921.567	62.97
921.937	62.99
922.306	63
922.676	62.97
923.045	62.95
923.415	62.95
923.784	62.95
924.153	62.95
924.522	62.91
924.891	62.95
925.26	62.91
925.629	62.93
925.998	62.92
926.367	62.92
926.736	62.95
927.104	62.98
927.473	63
927.842	62.98
928.21	62.99
928.578	62.98
928.947	62.97
929.315	62.97
929.683	63.01
930.051	63.01
930.42	63.01
930.788	63.02
931.156	63
931.523	62.96
931.891	62.94
932.259	62.89
932.627	62.82
932.994	62.8
933.362	62.77
933.729	62.71
934.097	62.65
934.464	62.58
934.831	62.51
935.199	62.43
935.566	62.38
935.933	62.33
936.3	62.28
936.667	62.26
937.034	62.21
937.401	62.18
937.767	62.15
938.134	62.17
938.501	62.15
938.867	62.18
939.234	62.3
939.6	62.41
939.967	62.53
940.333	62.71
940.699	62.85
941.065	62.98
941.431	63.12
941.798	63.34
942.163	63.52
942.529	63.6
942.895	63.62
943.261	63.67
943.627	63.69
943.992	63.76
944.358	63.77
944.723	63.8
945.089	63.93
945.454	63.97
945.82	63.86
946.185	63.83
946.55	63.95
946.915	63.96
947.28	63.94
947.645	63.96
948.01	63.99
948.375	64.07
948.74	64.02
949.104	63.91
949.469	63.73
949.834	63.64
950.198	63.49
950.562	63.37
950.927	63.34
951.291	63.34
951.655	63.22
952.02	63.15
952.384	63.04
952.748	62.99
953.112	62.98
953.476	63
953.839	62.97
954.203	63.02
954.567	62.94
954.931	62.87
955.294	62.77
955.658	62.74
956.021	62.61
956.385	62.52
956.748	62.5
957.111	62.4
957.474	62.39
957.837	62.43
958.2	62.3
958.563	62.21
958.926	62.21
959.289	62.14
959.652	62.1
960.015	62.09
960.377	62.07
960.74	61.97
961.102	61.94
961.465	61.94
961.827	61.75
962.189	61.76
962.552	61.72
962.914	61.7
963.276	61.69
963.638	61.64
964	61.66
964.362	61.63
964.724	61.66
965.085	61.68
965.447	61.55
965.809	61.47
966.17	61.44
966.532	61.51
966.893	61.47
967.255	61.46
967.616	61.51
967.977	61.43
968.338	61.39
968.699	61.33
969.061	61.22
969.421	61.2
969.782	61.39
970.143	61.41
970.504	61.34
970.865	61.26
971.225	61.21
971.586	61.23
971.946	61.31
972.307	61.29
972.667	61.39
973.027	61.48
973.388	61.53
973.748	61.51
974.108	61.43
974.468	61.44
974.828	61.53
975.188	61.63
975.548	61.52
975.907	61.52
976.267	61.52
976.627	61.51
976.986	61.45
977.346	61.48
977.705	61.48
978.064	61.52
978.424	61.51
978.783	61.49
979.142	61.48
979.501	61.47
979.86	61.49
980.219	61.48
980.578	61.45
980.937	61.48
981.296	61.46
981.654	61.57
982.013	61.68
982.371	61.69
982.73	61.7
983.088	61.65
983.447	61.76
983.805	61.77
984.163	61.86
984.521	61.78
984.879	61.82
985.237	61.93
985.595	61.8
985.953	61.77
986.311	61.86
986.669	61.94
987.026	61.98
987.384	61.98
987.741	62.01
988.099	62.04
988.456	62.17
988.814	62.19
989.171	62.05
989.528	62.07
989.885	62.05
990.242	62.09
990.599	62.01
990.956	62.12
991.313	62.21
991.67	62.25
992.027	62.19
992.383	62.27
992.74	62.26
993.096	62.46
993.453	62.53
993.809	62.62
994.165	62.72
994.522	62.93
994.878	62.94
995.234	62.85
995.59	62.8
995.946	62.94
996.302	62.87
996.658	62.89
997.013	62.88
997.369	62.95
997.725	63.1
998.08	63.03
998.436	62.96
998.791	62.9
999.147	62.91
999.502	62.86
999.857	62.82
1000.212	62.86
1000.567	63.06
1000.922	63.06
1001.277	62.96
1001.632	62.85
1001.987	62.85
1002.342	62.97
1002.696	63.13
1003.051	63.28
1003.406	63.43
1003.76	63.41
1004.114	63.41
1004.469	63.28
1004.823	63.37
1005.177	63.52
1005.531	63.54
1005.885	63.74
1006.239	63.64
1006.593	63.61
1006.947	63.62
1007.301	63.62
1007.655	63.82
1008.008	63.91
1008.362	64.01
1008.715	63.97
1009.069	63.96
1009.422	63.95
1009.776	63.87
1010.129	63.88
1010.482	64.09
1010.835	64.43
1011.188	64.32
1011.541	64.27
1011.894	64.47
1012.247	64.6
1012.6	64.71
1012.952	64.9
1013.305	64.99
1013.657	65.09
1014.01	65.48
1014.362	65.58
1014.715	65.34
1015.067	65.89
1015.419	66.11
1015.771	66.3
1016.123	66.29
1016.475	66.61
1016.827	67.01
1017.179	67.4
1017.531	67.56
1017.883	67.63
1018.234	67.61
1018.586	67.71
1018.938	67.44
1019.289	67.49
1019.64	67.85
1019.992	68.09
1020.343	67.79
1020.694	67.8
1021.045	67.89
1021.396	68
1021.747	68.04
1022.098	68.24
1022.449	68.4
1022.8	68.48
1023.151	68.47
1023.501	68.16
1023.852	68.45
1024.202	68.86
1024.553	68.57
1024.903	68.19
1025.253	68.15
1025.604	68.04
1025.954	67.69
1026.304	67.96
1026.654	68.37
1027.004	68.81
1027.354	68.91
1027.703	68.67
1028.053	68.35
1028.403	68.24
1028.753	68.84
1029.102	68.91
1029.452	68.97
1029.801	69.21
1030.15	69
1030.499	68.78
897.758	644.19
901.051	655.57
904.343	661.21
907.636	646.6
910.928	637.77
914.22	646.72
917.511	630.04
920.803	600.07
924.094	574.86
927.384	580.93
930.675	568.26
933.965	562.42
937.255	558.8
940.544	533.24
943.834	515.62
947.123	507.28
950.411	480.75
953.7	474.98
956.988	461.23
960.276	442.23
963.563	432.66
966.851	409.32
970.138	401.63
973.424	376.96
976.711	372.46
979.997	354.93
983.283	347.48
986.568	336.9
989.853	328.3
993.138	316.03
996.423	311.06
999.708	304.14
1002.992	305.03
1006.275	293.07
1009.559	289.42
1012.842	283.06
1016.125	276.41
1019.408	271.67
1022.69	268.25
1025.972	266.03
1029.254	259.38
1032.536	255.38
1035.817	246.68
1039.098	242.62
1042.379	240.02
1045.659	236.92
1048.939	233.44
1052.219	230.85
1055.498	225.74
1058.778	223.39
1062.057	219.01
1065.335	218.28
1068.614	214.71
1071.892	213.42
1075.17	208.68
1078.447	206.18
1081.724	204.37
1085.001	200.03
1088.278	199.67
1091.554	198.66
1094.83	197.38
1098.106	194.04
1101.382	193.42
1104.657	192.17
1107.932	190.92
1111.206	190.74
1114.481	189.07
1117.755	188.28
1121.029	187.82
1124.302	184.76
1127.575	181.59
1130.848	180.72
1134.121	179.29
1137.393	178.27
1140.665	177.78
1143.937	176.42
1147.208	173.5
1150.48	171.84
1153.75	170.39
1157.021	169.07
1160.291	168.05
1163.561	168.4
1166.831	166.74
1170.101	165.84
1173.37	164.75
1176.639	163.03
1179.907	162.69
1183.176	163.03
1186.444	162.6
1189.711	161.44
1192.979	163.07
1196.246	163.19
1199.513	163.66
1202.78	163.14
1206.046	163.6
1209.312	164.23
1212.578	164.9
1215.843	166.78
1219.108	167.82
1222.373	170.9
1225.638	174.23
1228.902	176.82
1232.166	182.45
1235.43	184.36
1238.693	190.02
1241.956	194.62
1245.219	198.79
1248.482	200.52
1251.744	199.81
1255.006	199.64
1258.268	194.08
1261.529	192.42
1264.79	188.04
1268.051	185.11
1271.312	183.2
1274.572	179.05
1277.832	174.15
1281.092	172.18
1284.351	168.7
1287.61	168.92
1290.869	167.74
1294.128	167.78
1297.386	166.53
1300.644	166.52
1303.902	164.57
1307.159	163.26
1310.416	164.47
1313.673	167.05
1316.93	168.2
1320.186	170.87
1323.442	172.51
1326.697	175.45
1329.953	178.25
1333.208	183.54
1336.463	189.05
1339.717	192.58
1342.972	202.46
1346.226	206.43
1349.479	207.45
1352.733	216.24
1355.986	222.22
1359.238	226.7
1362.491	229.05
1365.743	234.73
1368.995	237.52
1372.247	238.44
1375.498	237.84
1378.749	245.48
1382	246.33
1385.251	245.65
1388.501	244.29
1391.751	245.91
1395	242.18
1398.25	245.93
1401.499	245.57
1404.748	244.25
1407.996	237.06
1411.244	237.62
1414.492	231.99
1417.74	228.17
1420.987	220.97
1424.234	218.3
1427.481	208.28
1430.728	205.03
1433.974	197.28
1437.22	189.56
1440.465	184.03
1443.711	178.96
1446.956	173.46
1450.201	166.84
1453.445	157.89
1456.689	154.08
1459.933	148.28
1463.177	143.57
1466.42	140.9
1469.663	136.5
1472.906	133.27
1476.148	129.28
1479.391	126.29
1482.633	123.84
1485.874	122.19
1489.115	121.46
1492.356	119.49
1495.597	117.49
1498.838	117.17
1502.078	115.75
1505.318	115.34
1508.557	114.66
1511.797	113.93
1515.036	113.67
1518.274	112.82
1521.513	110.86
1524.751	110.72
1527.989	112.07
1531.227	112.09
1534.464	111.38
1537.701	110.15
1540.938	109.6
1544.174	110.14
1547.41	109.4
1550.646	109.69
1553.882	110.32
1557.117	110.39
1560.352	109.76
1563.587	108.65
1566.821	108.55
1570.055	107.98
1573.289	108.54
1576.523	108.62
1579.756	107.93
1582.989	108.29
1586.222	107.89
1589.454	107.64
1592.686	107.9
1595.918	108.01
1599.15	107.77
1602.381	108.24
1605.612	108.6
1608.843	108.35
1612.073	108.41
1615.303	108.76
1618.533	108.68
1621.762	108.89
1624.992	109.19
1628.221	108.91
1631.449	109.32
1634.678	109.61
1637.906	109.37
1641.134	109.1
1644.361	109.28
1647.588	109.58
1650.815	109.54
1654.042	110.01
1657.269	109.62
1660.495	109.87
1663.72	110.25
1666.946	110.23
1670.171	110.48
1673.396	111.03
1676.621	111.58
1679.845	111.67
1683.069	111.79
1686.293	111.5
1689.517	111.59
1692.74	112.15
1695.963	112.38
1699.185	112.38
1702.408	112.36
1705.63	112.81
1708.852	112.75
1712.073	112.95
1715.294	112.85
1718.515	113.24
1721.736	113.69
1724.956	113.31
1728.176	113.3
1731.396	113.65
1734.616	113.53
1737.835	114.03
1741.054	113.07
1744.272	113.83
1747.491	113.6
1750.709	114.45
1753.927	114.47
1757.144	114.44
1760.361	115.34
1763.578	115.96
1766.795	115.99
1770.011	116.1
1773.227	116.15
1776.443	117.74
1779.658	117.32
1782.874	117.5
1786.089	117.44
1789.303	117.92
1792.518	119.39
1795.732	119.74
1798.945	120.23
1802.159	120.72
1805.372	122.78
1808.585	123.87
1811.797	124.24
1815.01	125.26
1818.222	127.1
1821.434	126.73
1824.645	127.57
1827.856	129.36
1831.067	129.96
1834.278	132.11
1837.488	132.19
1840.698	133.12
1843.908	133.15
1847.117	134.82
1850.326	136.36
1853.535	136.07
1856.744	139.59
1859.952	140.5
1863.16	139.66
1866.368	138.93
1869.575	138.9
1872.782	138.7
1875.989	137.62
1879.196	137.56
1882.402	135.76
1885.608	135.38
1888.814	135.22
1892.019	134.72
1895.224	132.53
1898.429	132.79
1901.634	133.66
1904.838	134.2
1908.042	135.18
1911.246	134.69
1914.449	134.73
1917.652	134.71
1920.855	134.55
1924.058	133.73
1927.26	133.36
1930.462	134.53
1933.664	135.05
1936.865	135.3
1940.066	131.92
1943.267	131.77
1946.467	132.89
1949.668	132.93
1952.868	133.85
1956.067	133.56
1959.267	134.68
1962.466	134.77
1965.665	135.89
1968.863	135.88
1972.061	137.03
1975.259	141.61
1978.457	143.03
1981.654	143.74
1984.852	145.44
1988.048	146.88
1991.245	148.52
1994.441	151.28
1997.637	155.68
2000.833	157.26
2004.028	159.69
2007.223	164.9
2010.418	166.57
2013.613	172.5
2016.807	177.32
2020.001	181.18
2023.194	185.84
2026.388	193.6
2029.581	203.66
2032.774	208.46
2035.966	215.6
2039.158	221.17
2042.35	224.49
2045.542	230.14
2048.733	240.97
2051.924	241.45
2055.115	244.88
2058.306	248.23
2061.496	254.27
2064.686	250.81
2067.875	248.15
2071.065	251.07
2074.254	251.5
2077.442	256.85
2080.631	259.39
2083.819	258.29
2087.007	267.47
2090.195	270.13
2093.382	270.31
2096.569	268.93
2099.756	276.28
2102.942	283.46
2106.128	289.74
2109.314	291.46
2112.5	291.93
2115.685	290.3
2118.87	290.64
2122.055	290.68
2125.239	298.06
2128.424	304.85
2131.608	302.99
2134.791	303.52
2137.974	303.4
2141.157	304.72
2144.34	308.21
2147.523	315.32
2150.705	322.32
2153.887	317.73
2157.068	320.03
2160.25	322.72
2163.431	321.84
2166.611	328.44
2169.792	334.03
2172.972	339.53
2176.152	339.33
2179.331	345.94
2182.511	344.06
2185.69	349.44
2188.868	364.4
2192.047	373.84
2195.225	379.41
2198.403	385.09
2201.58	378.18
2204.758	387.98
2207.935	391.52
2211.111	401.62
2214.288	404.19
2217.464	409.64
2220.64	410.21
2223.815	413.37
2226.991	407.05
2230.166	410.4
2233.34	423.81
2236.515	437.72
2239.689	435.5
2242.863	440.82
2246.036	437.46
2249.209	448.94
2252.382	446.9
2255.555	462.7
2258.727	463.66
2261.9	482.22
2265.071	487.31
2268.243	480.51
2271.414	493.93
2274.585	505.43
2277.756	507.06
2280.926	525.7
2284.096	526.57
2287.266	532.16
2290.436	522.38
2293.605	535.7
2296.774	548.88
2299.942	548.94
2303.111	565
2306.279	576.04
2309.447	572.53
2312.614	575.77
2315.781	591
2318.948	595.78
2322.115	604.54
2325.281	638.95
2328.447	632.78
2331.613	635.54
2334.779	645.5
2337.944	657.17
2341.109	665.93
2344.274	678.13
2347.438	692.9
2350.602	702.59
2353.766	751.5
2356.929	755.12
2360.092	760.45
2363.255	762.93
2366.418	773.7
2369.58	787.71
2372.742	788.45
2375.904	787.77
2379.066	808.48
2382.227	859.37
2385.388	858.88
2388.548	805.41
2391.709	797.98
2394.869	820.17
2398.029	830.46
2401.188	834.77
2404.347	855.45
2407.506	883.06
2410.665	855.2
2413.823	857.17
2416.981	857.35
2420.139	807.58
2423.296	876.31
2426.453	938.66
2429.61	898.51
2432.767	956.96
2435.923	983.11
2439.079	959.48
2442.235	982.81
2445.391	998.4
2448.546	992.06
2451.701	1045.54
2454.855	1126.32
2458.009	992.24
2461.163	997.29
2464.317	1015.63
2467.471	990.37
2470.624	1026.35
2473.777	1003.81
2476.929	972.02
2480.082	1038.2
2483.234	1086.59
2486.385	1103.2
2489.537	1126.92
2492.688	1246.83
2495.839	1227.49
2498.989	1258.44
2502.14	1265.33
2505.29	1205.94
2508.439	1336.76
2511.589	1366.65
2514.738	1327.47
2517.887	1319.51
2521.035	1236.61
2524.183	1217.33
2527.331	1204.75
2530.479	1182.32
2533.627	1205.9
