Data from c_3_dec_nc_4n_Splice17_08.txt Node
Date: Sat Feb 29 14:49:08 EST 2020
User: sa697716
Spectrometer: FLMS03696
Trigger mode: 0
Integration Time (sec): 3.180400E-1
Scans to average: 20
Electric dark correction enabled: true
Nonlinearity correction enabled: true
Boxcar width: 5
XAxis mode: Wavelengths
Number of Pixels in Spectrum: 2048
>>>>>Begin Spectral Data<<<<<
187.83	40.77
188.298	44.72
188.766	49.45
189.233	61.89
189.701	67.54
190.169	72.25
190.636	96.22
191.104	110.18
191.571	398.96
192.039	320.7
192.506	-409.07
192.974	3232.81
193.441	-584.04
193.908	125.06
194.375	306.79
194.842	362.69
195.31	208.77
195.777	235.35
196.244	86.75
196.711	49.19
197.177	43.2
197.644	40.47
198.111	39.24
198.578	38.67
199.045	39.4
199.511	40.02
199.978	40.9
200.445	40.95
200.911	41.29
201.378	41.02
201.844	41.4
202.31	42.16
202.777	42.71
203.243	43.45
203.709	43.96
204.176	43.78
204.642	43.14
205.108	42.56
205.574	42.55
206.04	42.11
206.506	41.96
206.972	41.5
207.438	40.87
207.903	40.91
208.369	40.03
208.835	39.4
209.301	39.3
209.766	39.4
210.232	39.17
210.697	38.82
211.163	38.39
211.628	37.77
212.094	37.62
212.559	36.98
213.024	36.49
213.49	36.18
213.955	35.63
214.42	34.9
214.885	33.82
215.35	33.03
215.815	31.69
216.28	30.74
216.745	29.79
217.21	28.36
217.675	27.24
218.14	25.98
218.604	24.81
219.069	24.17
219.534	23.26
219.998	22.67
220.463	22.06
220.927	21.59
221.392	21.1
221.856	20.7
222.32	20.41
222.785	20.17
223.249	19.92
223.713	19.74
224.177	19.49
224.642	19.37
225.106	19.21
225.57	19.07
226.034	18.93
226.497	18.82
226.961	18.68
227.425	18.5
227.889	18.34
228.353	18.2
228.816	18.06
229.28	17.89
229.744	17.76
230.207	17.62
230.671	17.48
231.134	17.35
231.597	17.19
232.061	17.06
232.524	16.97
232.987	16.85
233.45	16.73
233.914	16.61
234.377	16.49
234.84	16.36
235.303	16.21
235.766	16.08
236.229	15.97
236.691	15.86
237.154	15.74
237.617	15.63
238.08	15.51
238.542	15.4
239.005	15.28
239.468	15.16
239.93	15.06
240.393	14.97
240.855	14.86
241.317	14.75
241.78	14.64
242.242	14.53
242.704	14.42
243.166	14.32
243.629	14.23
244.091	14.12
244.553	14.04
245.015	13.96
245.477	13.88
245.939	13.81
246.4	13.73
246.862	13.68
247.324	13.64
247.786	13.58
248.247	13.51
248.709	13.45
249.17	13.41
249.632	13.35
250.093	13.26
250.555	13.21
251.016	13.16
251.477	13.11
251.939	13.06
252.4	12.99
252.861	12.93
253.322	12.89
253.783	12.86
254.244	12.82
254.705	12.78
255.166	12.76
255.627	12.73
256.088	12.69
256.549	12.67
257.009	12.62
257.47	12.59
257.931	12.55
258.391	12.49
258.852	12.44
259.312	12.39
259.773	12.35
260.233	12.31
260.694	12.27
261.154	12.24
261.614	12.19
262.074	12.15
262.534	12.11
262.994	12.08
263.455	12.07
263.915	12.04
264.374	12.01
264.834	11.99
265.294	11.97
265.754	11.94
266.214	11.92
266.673	11.91
267.133	11.89
267.593	11.88
268.052	11.87
268.512	11.85
268.971	11.84
269.431	11.83
269.89	11.81
270.349	11.8
270.809	11.8
271.268	11.8
271.727	11.78
272.186	11.77
272.645	11.76
273.104	11.75
273.563	11.74
274.022	11.73
274.481	11.72
274.94	11.71
275.399	11.69
275.857	11.67
276.316	11.66
276.775	11.64
277.233	11.62
277.692	11.6
278.15	11.58
278.609	11.55
279.067	11.52
279.525	11.5
279.984	11.49
280.442	11.47
280.9	11.44
281.358	11.43
281.816	11.41
282.274	11.39
282.732	11.38
283.19	11.36
283.648	11.35
284.106	11.34
284.564	11.33
285.021	11.32
285.479	11.3
285.937	11.29
286.394	11.27
286.852	11.27
287.309	11.25
287.767	11.25
288.224	11.25
288.682	11.24
289.139	11.24
289.596	11.23
290.053	11.22
290.511	11.2
290.968	11.18
291.425	11.16
291.882	11.14
292.339	11.11
292.796	11.08
293.252	11.04
293.709	11.02
294.166	10.98
294.623	10.95
295.079	10.92
295.536	10.9
295.992	10.88
296.449	10.86
296.905	10.84
297.362	10.84
297.818	10.83
298.274	10.81
298.731	10.79
299.187	10.78
299.643	10.77
300.099	10.76
300.555	10.74
301.011	10.71
301.467	10.7
301.923	10.68
302.379	10.66
302.835	10.65
303.291	10.64
303.746	10.63
304.202	10.61
304.658	10.59
305.113	10.58
305.569	10.58
306.024	10.57
306.479	10.54
306.935	10.53
307.39	10.51
307.845	10.49
308.301	10.48
308.756	10.47
309.211	10.46
309.666	10.46
310.121	10.44
310.576	10.42
311.031	10.41
311.486	10.41
311.94	10.41
312.395	10.4
312.85	10.39
313.305	10.39
313.759	10.39
314.214	10.38
314.668	10.37
315.123	10.37
315.577	10.38
316.032	10.38
316.486	10.36
316.94	10.35
317.394	10.33
317.849	10.32
318.303	10.3
318.757	10.3
319.211	10.29
319.665	10.27
320.119	10.26
320.572	10.25
321.026	10.23
321.48	10.24
321.934	10.22
322.387	10.21
322.841	10.19
323.295	10.18
323.748	10.15
324.202	10.13
324.655	10.11
325.108	10.08
325.562	10.05
326.015	10.03
326.468	9.99
326.921	9.97
327.374	9.95
327.827	9.93
328.28	9.91
328.733	9.89
329.186	9.88
329.639	9.87
330.092	9.87
330.545	9.86
330.997	9.85
331.45	9.85
331.903	9.85
332.355	9.84
332.808	9.85
333.26	9.85
333.713	9.85
334.165	9.84
334.617	9.84
335.069	9.84
335.522	9.85
335.974	9.84
336.426	9.84
336.878	9.84
337.33	9.84
337.782	9.83
338.234	9.84
338.686	9.83
339.137	9.84
339.589	9.83
340.041	9.81
340.493	9.79
340.944	9.79
341.396	9.78
341.847	9.76
342.299	9.73
342.75	9.71
343.201	9.67
343.653	9.64
344.104	9.62
344.555	9.6
345.006	9.59
345.457	9.56
345.908	9.55
346.359	9.53
346.81	9.51
347.261	9.5
347.712	9.51
348.163	9.5
348.613	9.5
349.064	9.48
349.515	9.46
349.965	9.45
350.416	9.45
350.866	9.44
351.317	9.42
351.767	9.43
352.217	9.42
352.668	9.41
353.118	9.41
353.568	9.42
354.018	9.43
354.468	9.43
354.918	9.43
355.368	9.43
355.818	9.43
356.268	9.44
356.718	9.44
357.168	9.45
357.617	9.44
358.067	9.42
358.517	9.41
358.966	9.41
359.416	9.43
359.865	9.44
360.315	9.44
360.764	9.44
361.213	9.44
361.663	9.45
362.112	9.47
362.561	9.5
363.01	9.51
363.459	9.53
363.908	9.54
364.357	9.55
364.806	9.56
365.255	9.57
365.703	9.59
366.152	9.6
366.601	9.61
367.05	9.62
367.498	9.62
367.947	9.64
368.395	9.66
368.844	9.67
369.292	9.68
369.74	9.72
370.189	9.74
370.637	9.78
371.085	9.81
371.533	9.84
371.981	9.87
372.429	9.88
372.877	9.91
373.325	9.92
373.773	9.96
374.221	10
374.669	10.02
375.116	10.04
375.564	10.06
376.012	10.08
376.459	10.13
376.907	10.17
377.354	10.21
377.801	10.26
378.249	10.31
378.696	10.35
379.143	10.37
379.591	10.41
380.038	10.44
380.485	10.49
380.932	10.54
381.379	10.56
381.826	10.6
382.273	10.64
382.72	10.68
383.166	10.71
383.613	10.74
384.06	10.78
384.506	10.82
384.953	10.85
385.4	10.88
385.846	10.9
386.292	10.94
386.739	10.95
387.185	11
387.631	11.03
388.078	11.06
388.524	11.08
388.97	11.1
389.416	11.1
389.862	11.13
390.308	11.15
390.754	11.16
391.2	11.19
391.645	11.22
392.091	11.22
392.537	11.23
392.983	11.26
393.428	11.31
393.874	11.34
394.319	11.38
394.765	11.39
395.21	11.4
395.655	11.42
396.101	11.43
396.546	11.46
396.991	11.45
397.436	11.44
397.881	11.44
398.326	11.43
398.771	11.43
399.216	11.46
399.661	11.48
400.106	11.53
400.551	11.54
400.995	11.53
401.44	11.5
401.885	11.5
402.329	11.5
402.774	11.48
403.218	11.48
403.663	11.48
404.107	11.47
404.551	11.46
404.995	11.43
405.44	11.41
405.884	11.41
406.328	11.41
406.772	11.42
407.216	11.43
407.66	11.44
408.104	11.42
408.547	11.42
408.991	11.4
409.435	11.39
409.879	11.36
410.322	11.37
410.766	11.35
411.209	11.35
411.653	11.33
412.096	11.31
412.54	11.29
412.983	11.29
413.426	11.28
413.869	11.29
414.312	11.31
414.756	11.32
415.199	11.33
415.642	11.35
416.085	11.38
416.527	11.4
416.97	11.42
417.413	11.44
417.856	11.41
418.298	11.37
418.741	11.35
419.184	11.33
419.626	11.31
420.069	11.31
420.511	11.28
420.953	11.25
421.396	11.22
421.838	11.21
422.28	11.21
422.722	11.24
423.164	11.26
423.606	11.28
424.048	11.26
424.49	11.29
424.932	11.29
425.374	11.29
425.816	11.28
426.258	11.26
426.699	11.22
427.141	11.16
427.582	11.12
428.024	11.09
428.465	11.09
428.907	11.11
429.348	11.07
429.789	11.03
430.231	11
430.672	10.97
431.113	10.97
431.554	10.97
431.995	11.01
432.436	11
432.877	10.98
433.318	10.92
433.759	10.87
434.2	10.85
434.64	10.84
435.081	10.83
435.522	10.84
435.962	10.85
436.403	10.86
436.843	10.87
437.284	10.89
437.724	10.92
438.164	10.95
438.604	10.98
439.045	10.99
439.485	11.03
439.925	11.03
440.365	11.04
440.805	11.04
441.245	11.03
441.685	11.05
442.125	11.04
442.564	11.05
443.004	11.05
443.444	11.04
443.883	11.03
444.323	11.01
444.762	11.04
445.202	11.08
445.641	11.09
446.081	11.12
446.52	11.1
446.959	11.11
447.398	11.14
447.837	11.18
448.276	11.19
448.716	11.23
449.154	11.26
449.593	11.29
450.032	11.3
450.471	11.32
450.91	11.31
451.349	11.31
451.787	11.31
452.226	11.3
452.664	11.29
453.103	11.3
453.541	11.29
453.98	11.29
454.418	11.25
454.856	11.22
455.295	11.2
455.733	11.18
456.171	11.17
456.609	11.15
457.047	11.12
457.485	11.1
457.923	11.09
458.361	11.05
458.798	11.03
459.236	11.03
459.674	11.02
460.111	11.02
460.549	11.01
460.987	11.01
461.424	10.99
461.862	10.99
462.299	10.96
462.736	10.94
463.173	10.94
463.611	10.91
464.048	10.89
464.485	10.88
464.922	10.84
465.359	10.83
465.796	10.8
466.233	10.81
466.67	10.82
467.106	10.82
467.543	10.84
467.98	10.84
468.416	10.85
468.853	10.86
469.29	10.87
469.726	10.88
470.162	10.88
470.599	10.88
471.035	10.9
471.471	10.88
471.907	10.88
472.344	10.87
472.78	10.88
473.216	10.87
473.652	10.87
474.088	10.88
474.523	10.88
474.959	10.89
475.395	10.91
475.831	10.9
476.266	10.91
476.702	10.91
477.138	10.89
477.573	10.88
478.008	10.88
478.444	10.88
478.879	10.87
479.314	10.89
479.75	10.9
480.185	10.89
480.62	10.89
481.055	10.89
481.49	10.88
481.925	10.89
482.36	10.88
482.795	10.88
483.229	10.88
483.664	10.88
484.099	10.87
484.534	10.86
484.968	10.85
485.403	10.84
485.837	10.84
486.271	10.84
486.706	10.83
487.14	10.85
487.574	10.87
488.009	10.88
488.443	10.89
488.877	10.91
489.311	10.92
489.745	10.95
490.179	10.98
490.613	11
491.046	11.04
491.48	11.07
491.914	11.11
492.348	11.14
492.781	11.18
493.215	11.21
493.648	11.26
494.082	11.3
494.515	11.34
494.948	11.39
495.382	11.45
495.815	11.52
496.248	11.58
496.681	11.63
497.114	11.69
497.547	11.75
497.98	11.82
498.413	11.9
498.846	11.99
499.279	12.08
499.711	12.16
500.144	12.24
500.577	12.33
501.009	12.43
501.442	12.55
501.874	12.66
502.306	12.79
502.739	12.91
503.171	13.04
503.603	13.18
504.036	13.31
504.468	13.47
504.9	13.63
505.332	13.79
505.764	13.95
506.196	14.12
506.627	14.29
507.059	14.47
507.491	14.66
507.923	14.84
508.354	15.02
508.786	15.23
509.217	15.42
509.649	15.63
510.08	15.84
510.512	16.05
510.943	16.26
511.374	16.48
511.805	16.72
512.237	16.96
512.668	17.19
513.099	17.45
513.53	17.68
513.961	17.96
514.391	18.2
514.822	18.45
515.253	18.68
515.684	18.93
516.114	19.2
516.545	19.45
516.975	19.72
517.406	19.98
517.836	20.24
518.267	20.5
518.697	20.74
519.127	21
519.558	21.25
519.988	21.53
520.418	21.79
520.848	22.03
521.278	22.27
521.708	22.36
522.138	22.58
522.567	22.81
522.997	23.03
523.427	23.24
523.857	23.45
524.286	23.66
524.716	23.86
525.145	24.05
525.575	24.26
526.004	24.45
526.433	24.78
526.863	24.98
527.292	25.14
527.721	25.31
528.15	25.47
528.579	25.63
529.008	25.77
529.437	25.92
529.866	26.04
530.295	26.16
530.724	26.3
531.152	26.4
531.581	26.48
532.01	26.58
532.438	26.67
532.867	26.78
533.295	26.9
533.723	27
534.152	27.06
534.58	27.12
535.008	27.18
535.436	27.23
535.865	27.27
536.293	27.33
536.721	27.37
537.149	27.42
537.576	27.44
538.004	27.45
538.432	27.47
538.86	27.52
539.287	27.56
539.715	27.59
540.143	27.6
540.57	27.64
540.998	27.7
541.425	27.71
541.852	27.73
542.28	27.75
542.707	27.78
543.134	27.81
543.561	27.8
543.988	27.82
544.415	27.86
544.842	27.88
545.269	27.92
545.696	27.93
546.123	27.96
546.549	27.98
546.976	28.02
547.403	28.04
547.829	28.07
548.256	28.09
548.682	28.11
549.108	28.12
549.535	28.16
549.961	28.15
550.387	28.17
550.813	28.17
551.24	28.16
551.666	28.16
552.092	28.17
552.518	28.17
552.943	28.19
553.369	28.18
553.795	28.19
554.221	28.15
554.646	28.16
555.072	28.14
555.498	28.14
555.923	28.13
556.349	28.08
556.774	28.03
557.199	27.99
557.625	27.95
558.05	27.89
558.475	27.82
558.9	27.76
559.325	27.68
559.75	27.58
560.175	27.49
560.6	27.4
561.025	27.32
561.449	27.21
561.874	27.11
562.299	27.02
562.723	26.92
563.148	26.81
563.572	26.7
563.997	26.59
564.421	26.49
564.846	26.37
565.27	26.25
565.694	26.12
566.118	25.99
566.542	25.88
566.966	25.74
567.39	25.59
567.814	25.43
568.238	25.29
568.662	25.14
569.086	24.99
569.509	24.84
569.933	24.68
570.357	24.54
570.78	24.4
571.204	24.23
571.627	24.08
572.05	23.95
572.474	23.84
572.897	23.7
573.32	23.58
573.743	23.46
574.166	23.35
574.589	23.22
575.012	23.12
575.435	23.01
575.858	22.92
576.281	22.82
576.704	22.74
577.126	22.64
577.549	22.57
577.972	22.47
578.394	22.37
578.817	22.29
579.239	22.26
579.661	22.18
580.084	22.11
580.506	22.04
580.928	21.96
581.35	21.89
581.772	21.83
582.194	21.77
582.616	21.71
583.038	21.67
583.46	21.62
583.882	21.54
584.303	21.49
584.725	21.43
585.147	21.37
585.568	21.32
585.99	21.27
586.411	21.2
586.833	21.13
587.254	21.09
587.675	21.01
588.096	20.96
588.518	20.91
588.939	20.85
589.36	20.8
589.781	20.75
590.202	20.71
590.623	20.66
591.043	20.62
591.464	20.57
591.885	20.52
592.305	20.52
592.726	20.47
593.147	20.45
593.567	20.41
593.987	20.39
594.408	20.36
594.828	20.32
595.248	20.29
595.669	20.26
596.089	20.25
596.509	20.19
596.929	20.15
597.349	20.12
597.769	20.09
598.189	20.06
598.608	20.02
599.028	19.98
599.448	19.96
599.867	19.92
600.287	19.88
600.706	19.83
601.126	19.81
601.545	19.76
601.965	19.7
602.384	19.66
602.803	19.6
603.222	19.55
603.641	19.5
604.061	19.42
604.48	19.37
604.898	19.29
605.317	19.25
605.736	19.19
606.155	19.14
606.574	19.09
606.992	19
607.411	18.95
607.829	18.86
608.248	18.8
608.666	18.75
609.085	18.7
609.503	18.66
609.921	18.57
610.339	18.5
610.758	18.43
611.176	18.37
611.594	18.32
612.012	18.25
612.43	18.24
612.847	18.18
613.265	18.12
613.683	18.05
614.101	17.98
614.518	17.92
614.936	17.88
615.353	17.82
615.771	17.76
616.188	17.71
616.606	17.65
617.023	17.58
617.44	17.5
617.857	17.45
618.274	17.41
618.691	17.39
619.108	17.35
619.525	17.31
619.942	17.27
620.359	17.25
620.776	17.22
621.192	17.19
621.609	17.18
622.026	17.18
622.442	17.17
622.859	17.14
623.275	17.14
623.691	17.12
624.108	17.11
624.524	17.1
624.94	17.08
625.356	17.07
625.772	17.06
626.188	17.05
626.604	17.03
627.02	17.02
627.436	17
627.852	16.97
628.268	16.95
628.683	16.92
629.099	16.89
629.514	16.85
629.93	16.82
630.345	16.78
630.761	16.73
631.176	16.69
631.591	16.63
632.007	16.57
632.422	16.54
632.837	16.48
633.252	16.44
633.667	16.37
634.082	16.3
634.497	16.22
634.911	16.14
635.326	16.03
635.741	15.91
636.155	15.81
636.57	15.7
636.984	15.55
637.399	15.41
637.813	15.26
638.228	15.11
638.642	14.99
639.056	14.85
639.47	14.72
639.884	14.6
640.298	14.49
640.712	14.35
641.126	14.22
641.54	14.11
641.954	13.99
642.368	13.88
642.781	13.78
643.195	13.65
643.609	13.54
644.022	13.41
644.436	13.3
644.849	13.2
645.262	13.11
645.676	13
646.089	12.91
646.502	12.82
646.915	12.75
647.328	12.68
647.741	12.63
648.154	12.59
648.567	12.56
648.98	12.52
649.393	12.5
649.805	12.46
650.218	12.45
650.631	12.43
651.043	12.42
651.456	12.42
651.868	12.39
652.28	12.37
652.693	12.34
653.105	12.31
653.517	12.29
653.929	12.25
654.341	12.23
654.753	12.2
655.165	12.16
655.577	12.12
655.989	12.06
656.401	12
656.813	11.93
657.224	11.9
657.636	11.85
658.047	11.78
658.459	11.71
658.87	11.66
659.282	11.61
659.693	11.55
660.104	11.48
660.515	11.41
660.926	11.36
661.338	11.33
661.749	11.26
662.159	11.2
662.57	11.16
662.981	11.11
663.392	11.04
663.803	10.98
664.213	10.92
664.624	10.9
665.035	10.86
665.445	10.82
665.855	10.77
666.266	10.74
666.676	10.7
667.086	10.66
667.497	10.63
667.907	10.61
668.317	10.57
668.727	10.56
669.137	10.53
669.547	10.53
669.956	10.53
670.366	10.52
670.776	10.51
671.186	10.52
671.595	10.54
672.005	10.55
672.414	10.57
672.824	10.6
673.233	10.64
673.642	10.66
674.052	10.68
674.461	10.69
674.87	10.72
675.279	10.75
675.688	10.77
676.097	10.78
676.506	10.82
676.915	10.87
677.323	10.9
677.732	10.93
678.141	10.96
678.549	11.02
678.958	11.09
679.366	11.14
679.775	11.22
680.183	11.3
680.592	11.38
681	11.46
681.408	11.56
681.816	11.68
682.224	11.8
682.632	11.96
683.04	12.09
683.448	12.24
683.856	12.41
684.264	12.6
684.671	12.83
685.079	13.07
685.487	13.34
685.894	13.63
686.302	13.9
686.709	14.22
687.116	14.56
687.524	14.94
687.931	15.35
688.338	15.78
688.745	16.22
689.152	16.67
689.559	17.15
689.966	17.63
690.373	18.15
690.78	18.69
691.187	19.24
691.593	19.75
692	20.31
692.407	20.85
692.813	21.41
693.22	21.98
693.626	22.54
694.032	23.11
694.439	23.68
694.845	24.22
695.251	24.79
695.657	25.33
696.063	25.93
696.469	26.47
696.875	27.01
697.281	27.53
697.687	28.04
698.093	28.56
698.498	29.08
698.904	29.59
699.31	30.09
699.715	30.58
700.12	31.04
700.526	31.51
700.931	31.97
701.337	32.43
701.742	32.87
702.147	33.35
702.552	33.8
702.957	34.21
703.362	34.63
703.767	35.03
704.172	35.41
704.577	35.81
704.981	36.19
705.386	36.58
705.791	36.96
706.195	37.31
706.6	37.61
707.004	37.92
707.408	38.25
707.813	38.56
708.217	38.86
708.621	39.18
709.025	39.5
709.43	39.8
709.834	40.08
710.237	40.36
710.641	40.67
711.045	40.97
711.449	41.25
711.853	41.53
712.256	41.78
712.66	42.07
713.064	42.31
713.467	42.54
713.87	42.77
714.274	43.02
714.677	43.23
715.08	43.4
715.484	43.63
715.887	43.84
716.29	44.05
716.693	44.26
717.096	44.48
717.499	44.68
717.901	44.87
718.304	45.07
718.707	45.24
719.109	45.47
719.512	45.69
719.915	45.87
720.317	46.06
720.719	46.23
721.122	46.41
721.524	46.56
721.926	46.75
722.328	46.94
722.731	47.11
723.133	47.26
723.535	47.41
723.937	47.54
724.338	47.65
724.74	47.73
725.142	47.8
725.544	47.91
725.945	48.01
726.347	48.1
726.748	48.16
727.15	48.25
727.551	48.36
727.952	48.42
728.354	48.53
728.755	48.66
729.156	48.81
729.557	48.98
729.958	49.07
730.359	49.15
730.76	49.18
731.161	49.3
731.562	49.38
731.962	49.44
732.363	49.52
732.763	49.6
733.164	49.6
733.564	49.67
733.965	49.7
734.365	49.74
734.766	49.8
735.166	49.85
735.566	49.87
735.966	49.89
736.366	49.92
736.766	49.94
737.166	49.97
737.566	50.05
737.966	50.07
738.365	50.1
738.765	50.15
739.165	50.16
739.564	50.21
739.964	50.25
740.363	50.28
740.763	50.29
741.162	50.3
741.561	50.31
741.96	50.33
742.36	50.34
742.759	50.34
743.158	50.31
743.557	50.34
743.955	50.39
744.354	50.4
744.753	50.44
745.152	50.47
745.55	50.55
745.949	50.58
746.348	50.59
746.746	50.59
747.144	50.64
747.543	50.68
747.941	50.73
748.339	50.74
748.737	50.79
749.136	50.82
749.534	50.85
749.932	50.81
750.33	50.81
750.727	50.83
751.125	50.85
751.523	50.86
751.921	50.91
752.318	50.9
752.716	50.9
753.113	50.87
753.511	50.85
753.908	50.83
754.305	50.81
754.703	50.78
755.1	50.74
755.497	50.75
755.894	50.71
756.291	50.66
756.688	50.64
757.085	50.61
757.482	50.6
757.878	50.56
758.275	50.53
758.672	50.55
759.068	50.56
759.465	50.57
759.861	50.53
760.258	50.5
760.654	50.5
761.05	50.48
761.447	50.46
761.843	50.42
762.239	50.41
762.635	50.42
763.031	50.41
763.427	50.37
763.822	50.34
764.218	50.35
764.614	50.34
765.01	50.33
765.405	50.32
765.801	50.3
766.196	50.32
766.592	50.3
766.987	50.3
767.382	50.29
767.778	50.29
768.173	50.29
768.568	50.3
768.963	50.31
769.358	50.3
769.753	50.31
770.148	50.32
770.542	50.33
770.937	50.32
771.332	50.32
771.726	50.33
772.121	50.31
772.515	50.31
772.91	50.28
773.304	50.28
773.699	50.28
774.093	50.24
774.487	50.26
774.881	50.25
775.275	50.27
775.669	50.27
776.063	50.21
776.457	50.23
776.851	50.19
777.245	50.22
777.638	50.22
778.032	50.23
778.425	50.25
778.819	50.23
779.212	50.21
779.606	50.2
779.999	50.19
780.392	50.23
780.786	50.23
781.179	50.28
781.572	50.26
781.965	50.28
782.358	50.23
782.751	50.21
783.143	50.24
783.536	50.28
783.929	50.3
784.322	50.34
784.714	50.35
785.107	50.37
785.499	50.37
785.891	50.4
786.284	50.36
786.676	50.42
787.068	50.43
787.46	50.4
787.852	50.42
788.245	50.43
788.636	50.4
789.028	50.37
789.42	50.35
789.812	50.37
790.204	50.32
790.595	50.37
790.987	50.35
791.378	50.36
791.77	50.41
792.161	50.39
792.553	50.38
792.944	50.44
793.335	50.5
793.726	50.52
794.117	50.5
794.508	50.53
794.899	50.52
795.29	50.54
795.681	50.56
796.072	50.54
796.463	50.53
796.853	50.52
797.244	50.5
797.634	50.46
798.025	50.47
798.415	50.48
798.806	50.51
799.196	50.56
799.586	50.55
799.976	50.54
800.366	50.57
800.756	50.6
801.146	50.65
801.536	50.67
801.926	50.67
802.316	50.69
802.706	50.69
803.095	50.7
803.485	50.69
803.874	50.7
804.264	50.75
804.653	50.72
805.043	50.71
805.432	50.68
805.821	50.68
806.21	50.73
806.599	50.77
806.988	50.8
807.377	50.79
807.766	50.83
808.155	50.86
808.544	50.82
808.933	50.86
809.321	50.89
809.71	50.94
810.098	50.94
810.487	50.94
810.875	50.91
811.264	50.95
811.652	50.96
812.04	50.97
812.428	50.98
812.816	51.03
813.204	51.04
813.592	51.01
813.98	51
814.368	51
814.756	51
815.144	51.01
815.531	51
815.919	51.01
816.306	50.99
816.694	50.98
817.081	50.94
817.469	50.98
817.856	51.05
818.243	51.06
818.63	51.14
819.017	51.14
819.404	51.14
819.791	51.18
820.178	51.19
820.565	51.22
820.952	51.24
821.339	51.29
821.725	51.25
822.112	51.23
822.498	51.24
822.885	51.2
823.271	51.21
823.657	51.21
824.044	51.18
824.43	51.21
824.816	51.21
825.202	51.21
825.588	51.23
825.974	51.25
826.36	51.27
826.746	51.26
827.132	51.24
827.517	51.22
827.903	51.26
828.289	51.26
828.674	51.22
829.06	51.23
829.445	51.24
829.83	51.23
830.216	51.23
830.601	51.22
830.986	51.24
831.371	51.26
831.756	51.26
832.141	51.25
832.526	51.22
832.911	51.25
833.295	51.24
833.68	51.21
834.065	51.18
834.449	51.14
834.834	51.14
835.218	51.13
835.603	51.1
835.987	51.09
836.371	51.08
836.755	51.05
837.139	51.03
837.524	51.01
837.908	51
838.291	50.99
838.675	51
839.059	50.98
839.443	50.97
839.827	50.97
840.21	50.98
840.594	50.95
840.977	50.98
841.361	50.98
841.744	50.99
842.127	50.97
842.511	50.96
842.894	50.93
843.277	50.91
843.66	50.89
844.043	50.9
844.426	50.87
844.809	50.88
845.191	50.83
845.574	50.82
845.957	50.8
846.339	50.77
846.722	50.78
847.104	50.8
847.487	50.83
847.869	50.83
848.252	50.8
848.634	50.83
849.016	50.84
849.398	50.87
849.78	50.88
850.162	50.89
850.544	50.94
850.926	50.92
851.307	50.92
851.689	50.9
852.071	50.89
852.452	50.9
852.834	50.85
853.215	50.85
853.597	50.85
853.978	50.83
854.359	50.83
854.741	50.83
855.122	50.83
855.503	50.81
855.884	50.79
856.265	50.8
856.646	50.77
857.026	50.8
857.407	50.75
857.788	50.74
858.169	50.73
858.549	50.75
858.93	50.73
859.31	50.73
859.69	50.75
860.071	50.76
860.451	50.76
860.831	50.79
861.211	50.78
861.591	50.82
861.971	50.81
862.351	50.83
862.731	50.8
863.111	50.82
863.491	50.84
863.87	50.86
864.25	50.86
864.629	50.86
865.009	50.85
865.388	50.86
865.768	50.89
866.147	50.91
866.526	50.89
866.905	50.89
867.284	50.87
867.663	50.88
868.042	50.83
868.421	50.83
868.8	50.84
869.179	50.85
869.558	50.86
869.936	50.83
870.315	50.82
870.693	50.84
871.072	50.86
871.45	50.86
871.828	50.85
872.207	50.89
872.585	50.89
872.963	50.87
873.341	50.86
873.719	50.84
874.097	50.87
874.475	50.88
874.853	50.86
875.23	50.87
875.608	50.9
875.986	50.86
876.363	50.84
876.741	50.83
877.118	50.84
877.495	50.83
877.873	50.8
878.25	50.74
878.627	50.73
879.004	50.73
879.381	50.7
879.758	50.68
880.135	50.71
880.512	50.71
880.889	50.74
881.265	50.72
881.642	50.72
882.019	50.75
882.395	50.76
882.772	50.75
883.148	50.75
883.524	50.75
883.901	50.73
884.277	50.69
884.653	50.68
885.029	50.68
885.405	50.66
885.781	50.66
886.157	50.65
886.532	50.64
886.908	50.67
887.284	50.68
887.659	50.68
888.035	50.69
888.411	50.68
888.786	50.67
889.161	50.63
889.537	50.65
889.912	50.63
890.287	50.61
890.662	50.59
891.037	50.52
891.412	50.49
891.787	50.46
892.162	50.43
892.536	50.43
892.911	50.41
893.286	50.4
893.66	50.37
894.035	50.36
894.409	50.34
894.784	50.35
895.158	50.34
895.532	50.31
895.906	50.31
896.281	50.3
896.655	50.29
897.029	50.28
897.402	50.29
897.776	50.27
898.15	50.25
898.524	50.23
898.898	50.2
899.271	50.23
899.645	50.23
900.018	50.2
900.392	50.21
900.765	50.21
901.138	50.19
901.511	50.17
901.884	50.19
902.258	50.18
902.631	50.19
903.003	50.2
903.376	50.16
903.749	50.17
904.122	50.17
904.495	50.15
904.867	50.1
905.24	50.12
905.612	50.08
905.985	50.05
906.357	50.03
906.729	49.99
907.102	49.98
907.474	50
907.846	49.96
908.218	49.96
908.59	49.94
908.962	49.95
909.334	49.96
909.705	49.96
910.077	49.97
910.449	49.99
910.82	50.03
911.192	50.03
911.563	50
911.935	49.98
912.306	49.97
912.677	49.99
913.048	49.99
913.419	49.94
913.79	49.94
914.161	49.94
914.532	49.92
914.903	49.91
915.274	49.89
915.645	49.92
916.015	49.96
916.386	49.92
916.756	49.88
917.127	49.89
917.497	49.91
917.868	49.92
918.238	49.91
918.608	49.92
918.978	49.92
919.348	49.88
919.718	49.86
920.088	49.87
920.458	49.93
920.828	49.97
921.198	49.93
921.567	49.96
921.937	49.97
922.306	49.97
922.676	49.99
923.045	49.97
923.415	50
923.784	50
924.153	49.98
924.522	49.97
924.891	49.97
925.26	49.98
925.629	49.96
925.998	49.9
926.367	49.91
926.736	49.86
927.104	49.88
927.473	49.88
927.842	49.87
928.21	49.9
928.578	49.89
928.947	49.86
929.315	49.87
929.683	49.88
930.051	49.9
930.42	49.86
930.788	49.83
931.156	49.74
931.523	49.7
931.891	49.61
932.259	49.5
932.627	49.4
932.994	49.35
933.362	49.21
933.729	49.09
934.097	48.99
934.464	48.91
934.831	48.82
935.199	48.75
935.566	48.72
935.933	48.75
936.3	48.71
936.667	48.67
937.034	48.55
937.401	48.53
937.767	48.54
938.134	48.5
938.501	48.46
938.867	48.53
939.234	48.62
939.6	48.53
939.967	48.49
940.333	48.57
940.699	48.69
941.065	48.87
941.431	48.97
941.798	49
942.163	49.14
942.529	49.27
942.895	49.27
943.261	49.28
943.627	49.45
943.992	49.51
944.358	49.53
944.723	49.46
945.089	49.46
945.454	49.5
945.82	49.55
946.185	49.57
946.55	49.67
946.915	49.8
947.28	49.81
947.645	49.81
948.01	49.77
948.375	49.8
948.74	49.85
949.104	49.89
949.469	49.83
949.834	49.76
950.198	49.69
950.562	49.55
950.927	49.46
951.291	49.4
951.655	49.33
952.02	49.22
952.384	49.3
952.748	49.26
953.112	49.21
953.476	49.2
953.839	49.14
954.203	49.08
954.567	49.11
954.931	49.1
955.294	49.1
955.658	49.04
956.021	49.14
956.385	49.01
956.748	48.99
957.111	48.9
957.474	48.96
957.837	49.04
958.2	49.03
958.563	49
958.926	49
959.289	48.98
959.652	49.06
960.015	49.02
960.377	49
960.74	48.94
961.102	48.93
961.465	48.88
961.827	48.74
962.189	48.69
962.552	48.6
962.914	48.51
963.276	48.49
963.638	48.4
964	48.29
964.362	48.28
964.724	48.32
965.085	48.34
965.447	48.28
965.809	48.21
966.17	48.26
966.532	48.35
966.893	48.36
967.255	48.31
967.616	48.3
967.977	48.38
968.338	48.31
968.699	48.26
969.061	48.23
969.421	48.2
969.782	48.31
970.143	48.24
970.504	48.17
970.865	48.08
971.225	48.1
971.586	48.16
971.946	48.11
972.307	48.1
972.667	48.15
973.027	48.17
973.388	48.12
973.748	48.07
974.108	48.06
974.468	48.05
974.828	48.08
975.188	48.09
975.548	48
975.907	47.98
976.267	48
976.627	47.99
976.986	47.97
977.346	48.03
977.705	48.08
978.064	48.11
978.424	48.16
978.783	48.17
979.142	48.18
979.501	48.16
979.86	48.17
980.219	48.07
980.578	48.02
980.937	48.04
981.296	48.07
981.654	48.02
982.013	48.07
982.371	47.97
982.73	47.92
983.088	47.7
983.447	47.82
983.805	47.81
984.163	47.86
984.521	47.81
984.879	47.81
985.237	47.73
985.595	47.81
985.953	47.82
986.311	47.86
986.669	47.93
987.026	48.14
987.384	48.01
987.741	48.06
988.099	48.13
988.456	48.1
988.814	48.04
989.171	48.11
989.528	48.05
989.885	47.93
990.242	48.01
990.599	47.94
990.956	47.94
991.313	48.07
991.67	48.16
992.027	48.06
992.383	48.16
992.74	48.24
993.096	48.19
993.453	48.18
993.809	48.28
994.165	48.23
994.522	48.27
994.878	48.22
995.234	48.12
995.59	47.94
995.946	48.02
996.302	47.91
996.658	47.84
997.013	47.89
997.369	47.76
997.725	47.7
998.08	47.69
998.436	47.85
998.791	47.75
999.147	47.67
999.502	47.65
999.857	47.62
1000.212	47.71
1000.567	47.81
1000.922	47.8
1001.277	47.96
1001.632	47.98
1001.987	47.9
1002.342	47.83
1002.696	47.92
1003.051	47.89
1003.406	47.95
1003.76	47.98
1004.114	47.87
1004.469	47.77
1004.823	47.75
1005.177	47.75
1005.531	47.7
1005.885	47.72
1006.239	47.62
1006.593	47.75
1006.947	47.82
1007.301	47.85
1007.655	47.85
1008.008	47.86
1008.362	47.65
1008.715	47.57
1009.069	47.52
1009.422	47.43
1009.776	47.48
1010.129	47.38
1010.482	47.35
1010.835	47.35
1011.188	47.18
1011.541	47.14
1011.894	47.21
1012.247	47.3
1012.6	47.24
1012.952	47.16
1013.305	47.33
1013.657	47.46
1014.01	47.69
1014.362	47.64
1014.715	47.5
1015.067	47.83
1015.419	47.93
1015.771	48.09
1016.123	48.08
1016.475	48.33
1016.827	48.45
1017.179	48.44
1017.531	48.44
1017.883	48.41
1018.234	48.45
1018.586	48.63
1018.938	48.31
1019.289	47.91
1019.64	48
1019.992	48.36
1020.343	48.26
1020.694	48.45
1021.045	48.41
1021.396	48.44
1021.747	48.22
1022.098	48.2
1022.449	48.11
1022.8	48.32
1023.151	48.63
1023.501	48.44
1023.852	48.42
1024.202	48.51
1024.553	48.41
1024.903	48.5
1025.253	48.18
1025.604	48.57
1025.954	48.59
1026.304	49.33
1026.654	49.37
1027.004	49.55
1027.354	49.64
1027.703	49.38
1028.053	49.07
1028.403	48.74
1028.753	48.91
1029.102	48.97
1029.452	48.62
1029.801	48.43
1030.15	47.75
1030.499	47.65
897.758	548.79
901.051	565.54
904.343	571.16
907.636	558.28
910.928	549.24
914.22	556.94
917.511	546.99
920.803	526.82
924.094	505.55
927.384	507.04
930.675	496.75
933.965	493.33
937.255	487.86
940.544	465.48
943.834	449.85
947.123	443.49
950.411	420.66
953.7	413.73
956.988	399.7
960.276	383.2
963.563	378.39
966.851	356.67
970.138	349.79
973.424	327.47
976.711	322.08
979.997	309.9
983.283	303.2
986.568	294.12
989.853	285.21
993.138	274.38
996.423	271.37
999.708	264.25
1002.992	265.44
1006.275	255.63
1009.559	254.71
1012.842	248.95
1016.125	241.98
1019.408	237.31
1022.69	235.58
1025.972	232.67
1029.254	228.16
1032.536	223.32
1035.817	215.48
1039.098	212.19
1042.379	209.83
1045.659	206.49
1048.939	204.4
1052.219	200.04
1055.498	196.99
1058.778	193.05
1062.057	191.03
1065.335	188.91
1068.614	186.01
1071.892	184.1
1075.17	180.02
1078.447	178.36
1081.724	176.16
1085.001	171.08
1088.278	172.53
1091.554	170.65
1094.83	168.97
1098.106	166.66
1101.382	165.81
1104.657	165.45
1107.932	164.22
1111.206	163.1
1114.481	161.03
1117.755	160.01
1121.029	160.93
1124.302	157.47
1127.575	154.96
1130.848	155.08
1134.121	153.21
1137.393	152.64
1140.665	151.97
1143.937	150.43
1147.208	148.55
1150.48	147.05
1153.75	146.34
1157.021	144.42
1160.291	143.95
1163.561	143.93
1166.831	143.27
1170.101	142.29
1173.37	141.48
1176.639	139.64
1179.907	139.86
1183.176	139.44
1186.444	139.94
1189.711	138.7
1192.979	140.4
1196.246	139.83
1199.513	139.57
1202.78	138.88
1206.046	138.81
1209.312	140.53
1212.578	141.41
1215.843	143.09
1219.108	144.04
1222.373	145.61
1225.638	148.62
1228.902	150.93
1232.166	156.74
1235.43	158.53
1238.693	162.38
1241.956	166.3
1245.219	169.63
1248.482	169.95
1251.744	169.82
1255.006	170.31
1258.268	166.91
1261.529	165.13
1264.79	161.62
1268.051	156.61
1271.312	156.55
1274.572	153.58
1277.832	150.15
1281.092	147.33
1284.351	145.2
1287.61	144.81
1290.869	144.85
1294.128	144.26
1297.386	143.1
1300.644	141.93
1303.902	142.29
1307.159	139.94
1310.416	141.09
1313.673	142.79
1316.93	145.36
1320.186	146.81
1323.442	148.11
1326.697	149.85
1329.953	151.9
1333.208	157.25
1336.463	164.36
1339.717	166.8
1342.972	177.05
1346.226	181.18
1349.479	182.61
1352.733	188.52
1355.986	193.54
1359.238	197.92
1362.491	200.38
1365.743	207.06
1368.995	208.67
1372.247	210.02
1375.498	209.69
1378.749	215.37
1382	215.9
1385.251	214.55
1388.501	215.13
1391.751	217.29
1395	215.63
1398.25	217.8
1401.499	215.02
1404.748	214.24
1407.996	206.92
1411.244	207.8
1414.492	203.07
1417.74	198.34
1420.987	193.15
1424.234	188.87
1427.481	181.49
1430.728	177.02
1433.974	170.34
1437.22	166.54
1440.465	160.55
1443.711	155.98
1446.956	150.79
1450.201	145.8
1453.445	138.69
1456.689	136.09
1459.933	130.99
1463.177	126.32
1466.42	123.44
1469.663	120.04
1472.906	116.06
1476.148	113.02
1479.391	111.12
1482.633	109.02
1485.874	107.22
1489.115	106.61
1492.356	104.51
1495.597	102.96
1498.838	103.1
1502.078	102.23
1505.318	101.72
1508.557	101.29
1511.797	100.28
1515.036	99.81
1518.274	99.69
1521.513	98.37
1524.751	97.86
1527.989	98.73
1531.227	98.3
1534.464	97.65
1537.701	96.79
1540.938	96.54
1544.174	96.01
1547.41	96.57
1550.646	96.26
1553.882	95.99
1557.117	95.52
1560.352	94.7
1563.587	94.06
1566.821	94.24
1570.055	93.84
1573.289	93.6
1576.523	93.57
1579.756	93.5
1582.989	93.36
1586.222	93.42
1589.454	93.46
1592.686	93.83
1595.918	94.17
1599.15	93.87
1602.381	94.2
1605.612	94.26
1608.843	94.52
1612.073	94.38
1615.303	94.89
1618.533	94.67
1621.762	94.27
1624.992	94.42
1628.221	93.82
1631.449	94.3
1634.678	94.65
1637.906	94.36
1641.134	94.33
1644.361	94.25
1647.588	95.42
1650.815	95.31
1654.042	95.16
1657.269	95.2
1660.495	95.59
1663.72	95.72
1666.946	95.69
1670.171	95.9
1673.396	96.36
1676.621	96.71
1679.845	97.66
1683.069	96.25
1686.293	96.44
1689.517	96.89
1692.74	97.16
1695.963	96.88
1699.185	97.61
1702.408	97.37
1705.63	97.17
1708.852	97.93
1712.073	97.55
1715.294	97.04
1718.515	98.14
1721.736	97.93
1724.956	98.11
1728.176	98
1731.396	98.48
1734.616	98.32
1737.835	98.77
1741.054	98.88
1744.272	98.46
1747.491	98.42
1750.709	99.36
1753.927	99.43
1757.144	100.12
1760.361	99.98
1763.578	100.91
1766.795	101.2
1770.011	101.46
1773.227	101.77
1776.443	102.65
1779.658	102.46
1782.874	104.04
1786.089	102.98
1789.303	103.03
1792.518	103.41
1795.732	104.28
1798.945	104.76
1802.159	104.73
1805.372	106.05
1808.585	107.13
1811.797	107.73
1815.01	108.53
1818.222	108.36
1821.434	110.43
1824.645	110.93
1827.856	112.95
1831.067	113.68
1834.278	114.47
1837.488	115.56
1840.698	116.85
1843.908	116.55
1847.117	117.82
1850.326	119.09
1853.535	120.22
1856.744	121.02
1859.952	123.15
1863.16	122.37
1866.368	121.54
1869.575	122.74
1872.782	122.81
1875.989	121.93
1879.196	121.23
1882.402	120.1
1885.608	120.4
1888.814	120.01
1892.019	120.66
1895.224	118.54
1898.429	117.87
1901.634	118.87
1904.838	119.44
1908.042	120
1911.246	118.09
1914.449	119.28
1917.652	119.4
1920.855	119.48
1924.058	118.59
1927.26	117.68
1930.462	118.29
1933.664	119.2
1936.865	119.94
1940.066	116.76
1943.267	115.84
1946.467	118.02
1949.668	118.08
1952.868	118.19
1956.067	117.94
1959.267	119.06
1962.466	119.55
1965.665	121.32
1968.863	121.37
1972.061	122.83
1975.259	125.97
1978.457	127.9
1981.654	128.35
1984.852	129.17
1988.048	131.01
1991.245	132.32
1994.441	135.18
1997.637	137.48
2000.833	139.48
2004.028	142.08
2007.223	143.17
2010.418	146.09
2013.613	152.36
2016.807	156.87
2020.001	159.61
2023.194	163.94
2026.388	170.95
2029.581	178.11
2032.774	184.77
2035.966	189.56
2039.158	194.06
2042.35	197.99
2045.542	202.34
2048.733	209.61
2051.924	210.69
2055.115	215.72
2058.306	218.17
2061.496	220.48
2064.686	223.08
2067.875	219.9
2071.065	223.32
2074.254	223.13
2077.442	230.41
2080.631	232.09
2083.819	231.59
2087.007	238.32
2090.195	241.76
2093.382	241.63
2096.569	243.15
2099.756	243.58
2102.942	249.36
2106.128	253.5
2109.314	256.22
2112.5	255.94
2115.685	253.68
2118.87	255.22
2122.055	254.64
2125.239	258.95
2128.424	265.44
2131.608	264.76
2134.791	266.49
2137.974	267.35
2141.157	270.38
2144.34	272.45
2147.523	277.46
2150.705	285.83
2153.887	280.89
2157.068	284.16
2160.25	287.52
2163.431	287.54
2166.611	288.58
2169.792	292.86
2172.972	298.19
2176.152	297.55
2179.331	304.19
2182.511	305.25
2185.69	308.03
2188.868	320.9
2192.047	330.23
2195.225	332.76
2198.403	336.08
2201.58	338.03
2204.758	351.71
2207.935	351.09
2211.111	360.76
2214.288	362.49
2217.464	365.06
2220.64	367.28
2223.815	368.97
2226.991	362.01
2230.166	366.04
2233.34	376.23
2236.515	383.25
2239.689	373.62
2242.863	382.44
2246.036	377.26
2249.209	386.68
2252.382	385.3
2255.555	399.86
2258.727	402.85
2261.9	413.95
2265.071	419.1
2268.243	415.74
2271.414	426.72
2274.585	440.14
2277.756	438.84
2280.926	457.51
2284.096	459.25
2287.266	463.9
2290.436	452.23
2293.605	462.01
2296.774	480.02
2299.942	483.53
2303.111	495.99
2306.279	509.44
2309.447	509.79
2312.614	512.1
2315.781	522.09
2318.948	524.82
2322.115	535.08
2325.281	567.52
2328.447	558.7
2331.613	563.66
2334.779	566.82
2337.944	577.99
2341.109	586.91
2344.274	590.48
2347.438	605.68
2350.602	610.19
2353.766	655.23
2356.929	653.67
2360.092	659.26
2363.255	669.53
2366.418	671.85
2369.58	687.19
2372.742	689.61
2375.904	685.43
2379.066	705.35
2382.227	738.78
2385.388	743.52
2388.548	698.51
2391.709	697.45
2394.869	723
2398.029	724.2
2401.188	725.33
2404.347	745.32
2407.506	765.04
2410.665	743.36
2413.823	742.74
2416.981	751.82
2420.139	713.47
2423.296	772.8
2426.453	819.06
2429.61	779.73
2432.767	831.02
2435.923	859.82
2439.079	839.55
2442.235	858.94
2445.391	873.72
2448.546	869.06
2451.701	916.06
2454.855	977.77
2458.009	869.62
2461.163	885.92
2464.317	897.7
2467.471	874.12
2470.624	906.72
2473.777	882.59
2476.929	857.59
2480.082	913.04
2483.234	958.66
2486.385	976.11
2489.537	998.78
2492.688	1092.66
2495.839	1077.93
2498.989	1104.06
2502.14	1116.05
2505.29	1064.41
2508.439	1177.13
2511.589	1199.84
2514.738	1170.37
2517.887	1161.85
2521.035	1085.31
2524.183	1069.47
2527.331	1062.23
2530.479	1034.43
2533.627	1055.96
