Data from c_3_dec_nc_4n_Splice17_12.txt Node
Date: Sat Feb 29 14:49:17 EST 2020
User: sa697716
Spectrometer: FLMS03696
Trigger mode: 0
Integration Time (sec): 3.180400E-1
Scans to average: 20
Electric dark correction enabled: true
Nonlinearity correction enabled: true
Boxcar width: 5
XAxis mode: Wavelengths
Number of Pixels in Spectrum: 2048
>>>>>Begin Spectral Data<<<<<
187.83	112.75
188.298	121.03
188.766	110.73
189.233	104.78
189.701	104.78
190.169	106.84
190.636	113.22
191.104	118.63
191.571	398.63
192.039	378.1
192.506	-451.76
192.974	2250.98
193.441	-447.72
193.908	82.43
194.375	169.05
194.842	194.01
195.31	103.51
195.777	90.37
196.244	53.77
196.711	44.07
197.177	38.92
197.644	38.77
198.111	37.99
198.578	37.82
199.045	39.29
199.511	39.06
199.978	40.22
200.445	40.78
200.911	40.98
201.378	40.87
201.844	41.15
202.31	41.97
202.777	41.85
203.243	42.49
203.709	42.71
204.176	42.53
204.642	42.87
205.108	42.57
205.574	42.79
206.04	42.84
206.506	42.55
206.972	42.44
207.438	42.1
207.903	42.37
208.369	41.61
208.835	41.38
209.301	41.06
209.766	40.28
210.232	39.49
210.697	38.87
211.163	38.27
211.628	37.76
212.094	37.38
212.559	36.84
213.024	36.09
213.49	35.58
213.955	35.07
214.42	34.36
214.885	33.59
215.35	32.84
215.815	31.5
216.28	30.23
216.745	29.03
217.21	27.47
217.675	26.24
218.14	24.78
218.604	23.53
219.069	22.36
219.534	21.33
219.998	20.55
220.463	19.92
220.927	19.36
221.392	18.87
221.856	18.41
222.32	18.05
222.785	17.7
223.249	17.49
223.713	17.29
224.177	17.01
224.642	16.85
225.106	16.65
225.57	16.42
226.034	16.23
226.497	16.03
226.961	15.81
227.425	15.6
227.889	15.42
228.353	15.22
228.816	15.01
229.28	14.84
229.744	14.66
230.207	14.53
230.671	14.37
231.134	14.2
231.597	14.03
232.061	13.9
232.524	13.76
232.987	13.6
233.45	13.48
233.914	13.35
234.377	13.24
234.84	13.13
235.303	12.98
235.766	12.87
236.229	12.77
236.691	12.69
237.154	12.59
237.617	12.5
238.08	12.4
238.542	12.3
239.005	12.19
239.468	12.09
239.93	11.99
240.393	11.9
240.855	11.8
241.317	11.71
241.78	11.62
242.242	11.53
242.704	11.44
243.166	11.37
243.629	11.28
244.091	11.2
244.553	11.14
245.015	11.06
245.477	10.99
245.939	10.92
246.4	10.83
246.862	10.77
247.324	10.71
247.786	10.65
248.247	10.58
248.709	10.52
249.17	10.47
249.632	10.41
250.093	10.35
250.555	10.3
251.016	10.26
251.477	10.21
251.939	10.17
252.4	10.11
252.861	10.07
253.322	10.02
253.783	10.01
254.244	9.97
254.705	9.93
255.166	9.91
255.627	9.86
256.088	9.82
256.549	9.81
257.009	9.77
257.47	9.74
257.931	9.7
258.391	9.67
258.852	9.63
259.312	9.58
259.773	9.54
260.233	9.5
260.694	9.47
261.154	9.43
261.614	9.38
262.074	9.36
262.534	9.31
262.994	9.28
263.455	9.26
263.915	9.22
264.374	9.2
264.834	9.18
265.294	9.16
265.754	9.13
266.214	9.11
266.673	9.09
267.133	9.07
267.593	9.06
268.052	9.05
268.512	9.03
268.971	9.02
269.431	9
269.89	8.98
270.349	8.96
270.809	8.95
271.268	8.94
271.727	8.92
272.186	8.9
272.645	8.88
273.104	8.86
273.563	8.85
274.022	8.83
274.481	8.82
274.94	8.8
275.399	8.79
275.857	8.77
276.316	8.75
276.775	8.73
277.233	8.71
277.692	8.69
278.15	8.67
278.609	8.64
279.067	8.62
279.525	8.59
279.984	8.58
280.442	8.57
280.9	8.55
281.358	8.53
281.816	8.52
282.274	8.5
282.732	8.49
283.19	8.47
283.648	8.46
284.106	8.45
284.564	8.44
285.021	8.42
285.479	8.41
285.937	8.4
286.394	8.39
286.852	8.39
287.309	8.38
287.767	8.36
288.224	8.35
288.682	8.34
289.139	8.34
289.596	8.32
290.053	8.3
290.511	8.28
290.968	8.26
291.425	8.23
291.882	8.21
292.339	8.19
292.796	8.17
293.252	8.15
293.709	8.13
294.166	8.1
294.623	8.08
295.079	8.06
295.536	8.04
295.992	8.02
296.449	8.01
296.905	7.98
297.362	7.97
297.818	7.96
298.274	7.94
298.731	7.91
299.187	7.9
299.643	7.89
300.099	7.88
300.555	7.86
301.011	7.85
301.467	7.82
301.923	7.81
302.379	7.79
302.835	7.78
303.291	7.77
303.746	7.76
304.202	7.75
304.658	7.73
305.113	7.72
305.569	7.71
306.024	7.7
306.479	7.68
306.935	7.68
307.39	7.67
307.845	7.66
308.301	7.65
308.756	7.64
309.211	7.63
309.666	7.62
310.121	7.61
310.576	7.6
311.031	7.59
311.486	7.59
311.94	7.58
312.395	7.57
312.85	7.56
313.305	7.56
313.759	7.55
314.214	7.54
314.668	7.53
315.123	7.54
315.577	7.53
316.032	7.53
316.486	7.53
316.94	7.53
317.394	7.52
317.849	7.51
318.303	7.52
318.757	7.5
319.211	7.49
319.665	7.48
320.119	7.47
320.572	7.46
321.026	7.45
321.48	7.43
321.934	7.41
322.387	7.39
322.841	7.38
323.295	7.35
323.748	7.34
324.202	7.33
324.655	7.31
325.108	7.29
325.562	7.27
326.015	7.25
326.468	7.23
326.921	7.21
327.374	7.21
327.827	7.19
328.28	7.19
328.733	7.17
329.186	7.16
329.639	7.14
330.092	7.14
330.545	7.13
330.997	7.13
331.45	7.12
331.903	7.12
332.355	7.11
332.808	7.1
333.26	7.1
333.713	7.1
334.165	7.09
334.617	7.1
335.069	7.1
335.522	7.11
335.974	7.11
336.426	7.11
336.878	7.09
337.33	7.09
337.782	7.09
338.234	7.09
338.686	7.1
339.137	7.1
339.589	7.09
340.041	7.08
340.493	7.06
340.944	7.06
341.396	7.05
341.847	7.04
342.299	7.02
342.75	7
343.201	6.98
343.653	6.96
344.104	6.93
344.555	6.92
345.006	6.9
345.457	6.88
345.908	6.85
346.359	6.84
346.81	6.83
347.261	6.82
347.712	6.82
348.163	6.81
348.613	6.79
349.064	6.77
349.515	6.75
349.965	6.75
350.416	6.75
350.866	6.76
351.317	6.74
351.767	6.74
352.217	6.73
352.668	6.73
353.118	6.72
353.568	6.72
354.018	6.73
354.468	6.74
354.918	6.73
355.368	6.73
355.818	6.73
356.268	6.73
356.718	6.73
357.168	6.73
357.617	6.72
358.067	6.72
358.517	6.72
358.966	6.74
359.416	6.75
359.865	6.76
360.315	6.76
360.764	6.77
361.213	6.77
361.663	6.78
362.112	6.81
362.561	6.83
363.01	6.85
363.459	6.86
363.908	6.86
364.357	6.88
364.806	6.89
365.255	6.92
365.703	6.92
366.152	6.93
366.601	6.95
367.05	6.96
367.498	6.98
367.947	6.99
368.395	7.02
368.844	7.03
369.292	7.04
369.74	7.07
370.189	7.07
370.637	7.12
371.085	7.14
371.533	7.15
371.981	7.17
372.429	7.18
372.877	7.21
373.325	7.23
373.773	7.26
374.221	7.29
374.669	7.3
375.116	7.32
375.564	7.33
376.012	7.34
376.459	7.37
376.907	7.4
377.354	7.44
377.801	7.46
378.249	7.5
378.696	7.54
379.143	7.56
379.591	7.58
380.038	7.62
380.485	7.66
380.932	7.71
381.379	7.73
381.826	7.77
382.273	7.8
382.72	7.84
383.166	7.87
383.613	7.89
384.06	7.92
384.506	7.97
384.953	8
385.4	8.03
385.846	8.05
386.292	8.09
386.739	8.1
387.185	8.14
387.631	8.16
388.078	8.19
388.524	8.21
388.97	8.24
389.416	8.25
389.862	8.26
390.308	8.29
390.754	8.32
391.2	8.35
391.645	8.39
392.091	8.4
392.537	8.43
392.983	8.46
393.428	8.5
393.874	8.52
394.319	8.55
394.765	8.57
395.21	8.58
395.655	8.6
396.101	8.6
396.546	8.61
396.991	8.62
397.436	8.61
397.881	8.6
398.326	8.6
398.771	8.61
399.216	8.64
399.661	8.65
400.106	8.68
400.551	8.68
400.995	8.68
401.44	8.67
401.885	8.66
402.329	8.66
402.774	8.64
403.218	8.62
403.663	8.61
404.107	8.61
404.551	8.61
404.995	8.59
405.44	8.56
405.884	8.56
406.328	8.55
406.772	8.57
407.216	8.57
407.66	8.59
408.104	8.61
408.547	8.61
408.991	8.59
409.435	8.58
409.879	8.57
410.322	8.58
410.766	8.59
411.209	8.6
411.653	8.58
412.096	8.57
412.54	8.56
412.983	8.53
413.426	8.53
413.869	8.54
414.312	8.54
414.756	8.55
415.199	8.54
415.642	8.54
416.085	8.55
416.527	8.56
416.97	8.59
417.413	8.6
417.856	8.59
418.298	8.57
418.741	8.56
419.184	8.55
419.626	8.54
420.069	8.52
420.511	8.51
420.953	8.48
421.396	8.47
421.838	8.45
422.28	8.45
422.722	8.46
423.164	8.47
423.606	8.47
424.048	8.46
424.49	8.45
424.932	8.45
425.374	8.46
425.816	8.45
426.258	8.44
426.699	8.41
427.141	8.36
427.582	8.35
428.024	8.35
428.465	8.35
428.907	8.35
429.348	8.34
429.789	8.33
430.231	8.31
430.672	8.3
431.113	8.3
431.554	8.31
431.995	8.32
432.436	8.32
432.877	8.31
433.318	8.29
433.759	8.26
434.2	8.27
434.64	8.27
435.081	8.24
435.522	8.25
435.962	8.25
436.403	8.27
436.843	8.27
437.284	8.27
437.724	8.28
438.164	8.28
438.604	8.31
439.045	8.31
439.485	8.3
439.925	8.31
440.365	8.32
440.805	8.31
441.245	8.29
441.685	8.3
442.125	8.29
442.564	8.3
443.004	8.31
443.444	8.31
443.883	8.32
444.323	8.32
444.762	8.36
445.202	8.39
445.641	8.41
446.081	8.43
446.52	8.42
446.959	8.43
447.398	8.46
447.837	8.49
448.276	8.5
448.716	8.51
449.154	8.56
449.593	8.56
450.032	8.57
450.471	8.58
450.91	8.58
451.349	8.6
451.787	8.61
452.226	8.6
452.664	8.56
453.103	8.55
453.541	8.55
453.98	8.53
454.418	8.5
454.856	8.45
455.295	8.42
455.733	8.4
456.171	8.38
456.609	8.35
457.047	8.33
457.485	8.34
457.923	8.33
458.361	8.3
458.798	8.3
459.236	8.3
459.674	8.31
460.111	8.31
460.549	8.29
460.987	8.28
461.424	8.27
461.862	8.27
462.299	8.24
462.736	8.23
463.173	8.22
463.611	8.2
464.048	8.18
464.485	8.15
464.922	8.15
465.359	8.15
465.796	8.13
466.233	8.15
466.67	8.15
467.106	8.15
467.543	8.16
467.98	8.16
468.416	8.18
468.853	8.19
469.29	8.19
469.726	8.2
470.162	8.2
470.599	8.22
471.035	8.21
471.471	8.21
471.907	8.22
472.344	8.21
472.78	8.2
473.216	8.18
473.652	8.19
474.088	8.22
474.523	8.22
474.959	8.23
475.395	8.23
475.831	8.23
476.266	8.23
476.702	8.21
477.138	8.22
477.573	8.22
478.008	8.22
478.444	8.2
478.879	8.2
479.314	8.18
479.75	8.17
480.185	8.16
480.62	8.17
481.055	8.17
481.49	8.16
481.925	8.15
482.36	8.15
482.795	8.12
483.229	8.14
483.664	8.13
484.099	8.14
484.534	8.13
484.968	8.14
485.403	8.14
485.837	8.14
486.271	8.14
486.706	8.14
487.14	8.17
487.574	8.19
488.009	8.2
488.443	8.2
488.877	8.22
489.311	8.24
489.745	8.27
490.179	8.29
490.613	8.32
491.046	8.36
491.48	8.41
491.914	8.44
492.348	8.48
492.781	8.52
493.215	8.57
493.648	8.61
494.082	8.67
494.515	8.72
494.948	8.79
495.382	8.84
495.815	8.9
496.248	8.96
496.681	9.02
497.114	9.08
497.547	9.16
497.98	9.24
498.413	9.31
498.846	9.4
499.279	9.48
499.711	9.56
500.144	9.66
500.577	9.76
501.009	9.87
501.442	9.99
501.874	10.11
502.306	10.23
502.739	10.36
503.171	10.5
503.603	10.64
504.036	10.79
504.468	10.96
504.9	11.15
505.332	11.3
505.764	11.49
506.196	11.67
506.627	11.85
507.059	12.05
507.491	12.25
507.923	12.46
508.354	12.68
508.786	12.91
509.217	13.15
509.649	13.36
510.08	13.63
510.512	13.85
510.943	14.12
511.374	14.4
511.805	14.66
512.237	14.95
512.668	15.22
513.099	15.51
513.53	15.79
513.961	16.07
514.391	16.35
514.822	16.64
515.253	16.94
515.684	17.23
516.114	17.54
516.545	17.85
516.975	18.14
517.406	18.44
517.836	18.74
518.267	19.04
518.697	19.35
519.127	19.67
519.558	19.98
519.988	20.29
520.418	20.58
520.848	20.85
521.278	21.14
521.708	21.3
522.138	21.56
522.567	21.83
522.997	22.11
523.427	22.37
523.857	22.62
524.286	22.86
524.716	23.09
525.145	23.34
525.575	23.56
526.004	23.77
526.433	24.12
526.863	24.35
527.292	24.55
527.721	24.76
528.15	24.93
528.579	25.13
529.008	25.31
529.437	25.49
529.866	25.66
530.295	25.83
530.724	26.01
531.152	26.16
531.581	26.29
532.01	26.43
532.438	26.56
532.867	26.68
533.295	26.78
533.723	26.88
534.152	26.98
534.58	27.06
535.008	27.11
535.436	27.17
535.865	27.22
536.293	27.28
536.721	27.33
537.149	27.37
537.576	27.41
538.004	27.45
538.432	27.48
538.86	27.52
539.287	27.57
539.715	27.61
540.143	27.65
540.57	27.69
540.998	27.72
541.425	27.77
541.852	27.8
542.28	27.83
542.707	27.87
543.134	27.91
543.561	27.92
543.988	27.94
544.415	27.98
544.842	28.02
545.269	28.06
545.696	28.08
546.123	28.1
546.549	28.13
546.976	28.15
547.403	28.18
547.829	28.2
548.256	28.23
548.682	28.24
549.108	28.28
549.535	28.28
549.961	28.3
550.387	28.29
550.813	28.27
551.24	28.27
551.666	28.3
552.092	28.31
552.518	28.3
552.943	28.31
553.369	28.29
553.795	28.26
554.221	28.25
554.646	28.2
555.072	28.2
555.498	28.19
555.923	28.17
556.349	28.1
556.774	28.04
557.199	28
557.625	27.91
558.05	27.84
558.475	27.77
558.9	27.69
559.325	27.63
559.75	27.53
560.175	27.43
560.6	27.3
561.025	27.2
561.449	27.07
561.874	26.94
562.299	26.83
562.723	26.73
563.148	26.59
563.572	26.46
563.997	26.32
564.421	26.16
564.846	26.02
565.27	25.87
565.694	25.71
566.118	25.56
566.542	25.39
566.966	25.22
567.39	25.02
567.814	24.85
568.238	24.67
568.662	24.49
569.086	24.33
569.509	24.16
569.933	23.97
570.357	23.79
570.78	23.61
571.204	23.45
571.627	23.28
572.05	23.13
572.474	22.97
572.897	22.82
573.32	22.65
573.743	22.5
574.166	22.37
574.589	22.24
575.012	22.11
575.435	21.99
575.858	21.87
576.281	21.76
576.704	21.63
577.126	21.52
577.549	21.42
577.972	21.32
578.394	21.21
578.817	21.1
579.239	21
579.661	20.93
580.084	20.84
580.506	20.73
580.928	20.64
581.35	20.57
581.772	20.5
582.194	20.41
582.616	20.35
583.038	20.29
583.46	20.21
583.882	20.13
584.303	20.06
584.725	19.99
585.147	19.91
585.568	19.83
585.99	19.76
586.411	19.68
586.833	19.61
587.254	19.54
587.675	19.46
588.096	19.41
588.518	19.34
588.939	19.27
589.36	19.21
589.781	19.18
590.202	19.12
590.623	19.08
591.043	19.03
591.464	18.98
591.885	18.93
592.305	18.9
592.726	18.84
593.147	18.79
593.567	18.76
593.987	18.73
594.408	18.66
594.828	18.63
595.248	18.59
595.669	18.53
596.089	18.5
596.509	18.45
596.929	18.4
597.349	18.36
597.769	18.32
598.189	18.28
598.608	18.22
599.028	18.17
599.448	18.13
599.867	18.08
600.287	18.05
600.706	17.99
601.126	17.94
601.545	17.87
601.965	17.82
602.384	17.76
602.803	17.7
603.222	17.64
603.641	17.61
604.061	17.54
604.48	17.48
604.898	17.4
605.317	17.34
605.736	17.29
606.155	17.22
606.574	17.15
606.992	17.08
607.411	17.02
607.829	16.93
608.248	16.84
608.666	16.77
609.085	16.71
609.503	16.64
609.921	16.56
610.339	16.48
610.758	16.42
611.176	16.37
611.594	16.3
612.012	16.22
612.43	16.18
612.847	16.12
613.265	16.06
613.683	15.97
614.101	15.91
614.518	15.84
614.936	15.78
615.353	15.71
615.771	15.63
616.188	15.57
616.606	15.52
617.023	15.46
617.44	15.39
617.857	15.32
618.274	15.27
618.691	15.22
619.108	15.17
619.525	15.12
619.942	15.08
620.359	15.04
620.776	14.99
621.192	14.94
621.609	14.92
622.026	14.88
622.442	14.85
622.859	14.82
623.275	14.81
623.691	14.8
624.108	14.78
624.524	14.77
624.94	14.74
625.356	14.73
625.772	14.74
626.188	14.74
626.604	14.72
627.02	14.71
627.436	14.69
627.852	14.66
628.268	14.64
628.683	14.63
629.099	14.6
629.514	14.58
629.93	14.56
630.345	14.5
630.761	14.45
631.176	14.41
631.591	14.36
632.007	14.31
632.422	14.25
632.837	14.2
633.252	14.13
633.667	14.04
634.082	13.94
634.497	13.84
634.911	13.74
635.326	13.63
635.741	13.51
636.155	13.39
636.57	13.27
636.984	13.13
637.399	12.97
637.813	12.81
638.228	12.67
638.642	12.54
639.056	12.41
639.47	12.27
639.884	12.13
640.298	12
640.712	11.84
641.126	11.71
641.54	11.56
641.954	11.45
642.368	11.33
642.781	11.22
643.195	11.08
643.609	10.95
644.022	10.84
644.436	10.73
644.849	10.61
645.262	10.52
645.676	10.42
646.089	10.34
646.502	10.25
646.915	10.17
647.328	10.09
647.741	10.04
648.154	9.97
648.567	9.92
648.98	9.88
649.393	9.85
649.805	9.81
650.218	9.78
650.631	9.75
651.043	9.73
651.456	9.71
651.868	9.67
652.28	9.63
652.693	9.6
653.105	9.56
653.517	9.52
653.929	9.49
654.341	9.46
654.753	9.41
655.165	9.38
655.577	9.31
655.989	9.25
656.401	9.2
656.813	9.16
657.224	9.11
657.636	9.06
658.047	9
658.459	8.93
658.87	8.84
659.282	8.79
659.693	8.71
660.104	8.66
660.515	8.61
660.926	8.55
661.338	8.5
661.749	8.43
662.159	8.37
662.57	8.32
662.981	8.29
663.392	8.25
663.803	8.2
664.213	8.15
664.624	8.12
665.035	8.06
665.445	8.03
665.855	7.99
666.266	7.97
666.676	7.94
667.086	7.9
667.497	7.87
667.907	7.83
668.317	7.81
668.727	7.79
669.137	7.78
669.547	7.78
669.956	7.78
670.366	7.79
670.776	7.78
671.186	7.78
671.595	7.8
672.005	7.82
672.414	7.84
672.824	7.88
673.233	7.91
673.642	7.93
674.052	7.95
674.461	7.98
674.87	8.01
675.279	8.04
675.688	8.07
676.097	8.1
676.506	8.12
676.915	8.17
677.323	8.21
677.732	8.26
678.141	8.32
678.549	8.38
678.958	8.46
679.366	8.53
679.775	8.6
680.183	8.68
680.592	8.78
681	8.88
681.408	8.98
681.816	9.09
682.224	9.21
682.632	9.34
683.04	9.48
683.448	9.64
683.856	9.8
684.264	10.02
684.671	10.23
685.079	10.48
685.487	10.75
685.894	11.04
686.302	11.35
686.709	11.68
687.116	12.05
687.524	12.45
687.931	12.86
688.338	13.32
688.745	13.78
689.152	14.29
689.559	14.79
689.966	15.34
690.373	15.93
690.78	16.5
691.187	17.12
691.593	17.73
692	18.37
692.407	19.01
692.813	19.67
693.22	20.33
693.626	21
694.032	21.68
694.439	22.35
694.845	23.02
695.251	23.71
695.657	24.36
696.063	25.04
696.469	25.71
696.875	26.38
697.281	27.01
697.687	27.69
698.093	28.33
698.498	28.96
698.904	29.59
699.31	30.19
699.715	30.77
700.12	31.38
700.526	31.94
700.931	32.5
701.337	33.06
701.742	33.61
702.147	34.13
702.552	34.67
702.957	35.19
703.362	35.71
703.767	36.23
704.172	36.73
704.577	37.19
704.981	37.69
705.386	38.16
705.791	38.63
706.195	39.07
706.6	39.52
707.004	39.93
707.408	40.36
707.813	40.77
708.217	41.15
708.621	41.54
709.025	41.94
709.43	42.31
709.834	42.68
710.237	43.02
710.641	43.41
711.045	43.76
711.449	44.1
711.853	44.44
712.256	44.79
712.66	45.11
713.064	45.45
713.467	45.79
713.87	46.07
714.274	46.39
714.677	46.73
715.08	47
715.484	47.28
715.887	47.57
716.29	47.84
716.693	48.08
717.096	48.37
717.499	48.63
717.901	48.86
718.304	49.15
718.707	49.4
719.109	49.63
719.512	49.9
719.915	50.15
720.317	50.37
720.719	50.6
721.122	50.85
721.524	51.1
721.926	51.33
722.328	51.57
722.731	51.75
723.133	51.94
723.535	52.15
723.937	52.34
724.338	52.5
724.74	52.68
725.142	52.8
725.544	52.94
725.945	53.03
726.347	53.19
726.748	53.29
727.15	53.43
727.551	53.55
727.952	53.63
728.354	53.75
728.755	53.88
729.156	54.02
729.557	54.18
729.958	54.31
730.359	54.48
730.76	54.55
731.161	54.69
731.562	54.81
731.962	54.9
732.363	55.02
732.763	55.14
733.164	55.2
733.564	55.25
733.965	55.3
734.365	55.38
734.766	55.42
735.166	55.45
735.566	55.45
735.966	55.49
736.366	55.57
736.766	55.61
737.166	55.63
737.566	55.67
737.966	55.75
738.365	55.8
738.765	55.82
739.165	55.85
739.564	55.93
739.964	55.98
740.363	56.02
740.763	56.03
741.162	56.06
741.561	56.09
741.96	56.14
742.36	56.14
742.759	56.14
743.158	56.14
743.557	56.13
743.955	56.2
744.354	56.28
744.753	56.33
745.152	56.38
745.55	56.42
745.949	56.44
746.348	56.47
746.746	56.52
747.144	56.6
747.543	56.67
747.941	56.78
748.339	56.77
748.737	56.78
749.136	56.77
749.534	56.82
749.932	56.85
750.33	56.87
750.727	56.88
751.125	56.91
751.523	56.88
751.921	56.89
752.318	56.86
752.716	56.83
753.113	56.8
753.511	56.8
753.908	56.74
754.305	56.65
754.703	56.62
755.1	56.6
755.497	56.55
755.894	56.52
756.291	56.44
756.688	56.38
757.085	56.35
757.482	56.32
757.878	56.26
758.275	56.23
758.672	56.26
759.068	56.24
759.465	56.19
759.861	56.15
760.258	56.11
760.654	56.12
761.05	56.13
761.447	56.11
761.843	56.1
762.239	56.12
762.635	56.1
763.031	56.13
763.427	56.1
763.822	56.11
764.218	56.11
764.614	56.14
765.01	56.15
765.405	56.13
765.801	56.14
766.196	56.16
766.592	56.16
766.987	56.17
767.382	56.14
767.778	56.17
768.173	56.17
768.568	56.16
768.963	56.16
769.358	56.14
769.753	56.15
770.148	56.14
770.542	56.09
770.937	56.08
771.332	56.07
771.726	56.07
772.121	56.04
772.515	56.03
772.91	56.06
773.304	56.04
773.699	56.02
774.093	55.99
774.487	55.99
774.881	56
775.275	56
775.669	56.01
776.063	55.98
776.457	55.97
776.851	55.94
777.245	55.93
777.638	55.93
778.032	55.97
778.425	55.99
778.819	55.98
779.212	55.97
779.606	55.99
779.999	55.99
780.392	55.99
780.786	56
781.179	56.07
781.572	56.04
781.965	56.04
782.358	55.99
782.751	56
783.143	55.99
783.536	56.01
783.929	56.02
784.322	56.01
784.714	56.05
785.107	56.06
785.499	56.03
785.891	56.06
786.284	56.05
786.676	56.07
787.068	56.05
787.46	56.07
787.852	56.09
788.245	56.06
788.636	56.1
789.028	56.06
789.42	56.06
789.812	56.06
790.204	56.01
790.595	56.02
790.987	56.02
791.378	56.04
791.77	56.07
792.161	56.04
792.553	56.03
792.944	56
793.335	56.05
793.726	56.05
794.117	56.04
794.508	56.12
794.899	56.14
795.29	56.13
795.681	56.13
796.072	56.12
796.463	56.11
796.853	56.13
797.244	56.12
797.634	56.07
798.025	56.08
798.415	56.1
798.806	56.07
799.196	56.08
799.586	56.11
799.976	56.14
800.366	56.13
800.756	56.15
801.146	56.15
801.536	56.15
801.926	56.19
802.316	56.2
802.706	56.21
803.095	56.23
803.485	56.24
803.874	56.27
804.264	56.27
804.653	56.26
805.043	56.27
805.432	56.26
805.821	56.27
806.21	56.28
806.599	56.31
806.988	56.32
807.377	56.3
807.766	56.29
808.155	56.27
808.544	56.28
808.933	56.33
809.321	56.35
809.71	56.41
810.098	56.45
810.487	56.46
810.875	56.43
811.264	56.44
811.652	56.47
812.04	56.5
812.428	56.52
812.816	56.54
813.204	56.52
813.592	56.54
813.98	56.54
814.368	56.48
814.756	56.51
815.144	56.58
815.531	56.59
815.919	56.59
816.306	56.59
816.694	56.61
817.081	56.6
817.469	56.67
817.856	56.68
818.243	56.72
818.63	56.81
819.017	56.83
819.404	56.81
819.791	56.83
820.178	56.84
820.565	56.85
820.952	56.81
821.339	56.85
821.725	56.84
822.112	56.86
822.498	56.83
822.885	56.83
823.271	56.81
823.657	56.83
824.044	56.83
824.43	56.85
824.816	56.86
825.202	56.9
825.588	56.87
825.974	56.84
826.36	56.82
826.746	56.84
827.132	56.8
827.517	56.79
827.903	56.79
828.289	56.8
828.674	56.75
829.06	56.77
829.445	56.81
829.83	56.8
830.216	56.79
830.601	56.79
830.986	56.78
831.371	56.79
831.756	56.75
832.141	56.75
832.526	56.7
832.911	56.75
833.295	56.73
833.68	56.67
834.065	56.69
834.449	56.66
834.834	56.63
835.218	56.6
835.603	56.57
835.987	56.58
836.371	56.54
836.755	56.55
837.139	56.52
837.524	56.49
837.908	56.47
838.291	56.42
838.675	56.44
839.059	56.42
839.443	56.45
839.827	56.43
840.21	56.44
840.594	56.44
840.977	56.43
841.361	56.41
841.744	56.42
842.127	56.41
842.511	56.44
842.894	56.42
843.277	56.43
843.66	56.41
844.043	56.44
844.426	56.43
844.809	56.44
845.191	56.43
845.574	56.4
845.957	56.36
846.339	56.37
846.722	56.38
847.104	56.39
847.487	56.41
847.869	56.39
848.252	56.38
848.634	56.39
849.016	56.38
849.398	56.41
849.78	56.43
850.162	56.46
850.544	56.47
850.926	56.45
851.307	56.45
851.689	56.42
852.071	56.44
852.452	56.43
852.834	56.39
853.215	56.41
853.597	56.39
853.978	56.36
854.359	56.37
854.741	56.38
855.122	56.36
855.503	56.35
855.884	56.36
856.265	56.33
856.646	56.32
857.026	56.33
857.407	56.29
857.788	56.29
858.169	56.29
858.549	56.28
858.93	56.26
859.31	56.25
859.69	56.25
860.071	56.27
860.451	56.27
860.831	56.27
861.211	56.26
861.591	56.27
861.971	56.24
862.351	56.26
862.731	56.26
863.111	56.28
863.491	56.31
863.87	56.3
864.25	56.28
864.629	56.27
865.009	56.28
865.388	56.28
865.768	56.27
866.147	56.28
866.526	56.26
866.905	56.25
867.284	56.22
867.663	56.22
868.042	56.21
868.421	56.22
868.8	56.2
869.179	56.22
869.558	56.21
869.936	56.2
870.315	56.19
870.693	56.18
871.072	56.18
871.45	56.15
871.828	56.13
872.207	56.16
872.585	56.14
872.963	56.15
873.341	56.14
873.719	56.16
874.097	56.18
874.475	56.2
874.853	56.23
875.23	56.25
875.608	56.29
875.986	56.28
876.363	56.26
876.741	56.24
877.118	56.22
877.495	56.22
877.873	56.21
878.25	56.2
878.627	56.17
879.004	56.14
879.381	56.13
879.758	56.08
880.135	56.08
880.512	56.08
880.889	56.13
881.265	56.15
881.642	56.15
882.019	56.15
882.395	56.12
882.772	56.12
883.148	56.13
883.524	56.1
883.901	56.13
884.277	56.15
884.653	56.17
885.029	56.12
885.405	56.09
885.781	56.04
886.157	56.03
886.532	56.07
886.908	56.09
887.284	56.11
887.659	56.13
888.035	56.12
888.411	56.06
888.786	56.02
889.161	56.02
889.537	56.05
889.912	56.06
890.287	56.03
890.662	56.01
891.037	55.95
891.412	55.9
891.787	55.86
892.162	55.81
892.536	55.84
892.911	55.83
893.286	55.8
893.66	55.76
894.035	55.75
894.409	55.76
894.784	55.71
895.158	55.7
895.532	55.68
895.906	55.67
896.281	55.68
896.655	55.64
897.029	55.64
897.402	55.63
897.776	55.6
898.15	55.58
898.524	55.56
898.898	55.54
899.271	55.56
899.645	55.55
900.018	55.54
900.392	55.56
900.765	55.59
901.138	55.57
901.511	55.59
901.884	55.6
902.258	55.6
902.631	55.61
903.003	55.63
903.376	55.65
903.749	55.66
904.122	55.68
904.495	55.65
904.867	55.62
905.24	55.64
905.612	55.59
905.985	55.57
906.357	55.53
906.729	55.5
907.102	55.49
907.474	55.46
907.846	55.45
908.218	55.43
908.59	55.42
908.962	55.38
909.334	55.35
909.705	55.37
910.077	55.36
910.449	55.42
910.82	55.41
911.192	55.4
911.563	55.38
911.935	55.34
912.306	55.31
912.677	55.33
913.048	55.36
913.419	55.38
913.79	55.37
914.161	55.38
914.532	55.36
914.903	55.35
915.274	55.33
915.645	55.36
916.015	55.4
916.386	55.4
916.756	55.35
917.127	55.34
917.497	55.29
917.868	55.28
918.238	55.29
918.608	55.31
918.978	55.3
919.348	55.26
919.718	55.23
920.088	55.22
920.458	55.27
920.828	55.3
921.198	55.3
921.567	55.32
921.937	55.33
922.306	55.29
922.676	55.28
923.045	55.27
923.415	55.3
923.784	55.31
924.153	55.31
924.522	55.28
924.891	55.25
925.26	55.21
925.629	55.19
925.998	55.22
926.367	55.2
926.736	55.16
927.104	55.15
927.473	55.19
927.842	55.16
928.21	55.16
928.578	55.15
928.947	55.14
929.315	55.18
929.683	55.18
930.051	55.15
930.42	55.16
930.788	55.14
931.156	55.11
931.523	55.02
931.891	54.95
932.259	54.84
932.627	54.72
932.994	54.67
933.362	54.55
933.729	54.47
934.097	54.4
934.464	54.31
934.831	54.28
935.199	54.2
935.566	54.14
935.933	54.23
936.3	54.13
936.667	54.1
937.034	54.04
937.401	54.01
937.767	53.97
938.134	53.92
938.501	53.92
938.867	53.9
939.234	53.92
939.6	53.97
939.967	53.85
940.333	54.08
940.699	54.28
941.065	54.38
941.431	54.53
941.798	54.62
942.163	54.67
942.529	54.74
942.895	54.9
943.261	55.07
943.627	55.17
943.992	55.32
944.358	55.27
944.723	55.23
945.089	55.18
945.454	55.18
945.82	55.25
946.185	55.35
946.55	55.46
946.915	55.45
947.28	55.35
947.645	55.35
948.01	55.32
948.375	55.38
948.74	55.31
949.104	55.37
949.469	55.33
949.834	55.34
950.198	55.23
950.562	55.12
950.927	55.02
951.291	55
951.655	54.91
952.02	54.82
952.384	54.83
952.748	54.84
953.112	54.76
953.476	54.73
953.839	54.64
954.203	54.56
954.567	54.57
954.931	54.56
955.294	54.48
955.658	54.49
956.021	54.45
956.385	54.35
956.748	54.33
957.111	54.31
957.474	54.28
957.837	54.23
958.2	54.28
958.563	54.2
958.926	54.18
959.289	54.24
959.652	54.24
960.015	54.24
960.377	54.21
960.74	54.12
961.102	54.1
961.465	54.08
961.827	53.98
962.189	53.97
962.552	53.89
962.914	53.87
963.276	53.78
963.638	53.68
964	53.64
964.362	53.56
964.724	53.64
965.085	53.63
965.447	53.54
965.809	53.56
966.17	53.56
966.532	53.58
966.893	53.48
967.255	53.47
967.616	53.49
967.977	53.5
968.338	53.49
968.699	53.39
969.061	53.39
969.421	53.4
969.782	53.38
970.143	53.35
970.504	53.3
970.865	53.28
971.225	53.31
971.586	53.35
971.946	53.34
972.307	53.37
972.667	53.42
973.027	53.42
973.388	53.37
973.748	53.5
974.108	53.45
974.468	53.54
974.828	53.62
975.188	53.61
975.548	53.57
975.907	53.58
976.267	53.61
976.627	53.6
976.986	53.53
977.346	53.57
977.705	53.49
978.064	53.58
978.424	53.48
978.783	53.54
979.142	53.46
979.501	53.44
979.86	53.41
980.219	53.31
980.578	53.23
980.937	53.35
981.296	53.36
981.654	53.4
982.013	53.33
982.371	53.33
982.73	53.19
983.088	53.26
983.447	53.27
983.805	53.18
984.163	53.29
984.521	53.23
984.879	53.21
985.237	53.23
985.595	53.19
985.953	53.17
986.311	53.22
986.669	53.29
987.026	53.23
987.384	53.17
987.741	53.29
988.099	53.23
988.456	53.31
988.814	53.32
989.171	53.28
989.528	53.24
989.885	53.21
990.242	53.19
990.599	53.23
990.956	53.3
991.313	53.36
991.67	53.34
992.027	53.29
992.383	53.37
992.74	53.22
993.096	53.19
993.453	53.19
993.809	53.3
994.165	53.45
994.522	53.37
994.878	53.32
995.234	53.34
995.59	53.3
995.946	53.39
996.302	53.26
996.658	53.42
997.013	53.47
997.369	53.61
997.725	53.54
998.08	53.42
998.436	53.41
998.791	53.36
999.147	53.28
999.502	53.27
999.857	53.25
1000.212	53.29
1000.567	53.18
1000.922	53.25
1001.277	52.99
1001.632	53.02
1001.987	52.95
1002.342	52.92
1002.696	53.01
1003.051	52.94
1003.406	52.9
1003.76	52.82
1004.114	52.84
1004.469	52.64
1004.823	52.56
1005.177	52.85
1005.531	52.7
1005.885	52.68
1006.239	52.73
1006.593	52.6
1006.947	52.64
1007.301	52.65
1007.655	52.72
1008.008	52.69
1008.362	53
1008.715	53.01
1009.069	52.8
1009.422	52.88
1009.776	52.91
1010.129	52.73
1010.482	52.9
1010.835	52.96
1011.188	52.76
1011.541	52.58
1011.894	52.46
1012.247	52.24
1012.6	52.12
1012.952	52.23
1013.305	52.27
1013.657	52.19
1014.01	52.43
1014.362	52.35
1014.715	52.35
1015.067	52.61
1015.419	52.88
1015.771	53.09
1016.123	53.2
1016.475	53.35
1016.827	53.49
1017.179	53.47
1017.531	53.48
1017.883	53.49
1018.234	53.18
1018.586	53.02
1018.938	52.8
1019.289	52.4
1019.64	52.51
1019.992	52.84
1020.343	52.5
1020.694	52.09
1021.045	51.99
1021.396	52.25
1021.747	52.45
1022.098	52.88
1022.449	52.85
1022.8	53.05
1023.151	53.36
1023.501	53.28
1023.852	52.95
1024.202	53.13
1024.553	53.1
1024.903	53.05
1025.253	52.95
1025.604	52.64
1025.954	52.26
1026.304	52.61
1026.654	52.75
1027.004	52.63
1027.354	52.91
1027.703	52.66
1028.053	52.54
1028.403	52.73
1028.753	53.01
1029.102	52.89
1029.452	52.84
1029.801	52.99
1030.15	52.85
1030.499	52.65
897.758	556.02
901.051	565.42
904.343	570.85
907.636	562.08
910.928	553.06
914.22	562.4
917.511	550.9
920.803	528.75
924.094	507.22
927.384	508.43
930.675	495.99
933.965	491.29
937.255	492.31
940.544	469.55
943.834	450.61
947.123	443.92
950.411	420.31
953.7	412.62
956.988	401.54
960.276	385.86
963.563	379.87
966.851	359.51
970.138	352.33
973.424	327.4
976.711	323.46
979.997	310.57
983.283	304.22
986.568	294.03
989.853	285.71
993.138	274.81
996.423	272.69
999.708	265.88
1002.992	266.02
1006.275	257.11
1009.559	255.47
1012.842	248.98
1016.125	242.88
1019.408	237.46
1022.69	237.05
1025.972	234.55
1029.254	230.12
1032.536	224.53
1035.817	216.32
1039.098	213.54
1042.379	211.61
1045.659	208.51
1048.939	206.71
1052.219	203.01
1055.498	199.51
1058.778	195.1
1062.057	193.04
1065.335	191.53
1068.614	188.09
1071.892	185.96
1075.17	182.49
1078.447	179.53
1081.724	178.42
1085.001	173.48
1088.278	173.36
1091.554	172.87
1094.83	171.45
1098.106	167.86
1101.382	166.69
1104.657	166.3
1107.932	165.99
1111.206	164.21
1114.481	163.03
1117.755	161.51
1121.029	162.06
1124.302	159.58
1127.575	156.99
1130.848	156.74
1134.121	155.52
1137.393	154.46
1140.665	154.07
1143.937	152.23
1147.208	150.98
1150.48	149.19
1153.75	148.64
1157.021	146.72
1160.291	145.91
1163.561	145.4
1166.831	145.03
1170.101	144.32
1173.37	143.62
1176.639	141.77
1179.907	141.95
1183.176	140.97
1186.444	141.72
1189.711	140.81
1192.979	141.73
1196.246	141.79
1199.513	141.97
1202.78	140.97
1206.046	140.91
1209.312	142.7
1212.578	143.33
1215.843	145.11
1219.108	146.24
1222.373	147.53
1225.638	149.59
1228.902	152.55
1232.166	158.01
1235.43	159.41
1238.693	163.54
1241.956	167.57
1245.219	170.68
1248.482	171.93
1251.744	171.4
1255.006	172.51
1258.268	168.9
1261.529	167.6
1264.79	163.71
1268.051	159.19
1271.312	158.98
1274.572	155.67
1277.832	151.7
1281.092	149.08
1284.351	146.54
1287.61	146.49
1290.869	145.92
1294.128	145.42
1297.386	144.63
1300.644	143.85
1303.902	143.5
1307.159	141.76
1310.416	143.36
1313.673	145.35
1316.93	147.32
1320.186	149.42
1323.442	150.28
1326.697	152.35
1329.953	154.15
1333.208	159.66
1336.463	166.43
1339.717	169.83
1342.972	178.87
1346.226	182.62
1349.479	184
1352.733	191.25
1355.986	195.19
1359.238	199.82
1362.491	202.17
1365.743	208.28
1368.995	209.36
1372.247	209.39
1375.498	207.84
1378.749	213.52
1382	214.27
1385.251	213.65
1388.501	212.95
1391.751	214.77
1395	213.76
1398.25	214.98
1401.499	214.15
1404.748	213.07
1407.996	207.6
1411.244	209
1414.492	203.8
1417.74	198.44
1420.987	193.77
1424.234	190.51
1427.481	183.44
1430.728	178.89
1433.974	172.54
1437.22	167.35
1440.465	160.63
1443.711	156.12
1446.956	151.18
1450.201	146.53
1453.445	139.16
1456.689	135.79
1459.933	130.79
1463.177	125.55
1466.42	123.37
1469.663	120.26
1472.906	116.61
1476.148	114.25
1479.391	112.07
1482.633	109.99
1485.874	108.06
1489.115	107.8
1492.356	105.93
1495.597	104.47
1498.838	104.94
1502.078	103.52
1505.318	102.87
1508.557	102.29
1511.797	101.42
1515.036	101.1
1518.274	100.74
1521.513	99.33
1524.751	98.75
1527.989	99.55
1531.227	99.3
1534.464	98.14
1537.701	97.81
1540.938	97.51
1544.174	97.12
1547.41	97.5
1550.646	97.42
1553.882	97.22
1557.117	96.84
1560.352	96.48
1563.587	95.28
1566.821	95.41
1570.055	95.32
1573.289	94.74
1576.523	94.87
1579.756	94.77
1582.989	94.61
1586.222	94.26
1589.454	94.04
1592.686	94.42
1595.918	94.46
1599.15	94.45
1602.381	95
1605.612	95.04
1608.843	95.03
1612.073	95.31
1615.303	95.8
1618.533	95.53
1621.762	95.35
1624.992	96.07
1628.221	95.8
1631.449	96.07
1634.678	96.57
1637.906	95.96
1641.134	96.05
1644.361	96.25
1647.588	97.07
1650.815	97.04
1654.042	96.87
1657.269	96.86
1660.495	96.96
1663.72	97.34
1666.946	97.29
1670.171	97.36
1673.396	98.17
1676.621	97.98
1679.845	99.07
1683.069	97.68
1686.293	97.49
1689.517	97.88
1692.74	98.23
1695.963	98.39
1699.185	98.47
1702.408	98.28
1705.63	98.15
1708.852	98.86
1712.073	98.89
1715.294	98.24
1718.515	98.89
1721.736	99.23
1724.956	99.52
1728.176	99.54
1731.396	99.81
1734.616	99.56
1737.835	100.15
1741.054	99.89
1744.272	99.42
1747.491	99.84
1750.709	100.49
1753.927	100.73
1757.144	101.1
1760.361	100.75
1763.578	101.96
1766.795	102.08
1770.011	102.3
1773.227	102.6
1776.443	103.97
1779.658	103.47
1782.874	104.02
1786.089	103.54
1789.303	103.69
1792.518	104.62
1795.732	105.38
1798.945	105.56
1802.159	105.56
1805.372	107.25
1808.585	108.3
1811.797	108.53
1815.01	109.74
1818.222	110.37
1821.434	111.69
1824.645	112.34
1827.856	114.11
1831.067	115.07
1834.278	115.96
1837.488	116.79
1840.698	118.03
1843.908	117.94
1847.117	119.57
1850.326	120.35
1853.535	121.4
1856.744	123.18
1859.952	124.78
1863.16	124
1866.368	123.3
1869.575	124.05
1872.782	124.13
1875.989	123.21
1879.196	123.12
1882.402	121.67
1885.608	121.98
1888.814	121.41
1892.019	121.41
1895.224	119.44
1898.429	119.23
1901.634	119.95
1904.838	120.86
1908.042	121.61
1911.246	119.67
1914.449	120.12
1917.652	119.85
1920.855	120.44
1924.058	119.45
1927.26	118.68
1930.462	119.35
1933.664	119.37
1936.865	120.28
1940.066	117.25
1943.267	115.81
1946.467	118.28
1949.668	118.26
1952.868	118.72
1956.067	118.13
1959.267	118.99
1962.466	119.46
1965.665	120.46
1968.863	121
1972.061	122.64
1975.259	125.41
1978.457	128
1981.654	127.68
1984.852	128.89
1988.048	130.74
1991.245	132.42
1994.441	135.48
1997.637	138.59
2000.833	141.05
2004.028	143.12
2007.223	144.35
2010.418	147.37
2013.613	153.2
2016.807	158.1
2020.001	159.88
2023.194	164.71
2026.388	170.83
2029.581	179.18
2032.774	184.74
2035.966	189.89
2039.158	194.86
2042.35	198.55
2045.542	202.2
2048.733	208.4
2051.924	209.98
2055.115	217.1
2058.306	219.14
2061.496	221.67
2064.686	221.99
2067.875	218.69
2071.065	223.12
2074.254	222.4
2077.442	228.91
2080.631	231.59
2083.819	232.89
2087.007	238.18
2090.195	239.41
2093.382	238.81
2096.569	240.5
2099.756	241.59
2102.942	247.57
2106.128	251.65
2109.314	256.19
2112.5	256.82
2115.685	253.8
2118.87	254.22
2122.055	254.91
2125.239	259.25
2128.424	266.03
2131.608	266.6
2134.791	268.33
2137.974	268.98
2141.157	270.65
2144.34	271.71
2147.523	277.38
2150.705	285.86
2153.887	281.85
2157.068	285.54
2160.25	289.2
2163.431	289.75
2166.611	288.94
2169.792	293.51
2172.972	299.35
2176.152	300.72
2179.331	306.85
2182.511	307.4
2185.69	309.8
2188.868	323.87
2192.047	331.29
2195.225	334.61
2198.403	336.42
2201.58	338.51
2204.758	352.51
2207.935	351.84
2211.111	358.08
2214.288	360.87
2217.464	363.57
2220.64	366.35
2223.815	365.81
2226.991	360.47
2230.166	362.47
2233.34	374.42
2236.515	380.4
2239.689	371.72
2242.863	379.43
2246.036	376.65
2249.209	384.48
2252.382	383.29
2255.555	396.78
2258.727	400.7
2261.9	413.94
2265.071	420.37
2268.243	416.25
2271.414	430.84
2274.585	442.57
2277.756	441.73
2280.926	459.21
2284.096	459.45
2287.266	463.11
2290.436	453.81
2293.605	464.44
2296.774	479.3
2299.942	479.13
2303.111	494.03
2306.279	505.21
2309.447	505.61
2312.614	507.62
2315.781	515.25
2318.948	522.24
2322.115	532.82
2325.281	560.09
2328.447	553.53
2331.613	558.57
2334.779	565.64
2337.944	572.93
2341.109	580.55
2344.274	585.61
2347.438	602.18
2350.602	609.38
2353.766	654.35
2356.929	652.02
2360.092	667.76
2363.255	673.3
2366.418	678.07
2369.58	693.66
2372.742	697.69
2375.904	693.39
2379.066	715.17
2382.227	749.69
2385.388	756.94
2388.548	705.62
2391.709	704.38
2394.869	725.03
2398.029	724.69
2401.188	726.52
2404.347	747.32
2407.506	769.12
2410.665	745.61
2413.823	743.64
2416.981	748.93
2420.139	710.7
2423.296	770.42
2426.453	821.23
2429.61	780.71
2432.767	837.05
2435.923	864.16
2439.079	842.23
2442.235	855.34
2445.391	871.55
2448.546	867.15
2451.701	913.82
2454.855	973.61
2458.009	863.31
2461.163	885.88
2464.317	892.66
2467.471	866.88
2470.624	899.81
2473.777	876.44
2476.929	856.81
2480.082	911.92
2483.234	959.01
2486.385	978.79
2489.537	1000.69
2492.688	1103.27
2495.839	1076.59
2498.989	1108.58
2502.14	1116.79
2505.29	1070.4
2508.439	1176.5
2511.589	1202.01
2514.738	1177.13
2517.887	1162.93
2521.035	1082.81
2524.183	1070.13
2527.331	1061.88
2530.479	1032.07
2533.627	1053.66
