Data from c_3_dec_nc_4n_Splice17_04.txt Node
Date: Sat Feb 29 14:48:59 EST 2020
User: sa697716
Spectrometer: FLMS03696
Trigger mode: 0
Integration Time (sec): 3.180400E-1
Scans to average: 20
Electric dark correction enabled: true
Nonlinearity correction enabled: true
Boxcar width: 5
XAxis mode: Wavelengths
Number of Pixels in Spectrum: 2048
>>>>>Begin Spectral Data<<<<<
187.83	97.25
188.298	76.1
188.766	76.76
189.233	68.18
189.701	79.65
190.169	71.27
190.636	76.71
191.104	43.5
191.571	-58.73
192.039	122.27
192.506	213.93
192.974	8225.39
193.441	196.62
193.908	61.55
194.375	-22.46
194.842	131.05
195.31	66.3
195.777	91.48
196.244	29.15
196.711	34.57
197.177	35.49
197.644	35.77
198.111	36.46
198.578	37.55
199.045	38.07
199.511	39.55
199.978	39.94
200.445	39.5
200.911	39.68
201.378	40.29
201.844	40.97
202.31	42.09
202.777	42.91
203.243	43.68
203.709	44.38
204.176	44.12
204.642	43.56
205.108	43.36
205.574	43.75
206.04	43.8
206.506	43.2
206.972	43.06
207.438	42.17
207.903	41.7
208.369	40.72
208.835	40.15
209.301	40.22
209.766	39.85
210.232	39.16
210.697	38.79
211.163	38.39
211.628	37.9
212.094	37.27
212.559	36.85
213.024	36.24
213.49	35.89
213.955	35.2
214.42	34.51
214.885	33.97
215.35	33.27
215.815	32.03
216.28	30.89
216.745	29.68
217.21	28.33
217.675	27.12
218.14	25.92
218.604	24.65
219.069	23.84
219.534	22.92
219.998	22.12
220.463	21.48
220.927	21.03
221.392	20.57
221.856	20.22
222.32	19.94
222.785	19.66
223.249	19.43
223.713	19.26
224.177	19.03
224.642	18.91
225.106	18.77
225.57	18.61
226.034	18.48
226.497	18.31
226.961	18.11
227.425	17.88
227.889	17.74
228.353	17.55
228.816	17.4
229.28	17.22
229.744	17.05
230.207	16.88
230.671	16.73
231.134	16.56
231.597	16.39
232.061	16.27
232.524	16.14
232.987	15.99
233.45	15.84
233.914	15.72
234.377	15.6
234.84	15.48
235.303	15.36
235.766	15.24
236.229	15.11
236.691	15
237.154	14.88
237.617	14.78
238.08	14.67
238.542	14.57
239.005	14.44
239.468	14.31
239.93	14.19
240.393	14.08
240.855	13.96
241.317	13.87
241.78	13.78
242.242	13.68
242.704	13.58
243.166	13.49
243.629	13.41
244.091	13.3
244.553	13.23
245.015	13.14
245.477	13.07
245.939	12.99
246.4	12.9
246.862	12.82
247.324	12.77
247.786	12.7
248.247	12.65
248.709	12.57
249.17	12.54
249.632	12.46
250.093	12.39
250.555	12.34
251.016	12.29
251.477	12.22
251.939	12.17
252.4	12.1
252.861	12.05
253.322	11.99
253.783	11.97
254.244	11.9
254.705	11.87
255.166	11.85
255.627	11.81
256.088	11.77
256.549	11.75
257.009	11.71
257.47	11.68
257.931	11.64
258.391	11.59
258.852	11.54
259.312	11.52
259.773	11.49
260.233	11.44
260.694	11.4
261.154	11.36
261.614	11.33
262.074	11.3
262.534	11.27
262.994	11.25
263.455	11.22
263.915	11.19
264.374	11.16
264.834	11.14
265.294	11.12
265.754	11.09
266.214	11.07
266.673	11.06
267.133	11.03
267.593	11
268.052	10.98
268.512	10.97
268.971	10.96
269.431	10.95
269.89	10.93
270.349	10.92
270.809	10.91
271.268	10.9
271.727	10.89
272.186	10.88
272.645	10.87
273.104	10.85
273.563	10.83
274.022	10.81
274.481	10.79
274.94	10.78
275.399	10.76
275.857	10.74
276.316	10.72
276.775	10.69
277.233	10.67
277.692	10.65
278.15	10.63
278.609	10.6
279.067	10.58
279.525	10.56
279.984	10.54
280.442	10.53
280.9	10.51
281.358	10.49
281.816	10.47
282.274	10.45
282.732	10.44
283.19	10.42
283.648	10.41
284.106	10.39
284.564	10.38
285.021	10.36
285.479	10.34
285.937	10.33
286.394	10.32
286.852	10.31
287.309	10.31
287.767	10.3
288.224	10.29
288.682	10.29
289.139	10.28
289.596	10.26
290.053	10.25
290.511	10.22
290.968	10.21
291.425	10.19
291.882	10.17
292.339	10.15
292.796	10.13
293.252	10.1
293.709	10.08
294.166	10.05
294.623	10.03
295.079	10.01
295.536	9.99
295.992	9.97
296.449	9.95
296.905	9.93
297.362	9.91
297.818	9.89
298.274	9.87
298.731	9.86
299.187	9.85
299.643	9.83
300.099	9.83
300.555	9.81
301.011	9.79
301.467	9.78
301.923	9.77
302.379	9.75
302.835	9.74
303.291	9.72
303.746	9.7
304.202	9.68
304.658	9.67
305.113	9.65
305.569	9.63
306.024	9.61
306.479	9.6
306.935	9.58
307.39	9.57
307.845	9.55
308.301	9.55
308.756	9.55
309.211	9.54
309.666	9.54
310.121	9.52
310.576	9.52
311.031	9.51
311.486	9.52
311.94	9.52
312.395	9.51
312.85	9.5
313.305	9.49
313.759	9.49
314.214	9.48
314.668	9.47
315.123	9.48
315.577	9.47
316.032	9.46
316.486	9.45
316.94	9.44
317.394	9.43
317.849	9.42
318.303	9.42
318.757	9.4
319.211	9.38
319.665	9.37
320.119	9.35
320.572	9.34
321.026	9.32
321.48	9.3
321.934	9.29
322.387	9.27
322.841	9.25
323.295	9.23
323.748	9.22
324.202	9.19
324.655	9.17
325.108	9.14
325.562	9.1
326.015	9.08
326.468	9.06
326.921	9.04
327.374	9.02
327.827	9
328.28	8.98
328.733	8.97
329.186	8.96
329.639	8.95
330.092	8.94
330.545	8.94
330.997	8.93
331.45	8.91
331.903	8.91
332.355	8.9
332.808	8.89
333.26	8.89
333.713	8.89
334.165	8.89
334.617	8.89
335.069	8.9
335.522	8.92
335.974	8.92
336.426	8.92
336.878	8.93
337.33	8.94
337.782	8.94
338.234	8.95
338.686	8.95
339.137	8.97
339.589	8.96
340.041	8.95
340.493	8.92
340.944	8.92
341.396	8.9
341.847	8.89
342.299	8.86
342.75	8.84
343.201	8.81
343.653	8.78
344.104	8.75
344.555	8.74
345.006	8.72
345.457	8.71
345.908	8.7
346.359	8.7
346.81	8.68
347.261	8.67
347.712	8.66
348.163	8.65
348.613	8.63
349.064	8.62
349.515	8.6
349.965	8.59
350.416	8.57
350.866	8.55
351.317	8.53
351.767	8.53
352.217	8.51
352.668	8.51
353.118	8.51
353.568	8.52
354.018	8.53
354.468	8.51
354.918	8.52
355.368	8.53
355.818	8.53
356.268	8.54
356.718	8.54
357.168	8.54
357.617	8.54
358.067	8.54
358.517	8.55
358.966	8.55
359.416	8.57
359.865	8.58
360.315	8.57
360.764	8.58
361.213	8.59
361.663	8.6
362.112	8.62
362.561	8.64
363.01	8.66
363.459	8.67
363.908	8.67
364.357	8.68
364.806	8.7
365.255	8.73
365.703	8.74
366.152	8.76
366.601	8.77
367.05	8.78
367.498	8.8
367.947	8.81
368.395	8.83
368.844	8.87
369.292	8.89
369.74	8.9
370.189	8.92
370.637	8.95
371.085	8.98
371.533	9.01
371.981	9.03
372.429	9.04
372.877	9.07
373.325	9.1
373.773	9.12
374.221	9.15
374.669	9.19
375.116	9.21
375.564	9.23
376.012	9.26
376.459	9.29
376.907	9.32
377.354	9.35
377.801	9.39
378.249	9.43
378.696	9.47
379.143	9.51
379.591	9.54
380.038	9.58
380.485	9.63
380.932	9.68
381.379	9.72
381.826	9.75
382.273	9.8
382.72	9.84
383.166	9.88
383.613	9.91
384.06	9.94
384.506	9.98
384.953	9.98
385.4	10
385.846	10.03
386.292	10.05
386.739	10.07
387.185	10.11
387.631	10.15
388.078	10.19
388.524	10.21
388.97	10.23
389.416	10.23
389.862	10.26
390.308	10.29
390.754	10.31
391.2	10.35
391.645	10.38
392.091	10.4
392.537	10.4
392.983	10.43
393.428	10.46
393.874	10.51
394.319	10.55
394.765	10.56
395.21	10.57
395.655	10.58
396.101	10.61
396.546	10.62
396.991	10.63
397.436	10.63
397.881	10.64
398.326	10.66
398.771	10.67
399.216	10.68
399.661	10.72
400.106	10.75
400.551	10.76
400.995	10.74
401.44	10.72
401.885	10.71
402.329	10.7
402.774	10.67
403.218	10.65
403.663	10.64
404.107	10.63
404.551	10.62
404.995	10.6
405.44	10.58
405.884	10.58
406.328	10.59
406.772	10.57
407.216	10.58
407.66	10.59
408.104	10.59
408.547	10.58
408.991	10.56
409.435	10.54
409.879	10.52
410.322	10.52
410.766	10.5
411.209	10.5
411.653	10.48
412.096	10.45
412.54	10.45
412.983	10.43
413.426	10.43
413.869	10.43
414.312	10.46
414.756	10.47
415.199	10.47
415.642	10.5
416.085	10.51
416.527	10.56
416.97	10.6
417.413	10.58
417.856	10.58
418.298	10.56
418.741	10.54
419.184	10.51
419.626	10.51
420.069	10.49
420.511	10.46
420.953	10.44
421.396	10.41
421.838	10.39
422.28	10.41
422.722	10.44
423.164	10.44
423.606	10.46
424.048	10.47
424.49	10.47
424.932	10.49
425.374	10.5
425.816	10.49
426.258	10.46
426.699	10.41
427.141	10.34
427.582	10.3
428.024	10.28
428.465	10.27
428.907	10.27
429.348	10.25
429.789	10.23
430.231	10.19
430.672	10.17
431.113	10.19
431.554	10.21
431.995	10.23
432.436	10.23
432.877	10.21
433.318	10.19
433.759	10.15
434.2	10.13
434.64	10.12
435.081	10.12
435.522	10.11
435.962	10.1
436.403	10.13
436.843	10.14
437.284	10.16
437.724	10.19
438.164	10.19
438.604	10.21
439.045	10.21
439.485	10.21
439.925	10.22
440.365	10.22
440.805	10.22
441.245	10.21
441.685	10.2
442.125	10.2
442.564	10.2
443.004	10.23
443.444	10.24
443.883	10.25
444.323	10.25
444.762	10.29
445.202	10.34
445.641	10.37
446.081	10.4
446.52	10.41
446.959	10.42
447.398	10.45
447.837	10.47
448.276	10.49
448.716	10.5
449.154	10.52
449.593	10.54
450.032	10.53
450.471	10.54
450.91	10.55
451.349	10.57
451.787	10.56
452.226	10.55
452.664	10.53
453.103	10.51
453.541	10.53
453.98	10.51
454.418	10.46
454.856	10.43
455.295	10.4
455.733	10.38
456.171	10.34
456.609	10.32
457.047	10.29
457.485	10.29
457.923	10.29
458.361	10.25
458.798	10.24
459.236	10.23
459.674	10.22
460.111	10.22
460.549	10.19
460.987	10.2
461.424	10.19
461.862	10.18
462.299	10.15
462.736	10.13
463.173	10.12
463.611	10.11
464.048	10.12
464.485	10.1
464.922	10.08
465.359	10.08
465.796	10.04
466.233	10.03
466.67	10.04
467.106	10.04
467.543	10.04
467.98	10.04
468.416	10.06
468.853	10.06
469.29	10.08
469.726	10.1
470.162	10.12
470.599	10.15
471.035	10.17
471.471	10.16
471.907	10.15
472.344	10.15
472.78	10.14
473.216	10.13
473.652	10.12
474.088	10.13
474.523	10.13
474.959	10.1
475.395	10.1
475.831	10.07
476.266	10.09
476.702	10.1
477.138	10.1
477.573	10.1
478.008	10.11
478.444	10.1
478.879	10.09
479.314	10.08
479.75	10.09
480.185	10.07
480.62	10.09
481.055	10.09
481.49	10.08
481.925	10.07
482.36	10.06
482.795	10.04
483.229	10.04
483.664	10.04
484.099	10.04
484.534	10.04
484.968	10.05
485.403	10.05
485.837	10.05
486.271	10.04
486.706	10.05
487.14	10.07
487.574	10.08
488.009	10.1
488.443	10.1
488.877	10.12
489.311	10.14
489.745	10.15
490.179	10.17
490.613	10.19
491.046	10.24
491.48	10.28
491.914	10.31
492.348	10.35
492.781	10.38
493.215	10.43
493.648	10.47
494.082	10.52
494.515	10.58
494.948	10.63
495.382	10.67
495.815	10.72
496.248	10.78
496.681	10.83
497.114	10.89
497.547	10.97
497.98	11.04
498.413	11.12
498.846	11.19
499.279	11.28
499.711	11.36
500.144	11.46
500.577	11.57
501.009	11.67
501.442	11.79
501.874	11.9
502.306	12.02
502.739	12.15
503.171	12.27
503.603	12.42
504.036	12.57
504.468	12.72
504.9	12.87
505.332	13.03
505.764	13.19
506.196	13.37
506.627	13.55
507.059	13.72
507.491	13.9
507.923	14.09
508.354	14.29
508.786	14.5
509.217	14.69
509.649	14.92
510.08	15.14
510.512	15.37
510.943	15.6
511.374	15.84
511.805	16.09
512.237	16.36
512.668	16.62
513.099	16.88
513.53	17.12
513.961	17.4
514.391	17.65
514.822	17.91
515.253	18.18
515.684	18.41
516.114	18.7
516.545	18.97
516.975	19.23
517.406	19.5
517.836	19.76
518.267	20.03
518.697	20.31
519.127	20.58
519.558	20.83
519.988	21.09
520.418	21.36
520.848	21.59
521.278	21.86
521.708	21.97
522.138	22.2
522.567	22.43
522.997	22.67
523.427	22.89
523.857	23.11
524.286	23.33
524.716	23.54
525.145	23.77
525.575	23.97
526.004	24.14
526.433	24.47
526.863	24.66
527.292	24.85
527.721	25.04
528.15	25.2
528.579	25.38
529.008	25.53
529.437	25.67
529.866	25.79
530.295	25.94
530.724	26.1
531.152	26.22
531.581	26.33
532.01	26.44
532.438	26.53
532.867	26.64
533.295	26.73
533.723	26.83
534.152	26.93
534.58	27.01
535.008	27.06
535.436	27.1
535.865	27.14
536.293	27.22
536.721	27.28
537.149	27.33
537.576	27.37
538.004	27.4
538.432	27.41
538.86	27.43
539.287	27.46
539.715	27.5
540.143	27.54
540.57	27.57
540.998	27.59
541.425	27.62
541.852	27.65
542.28	27.67
542.707	27.74
543.134	27.79
543.561	27.81
543.988	27.84
544.415	27.87
544.842	27.9
545.269	27.93
545.696	27.95
546.123	27.98
546.549	27.99
546.976	28.04
547.403	28.03
547.829	28.04
548.256	28.09
548.682	28.1
549.108	28.13
549.535	28.15
549.961	28.16
550.387	28.18
550.813	28.18
551.24	28.19
551.666	28.2
552.092	28.2
552.518	28.2
552.943	28.18
553.369	28.19
553.795	28.17
554.221	28.16
554.646	28.15
555.072	28.13
555.498	28.09
555.923	28.06
556.349	28
556.774	27.97
557.199	27.91
557.625	27.86
558.05	27.79
558.475	27.73
558.9	27.67
559.325	27.61
559.75	27.52
560.175	27.45
560.6	27.36
561.025	27.29
561.449	27.19
561.874	27.11
562.299	27.02
562.723	26.9
563.148	26.78
563.572	26.67
563.997	26.54
564.421	26.42
564.846	26.29
565.27	26.16
565.694	26
566.118	25.86
566.542	25.72
566.966	25.58
567.39	25.43
567.814	25.27
568.238	25.11
568.662	24.97
569.086	24.82
569.509	24.67
569.933	24.52
570.357	24.37
570.78	24.21
571.204	24.05
571.627	23.88
572.05	23.75
572.474	23.61
572.897	23.49
573.32	23.34
573.743	23.2
574.166	23.07
574.589	22.95
575.012	22.83
575.435	22.72
575.858	22.63
576.281	22.53
576.704	22.43
577.126	22.35
577.549	22.25
577.972	22.17
578.394	22.09
578.817	22
579.239	21.94
579.661	21.87
580.084	21.8
580.506	21.72
580.928	21.63
581.35	21.57
581.772	21.51
582.194	21.44
582.616	21.37
583.038	21.29
583.46	21.22
583.882	21.15
584.303	21.08
584.725	21.01
585.147	20.94
585.568	20.87
585.99	20.81
586.411	20.77
586.833	20.7
587.254	20.63
587.675	20.57
588.096	20.53
588.518	20.46
588.939	20.41
589.36	20.36
589.781	20.32
590.202	20.27
590.623	20.22
591.043	20.15
591.464	20.12
591.885	20.09
592.305	20.06
592.726	20.02
593.147	20
593.567	19.96
593.987	19.95
594.408	19.93
594.828	19.89
595.248	19.87
595.669	19.84
596.089	19.81
596.509	19.77
596.929	19.73
597.349	19.69
597.769	19.64
598.189	19.61
598.608	19.57
599.028	19.51
599.448	19.5
599.867	19.45
600.287	19.41
600.706	19.37
601.126	19.31
601.545	19.27
601.965	19.24
602.384	19.2
602.803	19.13
603.222	19.07
603.641	19.03
604.061	18.96
604.48	18.89
604.898	18.83
605.317	18.76
605.736	18.71
606.155	18.65
606.574	18.58
606.992	18.5
607.411	18.46
607.829	18.36
608.248	18.29
608.666	18.23
609.085	18.18
609.503	18.1
609.921	18.04
610.339	17.99
610.758	17.93
611.176	17.86
611.594	17.8
612.012	17.73
612.43	17.71
612.847	17.66
613.265	17.6
613.683	17.53
614.101	17.47
614.518	17.42
614.936	17.33
615.353	17.26
615.771	17.19
616.188	17.14
616.606	17.08
617.023	17.02
617.44	16.96
617.857	16.91
618.274	16.87
618.691	16.83
619.108	16.79
619.525	16.76
619.942	16.73
620.359	16.71
620.776	16.69
621.192	16.67
621.609	16.65
622.026	16.61
622.442	16.58
622.859	16.57
623.275	16.57
623.691	16.55
624.108	16.54
624.524	16.52
624.94	16.49
625.356	16.47
625.772	16.46
626.188	16.46
626.604	16.44
627.02	16.44
627.436	16.42
627.852	16.4
628.268	16.38
628.683	16.36
629.099	16.34
629.514	16.33
629.93	16.31
630.345	16.27
630.761	16.22
631.176	16.18
631.591	16.13
632.007	16.07
632.422	16.01
632.837	15.96
633.252	15.87
633.667	15.79
634.082	15.7
634.497	15.59
634.911	15.5
635.326	15.4
635.741	15.3
636.155	15.19
636.57	15.08
636.984	14.94
637.399	14.8
637.813	14.67
638.228	14.55
638.642	14.43
639.056	14.31
639.47	14.16
639.884	14.03
640.298	13.9
640.712	13.75
641.126	13.61
641.54	13.48
641.954	13.36
642.368	13.26
642.781	13.12
643.195	12.98
643.609	12.86
644.022	12.76
644.436	12.64
644.849	12.52
645.262	12.42
645.676	12.33
646.089	12.25
646.502	12.15
646.915	12.08
647.328	12.01
647.741	11.96
648.154	11.9
648.567	11.87
648.98	11.83
649.393	11.81
649.805	11.77
650.218	11.74
650.631	11.71
651.043	11.7
651.456	11.68
651.868	11.65
652.28	11.64
652.693	11.6
653.105	11.56
653.517	11.53
653.929	11.5
654.341	11.47
654.753	11.45
655.165	11.4
655.577	11.36
655.989	11.3
656.401	11.24
656.813	11.16
657.224	11.13
657.636	11.08
658.047	11.02
658.459	10.95
658.87	10.89
659.282	10.83
659.693	10.77
660.104	10.71
660.515	10.66
660.926	10.62
661.338	10.57
661.749	10.5
662.159	10.44
662.57	10.39
662.981	10.34
663.392	10.28
663.803	10.22
664.213	10.18
664.624	10.14
665.035	10.08
665.445	10.04
665.855	10.01
666.266	9.99
666.676	9.94
667.086	9.91
667.497	9.88
667.907	9.85
668.317	9.83
668.727	9.82
669.137	9.8
669.547	9.81
669.956	9.78
670.366	9.78
670.776	9.77
671.186	9.77
671.595	9.79
672.005	9.81
672.414	9.82
672.824	9.84
673.233	9.85
673.642	9.86
674.052	9.88
674.461	9.92
674.87	9.95
675.279	9.98
675.688	10.01
676.097	10.04
676.506	10.06
676.915	10.1
677.323	10.14
677.732	10.18
678.141	10.23
678.549	10.28
678.958	10.34
679.366	10.39
679.775	10.47
680.183	10.54
680.592	10.63
681	10.73
681.408	10.83
681.816	10.95
682.224	11.08
682.632	11.22
683.04	11.37
683.448	11.54
683.856	11.73
684.264	11.93
684.671	12.16
685.079	12.39
685.487	12.67
685.894	12.97
686.302	13.28
686.709	13.6
687.116	13.95
687.524	14.35
687.931	14.74
688.338	15.16
688.745	15.6
689.152	16.07
689.559	16.56
689.966	17.05
690.373	17.57
690.78	18.12
691.187	18.67
691.593	19.25
692	19.82
692.407	20.42
692.813	21.01
693.22	21.6
693.626	22.21
694.032	22.82
694.439	23.44
694.845	24.05
695.251	24.64
695.657	25.22
696.063	25.81
696.469	26.38
696.875	26.95
697.281	27.52
697.687	28.1
698.093	28.67
698.498	29.22
698.904	29.76
699.31	30.28
699.715	30.82
700.12	31.35
700.526	31.84
700.931	32.33
701.337	32.81
701.742	33.27
702.147	33.73
702.552	34.18
702.957	34.62
703.362	35.07
703.767	35.48
704.172	35.87
704.577	36.26
704.981	36.67
705.386	37.07
705.791	37.47
706.195	37.84
706.6	38.19
707.004	38.54
707.408	38.9
707.813	39.22
708.217	39.56
708.621	39.93
709.025	40.27
709.43	40.57
709.834	40.9
710.237	41.21
710.641	41.55
711.045	41.84
711.449	42.14
711.853	42.44
712.256	42.73
712.66	43.02
713.064	43.24
713.467	43.5
713.87	43.8
714.274	44.07
714.677	44.33
715.08	44.52
715.484	44.8
715.887	45.05
716.29	45.28
716.693	45.53
717.096	45.74
717.499	46
717.901	46.2
718.304	46.4
718.707	46.6
719.109	46.8
719.512	47.06
719.915	47.26
720.317	47.47
720.719	47.62
721.122	47.79
721.524	47.99
721.926	48.14
722.328	48.32
722.731	48.49
723.133	48.66
723.535	48.83
723.937	48.95
724.338	49.06
724.74	49.19
725.142	49.3
725.544	49.44
725.945	49.52
726.347	49.68
726.748	49.81
727.15	49.92
727.551	50.02
727.952	50.12
728.354	50.27
728.755	50.38
729.156	50.5
729.557	50.64
729.958	50.74
730.359	50.86
730.76	50.88
731.161	50.96
731.562	51.04
731.962	51.11
732.363	51.17
732.763	51.2
733.164	51.27
733.564	51.31
733.965	51.34
734.365	51.38
734.766	51.45
735.166	51.5
735.566	51.51
735.966	51.55
736.366	51.56
736.766	51.61
737.166	51.66
737.566	51.69
737.966	51.72
738.365	51.78
738.765	51.85
739.165	51.85
739.564	51.93
739.964	51.97
740.363	52.01
740.763	52.04
741.162	52.06
741.561	52.09
741.96	52.13
742.36	52.15
742.759	52.15
743.158	52.16
743.557	52.18
743.955	52.22
744.354	52.29
744.753	52.33
745.152	52.35
745.55	52.37
745.949	52.39
746.348	52.42
746.746	52.45
747.144	52.52
747.543	52.56
747.941	52.59
748.339	52.62
748.737	52.62
749.136	52.67
749.534	52.69
749.932	52.73
750.33	52.75
750.727	52.77
751.125	52.78
751.523	52.74
751.921	52.76
752.318	52.78
752.716	52.72
753.113	52.7
753.511	52.65
753.908	52.63
754.305	52.62
754.703	52.57
755.1	52.52
755.497	52.49
755.894	52.48
756.291	52.42
756.688	52.39
757.085	52.39
757.482	52.36
757.878	52.33
758.275	52.34
758.672	52.34
759.068	52.37
759.465	52.37
759.861	52.36
760.258	52.32
760.654	52.29
761.05	52.26
761.447	52.26
761.843	52.23
762.239	52.22
762.635	52.2
763.031	52.15
763.427	52.09
763.822	52.06
764.218	52.06
764.614	52.08
765.01	52.12
765.405	52.12
765.801	52.1
766.196	52.14
766.592	52.17
766.987	52.15
767.382	52.19
767.778	52.2
768.173	52.22
768.568	52.19
768.963	52.18
769.358	52.13
769.753	52.18
770.148	52.16
770.542	52.14
770.937	52.12
771.332	52.14
771.726	52.1
772.121	52.08
772.515	52.07
772.91	52.09
773.304	52.09
773.699	52.1
774.093	52.05
774.487	52.08
774.881	52.07
775.275	52.06
775.669	52.08
776.063	52.07
776.457	52.04
776.851	52.01
777.245	51.99
777.638	51.98
778.032	51.98
778.425	52
778.819	52.01
779.212	52.02
779.606	52.02
779.999	51.97
780.392	51.98
780.786	52.03
781.179	52.04
781.572	52.02
781.965	52.04
782.358	52.03
782.751	52.01
783.143	52.03
783.536	52.05
783.929	52.09
784.322	52.13
784.714	52.13
785.107	52.13
785.499	52.18
785.891	52.24
786.284	52.25
786.676	52.32
787.068	52.32
787.46	52.3
787.852	52.29
788.245	52.28
788.636	52.27
789.028	52.27
789.42	52.22
789.812	52.22
790.204	52.15
790.595	52.16
790.987	52.14
791.378	52.18
791.77	52.21
792.161	52.21
792.553	52.2
792.944	52.21
793.335	52.24
793.726	52.24
794.117	52.21
794.508	52.28
794.899	52.27
795.29	52.23
795.681	52.24
796.072	52.21
796.463	52.19
796.853	52.19
797.244	52.14
797.634	52.13
798.025	52.19
798.415	52.23
798.806	52.22
799.196	52.27
799.586	52.31
799.976	52.24
800.366	52.26
800.756	52.3
801.146	52.3
801.536	52.33
801.926	52.35
802.316	52.34
802.706	52.34
803.095	52.34
803.485	52.34
803.874	52.35
804.264	52.44
804.653	52.44
805.043	52.45
805.432	52.44
805.821	52.47
806.21	52.51
806.599	52.55
806.988	52.54
807.377	52.53
807.766	52.54
808.155	52.57
808.544	52.54
808.933	52.57
809.321	52.59
809.71	52.64
810.098	52.65
810.487	52.65
810.875	52.63
811.264	52.66
811.652	52.7
812.04	52.7
812.428	52.72
812.816	52.75
813.204	52.75
813.592	52.74
813.98	52.73
814.368	52.74
814.756	52.75
815.144	52.76
815.531	52.74
815.919	52.76
816.306	52.77
816.694	52.78
817.081	52.77
817.469	52.8
817.856	52.85
818.243	52.88
818.63	52.93
819.017	52.95
819.404	52.97
819.791	52.98
820.178	52.99
820.565	52.99
820.952	52.95
821.339	52.98
821.725	53.02
822.112	53.03
822.498	53.04
822.885	53.01
823.271	53.03
823.657	53.05
824.044	53.05
824.43	53.07
824.816	53.08
825.202	53.1
825.588	53.08
825.974	53.05
826.36	53.02
826.746	53.05
827.132	53.03
827.517	53.02
827.903	53
828.289	53.04
828.674	53.03
829.06	53.03
829.445	53.06
829.83	53.05
830.216	53.07
830.601	53.1
830.986	53.07
831.371	53.11
831.756	53.06
832.141	53.07
832.526	53.04
832.911	53.05
833.295	53.06
833.68	53.05
834.065	53.04
834.449	52.96
834.834	52.91
835.218	52.88
835.603	52.87
835.987	52.88
836.371	52.87
836.755	52.84
837.139	52.8
837.524	52.77
837.908	52.74
838.291	52.76
838.675	52.8
839.059	52.8
839.443	52.8
839.827	52.76
840.21	52.79
840.594	52.76
840.977	52.76
841.361	52.74
841.744	52.73
842.127	52.72
842.511	52.7
842.894	52.67
843.277	52.68
843.66	52.66
844.043	52.66
844.426	52.64
844.809	52.65
845.191	52.62
845.574	52.64
845.957	52.64
846.339	52.62
846.722	52.63
847.104	52.64
847.487	52.64
847.869	52.65
848.252	52.66
848.634	52.66
849.016	52.66
849.398	52.68
849.78	52.66
850.162	52.62
850.544	52.67
850.926	52.66
851.307	52.67
851.689	52.65
852.071	52.67
852.452	52.64
852.834	52.63
853.215	52.65
853.597	52.63
853.978	52.62
854.359	52.63
854.741	52.61
855.122	52.62
855.503	52.6
855.884	52.61
856.265	52.57
856.646	52.57
857.026	52.59
857.407	52.54
857.788	52.59
858.169	52.62
858.549	52.63
858.93	52.62
859.31	52.61
859.69	52.61
860.071	52.62
860.451	52.65
860.831	52.66
861.211	52.63
861.591	52.66
861.971	52.61
862.351	52.6
862.731	52.59
863.111	52.59
863.491	52.6
863.87	52.61
864.25	52.61
864.629	52.6
865.009	52.6
865.388	52.59
865.768	52.59
866.147	52.6
866.526	52.6
866.905	52.61
867.284	52.61
867.663	52.61
868.042	52.61
868.421	52.59
868.8	52.56
869.179	52.58
869.558	52.59
869.936	52.58
870.315	52.57
870.693	52.58
871.072	52.57
871.45	52.57
871.828	52.56
872.207	52.57
872.585	52.58
872.963	52.58
873.341	52.55
873.719	52.53
874.097	52.53
874.475	52.54
874.853	52.53
875.23	52.54
875.608	52.56
875.986	52.51
876.363	52.48
876.741	52.48
877.118	52.47
877.495	52.48
877.873	52.48
878.25	52.46
878.627	52.46
879.004	52.44
879.381	52.42
879.758	52.39
880.135	52.47
880.512	52.48
880.889	52.49
881.265	52.53
881.642	52.51
882.019	52.54
882.395	52.53
882.772	52.53
883.148	52.52
883.524	52.53
883.901	52.52
884.277	52.47
884.653	52.46
885.029	52.45
885.405	52.41
885.781	52.38
886.157	52.36
886.532	52.36
886.908	52.38
887.284	52.4
887.659	52.42
888.035	52.41
888.411	52.39
888.786	52.38
889.161	52.36
889.537	52.39
889.912	52.4
890.287	52.39
890.662	52.38
891.037	52.33
891.412	52.29
891.787	52.24
892.162	52.23
892.536	52.22
892.911	52.21
893.286	52.18
893.66	52.14
894.035	52.12
894.409	52.12
894.784	52.09
895.158	52.08
895.532	52.08
895.906	52.06
896.281	52.05
896.655	52.05
897.029	52.01
897.402	52.02
897.776	52.02
898.15	51.98
898.524	51.95
898.898	51.94
899.271	51.93
899.645	51.91
900.018	51.9
900.392	51.92
900.765	51.9
901.138	51.9
901.511	51.89
901.884	51.88
902.258	51.88
902.631	51.9
903.003	51.92
903.376	51.91
903.749	51.93
904.122	51.92
904.495	51.91
904.867	51.88
905.24	51.87
905.612	51.87
905.985	51.86
906.357	51.83
906.729	51.8
907.102	51.8
907.474	51.81
907.846	51.79
908.218	51.78
908.59	51.77
908.962	51.79
909.334	51.79
909.705	51.8
910.077	51.76
910.449	51.77
910.82	51.78
911.192	51.77
911.563	51.74
911.935	51.7
912.306	51.69
912.677	51.7
913.048	51.68
913.419	51.68
913.79	51.67
914.161	51.69
914.532	51.69
914.903	51.7
915.274	51.72
915.645	51.76
916.015	51.8
916.386	51.82
916.756	51.82
917.127	51.82
917.497	51.8
917.868	51.81
918.238	51.85
918.608	51.83
918.978	51.84
919.348	51.78
919.718	51.75
920.088	51.73
920.458	51.73
920.828	51.7
921.198	51.7
921.567	51.66
921.937	51.66
922.306	51.64
922.676	51.64
923.045	51.59
923.415	51.62
923.784	51.62
924.153	51.58
924.522	51.56
924.891	51.56
925.26	51.55
925.629	51.54
925.998	51.52
926.367	51.51
926.736	51.47
927.104	51.49
927.473	51.49
927.842	51.48
928.21	51.49
928.578	51.47
928.947	51.47
929.315	51.48
929.683	51.55
930.051	51.57
930.42	51.52
930.788	51.5
931.156	51.44
931.523	51.4
931.891	51.33
932.259	51.27
932.627	51.17
932.994	51.08
933.362	50.99
933.729	50.84
934.097	50.71
934.464	50.63
934.831	50.57
935.199	50.49
935.566	50.41
935.933	50.48
936.3	50.41
936.667	50.4
937.034	50.36
937.401	50.32
937.767	50.32
938.134	50.31
938.501	50.23
938.867	50.33
939.234	50.39
939.6	50.46
939.967	50.31
940.333	50.44
940.699	50.58
941.065	50.61
941.431	50.69
941.798	50.8
942.163	50.99
942.529	51.08
942.895	51.09
943.261	51.14
943.627	51.16
943.992	51.28
944.358	51.22
944.723	51.16
945.089	51.28
945.454	51.35
945.82	51.29
946.185	51.32
946.55	51.49
946.915	51.53
947.28	51.55
947.645	51.55
948.01	51.43
948.375	51.5
948.74	51.46
949.104	51.42
949.469	51.3
949.834	51.37
950.198	51.25
950.562	51.15
950.927	51.1
951.291	51.07
951.655	51.07
952.02	51.07
952.384	51.1
952.748	51.1
953.112	51.09
953.476	51.13
953.839	51.09
954.203	51.05
954.567	50.98
954.931	50.97
955.294	50.96
955.658	50.89
956.021	50.9
956.385	50.88
956.748	50.88
957.111	50.84
957.474	50.79
957.837	50.75
958.2	50.77
958.563	50.78
958.926	50.71
959.289	50.72
959.652	50.7
960.015	50.67
960.377	50.63
960.74	50.61
961.102	50.54
961.465	50.56
961.827	50.47
962.189	50.41
962.552	50.32
962.914	50.33
963.276	50.26
963.638	50.2
964	50.14
964.362	50.08
964.724	50.06
965.085	50.06
965.447	50.02
965.809	50.06
966.17	50.06
966.532	50.09
966.893	50.11
967.255	50.06
967.616	50.14
967.977	50.19
968.338	50.16
968.699	50.08
969.061	50.04
969.421	50.04
969.782	50.02
970.143	49.96
970.504	49.93
970.865	49.78
971.225	49.8
971.586	49.75
971.946	49.66
972.307	49.69
972.667	49.75
973.027	49.87
973.388	49.82
973.748	49.8
974.108	49.85
974.468	49.91
974.828	50.04
975.188	50.04
975.548	50.05
975.907	50.17
976.267	50.18
976.627	50.18
976.986	50.16
977.346	50.16
977.705	50.16
978.064	50.12
978.424	50.08
978.783	50.06
979.142	50
979.501	49.97
979.86	49.85
980.219	49.77
980.578	49.72
980.937	49.63
981.296	49.67
981.654	49.77
982.013	49.81
982.371	49.8
982.73	49.73
983.088	49.72
983.447	49.7
983.805	49.67
984.163	49.73
984.521	49.64
984.879	49.68
985.237	49.68
985.595	49.56
985.953	49.56
986.311	49.59
986.669	49.59
987.026	49.62
987.384	49.69
987.741	49.73
988.099	49.62
988.456	49.78
988.814	49.78
989.171	49.73
989.528	49.8
989.885	49.71
990.242	49.79
990.599	49.88
990.956	49.78
991.313	49.76
991.67	49.81
992.027	49.78
992.383	49.76
992.74	49.69
993.096	49.69
993.453	49.64
993.809	49.74
994.165	49.63
994.522	49.59
994.878	49.76
995.234	49.74
995.59	49.64
995.946	49.75
996.302	49.68
996.658	49.67
997.013	49.75
997.369	49.78
997.725	49.69
998.08	49.72
998.436	49.78
998.791	49.68
999.147	49.53
999.502	49.59
999.857	49.54
1000.212	49.48
1000.567	49.58
1000.922	49.46
1001.277	49.49
1001.632	49.68
1001.987	49.67
1002.342	49.57
1002.696	49.61
1003.051	49.62
1003.406	49.53
1003.76	49.61
1004.114	49.66
1004.469	49.65
1004.823	49.78
1005.177	49.88
1005.531	49.77
1005.885	49.82
1006.239	49.75
1006.593	49.69
1006.947	49.72
1007.301	49.83
1007.655	49.89
1008.008	49.77
1008.362	49.73
1008.715	49.7
1009.069	49.45
1009.422	49.24
1009.776	49.19
1010.129	49.16
1010.482	49.27
1010.835	49.35
1011.188	49.3
1011.541	49.07
1011.894	49.21
1012.247	49.26
1012.6	49.2
1012.952	49.22
1013.305	49.47
1013.657	49.45
1014.01	49.77
1014.362	49.77
1014.715	49.66
1015.067	49.73
1015.419	49.94
1015.771	50.07
1016.123	50.01
1016.475	50.12
1016.827	50.4
1017.179	50.41
1017.531	50.35
1017.883	50.42
1018.234	50.24
1018.586	50.26
1018.938	50.22
1019.289	50.19
1019.64	50.32
1019.992	50.39
1020.343	50.17
1020.694	49.86
1021.045	49.74
1021.396	49.87
1021.747	49.85
1022.098	50
1022.449	50.12
1022.8	50.03
1023.151	49.97
1023.501	50.03
1023.852	50.12
1024.202	50.3
1024.553	50.29
1024.903	50.12
1025.253	50.11
1025.604	50.3
1025.954	50.3
1026.304	50.78
1026.654	50.95
1027.004	51.26
1027.354	51.17
1027.703	50.87
1028.053	50.39
1028.403	50.37
1028.753	50.61
1029.102	50.38
1029.452	49.69
1029.801	49.54
1030.15	49.07
1030.499	48.94
897.758	551.57
901.051	560.8
904.343	568.39
907.636	557.14
910.928	546.4
914.22	557.07
917.511	542.28
920.803	521.76
924.094	500.44
927.384	505.32
930.675	493.37
933.965	487.44
937.255	486.05
940.544	462.43
943.834	444.22
947.123	438.78
950.411	414.47
953.7	409.52
956.988	395.89
960.276	378.61
963.563	372.67
966.851	351.12
970.138	343.59
973.424	321.02
976.711	317.48
979.997	306.29
983.283	298.61
986.568	288.46
989.853	280.07
993.138	269.19
996.423	266.65
999.708	259.51
1002.992	259.38
1006.275	250.81
1009.559	248.53
1012.842	241.31
1016.125	233.65
1019.408	230.21
1022.69	227.73
1025.972	224.9
1029.254	220.58
1032.536	215.83
1035.817	208.17
1039.098	205.76
1042.379	203.1
1045.659	200.64
1048.939	198.47
1052.219	195.13
1055.498	191.21
1058.778	188.02
1062.057	185.82
1065.335	184.04
1068.614	180.75
1071.892	178.48
1075.17	174.92
1078.447	172.41
1081.724	170.04
1085.001	165.3
1088.278	166.21
1091.554	164.25
1094.83	162.93
1098.106	160.22
1101.382	159.01
1104.657	158.16
1107.932	157.05
1111.206	156.03
1114.481	153.66
1117.755	152.73
1121.029	153.64
1124.302	149.8
1127.575	147.74
1130.848	147.47
1134.121	145.65
1137.393	145.31
1140.665	144.76
1143.937	143.41
1147.208	141.64
1150.48	140.53
1153.75	139.23
1157.021	137.23
1160.291	136.9
1163.561	136.55
1166.831	135.83
1170.101	134.74
1173.37	134.12
1176.639	132.58
1179.907	132.63
1183.176	131.54
1186.444	132.36
1189.711	131.29
1192.979	132.27
1196.246	132.28
1199.513	132.15
1202.78	131.52
1206.046	131.3
1209.312	133.01
1212.578	133.76
1215.843	136.27
1219.108	137.02
1222.373	138.45
1225.638	141.3
1228.902	144.62
1232.166	149.86
1235.43	151.81
1238.693	155.98
1241.956	160.03
1245.219	162.82
1248.482	163.58
1251.744	162.05
1255.006	163.2
1258.268	159.7
1261.529	158.45
1264.79	153.79
1268.051	150.07
1271.312	149.91
1274.572	146.9
1277.832	143.05
1281.092	140.86
1284.351	138.16
1287.61	138.26
1290.869	137.6
1294.128	137.07
1297.386	136.05
1300.644	135.7
1303.902	134.54
1307.159	133.16
1310.416	134.26
1313.673	136.24
1316.93	137.82
1320.186	140.36
1323.442	141.16
1326.697	143.34
1329.953	145.6
1333.208	151.05
1336.463	158.13
1339.717	161.86
1342.972	171.13
1346.226	175.5
1349.479	177.11
1352.733	184.12
1355.986	187.52
1359.238	192.77
1362.491	195.25
1365.743	202.35
1368.995	202.8
1372.247	203.48
1375.498	202.49
1378.749	207.93
1382	208.38
1385.251	207.86
1388.501	207.78
1391.751	210.65
1395	208.69
1398.25	210.87
1401.499	208.61
1404.748	209
1407.996	202.38
1411.244	203.17
1414.492	199.2
1417.74	193.71
1420.987	189.65
1424.234	185.81
1427.481	179.45
1430.728	174.98
1433.974	167.59
1437.22	163
1440.465	157.64
1443.711	152.94
1446.956	147.96
1450.201	143.01
1453.445	136.45
1456.689	132.31
1459.933	128.12
1463.177	122.42
1466.42	120.13
1469.663	117.12
1472.906	113.35
1476.148	110.27
1479.391	107.91
1482.633	105.67
1485.874	103.53
1489.115	102.96
1492.356	100.75
1495.597	98.73
1498.838	98.72
1502.078	97.56
1505.318	96.98
1508.557	96.52
1511.797	95.17
1515.036	94.45
1518.274	94.9
1521.513	93.22
1524.751	92.43
1527.989	93.51
1531.227	93.12
1534.464	92.68
1537.701	91.51
1540.938	91.23
1544.174	90.39
1547.41	90.98
1550.646	90.98
1553.882	90.15
1557.117	89.84
1560.352	89.34
1563.587	88.29
1566.821	88.33
1570.055	87.61
1573.289	87.61
1576.523	87.5
1579.756	87.6
1582.989	86.74
1586.222	86.99
1589.454	87.22
1592.686	87.16
1595.918	87.14
1599.15	87.21
1602.381	87.3
1605.612	87.46
1608.843	87.64
1612.073	87.82
1615.303	88.04
1618.533	88.39
1621.762	87.79
1624.992	87.97
1628.221	87.6
1631.449	88.19
1634.678	87.97
1637.906	87.97
1641.134	88.22
1644.361	88.02
1647.588	88.86
1650.815	88.9
1654.042	88.52
1657.269	88.76
1660.495	88.83
1663.72	88.92
1666.946	88.9
1670.171	89.4
1673.396	89.92
1676.621	89.9
1679.845	90.54
1683.069	90.02
1686.293	89.9
1689.517	90.32
1692.74	90.49
1695.963	90.35
1699.185	91.08
1702.408	90.87
1705.63	90.72
1708.852	91.33
1712.073	91.05
1715.294	90.99
1718.515	91.09
1721.736	91.15
1724.956	91.69
1728.176	91.52
1731.396	92.03
1734.616	92
1737.835	92.35
1741.054	92.04
1744.272	91.82
1747.491	91.84
1750.709	92.71
1753.927	92.86
1757.144	93.65
1760.361	93.21
1763.578	94.39
1766.795	94.54
1770.011	94.9
1773.227	95.07
1776.443	96.38
1779.658	96.05
1782.874	97.7
1786.089	96.73
1789.303	96.73
1792.518	97.69
1795.732	98.37
1798.945	98.69
1802.159	98.94
1805.372	100.17
1808.585	101.47
1811.797	101.96
1815.01	103
1818.222	102.65
1821.434	105.07
1824.645	105.47
1827.856	106.75
1831.067	107.75
1834.278	108.8
1837.488	109.51
1840.698	110.78
1843.908	110.68
1847.117	112.3
1850.326	113.39
1853.535	114.84
1856.744	115.48
1859.952	117.49
1863.16	117.45
1866.368	117.16
1869.575	118.09
1872.782	118.31
1875.989	117.55
1879.196	118.18
1882.402	117.02
1885.608	117.32
1888.814	117.07
1892.019	118.76
1895.224	117.44
1898.429	116.49
1901.634	117.54
1904.838	118.29
1908.042	119.83
1911.246	118.35
1914.449	118.5
1917.652	117.74
1920.855	118.39
1924.058	117.6
1927.26	115.73
1930.462	116.88
1933.664	117.53
1936.865	118.39
1940.066	116.09
1943.267	114.06
1946.467	116.45
1949.668	116.34
1952.868	118.36
1956.067	117.9
1959.267	118.42
1962.466	118.87
1965.665	120.82
1968.863	120.38
1972.061	121.54
1975.259	124.72
1978.457	127.46
1981.654	127.71
1984.852	128.62
1988.048	129.56
1991.245	130.58
1994.441	134.37
1997.637	136.77
2000.833	137.66
2004.028	141.46
2007.223	143.03
2010.418	145.18
2013.613	150.89
2016.807	154.92
2020.001	158.41
2023.194	162.49
2026.388	168.44
2029.581	175.63
2032.774	181.56
2035.966	187.36
2039.158	191.11
2042.35	194.82
2045.542	199.1
2048.733	205.48
2051.924	207.96
2055.115	212.58
2058.306	214.99
2061.496	219.5
2064.686	220.47
2067.875	218.01
2071.065	220.54
2074.254	220.66
2077.442	226.14
2080.631	227.86
2083.819	228.11
2087.007	233.49
2090.195	234.48
2093.382	234.96
2096.569	235.65
2099.756	237.32
2102.942	242.88
2106.128	247.34
2109.314	250.93
2112.5	252.68
2115.685	250.12
2118.87	250.85
2122.055	250.65
2125.239	257.14
2128.424	264.39
2131.608	263.77
2134.791	263.61
2137.974	265.2
2141.157	267.52
2144.34	269.01
2147.523	273.73
2150.705	282.24
2153.887	278.11
2157.068	281.1
2160.25	283.92
2163.431	283.51
2166.611	284.77
2169.792	289.64
2172.972	294.81
2176.152	294.47
2179.331	300.97
2182.511	301.97
2185.69	304.47
2188.868	318.26
2192.047	327.71
2195.225	331.41
2198.403	335.28
2201.58	334.79
2204.758	348.36
2207.935	347.51
2211.111	356.21
2214.288	358.2
2217.464	361.22
2220.64	361.58
2223.815	362.6
2226.991	357.37
2230.166	359.92
2233.34	368.77
2236.515	380.86
2239.689	372.14
2242.863	381.66
2246.036	376.63
2249.209	384.1
2252.382	381.66
2255.555	398.13
2258.727	402.04
2261.9	411.49
2265.071	417.6
2268.243	413.92
2271.414	422.69
2274.585	436.89
2277.756	434.02
2280.926	449.6
2284.096	454.78
2287.266	460.2
2290.436	447.67
2293.605	457.76
2296.774	473.9
2299.942	472.98
2303.111	487.6
2306.279	500.03
2309.447	499.67
2312.614	504.54
2315.781	516.29
2318.948	517.43
2322.115	527.91
2325.281	561.17
2328.447	554.06
2331.613	559.14
2334.779	567.65
2337.944	576.38
2341.109	585.82
2344.274	590.43
2347.438	600.48
2350.602	607.24
2353.766	658.99
2356.929	657.01
2360.092	664.73
2363.255	670.91
2366.418	677.92
2369.58	690.63
2372.742	691.95
2375.904	688.21
2379.066	707.19
2382.227	741.21
2385.388	748.83
2388.548	694.06
2391.709	691.51
2394.869	712.01
2398.029	712.92
2401.188	715.54
2404.347	733.21
2407.506	755.8
2410.665	733.17
2413.823	741.59
2416.981	750.74
2420.139	709.77
2423.296	773.94
2426.453	816.61
2429.61	779.72
2432.767	831.64
2435.923	857.38
2439.079	843.98
2442.235	858.32
2445.391	876.42
2448.546	862.92
2451.701	913.49
2454.855	977.91
2458.009	860.47
2461.163	882.43
2464.317	890.51
2467.471	870.34
2470.624	902.07
2473.777	876.95
2476.929	855.58
2480.082	904.39
2483.234	951.08
2486.385	961.88
2489.537	986.36
2492.688	1091.65
2495.839	1071.58
2498.989	1101.65
2502.14	1108.15
2505.29	1054.83
2508.439	1167.53
2511.589	1187.8
2514.738	1170.63
2517.887	1155.93
2521.035	1085.89
2524.183	1066.66
2527.331	1051.04
2530.479	1028.19
2533.627	1050.93
