Data from c_3_hir_wi_4n_Splice17_18.txt Node
Date: Sat Feb 29 14:52:47 EST 2020
User: sa697716
Spectrometer: FLMS03696
Trigger mode: 0
Integration Time (sec): 3.180400E-1
Scans to average: 20
Electric dark correction enabled: true
Nonlinearity correction enabled: true
Boxcar width: 5
XAxis mode: Wavelengths
Number of Pixels in Spectrum: 2048
>>>>>Begin Spectral Data<<<<<
187.83	74.28
188.298	72.79
188.766	72.29
189.233	66.47
189.701	75.27
190.169	75.13
190.636	81.19
191.104	102.05
191.571	475.95
192.039	466.83
192.506	-604.65
192.974	-1143.42
193.441	1.45
193.908	72.42
194.375	104.57
194.842	209.25
195.31	94.19
195.777	105.25
196.244	72.79
196.711	61.09
197.177	58.39
197.644	57.78
198.111	57.41
198.578	57.16
199.045	57.81
199.511	57.85
199.978	57.77
200.445	57.79
200.911	57.63
201.378	57.68
201.844	58.24
202.31	58.84
202.777	58.97
203.243	59.58
203.709	59.59
204.176	59.37
204.642	59.41
205.108	59.36
205.574	60.01
206.04	60.1
206.506	59.7
206.972	59.14
207.438	58.83
207.903	58.49
208.369	56.74
208.835	56.24
209.301	55.33
209.766	54.38
210.232	53.54
210.697	52.19
211.163	51.01
211.628	50.02
212.094	49.09
212.559	47.71
213.024	46.63
213.49	46.06
213.955	44.61
214.42	43.49
214.885	41.89
215.35	40.19
215.815	37.8
216.28	35.73
216.745	33.19
217.21	30.58
217.675	28.23
218.14	25.95
218.604	23.91
219.069	22.37
219.534	20.83
219.998	19.61
220.463	18.59
220.927	17.79
221.392	16.94
221.856	16.31
222.32	15.75
222.785	15.28
223.249	14.85
223.713	14.47
224.177	14.1
224.642	13.83
225.106	13.52
225.57	13.21
226.034	12.95
226.497	12.72
226.961	12.45
227.425	12.18
227.889	11.92
228.353	11.7
228.816	11.51
229.28	11.25
229.744	11.04
230.207	10.86
230.671	10.69
231.134	10.51
231.597	10.35
232.061	10.2
232.524	10.09
232.987	9.97
233.45	9.82
233.914	9.7
234.377	9.61
234.84	9.5
235.303	9.39
235.766	9.29
236.229	9.19
236.691	9.1
237.154	9.01
237.617	8.91
238.08	8.81
238.542	8.72
239.005	8.62
239.468	8.51
239.93	8.42
240.393	8.35
240.855	8.26
241.317	8.18
241.78	8.11
242.242	8.02
242.704	7.96
243.166	7.89
243.629	7.83
244.091	7.76
244.553	7.71
245.015	7.64
245.477	7.58
245.939	7.52
246.4	7.46
246.862	7.39
247.324	7.35
247.786	7.28
248.247	7.22
248.709	7.16
249.17	7.12
249.632	7.05
250.093	6.98
250.555	6.95
251.016	6.9
251.477	6.85
251.939	6.8
252.4	6.75
252.861	6.71
253.322	6.67
253.783	6.64
254.244	6.6
254.705	6.57
255.166	6.55
255.627	6.5
256.088	6.46
256.549	6.43
257.009	6.4
257.47	6.36
257.931	6.33
258.391	6.28
258.852	6.23
259.312	6.19
259.773	6.15
260.233	6.1
260.694	6.04
261.154	5.99
261.614	5.95
262.074	5.92
262.534	5.86
262.994	5.83
263.455	5.8
263.915	5.76
264.374	5.73
264.834	5.69
265.294	5.67
265.754	5.65
266.214	5.62
266.673	5.59
267.133	5.56
267.593	5.54
268.052	5.51
268.512	5.49
268.971	5.46
269.431	5.45
269.89	5.43
270.349	5.42
270.809	5.4
271.268	5.39
271.727	5.37
272.186	5.35
272.645	5.33
273.104	5.31
273.563	5.3
274.022	5.29
274.481	5.27
274.94	5.25
275.399	5.23
275.857	5.22
276.316	5.2
276.775	5.18
277.233	5.17
277.692	5.16
278.15	5.13
278.609	5.12
279.067	5.1
279.525	5.08
279.984	5.07
280.442	5.07
280.9	5.05
281.358	5.05
281.816	5.04
282.274	5.03
282.732	5.02
283.19	5.02
283.648	5.01
284.106	5.01
284.564	5.01
285.021	5
285.479	5
285.937	4.99
286.394	4.98
286.852	4.98
287.309	4.99
287.767	4.99
288.224	4.98
288.682	4.97
289.139	4.96
289.596	4.95
290.053	4.92
290.511	4.9
290.968	4.89
291.425	4.87
291.882	4.84
292.339	4.82
292.796	4.8
293.252	4.77
293.709	4.75
294.166	4.74
294.623	4.72
295.079	4.72
295.536	4.71
295.992	4.69
296.449	4.68
296.905	4.67
297.362	4.65
297.818	4.64
298.274	4.64
298.731	4.63
299.187	4.61
299.643	4.6
300.099	4.59
300.555	4.58
301.011	4.57
301.467	4.56
301.923	4.56
302.379	4.56
302.835	4.55
303.291	4.54
303.746	4.53
304.202	4.52
304.658	4.52
305.113	4.51
305.569	4.51
306.024	4.5
306.479	4.5
306.935	4.49
307.39	4.48
307.845	4.48
308.301	4.48
308.756	4.48
309.211	4.49
309.666	4.5
310.121	4.49
310.576	4.5
311.031	4.51
311.486	4.51
311.94	4.51
312.395	4.52
312.85	4.51
313.305	4.51
313.759	4.52
314.214	4.51
314.668	4.51
315.123	4.51
315.577	4.51
316.032	4.5
316.486	4.5
316.94	4.49
317.394	4.48
317.849	4.48
318.303	4.47
318.757	4.45
319.211	4.43
319.665	4.42
320.119	4.4
320.572	4.39
321.026	4.39
321.48	4.38
321.934	4.37
322.387	4.37
322.841	4.37
323.295	4.35
323.748	4.35
324.202	4.35
324.655	4.35
325.108	4.34
325.562	4.34
326.015	4.33
326.468	4.31
326.921	4.3
327.374	4.29
327.827	4.29
328.28	4.28
328.733	4.27
329.186	4.28
329.639	4.26
330.092	4.26
330.545	4.27
330.997	4.27
331.45	4.27
331.903	4.27
332.355	4.27
332.808	4.27
333.26	4.28
333.713	4.29
334.165	4.29
334.617	4.3
335.069	4.3
335.522	4.31
335.974	4.31
336.426	4.32
336.878	4.31
337.33	4.32
337.782	4.32
338.234	4.33
338.686	4.32
339.137	4.32
339.589	4.32
340.041	4.31
340.493	4.29
340.944	4.29
341.396	4.29
341.847	4.28
342.299	4.25
342.75	4.24
343.201	4.23
343.653	4.22
344.104	4.2
344.555	4.19
345.006	4.18
345.457	4.18
345.908	4.16
346.359	4.16
346.81	4.16
347.261	4.16
347.712	4.16
348.163	4.16
348.613	4.15
349.064	4.14
349.515	4.14
349.965	4.14
350.416	4.14
350.866	4.15
351.317	4.13
351.767	4.13
352.217	4.13
352.668	4.12
353.118	4.14
353.568	4.15
354.018	4.16
354.468	4.16
354.918	4.17
355.368	4.19
355.818	4.18
356.268	4.2
356.718	4.2
357.168	4.21
357.617	4.22
358.067	4.22
358.517	4.23
358.966	4.24
359.416	4.24
359.865	4.25
360.315	4.26
360.764	4.28
361.213	4.28
361.663	4.3
362.112	4.31
362.561	4.33
363.01	4.35
363.459	4.36
363.908	4.38
364.357	4.4
364.806	4.42
365.255	4.44
365.703	4.46
366.152	4.5
366.601	4.51
367.05	4.55
367.498	4.58
367.947	4.6
368.395	4.64
368.844	4.66
369.292	4.69
369.74	4.73
370.189	4.76
370.637	4.8
371.085	4.82
371.533	4.86
371.981	4.89
372.429	4.92
372.877	4.96
373.325	5
373.773	5.04
374.221	5.08
374.669	5.11
375.116	5.15
375.564	5.18
376.012	5.23
376.459	5.27
376.907	5.31
377.354	5.35
377.801	5.39
378.249	5.44
378.696	5.5
379.143	5.54
379.591	5.58
380.038	5.64
380.485	5.69
380.932	5.75
381.379	5.79
381.826	5.83
382.273	5.89
382.72	5.93
383.166	5.97
383.613	6
384.06	6.04
384.506	6.08
384.953	6.09
385.4	6.13
385.846	6.15
386.292	6.19
386.739	6.23
387.185	6.26
387.631	6.3
388.078	6.33
388.524	6.35
388.97	6.37
389.416	6.4
389.862	6.44
390.308	6.45
390.754	6.49
391.2	6.51
391.645	6.54
392.091	6.56
392.537	6.58
392.983	6.61
393.428	6.65
393.874	6.7
394.319	6.73
394.765	6.75
395.21	6.75
395.655	6.76
396.101	6.78
396.546	6.78
396.991	6.79
397.436	6.78
397.881	6.79
398.326	6.79
398.771	6.79
399.216	6.81
399.661	6.82
400.106	6.85
400.551	6.85
400.995	6.84
401.44	6.84
401.885	6.84
402.329	6.83
402.774	6.81
403.218	6.8
403.663	6.78
404.107	6.78
404.551	6.78
404.995	6.76
405.44	6.75
405.884	6.75
406.328	6.75
406.772	6.74
407.216	6.75
407.66	6.76
408.104	6.76
408.547	6.76
408.991	6.73
409.435	6.7
409.879	6.7
410.322	6.7
410.766	6.71
411.209	6.7
411.653	6.69
412.096	6.69
412.54	6.68
412.983	6.68
413.426	6.68
413.869	6.7
414.312	6.73
414.756	6.75
415.199	6.76
415.642	6.77
416.085	6.79
416.527	6.81
416.97	6.83
417.413	6.82
417.856	6.81
418.298	6.8
418.741	6.79
419.184	6.78
419.626	6.77
420.069	6.77
420.511	6.75
420.953	6.71
421.396	6.71
421.838	6.7
422.28	6.72
422.722	6.75
423.164	6.76
423.606	6.78
424.048	6.78
424.49	6.8
424.932	6.78
425.374	6.77
425.816	6.76
426.258	6.74
426.699	6.69
427.141	6.64
427.582	6.61
428.024	6.6
428.465	6.6
428.907	6.61
429.348	6.59
429.789	6.58
430.231	6.57
430.672	6.58
431.113	6.59
431.554	6.61
431.995	6.64
432.436	6.64
432.877	6.62
433.318	6.59
433.759	6.57
434.2	6.56
434.64	6.57
435.081	6.57
435.522	6.59
435.962	6.62
436.403	6.65
436.843	6.66
437.284	6.66
437.724	6.7
438.164	6.72
438.604	6.75
439.045	6.77
439.485	6.78
439.925	6.79
440.365	6.77
440.805	6.77
441.245	6.76
441.685	6.77
442.125	6.77
442.564	6.79
443.004	6.8
443.444	6.81
443.883	6.82
444.323	6.83
444.762	6.87
445.202	6.91
445.641	6.93
446.081	6.99
446.52	6.99
446.959	7.02
447.398	7.06
447.837	7.1
448.276	7.11
448.716	7.13
449.154	7.17
449.593	7.18
450.032	7.17
450.471	7.2
450.91	7.2
451.349	7.2
451.787	7.2
452.226	7.2
452.664	7.18
453.103	7.17
453.541	7.17
453.98	7.14
454.418	7.12
454.856	7.1
455.295	7.06
455.733	7.04
456.171	7.04
456.609	7.02
457.047	7
457.485	7
457.923	6.99
458.361	6.97
458.798	6.96
459.236	6.97
459.674	6.98
460.111	6.98
460.549	6.98
460.987	6.98
461.424	6.97
461.862	6.97
462.299	6.97
462.736	6.97
463.173	6.97
463.611	6.97
464.048	6.96
464.485	6.95
464.922	6.94
465.359	6.94
465.796	6.91
466.233	6.92
466.67	6.92
467.106	6.92
467.543	6.92
467.98	6.91
468.416	6.93
468.853	6.92
469.29	6.94
469.726	6.94
470.162	6.94
470.599	6.96
471.035	6.96
471.471	6.94
471.907	6.96
472.344	6.97
472.78	6.98
473.216	6.96
473.652	6.96
474.088	6.97
474.523	6.96
474.959	6.95
475.395	6.94
475.831	6.92
476.266	6.92
476.702	6.9
477.138	6.88
477.573	6.87
478.008	6.86
478.444	6.84
478.879	6.85
479.314	6.83
479.75	6.84
480.185	6.84
480.62	6.84
481.055	6.84
481.49	6.82
481.925	6.82
482.36	6.81
482.795	6.78
483.229	6.78
483.664	6.77
484.099	6.78
484.534	6.78
484.968	6.78
485.403	6.78
485.837	6.79
486.271	6.8
486.706	6.8
487.14	6.82
487.574	6.85
488.009	6.87
488.443	6.88
488.877	6.89
489.311	6.91
489.745	6.94
490.179	6.96
490.613	6.98
491.046	7.02
491.48	7.06
491.914	7.09
492.348	7.13
492.781	7.17
493.215	7.21
493.648	7.27
494.082	7.33
494.515	7.36
494.948	7.42
495.382	7.49
495.815	7.55
496.248	7.62
496.681	7.69
497.114	7.78
497.547	7.87
497.98	7.95
498.413	8.03
498.846	8.12
499.279	8.23
499.711	8.32
500.144	8.42
500.577	8.52
501.009	8.64
501.442	8.77
501.874	8.88
502.306	9.02
502.739	9.15
503.171	9.3
503.603	9.45
504.036	9.61
504.468	9.8
504.9	9.98
505.332	10.16
505.764	10.35
506.196	10.53
506.627	10.74
507.059	10.92
507.491	11.14
507.923	11.35
508.354	11.58
508.786	11.79
509.217	12
509.649	12.23
510.08	12.47
510.512	12.71
510.943	12.99
511.374	13.23
511.805	13.51
512.237	13.79
512.668	14.05
513.099	14.31
513.53	14.61
513.961	14.91
514.391	15.2
514.822	15.48
515.253	15.77
515.684	16.03
516.114	16.32
516.545	16.62
516.975	16.91
517.406	17.23
517.836	17.53
518.267	17.83
518.697	18.11
519.127	18.42
519.558	18.71
519.988	19.01
520.418	19.3
520.848	19.59
521.278	19.87
521.708	19.99
522.138	20.23
522.567	20.49
522.997	20.75
523.427	20.99
523.857	21.21
524.286	21.45
524.716	21.67
525.145	21.92
525.575	22.12
526.004	22.32
526.433	22.67
526.863	22.89
527.292	23.07
527.721	23.24
528.15	23.41
528.579	23.59
529.008	23.74
529.437	23.89
529.866	24.01
530.295	24.16
530.724	24.31
531.152	24.42
531.581	24.53
532.01	24.66
532.438	24.76
532.867	24.87
533.295	24.96
533.723	25.05
534.152	25.14
534.58	25.2
535.008	25.26
535.436	25.3
535.865	25.35
536.293	25.41
536.721	25.45
537.149	25.49
537.576	25.53
538.004	25.55
538.432	25.58
538.86	25.63
539.287	25.66
539.715	25.69
540.143	25.74
540.57	25.78
540.998	25.8
541.425	25.84
541.852	25.87
542.28	25.9
542.707	25.96
543.134	25.97
543.561	25.98
543.988	26.03
544.415	26.07
544.842	26.1
545.269	26.13
545.696	26.15
546.123	26.19
546.549	26.23
546.976	26.26
547.403	26.28
547.829	26.33
548.256	26.36
548.682	26.35
549.108	26.37
549.535	26.37
549.961	26.38
550.387	26.38
550.813	26.36
551.24	26.36
551.666	26.37
552.092	26.35
552.518	26.35
552.943	26.36
553.369	26.35
553.795	26.36
554.221	26.34
554.646	26.32
555.072	26.3
555.498	26.28
555.923	26.25
556.349	26.18
556.774	26.13
557.199	26.08
557.625	26
558.05	25.94
558.475	25.84
558.9	25.78
559.325	25.7
559.75	25.6
560.175	25.49
560.6	25.39
561.025	25.3
561.449	25.19
561.874	25.1
562.299	24.99
562.723	24.88
563.148	24.75
563.572	24.63
563.997	24.49
564.421	24.38
564.846	24.23
565.27	24.09
565.694	23.94
566.118	23.78
566.542	23.61
566.966	23.44
567.39	23.27
567.814	23.1
568.238	22.91
568.662	22.76
569.086	22.57
569.509	22.41
569.933	22.23
570.357	22.05
570.78	21.9
571.204	21.73
571.627	21.58
572.05	21.43
572.474	21.28
572.897	21.14
573.32	20.99
573.743	20.86
574.166	20.72
574.589	20.61
575.012	20.51
575.435	20.38
575.858	20.28
576.281	20.15
576.704	20.05
577.126	19.96
577.549	19.86
577.972	19.78
578.394	19.68
578.817	19.59
579.239	19.49
579.661	19.39
580.084	19.31
580.506	19.22
580.928	19.16
581.35	19.08
581.772	19
582.194	18.92
582.616	18.83
583.038	18.77
583.46	18.71
583.882	18.65
584.303	18.57
584.725	18.5
585.147	18.4
585.568	18.31
585.99	18.26
586.411	18.19
586.833	18.13
587.254	18.08
587.675	18.01
588.096	17.95
588.518	17.89
588.939	17.85
589.36	17.8
589.781	17.77
590.202	17.75
590.623	17.69
591.043	17.66
591.464	17.62
591.885	17.58
592.305	17.54
592.726	17.5
593.147	17.48
593.567	17.44
593.987	17.42
594.408	17.39
594.828	17.36
595.248	17.33
595.669	17.29
596.089	17.25
596.509	17.21
596.929	17.18
597.349	17.14
597.769	17.07
598.189	17.03
598.608	16.99
599.028	16.94
599.448	16.91
599.867	16.86
600.287	16.82
600.706	16.78
601.126	16.73
601.545	16.68
601.965	16.63
602.384	16.6
602.803	16.53
603.222	16.48
603.641	16.43
604.061	16.35
604.48	16.27
604.898	16.19
605.317	16.1
605.736	16.04
606.155	15.96
606.574	15.89
606.992	15.8
607.411	15.74
607.829	15.6
608.248	15.52
608.666	15.44
609.085	15.36
609.503	15.28
609.921	15.21
610.339	15.14
610.758	15.06
611.176	14.97
611.594	14.9
612.012	14.81
612.43	14.79
612.847	14.72
613.265	14.65
613.683	14.57
614.101	14.49
614.518	14.4
614.936	14.32
615.353	14.23
615.771	14.16
616.188	14.1
616.606	14.03
617.023	13.96
617.44	13.89
617.857	13.83
618.274	13.8
618.691	13.77
619.108	13.73
619.525	13.7
619.942	13.66
620.359	13.64
620.776	13.59
621.192	13.56
621.609	13.52
622.026	13.5
622.442	13.46
622.859	13.43
623.275	13.41
623.691	13.39
624.108	13.38
624.524	13.35
624.94	13.34
625.356	13.33
625.772	13.33
626.188	13.34
626.604	13.32
627.02	13.31
627.436	13.3
627.852	13.27
628.268	13.25
628.683	13.22
629.099	13.21
629.514	13.17
629.93	13.15
630.345	13.1
630.761	13.06
631.176	13.02
631.591	12.97
632.007	12.93
632.422	12.9
632.837	12.85
633.252	12.8
633.667	12.74
634.082	12.69
634.497	12.61
634.911	12.54
635.326	12.45
635.741	12.36
636.155	12.28
636.57	12.17
636.984	12.04
637.399	11.93
637.813	11.79
638.228	11.68
638.642	11.54
639.056	11.41
639.47	11.29
639.884	11.17
640.298	11.05
640.712	10.92
641.126	10.8
641.54	10.69
641.954	10.59
642.368	10.48
642.781	10.35
643.195	10.23
643.609	10.13
644.022	10.03
644.436	9.93
644.849	9.83
645.262	9.74
645.676	9.64
646.089	9.56
646.502	9.45
646.915	9.39
647.328	9.34
647.741	9.28
648.154	9.22
648.567	9.18
648.98	9.13
649.393	9.08
649.805	9.03
650.218	8.98
650.631	8.94
651.043	8.91
651.456	8.88
651.868	8.83
652.28	8.79
652.693	8.75
653.105	8.71
653.517	8.66
653.929	8.61
654.341	8.57
654.753	8.52
655.165	8.46
655.577	8.39
655.989	8.3
656.401	8.22
656.813	8.15
657.224	8.07
657.636	7.99
658.047	7.91
658.459	7.82
658.87	7.73
659.282	7.66
659.693	7.57
660.104	7.49
660.515	7.42
660.926	7.35
661.338	7.28
661.749	7.19
662.159	7.12
662.57	7.05
662.981	6.98
663.392	6.93
663.803	6.86
664.213	6.81
664.624	6.77
665.035	6.71
665.445	6.67
665.855	6.63
666.266	6.59
666.676	6.56
667.086	6.53
667.497	6.5
667.907	6.46
668.317	6.43
668.727	6.42
669.137	6.39
669.547	6.39
669.956	6.37
670.366	6.37
670.776	6.35
671.186	6.34
671.595	6.36
672.005	6.36
672.414	6.37
672.824	6.39
673.233	6.4
673.642	6.4
674.052	6.41
674.461	6.43
674.87	6.45
675.279	6.49
675.688	6.52
676.097	6.55
676.506	6.58
676.915	6.63
677.323	6.67
677.732	6.7
678.141	6.77
678.549	6.83
678.958	6.88
679.366	6.93
679.775	6.99
680.183	7.06
680.592	7.14
681	7.23
681.408	7.31
681.816	7.4
682.224	7.51
682.632	7.63
683.04	7.76
683.448	7.92
683.856	8.08
684.264	8.28
684.671	8.49
685.079	8.7
685.487	8.95
685.894	9.23
686.302	9.53
686.709	9.84
687.116	10.18
687.524	10.54
687.931	10.93
688.338	11.37
688.745	11.82
689.152	12.28
689.559	12.77
689.966	13.26
690.373	13.79
690.78	14.32
691.187	14.91
691.593	15.47
692	16.05
692.407	16.64
692.813	17.23
693.22	17.82
693.626	18.45
694.032	19.07
694.439	19.7
694.845	20.32
695.251	20.93
695.657	21.54
696.063	22.15
696.469	22.76
696.875	23.34
697.281	23.91
697.687	24.5
698.093	25.07
698.498	25.64
698.904	26.19
699.31	26.73
699.715	27.3
700.12	27.84
700.526	28.39
700.931	28.91
701.337	29.45
701.742	29.97
702.147	30.46
702.552	30.96
702.957	31.43
703.362	31.92
703.767	32.39
704.172	32.83
704.577	33.25
704.981	33.69
705.386	34.11
705.791	34.54
706.195	34.95
706.6	35.36
707.004	35.74
707.408	36.15
707.813	36.54
708.217	36.91
708.621	37.28
709.025	37.65
709.43	38
709.834	38.39
710.237	38.72
710.641	39.08
711.045	39.4
711.449	39.72
711.853	40.06
712.256	40.37
712.66	40.7
713.064	41.04
713.467	41.33
713.87	41.63
714.274	41.94
714.677	42.2
715.08	42.46
715.484	42.77
715.887	43.06
716.29	43.34
716.693	43.58
717.096	43.84
717.499	44.08
717.901	44.32
718.304	44.57
718.707	44.78
719.109	45.05
719.512	45.32
719.915	45.54
720.317	45.78
720.719	45.97
721.122	46.2
721.524	46.42
721.926	46.62
722.328	46.81
722.731	47.03
723.133	47.22
723.535	47.39
723.937	47.55
724.338	47.69
724.74	47.84
725.142	47.9
725.544	48.07
725.945	48.19
726.347	48.33
726.748	48.45
727.15	48.55
727.551	48.69
727.952	48.83
728.354	48.99
728.755	49.11
729.156	49.25
729.557	49.45
729.958	49.55
730.359	49.67
730.76	49.77
731.161	49.9
731.562	49.99
731.962	50.08
732.363	50.15
732.763	50.22
733.164	50.3
733.564	50.36
733.965	50.42
734.365	50.49
734.766	50.55
735.166	50.58
735.566	50.62
735.966	50.67
736.366	50.7
736.766	50.75
737.166	50.79
737.566	50.85
737.966	50.9
738.365	50.94
738.765	50.99
739.165	50.99
739.564	51.07
739.964	51.1
740.363	51.13
740.763	51.17
741.162	51.19
741.561	51.23
741.96	51.23
742.36	51.28
742.759	51.3
743.158	51.31
743.557	51.39
743.955	51.43
744.354	51.51
744.753	51.57
745.152	51.61
745.55	51.67
745.949	51.69
746.348	51.75
746.746	51.78
747.144	51.83
747.543	51.87
747.941	51.91
748.339	51.93
748.737	51.97
749.136	52
749.534	52.06
749.932	52.06
750.33	52.1
750.727	52.1
751.125	52.1
751.523	52.11
751.921	52.15
752.318	52.14
752.716	52.11
753.113	52.1
753.511	52.07
753.908	52.03
754.305	52
754.703	51.96
755.1	51.92
755.497	51.89
755.894	51.87
756.291	51.83
756.688	51.78
757.085	51.76
757.482	51.7
757.878	51.68
758.275	51.64
758.672	51.64
759.068	51.65
759.465	51.66
759.861	51.64
760.258	51.59
760.654	51.57
761.05	51.56
761.447	51.56
761.843	51.52
762.239	51.52
762.635	51.53
763.031	51.55
763.427	51.54
763.822	51.52
764.218	51.53
764.614	51.53
765.01	51.52
765.405	51.51
765.801	51.5
766.196	51.54
766.592	51.52
766.987	51.54
767.382	51.55
767.778	51.53
768.173	51.55
768.568	51.53
768.963	51.55
769.358	51.57
769.753	51.62
770.148	51.63
770.542	51.62
770.937	51.62
771.332	51.58
771.726	51.57
772.121	51.56
772.515	51.55
772.91	51.57
773.304	51.54
773.699	51.53
774.093	51.5
774.487	51.52
774.881	51.56
775.275	51.59
775.669	51.61
776.063	51.58
776.457	51.59
776.851	51.59
777.245	51.6
777.638	51.61
778.032	51.63
778.425	51.64
778.819	51.6
779.212	51.56
779.606	51.55
779.999	51.55
780.392	51.54
780.786	51.56
781.179	51.56
781.572	51.53
781.965	51.53
782.358	51.51
782.751	51.53
783.143	51.56
783.536	51.62
783.929	51.63
784.322	51.66
784.714	51.71
785.107	51.72
785.499	51.7
785.891	51.73
786.284	51.72
786.676	51.76
787.068	51.75
787.46	51.74
787.852	51.7
788.245	51.72
788.636	51.71
789.028	51.68
789.42	51.62
789.812	51.65
790.204	51.6
790.595	51.63
790.987	51.62
791.378	51.64
791.77	51.67
792.161	51.69
792.553	51.65
792.944	51.68
793.335	51.73
793.726	51.74
794.117	51.74
794.508	51.77
794.899	51.76
795.29	51.76
795.681	51.75
796.072	51.73
796.463	51.72
796.853	51.74
797.244	51.73
797.634	51.7
798.025	51.76
798.415	51.79
798.806	51.81
799.196	51.87
799.586	51.89
799.976	51.91
800.366	51.93
800.756	51.97
801.146	51.97
801.536	51.97
801.926	51.97
802.316	51.98
802.706	51.97
803.095	51.99
803.485	51.96
803.874	51.96
804.264	51.97
804.653	51.99
805.043	52.01
805.432	51.99
805.821	51.99
806.21	52.07
806.599	52.08
806.988	52.09
807.377	52.11
807.766	52.14
808.155	52.16
808.544	52.16
808.933	52.17
809.321	52.18
809.71	52.25
810.098	52.29
810.487	52.26
810.875	52.27
811.264	52.28
811.652	52.3
812.04	52.3
812.428	52.34
812.816	52.37
813.204	52.34
813.592	52.33
813.98	52.31
814.368	52.31
814.756	52.31
815.144	52.3
815.531	52.33
815.919	52.31
816.306	52.34
816.694	52.35
817.081	52.33
817.469	52.36
817.856	52.42
818.243	52.45
818.63	52.47
819.017	52.51
819.404	52.51
819.791	52.51
820.178	52.54
820.565	52.54
820.952	52.5
821.339	52.53
821.725	52.57
822.112	52.57
822.498	52.58
822.885	52.56
823.271	52.56
823.657	52.56
824.044	52.51
824.43	52.54
824.816	52.54
825.202	52.57
825.588	52.6
825.974	52.58
826.36	52.52
826.746	52.54
827.132	52.51
827.517	52.5
827.903	52.53
828.289	52.58
828.674	52.55
829.06	52.55
829.445	52.54
829.83	52.5
830.216	52.5
830.601	52.5
830.986	52.47
831.371	52.49
831.756	52.45
832.141	52.43
832.526	52.41
832.911	52.4
833.295	52.41
833.68	52.41
834.065	52.41
834.449	52.37
834.834	52.33
835.218	52.34
835.603	52.33
835.987	52.32
836.371	52.32
836.755	52.3
837.139	52.29
837.524	52.26
837.908	52.22
838.291	52.2
838.675	52.18
839.059	52.2
839.443	52.15
839.827	52.16
840.21	52.18
840.594	52.15
840.977	52.09
841.361	52.09
841.744	52.1
842.127	52.09
842.511	52.11
842.894	52.12
843.277	52.11
843.66	52.11
844.043	52.09
844.426	52.07
844.809	52.05
845.191	52.07
845.574	52.05
845.957	52
846.339	51.99
846.722	51.97
847.104	51.98
847.487	52
847.869	52.01
848.252	51.99
848.634	52.02
849.016	52.03
849.398	52.03
849.78	52.04
850.162	52.06
850.544	52.08
850.926	52.08
851.307	52.1
851.689	52.08
852.071	52.06
852.452	52.06
852.834	52.03
853.215	52.04
853.597	52.04
853.978	51.99
854.359	51.97
854.741	51.96
855.122	51.95
855.503	51.94
855.884	51.96
856.265	51.97
856.646	51.99
857.026	51.99
857.407	51.95
857.788	51.97
858.169	52
858.549	52.03
858.93	52.03
859.31	52.01
859.69	51.97
860.071	51.95
860.451	51.95
860.831	51.95
861.211	51.96
861.591	52
861.971	51.98
862.351	51.98
862.731	51.96
863.111	51.96
863.491	51.98
863.87	51.98
864.25	51.98
864.629	51.99
865.009	51.99
865.388	51.97
865.768	51.98
866.147	52.01
866.526	52
866.905	52
867.284	52
867.663	52
868.042	52.05
868.421	52.05
868.8	52.03
869.179	52.02
869.558	52.03
869.936	51.99
870.315	52
870.693	52
871.072	51.98
871.45	51.94
871.828	51.9
872.207	51.87
872.585	51.87
872.963	51.85
873.341	51.85
873.719	51.85
874.097	51.84
874.475	51.85
874.853	51.86
875.23	51.87
875.608	51.91
875.986	51.93
876.363	51.92
876.741	51.9
877.118	51.9
877.495	51.91
877.873	51.87
878.25	51.86
878.627	51.84
879.004	51.85
879.381	51.87
879.758	51.85
880.135	51.88
880.512	51.91
880.889	51.93
881.265	51.96
881.642	51.96
882.019	51.99
882.395	52.02
882.772	52.05
883.148	52.04
883.524	52.04
883.901	52.07
884.277	52.04
884.653	52.01
885.029	52.01
885.405	52
885.781	51.98
886.157	52
886.532	52
886.908	51.98
887.284	51.98
887.659	51.95
888.035	51.91
888.411	51.89
888.786	51.88
889.161	51.87
889.537	51.85
889.912	51.84
890.287	51.78
890.662	51.73
891.037	51.67
891.412	51.63
891.787	51.63
892.162	51.6
892.536	51.58
892.911	51.54
893.286	51.49
893.66	51.43
894.035	51.4
894.409	51.4
894.784	51.4
895.158	51.41
895.532	51.38
895.906	51.34
896.281	51.32
896.655	51.31
897.029	51.31
897.402	51.31
897.776	51.33
898.15	51.34
898.524	51.32
898.898	51.28
899.271	51.28
899.645	51.3
900.018	51.32
900.392	51.35
900.765	51.36
901.138	51.36
901.511	51.36
901.884	51.39
902.258	51.37
902.631	51.37
903.003	51.39
903.376	51.36
903.749	51.36
904.122	51.37
904.495	51.36
904.867	51.37
905.24	51.38
905.612	51.37
905.985	51.36
906.357	51.34
906.729	51.36
907.102	51.37
907.474	51.37
907.846	51.34
908.218	51.33
908.59	51.3
908.962	51.31
909.334	51.31
909.705	51.31
910.077	51.29
910.449	51.31
910.82	51.3
911.192	51.28
911.563	51.3
911.935	51.29
912.306	51.3
912.677	51.32
913.048	51.29
913.419	51.27
913.79	51.29
914.161	51.31
914.532	51.28
914.903	51.31
915.274	51.33
915.645	51.3
916.015	51.34
916.386	51.32
916.756	51.28
917.127	51.29
917.497	51.31
917.868	51.31
918.238	51.34
918.608	51.33
918.978	51.3
919.348	51.27
919.718	51.3
920.088	51.28
920.458	51.32
920.828	51.36
921.198	51.37
921.567	51.36
921.937	51.32
922.306	51.31
922.676	51.33
923.045	51.31
923.415	51.33
923.784	51.32
924.153	51.28
924.522	51.26
924.891	51.29
925.26	51.28
925.629	51.32
925.998	51.35
926.367	51.33
926.736	51.32
927.104	51.36
927.473	51.35
927.842	51.35
928.21	51.41
928.578	51.41
928.947	51.33
929.315	51.32
929.683	51.28
930.051	51.27
930.42	51.26
930.788	51.25
931.156	51.21
931.523	51.17
931.891	51.1
932.259	51.03
932.627	50.94
932.994	50.92
933.362	50.83
933.729	50.71
934.097	50.61
934.464	50.54
934.831	50.47
935.199	50.42
935.566	50.4
935.933	50.5
936.3	50.45
936.667	50.5
937.034	50.43
937.401	50.41
937.767	50.48
938.134	50.49
938.501	50.48
938.867	50.51
939.234	50.58
939.6	50.66
939.967	50.58
940.333	50.72
940.699	50.75
941.065	50.93
941.431	51.08
941.798	51.18
942.163	51.31
942.529	51.49
942.895	51.6
943.261	51.64
943.627	51.67
943.992	51.74
944.358	51.72
944.723	51.73
945.089	51.76
945.454	51.81
945.82	51.86
946.185	51.91
946.55	51.94
946.915	51.95
947.28	51.97
947.645	52.01
948.01	51.97
948.375	52.03
948.74	52
949.104	51.93
949.469	51.82
949.834	51.72
950.198	51.66
950.562	51.6
950.927	51.58
951.291	51.53
951.655	51.51
952.02	51.44
952.384	51.43
952.748	51.4
953.112	51.36
953.476	51.34
953.839	51.32
954.203	51.29
954.567	51.25
954.931	51.22
955.294	51.17
955.658	51.01
956.021	51.03
956.385	50.95
956.748	50.92
957.111	50.89
957.474	50.93
957.837	50.9
958.2	50.77
958.563	50.78
958.926	50.72
959.289	50.74
959.652	50.82
960.015	50.8
960.377	50.79
960.74	50.73
961.102	50.69
961.465	50.62
961.827	50.5
962.189	50.48
962.552	50.35
962.914	50.32
963.276	50.29
963.638	50.22
964	50.16
964.362	50.12
964.724	50.19
965.085	50.19
965.447	50.1
965.809	50.13
966.17	50.19
966.532	50.32
966.893	50.35
967.255	50.27
967.616	50.29
967.977	50.31
968.338	50.31
968.699	50.24
969.061	50.27
969.421	50.32
969.782	50.39
970.143	50.34
970.504	50.27
970.865	50.21
971.225	50.22
971.586	50.25
971.946	50.19
972.307	50.19
972.667	50.22
973.027	50.2
973.388	50.22
973.748	50.15
974.108	50.13
974.468	50.12
974.828	50.08
975.188	50.1
975.548	50.06
975.907	50.07
976.267	50.06
976.627	50.07
976.986	50.05
977.346	49.97
977.705	50.05
978.064	50.18
978.424	50.28
978.783	50.31
979.142	50.31
979.501	50.29
979.86	50.32
980.219	50.24
980.578	50.25
980.937	50.3
981.296	50.34
981.654	50.35
982.013	50.29
982.371	50.21
982.73	50.21
983.088	50.2
983.447	50.29
983.805	50.35
984.163	50.47
984.521	50.4
984.879	50.45
985.237	50.47
985.595	50.48
985.953	50.44
986.311	50.41
986.669	50.46
987.026	50.48
987.384	50.43
987.741	50.44
988.099	50.44
988.456	50.53
988.814	50.44
989.171	50.5
989.528	50.49
989.885	50.51
990.242	50.59
990.599	50.58
990.956	50.64
991.313	50.72
991.67	50.71
992.027	50.65
992.383	50.63
992.74	50.7
993.096	50.71
993.453	50.76
993.809	50.85
994.165	50.93
994.522	50.96
994.878	50.92
995.234	50.84
995.59	50.68
995.946	50.8
996.302	50.74
996.658	50.78
997.013	50.87
997.369	50.8
997.725	50.84
998.08	50.91
998.436	50.99
998.791	50.95
999.147	51.08
999.502	51.31
999.857	51.37
1000.212	51.38
1000.567	51.52
1000.922	51.52
1001.277	51.56
1001.632	51.66
1001.987	51.63
1002.342	51.68
1002.696	51.74
1003.051	51.65
1003.406	51.66
1003.76	51.63
1004.114	51.81
1004.469	51.7
1004.823	51.76
1005.177	51.92
1005.531	51.71
1005.885	51.75
1006.239	51.84
1006.593	51.89
1006.947	51.88
1007.301	51.8
1007.655	51.73
1008.008	51.49
1008.362	51.56
1008.715	51.41
1009.069	51.25
1009.422	51.39
1009.776	51.38
1010.129	51.14
1010.482	51.31
1010.835	51.57
1011.188	51.65
1011.541	51.61
1011.894	51.89
1012.247	51.89
1012.6	51.93
1012.952	51.91
1013.305	51.9
1013.657	51.86
1014.01	52.19
1014.362	52.2
1014.715	52.06
1015.067	52.35
1015.419	52.56
1015.771	52.73
1016.123	52.87
1016.475	53.4
1016.827	53.75
1017.179	53.74
1017.531	53.78
1017.883	53.76
1018.234	53.8
1018.586	53.97
1018.938	53.74
1019.289	53.66
1019.64	53.83
1019.992	53.77
1020.343	53.23
1020.694	53.05
1021.045	53.33
1021.396	53.4
1021.747	53.3
1022.098	53.57
1022.449	53.27
1022.8	53.3
1023.151	53.52
1023.501	53.33
1023.852	53.56
1024.202	53.87
1024.553	54.13
1024.903	54.11
1025.253	54.14
1025.604	54.3
1025.954	54.11
1026.304	54.94
1026.654	55.06
1027.004	55.06
1027.354	55.44
1027.703	55.3
1028.053	55.13
1028.403	54.62
1028.753	54.89
1029.102	55.2
1029.452	55.5
1029.801	55.78
1030.15	55.37
1030.499	55.56
897.758	509.91
901.051	519.48
904.343	520.56
907.636	511.55
910.928	506.88
914.22	510.18
917.511	496.92
920.803	478.64
924.094	457.55
927.384	460.67
930.675	449.92
933.965	444.73
937.255	442.16
940.544	424.71
943.834	409.28
947.123	401.5
950.411	381.91
953.7	376.01
956.988	361.05
960.276	350.01
963.563	345.1
966.851	323.92
970.138	318.67
973.424	297.51
976.711	294.47
979.997	281.7
983.283	274.14
986.568	266.35
989.853	259.8
993.138	251.35
996.423	245.58
999.708	239.56
1002.992	240.61
1006.275	233.14
1009.559	232.28
1012.842	225.18
1016.125	219.7
1019.408	216.07
1022.69	214.81
1025.972	211.75
1029.254	206.45
1032.536	202.6
1035.817	196.18
1039.098	193.82
1042.379	190.13
1045.659	186.94
1048.939	185.41
1052.219	182.69
1055.498	179.97
1058.778	176.26
1062.057	174.24
1065.335	174.09
1068.614	170.27
1071.892	168.57
1075.17	165.51
1078.447	163.24
1081.724	161.65
1085.001	157.47
1088.278	157.23
1091.554	156.04
1094.83	155.03
1098.106	152.47
1101.382	151.5
1104.657	152.28
1107.932	151.38
1111.206	149.96
1114.481	149.27
1117.755	148.33
1121.029	148.85
1124.302	146.34
1127.575	143.76
1130.848	143.37
1134.121	141.75
1137.393	140.8
1140.665	139.63
1143.937	138.45
1147.208	136.47
1150.48	134.65
1153.75	133.93
1157.021	133.3
1160.291	132.14
1163.561	132.08
1166.831	131.31
1170.101	130.41
1173.37	129.73
1176.639	128.25
1179.907	128.09
1183.176	127.31
1186.444	128.33
1189.711	127.36
1192.979	127
1196.246	127.98
1199.513	127.76
1202.78	127.03
1206.046	126.6
1209.312	128.57
1212.578	129.45
1215.843	130.69
1219.108	133.09
1222.373	134.13
1225.638	136
1228.902	139.57
1232.166	143.08
1235.43	144.94
1238.693	149.55
1241.956	153.57
1245.219	155.92
1248.482	157.26
1251.744	156.78
1255.006	157.07
1258.268	153.05
1261.529	152.45
1264.79	147.55
1268.051	145.11
1271.312	144.57
1274.572	141.53
1277.832	138.29
1281.092	135.53
1284.351	132.86
1287.61	133.12
1290.869	131.65
1294.128	131.48
1297.386	131.15
1300.644	130.55
1303.902	129.44
1307.159	127.83
1310.416	129.03
1313.673	130.4
1316.93	131.98
1320.186	133.87
1323.442	134.64
1326.697	137.35
1329.953	137.84
1333.208	142.2
1336.463	148.01
1339.717	151.08
1342.972	159.23
1346.226	162.2
1349.479	163.84
1352.733	170.46
1355.986	173.88
1359.238	177.95
1362.491	178.68
1365.743	186.02
1368.995	186.12
1372.247	188.88
1375.498	187.14
1378.749	191.16
1382	193.48
1385.251	190.84
1388.501	189.85
1391.751	191.35
1395	190.83
1398.25	192.48
1401.499	191.27
1404.748	190.3
1407.996	182.81
1411.244	183.46
1414.492	180.39
1417.74	174.01
1420.987	171.25
1424.234	168.61
1427.481	161.43
1430.728	155.99
1433.974	150.31
1437.22	144.9
1440.465	140.74
1443.711	136.64
1446.956	132.22
1450.201	127.29
1453.445	121.56
1456.689	117.73
1459.933	113.8
1463.177	108.71
1466.42	106.73
1469.663	103.57
1472.906	101.02
1476.148	97.81
1479.391	95.67
1482.633	94.08
1485.874	92.14
1489.115	90.91
1492.356	89.41
1495.597	87.82
1498.838	88.66
1502.078	87.61
1505.318	87.46
1508.557	86.46
1511.797	85.79
1515.036	85.47
1518.274	85.53
1521.513	84.24
1524.751	83.79
1527.989	84.8
1531.227	84.66
1534.464	84.05
1537.701	83.82
1540.938	83.01
1544.174	83.28
1547.41	83.64
1550.646	83.48
1553.882	83.24
1557.117	83.99
1560.352	83.71
1563.587	83.11
1566.821	83.16
1570.055	82.65
1573.289	82.79
1576.523	83.17
1579.756	83.01
1582.989	83.1
1586.222	82.93
1589.454	83.11
1592.686	82.76
1595.918	83.02
1599.15	82.93
1602.381	83.04
1605.612	83.41
1608.843	83.2
1612.073	83.12
1615.303	83.55
1618.533	82.98
1621.762	83.36
1624.992	83.3
1628.221	83.31
1631.449	83.37
1634.678	83.69
1637.906	83.75
1641.134	83.77
1644.361	83.68
1647.588	84.81
1650.815	84.69
1654.042	84.89
1657.269	84.25
1660.495	84.63
1663.72	84.94
1666.946	84.99
1670.171	85.23
1673.396	85.57
1676.621	86.09
1679.845	86.63
1683.069	85.78
1686.293	85.86
1689.517	85.92
1692.74	86.44
1695.963	86.23
1699.185	86.4
1702.408	85.94
1705.63	86.29
1708.852	86.75
1712.073	86.36
1715.294	86.15
1718.515	86.64
1721.736	86.92
1724.956	86.88
1728.176	87.03
1731.396	87.49
1734.616	87.68
1737.835	88.49
1741.054	88.06
1744.272	87.53
1747.491	87.66
1750.709	88.36
1753.927	88.38
1757.144	88.17
1760.361	88.24
1763.578	88.97
1766.795	89.12
1770.011	89.04
1773.227	89.05
1776.443	90.24
1779.658	90
1782.874	91.16
1786.089	89.79
1789.303	89.96
1792.518	90.84
1795.732	91.95
1798.945	92.57
1802.159	92.71
1805.372	93.89
1808.585	94.66
1811.797	94.6
1815.01	96.17
1818.222	96.11
1821.434	97.95
1824.645	98.85
1827.856	99.91
1831.067	99.98
1834.278	100.49
1837.488	101.05
1840.698	101.93
1843.908	102.08
1847.117	103.72
1850.326	104.01
1853.535	104.06
1856.744	104.96
1859.952	106.46
1863.16	106.45
1866.368	106.11
1869.575	106.53
1872.782	106.55
1875.989	104.52
1879.196	105.87
1882.402	103.16
1885.608	103.72
1888.814	103.91
1892.019	105.54
1895.224	102.97
1898.429	103.32
1901.634	103.73
1904.838	104.57
1908.042	105.5
1911.246	105.86
1914.449	105.17
1917.652	105.97
1920.855	106.06
1924.058	105.04
1927.26	103.51
1930.462	104.09
1933.664	104.44
1936.865	104.93
1940.066	103.46
1943.267	101.65
1946.467	103.61
1949.668	104.52
1952.868	104.68
1956.067	104.16
1959.267	105.27
1962.466	105.77
1965.665	107.18
1968.863	106.55
1972.061	109.03
1975.259	110.62
1978.457	113.06
1981.654	112.24
1984.852	112.14
1988.048	113.79
1991.245	116.02
1994.441	118.13
1997.637	120.99
2000.833	122.85
2004.028	125.06
2007.223	126.31
2010.418	128.5
2013.613	134.66
2016.807	139.06
2020.001	140.1
2023.194	144.5
2026.388	149.08
2029.581	156.82
2032.774	160.54
2035.966	165.18
2039.158	170.14
2042.35	173.06
2045.542	176.45
2048.733	182.33
2051.924	184.56
2055.115	190.14
2058.306	191.85
2061.496	194.64
2064.686	195.62
2067.875	195.05
2071.065	197.54
2074.254	195.98
2077.442	202.84
2080.631	206.05
2083.819	204.58
2087.007	210.66
2090.195	214.7
2093.382	214.25
2096.569	215.15
2099.756	217.26
2102.942	222.44
2106.128	227.81
2109.314	231.98
2112.5	231.37
2115.685	227.59
2118.87	229.79
2122.055	228.47
2125.239	232.44
2128.424	239.06
2131.608	236.73
2134.791	235.73
2137.974	237.91
2141.157	238.18
2144.34	239.19
2147.523	244.08
2150.705	252.4
2153.887	248.8
2157.068	252.04
2160.25	252.16
2163.431	251.93
2166.611	256.28
2169.792	262.72
2172.972	265.08
2176.152	264.44
2179.331	269.14
2182.511	269.03
2185.69	272.12
2188.868	284.14
2192.047	291.3
2195.225	297.62
2198.403	299.8
2201.58	295.5
2204.758	306.67
2207.935	305.41
2211.111	312.88
2214.288	314.82
2217.464	318.57
2220.64	321.55
2223.815	319.39
2226.991	317.05
2230.166	320.05
2233.34	329.63
2236.515	344.34
2239.689	333.96
2242.863	343.17
2246.036	342.23
2249.209	350.16
2252.382	346.26
2255.555	358.91
2258.727	362.88
2261.9	370.34
2265.071	376.18
2268.243	373.69
2271.414	379.91
2274.585	392.62
2277.756	391.72
2280.926	404.64
2284.096	413.18
2287.266	416.79
2290.436	407.18
2293.605	416.32
2296.774	435.18
2299.942	431.38
2303.111	445.34
2306.279	454.64
2309.447	455.1
2312.614	456.26
2315.781	468.52
2318.948	465.4
2322.115	476.78
2325.281	502.97
2328.447	496.76
2331.613	498.9
2334.779	506.25
2337.944	513.59
2341.109	524.78
2344.274	530.89
2347.438	542.05
2350.602	546.71
2353.766	584.07
2356.929	585.96
2360.092	597.75
2363.255	604.14
2366.418	608.15
2369.58	622.73
2372.742	622.69
2375.904	619.07
2379.066	635.2
2382.227	676.39
2385.388	685.53
2388.548	647.21
2391.709	642.83
2394.869	658.21
2398.029	662.17
2401.188	660.63
2404.347	680.69
2407.506	704.19
2410.665	678.03
2413.823	681.82
2416.981	679.99
2420.139	642.78
2423.296	699
2426.453	743.75
2429.61	699.69
2432.767	743.54
2435.923	772.04
2439.079	746.34
2442.235	761.49
2445.391	787.6
2448.546	776.53
2451.701	820.58
2454.855	875.3
2458.009	768.01
2461.163	786.6
2464.317	803.4
2467.471	788.02
2470.624	814.83
2473.777	797.73
2476.929	772.2
2480.082	813.61
2483.234	854.92
2486.385	871.85
2489.537	892.39
2492.688	984.69
2495.839	961.23
2498.989	994.21
2502.14	997.77
2505.29	953.02
2508.439	1059.65
2511.589	1086.27
2514.738	1061.63
2517.887	1052.2
2521.035	992.78
2524.183	973.27
2527.331	970.11
2530.479	947
2533.627	967.25
