Data from C_3_dec_oh_4n_Splice17_02.txt Node
Date: Sat Feb 29 15:04:31 EST 2020
User: sa697716
Spectrometer: FLMS03696
Trigger mode: 0
Integration Time (sec): 3.180400E-1
Scans to average: 20
Electric dark correction enabled: true
Nonlinearity correction enabled: true
Boxcar width: 5
XAxis mode: Wavelengths
Number of Pixels in Spectrum: 2048
>>>>>Begin Spectral Data<<<<<
187.83	58
188.298	61.62
188.766	61.35
189.233	41.95
189.701	59.76
190.169	55.05
190.636	36.74
191.104	-7.97
191.571	-162.1
192.039	-65.54
192.506	397.53
192.974	10437.79
193.441	-565.96
193.908	107.92
194.375	14.35
194.842	138.42
195.31	45.28
195.777	26
196.244	68.57
196.711	90.08
197.177	89.53
197.644	89.59
198.111	88.54
198.578	89.53
199.045	90.28
199.511	90.23
199.978	90.08
200.445	89.59
200.911	89.62
201.378	89.3
201.844	89.69
202.31	89.75
202.777	89.55
203.243	89.72
203.709	89.3
204.176	88.1
204.642	87.74
205.108	87.2
205.574	87.06
206.04	86.15
206.506	85.38
206.972	84.02
207.438	82.5
207.903	81.56
208.369	79.64
208.835	78.68
209.301	77.68
209.766	75.78
210.232	74.48
210.697	73.03
211.163	71.48
211.628	70.05
212.094	68.3
212.559	67.02
213.024	65.4
213.49	64.39
213.955	62.59
214.42	60.61
214.885	58.5
215.35	55.73
215.815	52.14
216.28	48.46
216.745	44.16
217.21	39.83
217.675	35.78
218.14	32.02
218.604	28.52
219.069	25.75
219.534	23.4
219.998	21.51
220.463	19.91
220.927	18.56
221.392	17.35
221.856	16.36
222.32	15.5
222.785	14.73
223.249	14.11
223.713	13.6
224.177	13.06
224.642	12.67
225.106	12.23
225.57	11.8
226.034	11.45
226.497	11.11
226.961	10.77
227.425	10.49
227.889	10.23
228.353	9.95
228.816	9.69
229.28	9.44
229.744	9.23
230.207	9.02
230.671	8.82
231.134	8.64
231.597	8.46
232.061	8.31
232.524	8.16
232.987	8.02
233.45	7.89
233.914	7.78
234.377	7.68
234.84	7.54
235.303	7.44
235.766	7.36
236.229	7.26
236.691	7.19
237.154	7.12
237.617	7.05
238.08	6.96
238.542	6.88
239.005	6.8
239.468	6.73
239.93	6.66
240.393	6.59
240.855	6.48
241.317	6.4
241.78	6.33
242.242	6.25
242.704	6.17
243.166	6.11
243.629	6.04
244.091	5.96
244.553	5.88
245.015	5.83
245.477	5.77
245.939	5.72
246.4	5.66
246.862	5.6
247.324	5.56
247.786	5.52
248.247	5.47
248.709	5.41
249.17	5.37
249.632	5.32
250.093	5.26
250.555	5.21
251.016	5.17
251.477	5.13
251.939	5.08
252.4	5.03
252.861	4.98
253.322	4.93
253.783	4.91
254.244	4.86
254.705	4.82
255.166	4.8
255.627	4.76
256.088	4.71
256.549	4.67
257.009	4.63
257.47	4.59
257.931	4.55
258.391	4.5
258.852	4.45
259.312	4.42
259.773	4.37
260.233	4.32
260.694	4.28
261.154	4.25
261.614	4.19
262.074	4.16
262.534	4.12
262.994	4.09
263.455	4.06
263.915	4.03
264.374	3.98
264.834	3.95
265.294	3.92
265.754	3.89
266.214	3.86
266.673	3.84
267.133	3.8
267.593	3.78
268.052	3.75
268.512	3.73
268.971	3.72
269.431	3.7
269.89	3.69
270.349	3.68
270.809	3.67
271.268	3.65
271.727	3.65
272.186	3.64
272.645	3.63
273.104	3.62
273.563	3.61
274.022	3.6
274.481	3.58
274.94	3.56
275.399	3.56
275.857	3.55
276.316	3.54
276.775	3.53
277.233	3.52
277.692	3.51
278.15	3.5
278.609	3.49
279.067	3.48
279.525	3.48
279.984	3.48
280.442	3.47
280.9	3.47
281.358	3.47
281.816	3.47
282.274	3.46
282.732	3.46
283.19	3.47
283.648	3.47
284.106	3.47
284.564	3.48
285.021	3.48
285.479	3.48
285.937	3.48
286.394	3.46
286.852	3.46
287.309	3.46
287.767	3.46
288.224	3.44
288.682	3.42
289.139	3.41
289.596	3.39
290.053	3.37
290.511	3.34
290.968	3.33
291.425	3.32
291.882	3.3
292.339	3.28
292.796	3.25
293.252	3.23
293.709	3.21
294.166	3.2
294.623	3.19
295.079	3.18
295.536	3.17
295.992	3.15
296.449	3.14
296.905	3.12
297.362	3.11
297.818	3.11
298.274	3.1
298.731	3.09
299.187	3.08
299.643	3.07
300.099	3.06
300.555	3.05
301.011	3.05
301.467	3.05
301.923	3.05
302.379	3.04
302.835	3.04
303.291	3.04
303.746	3.03
304.202	3.03
304.658	3.03
305.113	3.03
305.569	3.03
306.024	3.03
306.479	3.03
306.935	3.03
307.39	3.04
307.845	3.05
308.301	3.05
308.756	3.06
309.211	3.07
309.666	3.07
310.121	3.08
310.576	3.08
311.031	3.08
311.486	3.08
311.94	3.09
312.395	3.09
312.85	3.09
313.305	3.1
313.759	3.1
314.214	3.1
314.668	3.1
315.123	3.1
315.577	3.1
316.032	3.1
316.486	3.1
316.94	3.09
317.394	3.08
317.849	3.07
318.303	3.07
318.757	3.05
319.211	3.03
319.665	3.02
320.119	3.01
320.572	3
321.026	2.98
321.48	2.98
321.934	2.96
322.387	2.95
322.841	2.95
323.295	2.93
323.748	2.93
324.202	2.94
324.655	2.93
325.108	2.93
325.562	2.92
326.015	2.91
326.468	2.9
326.921	2.9
327.374	2.9
327.827	2.89
328.28	2.9
328.733	2.9
329.186	2.9
329.639	2.89
330.092	2.9
330.545	2.91
330.997	2.92
331.45	2.92
331.903	2.92
332.355	2.93
332.808	2.93
333.26	2.94
333.713	2.96
334.165	2.95
334.617	2.97
335.069	2.97
335.522	2.97
335.974	2.97
336.426	2.99
336.878	3
337.33	3
337.782	3
338.234	3
338.686	2.99
339.137	3
339.589	2.99
340.041	2.99
340.493	2.97
340.944	2.96
341.396	2.96
341.847	2.94
342.299	2.92
342.75	2.9
343.201	2.88
343.653	2.87
344.104	2.85
344.555	2.84
345.006	2.82
345.457	2.82
345.908	2.81
346.359	2.81
346.81	2.81
347.261	2.81
347.712	2.81
348.163	2.8
348.613	2.8
349.064	2.78
349.515	2.77
349.965	2.77
350.416	2.77
350.866	2.77
351.317	2.76
351.767	2.74
352.217	2.74
352.668	2.74
353.118	2.75
353.568	2.76
354.018	2.77
354.468	2.78
354.918	2.79
355.368	2.78
355.818	2.78
356.268	2.79
356.718	2.79
357.168	2.79
357.617	2.79
358.067	2.79
358.517	2.79
358.966	2.8
359.416	2.8
359.865	2.8
360.315	2.8
360.764	2.8
361.213	2.8
361.663	2.8
362.112	2.8
362.561	2.8
363.01	2.8
363.459	2.79
363.908	2.79
364.357	2.78
364.806	2.78
365.255	2.78
365.703	2.78
366.152	2.78
366.601	2.79
367.05	2.79
367.498	2.8
367.947	2.79
368.395	2.81
368.844	2.82
369.292	2.82
369.74	2.82
370.189	2.82
370.637	2.82
371.085	2.83
371.533	2.83
371.981	2.83
372.429	2.82
372.877	2.84
373.325	2.83
373.773	2.82
374.221	2.82
374.669	2.83
375.116	2.82
375.564	2.82
376.012	2.82
376.459	2.83
376.907	2.83
377.354	2.84
377.801	2.84
378.249	2.85
378.696	2.86
379.143	2.87
379.591	2.87
380.038	2.9
380.485	2.91
380.932	2.91
381.379	2.92
381.826	2.93
382.273	2.93
382.72	2.94
383.166	2.95
383.613	2.97
384.06	2.98
384.506	3.01
384.953	3.03
385.4	3.07
385.846	3.11
386.292	3.18
386.739	3.23
387.185	3.31
387.631	3.38
388.078	3.44
388.524	3.47
388.97	3.53
389.416	3.59
389.862	3.68
390.308	3.79
390.754	3.92
391.2	4.04
391.645	4.15
392.091	4.24
392.537	4.35
392.983	4.52
393.428	4.76
393.874	5.04
394.319	5.34
394.765	5.64
395.21	5.94
395.655	6.26
396.101	6.61
396.546	7
396.991	7.45
397.436	7.92
397.881	8.39
398.326	8.83
398.771	9.26
399.216	9.67
399.661	10.05
400.106	10.42
400.551	10.73
400.995	10.99
401.44	11.24
401.885	11.48
402.329	11.73
402.774	11.97
403.218	12.27
403.663	12.57
404.107	12.92
404.551	13.27
404.995	13.58
405.44	13.89
405.884	14.22
406.328	14.61
406.772	15.06
407.216	15.52
407.66	15.95
408.104	16.33
408.547	16.67
408.991	16.96
409.435	17.29
409.879	17.67
410.322	18.12
410.766	18.59
411.209	19.03
411.653	19.42
412.096	19.76
412.54	20.09
412.983	20.41
413.426	20.79
413.869	21.19
414.312	21.6
414.756	21.98
415.199	22.3
415.642	22.59
416.085	22.85
416.527	23.07
416.97	23.21
417.413	23.27
417.856	23.3
418.298	23.3
418.741	23.32
419.184	23.38
419.626	23.48
420.069	23.6
420.511	23.75
420.953	23.89
421.396	24.07
421.838	24.36
422.28	24.74
422.722	25.13
423.164	25.48
423.606	25.82
424.048	26.06
424.49	26.17
424.932	26.09
425.374	25.78
425.816	25.28
426.258	24.78
426.699	24.44
427.141	24.4
427.582	24.65
428.024	25.05
428.465	25.47
428.907	25.89
429.348	26.31
429.789	26.85
430.231	27.69
430.672	28.89
431.113	30.22
431.554	31.5
431.995	32.49
432.436	33.2
432.877	33.77
433.318	34.2
433.759	34.68
434.2	35.28
434.64	36.05
435.081	36.83
435.522	37.47
435.962	38
436.403	38.47
436.843	38.92
437.284	39.41
437.724	39.91
438.164	40.56
438.604	41.26
439.045	41.97
439.485	42.63
439.925	43.16
440.365	43.64
440.805	44.01
441.245	44.29
441.685	44.6
442.125	44.96
442.564	45.42
443.004	45.91
443.444	46.4
443.883	46.96
444.323	47.54
444.762	48.11
445.202	48.75
445.641	49.51
446.081	50.46
446.52	51.35
446.959	52.23
447.398	52.88
447.837	53.35
448.276	53.62
448.716	53.85
449.154	54.04
449.593	54.26
450.032	54.4
450.471	54.44
450.91	54.3
451.349	54.18
451.787	54.11
452.226	54.15
452.664	54.18
453.103	54.25
453.541	54.31
453.98	54.23
454.418	54.1
454.856	53.91
455.295	53.75
455.733	53.62
456.171	53.49
456.609	53.39
457.047	53.3
457.485	53.33
457.923	53.45
458.361	53.61
458.798	53.85
459.236	54.12
459.674	54.37
460.111	54.6
460.549	54.82
460.987	55.14
461.424	55.4
461.862	55.67
462.299	55.9
462.736	56.19
463.173	56.51
463.611	56.94
464.048	57.45
464.485	58.04
464.922	58.7
465.359	59.39
465.796	59.95
466.233	60.52
466.67	61.19
467.106	62.03
467.543	62.88
467.98	63.76
468.416	64.49
468.853	65.13
469.29	65.78
469.726	66.44
470.162	67.16
470.599	67.89
471.035	68.55
471.471	69
471.907	69.26
472.344	69.46
472.78	69.61
473.216	69.87
473.652	70.09
474.088	70.24
474.523	70.32
474.959	70.34
475.395	70.32
475.831	70.29
476.266	70.32
476.702	70.38
477.138	70.33
477.573	70.23
478.008	69.96
478.444	69.67
478.879	69.33
479.314	68.89
479.75	68.4
480.185	67.85
480.62	67.16
481.055	66.18
481.49	64.9
481.925	63.52
482.36	62.23
482.795	61.15
483.229	60.32
483.664	59.62
484.099	59.04
484.534	58.54
484.968	58.14
485.403	57.99
485.837	58.11
486.271	58.47
486.706	58.87
487.14	59.15
487.574	59.24
488.009	59.22
488.443	59.19
488.877	59.16
489.311	59.13
489.745	59.12
490.179	59.13
490.613	59.13
491.046	59.15
491.48	59.24
491.914	59.45
492.348	59.76
492.781	60.02
493.215	60.24
493.648	60.38
494.082	60.48
494.515	60.58
494.948	60.64
495.382	60.69
495.815	60.69
496.248	60.68
496.681	60.6
497.114	60.48
497.547	60.4
497.98	60.43
498.413	60.56
498.846	60.75
499.279	60.89
499.711	61
500.144	61.18
500.577	61.48
501.009	61.93
501.442	62.51
501.874	63.13
502.306	63.71
502.739	64.15
503.171	64.59
503.603	64.96
504.036	65.37
504.468	65.87
504.9	66.39
505.332	66.81
505.764	67.18
506.196	67.48
506.627	67.83
507.059	68.24
507.491	68.71
507.923	69.17
508.354	69.61
508.786	70
509.217	70.26
509.649	70.51
510.08	70.81
510.512	71.1
510.943	71.45
511.374	71.71
511.805	71.79
512.237	71.7
512.668	71.48
513.099	71.38
513.53	71.34
513.961	71.38
514.391	71.48
514.822	71.68
515.253	71.99
515.684	72.28
516.114	72.67
516.545	73.19
516.975	73.99
517.406	74.91
517.836	75.76
518.267	76.51
518.697	77.25
519.127	77.95
519.558	78.57
519.988	79.11
520.418	79.57
520.848	80
521.278	80.35
521.708	80.49
522.138	80.42
522.567	80.35
522.997	80.38
523.427	80.48
523.857	80.6
524.286	80.77
524.716	80.95
525.145	81.12
525.575	81.23
526.004	81.47
526.433	81.86
526.863	82.47
527.292	83.02
527.721	83.39
528.15	83.59
528.579	83.67
529.008	83.64
529.437	83.55
529.866	83.48
530.295	83.49
530.724	83.48
531.152	83.49
531.581	83.44
532.01	83.39
532.438	83.37
532.867	83.43
533.295	83.54
533.723	83.66
534.152	83.74
534.58	83.78
535.008	83.67
535.436	83.53
535.865	83.25
536.293	83.01
536.721	82.86
537.149	82.8
537.576	82.83
538.004	82.83
538.432	82.81
538.86	82.85
539.287	82.97
539.715	83.18
540.143	83.44
540.57	83.76
540.998	84.15
541.425	84.51
541.852	84.87
542.28	85.16
542.707	85.49
543.134	85.76
543.561	85.96
543.988	86.22
544.415	86.51
544.842	86.77
545.269	87.06
545.696	87.31
546.123	87.61
546.549	87.9
546.976	88.17
547.403	88.43
547.829	88.8
548.256	89.13
548.682	89.35
549.108	89.62
549.535	89.88
549.961	90.13
550.387	90.37
550.813	90.61
551.24	90.85
551.666	91.04
552.092	91.14
552.518	91.14
552.943	91.21
553.369	91.27
553.795	91.24
554.221	91.1
554.646	90.89
555.072	90.65
555.498	90.35
555.923	90.08
556.349	89.87
556.774	89.71
557.199	89.59
557.625	89.4
558.05	89.19
558.475	88.97
558.9	88.83
559.325	88.67
559.75	88.48
560.175	88.28
560.6	87.99
561.025	87.58
561.449	87.13
561.874	86.65
562.299	86.24
562.723	85.78
563.148	85.31
563.572	84.82
563.997	84.3
564.421	83.72
564.846	83.13
565.27	82.55
565.694	81.98
566.118	81.36
566.542	80.72
566.966	80.05
567.39	79.43
567.814	78.84
568.238	78.3
568.662	77.88
569.086	77.49
569.509	77.17
569.933	76.81
570.357	76.49
570.78	76.22
571.204	75.97
571.627	75.77
572.05	75.61
572.474	75.43
572.897	75.27
573.32	75.06
573.743	74.88
574.166	74.64
574.589	74.49
575.012	74.44
575.435	74.46
575.858	74.55
576.281	74.63
576.704	74.76
577.126	74.87
577.549	75.03
577.972	75.27
578.394	75.51
578.817	75.83
579.239	76.18
579.661	76.48
580.084	76.77
580.506	77.03
580.928	77.25
581.35	77.43
581.772	77.63
582.194	77.78
582.616	77.95
583.038	78.18
583.46	78.38
583.882	78.47
584.303	78.41
584.725	78.2
585.147	77.97
585.568	77.87
585.99	77.9
586.411	77.97
586.833	78.09
587.254	78.2
587.675	78.32
588.096	78.5
588.518	78.71
588.939	79.11
589.36	79.63
589.781	80.19
590.202	80.65
590.623	80.98
591.043	81.2
591.464	81.42
591.885	81.6
592.305	81.77
592.726	81.86
593.147	81.98
593.567	81.98
593.987	82.01
594.408	82
594.828	81.98
595.248	81.97
595.669	81.93
596.089	81.83
596.509	81.67
596.929	81.44
597.349	81.19
597.769	80.94
598.189	80.75
598.608	80.59
599.028	80.47
599.448	80.38
599.867	80.28
600.287	80.23
600.706	80.11
601.126	80.03
601.545	80
601.965	79.99
602.384	79.99
602.803	79.95
603.222	79.85
603.641	79.72
604.061	79.56
604.48	79.36
604.898	79.19
605.317	79.04
605.736	78.87
606.155	78.66
606.574	78.46
606.992	78.29
607.411	78.12
607.829	77.94
608.248	77.8
608.666	77.63
609.085	77.46
609.503	77.21
609.921	77.05
610.339	76.92
610.758	76.8
611.176	76.63
611.594	76.37
612.012	76.11
612.43	75.88
612.847	75.66
613.265	75.49
613.683	75.4
614.101	75.33
614.518	75.26
614.936	75.15
615.353	75.11
615.771	75.1
616.188	75.16
616.606	75.23
617.023	75.31
617.44	75.31
617.857	75.25
618.274	75.14
618.691	75.02
619.108	74.86
619.525	74.68
619.942	74.45
620.359	74.2
620.776	73.89
621.192	73.54
621.609	73.26
622.026	73.01
622.442	72.83
622.859	72.6
623.275	72.38
623.691	72.1
624.108	71.88
624.524	71.68
624.94	71.47
625.356	71.27
625.772	71.17
626.188	71.02
626.604	70.86
627.02	70.68
627.436	70.53
627.852	70.42
628.268	70.43
628.683	70.43
629.099	70.45
629.514	70.47
629.93	70.51
630.345	70.56
630.761	70.63
631.176	70.69
631.591	70.73
632.007	70.78
632.422	70.85
632.837	70.89
633.252	70.91
633.667	70.91
634.082	70.96
634.497	70.98
634.911	70.94
635.326	70.86
635.741	70.76
636.155	70.66
636.57	70.51
636.984	70.31
637.399	70.11
637.813	69.91
638.228	69.7
638.642	69.48
639.056	69.27
639.47	69.08
639.884	68.9
640.298	68.76
640.712	68.59
641.126	68.46
641.54	68.33
641.954	68.16
642.368	67.95
642.781	67.73
643.195	67.49
643.609	67.26
644.022	67.02
644.436	66.74
644.849	66.41
645.262	66.06
645.676	65.73
646.089	65.49
646.502	65.32
646.915	65.16
647.328	65
647.741	64.84
648.154	64.76
648.567	64.67
648.98	64.63
649.393	64.64
649.805	64.67
650.218	64.63
650.631	64.46
651.043	64.1
651.456	63.52
651.868	62.75
652.28	61.93
652.693	61.14
653.105	60.55
653.517	60.07
653.929	59.72
654.341	59.45
654.753	59.3
655.165	59.24
655.577	59.31
655.989	59.64
656.401	60.13
656.813	60.74
657.224	61.25
657.636	61.61
658.047	61.84
658.459	61.91
658.87	61.89
659.282	61.79
659.693	61.65
660.104	61.53
660.515	61.37
660.926	61.28
661.338	61.11
661.749	60.92
662.159	60.7
662.57	60.43
662.981	60.21
663.392	60.01
663.803	59.82
664.213	59.63
664.624	59.47
665.035	59.27
665.445	59.06
665.855	58.83
666.266	58.61
666.676	58.35
667.086	58.14
667.497	57.89
667.907	57.63
668.317	57.42
668.727	57.2
669.137	56.98
669.547	56.78
669.956	56.54
670.366	56.38
670.776	56.15
671.186	56.01
671.595	55.86
672.005	55.78
672.414	55.67
672.824	55.53
673.233	55.44
673.642	55.3
674.052	55.2
674.461	55.12
674.87	55.01
675.279	54.99
675.688	54.9
676.097	54.84
676.506	54.76
676.915	54.71
677.323	54.69
677.732	54.67
678.141	54.66
678.549	54.65
678.958	54.63
679.366	54.6
679.775	54.56
680.183	54.51
680.592	54.49
681	54.48
681.408	54.42
681.816	54.28
682.224	53.82
682.632	53.09
683.04	52.14
683.448	51.21
683.856	50.42
684.264	49.7
684.671	49.06
685.079	48.44
685.487	47.9
685.894	47.49
686.302	47.24
686.709	47.39
687.116	47.95
687.524	48.81
687.931	49.74
688.338	50.66
688.745	51.56
689.152	52.48
689.559	53.39
689.966	54.23
690.373	55.06
690.78	55.83
691.187	56.59
691.593	57.26
692	57.95
692.407	58.62
692.813	59.27
693.22	59.84
693.626	60.42
694.032	60.96
694.439	61.53
694.845	62.05
695.251	62.57
695.657	63.03
696.063	63.48
696.469	63.88
696.875	64.16
697.281	64.44
697.687	64.75
698.093	65
698.498	65.31
698.904	65.63
699.31	65.96
699.715	66.37
700.12	66.76
700.526	67.21
700.931	67.6
701.337	68.11
701.742	68.53
702.147	68.99
702.552	69.49
702.957	69.96
703.362	70.41
703.767	70.8
704.172	71.15
704.577	71.47
704.981	71.75
705.386	72.06
705.791	72.36
706.195	72.69
706.6	72.98
707.004	73.25
707.408	73.48
707.813	73.7
708.217	73.9
708.621	74.09
709.025	74.34
709.43	74.56
709.834	74.79
710.237	74.93
710.641	75.12
711.045	75.27
711.449	75.38
711.853	75.47
712.256	75.51
712.66	75.44
713.064	75.25
713.467	74.89
713.87	74.44
714.274	73.94
714.677	73.39
715.08	72.77
715.484	72.2
715.887	71.66
716.29	71.27
716.693	70.97
717.096	70.99
717.499	71.19
717.901	71.56
718.304	72.07
718.707	72.58
719.109	73.12
719.512	73.61
719.915	74.04
720.317	74.42
720.719	74.72
721.122	74.94
721.524	75
721.926	75.02
722.328	74.98
722.731	74.91
723.133	74.86
723.535	74.87
723.937	74.88
724.338	74.9
724.74	74.98
725.142	74.97
725.544	75.04
725.945	75.09
726.347	75.11
726.748	75.08
727.15	75.09
727.551	75.18
727.952	75.3
728.354	75.56
728.755	75.85
729.156	76.14
729.557	76.53
729.958	76.89
730.359	77.18
730.76	77.45
731.161	77.79
731.562	78.03
731.962	78.23
732.363	78.35
732.763	78.47
733.164	78.52
733.564	78.55
733.965	78.46
734.365	78.31
734.766	78.2
735.166	78.07
735.566	77.94
735.966	77.86
736.366	77.76
736.766	77.67
737.166	77.52
737.566	77.4
737.966	77.28
738.365	77.24
738.765	77.24
739.165	77.21
739.564	77.24
739.964	77.21
740.363	77.23
740.763	77.22
741.162	77.22
741.561	77.26
741.96	77.3
742.36	77.32
742.759	77.28
743.158	77.22
743.557	77.23
743.955	77.22
744.354	77.23
744.753	77.15
745.152	77.08
745.55	77.02
745.949	76.93
746.348	76.85
746.746	76.71
747.144	76.67
747.543	76.61
747.941	76.52
748.339	76.45
748.737	76.35
749.136	76.3
749.534	76.25
749.932	76.19
750.33	76.12
750.727	76.05
751.125	76.01
751.523	75.91
751.921	75.85
752.318	75.75
752.716	75.59
753.113	75.46
753.511	75.3
753.908	75.15
754.305	74.9
754.703	74.38
755.1	73.38
755.497	71.73
755.894	69.43
756.291	66.67
756.688	63.8
757.085	61.04
757.482	58.54
757.878	56.19
758.275	53.8
758.672	51.43
759.068	49.32
759.465	47.75
759.861	46.97
760.258	47.01
760.654	47.68
761.05	48.71
761.447	49.81
761.843	50.83
762.239	51.9
762.635	53.2
763.031	54.78
763.427	56.53
763.822	58.34
764.218	60.16
764.614	61.91
765.01	63.53
765.405	64.95
765.801	66.29
766.196	67.46
766.592	68.49
766.987	69.32
767.382	69.94
767.778	70.41
768.173	70.78
768.568	71.02
768.963	71.19
769.358	71.34
769.753	71.47
770.148	71.51
770.542	71.5
770.937	71.45
771.332	71.45
771.726	71.44
772.121	71.39
772.515	71.37
772.91	71.33
773.304	71.25
773.699	71.17
774.093	71.08
774.487	71.02
774.881	70.97
775.275	70.89
775.669	70.77
776.063	70.64
776.457	70.5
776.851	70.34
777.245	70.23
777.638	70.18
778.032	70.11
778.425	70.02
778.819	69.89
779.212	69.75
779.606	69.61
779.999	69.43
780.392	69.32
780.786	69.24
781.179	69.15
781.572	69
781.965	68.82
782.358	68.64
782.751	68.5
783.143	68.35
783.536	68.26
783.929	68.12
784.322	67.99
784.714	67.83
785.107	67.65
785.499	67.44
785.891	67.22
786.284	66.98
786.676	66.8
787.068	66.54
787.46	66.31
787.852	66.05
788.245	65.84
788.636	65.63
789.028	65.33
789.42	65.05
789.812	64.87
790.204	64.66
790.595	64.48
790.987	64.25
791.378	64.06
791.77	63.94
792.161	63.77
792.553	63.59
792.944	63.45
793.335	63.38
793.726	63.27
794.117	63.11
794.508	62.99
794.899	62.9
795.29	62.73
795.681	62.54
796.072	62.31
796.463	62.12
796.853	61.93
797.244	61.71
797.634	61.47
798.025	61.25
798.415	61.02
798.806	60.79
799.196	60.57
799.586	60.37
799.976	60.2
800.366	60.01
800.756	59.77
801.146	59.56
801.536	59.37
801.926	59.17
802.316	59.03
802.706	58.89
803.095	58.7
803.485	58.51
803.874	58.3
804.264	58.11
804.653	57.87
805.043	57.66
805.432	57.42
805.821	57.13
806.21	56.93
806.599	56.65
806.988	56.37
807.377	56.12
807.766	55.86
808.155	55.61
808.544	55.29
808.933	55.02
809.321	54.72
809.71	54.43
810.098	54.1
810.487	53.69
810.875	53.27
811.264	52.87
811.652	52.4
812.04	51.93
812.428	51.46
812.816	51.05
813.204	50.64
813.592	50.25
813.98	49.87
814.368	49.57
814.756	49.28
815.144	49.03
815.531	48.78
815.919	48.64
816.306	48.52
816.694	48.48
817.081	48.39
817.469	48.33
817.856	48.25
818.243	48.07
818.63	47.86
819.017	47.64
819.404	47.45
819.791	47.3
820.178	47.11
820.565	46.95
820.952	46.73
821.339	46.57
821.725	46.43
822.112	46.3
822.498	46.27
822.885	46.24
823.271	46.23
823.657	46.14
824.044	46.02
824.43	45.9
824.816	45.74
825.202	45.55
825.588	45.39
825.974	45.19
826.36	45.02
826.746	44.85
827.132	44.66
827.517	44.51
827.903	44.4
828.289	44.26
828.674	44.12
829.06	44.02
829.445	43.91
829.83	43.8
830.216	43.71
830.601	43.61
830.986	43.51
831.371	43.46
831.756	43.34
832.141	43.28
832.526	43.21
832.911	43.17
833.295	43.08
833.68	43.04
834.065	42.96
834.449	42.88
834.834	42.78
835.218	42.7
835.603	42.62
835.987	42.52
836.371	42.46
836.755	42.37
837.139	42.28
837.524	42.2
837.908	42.08
838.291	42
838.675	41.94
839.059	41.85
839.443	41.76
839.827	41.66
840.21	41.61
840.594	41.51
840.977	41.42
841.361	41.32
841.744	41.27
842.127	41.2
842.511	41.13
842.894	41.02
843.277	40.99
843.66	40.9
844.043	40.84
844.426	40.78
844.809	40.71
845.191	40.6
845.574	40.51
845.957	40.37
846.339	40.27
846.722	40.19
847.104	40.12
847.487	40.01
847.869	39.95
848.252	39.86
848.634	39.78
849.016	39.7
849.398	39.6
849.78	39.49
850.162	39.37
850.544	39.27
850.926	39.14
851.307	39.06
851.689	38.95
852.071	38.85
852.452	38.78
852.834	38.69
853.215	38.65
853.597	38.66
853.978	38.67
854.359	38.68
854.741	38.69
855.122	38.71
855.503	38.7
855.884	38.7
856.265	38.67
856.646	38.64
857.026	38.63
857.407	38.56
857.788	38.53
858.169	38.49
858.549	38.49
858.93	38.47
859.31	38.41
859.69	38.35
860.071	38.34
860.451	38.28
860.831	38.24
861.211	38.12
861.591	38.05
861.971	37.89
862.351	37.8
862.731	37.68
863.111	37.56
863.491	37.48
863.87	37.4
864.25	37.32
864.629	37.25
865.009	37.19
865.388	37.17
865.768	37.14
866.147	37.16
866.526	37.15
866.905	37.14
867.284	37.15
867.663	37.16
868.042	37.14
868.421	37.11
868.8	37.12
869.179	37.11
869.558	37.09
869.936	37.09
870.315	37.06
870.693	37.06
871.072	37.03
871.45	37
871.828	36.97
872.207	36.94
872.585	36.89
872.963	36.83
873.341	36.79
873.719	36.76
874.097	36.71
874.475	36.69
874.853	36.65
875.23	36.62
875.608	36.62
875.986	36.57
876.363	36.54
876.741	36.54
877.118	36.51
877.495	36.48
877.873	36.43
878.25	36.42
878.627	36.39
879.004	36.34
879.381	36.33
879.758	36.24
880.135	36.25
880.512	36.23
880.889	36.21
881.265	36.22
881.642	36.17
882.019	36.15
882.395	36.11
882.772	36.06
883.148	36.03
883.524	35.98
883.901	35.95
884.277	35.91
884.653	35.87
885.029	35.84
885.405	35.75
885.781	35.72
886.157	35.7
886.532	35.65
886.908	35.65
887.284	35.64
887.659	35.6
888.035	35.6
888.411	35.54
888.786	35.49
889.161	35.44
889.537	35.41
889.912	35.37
890.287	35.32
890.662	35.29
891.037	35.19
891.412	35.09
891.787	35.02
892.162	34.93
892.536	34.84
892.911	34.75
893.286	34.67
893.66	34.59
894.035	34.51
894.409	34.42
894.784	34.31
895.158	34.25
895.532	34.17
895.906	34.09
896.281	34.02
896.655	33.97
897.029	33.9
897.402	33.85
897.776	33.82
898.15	33.76
898.524	33.76
898.898	33.73
899.271	33.7
899.645	33.71
900.018	33.7
900.392	33.75
900.765	33.79
901.138	33.84
901.511	33.88
901.884	33.9
902.258	33.93
902.631	33.95
903.003	33.98
903.376	34
903.749	34.03
904.122	34.06
904.495	34.01
904.867	33.95
905.24	33.9
905.612	33.87
905.985	33.8
906.357	33.76
906.729	33.71
907.102	33.66
907.474	33.64
907.846	33.61
908.218	33.58
908.59	33.58
908.962	33.57
909.334	33.55
909.705	33.53
910.077	33.53
910.449	33.52
910.82	33.5
911.192	33.51
911.563	33.5
911.935	33.47
912.306	33.46
912.677	33.46
913.048	33.47
913.419	33.5
913.79	33.45
914.161	33.45
914.532	33.48
914.903	33.49
915.274	33.49
915.645	33.47
916.015	33.51
916.386	33.52
916.756	33.49
917.127	33.46
917.497	33.47
917.868	33.5
918.238	33.52
918.608	33.48
918.978	33.48
919.348	33.48
919.718	33.5
920.088	33.48
920.458	33.48
920.828	33.51
921.198	33.53
921.567	33.52
921.937	33.54
922.306	33.53
922.676	33.53
923.045	33.48
923.415	33.47
923.784	33.44
924.153	33.41
924.522	33.39
924.891	33.37
925.26	33.33
925.629	33.28
925.998	33.22
926.367	33.18
926.736	33.13
927.104	33.08
927.473	33.02
927.842	32.95
928.21	32.88
928.578	32.77
928.947	32.63
929.315	32.56
929.683	32.48
930.051	32.36
930.42	32.29
930.788	32.21
931.156	32.14
931.523	32.05
931.891	31.97
932.259	31.88
932.627	31.79
932.994	31.77
933.362	31.71
933.729	31.65
934.097	31.67
934.464	31.65
934.831	31.64
935.199	31.66
935.566	31.67
935.933	31.8
936.3	31.85
936.667	31.96
937.034	32.06
937.401	32.16
937.767	32.32
938.134	32.4
938.501	32.51
938.867	32.7
939.234	32.89
939.6	33.06
939.967	33.1
940.333	33.25
940.699	33.36
941.065	33.48
941.431	33.59
941.798	33.66
942.163	33.78
942.529	33.82
942.895	33.86
943.261	33.78
943.627	33.85
943.992	33.88
944.358	33.88
944.723	33.89
945.089	33.9
945.454	33.9
945.82	33.86
946.185	33.85
946.55	33.95
946.915	33.85
947.28	33.85
947.645	33.82
948.01	33.72
948.375	33.71
948.74	33.66
949.104	33.63
949.469	33.53
949.834	33.47
950.198	33.36
950.562	33.23
950.927	33.19
951.291	33.15
951.655	33.06
952.02	33.03
952.384	33
952.748	32.91
953.112	32.82
953.476	32.83
953.839	32.76
954.203	32.73
954.567	32.67
954.931	32.65
955.294	32.56
955.658	32.51
956.021	32.53
956.385	32.53
956.748	32.56
957.111	32.52
957.474	32.53
957.837	32.58
958.2	32.55
958.563	32.55
958.926	32.54
959.289	32.6
959.652	32.59
960.015	32.57
960.377	32.46
960.74	32.42
961.102	32.46
961.465	32.39
961.827	32.26
962.189	32.28
962.552	32.28
962.914	32.25
963.276	32.23
963.638	32.18
964	32.13
964.362	32.2
964.724	32.21
965.085	32.2
965.447	32.2
965.809	32.28
966.17	32.28
966.532	32.3
966.893	32.33
967.255	32.36
967.616	32.43
967.977	32.47
968.338	32.47
968.699	32.46
969.061	32.46
969.421	32.53
969.782	32.56
970.143	32.62
970.504	32.61
970.865	32.6
971.225	32.6
971.586	32.63
971.946	32.62
972.307	32.57
972.667	32.59
973.027	32.61
973.388	32.56
973.748	32.58
974.108	32.57
974.468	32.56
974.828	32.64
975.188	32.62
975.548	32.59
975.907	32.58
976.267	32.65
976.627	32.65
976.986	32.59
977.346	32.6
977.705	32.6
978.064	32.56
978.424	32.62
978.783	32.63
979.142	32.65
979.501	32.69
979.86	32.73
980.219	32.71
980.578	32.79
980.937	32.96
981.296	33.02
981.654	33.04
982.013	33.12
982.371	33.08
982.73	33.04
983.088	33.08
983.447	33.15
983.805	33.2
984.163	33.27
984.521	33.28
984.879	33.31
985.237	33.41
985.595	33.49
985.953	33.53
986.311	33.62
986.669	33.69
987.026	33.79
987.384	33.8
987.741	33.95
988.099	34.01
988.456	34.18
988.814	34.17
989.171	34.13
989.528	34.13
989.885	34.07
990.242	34.18
990.599	34.19
990.956	34.21
991.313	34.24
991.67	34.24
992.027	34.25
992.383	34.24
992.74	34.29
993.096	34.33
993.453	34.34
993.809	34.42
994.165	34.5
994.522	34.54
994.878	34.62
995.234	34.69
995.59	34.57
995.946	34.65
996.302	34.69
996.658	34.71
997.013	34.82
997.369	34.98
997.725	35.09
998.08	35.03
998.436	35.2
998.791	35.14
999.147	35.17
999.502	35.35
999.857	35.42
1000.212	35.49
1000.567	35.65
1000.922	35.72
1001.277	35.76
1001.632	35.91
1001.987	35.8
1002.342	35.73
1002.696	35.89
1003.051	36.04
1003.406	36.23
1003.76	36.28
1004.114	36.37
1004.469	36.29
1004.823	36.38
1005.177	36.6
1005.531	36.66
1005.885	37.07
1006.239	37.16
1006.593	37.17
1006.947	37.26
1007.301	37.27
1007.655	37.47
1008.008	37.61
1008.362	37.93
1008.715	37.98
1009.069	37.83
1009.422	37.76
1009.776	37.79
1010.129	37.89
1010.482	38.16
1010.835	38.36
1011.188	38.43
1011.541	38.34
1011.894	38.24
1012.247	38.2
1012.6	38.31
1012.952	38.62
1013.305	38.66
1013.657	38.94
1014.01	39.41
1014.362	39.44
1014.715	39.39
1015.067	39.64
1015.419	39.86
1015.771	40.28
1016.123	40.38
1016.475	40.69
1016.827	41.01
1017.179	41.53
1017.531	41.52
1017.883	41.49
1018.234	41.64
1018.586	41.83
1018.938	41.84
1019.289	41.98
1019.64	42.31
1019.992	42.72
1020.343	42.74
1020.694	42.29
1021.045	42.18
1021.396	42.33
1021.747	42.6
1022.098	42.91
1022.449	43.08
1022.8	43.19
1023.151	43.52
1023.501	43.22
1023.852	43.38
1024.202	43.67
1024.553	44.3
1024.903	44.73
1025.253	45.01
1025.604	45.27
1025.954	45.3
1026.304	45.86
1026.654	46.42
1027.004	46.67
1027.354	47.03
1027.703	46.74
1028.053	46.68
1028.403	46.73
1028.753	47.38
1029.102	47.7
1029.452	47.85
1029.801	48.22
1030.15	48.1
1030.499	47.95
897.758	574.95
901.051	589.07
904.343	594.86
907.636	584.97
910.928	573.39
914.22	586.93
917.511	572.68
920.803	548.99
924.094	529.55
927.384	534.23
930.675	522.75
933.965	520.22
937.255	515.61
940.544	494.53
943.834	475.7
947.123	470.83
950.411	445.64
953.7	437.79
956.988	427.12
960.276	408.93
963.563	400.94
966.851	379.16
970.138	373.76
973.424	351.74
976.711	347.39
979.997	334.54
983.283	326.65
986.568	316.46
989.853	309.48
993.138	299.04
996.423	294.35
999.708	289.64
1002.992	291.14
1006.275	281.49
1009.559	279.56
1012.842	272.34
1016.125	265.6
1019.408	262.23
1022.69	259.41
1025.972	258.48
1029.254	253.34
1032.536	249.79
1035.817	241.1
1039.098	238.17
1042.379	234.62
1045.659	230.85
1048.939	229.53
1052.219	226.44
1055.498	223.84
1058.778	221.75
1062.057	217.34
1065.335	216.03
1068.614	212.23
1071.892	211.14
1075.17	206.18
1078.447	204.13
1081.724	204
1085.001	199.04
1088.278	199.29
1091.554	197.38
1094.83	196.05
1098.106	192.91
1101.382	192.18
1104.657	191.75
1107.932	190.86
1111.206	190.14
1114.481	189.07
1117.755	187.64
1121.029	188.07
1124.302	185.17
1127.575	182.43
1130.848	181.72
1134.121	179.58
1137.393	179.14
1140.665	179.06
1143.937	177.99
1147.208	176.07
1150.48	174.34
1153.75	172.69
1157.021	171.16
1160.291	170.58
1163.561	170.63
1166.831	168.49
1170.101	168.72
1173.37	167.18
1176.639	164.69
1179.907	164.65
1183.176	164.27
1186.444	164.3
1189.711	163.67
1192.979	164.89
1196.246	164.91
1199.513	164.54
1202.78	165.46
1206.046	165.5
1209.312	166.81
1212.578	167.41
1215.843	169.17
1219.108	170.95
1222.373	172.72
1225.638	175.52
1228.902	178.36
1232.166	182.78
1235.43	184.98
1238.693	189.08
1241.956	193.53
1245.219	196.26
1248.482	198.06
1251.744	196.97
1255.006	195.77
1258.268	191.58
1261.529	189.85
1264.79	185.09
1268.051	182.88
1271.312	181.63
1274.572	178.88
1277.832	173.9
1281.092	172.6
1284.351	169.64
1287.61	169.5
1290.869	169.04
1294.128	169.07
1297.386	167.69
1300.644	167.83
1303.902	165.67
1307.159	164.44
1310.416	164.7
1313.673	167.18
1316.93	167.91
1320.186	170.52
1323.442	171.56
1326.697	174.64
1329.953	175.62
1333.208	180.95
1336.463	186.88
1339.717	190.6
1342.972	198.76
1346.226	202.23
1349.479	203.12
1352.733	210.96
1355.986	215.02
1359.238	219.74
1362.491	219.95
1365.743	228.1
1368.995	227.21
1372.247	229.32
1375.498	228.41
1378.749	233.93
1382	234.47
1385.251	232.66
1388.501	231
1391.751	231.89
1395	229.05
1398.25	231.73
1401.499	229.39
1404.748	230.27
1407.996	221.46
1411.244	221.37
1414.492	218.03
1417.74	211.16
1420.987	207.45
1424.234	204.43
1427.481	196.21
1430.728	191.43
1433.974	184.31
1437.22	176.51
1440.465	171.79
1443.711	166.76
1446.956	161.41
1450.201	154.96
1453.445	148.8
1456.689	144.59
1459.933	139.8
1463.177	135.35
1466.42	133.1
1469.663	129.36
1472.906	127.19
1476.148	122.89
1479.391	121.17
1482.633	119.33
1485.874	117.71
1489.115	117.14
1492.356	115.77
1495.597	114.61
1498.838	113.81
1502.078	112.96
1505.318	113.21
1508.557	112.92
1511.797	112.79
1515.036	112.14
1518.274	112
1521.513	111.06
1524.751	110.23
1527.989	111.85
1531.227	111.49
1534.464	111.55
1537.701	110.73
1540.938	110.18
1544.174	110.3
1547.41	110.23
1550.646	110.28
1553.882	110.15
1557.117	110.6
1560.352	110.42
1563.587	109.55
1566.821	109.47
1570.055	109.28
1573.289	109.56
1576.523	109.82
1579.756	109.55
1582.989	109.86
1586.222	109.78
1589.454	110.19
1592.686	110.04
1595.918	110.33
1599.15	109.75
1602.381	110.39
1605.612	110.72
1608.843	111.12
1612.073	111.33
1615.303	111.66
1618.533	111.43
1621.762	111.68
1624.992	111.83
1628.221	111.48
1631.449	111.93
1634.678	112.25
1637.906	111.91
1641.134	112.56
1644.361	112.46
1647.588	112.73
1650.815	112.82
1654.042	113.31
1657.269	112.96
1660.495	113.31
1663.72	113.6
1666.946	113.53
1670.171	114.06
1673.396	114.66
1676.621	114.61
1679.845	114.44
1683.069	114.51
1686.293	114.31
1689.517	114.17
1692.74	114.79
1695.963	114.82
1699.185	115.21
1702.408	114.95
1705.63	115.3
1708.852	115.93
1712.073	115.09
1715.294	115.26
1718.515	115.51
1721.736	115.67
1724.956	115.26
1728.176	114.91
1731.396	115.74
1734.616	116.05
1737.835	116.5
1741.054	115.59
1744.272	115.07
1747.491	115.9
1750.709	116.78
1753.927	116.57
1757.144	116.42
1760.361	117.18
1763.578	118.41
1766.795	117.65
1770.011	117.18
1773.227	117.87
1776.443	118.72
1779.658	118.85
1782.874	118.93
1786.089	118.23
1789.303	118.64
1792.518	119.71
1795.732	120.14
1798.945	120.2
1802.159	120.63
1805.372	122.33
1808.585	122.96
1811.797	123.95
1815.01	123.8
1818.222	124.65
1821.434	125.34
1824.645	125.91
1827.856	127.9
1831.067	128.54
1834.278	129.08
1837.488	130.11
1840.698	130.91
1843.908	131.09
1847.117	131.8
1850.326	133.88
1853.535	133.32
1856.744	134.71
1859.952	136.11
1863.16	134.71
1866.368	133.65
1869.575	134.33
1872.782	133.18
1875.989	130.81
1879.196	129.85
1882.402	127.8
1885.608	127.12
1888.814	126.91
1892.019	126.91
1895.224	123.68
1898.429	123.5
1901.634	123.7
1904.838	123.37
1908.042	123.52
1911.246	123.61
1914.449	124.06
1917.652	122.72
1920.855	123.88
1924.058	121.3
1927.26	120.23
1930.462	121.86
1933.664	121.7
1936.865	122.31
1940.066	120.01
1943.267	118.66
1946.467	120.21
1949.668	120.38
1952.868	121.49
1956.067	120.25
1959.267	122.22
1962.466	122.6
1965.665	124.25
1968.863	123.37
1972.061	124.8
1975.259	126.93
1978.457	129.6
1981.654	129.59
1984.852	130.43
1988.048	132.57
1991.245	134.01
1994.441	137.87
1997.637	139.41
2000.833	141.44
2004.028	143.86
2007.223	147.32
2010.418	150.73
2013.613	156.31
2016.807	160
2020.001	163.97
2023.194	168.45
2026.388	174.9
2029.581	183.78
2032.774	190.5
2035.966	195.38
2039.158	202.27
2042.35	205.31
2045.542	210.05
2048.733	218.38
2051.924	221.1
2055.115	221.84
2058.306	224.4
2061.496	229.58
2064.686	227.11
2067.875	225.97
2071.065	227.68
2074.254	227.48
2077.442	234.15
2080.631	236.56
2083.819	236.58
2087.007	241.46
2090.195	247.91
2093.382	248.09
2096.569	247.63
2099.756	250.95
2102.942	257.58
2106.128	263.73
2109.314	267.08
2112.5	266.74
2115.685	264.8
2118.87	265.4
2122.055	267.1
2125.239	271.65
2128.424	278.15
2131.608	275.83
2134.791	278.29
2137.974	278.77
2141.157	280.98
2144.34	284.04
2147.523	288.34
2150.705	296.18
2153.887	292.38
2157.068	294.38
2160.25	297.49
2163.431	296.84
2166.611	301.67
2169.792	305.01
2172.972	307.02
2176.152	306.99
2179.331	312.14
2182.511	311.55
2185.69	314.75
2188.868	328.07
2192.047	335.49
2195.225	339.6
2198.403	345.12
2201.58	340.44
2204.758	352.48
2207.935	358.5
2211.111	364.41
2214.288	366.88
2217.464	372.88
2220.64	374.21
2223.815	374.43
2226.991	372.65
2230.166	375.01
2233.34	382.92
2236.515	398.43
2239.689	394.8
2242.863	397.8
2246.036	395.69
2249.209	403.97
2252.382	400.78
2255.555	418.37
2258.727	421.02
2261.9	431.44
2265.071	435.62
2268.243	431.98
2271.414	443.39
2274.585	450.6
2277.756	451.05
2280.926	468.43
2284.096	470.49
2287.266	474.87
2290.436	462.6
2293.605	472.77
2296.774	490.19
2299.942	487.87
2303.111	503.43
2306.279	509.86
2309.447	511.42
2312.614	513.07
2315.781	525.55
2318.948	530.8
2322.115	539.33
2325.281	567.2
2328.447	564.52
2331.613	566.6
2334.779	575.59
2337.944	590.34
2341.109	598.62
2344.274	605.02
2347.438	620.75
2350.602	630.8
2353.766	668.96
2356.929	673.83
2360.092	678.16
2363.255	680.04
2366.418	688.52
2369.58	709.11
2372.742	700.55
2375.904	700.77
2379.066	723.31
2382.227	760.93
2385.388	758
2388.548	718.5
2391.709	711.34
2394.869	736.81
2398.029	739.06
2401.188	741.4
2404.347	758.22
2407.506	785.32
2410.665	754.86
2413.823	758.91
2416.981	765.09
2420.139	725.94
2423.296	784.87
2426.453	840.92
2429.61	796.24
2432.767	852.17
2435.923	872.5
2439.079	856.04
2442.235	869.39
2445.391	893.39
2448.546	883.12
2451.701	933.22
2454.855	997.28
2458.009	885.73
2461.163	892.01
2464.317	907.95
2467.471	890.59
2470.624	916.13
2473.777	896.37
2476.929	869.61
2480.082	928.15
2483.234	976.13
2486.385	986.9
2489.537	1009.59
2492.688	1108.81
2495.839	1093.27
2498.989	1123.24
2502.14	1125.37
2505.29	1089.93
2508.439	1198.12
2511.589	1230.9
2514.738	1182.29
2517.887	1170.86
2521.035	1094.43
2524.183	1078.7
2527.331	1070.39
2530.479	1042.49
2533.627	1069.09
