Data from c_3_dec_ct_2n_Splice17_01.txt Node
Date: Sat Feb 29 14:45:28 EST 2020
User: sa697716
Spectrometer: FLMS03696
Trigger mode: 0
Integration Time (sec): 3.180400E-1
Scans to average: 20
Electric dark correction enabled: true
Nonlinearity correction enabled: true
Boxcar width: 5
XAxis mode: Wavelengths
Number of Pixels in Spectrum: 2048
>>>>>Begin Spectral Data<<<<<
187.83	75.18
188.298	75.99
188.766	76.98
189.233	65.77
189.701	72.34
190.169	65.16
190.636	74.96
191.104	59.74
191.571	97.24
192.039	79
192.506	298.32
192.974	4042.11
193.441	-211.43
193.908	96.23
194.375	20.78
194.842	42.32
195.31	15.06
195.777	83.72
196.244	19.39
196.711	19.53
197.177	16.47
197.644	17.16
198.111	17.39
198.578	17.43
199.045	18.53
199.511	19.45
199.978	20.13
200.445	19.99
200.911	19.85
201.378	19.88
201.844	20.36
202.31	21.2
202.777	21.32
203.243	21.77
203.709	22.7
204.176	22.09
204.642	22.05
205.108	21.47
205.574	22.2
206.04	22.28
206.506	22.96
206.972	22.74
207.438	22.47
207.903	22.93
208.369	22.65
208.835	22.19
209.301	22.52
209.766	22.66
210.232	23.01
210.697	22.8
211.163	22.65
211.628	22.3
212.094	22.23
212.559	22.05
213.024	21.82
213.49	21.51
213.955	21.56
214.42	21.15
214.885	20.89
215.35	20.47
215.815	19.65
216.28	19.23
216.745	18.76
217.21	18.37
217.675	17.88
218.14	17.31
218.604	16.84
219.069	16.34
219.534	15.97
219.998	15.55
220.463	15.24
220.927	15.03
221.392	14.75
221.856	14.52
222.32	14.31
222.785	14.11
223.249	13.93
223.713	13.77
224.177	13.58
224.642	13.43
225.106	13.28
225.57	13.15
226.034	13.02
226.497	12.89
226.961	12.74
227.425	12.55
227.889	12.4
228.353	12.23
228.816	12.08
229.28	11.94
229.744	11.8
230.207	11.68
230.671	11.52
231.134	11.36
231.597	11.24
232.061	11.09
232.524	10.98
232.987	10.84
233.45	10.72
233.914	10.6
234.377	10.49
234.84	10.38
235.303	10.25
235.766	10.16
236.229	10.06
236.691	9.96
237.154	9.87
237.617	9.76
238.08	9.68
238.542	9.58
239.005	9.48
239.468	9.38
239.93	9.29
240.393	9.2
240.855	9.09
241.317	9
241.78	8.89
242.242	8.8
242.704	8.72
243.166	8.64
243.629	8.55
244.091	8.49
244.553	8.42
245.015	8.34
245.477	8.26
245.939	8.2
246.4	8.14
246.862	8.09
247.324	8.01
247.786	7.96
248.247	7.9
248.709	7.83
249.17	7.77
249.632	7.71
250.093	7.64
250.555	7.57
251.016	7.52
251.477	7.46
251.939	7.41
252.4	7.38
252.861	7.32
253.322	7.27
253.783	7.24
254.244	7.18
254.705	7.14
255.166	7.11
255.627	7.08
256.088	7.04
256.549	7
257.009	6.96
257.47	6.91
257.931	6.88
258.391	6.83
258.852	6.79
259.312	6.75
259.773	6.71
260.233	6.67
260.694	6.62
261.154	6.6
261.614	6.56
262.074	6.52
262.534	6.47
262.994	6.44
263.455	6.41
263.915	6.38
264.374	6.35
264.834	6.32
265.294	6.29
265.754	6.26
266.214	6.23
266.673	6.2
267.133	6.17
267.593	6.16
268.052	6.13
268.512	6.1
268.971	6.08
269.431	6.05
269.89	6.03
270.349	6.01
270.809	6
271.268	5.99
271.727	5.97
272.186	5.95
272.645	5.92
273.104	5.9
273.563	5.89
274.022	5.87
274.481	5.85
274.94	5.82
275.399	5.8
275.857	5.78
276.316	5.74
276.775	5.72
277.233	5.69
277.692	5.67
278.15	5.64
278.609	5.62
279.067	5.58
279.525	5.56
279.984	5.53
280.442	5.52
280.9	5.5
281.358	5.48
281.816	5.46
282.274	5.44
282.732	5.42
283.19	5.41
283.648	5.39
284.106	5.38
284.564	5.37
285.021	5.36
285.479	5.35
285.937	5.33
286.394	5.31
286.852	5.3
287.309	5.29
287.767	5.28
288.224	5.27
288.682	5.26
289.139	5.25
289.596	5.23
290.053	5.21
290.511	5.18
290.968	5.17
291.425	5.16
291.882	5.14
292.339	5.12
292.796	5.09
293.252	5.07
293.709	5.05
294.166	5.03
294.623	5.01
295.079	5
295.536	4.99
295.992	4.98
296.449	4.96
296.905	4.95
297.362	4.93
297.818	4.92
298.274	4.91
298.731	4.9
299.187	4.89
299.643	4.87
300.099	4.86
300.555	4.84
301.011	4.83
301.467	4.82
301.923	4.8
302.379	4.79
302.835	4.78
303.291	4.77
303.746	4.75
304.202	4.73
304.658	4.72
305.113	4.7
305.569	4.7
306.024	4.69
306.479	4.68
306.935	4.67
307.39	4.66
307.845	4.66
308.301	4.66
308.756	4.66
309.211	4.66
309.666	4.66
310.121	4.66
310.576	4.66
311.031	4.65
311.486	4.65
311.94	4.65
312.395	4.65
312.85	4.64
313.305	4.63
313.759	4.63
314.214	4.62
314.668	4.61
315.123	4.6
315.577	4.59
316.032	4.57
316.486	4.56
316.94	4.56
317.394	4.54
317.849	4.53
318.303	4.52
318.757	4.5
319.211	4.48
319.665	4.47
320.119	4.47
320.572	4.47
321.026	4.47
321.48	4.46
321.934	4.44
322.387	4.43
322.841	4.42
323.295	4.42
323.748	4.41
324.202	4.41
324.655	4.39
325.108	4.38
325.562	4.36
326.015	4.34
326.468	4.33
326.921	4.32
327.374	4.32
327.827	4.31
328.28	4.3
328.733	4.28
329.186	4.28
329.639	4.27
330.092	4.26
330.545	4.25
330.997	4.26
331.45	4.25
331.903	4.24
332.355	4.23
332.808	4.22
333.26	4.23
333.713	4.24
334.165	4.23
334.617	4.24
335.069	4.24
335.522	4.25
335.974	4.25
336.426	4.25
336.878	4.25
337.33	4.25
337.782	4.24
338.234	4.23
338.686	4.22
339.137	4.21
339.589	4.2
340.041	4.2
340.493	4.18
340.944	4.16
341.396	4.16
341.847	4.14
342.299	4.12
342.75	4.11
343.201	4.09
343.653	4.08
344.104	4.07
344.555	4.06
345.006	4.04
345.457	4.03
345.908	4.02
346.359	4.01
346.81	4.01
347.261	4
347.712	4
348.163	3.99
348.613	3.97
349.064	3.95
349.515	3.95
349.965	3.94
350.416	3.93
350.866	3.92
351.317	3.91
351.767	3.9
352.217	3.89
352.668	3.89
353.118	3.9
353.568	3.9
354.018	3.92
354.468	3.91
354.918	3.91
355.368	3.91
355.818	3.91
356.268	3.91
356.718	3.91
357.168	3.9
357.617	3.89
358.067	3.9
358.517	3.88
358.966	3.89
359.416	3.89
359.865	3.88
360.315	3.88
360.764	3.88
361.213	3.87
361.663	3.87
362.112	3.88
362.561	3.87
363.01	3.88
363.459	3.87
363.908	3.87
364.357	3.85
364.806	3.86
365.255	3.86
365.703	3.87
366.152	3.88
366.601	3.89
367.05	3.89
367.498	3.89
367.947	3.88
368.395	3.88
368.844	3.88
369.292	3.88
369.74	3.87
370.189	3.87
370.637	3.86
371.085	3.86
371.533	3.84
371.981	3.84
372.429	3.83
372.877	3.83
373.325	3.83
373.773	3.82
374.221	3.83
374.669	3.83
375.116	3.83
375.564	3.83
376.012	3.83
376.459	3.84
376.907	3.85
377.354	3.86
377.801	3.86
378.249	3.87
378.696	3.88
379.143	3.88
379.591	3.89
380.038	3.9
380.485	3.91
380.932	3.92
381.379	3.92
381.826	3.93
382.273	3.93
382.72	3.92
383.166	3.93
383.613	3.94
384.06	3.95
384.506	3.94
384.953	3.94
385.4	3.94
385.846	3.95
386.292	3.96
386.739	3.95
387.185	3.97
387.631	3.98
388.078	3.97
388.524	3.95
388.97	3.95
389.416	3.95
389.862	3.95
390.308	3.97
390.754	3.97
391.2	3.97
391.645	3.99
392.091	3.99
392.537	4
392.983	4.02
393.428	4.04
393.874	4.07
394.319	4.08
394.765	4.08
395.21	4.07
395.655	4.07
396.101	4.08
396.546	4.09
396.991	4.1
397.436	4.09
397.881	4.1
398.326	4.12
398.771	4.13
399.216	4.16
399.661	4.18
400.106	4.21
400.551	4.23
400.995	4.24
401.44	4.24
401.885	4.24
402.329	4.27
402.774	4.26
403.218	4.26
403.663	4.25
404.107	4.26
404.551	4.27
404.995	4.27
405.44	4.27
405.884	4.27
406.328	4.29
406.772	4.3
407.216	4.31
407.66	4.33
408.104	4.34
408.547	4.36
408.991	4.37
409.435	4.37
409.879	4.38
410.322	4.4
410.766	4.43
411.209	4.43
411.653	4.43
412.096	4.45
412.54	4.45
412.983	4.46
413.426	4.46
413.869	4.47
414.312	4.49
414.756	4.51
415.199	4.53
415.642	4.56
416.085	4.58
416.527	4.6
416.97	4.61
417.413	4.62
417.856	4.63
418.298	4.63
418.741	4.64
419.184	4.63
419.626	4.63
420.069	4.62
420.511	4.61
420.953	4.61
421.396	4.6
421.838	4.62
422.28	4.64
422.722	4.65
423.164	4.66
423.606	4.66
424.048	4.67
424.49	4.68
424.932	4.69
425.374	4.7
425.816	4.7
426.258	4.7
426.699	4.67
427.141	4.65
427.582	4.65
428.024	4.66
428.465	4.66
428.907	4.67
429.348	4.67
429.789	4.66
430.231	4.65
430.672	4.66
431.113	4.66
431.554	4.67
431.995	4.68
432.436	4.66
432.877	4.65
433.318	4.65
433.759	4.64
434.2	4.63
434.64	4.63
435.081	4.64
435.522	4.63
435.962	4.64
436.403	4.67
436.843	4.68
437.284	4.69
437.724	4.73
438.164	4.73
438.604	4.75
439.045	4.75
439.485	4.76
439.925	4.77
440.365	4.77
440.805	4.77
441.245	4.74
441.685	4.74
442.125	4.73
442.564	4.71
443.004	4.7
443.444	4.7
443.883	4.72
444.323	4.71
444.762	4.7
445.202	4.73
445.641	4.74
446.081	4.78
446.52	4.79
446.959	4.81
447.398	4.85
447.837	4.88
448.276	4.88
448.716	4.89
449.154	4.93
449.593	4.93
450.032	4.94
450.471	4.94
450.91	4.93
451.349	4.92
451.787	4.92
452.226	4.88
452.664	4.86
453.103	4.88
453.541	4.87
453.98	4.87
454.418	4.86
454.856	4.84
455.295	4.82
455.733	4.8
456.171	4.81
456.609	4.81
457.047	4.82
457.485	4.83
457.923	4.82
458.361	4.8
458.798	4.79
459.236	4.79
459.674	4.8
460.111	4.8
460.549	4.79
460.987	4.8
461.424	4.77
461.862	4.77
462.299	4.75
462.736	4.76
463.173	4.76
463.611	4.75
464.048	4.74
464.485	4.73
464.922	4.73
465.359	4.74
465.796	4.7
466.233	4.71
466.67	4.71
467.106	4.68
467.543	4.67
467.98	4.67
468.416	4.67
468.853	4.68
469.29	4.68
469.726	4.69
470.162	4.69
470.599	4.71
471.035	4.71
471.471	4.71
471.907	4.73
472.344	4.72
472.78	4.72
473.216	4.7
473.652	4.7
474.088	4.72
474.523	4.7
474.959	4.7
475.395	4.69
475.831	4.69
476.266	4.69
476.702	4.68
477.138	4.67
477.573	4.66
478.008	4.68
478.444	4.65
478.879	4.63
479.314	4.63
479.75	4.63
480.185	4.63
480.62	4.64
481.055	4.63
481.49	4.63
481.925	4.61
482.36	4.6
482.795	4.59
483.229	4.59
483.664	4.6
484.099	4.58
484.534	4.56
484.968	4.55
485.403	4.53
485.837	4.52
486.271	4.52
486.706	4.51
487.14	4.52
487.574	4.52
488.009	4.52
488.443	4.51
488.877	4.52
489.311	4.53
489.745	4.54
490.179	4.53
490.613	4.54
491.046	4.55
491.48	4.56
491.914	4.56
492.348	4.56
492.781	4.57
493.215	4.56
493.648	4.58
494.082	4.59
494.515	4.6
494.948	4.61
495.382	4.62
495.815	4.62
496.248	4.63
496.681	4.64
497.114	4.66
497.547	4.68
497.98	4.7
498.413	4.71
498.846	4.72
499.279	4.74
499.711	4.77
500.144	4.8
500.577	4.82
501.009	4.86
501.442	4.89
501.874	4.92
502.306	4.95
502.739	4.98
503.171	5.03
503.603	5.07
504.036	5.11
504.468	5.15
504.9	5.21
505.332	5.27
505.764	5.32
506.196	5.4
506.627	5.46
507.059	5.52
507.491	5.61
507.923	5.68
508.354	5.77
508.786	5.86
509.217	5.95
509.649	6.05
510.08	6.15
510.512	6.25
510.943	6.35
511.374	6.46
511.805	6.56
512.237	6.68
512.668	6.78
513.099	6.9
513.53	7
513.961	7.14
514.391	7.26
514.822	7.37
515.253	7.5
515.684	7.63
516.114	7.77
516.545	7.91
516.975	8.06
517.406	8.21
517.836	8.35
518.267	8.52
518.697	8.67
519.127	8.83
519.558	9
519.988	9.16
520.418	9.33
520.848	9.5
521.278	9.66
521.708	9.66
522.138	9.83
522.567	9.98
522.997	10.14
523.427	10.29
523.857	10.44
524.286	10.6
524.716	10.74
525.145	10.89
525.575	11.03
526.004	11.18
526.433	11.46
526.863	11.6
527.292	11.73
527.721	11.87
528.15	11.98
528.579	12.09
529.008	12.2
529.437	12.31
529.866	12.4
530.295	12.5
530.724	12.6
531.152	12.72
531.581	12.8
532.01	12.89
532.438	12.95
532.867	13.03
533.295	13.1
533.723	13.18
534.152	13.25
534.58	13.31
535.008	13.36
535.436	13.4
535.865	13.42
536.293	13.46
536.721	13.48
537.149	13.51
537.576	13.55
538.004	13.59
538.432	13.6
538.86	13.62
539.287	13.65
539.715	13.68
540.143	13.7
540.57	13.71
540.998	13.74
541.425	13.76
541.852	13.78
542.28	13.8
542.707	13.82
543.134	13.85
543.561	13.86
543.988	13.87
544.415	13.88
544.842	13.91
545.269	13.96
545.696	13.99
546.123	14.01
546.549	14.03
546.976	14.05
547.403	14.07
547.829	14.09
548.256	14.11
548.682	14.13
549.108	14.16
549.535	14.15
549.961	14.14
550.387	14.12
550.813	14.13
551.24	14.14
551.666	14.15
552.092	14.15
552.518	14.13
552.943	14.12
553.369	14.1
553.795	14.08
554.221	14.06
554.646	14.04
555.072	14.01
555.498	13.97
555.923	13.93
556.349	13.87
556.774	13.81
557.199	13.79
557.625	13.74
558.05	13.68
558.475	13.62
558.9	13.55
559.325	13.48
559.75	13.41
560.175	13.35
560.6	13.27
561.025	13.19
561.449	13.09
561.874	12.99
562.299	12.89
562.723	12.79
563.148	12.67
563.572	12.58
563.997	12.48
564.421	12.37
564.846	12.24
565.27	12.12
565.694	12.02
566.118	11.9
566.542	11.78
566.966	11.67
567.39	11.55
567.814	11.44
568.238	11.31
568.662	11.2
569.086	11.08
569.509	10.97
569.933	10.85
570.357	10.72
570.78	10.63
571.204	10.52
571.627	10.4
572.05	10.31
572.474	10.22
572.897	10.12
573.32	10.02
573.743	9.93
574.166	9.83
574.589	9.76
575.012	9.69
575.435	9.61
575.858	9.54
576.281	9.47
576.704	9.42
577.126	9.34
577.549	9.29
577.972	9.24
578.394	9.17
578.817	9.11
579.239	9.04
579.661	8.99
580.084	8.93
580.506	8.88
580.928	8.83
581.35	8.76
581.772	8.72
582.194	8.66
582.616	8.62
583.038	8.58
583.46	8.55
583.882	8.52
584.303	8.49
584.725	8.45
585.147	8.4
585.568	8.36
585.99	8.34
586.411	8.3
586.833	8.27
587.254	8.24
587.675	8.22
588.096	8.19
588.518	8.16
588.939	8.13
589.36	8.1
589.781	8.1
590.202	8.07
590.623	8.04
591.043	8.02
591.464	7.99
591.885	7.97
592.305	7.95
592.726	7.92
593.147	7.91
593.567	7.89
593.987	7.88
594.408	7.84
594.828	7.83
595.248	7.81
595.669	7.79
596.089	7.77
596.509	7.75
596.929	7.73
597.349	7.71
597.769	7.7
598.189	7.68
598.608	7.64
599.028	7.63
599.448	7.61
599.867	7.58
600.287	7.56
600.706	7.53
601.126	7.5
601.545	7.47
601.965	7.43
602.384	7.4
602.803	7.34
603.222	7.32
603.641	7.29
604.061	7.24
604.48	7.22
604.898	7.18
605.317	7.15
605.736	7.12
606.155	7.07
606.574	7.04
606.992	6.98
607.411	6.96
607.829	6.88
608.248	6.84
608.666	6.8
609.085	6.75
609.503	6.7
609.921	6.66
610.339	6.63
610.758	6.59
611.176	6.56
611.594	6.52
612.012	6.48
612.43	6.48
612.847	6.45
613.265	6.42
613.683	6.38
614.101	6.34
614.518	6.31
614.936	6.27
615.353	6.25
615.771	6.2
616.188	6.18
616.606	6.16
617.023	6.13
617.44	6.1
617.857	6.07
618.274	6.06
618.691	6.04
619.108	6.01
619.525	6
619.942	5.98
620.359	5.97
620.776	5.95
621.192	5.94
621.609	5.92
622.026	5.91
622.442	5.89
622.859	5.87
623.275	5.87
623.691	5.86
624.108	5.84
624.524	5.83
624.94	5.8
625.356	5.79
625.772	5.78
626.188	5.79
626.604	5.77
627.02	5.77
627.436	5.77
627.852	5.75
628.268	5.75
628.683	5.73
629.099	5.74
629.514	5.74
629.93	5.73
630.345	5.71
630.761	5.69
631.176	5.68
631.591	5.65
632.007	5.63
632.422	5.62
632.837	5.6
633.252	5.6
633.667	5.56
634.082	5.55
634.497	5.53
634.911	5.51
635.326	5.49
635.741	5.46
636.155	5.44
636.57	5.41
636.984	5.37
637.399	5.33
637.813	5.29
638.228	5.25
638.642	5.21
639.056	5.18
639.47	5.14
639.884	5.09
640.298	5.05
640.712	5.01
641.126	4.98
641.54	4.95
641.954	4.93
642.368	4.89
642.781	4.87
643.195	4.83
643.609	4.79
644.022	4.76
644.436	4.74
644.849	4.72
645.262	4.7
645.676	4.67
646.089	4.63
646.502	4.59
646.915	4.57
647.328	4.54
647.741	4.51
648.154	4.5
648.567	4.48
648.98	4.46
649.393	4.44
649.805	4.44
650.218	4.41
650.631	4.4
651.043	4.4
651.456	4.4
651.868	4.39
652.28	4.39
652.693	4.37
653.105	4.36
653.517	4.34
653.929	4.33
654.341	4.32
654.753	4.29
655.165	4.28
655.577	4.25
655.989	4.22
656.401	4.2
656.813	4.18
657.224	4.16
657.636	4.15
658.047	4.13
658.459	4.11
658.87	4.08
659.282	4.07
659.693	4.05
660.104	4.03
660.515	4.02
660.926	4
661.338	3.98
661.749	3.96
662.159	3.93
662.57	3.92
662.981	3.9
663.392	3.88
663.803	3.87
664.213	3.86
664.624	3.86
665.035	3.84
665.445	3.83
665.855	3.83
666.266	3.83
666.676	3.83
667.086	3.82
667.497	3.82
667.907	3.82
668.317	3.81
668.727	3.81
669.137	3.82
669.547	3.84
669.956	3.85
670.366	3.85
670.776	3.84
671.186	3.85
671.595	3.86
672.005	3.88
672.414	3.89
672.824	3.92
673.233	3.93
673.642	3.93
674.052	3.93
674.461	3.94
674.87	3.95
675.279	3.96
675.688	3.97
676.097	3.99
676.506	4
676.915	4.01
677.323	4.02
677.732	4.03
678.141	4.06
678.549	4.08
678.958	4.1
679.366	4.11
679.775	4.14
680.183	4.16
680.592	4.18
681	4.19
681.408	4.22
681.816	4.24
682.224	4.28
682.632	4.3
683.04	4.33
683.448	4.36
683.856	4.41
684.264	4.45
684.671	4.5
685.079	4.56
685.487	4.64
685.894	4.72
686.302	4.78
686.709	4.86
687.116	4.95
687.524	5.06
687.931	5.16
688.338	5.29
688.745	5.44
689.152	5.61
689.559	5.76
689.966	5.92
690.373	6.11
690.78	6.33
691.187	6.56
691.593	6.8
692	7.05
692.407	7.34
692.813	7.63
693.22	7.91
693.626	8.22
694.032	8.56
694.439	8.91
694.845	9.26
695.251	9.62
695.657	10
696.063	10.38
696.469	10.78
696.875	11.17
697.281	11.56
697.687	11.99
698.093	12.41
698.498	12.84
698.904	13.27
699.31	13.71
699.715	14.15
700.12	14.58
700.526	15.05
700.931	15.49
701.337	15.93
701.742	16.38
702.147	16.83
702.552	17.28
702.957	17.74
703.362	18.2
703.767	18.64
704.172	19.1
704.577	19.56
704.981	19.99
705.386	20.45
705.791	20.93
706.195	21.4
706.6	21.86
707.004	22.32
707.408	22.77
707.813	23.22
708.217	23.68
708.621	24.15
709.025	24.58
709.43	25.04
709.834	25.5
710.237	25.94
710.641	26.37
711.045	26.78
711.449	27.22
711.853	27.63
712.256	28.07
712.66	28.51
713.064	28.93
713.467	29.38
713.87	29.82
714.274	30.25
714.677	30.67
715.08	31.1
715.484	31.56
715.887	31.98
716.29	32.41
716.693	32.81
717.096	33.22
717.499	33.62
717.901	33.98
718.304	34.37
718.707	34.73
719.109	35.12
719.512	35.49
719.915	35.84
720.317	36.19
720.719	36.53
721.122	36.87
721.524	37.21
721.926	37.56
722.328	37.92
722.731	38.24
723.133	38.59
723.535	38.95
723.937	39.26
724.338	39.57
724.74	39.87
725.142	40.13
725.544	40.41
725.945	40.7
726.347	40.98
726.748	41.23
727.15	41.47
727.551	41.7
727.952	41.9
728.354	42.15
728.755	42.4
729.156	42.63
729.557	42.9
729.958	43.14
730.359	43.34
730.76	43.49
731.161	43.71
731.562	43.92
731.962	44.11
732.363	44.27
732.763	44.45
733.164	44.58
733.564	44.69
733.965	44.84
734.365	44.97
734.766	45.11
735.166	45.27
735.566	45.35
735.966	45.43
736.366	45.5
736.766	45.62
737.166	45.7
737.566	45.81
737.966	45.95
738.365	46.07
738.765	46.15
739.165	46.21
739.564	46.31
739.964	46.4
740.363	46.51
740.763	46.62
741.162	46.69
741.561	46.78
741.96	46.89
742.36	46.96
742.759	46.97
743.158	47.03
743.557	47.12
743.955	47.21
744.354	47.3
744.753	47.4
745.152	47.44
745.55	47.47
745.949	47.54
746.348	47.57
746.746	47.63
747.144	47.75
747.543	47.85
747.941	47.9
748.339	47.95
748.737	47.99
749.136	48.04
749.534	48.1
749.932	48.18
750.33	48.21
750.727	48.25
751.125	48.3
751.523	48.29
751.921	48.31
752.318	48.32
752.716	48.33
753.113	48.33
753.511	48.29
753.908	48.28
754.305	48.26
754.703	48.26
755.1	48.23
755.497	48.22
755.894	48.22
756.291	48.22
756.688	48.22
757.085	48.21
757.482	48.23
757.878	48.26
758.275	48.28
758.672	48.29
759.068	48.29
759.465	48.32
759.861	48.32
760.258	48.3
760.654	48.28
761.05	48.29
761.447	48.28
761.843	48.27
762.239	48.27
762.635	48.26
763.031	48.29
763.427	48.29
763.822	48.29
764.218	48.29
764.614	48.3
765.01	48.29
765.405	48.3
765.801	48.27
766.196	48.26
766.592	48.24
766.987	48.26
767.382	48.23
767.778	48.24
768.173	48.23
768.568	48.2
768.963	48.19
769.358	48.18
769.753	48.18
770.148	48.21
770.542	48.18
770.937	48.16
771.332	48.16
771.726	48.14
772.121	48.07
772.515	48.08
772.91	48.11
773.304	48.13
773.699	48.12
774.093	48.1
774.487	48.12
774.881	48.14
775.275	48.16
775.669	48.17
776.063	48.17
776.457	48.2
776.851	48.15
777.245	48.14
777.638	48.11
778.032	48.15
778.425	48.16
778.819	48.15
779.212	48.13
779.606	48.17
779.999	48.15
780.392	48.15
780.786	48.16
781.179	48.24
781.572	48.24
781.965	48.27
782.358	48.21
782.751	48.22
783.143	48.22
783.536	48.24
783.929	48.22
784.322	48.24
784.714	48.27
785.107	48.3
785.499	48.29
785.891	48.31
786.284	48.28
786.676	48.34
787.068	48.31
787.46	48.3
787.852	48.29
788.245	48.29
788.636	48.28
789.028	48.29
789.42	48.28
789.812	48.27
790.204	48.26
790.595	48.28
790.987	48.28
791.378	48.32
791.77	48.36
792.161	48.4
792.553	48.41
792.944	48.44
793.335	48.44
793.726	48.41
794.117	48.42
794.508	48.44
794.899	48.43
795.29	48.44
795.681	48.44
796.072	48.42
796.463	48.4
796.853	48.38
797.244	48.36
797.634	48.37
798.025	48.37
798.415	48.38
798.806	48.4
799.196	48.44
799.586	48.43
799.976	48.45
800.366	48.45
800.756	48.47
801.146	48.5
801.536	48.51
801.926	48.54
802.316	48.55
802.706	48.57
803.095	48.56
803.485	48.57
803.874	48.58
804.264	48.59
804.653	48.62
805.043	48.64
805.432	48.65
805.821	48.67
806.21	48.66
806.599	48.72
806.988	48.71
807.377	48.75
807.766	48.76
808.155	48.79
808.544	48.77
808.933	48.78
809.321	48.8
809.71	48.85
810.098	48.86
810.487	48.88
810.875	48.85
811.264	48.89
811.652	48.86
812.04	48.85
812.428	48.87
812.816	48.9
813.204	48.9
813.592	48.89
813.98	48.86
814.368	48.87
814.756	48.87
815.144	48.89
815.531	48.9
815.919	48.93
816.306	48.95
816.694	48.93
817.081	48.89
817.469	48.92
817.856	48.96
818.243	48.98
818.63	49.02
819.017	49.05
819.404	49.02
819.791	49.02
820.178	49.03
820.565	49.06
820.952	49.06
821.339	49.13
821.725	49.16
822.112	49.14
822.498	49.14
822.885	49.14
823.271	49.14
823.657	49.19
824.044	49.17
824.43	49.19
824.816	49.18
825.202	49.16
825.588	49.15
825.974	49.12
826.36	49.14
826.746	49.15
827.132	49.11
827.517	49.12
827.903	49.11
828.289	49.11
828.674	49.09
829.06	49.08
829.445	49.11
829.83	49.13
830.216	49.12
830.601	49.14
830.986	49.12
831.371	49.12
831.756	49.08
832.141	49.07
832.526	49.06
832.911	49.08
833.295	49.09
833.68	49.08
834.065	49.06
834.449	49.05
834.834	48.99
835.218	48.99
835.603	49
835.987	49.01
836.371	49.01
836.755	48.98
837.139	48.93
837.524	48.91
837.908	48.87
838.291	48.84
838.675	48.87
839.059	48.88
839.443	48.88
839.827	48.83
840.21	48.83
840.594	48.82
840.977	48.83
841.361	48.88
841.744	48.86
842.127	48.86
842.511	48.87
842.894	48.84
843.277	48.84
843.66	48.82
844.043	48.87
844.426	48.84
844.809	48.82
845.191	48.81
845.574	48.77
845.957	48.76
846.339	48.75
846.722	48.73
847.104	48.73
847.487	48.74
847.869	48.74
848.252	48.69
848.634	48.74
849.016	48.76
849.398	48.8
849.78	48.79
850.162	48.79
850.544	48.84
850.926	48.83
851.307	48.84
851.689	48.83
852.071	48.81
852.452	48.82
852.834	48.77
853.215	48.78
853.597	48.74
853.978	48.71
854.359	48.72
854.741	48.71
855.122	48.71
855.503	48.71
855.884	48.71
856.265	48.72
856.646	48.71
857.026	48.73
857.407	48.68
857.788	48.7
858.169	48.72
858.549	48.74
858.93	48.74
859.31	48.75
859.69	48.74
860.071	48.73
860.451	48.75
860.831	48.76
861.211	48.75
861.591	48.8
861.971	48.77
862.351	48.82
862.731	48.81
863.111	48.8
863.491	48.81
863.87	48.81
864.25	48.82
864.629	48.82
865.009	48.83
865.388	48.83
865.768	48.81
866.147	48.84
866.526	48.78
866.905	48.8
867.284	48.81
867.663	48.81
868.042	48.84
868.421	48.85
868.8	48.83
869.179	48.85
869.558	48.85
869.936	48.83
870.315	48.82
870.693	48.86
871.072	48.83
871.45	48.81
871.828	48.79
872.207	48.79
872.585	48.8
872.963	48.78
873.341	48.75
873.719	48.74
874.097	48.76
874.475	48.76
874.853	48.74
875.23	48.77
875.608	48.77
875.986	48.76
876.363	48.76
876.741	48.75
877.118	48.76
877.495	48.74
877.873	48.72
878.25	48.7
878.627	48.7
879.004	48.7
879.381	48.68
879.758	48.66
880.135	48.68
880.512	48.66
880.889	48.65
881.265	48.67
881.642	48.69
882.019	48.72
882.395	48.73
882.772	48.75
883.148	48.74
883.524	48.75
883.901	48.77
884.277	48.77
884.653	48.76
885.029	48.76
885.405	48.74
885.781	48.74
886.157	48.73
886.532	48.71
886.908	48.73
887.284	48.72
887.659	48.71
888.035	48.71
888.411	48.67
888.786	48.66
889.161	48.66
889.537	48.69
889.912	48.66
890.287	48.68
890.662	48.67
891.037	48.61
891.412	48.59
891.787	48.57
892.162	48.55
892.536	48.56
892.911	48.53
893.286	48.48
893.66	48.45
894.035	48.44
894.409	48.38
894.784	48.37
895.158	48.36
895.532	48.36
895.906	48.34
896.281	48.3
896.655	48.28
897.029	48.26
897.402	48.27
897.776	48.23
898.15	48.22
898.524	48.22
898.898	48.19
899.271	48.19
899.645	48.21
900.018	48.21
900.392	48.21
900.765	48.22
901.138	48.23
901.511	48.21
901.884	48.22
902.258	48.21
902.631	48.21
903.003	48.23
903.376	48.22
903.749	48.19
904.122	48.17
904.495	48.19
904.867	48.17
905.24	48.19
905.612	48.17
905.985	48.17
906.357	48.17
906.729	48.12
907.102	48.12
907.474	48.13
907.846	48.11
908.218	48.11
908.59	48.11
908.962	48.12
909.334	48.14
909.705	48.18
910.077	48.14
910.449	48.15
910.82	48.18
911.192	48.17
911.563	48.16
911.935	48.14
912.306	48.16
912.677	48.14
913.048	48.13
913.419	48.11
913.79	48.11
914.161	48.12
914.532	48.11
914.903	48.13
915.274	48.16
915.645	48.19
916.015	48.21
916.386	48.19
916.756	48.15
917.127	48.18
917.497	48.2
917.868	48.17
918.238	48.19
918.608	48.21
918.978	48.18
919.348	48.14
919.718	48.14
920.088	48.16
920.458	48.19
920.828	48.24
921.198	48.2
921.567	48.14
921.937	48.16
922.306	48.15
922.676	48.14
923.045	48.11
923.415	48.13
923.784	48.1
924.153	48.06
924.522	48.07
924.891	48.01
925.26	48.04
925.629	48.05
925.998	48.03
926.367	48.01
926.736	47.99
927.104	48.02
927.473	48.01
927.842	48
928.21	48.01
928.578	47.92
928.947	47.96
929.315	47.93
929.683	47.9
930.051	47.88
930.42	47.88
930.788	47.86
931.156	47.81
931.523	47.75
931.891	47.71
932.259	47.64
932.627	47.6
932.994	47.5
933.362	47.41
933.729	47.35
934.097	47.33
934.464	47.3
934.831	47.26
935.199	47.21
935.566	47.15
935.933	47.16
936.3	47.15
936.667	47.13
937.034	47.1
937.401	47.1
937.767	47.08
938.134	46.96
938.501	46.88
938.867	46.9
939.234	46.94
939.6	46.93
939.967	46.82
940.333	46.85
940.699	46.88
941.065	46.88
941.431	46.91
941.798	46.98
942.163	47.11
942.529	47.13
942.895	47.13
943.261	47.14
943.627	47.23
943.992	47.32
944.358	47.33
944.723	47.32
945.089	47.37
945.454	47.44
945.82	47.38
946.185	47.4
946.55	47.5
946.915	47.5
947.28	47.42
947.645	47.43
948.01	47.38
948.375	47.44
948.74	47.53
949.104	47.55
949.469	47.47
949.834	47.44
950.198	47.38
950.562	47.36
950.927	47.33
951.291	47.37
951.655	47.31
952.02	47.35
952.384	47.39
952.748	47.32
953.112	47.3
953.476	47.29
953.839	47.3
954.203	47.25
954.567	47.15
954.931	47.14
955.294	47.14
955.658	47.14
956.021	47.04
956.385	47.01
956.748	47.04
957.111	47.04
957.474	47.08
957.837	47.11
958.2	47.09
958.563	47.13
958.926	47.09
959.289	47.08
959.652	47.07
960.015	47.12
960.377	47.02
960.74	46.98
961.102	46.92
961.465	46.89
961.827	46.78
962.189	46.74
962.552	46.67
962.914	46.65
963.276	46.65
963.638	46.62
964	46.63
964.362	46.69
964.724	46.64
965.085	46.63
965.447	46.53
965.809	46.55
966.17	46.62
966.532	46.67
966.893	46.77
967.255	46.74
967.616	46.8
967.977	46.8
968.338	46.7
968.699	46.69
969.061	46.67
969.421	46.8
969.782	46.81
970.143	46.74
970.504	46.67
970.865	46.52
971.225	46.49
971.586	46.43
971.946	46.32
972.307	46.33
972.667	46.33
973.027	46.36
973.388	46.25
973.748	46.2
974.108	46.27
974.468	46.26
974.828	46.29
975.188	46.24
975.548	46.2
975.907	46.28
976.267	46.28
976.627	46.24
976.986	46.21
977.346	46.21
977.705	46.26
978.064	46.23
978.424	46.23
978.783	46.32
979.142	46.36
979.501	46.34
979.86	46.33
980.219	46.23
980.578	46.2
980.937	46.28
981.296	46.32
981.654	46.35
982.013	46.37
982.371	46.37
982.73	46.2
983.088	46.16
983.447	46.24
983.805	46.25
984.163	46.35
984.521	46.33
984.879	46.3
985.237	46.27
985.595	46.26
985.953	46.18
986.311	46.27
986.669	46.28
987.026	46.31
987.384	46.15
987.741	46.14
988.099	46.11
988.456	46.22
988.814	46.21
989.171	46.17
989.528	46.02
989.885	46.04
990.242	45.99
990.599	46.07
990.956	46.06
991.313	46.16
991.67	46.2
992.027	46.15
992.383	46.13
992.74	46.04
993.096	46
993.453	46.05
993.809	46
994.165	45.87
994.522	45.84
994.878	45.79
995.234	45.75
995.59	45.54
995.946	45.59
996.302	45.45
996.658	45.59
997.013	45.65
997.369	45.64
997.725	45.7
998.08	45.7
998.436	45.71
998.791	45.61
999.147	45.49
999.502	45.48
999.857	45.43
1000.212	45.49
1000.567	45.33
1000.922	45.24
1001.277	45.18
1001.632	45.17
1001.987	45.19
1002.342	45.14
1002.696	45.36
1003.051	45.44
1003.406	45.45
1003.76	45.46
1004.114	45.51
1004.469	45.51
1004.823	45.62
1005.177	45.71
1005.531	45.57
1005.885	45.58
1006.239	45.6
1006.593	45.42
1006.947	45.4
1007.301	45.43
1007.655	45.48
1008.008	45.39
1008.362	45.38
1008.715	45.24
1009.069	45.11
1009.422	44.91
1009.776	44.89
1010.129	44.78
1010.482	44.88
1010.835	45
1011.188	44.88
1011.541	44.68
1011.894	44.7
1012.247	44.59
1012.6	44.6
1012.952	44.63
1013.305	44.71
1013.657	44.73
1014.01	44.88
1014.362	44.9
1014.715	44.91
1015.067	45
1015.419	45.21
1015.771	45.48
1016.123	45.51
1016.475	45.47
1016.827	45.53
1017.179	45.47
1017.531	45.5
1017.883	45.23
1018.234	45.04
1018.586	44.7
1018.938	44.5
1019.289	44.22
1019.64	43.88
1019.992	43.85
1020.343	43.92
1020.694	43.48
1021.045	43.56
1021.396	43.42
1021.747	43.57
1022.098	43.48
1022.449	43.36
1022.8	43.05
1023.151	43.09
1023.501	42.93
1023.852	42.95
1024.202	43.03
1024.553	43.46
1024.903	43.42
1025.253	43.47
1025.604	43.25
1025.954	43.08
1026.304	43.65
1026.654	44.33
1027.004	44.61
1027.354	44.58
1027.703	44.52
1028.053	43.93
1028.403	43.12
1028.753	43.08
1029.102	43.13
1029.452	43.36
1029.801	43.67
1030.15	43.25
1030.499	42.99
897.758	572.76
901.051	588.34
904.343	591.2
907.636	583.98
910.928	572.5
914.22	581.5
917.511	572.31
920.803	548.98
924.094	523.96
927.384	527.76
930.675	517.93
933.965	511.33
937.255	508.78
940.544	488.78
943.834	465.39
947.123	460.03
950.411	436.05
953.7	426.5
956.988	414.32
960.276	399.77
963.563	394.12
966.851	371.43
970.138	365.33
973.424	340.21
976.711	335.53
979.997	324.15
983.283	316.26
986.568	305.94
989.853	299.4
993.138	287.52
996.423	282.95
999.708	275.33
1002.992	276.69
1006.275	266.21
1009.559	264.82
1012.842	257.25
1016.125	249.41
1019.408	245.26
1022.69	245.16
1025.972	240.66
1029.254	236.54
1032.536	231.98
1035.817	225.04
1039.098	221.11
1042.379	218.01
1045.659	214.51
1048.939	214
1052.219	210.96
1055.498	206.17
1058.778	201.05
1062.057	199.99
1065.335	198.63
1068.614	195.55
1071.892	192.72
1075.17	189.91
1078.447	188.05
1081.724	187.05
1085.001	180.82
1088.278	181.18
1091.554	181.2
1094.83	179.98
1098.106	176.23
1101.382	174.81
1104.657	173.98
1107.932	173.46
1111.206	172.16
1114.481	169.39
1117.755	168.11
1121.029	168.87
1124.302	166.11
1127.575	163.28
1130.848	162.72
1134.121	160.56
1137.393	160.1
1140.665	159.36
1143.937	157.75
1147.208	155.8
1150.48	154.97
1153.75	154.27
1157.021	153.09
1160.291	152.18
1163.561	151.98
1166.831	150.95
1170.101	150.99
1173.37	150.34
1176.639	148.89
1179.907	148.42
1183.176	147.37
1186.444	148.08
1189.711	146.3
1192.979	147.53
1196.246	147.68
1199.513	147.69
1202.78	147.68
1206.046	147.02
1209.312	148.09
1212.578	148.68
1215.843	151.07
1219.108	152.89
1222.373	154.67
1225.638	158.05
1228.902	160.47
1232.166	165.05
1235.43	167.09
1238.693	171.74
1241.956	176.1
1245.219	180.43
1248.482	181.69
1251.744	180.66
1255.006	181.24
1258.268	177.08
1261.529	175.19
1264.79	171.14
1268.051	168.58
1271.312	167.11
1274.572	163.87
1277.832	159.63
1281.092	157.17
1284.351	153.95
1287.61	154.12
1290.869	153.98
1294.128	153.91
1297.386	151.9
1300.644	151.29
1303.902	150.48
1307.159	149.29
1310.416	150.63
1313.673	152.35
1316.93	153.33
1320.186	156.47
1323.442	157.91
1326.697	160.08
1329.953	161.2
1333.208	167.7
1336.463	174.01
1339.717	176.96
1342.972	185.79
1346.226	189.59
1349.479	192
1352.733	199.57
1355.986	203.43
1359.238	207.6
1362.491	208.54
1365.743	215.48
1368.995	216.93
1372.247	216.92
1375.498	215.88
1378.749	222.91
1382	221.83
1385.251	220.61
1388.501	220.33
1391.751	221.55
1395	220.28
1398.25	222.55
1401.499	220.92
1404.748	219.75
1407.996	214.18
1411.244	214.61
1414.492	209.81
1417.74	205.36
1420.987	200.44
1424.234	195.97
1427.481	190.11
1430.728	184.91
1433.974	177.99
1437.22	173.26
1440.465	166.86
1443.711	162.45
1446.956	156.63
1450.201	151.57
1453.445	143.93
1456.689	140.63
1459.933	136.18
1463.177	129.47
1466.42	127.62
1469.663	124.37
1472.906	120.68
1476.148	117.38
1479.391	115.1
1482.633	113.36
1485.874	111.13
1489.115	110.85
1492.356	108.19
1495.597	106.65
1498.838	107.26
1502.078	105.73
1505.318	105.22
1508.557	104.55
1511.797	103.92
1515.036	102.75
1518.274	103.01
1521.513	101.2
1524.751	100.95
1527.989	102.14
1531.227	101.51
1534.464	101.21
1537.701	100.7
1540.938	100.3
1544.174	100.19
1547.41	100.59
1550.646	101.01
1553.882	100.7
1557.117	100.55
1560.352	99.56
1563.587	98.91
1566.821	99.2
1570.055	98.13
1573.289	98.24
1576.523	98.11
1579.756	97.85
1582.989	97.77
1586.222	97.32
1589.454	96.9
1592.686	97.65
1595.918	97.89
1599.15	97.53
1602.381	97.41
1605.612	97.89
1608.843	97.67
1612.073	98.41
1615.303	98.29
1618.533	98.35
1621.762	98.2
1624.992	98.69
1628.221	98.05
1631.449	98.88
1634.678	98.56
1637.906	99.22
1641.134	99.08
1644.361	98.99
1647.588	99.37
1650.815	99.97
1654.042	99.28
1657.269	99.47
1660.495	100
1663.72	99.94
1666.946	99.58
1670.171	100.52
1673.396	100.44
1676.621	100.47
1679.845	100.54
1683.069	100.06
1686.293	99.71
1689.517	100.54
1692.74	100.9
1695.963	100.7
1699.185	101.57
1702.408	101.19
1705.63	101.42
1708.852	101.67
1712.073	101.71
1715.294	102.12
1718.515	102.14
1721.736	102.44
1724.956	102.49
1728.176	102.2
1731.396	102.6
1734.616	102.43
1737.835	103.26
1741.054	102.85
1744.272	102.81
1747.491	102.78
1750.709	103.32
1753.927	103.46
1757.144	103.99
1760.361	103.93
1763.578	105.04
1766.795	105.31
1770.011	105.34
1773.227	105.76
1776.443	106.63
1779.658	106.35
1782.874	107.43
1786.089	106.74
1789.303	106.78
1792.518	107.52
1795.732	108.08
1798.945	108.74
1802.159	108.85
1805.372	109.87
1808.585	110.75
1811.797	111.43
1815.01	113.16
1818.222	113.49
1821.434	114.74
1824.645	115.73
1827.856	117.15
1831.067	117.53
1834.278	119.15
1837.488	119.81
1840.698	121.05
1843.908	120.52
1847.117	122.17
1850.326	122.34
1853.535	123.97
1856.744	125.09
1859.952	126.92
1863.16	126.98
1866.368	126.58
1869.575	126.19
1872.782	126.16
1875.989	124.55
1879.196	124.37
1882.402	122.57
1885.608	123.46
1888.814	122.21
1892.019	122.63
1895.224	119.86
1898.429	118.89
1901.634	119.43
1904.838	120.34
1908.042	121.1
1911.246	120.49
1914.449	121.09
1917.652	121.21
1920.855	120.9
1924.058	120.28
1927.26	120.12
1930.462	120.72
1933.664	121.94
1936.865	122.02
1940.066	119.96
1943.267	117.31
1946.467	120.47
1949.668	119.86
1952.868	120.37
1956.067	120.3
1959.267	120.69
1962.466	121.34
1965.665	122.77
1968.863	122.44
1972.061	124.39
1975.259	126.69
1978.457	129.73
1981.654	129.03
1984.852	130.86
1988.048	132.16
1991.245	134.45
1994.441	137.05
1997.637	139.88
2000.833	141.81
2004.028	143.51
2007.223	147.33
2010.418	150
2013.613	155.89
2016.807	160.31
2020.001	163.29
2023.194	167.58
2026.388	172.32
2029.581	181.96
2032.774	187.04
2035.966	193.12
2039.158	199.31
2042.35	201.45
2045.542	204.62
2048.733	213.09
2051.924	215.32
2055.115	219.64
2058.306	222.53
2061.496	227.08
2064.686	227.84
2067.875	225.52
2071.065	228.75
2074.254	227.6
2077.442	235.86
2080.631	237.89
2083.819	238.19
2087.007	242.69
2090.195	247.39
2093.382	246.47
2096.569	247.47
2099.756	248.95
2102.942	255.74
2106.128	260.68
2109.314	264.28
2112.5	262.42
2115.685	261.58
2118.87	261.14
2122.055	264.7
2125.239	266.85
2128.424	272.55
2131.608	271.23
2134.791	271.69
2137.974	273.1
2141.157	274.63
2144.34	276.75
2147.523	282.77
2150.705	290.21
2153.887	288.13
2157.068	288.71
2160.25	292.5
2163.431	292.09
2166.611	294.9
2169.792	301.12
2172.972	304.15
2176.152	304.71
2179.331	311.87
2182.511	310.91
2185.69	313.68
2188.868	327.08
2192.047	334.92
2195.225	340.25
2198.403	345.96
2201.58	343.65
2204.758	353.99
2207.935	356.49
2211.111	363.46
2214.288	364.74
2217.464	368.61
2220.64	371.95
2223.815	371.73
2226.991	365.83
2230.166	367.88
2233.34	379.41
2236.515	389.73
2239.689	383.79
2242.863	391.62
2246.036	388.63
2249.209	396.93
2252.382	393.59
2255.555	409.33
2258.727	412.7
2261.9	425.63
2265.071	431.69
2268.243	427.89
2271.414	441.03
2274.585	453.61
2277.756	450.17
2280.926	468.66
2284.096	473.25
2287.266	479.1
2290.436	467.52
2293.605	477.68
2296.774	496.59
2299.942	498.68
2303.111	511.4
2306.279	522.8
2309.447	522.13
2312.614	524.01
2315.781	537.58
2318.948	543.3
2322.115	555.44
2325.281	587.56
2328.447	580.03
2331.613	582.76
2334.779	588.77
2337.944	599.51
2341.109	607.99
2344.274	614.11
2347.438	631.94
2350.602	636.35
2353.766	675.25
2356.929	676.5
2360.092	685.36
2363.255	692.24
2366.418	699.6
2369.58	714.48
2372.742	717.97
2375.904	714.52
2379.066	735.33
2382.227	775.52
2385.388	779.36
2388.548	737.94
2391.709	731.26
2394.869	750.32
2398.029	753.58
2401.188	756.61
2404.347	778.73
2407.506	801.37
2410.665	773.81
2413.823	777.09
2416.981	780.7
2420.139	743.77
2423.296	802.01
2426.453	852.66
2429.61	811.06
2432.767	864.92
2435.923	892.97
2439.079	866.76
2442.235	884.76
2445.391	903.94
2448.546	891.49
2451.701	939.52
2454.855	998.28
2458.009	887.87
2461.163	899.96
2464.317	915.19
2467.471	897.78
2470.624	929.05
2473.777	905.04
2476.929	878.76
2480.082	943.5
2483.234	993.71
2486.385	1002.45
2489.537	1028.3
2492.688	1125.49
2495.839	1119.56
2498.989	1150.22
2502.14	1150.35
2505.29	1097.99
2508.439	1219.08
2511.589	1245.16
2514.738	1195.8
2517.887	1184.26
2521.035	1125.07
2524.183	1109.26
2527.331	1097.47
2530.479	1061.38
2533.627	1084.37
