Data from c_3_hir_wi_4n_Splice17_01.txt Node
Date: Sat Feb 29 14:52:15 EST 2020
User: sa697716
Spectrometer: FLMS03696
Trigger mode: 0
Integration Time (sec): 3.180400E-1
Scans to average: 20
Electric dark correction enabled: true
Nonlinearity correction enabled: true
Boxcar width: 5
XAxis mode: Wavelengths
Number of Pixels in Spectrum: 2048
>>>>>Begin Spectral Data<<<<<
187.83	66.55
188.298	69.4
188.766	64.04
189.233	55.88
189.701	47.4
190.169	38.06
190.636	39.9
191.104	11.97
191.571	38.52
192.039	144.87
192.506	143.55
192.974	6728.77
193.441	-559.15
193.908	101.84
194.375	68.62
194.842	26.56
195.31	3.45
195.777	11.01
196.244	15.6
196.711	32.55
197.177	31.19
197.644	31.51
198.111	31.35
198.578	32.38
199.045	32.58
199.511	32.82
199.978	33.24
200.445	32.65
200.911	32.69
201.378	32.75
201.844	32.62
202.31	33.36
202.777	33.4
203.243	33.71
203.709	33.35
204.176	33.24
204.642	33.06
205.108	32.93
205.574	33.6
206.04	33.44
206.506	33.16
206.972	33.04
207.438	32.32
207.903	32.13
208.369	31.15
208.835	31.05
209.301	30.51
209.766	30.1
210.232	29.25
210.697	28.29
211.163	27.97
211.628	27.35
212.094	26.87
212.559	26.26
213.024	25.35
213.49	24.88
213.955	24.15
214.42	23.24
214.885	22.3
215.35	21.26
215.815	19.64
216.28	18.12
216.745	16.37
217.21	14.55
217.675	12.89
218.14	11.28
218.604	9.8
219.069	8.62
219.534	7.69
219.998	6.81
220.463	6.09
220.927	5.57
221.392	5.06
221.856	4.67
222.32	4.31
222.785	4
223.249	3.78
223.713	3.61
224.177	3.36
224.642	3.2
225.106	3.04
225.57	2.9
226.034	2.77
226.497	2.63
226.961	2.52
227.425	2.4
227.889	2.27
228.353	2.17
228.816	2.08
229.28	1.98
229.744	1.93
230.207	1.87
230.671	1.8
231.134	1.73
231.597	1.68
232.061	1.61
232.524	1.57
232.987	1.55
233.45	1.53
233.914	1.5
234.377	1.49
234.84	1.44
235.303	1.43
235.766	1.41
236.229	1.4
236.691	1.39
237.154	1.39
237.617	1.37
238.08	1.35
238.542	1.32
239.005	1.3
239.468	1.29
239.93	1.29
240.393	1.26
240.855	1.24
241.317	1.21
241.78	1.19
242.242	1.17
242.704	1.16
243.166	1.15
243.629	1.14
244.091	1.12
244.553	1.1
245.015	1.07
245.477	1.05
245.939	1.04
246.4	1.02
246.862	1.01
247.324	1.02
247.786	1
248.247	0.98
248.709	0.97
249.17	0.96
249.632	0.95
250.093	0.93
250.555	0.92
251.016	0.92
251.477	0.92
251.939	0.9
252.4	0.88
252.861	0.87
253.322	0.85
253.783	0.86
254.244	0.85
254.705	0.84
255.166	0.85
255.627	0.84
256.088	0.82
256.549	0.81
257.009	0.81
257.47	0.8
257.931	0.79
258.391	0.78
258.852	0.76
259.312	0.75
259.773	0.73
260.233	0.71
260.694	0.69
261.154	0.68
261.614	0.66
262.074	0.66
262.534	0.63
262.994	0.63
263.455	0.62
263.915	0.61
264.374	0.59
264.834	0.58
265.294	0.58
265.754	0.57
266.214	0.57
266.673	0.57
267.133	0.56
267.593	0.56
268.052	0.54
268.512	0.53
268.971	0.53
269.431	0.53
269.89	0.53
270.349	0.52
270.809	0.52
271.268	0.52
271.727	0.52
272.186	0.51
272.645	0.51
273.104	0.51
273.563	0.52
274.022	0.52
274.481	0.52
274.94	0.52
275.399	0.53
275.857	0.53
276.316	0.52
276.775	0.52
277.233	0.52
277.692	0.52
278.15	0.52
278.609	0.51
279.067	0.51
279.525	0.51
279.984	0.52
280.442	0.52
280.9	0.52
281.358	0.53
281.816	0.53
282.274	0.54
282.732	0.55
283.19	0.55
283.648	0.56
284.106	0.56
284.564	0.57
285.021	0.57
285.479	0.58
285.937	0.58
286.394	0.57
286.852	0.57
287.309	0.57
287.767	0.57
288.224	0.56
288.682	0.56
289.139	0.56
289.596	0.56
290.053	0.55
290.511	0.54
290.968	0.54
291.425	0.54
291.882	0.53
292.339	0.53
292.796	0.52
293.252	0.52
293.709	0.51
294.166	0.51
294.623	0.5
295.079	0.5
295.536	0.5
295.992	0.49
296.449	0.49
296.905	0.49
297.362	0.49
297.818	0.49
298.274	0.49
298.731	0.49
299.187	0.49
299.643	0.49
300.099	0.49
300.555	0.48
301.011	0.48
301.467	0.48
301.923	0.48
302.379	0.49
302.835	0.49
303.291	0.49
303.746	0.49
304.202	0.49
304.658	0.48
305.113	0.48
305.569	0.49
306.024	0.49
306.479	0.5
306.935	0.5
307.39	0.51
307.845	0.51
308.301	0.52
308.756	0.52
309.211	0.53
309.666	0.54
310.121	0.54
310.576	0.54
311.031	0.55
311.486	0.55
311.94	0.54
312.395	0.55
312.85	0.55
313.305	0.56
313.759	0.56
314.214	0.56
314.668	0.56
315.123	0.56
315.577	0.56
316.032	0.56
316.486	0.55
316.94	0.56
317.394	0.56
317.849	0.56
318.303	0.55
318.757	0.55
319.211	0.54
319.665	0.54
320.119	0.54
320.572	0.55
321.026	0.54
321.48	0.54
321.934	0.54
322.387	0.54
322.841	0.54
323.295	0.54
323.748	0.54
324.202	0.55
324.655	0.54
325.108	0.53
325.562	0.53
326.015	0.52
326.468	0.52
326.921	0.51
327.374	0.52
327.827	0.52
328.28	0.52
328.733	0.52
329.186	0.53
329.639	0.53
330.092	0.53
330.545	0.54
330.997	0.55
331.45	0.56
331.903	0.56
332.355	0.56
332.808	0.55
333.26	0.55
333.713	0.55
334.165	0.56
334.617	0.57
335.069	0.57
335.522	0.57
335.974	0.57
336.426	0.58
336.878	0.57
337.33	0.57
337.782	0.59
338.234	0.59
338.686	0.59
339.137	0.6
339.589	0.59
340.041	0.6
340.493	0.59
340.944	0.59
341.396	0.59
341.847	0.58
342.299	0.57
342.75	0.56
343.201	0.55
343.653	0.55
344.104	0.54
344.555	0.53
345.006	0.53
345.457	0.53
345.908	0.53
346.359	0.53
346.81	0.54
347.261	0.55
347.712	0.55
348.163	0.56
348.613	0.56
349.064	0.55
349.515	0.54
349.965	0.54
350.416	0.53
350.866	0.53
351.317	0.52
351.767	0.52
352.217	0.51
352.668	0.51
353.118	0.51
353.568	0.51
354.018	0.52
354.468	0.52
354.918	0.53
355.368	0.54
355.818	0.54
356.268	0.55
356.718	0.55
357.168	0.55
357.617	0.56
358.067	0.55
358.517	0.54
358.966	0.54
359.416	0.55
359.865	0.55
360.315	0.55
360.764	0.55
361.213	0.55
361.663	0.55
362.112	0.56
362.561	0.56
363.01	0.56
363.459	0.56
363.908	0.57
364.357	0.56
364.806	0.56
365.255	0.57
365.703	0.56
366.152	0.56
366.601	0.57
367.05	0.58
367.498	0.58
367.947	0.57
368.395	0.58
368.844	0.57
369.292	0.58
369.74	0.58
370.189	0.57
370.637	0.58
371.085	0.58
371.533	0.58
371.981	0.57
372.429	0.56
372.877	0.56
373.325	0.56
373.773	0.56
374.221	0.56
374.669	0.56
375.116	0.56
375.564	0.56
376.012	0.55
376.459	0.56
376.907	0.56
377.354	0.57
377.801	0.58
378.249	0.59
378.696	0.6
379.143	0.61
379.591	0.61
380.038	0.62
380.485	0.63
380.932	0.64
381.379	0.65
381.826	0.67
382.273	0.67
382.72	0.69
383.166	0.7
383.613	0.73
384.06	0.75
384.506	0.79
384.953	0.83
385.4	0.88
385.846	0.92
386.292	1
386.739	1.07
387.185	1.17
387.631	1.25
388.078	1.34
388.524	1.39
388.97	1.46
389.416	1.55
389.862	1.67
390.308	1.82
390.754	1.99
391.2	2.15
391.645	2.3
392.091	2.41
392.537	2.57
392.983	2.8
393.428	3.13
393.874	3.52
394.319	3.95
394.765	4.39
395.21	4.84
395.655	5.31
396.101	5.82
396.546	6.4
396.991	7.04
397.436	7.7
397.881	8.35
398.326	8.98
398.771	9.56
399.216	10.12
399.661	10.64
400.106	11.11
400.551	11.51
400.995	11.86
401.44	12.15
401.885	12.45
402.329	12.76
402.774	13.08
403.218	13.42
403.663	13.81
404.107	14.25
404.551	14.69
404.995	15.07
405.44	15.45
405.884	15.87
406.328	16.36
406.772	16.92
407.216	17.5
407.66	18.04
408.104	18.49
408.547	18.88
408.991	19.21
409.435	19.57
409.879	20.02
410.322	20.55
410.766	21.09
411.209	21.59
411.653	22.02
412.096	22.38
412.54	22.72
412.983	23.12
413.426	23.55
413.869	24.02
414.312	24.46
414.756	24.85
415.199	25.19
415.642	25.5
416.085	25.78
416.527	25.97
416.97	26.07
417.413	26.09
417.856	26.03
418.298	25.94
418.741	25.88
419.184	25.91
419.626	25.97
420.069	26.09
420.511	26.19
420.953	26.27
421.396	26.43
421.838	26.73
422.28	27.12
422.722	27.52
423.164	27.9
423.606	28.22
424.048	28.41
424.49	28.49
424.932	28.31
425.374	27.87
425.816	27.24
426.258	26.61
426.699	26.15
427.141	26.03
427.582	26.24
428.024	26.64
428.465	27.08
428.907	27.53
429.348	27.89
429.789	28.44
430.231	29.34
430.672	30.61
431.113	32.04
431.554	33.41
431.995	34.47
432.436	35.19
432.877	35.69
433.318	36.09
433.759	36.54
434.2	37.14
434.64	37.9
435.081	38.62
435.522	39.26
435.962	39.73
436.403	40.14
436.843	40.48
437.284	40.86
437.724	41.32
438.164	41.86
438.604	42.49
439.045	43.13
439.485	43.7
439.925	44.2
440.365	44.54
440.805	44.77
441.245	44.88
441.685	45.08
442.125	45.33
442.564	45.66
443.004	46
443.444	46.4
443.883	46.83
444.323	47.26
444.762	47.66
445.202	48.21
445.641	48.84
446.081	49.66
446.52	50.43
446.959	51.11
447.398	51.6
447.837	51.92
448.276	51.95
448.716	51.98
449.154	52.01
449.593	52.08
450.032	52.05
450.471	51.89
450.91	51.6
451.349	51.32
451.787	51.09
452.226	50.96
452.664	50.88
453.103	50.85
453.541	50.82
453.98	50.65
454.418	50.38
454.856	50.07
455.295	49.79
455.733	49.56
456.171	49.35
456.609	49.17
457.047	48.98
457.485	48.85
457.923	48.85
458.361	48.88
458.798	48.98
459.236	49.08
459.674	49.2
460.111	49.35
460.549	49.48
460.987	49.62
461.424	49.76
461.862	49.9
462.299	50.01
462.736	50.13
463.173	50.32
463.611	50.59
464.048	50.98
464.485	51.44
464.922	51.97
465.359	52.41
465.796	52.83
466.233	53.23
466.67	53.72
467.106	54.35
467.543	55.06
467.98	55.68
468.416	56.26
468.853	56.72
469.29	57.21
469.726	57.67
470.162	58.23
470.599	58.78
471.035	59.24
471.471	59.58
471.907	59.74
472.344	59.82
472.78	59.92
473.216	60.03
473.652	60.19
474.088	60.25
474.523	60.26
474.959	60.2
475.395	60.15
475.831	60.17
476.266	60.17
476.702	60.17
477.138	60.12
477.573	60
478.008	59.78
478.444	59.49
478.879	59.17
479.314	58.75
479.75	58.32
480.185	57.78
480.62	57.06
481.055	56.09
481.49	54.85
481.925	53.52
482.36	52.29
482.795	51.24
483.229	50.43
483.664	49.75
484.099	49.18
484.534	48.68
484.968	48.3
485.403	48.16
485.837	48.28
486.271	48.61
486.706	48.98
487.14	49.23
487.574	49.29
488.009	49.24
488.443	49.15
488.877	49.08
489.311	48.99
489.745	48.92
490.179	48.87
490.613	48.79
491.046	48.73
491.48	48.73
491.914	48.82
492.348	49.04
492.781	49.18
493.215	49.29
493.648	49.32
494.082	49.31
494.515	49.28
494.948	49.19
495.382	49.09
495.815	48.98
496.248	48.83
496.681	48.62
497.114	48.37
497.547	48.17
497.98	48.06
498.413	48.08
498.846	48.13
499.279	48.14
499.711	48.12
500.144	48.17
500.577	48.34
501.009	48.64
501.442	49.03
501.874	49.46
502.306	49.85
502.739	50.13
503.171	50.35
503.603	50.54
504.036	50.77
504.468	51.09
504.9	51.41
505.332	51.64
505.764	51.78
506.196	51.89
506.627	52.04
507.059	52.26
507.491	52.51
507.923	52.75
508.354	52.98
508.786	53.14
509.217	53.21
509.649	53.26
510.08	53.3
510.512	53.37
510.943	53.47
511.374	53.49
511.805	53.32
512.237	52.96
512.668	52.55
513.099	52.2
513.53	51.95
513.961	51.71
514.391	51.57
514.822	51.56
515.253	51.63
515.684	51.71
516.114	51.87
516.545	52.19
516.975	52.8
517.406	53.52
517.836	54.17
518.267	54.73
518.697	55.31
519.127	55.87
519.558	56.36
519.988	56.8
520.418	57.22
520.848	57.57
521.278	57.82
521.708	57.73
522.138	57.54
522.567	57.39
522.997	57.31
523.427	57.29
523.857	57.33
524.286	57.42
524.716	57.51
525.145	57.56
525.575	57.6
526.004	57.78
526.433	58.25
526.863	58.78
527.292	59.25
527.721	59.6
528.15	59.7
528.579	59.64
529.008	59.5
529.437	59.32
529.866	59.15
530.295	59.02
530.724	58.96
531.152	58.88
531.581	58.77
532.01	58.61
532.438	58.52
532.867	58.53
533.295	58.58
533.723	58.64
534.152	58.64
534.58	58.58
535.008	58.43
535.436	58.12
535.865	57.74
536.293	57.38
536.721	57.16
537.149	57.03
537.576	56.94
538.004	56.85
538.432	56.74
538.86	56.69
539.287	56.72
539.715	56.84
540.143	57.02
540.57	57.3
540.998	57.57
541.425	57.84
541.852	58.06
542.28	58.25
542.707	58.41
543.134	58.54
543.561	58.63
543.988	58.71
544.415	58.82
544.842	58.9
545.269	59.01
545.696	59.09
546.123	59.19
546.549	59.27
546.976	59.36
547.403	59.46
547.829	59.64
548.256	59.77
548.682	59.85
549.108	59.92
549.535	60.02
549.961	60.08
550.387	60.18
550.813	60.24
551.24	60.28
551.666	60.33
552.092	60.28
552.518	60.13
552.943	60.07
553.369	59.97
553.795	59.82
554.221	59.58
554.646	59.24
555.072	58.89
555.498	58.55
555.923	58.26
556.349	58
556.774	57.83
557.199	57.68
557.625	57.49
558.05	57.31
558.475	57.15
558.9	57.08
559.325	57.02
559.75	56.92
560.175	56.8
560.6	56.6
561.025	56.34
561.449	55.98
561.874	55.64
562.299	55.35
562.723	55.08
563.148	54.8
563.572	54.47
563.997	54.14
564.421	53.82
564.846	53.49
565.27	53.2
565.694	52.86
566.118	52.55
566.542	52.25
566.966	51.89
567.39	51.58
567.814	51.33
568.238	51.11
568.662	50.99
569.086	50.87
569.509	50.76
569.933	50.62
570.357	50.49
570.78	50.42
571.204	50.34
571.627	50.27
572.05	50.18
572.474	50.03
572.897	49.85
573.32	49.64
573.743	49.41
574.166	49.17
574.589	48.99
575.012	48.89
575.435	48.77
575.858	48.73
576.281	48.72
576.704	48.69
577.126	48.69
577.549	48.76
577.972	48.85
578.394	48.95
578.817	49.08
579.239	49.23
579.661	49.35
580.084	49.44
580.506	49.49
580.928	49.47
581.35	49.45
581.772	49.38
582.194	49.26
582.616	49.13
583.038	49.02
583.46	48.91
583.882	48.65
584.303	48.29
584.725	47.83
585.147	47.32
585.568	46.9
585.99	46.57
586.411	46.32
586.833	46.09
587.254	45.87
587.675	45.69
588.096	45.5
588.518	45.4
588.939	45.42
589.36	45.53
589.781	45.71
590.202	45.8
590.623	45.79
591.043	45.73
591.464	45.67
591.885	45.57
592.305	45.46
592.726	45.33
593.147	45.19
593.567	45.05
593.987	44.91
594.408	44.72
594.828	44.58
595.248	44.46
595.669	44.31
596.089	44.14
596.509	43.92
596.929	43.67
597.349	43.41
597.769	43.2
598.189	42.99
598.608	42.8
599.028	42.69
599.448	42.55
599.867	42.42
600.287	42.3
600.706	42.17
601.126	42.08
601.545	41.97
601.965	41.89
602.384	41.8
602.803	41.68
603.222	41.55
603.641	41.36
604.061	41.17
604.48	40.94
604.898	40.72
605.317	40.48
605.736	40.24
606.155	40.02
606.574	39.8
606.992	39.57
607.411	39.38
607.829	39.14
608.248	38.94
608.666	38.73
609.085	38.53
609.503	38.3
609.921	38.09
610.339	37.94
610.758	37.78
611.176	37.58
611.594	37.35
612.012	37.09
612.43	36.87
612.847	36.66
613.265	36.5
613.683	36.36
614.101	36.25
614.518	36.16
614.936	36.03
615.353	35.94
615.771	35.87
616.188	35.85
616.606	35.81
617.023	35.8
617.44	35.74
617.857	35.65
618.274	35.53
618.691	35.42
619.108	35.27
619.525	35.1
619.942	34.92
620.359	34.72
620.776	34.47
621.192	34.25
621.609	34.03
622.026	33.86
622.442	33.68
622.859	33.48
623.275	33.27
623.691	33.07
624.108	32.88
624.524	32.7
624.94	32.53
625.356	32.38
625.772	32.25
626.188	32.14
626.604	31.97
627.02	31.81
627.436	31.7
627.852	31.61
628.268	31.55
628.683	31.49
629.099	31.45
629.514	31.41
629.93	31.4
630.345	31.38
630.761	31.35
631.176	31.35
631.591	31.35
632.007	31.34
632.422	31.32
632.837	31.32
633.252	31.33
633.667	31.31
634.082	31.31
634.497	31.29
634.911	31.24
635.326	31.18
635.741	31.11
636.155	31.04
636.57	30.95
636.984	30.84
637.399	30.72
637.813	30.58
638.228	30.47
638.642	30.36
639.056	30.24
639.47	30.15
639.884	30.05
640.298	29.99
640.712	29.91
641.126	29.84
641.54	29.76
641.954	29.67
642.368	29.57
642.781	29.45
643.195	29.3
643.609	29.19
644.022	29.06
644.436	28.93
644.849	28.74
645.262	28.57
645.676	28.41
646.089	28.29
646.502	28.2
646.915	28.13
647.328	28.04
647.741	27.95
648.154	27.89
648.567	27.83
648.98	27.8
649.393	27.78
649.805	27.77
650.218	27.73
650.631	27.65
651.043	27.48
651.456	27.17
651.868	26.79
652.28	26.43
652.693	26.05
653.105	25.75
653.517	25.53
653.929	25.38
654.341	25.25
654.753	25.17
655.165	25.11
655.577	25.12
655.989	25.26
656.401	25.52
656.813	25.79
657.224	26.04
657.636	26.22
658.047	26.32
658.459	26.34
658.87	26.34
659.282	26.3
659.693	26.27
660.104	26.22
660.515	26.17
660.926	26.11
661.338	26.04
661.749	25.96
662.159	25.85
662.57	25.74
662.981	25.64
663.392	25.55
663.803	25.47
664.213	25.39
664.624	25.32
665.035	25.22
665.445	25.11
665.855	25
666.266	24.91
666.676	24.8
667.086	24.69
667.497	24.56
667.907	24.44
668.317	24.32
668.727	24.2
669.137	24.09
669.547	24.02
669.956	23.91
670.366	23.83
670.776	23.73
671.186	23.64
671.595	23.56
672.005	23.51
672.414	23.46
672.824	23.41
673.233	23.37
673.642	23.3
674.052	23.24
674.461	23.19
674.87	23.14
675.279	23.09
675.688	23.03
676.097	23
676.506	22.95
676.915	22.88
677.323	22.84
677.732	22.8
678.141	22.78
678.549	22.74
678.958	22.71
679.366	22.66
679.775	22.61
680.183	22.57
680.592	22.53
681	22.48
681.408	22.43
681.816	22.3
682.224	22.06
682.632	21.69
683.04	21.22
683.448	20.76
683.856	20.35
684.264	19.99
684.671	19.64
685.079	19.3
685.487	19
685.894	18.73
686.302	18.56
686.709	18.53
687.116	18.67
687.524	18.92
687.931	19.21
688.338	19.5
688.745	19.76
689.152	20.04
689.559	20.28
689.966	20.5
690.373	20.73
690.78	20.91
691.187	21.08
691.593	21.22
692	21.36
692.407	21.48
692.813	21.58
693.22	21.66
693.626	21.73
694.032	21.8
694.439	21.89
694.845	21.94
695.251	21.98
695.657	22
696.063	22.03
696.469	22
696.875	21.98
697.281	21.93
697.687	21.91
698.093	21.9
698.498	21.86
698.904	21.84
699.31	21.84
699.715	21.85
700.12	21.89
700.526	21.93
700.931	21.99
701.337	22.03
701.742	22.09
702.147	22.14
702.552	22.19
702.957	22.25
703.362	22.31
703.767	22.34
704.172	22.37
704.577	22.37
704.981	22.38
705.386	22.39
705.791	22.42
706.195	22.45
706.6	22.47
707.004	22.48
707.408	22.49
707.813	22.47
708.217	22.46
708.621	22.44
709.025	22.45
709.43	22.44
709.834	22.44
710.237	22.41
710.641	22.39
711.045	22.34
711.449	22.3
711.853	22.24
712.256	22.17
712.66	22.04
713.064	21.87
713.467	21.66
713.87	21.39
714.274	21.1
714.677	20.79
715.08	20.47
715.484	20.16
715.887	19.87
716.29	19.63
716.693	19.47
717.096	19.42
717.499	19.46
717.901	19.55
718.304	19.68
718.707	19.84
719.109	20.01
719.512	20.14
719.915	20.26
720.317	20.37
720.719	20.44
721.122	20.46
721.524	20.42
721.926	20.34
722.328	20.25
722.731	20.16
723.133	20.06
723.535	20.01
723.937	19.98
724.338	19.95
724.74	19.94
725.142	19.84
725.544	19.82
725.945	19.81
726.347	19.79
726.748	19.79
727.15	19.8
727.551	19.83
727.952	19.85
728.354	19.92
728.755	20
729.156	20.09
729.557	20.28
729.958	20.4
730.359	20.53
730.76	20.62
731.161	20.68
731.562	20.75
731.962	20.81
732.363	20.84
732.763	20.85
733.164	20.83
733.564	20.82
733.965	20.79
734.365	20.74
734.766	20.65
735.166	20.57
735.566	20.51
735.966	20.45
736.366	20.37
736.766	20.33
737.166	20.25
737.566	20.2
737.966	20.17
738.365	20.13
738.765	20.08
739.165	20.07
739.564	20.11
739.964	20.11
740.363	20.12
740.763	20.12
741.162	20.1
741.561	20.13
741.96	20.13
742.36	20.11
742.759	20.07
743.158	20.06
743.557	20.04
743.955	20.02
744.354	19.99
744.753	19.96
745.152	19.91
745.55	19.88
745.949	19.81
746.348	19.76
746.746	19.71
747.144	19.67
747.543	19.61
747.941	19.56
748.339	19.48
748.737	19.43
749.136	19.37
749.534	19.35
749.932	19.31
750.33	19.28
750.727	19.23
751.125	19.2
751.523	19.15
751.921	19.12
752.318	19.06
752.716	19.01
753.113	18.94
753.511	18.86
753.908	18.75
754.305	18.62
754.703	18.4
755.1	17.98
755.497	17.31
755.894	16.38
756.291	15.3
756.688	14.21
757.085	13.13
757.482	12.16
757.878	11.24
758.275	10.32
758.672	9.41
759.068	8.59
759.465	8
759.861	7.72
760.258	7.74
760.654	7.98
761.05	8.36
761.447	8.79
761.843	9.15
762.239	9.56
762.635	10.06
763.031	10.66
763.427	11.32
763.822	11.97
764.218	12.64
764.614	13.29
765.01	13.88
765.405	14.39
765.801	14.84
766.196	15.26
766.592	15.64
766.987	15.93
767.382	16.12
767.778	16.29
768.173	16.42
768.568	16.5
768.963	16.54
769.358	16.6
769.753	16.63
770.148	16.64
770.542	16.64
770.937	16.6
771.332	16.54
771.726	16.52
772.121	16.46
772.515	16.42
772.91	16.37
773.304	16.32
773.699	16.27
774.093	16.2
774.487	16.17
774.881	16.11
775.275	16.09
775.669	16.06
776.063	16
776.457	15.96
776.851	15.89
777.245	15.85
777.638	15.78
778.032	15.73
778.425	15.69
778.819	15.65
779.212	15.57
779.606	15.49
779.999	15.44
780.392	15.39
780.786	15.34
781.179	15.31
781.572	15.23
781.965	15.2
782.358	15.13
782.751	15.07
783.143	14.97
783.536	14.93
783.929	14.89
784.322	14.83
784.714	14.77
785.107	14.68
785.499	14.59
785.891	14.53
786.284	14.44
786.676	14.39
787.068	14.31
787.46	14.23
787.852	14.16
788.245	14.08
788.636	13.98
789.028	13.89
789.42	13.81
789.812	13.74
790.204	13.63
790.595	13.54
790.987	13.46
791.378	13.37
791.77	13.33
792.161	13.26
792.553	13.18
792.944	13.15
793.335	13.12
793.726	13.07
794.117	13.03
794.508	13.04
794.899	13.03
795.29	12.95
795.681	12.9
796.072	12.85
796.463	12.76
796.853	12.68
797.244	12.59
797.634	12.5
798.025	12.41
798.415	12.32
798.806	12.21
799.196	12.11
799.586	12.04
799.976	11.97
800.366	11.86
800.756	11.82
801.146	11.76
801.536	11.67
801.926	11.62
802.316	11.56
802.706	11.5
803.095	11.44
803.485	11.4
803.874	11.32
804.264	11.27
804.653	11.19
805.043	11.11
805.432	11.01
805.821	10.92
806.21	10.8
806.599	10.72
806.988	10.61
807.377	10.5
807.766	10.4
808.155	10.3
808.544	10.18
808.933	10.06
809.321	9.93
809.71	9.83
810.098	9.71
810.487	9.58
810.875	9.43
811.264	9.28
811.652	9.12
812.04	8.94
812.428	8.77
812.816	8.65
813.204	8.5
813.592	8.38
813.98	8.23
814.368	8.13
814.756	8.01
815.144	7.91
815.531	7.82
815.919	7.76
816.306	7.71
816.694	7.69
817.081	7.64
817.469	7.6
817.856	7.55
818.243	7.5
818.63	7.41
819.017	7.34
819.404	7.28
819.791	7.24
820.178	7.17
820.565	7.12
820.952	7.04
821.339	6.97
821.725	6.92
822.112	6.9
822.498	6.9
822.885	6.91
823.271	6.91
823.657	6.89
824.044	6.85
824.43	6.79
824.816	6.72
825.202	6.67
825.588	6.63
825.974	6.59
826.36	6.5
826.746	6.43
827.132	6.35
827.517	6.27
827.903	6.21
828.289	6.17
828.674	6.13
829.06	6.1
829.445	6.07
829.83	6.01
830.216	5.98
830.601	5.97
830.986	5.94
831.371	5.92
831.756	5.89
832.141	5.86
832.526	5.83
832.911	5.83
833.295	5.8
833.68	5.78
834.065	5.76
834.449	5.72
834.834	5.68
835.218	5.65
835.603	5.61
835.987	5.59
836.371	5.57
836.755	5.54
837.139	5.5
837.524	5.48
837.908	5.45
838.291	5.41
838.675	5.39
839.059	5.36
839.443	5.34
839.827	5.32
840.21	5.3
840.594	5.26
840.977	5.23
841.361	5.19
841.744	5.18
842.127	5.14
842.511	5.14
842.894	5.11
843.277	5.1
843.66	5.07
844.043	5.05
844.426	5.02
844.809	5
845.191	4.98
845.574	4.96
845.957	4.9
846.339	4.86
846.722	4.82
847.104	4.79
847.487	4.75
847.869	4.71
848.252	4.68
848.634	4.65
849.016	4.63
849.398	4.58
849.78	4.53
850.162	4.49
850.544	4.45
850.926	4.39
851.307	4.37
851.689	4.33
852.071	4.31
852.452	4.28
852.834	4.25
853.215	4.23
853.597	4.24
853.978	4.23
854.359	4.24
854.741	4.25
855.122	4.26
855.503	4.24
855.884	4.24
856.265	4.24
856.646	4.23
857.026	4.22
857.407	4.2
857.788	4.19
858.169	4.19
858.549	4.16
858.93	4.14
859.31	4.13
859.69	4.11
860.071	4.11
860.451	4.08
860.831	4.04
861.211	4.02
861.591	3.98
861.971	3.94
862.351	3.91
862.731	3.88
863.111	3.85
863.491	3.81
863.87	3.78
864.25	3.75
864.629	3.73
865.009	3.71
865.388	3.7
865.768	3.71
866.147	3.71
866.526	3.71
866.905	3.7
867.284	3.69
867.663	3.7
868.042	3.7
868.421	3.69
868.8	3.67
869.179	3.67
869.558	3.66
869.936	3.66
870.315	3.66
870.693	3.65
871.072	3.64
871.45	3.63
871.828	3.61
872.207	3.59
872.585	3.6
872.963	3.59
873.341	3.59
873.719	3.59
874.097	3.57
874.475	3.57
874.853	3.56
875.23	3.56
875.608	3.54
875.986	3.54
876.363	3.55
876.741	3.53
877.118	3.49
877.495	3.49
877.873	3.44
878.25	3.43
878.627	3.42
879.004	3.4
879.381	3.4
879.758	3.38
880.135	3.36
880.512	3.35
880.889	3.34
881.265	3.35
881.642	3.33
882.019	3.33
882.395	3.33
882.772	3.31
883.148	3.29
883.524	3.25
883.901	3.25
884.277	3.25
884.653	3.24
885.029	3.22
885.405	3.2
885.781	3.18
886.157	3.18
886.532	3.17
886.908	3.16
887.284	3.15
887.659	3.16
888.035	3.15
888.411	3.12
888.786	3.1
889.161	3.08
889.537	3.08
889.912	3.07
890.287	3.04
890.662	3.01
891.037	2.99
891.412	2.95
891.787	2.93
892.162	2.91
892.536	2.89
892.911	2.87
893.286	2.86
893.66	2.83
894.035	2.82
894.409	2.79
894.784	2.77
895.158	2.75
895.532	2.73
895.906	2.71
896.281	2.68
896.655	2.66
897.029	2.63
897.402	2.61
897.776	2.59
898.15	2.58
898.524	2.58
898.898	2.58
899.271	2.57
899.645	2.6
900.018	2.58
900.392	2.6
900.765	2.61
901.138	2.63
901.511	2.64
901.884	2.64
902.258	2.65
902.631	2.66
903.003	2.66
903.376	2.67
903.749	2.68
904.122	2.7
904.495	2.69
904.867	2.69
905.24	2.7
905.612	2.7
905.985	2.7
906.357	2.68
906.729	2.67
907.102	2.66
907.474	2.66
907.846	2.63
908.218	2.62
908.59	2.62
908.962	2.62
909.334	2.6
909.705	2.59
910.077	2.58
910.449	2.58
910.82	2.59
911.192	2.58
911.563	2.57
911.935	2.57
912.306	2.57
912.677	2.58
913.048	2.58
913.419	2.57
913.79	2.57
914.161	2.56
914.532	2.57
914.903	2.57
915.274	2.57
915.645	2.59
916.015	2.6
916.386	2.6
916.756	2.57
917.127	2.59
917.497	2.63
917.868	2.64
918.238	2.64
918.608	2.63
918.978	2.63
919.348	2.64
919.718	2.63
920.088	2.61
920.458	2.62
920.828	2.62
921.198	2.57
921.567	2.54
921.937	2.54
922.306	2.57
922.676	2.57
923.045	2.56
923.415	2.56
923.784	2.56
924.153	2.57
924.522	2.57
924.891	2.56
925.26	2.58
925.629	2.6
925.998	2.57
926.367	2.56
926.736	2.55
927.104	2.55
927.473	2.53
927.842	2.52
928.21	2.5
928.578	2.49
928.947	2.49
929.315	2.46
929.683	2.43
930.051	2.42
930.42	2.36
930.788	2.32
931.156	2.29
931.523	2.23
931.891	2.2
932.259	2.17
932.627	2.12
932.994	2.11
933.362	2.09
933.729	2.06
934.097	2.08
934.464	2.1
934.831	2.15
935.199	2.18
935.566	2.29
935.933	2.43
936.3	2.47
936.667	2.58
937.034	2.62
937.401	2.68
937.767	2.82
938.134	2.88
938.501	2.98
938.867	3.04
939.234	3.13
939.6	3.14
939.967	3.11
940.333	3.2
940.699	3.26
941.065	3.27
941.431	3.29
941.798	3.32
942.163	3.36
942.529	3.33
942.895	3.34
943.261	3.31
943.627	3.32
943.992	3.31
944.358	3.28
944.723	3.22
945.089	3.21
945.454	3.26
945.82	3.15
946.185	3.09
946.55	3.09
946.915	3.1
947.28	3.08
947.645	3.11
948.01	3.04
948.375	3.01
948.74	2.99
949.104	3.01
949.469	3
949.834	3.02
950.198	3.07
950.562	3.12
950.927	3.07
951.291	3.06
951.655	2.98
952.02	2.96
952.384	2.98
952.748	2.93
953.112	2.86
953.476	2.82
953.839	2.8
954.203	2.73
954.567	2.63
954.931	2.63
955.294	2.61
955.658	2.56
956.021	2.58
956.385	2.59
956.748	2.61
957.111	2.64
957.474	2.68
957.837	2.7
958.2	2.72
958.563	2.78
958.926	2.77
959.289	2.75
959.652	2.82
960.015	2.81
960.377	2.79
960.74	2.82
961.102	2.77
961.465	2.74
961.827	2.7
962.189	2.67
962.552	2.62
962.914	2.64
963.276	2.67
963.638	2.61
964	2.61
964.362	2.6
964.724	2.6
965.085	2.64
965.447	2.65
965.809	2.66
966.17	2.69
966.532	2.72
966.893	2.69
967.255	2.71
967.616	2.74
967.977	2.75
968.338	2.76
968.699	2.77
969.061	2.8
969.421	2.81
969.782	2.78
970.143	2.8
970.504	2.82
970.865	2.86
971.225	2.81
971.586	2.83
971.946	2.9
972.307	2.92
972.667	2.91
973.027	2.97
973.388	2.95
973.748	2.99
974.108	3.01
974.468	2.99
974.828	3.01
975.188	3.06
975.548	3.02
975.907	3.03
976.267	3.07
976.627	3.07
976.986	2.98
977.346	3.01
977.705	3.03
978.064	3.01
978.424	3.08
978.783	3.07
979.142	3.14
979.501	3.15
979.86	3.1
980.219	3.03
980.578	3.1
980.937	3.16
981.296	3.2
981.654	3.22
982.013	3.28
982.371	3.2
982.73	3.17
983.088	3.16
983.447	3.19
983.805	3.26
984.163	3.25
984.521	3.17
984.879	3.26
985.237	3.26
985.595	3.25
985.953	3.24
986.311	3.28
986.669	3.33
987.026	3.24
987.384	3.24
987.741	3.24
988.099	3.27
988.456	3.42
988.814	3.39
989.171	3.4
989.528	3.44
989.885	3.39
990.242	3.38
990.599	3.38
990.956	3.52
991.313	3.46
991.67	3.52
992.027	3.6
992.383	3.49
992.74	3.44
993.096	3.41
993.453	3.47
993.809	3.52
994.165	3.55
994.522	3.56
994.878	3.59
995.234	3.71
995.59	3.58
995.946	3.63
996.302	3.65
996.658	3.76
997.013	3.9
997.369	3.89
997.725	3.92
998.08	3.93
998.436	4.06
998.791	3.99
999.147	4
999.502	4.1
999.857	4.06
1000.212	4.08
1000.567	3.95
1000.922	3.86
1001.277	3.76
1001.632	3.95
1001.987	3.92
1002.342	3.9
1002.696	3.93
1003.051	3.87
1003.406	3.84
1003.76	3.95
1004.114	3.99
1004.469	4.12
1004.823	4.28
1005.177	4.49
1005.531	4.37
1005.885	4.45
1006.239	4.51
1006.593	4.36
1006.947	4.5
1007.301	4.62
1007.655	4.67
1008.008	4.78
1008.362	4.79
1008.715	4.69
1009.069	4.61
1009.422	4.65
1009.776	4.89
1010.129	4.79
1010.482	5.03
1010.835	5.01
1011.188	4.99
1011.541	4.82
1011.894	4.79
1012.247	4.91
1012.6	4.97
1012.952	4.92
1013.305	4.96
1013.657	4.9
1014.01	5.13
1014.362	5.24
1014.715	5.3
1015.067	5.53
1015.419	5.84
1015.771	5.9
1016.123	5.68
1016.475	5.64
1016.827	6.05
1017.179	6.06
1017.531	6.01
1017.883	5.93
1018.234	5.91
1018.586	5.95
1018.938	5.57
1019.289	5.47
1019.64	5.78
1019.992	6.07
1020.343	6.28
1020.694	6.23
1021.045	6.33
1021.396	6.53
1021.747	6.6
1022.098	6.77
1022.449	7.08
1022.8	7.5
1023.151	7.57
1023.501	7.33
1023.852	7.35
1024.202	7.31
1024.553	7.44
1024.903	7.85
1025.253	7.86
1025.604	8.03
1025.954	8.01
1026.304	8.22
1026.654	8.41
1027.004	8.68
1027.354	8.91
1027.703	9.28
1028.053	9.4
1028.403	9.39
1028.753	9.48
1029.102	9.69
1029.452	9.79
1029.801	10.08
1030.15	10.01
1030.499	9.98
897.758	512.45
901.051	531.23
904.343	526.68
907.636	519.7
910.928	513.04
914.22	520.22
917.511	508.63
920.803	489.57
924.094	466.91
927.384	472.45
930.675	458.16
933.965	455.43
937.255	450.88
940.544	436.02
943.834	416.18
947.123	409.72
950.411	389.06
953.7	382.55
956.988	366.29
960.276	355.29
963.563	349.09
966.851	333.17
970.138	324.99
973.424	303.05
976.711	299.94
979.997	290.63
983.283	282.93
986.568	274.45
989.853	267.19
993.138	259.84
996.423	254.98
999.708	248.2
1002.992	247.86
1006.275	241.03
1009.559	239.45
1012.842	232.51
1016.125	225.68
1019.408	223.21
1022.69	220.61
1025.972	218.92
1029.254	213.89
1032.536	209.53
1035.817	202.07
1039.098	199.44
1042.379	196.42
1045.659	193.13
1048.939	191.81
1052.219	187.62
1055.498	183.87
1058.778	180.81
1062.057	179.01
1065.335	177.58
1068.614	174.36
1071.892	173.67
1075.17	170.72
1078.447	168.2
1081.724	166.95
1085.001	163.22
1088.278	163.65
1091.554	163.08
1094.83	161.6
1098.106	159.01
1101.382	157.88
1104.657	158
1107.932	156.85
1111.206	155.46
1114.481	154.57
1117.755	153.78
1121.029	153.37
1124.302	151.09
1127.575	148.2
1130.848	148.12
1134.121	145.64
1137.393	145.37
1140.665	144.31
1143.937	143.19
1147.208	141.69
1150.48	139.86
1153.75	139.04
1157.021	137.74
1160.291	137.15
1163.561	136.48
1166.831	135.85
1170.101	135.4
1173.37	134.2
1176.639	132.72
1179.907	132.91
1183.176	132.24
1186.444	132.76
1189.711	131.68
1192.979	132.64
1196.246	132.87
1199.513	133.47
1202.78	132.42
1206.046	132
1209.312	134.17
1212.578	134.83
1215.843	136.16
1219.108	137.33
1222.373	139.13
1225.638	140.9
1228.902	143.61
1232.166	148.44
1235.43	149.73
1238.693	154.28
1241.956	158.83
1245.219	160.77
1248.482	162.26
1251.744	161.47
1255.006	161.55
1258.268	157.28
1261.529	156.99
1264.79	152.34
1268.051	149.42
1271.312	147.98
1274.572	145.46
1277.832	142.23
1281.092	139.77
1284.351	137.09
1287.61	137.05
1290.869	136.21
1294.128	136.04
1297.386	135
1300.644	135.08
1303.902	133.27
1307.159	132.9
1310.416	133.79
1313.673	134.7
1316.93	136.85
1320.186	138.47
1323.442	139.42
1326.697	142
1329.953	143.39
1333.208	147.81
1336.463	153.54
1339.717	156.85
1342.972	164.68
1346.226	167.76
1349.479	169.11
1352.733	175.23
1355.986	179.38
1359.238	183.12
1362.491	184.58
1365.743	189.96
1368.995	192.41
1372.247	193.52
1375.498	192.39
1378.749	197.1
1382	198.02
1385.251	196.01
1388.501	195.27
1391.751	197.34
1395	196.78
1398.25	198.27
1401.499	198.28
1404.748	196.36
1407.996	189.2
1411.244	189.42
1414.492	185.79
1417.74	180.83
1420.987	177.95
1424.234	174.4
1427.481	166.77
1430.728	161.93
1433.974	156.33
1437.22	150.43
1440.465	145.22
1443.711	141.44
1446.956	137.46
1450.201	132.39
1453.445	125.54
1456.689	121.84
1459.933	118.11
1463.177	113.41
1466.42	110.91
1469.663	107.57
1472.906	104.82
1476.148	101.36
1479.391	99.38
1482.633	97.34
1485.874	95.11
1489.115	94.54
1492.356	92.77
1495.597	91.23
1498.838	91.38
1502.078	90.32
1505.318	89.94
1508.557	89.19
1511.797	88.88
1515.036	88.27
1518.274	88.41
1521.513	87.18
1524.751	86.98
1527.989	87.98
1531.227	87.88
1534.464	87.38
1537.701	87.27
1540.938	86.8
1544.174	87.11
1547.41	87.18
1550.646	87.04
1553.882	86.91
1557.117	87.19
1560.352	86.81
1563.587	86.2
1566.821	86.12
1570.055	85.77
1573.289	85.96
1576.523	85.94
1579.756	85.97
1582.989	86.22
1586.222	86.01
1589.454	85.67
1592.686	85.78
1595.918	85.91
1599.15	85.71
1602.381	86.19
1605.612	86.21
1608.843	86.04
1612.073	86.39
1615.303	86.54
1618.533	86.25
1621.762	86.47
1624.992	86.96
1628.221	86.87
1631.449	87.41
1634.678	87.38
1637.906	87.4
1641.134	87.8
1644.361	87.72
1647.588	88.42
1650.815	88.11
1654.042	88.3
1657.269	88.24
1660.495	88.63
1663.72	88.73
1666.946	88.47
1670.171	88.92
1673.396	89.14
1676.621	88.99
1679.845	89.53
1683.069	88.61
1686.293	89.07
1689.517	88.74
1692.74	88.88
1695.963	88.52
1699.185	89.19
1702.408	88.65
1705.63	88.92
1708.852	89.79
1712.073	89.73
1715.294	89.4
1718.515	90.15
1721.736	90.15
1724.956	90.35
1728.176	90.52
1731.396	91.11
1734.616	90.9
1737.835	91.61
1741.054	90.69
1744.272	90.03
1747.491	90.56
1750.709	90.94
1753.927	90.78
1757.144	90.91
1760.361	91.06
1763.578	91.62
1766.795	91.72
1770.011	91.28
1773.227	91.89
1776.443	93.64
1779.658	93.15
1782.874	93.42
1786.089	93.03
1789.303	93
1792.518	94
1795.732	95.08
1798.945	95.64
1802.159	96.04
1805.372	97.57
1808.585	98.33
1811.797	98.32
1815.01	99.24
1818.222	99.79
1821.434	101.68
1824.645	102.3
1827.856	103.65
1831.067	103.57
1834.278	104.4
1837.488	104.99
1840.698	106
1843.908	105.78
1847.117	107.56
1850.326	107.88
1853.535	108.69
1856.744	109.58
1859.952	111.38
1863.16	110.24
1866.368	110.07
1869.575	110.3
1872.782	110.52
1875.989	108.31
1879.196	109.47
1882.402	107.18
1885.608	107.97
1888.814	107.36
1892.019	108.44
1895.224	106.11
1898.429	106.75
1901.634	107.36
1904.838	107.95
1908.042	108.74
1911.246	109.23
1914.449	108.36
1917.652	108.56
1920.855	109.3
1924.058	108.32
1927.26	106.63
1930.462	107.64
1933.664	108
1936.865	107.86
1940.066	106.81
1943.267	104.74
1946.467	107.21
1949.668	107.41
1952.868	107.79
1956.067	107.41
1959.267	109
1962.466	109.33
1965.665	109.46
1968.863	109.69
1972.061	112.16
1975.259	113.15
1978.457	115.78
1981.654	114.47
1984.852	115.09
1988.048	117.1
1991.245	119.26
1994.441	120.57
1997.637	123.43
2000.833	126.76
2004.028	127.88
2007.223	129.17
2010.418	132.3
2013.613	137.51
2016.807	142.11
2020.001	144.12
2023.194	148.55
2026.388	152.13
2029.581	160
2032.774	164.61
2035.966	168.43
2039.158	173.85
2042.35	176.57
2045.542	181.39
2048.733	188.16
2051.924	189.59
2055.115	194.27
2058.306	195.78
2061.496	199.51
2064.686	200.95
2067.875	198.82
2071.065	201.55
2074.254	201.89
2077.442	209.28
2080.631	210.73
2083.819	210.23
2087.007	214.87
2090.195	218.49
2093.382	218.82
2096.569	220.08
2099.756	222.6
2102.942	228.33
2106.128	233.69
2109.314	234.78
2112.5	234.23
2115.685	232.08
2118.87	232.65
2122.055	235.93
2125.239	240.05
2128.424	245.36
2131.608	243.98
2134.791	242.53
2137.974	244.42
2141.157	245.68
2144.34	247.98
2147.523	252.94
2150.705	260.37
2153.887	257.29
2157.068	258.43
2160.25	260.95
2163.431	260.52
2166.611	262.6
2169.792	270
2172.972	272.78
2176.152	272.71
2179.331	278.38
2182.511	277.42
2185.69	280.79
2188.868	292.3
2192.047	300.28
2195.225	304.27
2198.403	307.37
2201.58	305.52
2204.758	313
2207.935	315.79
2211.111	323.35
2214.288	324.08
2217.464	329.09
2220.64	331.48
2223.815	330.94
2226.991	328.17
2230.166	330.8
2233.34	341.89
2236.515	351.75
2239.689	345.99
2242.863	352.53
2246.036	348.31
2249.209	357.53
2252.382	355.62
2255.555	368.81
2258.727	372.2
2261.9	381.76
2265.071	388.64
2268.243	383.05
2271.414	395.68
2274.585	405.11
2277.756	402.89
2280.926	420.59
2284.096	424.81
2287.266	427.76
2290.436	417.8
2293.605	426
2296.774	439.27
2299.942	440.98
2303.111	453.89
2306.279	459.67
2309.447	465.2
2312.614	466.03
2315.781	475.58
2318.948	476.14
2322.115	484.86
2325.281	513.74
2328.447	506.94
2331.613	511.33
2334.779	510.87
2337.944	526.99
2341.109	537.97
2344.274	540.97
2347.438	552.39
2350.602	558.58
2353.766	598.73
2356.929	600.96
2360.092	607.36
2363.255	618.42
2366.418	623.26
2369.58	638.7
2372.742	635.87
2375.904	633.02
2379.066	649.5
2382.227	686.99
2385.388	696.63
2388.548	657.88
2391.709	652.8
2394.869	669.66
2398.029	672.16
2401.188	673.72
2404.347	692
2407.506	711.76
2410.665	687.45
2413.823	693.16
2416.981	697.81
2420.139	658.08
2423.296	713.39
2426.453	757.28
2429.61	719.68
2432.767	767.67
2435.923	793.33
2439.079	774.01
2442.235	783.69
2445.391	804.78
2448.546	795.55
2451.701	842.2
2454.855	898.03
2458.009	788.81
2461.163	816.34
2464.317	823.96
2467.471	802.96
2470.624	832.83
2473.777	814.05
2476.929	791.68
2480.082	847.82
2483.234	887.82
2486.385	898.36
2489.537	919
2492.688	1021.17
2495.839	986.51
2498.989	1019.15
2502.14	1030.81
2505.29	982.79
2508.439	1084.03
2511.589	1116.34
2514.738	1076.72
2517.887	1067.52
2521.035	1007.67
2524.183	993.31
2527.331	981.77
2530.479	961.67
2533.627	988.72
