Data from c_3_dec_ct_2n_Splice17_17.txt Node
Date: Sat Feb 29 14:46:00 EST 2020
User: sa697716
Spectrometer: FLMS03696
Trigger mode: 0
Integration Time (sec): 3.180400E-1
Scans to average: 20
Electric dark correction enabled: true
Nonlinearity correction enabled: true
Boxcar width: 5
XAxis mode: Wavelengths
Number of Pixels in Spectrum: 2048
>>>>>Begin Spectral Data<<<<<
187.83	89.26
188.298	97.87
188.766	86.24
189.233	83.5
189.701	77.5
190.169	76.42
190.636	68.69
191.104	60.83
191.571	55.21
192.039	150.6
192.506	8.61
192.974	-1908.89
193.441	74.66
193.908	21.94
194.375	-0.27
194.842	4.61
195.31	37.79
195.777	-14.13
196.244	6.87
196.711	12.84
197.177	13.01
197.644	14.36
198.111	14.43
198.578	14.4
199.045	14.72
199.511	14.51
199.978	14.95
200.445	14.92
200.911	15.5
201.378	15.72
201.844	16.11
202.31	16.96
202.777	17.16
203.243	18.04
203.709	18.58
204.176	18.7
204.642	19.13
205.108	18.94
205.574	19.31
206.04	19.45
206.506	19.4
206.972	19.64
207.438	19.12
207.903	19.26
208.369	18.78
208.835	18.61
209.301	18.59
209.766	18.71
210.232	18.76
210.697	18.88
211.163	18.56
211.628	18.73
212.094	18.55
212.559	18.45
213.024	17.95
213.49	17.63
213.955	17.62
214.42	17.28
214.885	16.84
215.35	16.73
215.815	16.04
216.28	15.86
216.745	15.42
217.21	15.04
217.675	14.72
218.14	14.35
218.604	14.04
219.069	13.67
219.534	13.41
219.998	13.09
220.463	12.87
220.927	12.76
221.392	12.58
221.856	12.38
222.32	12.18
222.785	12.01
223.249	11.89
223.713	11.75
224.177	11.58
224.642	11.49
225.106	11.41
225.57	11.24
226.034	11.08
226.497	10.95
226.961	10.81
227.425	10.7
227.889	10.58
228.353	10.43
228.816	10.32
229.28	10.19
229.744	10.06
230.207	9.94
230.671	9.85
231.134	9.73
231.597	9.61
232.061	9.5
232.524	9.39
232.987	9.29
233.45	9.18
233.914	9.08
234.377	9.01
234.84	8.91
235.303	8.81
235.766	8.71
236.229	8.62
236.691	8.53
237.154	8.45
237.617	8.36
238.08	8.27
238.542	8.19
239.005	8.1
239.468	7.98
239.93	7.89
240.393	7.81
240.855	7.7
241.317	7.61
241.78	7.53
242.242	7.45
242.704	7.38
243.166	7.31
243.629	7.24
244.091	7.17
244.553	7.12
245.015	7.06
245.477	6.98
245.939	6.94
246.4	6.87
246.862	6.81
247.324	6.77
247.786	6.71
248.247	6.66
248.709	6.6
249.17	6.56
249.632	6.5
250.093	6.43
250.555	6.38
251.016	6.34
251.477	6.3
251.939	6.26
252.4	6.2
252.861	6.16
253.322	6.12
253.783	6.1
254.244	6.06
254.705	6.03
255.166	6.01
255.627	5.98
256.088	5.94
256.549	5.91
257.009	5.87
257.47	5.85
257.931	5.81
258.391	5.77
258.852	5.72
259.312	5.7
259.773	5.66
260.233	5.63
260.694	5.6
261.154	5.58
261.614	5.55
262.074	5.52
262.534	5.49
262.994	5.47
263.455	5.46
263.915	5.44
264.374	5.41
264.834	5.39
265.294	5.35
265.754	5.33
266.214	5.31
266.673	5.29
267.133	5.27
267.593	5.25
268.052	5.23
268.512	5.21
268.971	5.19
269.431	5.17
269.89	5.16
270.349	5.15
270.809	5.14
271.268	5.13
271.727	5.11
272.186	5.1
272.645	5.08
273.104	5.08
273.563	5.06
274.022	5.05
274.481	5.03
274.94	5.01
275.399	4.99
275.857	4.98
276.316	4.95
276.775	4.92
277.233	4.9
277.692	4.88
278.15	4.86
278.609	4.83
279.067	4.8
279.525	4.77
279.984	4.75
280.442	4.73
280.9	4.71
281.358	4.7
281.816	4.69
282.274	4.67
282.732	4.65
283.19	4.64
283.648	4.63
284.106	4.62
284.564	4.62
285.021	4.61
285.479	4.6
285.937	4.58
286.394	4.56
286.852	4.55
287.309	4.54
287.767	4.54
288.224	4.53
288.682	4.52
289.139	4.51
289.596	4.5
290.053	4.48
290.511	4.46
290.968	4.46
291.425	4.44
291.882	4.42
292.339	4.4
292.796	4.37
293.252	4.35
293.709	4.34
294.166	4.32
294.623	4.3
295.079	4.29
295.536	4.27
295.992	4.25
296.449	4.24
296.905	4.22
297.362	4.2
297.818	4.19
298.274	4.18
298.731	4.17
299.187	4.16
299.643	4.14
300.099	4.13
300.555	4.12
301.011	4.11
301.467	4.1
301.923	4.1
302.379	4.09
302.835	4.08
303.291	4.06
303.746	4.05
304.202	4.04
304.658	4.03
305.113	4.02
305.569	4.01
306.024	4.01
306.479	4
306.935	3.99
307.39	3.98
307.845	3.98
308.301	3.98
308.756	3.98
309.211	3.97
309.666	3.97
310.121	3.97
310.576	3.97
311.031	3.96
311.486	3.96
311.94	3.96
312.395	3.96
312.85	3.95
313.305	3.94
313.759	3.93
314.214	3.93
314.668	3.92
315.123	3.93
315.577	3.92
316.032	3.91
316.486	3.9
316.94	3.9
317.394	3.88
317.849	3.88
318.303	3.87
318.757	3.87
319.211	3.86
319.665	3.85
320.119	3.84
320.572	3.83
321.026	3.83
321.48	3.83
321.934	3.82
322.387	3.83
322.841	3.82
323.295	3.81
323.748	3.79
324.202	3.78
324.655	3.77
325.108	3.76
325.562	3.75
326.015	3.74
326.468	3.72
326.921	3.7
327.374	3.69
327.827	3.69
328.28	3.68
328.733	3.67
329.186	3.67
329.639	3.67
330.092	3.66
330.545	3.65
330.997	3.65
331.45	3.65
331.903	3.65
332.355	3.64
332.808	3.63
333.26	3.63
333.713	3.64
334.165	3.64
334.617	3.64
335.069	3.63
335.522	3.64
335.974	3.63
336.426	3.63
336.878	3.63
337.33	3.63
337.782	3.64
338.234	3.64
338.686	3.62
339.137	3.62
339.589	3.62
340.041	3.62
340.493	3.6
340.944	3.6
341.396	3.59
341.847	3.58
342.299	3.57
342.75	3.55
343.201	3.54
343.653	3.53
344.104	3.52
344.555	3.52
345.006	3.51
345.457	3.5
345.908	3.5
346.359	3.49
346.81	3.49
347.261	3.48
347.712	3.48
348.163	3.47
348.613	3.46
349.064	3.44
349.515	3.43
349.965	3.43
350.416	3.43
350.866	3.42
351.317	3.4
351.767	3.39
352.217	3.39
352.668	3.38
353.118	3.38
353.568	3.4
354.018	3.41
354.468	3.4
354.918	3.4
355.368	3.41
355.818	3.41
356.268	3.41
356.718	3.41
357.168	3.41
357.617	3.41
358.067	3.4
358.517	3.39
358.966	3.39
359.416	3.4
359.865	3.4
360.315	3.4
360.764	3.4
361.213	3.4
361.663	3.41
362.112	3.42
362.561	3.43
363.01	3.44
363.459	3.43
363.908	3.43
364.357	3.42
364.806	3.42
365.255	3.42
365.703	3.41
366.152	3.41
366.601	3.41
367.05	3.4
367.498	3.39
367.947	3.38
368.395	3.39
368.844	3.39
369.292	3.38
369.74	3.38
370.189	3.37
370.637	3.37
371.085	3.38
371.533	3.38
371.981	3.38
372.429	3.37
372.877	3.36
373.325	3.35
373.773	3.36
374.221	3.36
374.669	3.35
375.116	3.34
375.564	3.34
376.012	3.34
376.459	3.34
376.907	3.34
377.354	3.34
377.801	3.35
378.249	3.36
378.696	3.35
379.143	3.35
379.591	3.36
380.038	3.37
380.485	3.38
380.932	3.37
381.379	3.37
381.826	3.37
382.273	3.37
382.72	3.37
383.166	3.37
383.613	3.38
384.06	3.39
384.506	3.39
384.953	3.37
385.4	3.37
385.846	3.36
386.292	3.37
386.739	3.36
387.185	3.37
387.631	3.38
388.078	3.39
388.524	3.37
388.97	3.36
389.416	3.36
389.862	3.37
390.308	3.36
390.754	3.38
391.2	3.39
391.645	3.4
392.091	3.4
392.537	3.4
392.983	3.4
393.428	3.43
393.874	3.44
394.319	3.45
394.765	3.46
395.21	3.47
395.655	3.48
396.101	3.48
396.546	3.47
396.991	3.48
397.436	3.47
397.881	3.49
398.326	3.5
398.771	3.52
399.216	3.54
399.661	3.55
400.106	3.58
400.551	3.57
400.995	3.59
401.44	3.61
401.885	3.61
402.329	3.63
402.774	3.62
403.218	3.62
403.663	3.61
404.107	3.62
404.551	3.64
404.995	3.63
405.44	3.64
405.884	3.65
406.328	3.65
406.772	3.67
407.216	3.68
407.66	3.7
408.104	3.71
408.547	3.72
408.991	3.73
409.435	3.73
409.879	3.74
410.322	3.77
410.766	3.78
411.209	3.8
411.653	3.81
412.096	3.81
412.54	3.82
412.983	3.84
413.426	3.85
413.869	3.86
414.312	3.87
414.756	3.9
415.199	3.92
415.642	3.94
416.085	3.95
416.527	3.97
416.97	4.01
417.413	4.01
417.856	4.01
418.298	4.02
418.741	4.01
419.184	4.01
419.626	4
420.069	3.99
420.511	3.99
420.953	4
421.396	4
421.838	4
422.28	4.04
422.722	4.05
423.164	4.07
423.606	4.1
424.048	4.11
424.49	4.14
424.932	4.16
425.374	4.16
425.816	4.14
426.258	4.12
426.699	4.09
427.141	4.07
427.582	4.07
428.024	4.05
428.465	4.04
428.907	4.05
429.348	4.04
429.789	4.05
430.231	4.05
430.672	4.06
431.113	4.1
431.554	4.13
431.995	4.15
432.436	4.14
432.877	4.14
433.318	4.15
433.759	4.15
434.2	4.14
434.64	4.15
435.081	4.15
435.522	4.17
435.962	4.17
436.403	4.17
436.843	4.16
437.284	4.16
437.724	4.19
438.164	4.18
438.604	4.19
439.045	4.2
439.485	4.19
439.925	4.18
440.365	4.16
440.805	4.16
441.245	4.14
441.685	4.15
442.125	4.16
442.564	4.17
443.004	4.18
443.444	4.21
443.883	4.22
444.323	4.21
444.762	4.24
445.202	4.28
445.641	4.28
446.081	4.32
446.52	4.31
446.959	4.31
447.398	4.34
447.837	4.36
448.276	4.35
448.716	4.35
449.154	4.37
449.593	4.38
450.032	4.38
450.471	4.39
450.91	4.39
451.349	4.41
451.787	4.4
452.226	4.38
452.664	4.35
453.103	4.34
453.541	4.33
453.98	4.31
454.418	4.29
454.856	4.25
455.295	4.25
455.733	4.24
456.171	4.24
456.609	4.25
457.047	4.23
457.485	4.23
457.923	4.24
458.361	4.23
458.798	4.24
459.236	4.25
459.674	4.26
460.111	4.26
460.549	4.24
460.987	4.25
461.424	4.24
461.862	4.24
462.299	4.25
462.736	4.25
463.173	4.25
463.611	4.24
464.048	4.25
464.485	4.24
464.922	4.22
465.359	4.24
465.796	4.21
466.233	4.21
466.67	4.23
467.106	4.21
467.543	4.21
467.98	4.21
468.416	4.22
468.853	4.21
469.29	4.21
469.726	4.22
470.162	4.2
470.599	4.23
471.035	4.24
471.471	4.22
471.907	4.24
472.344	4.23
472.78	4.24
473.216	4.23
473.652	4.23
474.088	4.23
474.523	4.22
474.959	4.22
475.395	4.2
475.831	4.2
476.266	4.19
476.702	4.18
477.138	4.18
477.573	4.15
478.008	4.15
478.444	4.13
478.879	4.13
479.314	4.14
479.75	4.15
480.185	4.15
480.62	4.15
481.055	4.14
481.49	4.14
481.925	4.14
482.36	4.15
482.795	4.15
483.229	4.16
483.664	4.15
484.099	4.13
484.534	4.11
484.968	4.11
485.403	4.1
485.837	4.09
486.271	4.09
486.706	4.07
487.14	4.07
487.574	4.06
488.009	4.05
488.443	4.05
488.877	4.05
489.311	4.05
489.745	4.05
490.179	4.04
490.613	4.04
491.046	4.05
491.48	4.05
491.914	4.05
492.348	4.05
492.781	4.06
493.215	4.05
493.648	4.06
494.082	4.07
494.515	4.08
494.948	4.09
495.382	4.1
495.815	4.12
496.248	4.14
496.681	4.14
497.114	4.16
497.547	4.17
497.98	4.2
498.413	4.22
498.846	4.22
499.279	4.25
499.711	4.26
500.144	4.28
500.577	4.29
501.009	4.3
501.442	4.34
501.874	4.36
502.306	4.39
502.739	4.4
503.171	4.44
503.603	4.48
504.036	4.51
504.468	4.56
504.9	4.61
505.332	4.65
505.764	4.71
506.196	4.75
506.627	4.8
507.059	4.85
507.491	4.91
507.923	4.96
508.354	5.03
508.786	5.09
509.217	5.14
509.649	5.2
510.08	5.28
510.512	5.34
510.943	5.42
511.374	5.5
511.805	5.58
512.237	5.67
512.668	5.76
513.099	5.85
513.53	5.95
513.961	6.06
514.391	6.14
514.822	6.24
515.253	6.35
515.684	6.46
516.114	6.58
516.545	6.71
516.975	6.83
517.406	6.95
517.836	7.06
518.267	7.17
518.697	7.31
519.127	7.45
519.558	7.58
519.988	7.72
520.418	7.85
520.848	7.97
521.278	8.1
521.708	8.19
522.138	8.3
522.567	8.42
522.997	8.54
523.427	8.66
523.857	8.77
524.286	8.9
524.716	9
525.145	9.12
525.575	9.23
526.004	9.34
526.433	9.48
526.863	9.6
527.292	9.72
527.721	9.82
528.15	9.9
528.579	9.99
529.008	10.07
529.437	10.16
529.866	10.24
530.295	10.32
530.724	10.41
531.152	10.51
531.581	10.57
532.01	10.62
532.438	10.68
532.867	10.76
533.295	10.82
533.723	10.88
534.152	10.93
534.58	10.96
535.008	10.99
535.436	11.01
535.865	11.03
536.293	11.06
536.721	11.1
537.149	11.12
537.576	11.13
538.004	11.16
538.432	11.17
538.86	11.18
539.287	11.22
539.715	11.24
540.143	11.25
540.57	11.27
540.998	11.3
541.425	11.31
541.852	11.34
542.28	11.35
542.707	11.36
543.134	11.37
543.561	11.39
543.988	11.39
544.415	11.41
544.842	11.43
545.269	11.46
545.696	11.46
546.123	11.47
546.549	11.48
546.976	11.51
547.403	11.55
547.829	11.57
548.256	11.6
548.682	11.63
549.108	11.64
549.535	11.65
549.961	11.64
550.387	11.65
550.813	11.65
551.24	11.66
551.666	11.66
552.092	11.63
552.518	11.62
552.943	11.61
553.369	11.59
553.795	11.58
554.221	11.55
554.646	11.53
555.072	11.51
555.498	11.47
555.923	11.44
556.349	11.38
556.774	11.35
557.199	11.31
557.625	11.26
558.05	11.2
558.475	11.15
558.9	11.11
559.325	11.04
559.75	10.97
560.175	10.92
560.6	10.84
561.025	10.78
561.449	10.7
561.874	10.62
562.299	10.54
562.723	10.45
563.148	10.37
563.572	10.28
563.997	10.22
564.421	10.14
564.846	10.06
565.27	9.97
565.694	9.89
566.118	9.8
566.542	9.71
566.966	9.63
567.39	9.53
567.814	9.44
568.238	9.33
568.662	9.24
569.086	9.13
569.509	9.03
569.933	8.94
570.357	8.84
570.78	8.75
571.204	8.66
571.627	8.58
572.05	8.5
572.474	8.43
572.897	8.35
573.32	8.26
573.743	8.19
574.166	8.12
574.589	8.05
575.012	8.01
575.435	7.95
575.858	7.88
576.281	7.83
576.704	7.79
577.126	7.74
577.549	7.71
577.972	7.66
578.394	7.61
578.817	7.57
579.239	7.54
579.661	7.48
580.084	7.43
580.506	7.4
580.928	7.35
581.35	7.3
581.772	7.27
582.194	7.22
582.616	7.19
583.038	7.15
583.46	7.11
583.882	7.08
584.303	7.05
584.725	7.03
585.147	6.99
585.568	6.97
585.99	6.94
586.411	6.91
586.833	6.87
587.254	6.87
587.675	6.86
588.096	6.84
588.518	6.81
588.939	6.8
589.36	6.77
589.781	6.76
590.202	6.74
590.623	6.72
591.043	6.69
591.464	6.67
591.885	6.64
592.305	6.62
592.726	6.61
593.147	6.6
593.567	6.56
593.987	6.56
594.408	6.55
594.828	6.54
595.248	6.53
595.669	6.52
596.089	6.51
596.509	6.5
596.929	6.47
597.349	6.45
597.769	6.43
598.189	6.42
598.608	6.4
599.028	6.36
599.448	6.34
599.867	6.31
600.287	6.29
600.706	6.27
601.126	6.25
601.545	6.22
601.965	6.19
602.384	6.17
602.803	6.14
603.222	6.1
603.641	6.09
604.061	6.05
604.48	6.03
604.898	5.99
605.317	5.96
605.736	5.94
606.155	5.91
606.574	5.89
606.992	5.83
607.411	5.82
607.829	5.75
608.248	5.71
608.666	5.68
609.085	5.65
609.503	5.61
609.921	5.58
610.339	5.55
610.758	5.53
611.176	5.5
611.594	5.48
612.012	5.44
612.43	5.46
612.847	5.44
613.265	5.41
613.683	5.38
614.101	5.36
614.518	5.34
614.936	5.32
615.353	5.28
615.771	5.24
616.188	5.23
616.606	5.2
617.023	5.17
617.44	5.14
617.857	5.12
618.274	5.11
618.691	5.09
619.108	5.07
619.525	5.06
619.942	5.05
620.359	5.05
620.776	5.04
621.192	5.03
621.609	5.01
622.026	5.01
622.442	4.99
622.859	4.98
623.275	4.97
623.691	4.96
624.108	4.95
624.524	4.94
624.94	4.92
625.356	4.92
625.772	4.92
626.188	4.92
626.604	4.9
627.02	4.91
627.436	4.9
627.852	4.9
628.268	4.89
628.683	4.88
629.099	4.88
629.514	4.87
629.93	4.87
630.345	4.85
630.761	4.84
631.176	4.84
631.591	4.83
632.007	4.81
632.422	4.82
632.837	4.81
633.252	4.81
633.667	4.78
634.082	4.77
634.497	4.74
634.911	4.72
635.326	4.69
635.741	4.66
636.155	4.65
636.57	4.62
636.984	4.58
637.399	4.54
637.813	4.5
638.228	4.47
638.642	4.43
639.056	4.39
639.47	4.38
639.884	4.35
640.298	4.32
640.712	4.28
641.126	4.25
641.54	4.23
641.954	4.23
642.368	4.2
642.781	4.17
643.195	4.15
643.609	4.13
644.022	4.1
644.436	4.08
644.849	4.07
645.262	4.05
645.676	4.02
646.089	3.99
646.502	3.96
646.915	3.94
647.328	3.92
647.741	3.89
648.154	3.89
648.567	3.88
648.98	3.86
649.393	3.85
649.805	3.83
650.218	3.83
650.631	3.82
651.043	3.81
651.456	3.81
651.868	3.8
652.28	3.8
652.693	3.77
653.105	3.76
653.517	3.75
653.929	3.75
654.341	3.74
654.753	3.73
655.165	3.73
655.577	3.72
655.989	3.69
656.401	3.67
656.813	3.65
657.224	3.64
657.636	3.63
658.047	3.62
658.459	3.59
658.87	3.58
659.282	3.58
659.693	3.55
660.104	3.54
660.515	3.55
660.926	3.54
661.338	3.54
661.749	3.52
662.159	3.51
662.57	3.51
662.981	3.5
663.392	3.49
663.803	3.47
664.213	3.46
664.624	3.45
665.035	3.43
665.445	3.42
665.855	3.42
666.266	3.42
666.676	3.42
667.086	3.39
667.497	3.38
667.907	3.37
668.317	3.37
668.727	3.37
669.137	3.37
669.547	3.39
669.956	3.39
670.366	3.39
670.776	3.4
671.186	3.4
671.595	3.41
672.005	3.43
672.414	3.43
672.824	3.44
673.233	3.46
673.642	3.45
674.052	3.45
674.461	3.46
674.87	3.47
675.279	3.47
675.688	3.47
676.097	3.49
676.506	3.5
676.915	3.52
677.323	3.54
677.732	3.54
678.141	3.56
678.549	3.58
678.958	3.59
679.366	3.59
679.775	3.62
680.183	3.63
680.592	3.64
681	3.65
681.408	3.66
681.816	3.67
682.224	3.7
682.632	3.73
683.04	3.76
683.448	3.8
683.856	3.83
684.264	3.87
684.671	3.91
685.079	3.95
685.487	4.01
685.894	4.06
686.302	4.12
686.709	4.18
687.116	4.25
687.524	4.31
687.931	4.39
688.338	4.49
688.745	4.59
689.152	4.71
689.559	4.83
689.966	4.95
690.373	5.1
690.78	5.26
691.187	5.44
691.593	5.62
692	5.81
692.407	6.02
692.813	6.25
693.22	6.48
693.626	6.72
694.032	6.98
694.439	7.28
694.845	7.55
695.251	7.82
695.657	8.12
696.063	8.42
696.469	8.74
696.875	9.04
697.281	9.36
697.687	9.7
698.093	10.04
698.498	10.38
698.904	10.74
699.31	11.1
699.715	11.47
700.12	11.84
700.526	12.25
700.931	12.62
701.337	13.01
701.742	13.37
702.147	13.75
702.552	14.12
702.957	14.5
703.362	14.86
703.767	15.25
704.172	15.64
704.577	16.03
704.981	16.4
705.386	16.78
705.791	17.17
706.195	17.57
706.6	17.96
707.004	18.34
707.408	18.71
707.813	19.1
708.217	19.46
708.621	19.82
709.025	20.2
709.43	20.55
709.834	20.93
710.237	21.28
710.641	21.67
711.045	22.02
711.449	22.4
711.853	22.78
712.256	23.15
712.66	23.53
713.064	23.91
713.467	24.28
713.87	24.65
714.274	25.02
714.677	25.37
715.08	25.73
715.484	26.1
715.887	26.45
716.29	26.81
716.693	27.12
717.096	27.47
717.499	27.8
717.901	28.12
718.304	28.47
718.707	28.81
719.109	29.15
719.512	29.5
719.915	29.8
720.317	30.12
720.719	30.42
721.122	30.73
721.524	31.05
721.926	31.35
722.328	31.64
722.731	31.92
723.133	32.18
723.535	32.49
723.937	32.74
724.338	32.99
724.74	33.25
725.142	33.45
725.544	33.69
725.945	33.93
726.347	34.17
726.748	34.38
727.15	34.61
727.551	34.82
727.952	35
728.354	35.22
728.755	35.44
729.156	35.62
729.557	35.87
729.958	36.06
730.359	36.23
730.76	36.4
731.161	36.57
731.562	36.74
731.962	36.91
732.363	37.06
732.763	37.2
733.164	37.33
733.564	37.5
733.965	37.65
734.365	37.77
734.766	37.89
735.166	38
735.566	38.11
735.966	38.19
736.366	38.25
736.766	38.35
737.166	38.43
737.566	38.51
737.966	38.58
738.365	38.66
738.765	38.72
739.165	38.81
739.564	38.9
739.964	38.96
740.363	39.07
740.763	39.17
741.162	39.23
741.561	39.3
741.96	39.38
742.36	39.46
742.759	39.5
743.158	39.57
743.557	39.62
743.955	39.67
744.354	39.76
744.753	39.86
745.152	39.91
745.55	40
745.949	40.05
746.348	40.14
746.746	40.19
747.144	40.27
747.543	40.32
747.941	40.4
748.339	40.48
748.737	40.53
749.136	40.53
749.534	40.6
749.932	40.61
750.33	40.65
750.727	40.66
751.125	40.68
751.523	40.66
751.921	40.7
752.318	40.69
752.716	40.68
753.113	40.66
753.511	40.64
753.908	40.62
754.305	40.63
754.703	40.61
755.1	40.61
755.497	40.63
755.894	40.67
756.291	40.66
756.688	40.69
757.085	40.7
757.482	40.74
757.878	40.76
758.275	40.78
758.672	40.8
759.068	40.84
759.465	40.86
759.861	40.83
760.258	40.79
760.654	40.81
761.05	40.78
761.447	40.76
761.843	40.71
762.239	40.7
762.635	40.68
763.031	40.68
763.427	40.64
763.822	40.61
764.218	40.64
764.614	40.66
765.01	40.64
765.405	40.64
765.801	40.65
766.196	40.64
766.592	40.65
766.987	40.69
767.382	40.66
767.778	40.69
768.173	40.68
768.568	40.67
768.963	40.65
769.358	40.66
769.753	40.7
770.148	40.7
770.542	40.69
770.937	40.69
771.332	40.68
771.726	40.69
772.121	40.65
772.515	40.67
772.91	40.68
773.304	40.68
773.699	40.66
774.093	40.63
774.487	40.65
774.881	40.67
775.275	40.67
775.669	40.68
776.063	40.65
776.457	40.63
776.851	40.6
777.245	40.6
777.638	40.58
778.032	40.6
778.425	40.63
778.819	40.64
779.212	40.66
779.606	40.65
779.999	40.63
780.392	40.67
780.786	40.7
781.179	40.75
781.572	40.74
781.965	40.76
782.358	40.73
782.751	40.74
783.143	40.75
783.536	40.79
783.929	40.82
784.322	40.85
784.714	40.82
785.107	40.86
785.499	40.84
785.891	40.84
786.284	40.85
786.676	40.9
787.068	40.89
787.46	40.87
787.852	40.84
788.245	40.79
788.636	40.81
789.028	40.82
789.42	40.79
789.812	40.8
790.204	40.79
790.595	40.77
790.987	40.75
791.378	40.74
791.77	40.74
792.161	40.77
792.553	40.77
792.944	40.77
793.335	40.77
793.726	40.78
794.117	40.76
794.508	40.8
794.899	40.84
795.29	40.87
795.681	40.87
796.072	40.92
796.463	40.89
796.853	40.91
797.244	40.92
797.634	40.92
798.025	40.95
798.415	40.98
798.806	40.98
799.196	40.99
799.586	40.96
799.976	40.97
800.366	40.93
800.756	40.96
801.146	40.98
801.536	40.98
801.926	40.98
802.316	40.97
802.706	41
803.095	40.99
803.485	40.99
803.874	41.04
804.264	41.05
804.653	41.05
805.043	41.03
805.432	41.02
805.821	41.01
806.21	41.06
806.599	41.1
806.988	41.08
807.377	41.09
807.766	41.08
808.155	41.08
808.544	41.06
808.933	41.06
809.321	41.13
809.71	41.15
810.098	41.17
810.487	41.15
810.875	41.12
811.264	41.16
811.652	41.19
812.04	41.19
812.428	41.21
812.816	41.22
813.204	41.25
813.592	41.21
813.98	41.21
814.368	41.23
814.756	41.25
815.144	41.29
815.531	41.27
815.919	41.25
816.306	41.26
816.694	41.27
817.081	41.27
817.469	41.28
817.856	41.33
818.243	41.3
818.63	41.32
819.017	41.33
819.404	41.34
819.791	41.35
820.178	41.37
820.565	41.38
820.952	41.38
821.339	41.4
821.725	41.42
822.112	41.44
822.498	41.48
822.885	41.5
823.271	41.49
823.657	41.47
824.044	41.46
824.43	41.46
824.816	41.48
825.202	41.46
825.588	41.48
825.974	41.45
826.36	41.42
826.746	41.44
827.132	41.4
827.517	41.41
827.903	41.43
828.289	41.46
828.674	41.42
829.06	41.43
829.445	41.45
829.83	41.42
830.216	41.43
830.601	41.42
830.986	41.39
831.371	41.41
831.756	41.36
832.141	41.34
832.526	41.28
832.911	41.32
833.295	41.32
833.68	41.32
834.065	41.35
834.449	41.29
834.834	41.25
835.218	41.23
835.603	41.2
835.987	41.19
836.371	41.22
836.755	41.26
837.139	41.22
837.524	41.21
837.908	41.16
838.291	41.15
838.675	41.18
839.059	41.21
839.443	41.21
839.827	41.24
840.21	41.26
840.594	41.22
840.977	41.19
841.361	41.18
841.744	41.18
842.127	41.16
842.511	41.15
842.894	41.14
843.277	41.13
843.66	41.13
844.043	41.11
844.426	41.09
844.809	41.09
845.191	41.08
845.574	41.08
845.957	41.04
846.339	41.04
846.722	41.04
847.104	41.04
847.487	41.05
847.869	41.03
848.252	41.01
848.634	41.02
849.016	41.04
849.398	41.05
849.78	41.05
850.162	41.09
850.544	41.13
850.926	41.14
851.307	41.13
851.689	41.1
852.071	41.1
852.452	41.11
852.834	41.11
853.215	41.08
853.597	41.07
853.978	41.06
854.359	41.03
854.741	41
855.122	41.01
855.503	41.01
855.884	41.02
856.265	41.02
856.646	41.03
857.026	41.02
857.407	40.99
857.788	41.02
858.169	41.04
858.549	41.06
858.93	41.07
859.31	41.05
859.69	41.04
860.071	41.03
860.451	41.06
860.831	41.04
861.211	41.06
861.591	41.12
861.971	41.1
862.351	41.09
862.731	41.08
863.111	41.08
863.491	41.09
863.87	41.13
864.25	41.12
864.629	41.12
865.009	41.13
865.388	41.11
865.768	41.1
866.147	41.11
866.526	41.1
866.905	41.1
867.284	41.1
867.663	41.09
868.042	41.07
868.421	41.07
868.8	41.07
869.179	41.1
869.558	41.07
869.936	41.07
870.315	41.07
870.693	41.07
871.072	41.05
871.45	41.05
871.828	41.04
872.207	41.05
872.585	41.05
872.963	41.05
873.341	41.05
873.719	41.07
874.097	41.04
874.475	41.05
874.853	41.04
875.23	41.05
875.608	41.06
875.986	41.07
876.363	41.07
876.741	41.07
877.118	41.03
877.495	40.99
877.873	40.99
878.25	41.03
878.627	41.03
879.004	41.04
879.381	41.04
879.758	41.04
880.135	41.07
880.512	41.09
880.889	41.11
881.265	41.13
881.642	41.14
882.019	41.15
882.395	41.12
882.772	41.1
883.148	41.11
883.524	41.1
883.901	41.08
884.277	41.05
884.653	41.06
885.029	41.04
885.405	41.03
885.781	41.03
886.157	41.07
886.532	41.08
886.908	41.1
887.284	41.12
887.659	41.13
888.035	41.14
888.411	41.15
888.786	41.11
889.161	41.11
889.537	41.09
889.912	41.08
890.287	41.05
890.662	41.03
891.037	41.01
891.412	40.98
891.787	40.95
892.162	40.91
892.536	40.91
892.911	40.86
893.286	40.85
893.66	40.85
894.035	40.85
894.409	40.82
894.784	40.79
895.158	40.76
895.532	40.72
895.906	40.7
896.281	40.69
896.655	40.65
897.029	40.67
897.402	40.66
897.776	40.67
898.15	40.65
898.524	40.65
898.898	40.63
899.271	40.64
899.645	40.65
900.018	40.64
900.392	40.65
900.765	40.69
901.138	40.69
901.511	40.68
901.884	40.64
902.258	40.65
902.631	40.65
903.003	40.66
903.376	40.64
903.749	40.65
904.122	40.67
904.495	40.68
904.867	40.65
905.24	40.66
905.612	40.68
905.985	40.69
906.357	40.69
906.729	40.68
907.102	40.69
907.474	40.73
907.846	40.73
908.218	40.73
908.59	40.7
908.962	40.72
909.334	40.71
909.705	40.73
910.077	40.73
910.449	40.74
910.82	40.75
911.192	40.75
911.563	40.74
911.935	40.72
912.306	40.7
912.677	40.76
913.048	40.78
913.419	40.8
913.79	40.81
914.161	40.82
914.532	40.81
914.903	40.82
915.274	40.82
915.645	40.85
916.015	40.86
916.386	40.9
916.756	40.84
917.127	40.8
917.497	40.82
917.868	40.8
918.238	40.83
918.608	40.84
918.978	40.84
919.348	40.82
919.718	40.79
920.088	40.77
920.458	40.8
920.828	40.83
921.198	40.86
921.567	40.82
921.937	40.82
922.306	40.81
922.676	40.81
923.045	40.78
923.415	40.81
923.784	40.79
924.153	40.8
924.522	40.77
924.891	40.73
925.26	40.74
925.629	40.73
925.998	40.71
926.367	40.7
926.736	40.67
927.104	40.69
927.473	40.68
927.842	40.69
928.21	40.71
928.578	40.67
928.947	40.7
929.315	40.68
929.683	40.69
930.051	40.7
930.42	40.65
930.788	40.63
931.156	40.6
931.523	40.56
931.891	40.54
932.259	40.43
932.627	40.44
932.994	40.42
933.362	40.31
933.729	40.23
934.097	40.18
934.464	40.17
934.831	40.11
935.199	40.07
935.566	40.01
935.933	40.06
936.3	40.09
936.667	40.02
937.034	39.95
937.401	39.97
937.767	40
938.134	39.96
938.501	39.9
938.867	39.92
939.234	39.91
939.6	39.86
939.967	39.72
940.333	39.8
940.699	39.86
941.065	39.92
941.431	39.9
941.798	39.92
942.163	39.98
942.529	40.03
942.895	40.09
943.261	40.13
943.627	40.25
943.992	40.31
944.358	40.17
944.723	40.14
945.089	40.23
945.454	40.37
945.82	40.37
946.185	40.4
946.55	40.51
946.915	40.46
947.28	40.54
947.645	40.53
948.01	40.5
948.375	40.55
948.74	40.57
949.104	40.46
949.469	40.37
949.834	40.36
950.198	40.36
950.562	40.31
950.927	40.35
951.291	40.29
951.655	40.32
952.02	40.37
952.384	40.37
952.748	40.33
953.112	40.33
953.476	40.35
953.839	40.3
954.203	40.24
954.567	40.19
954.931	40.25
955.294	40.28
955.658	40.19
956.021	40.13
956.385	40.11
956.748	40.17
957.111	40.11
957.474	40.02
957.837	40.07
958.2	40.06
958.563	40.08
958.926	40
959.289	39.95
959.652	40.01
960.015	40.01
960.377	40.02
960.74	40.01
961.102	40.04
961.465	40.11
961.827	40.04
962.189	40.03
962.552	39.94
962.914	39.91
963.276	39.84
963.638	39.8
964	39.82
964.362	39.82
964.724	39.83
965.085	39.9
965.447	39.88
965.809	39.85
966.17	39.88
966.532	39.97
966.893	39.95
967.255	39.96
967.616	39.96
967.977	39.98
968.338	39.96
968.699	39.89
969.061	39.82
969.421	39.81
969.782	39.86
970.143	39.81
970.504	39.8
970.865	39.75
971.225	39.75
971.586	39.74
971.946	39.71
972.307	39.72
972.667	39.77
973.027	39.77
973.388	39.71
973.748	39.72
974.108	39.69
974.468	39.64
974.828	39.66
975.188	39.66
975.548	39.66
975.907	39.64
976.267	39.63
976.627	39.61
976.986	39.58
977.346	39.61
977.705	39.61
978.064	39.66
978.424	39.73
978.783	39.83
979.142	39.81
979.501	39.74
979.86	39.72
980.219	39.58
980.578	39.55
980.937	39.67
981.296	39.67
981.654	39.79
982.013	39.8
982.371	39.7
982.73	39.57
983.088	39.59
983.447	39.73
983.805	39.74
984.163	39.89
984.521	39.8
984.879	39.73
985.237	39.82
985.595	39.71
985.953	39.74
986.311	39.82
986.669	39.86
987.026	39.85
987.384	39.82
987.741	39.88
988.099	39.8
988.456	39.92
988.814	39.89
989.171	39.81
989.528	39.68
989.885	39.56
990.242	39.54
990.599	39.59
990.956	39.67
991.313	39.57
991.67	39.57
992.027	39.7
992.383	39.71
992.74	39.66
993.096	39.59
993.453	39.81
993.809	39.92
994.165	39.91
994.522	39.82
994.878	39.85
995.234	39.82
995.59	39.72
995.946	39.65
996.302	39.66
996.658	39.74
997.013	39.74
997.369	39.66
997.725	39.66
998.08	39.61
998.436	39.7
998.791	39.58
999.147	39.71
999.502	39.78
999.857	39.83
1000.212	39.79
1000.567	39.74
1000.922	39.81
1001.277	39.67
1001.632	39.71
1001.987	39.66
1002.342	39.68
1002.696	39.65
1003.051	39.57
1003.406	39.47
1003.76	39.34
1004.114	39.46
1004.469	39.39
1004.823	39.3
1005.177	39.39
1005.531	39.25
1005.885	39.39
1006.239	39.26
1006.593	39.21
1006.947	39.22
1007.301	39.29
1007.655	39.23
1008.008	39
1008.362	39.07
1008.715	38.98
1009.069	38.71
1009.422	38.66
1009.776	38.57
1010.129	38.5
1010.482	38.73
1010.835	38.75
1011.188	38.77
1011.541	38.69
1011.894	38.67
1012.247	38.6
1012.6	38.8
1012.952	38.96
1013.305	38.91
1013.657	38.87
1014.01	39.1
1014.362	38.97
1014.715	38.76
1015.067	38.82
1015.419	39.29
1015.771	39.45
1016.123	39.47
1016.475	39.48
1016.827	39.67
1017.179	39.71
1017.531	39.63
1017.883	39.44
1018.234	39.42
1018.586	39.34
1018.938	38.98
1019.289	38.59
1019.64	38.69
1019.992	38.64
1020.343	38.33
1020.694	38.13
1021.045	38.06
1021.396	38.22
1021.747	38
1022.098	37.9
1022.449	37.94
1022.8	37.92
1023.151	37.99
1023.501	37.66
1023.852	37.86
1024.202	38.01
1024.553	38.07
1024.903	38.41
1025.253	38.03
1025.604	38.12
1025.954	37.9
1026.304	38
1026.654	38.08
1027.004	37.91
1027.354	38.22
1027.703	38.03
1028.053	37.81
1028.403	37.38
1028.753	37.34
1029.102	37.34
1029.452	37.26
1029.801	37.37
1030.15	37.37
1030.499	37.36
897.758	583.38
901.051	596.46
904.343	603.23
907.636	589.89
910.928	580.06
914.22	588.94
917.511	579.01
920.803	552.31
924.094	530.09
927.384	538.81
930.675	524.23
933.965	515.7
937.255	512.94
940.544	489.01
943.834	471.49
947.123	463.54
950.411	438.97
953.7	430.54
956.988	417.44
960.276	400.31
963.563	394.33
966.851	372.87
970.138	367.41
973.424	342.51
976.711	338.46
979.997	327.8
983.283	319.54
986.568	309.27
989.853	301.68
993.138	291.47
996.423	285.92
999.708	277.45
1002.992	278.99
1006.275	267.11
1009.559	266.02
1012.842	257.8
1016.125	248.36
1019.408	245.39
1022.69	244.84
1025.972	240.66
1029.254	235.38
1032.536	230.7
1035.817	224.01
1039.098	219.8
1042.379	217.89
1045.659	214.34
1048.939	213.57
1052.219	210.03
1055.498	205.19
1058.778	200.24
1062.057	199.32
1065.335	197.84
1068.614	194.19
1071.892	192.63
1075.17	189.52
1078.447	187.27
1081.724	185.72
1085.001	180.28
1088.278	181.16
1091.554	180.47
1094.83	179.28
1098.106	174.59
1101.382	173.89
1104.657	173.86
1107.932	172.04
1111.206	171.45
1114.481	168.85
1117.755	167.96
1121.029	168.51
1124.302	165.47
1127.575	162.73
1130.848	162.46
1134.121	161.13
1137.393	160.13
1140.665	159.51
1143.937	158.05
1147.208	155.96
1150.48	155.16
1153.75	153.78
1157.021	151.88
1160.291	151.32
1163.561	151.65
1166.831	150.04
1170.101	149.93
1173.37	149.22
1176.639	147.65
1179.907	147.55
1183.176	146.36
1186.444	146.77
1189.711	145.21
1192.979	147.19
1196.246	146.83
1199.513	146.62
1202.78	147.06
1206.046	146.5
1209.312	147.82
1212.578	148.24
1215.843	151.16
1219.108	152.54
1222.373	154.59
1225.638	157.68
1228.902	160.04
1232.166	164.99
1235.43	166.97
1238.693	171.6
1241.956	175.16
1245.219	179.17
1248.482	180.87
1251.744	179.55
1255.006	180.2
1258.268	175.75
1261.529	174.45
1264.79	170.6
1268.051	167.58
1271.312	166.19
1274.572	162.45
1277.832	159.73
1281.092	156.44
1284.351	153.24
1287.61	153.22
1290.869	152.96
1294.128	152.91
1297.386	151.53
1300.644	150.64
1303.902	149.81
1307.159	148.46
1310.416	149.73
1313.673	150.81
1316.93	152.51
1320.186	155.08
1323.442	156.5
1326.697	158.75
1329.953	160.08
1333.208	165.89
1336.463	172.24
1339.717	175.47
1342.972	183.9
1346.226	188.93
1349.479	190.55
1352.733	198.8
1355.986	201.5
1359.238	206.06
1362.491	207.84
1365.743	215.51
1368.995	215.64
1372.247	215.46
1375.498	214.93
1378.749	222.23
1382	220.99
1385.251	219.86
1388.501	218.48
1391.751	221.57
1395	220.51
1398.25	222.84
1401.499	220.33
1404.748	220.4
1407.996	215.47
1411.244	214.87
1414.492	210.47
1417.74	204.94
1420.987	201
1424.234	195.94
1427.481	190.02
1430.728	184.04
1433.974	176.27
1437.22	172.15
1440.465	165.32
1443.711	160.64
1446.956	155.4
1450.201	149.58
1453.445	143.45
1456.689	138.9
1459.933	135.15
1463.177	128.95
1466.42	126.59
1469.663	123.16
1472.906	119.05
1476.148	116.43
1479.391	113.8
1482.633	112.05
1485.874	110.23
1489.115	109.04
1492.356	106.59
1495.597	105.09
1498.838	105.38
1502.078	104.16
1505.318	104.07
1508.557	103.13
1511.797	101.89
1515.036	101.55
1518.274	101.41
1521.513	99.59
1524.751	99.26
1527.989	100.68
1531.227	100.2
1534.464	99.35
1537.701	98.76
1540.938	98.24
1544.174	98.51
1547.41	99.35
1550.646	99.08
1553.882	98.97
1557.117	98.9
1560.352	98.53
1563.587	97.93
1566.821	97.73
1570.055	97.53
1573.289	97.61
1576.523	97.46
1579.756	97.21
1582.989	96.5
1586.222	96.47
1589.454	96.17
1592.686	96.41
1595.918	96.14
1599.15	95.64
1602.381	96.13
1605.612	95.88
1608.843	95.7
1612.073	96.14
1615.303	95.65
1618.533	96.16
1621.762	96.38
1624.992	96.23
1628.221	96.05
1631.449	96.86
1634.678	96.84
1637.906	97.01
1641.134	97.26
1644.361	97.28
1647.588	97.89
1650.815	98.66
1654.042	98.1
1657.269	97.56
1660.495	98.58
1663.72	98.55
1666.946	98.37
1670.171	98.94
1673.396	99.52
1676.621	99.66
1679.845	99.67
1683.069	98.87
1686.293	98.58
1689.517	99.34
1692.74	99.83
1695.963	99.45
1699.185	100.27
1702.408	100.18
1705.63	100.17
1708.852	100.49
1712.073	100.14
1715.294	100.53
1718.515	100.75
1721.736	101.07
1724.956	101.47
1728.176	101.21
1731.396	101.9
1734.616	101.34
1737.835	101.55
1741.054	101.26
1744.272	101.22
1747.491	101.09
1750.709	101.52
1753.927	101.96
1757.144	102.36
1760.361	101.79
1763.578	102.83
1766.795	102.92
1770.011	103.41
1773.227	103.95
1776.443	105.19
1779.658	104.31
1782.874	106.08
1786.089	105.79
1789.303	105.72
1792.518	106.15
1795.732	107.11
1798.945	107.44
1802.159	107.63
1805.372	108.74
1808.585	109.7
1811.797	110.4
1815.01	111.91
1818.222	111.75
1821.434	113.56
1824.645	114.35
1827.856	116.24
1831.067	116.45
1834.278	118.19
1837.488	119.19
1840.698	120.26
1843.908	119.61
1847.117	120.79
1850.326	121.7
1853.535	123.54
1856.744	124.02
1859.952	125.32
1863.16	125.31
1866.368	124.97
1869.575	124.72
1872.782	124.34
1875.989	123.2
1879.196	123.12
1882.402	121.59
1885.608	121.92
1888.814	120.72
1892.019	121.82
1895.224	120.1
1898.429	118.91
1901.634	119.83
1904.838	120.72
1908.042	121.22
1911.246	120.91
1914.449	121.67
1917.652	121.23
1920.855	121.15
1924.058	119.88
1927.26	119
1930.462	119.62
1933.664	121.35
1936.865	121.2
1940.066	118.84
1943.267	117.07
1946.467	118.98
1949.668	119.08
1952.868	120.72
1956.067	120.58
1959.267	121.78
1962.466	122.01
1965.665	123.77
1968.863	122.88
1972.061	124.96
1975.259	126.61
1978.457	130.36
1981.654	130.25
1984.852	131.24
1988.048	132.04
1991.245	134.24
1994.441	136.23
1997.637	138.89
2000.833	141.53
2004.028	144.35
2007.223	147
2010.418	151.44
2013.613	156.8
2016.807	161.31
2020.001	164.56
2023.194	168.9
2026.388	174.1
2029.581	183.92
2032.774	189.96
2035.966	195.67
2039.158	200.26
2042.35	202.56
2045.542	206.51
2048.733	213.96
2051.924	215.9
2055.115	221.16
2058.306	223.61
2061.496	227.63
2064.686	228.29
2067.875	225.43
2071.065	226.82
2074.254	227.92
2077.442	236.42
2080.631	237.14
2083.819	236.66
2087.007	242.02
2090.195	245.24
2093.382	246.1
2096.569	247.2
2099.756	248.01
2102.942	255.53
2106.128	260.78
2109.314	262.42
2112.5	261.48
2115.685	261.36
2118.87	261.82
2122.055	264.64
2125.239	267.76
2128.424	272.54
2131.608	272.24
2134.791	274.32
2137.974	273.97
2141.157	276.75
2144.34	279.5
2147.523	286.63
2150.705	293.89
2153.887	290.75
2157.068	292.62
2160.25	294.97
2163.431	295.83
2166.611	297.83
2169.792	303.45
2172.972	307.52
2176.152	307.59
2179.331	313.93
2182.511	311.38
2185.69	315.16
2188.868	330.92
2192.047	338.11
2195.225	344.91
2198.403	346.33
2201.58	344.35
2204.758	357.17
2207.935	360.35
2211.111	367.58
2214.288	370.11
2217.464	374.4
2220.64	375.91
2223.815	373.82
2226.991	369.6
2230.166	371.15
2233.34	384.58
2236.515	398.29
2239.689	387.37
2242.863	395.05
2246.036	391.68
2249.209	402.14
2252.382	399.25
2255.555	417.13
2258.727	419.72
2261.9	430.84
2265.071	438.16
2268.243	434.15
2271.414	445.06
2274.585	458.8
2277.756	457.88
2280.926	474.49
2284.096	476.27
2287.266	481.26
2290.436	469.05
2293.605	482
2296.774	499.7
2299.942	501.94
2303.111	513.98
2306.279	522.86
2309.447	523.3
2312.614	525.44
2315.781	537.99
2318.948	540.3
2322.115	551.85
2325.281	582.68
2328.447	574.06
2331.613	578.23
2334.779	581.19
2337.944	595.05
2341.109	603.97
2344.274	612.59
2347.438	624.8
2350.602	635.2
2353.766	677.84
2356.929	678.53
2360.092	690.19
2363.255	697.47
2366.418	705.3
2369.58	719.29
2372.742	724.46
2375.904	720
2379.066	739.94
2382.227	787.52
2385.388	785.48
2388.548	750.18
2391.709	741.92
2394.869	759.29
2398.029	762.29
2401.188	763.09
2404.347	786
2407.506	807.72
2410.665	785.3
2413.823	783.96
2416.981	785.13
2420.139	749.79
2423.296	804.79
2426.453	859.51
2429.61	818.31
2432.767	868.86
2435.923	899.24
2439.079	873.5
2442.235	892.32
2445.391	906.05
2448.546	899.16
2451.701	947.76
2454.855	1009.86
2458.009	894.16
2461.163	904.99
2464.317	924.23
2467.471	906.78
2470.624	938.1
2473.777	917.99
2476.929	891.75
2480.082	956.69
2483.234	1004.6
2486.385	1014.27
2489.537	1038.9
2492.688	1140.87
2495.839	1126.02
2498.989	1156.98
2502.14	1158.14
2505.29	1104.24
2508.439	1222.05
2511.589	1246.91
2514.738	1212.23
2517.887	1194.92
2521.035	1123.19
2524.183	1111.84
2527.331	1102.06
2530.479	1075.15
2533.627	1092.51
