Data from c_3_hir_wi_4n_Splice17_14.txt Node
Date: Sat Feb 29 14:52:40 EST 2020
User: sa697716
Spectrometer: FLMS03696
Trigger mode: 0
Integration Time (sec): 3.180400E-1
Scans to average: 20
Electric dark correction enabled: true
Nonlinearity correction enabled: true
Boxcar width: 5
XAxis mode: Wavelengths
Number of Pixels in Spectrum: 2048
>>>>>Begin Spectral Data<<<<<
187.83	46.15
188.298	36.25
188.766	46.69
189.233	45.33
189.701	44.93
190.169	38.43
190.636	24.36
191.104	-19.31
191.571	-180.49
192.039	27.67
192.506	405.52
192.974	13572.14
193.441	-767.63
193.908	150.78
194.375	176.65
194.842	168.3
195.31	68.55
195.777	5.11
196.244	33.97
196.711	55.57
197.177	57.59
197.644	57.12
198.111	56.35
198.578	57.58
199.045	58.06
199.511	58.44
199.978	58.74
200.445	58.61
200.911	58.83
201.378	58.77
201.844	58.58
202.31	58.89
202.777	59.03
203.243	59.28
203.709	59.17
204.176	58.5
204.642	58.43
205.108	57.98
205.574	58.29
206.04	58.31
206.506	57.98
206.972	57.73
207.438	57.08
207.903	56.47
208.369	55.26
208.835	54.75
209.301	54.46
209.766	53.81
210.232	53.05
210.697	51.75
211.163	50.28
211.628	49.26
212.094	48.7
212.559	47.66
213.024	46.97
213.49	46.26
213.955	45.35
214.42	44.34
214.885	42.71
215.35	41.17
215.815	39.17
216.28	37.36
216.745	34.92
217.21	32.27
217.675	29.93
218.14	27.51
218.604	25.5
219.069	23.83
219.534	22.38
219.998	21.15
220.463	20.18
220.927	19.37
221.392	18.58
221.856	17.94
222.32	17.43
222.785	16.94
223.249	16.58
223.713	16.22
224.177	15.79
224.642	15.46
225.106	15.16
225.57	14.86
226.034	14.59
226.497	14.3
226.961	14.03
227.425	13.71
227.889	13.46
228.353	13.22
228.816	12.98
229.28	12.74
229.744	12.55
230.207	12.37
230.671	12.17
231.134	11.98
231.597	11.81
232.061	11.65
232.524	11.53
232.987	11.37
233.45	11.23
233.914	11.1
234.377	11.01
234.84	10.89
235.303	10.76
235.766	10.65
236.229	10.55
236.691	10.46
237.154	10.36
237.617	10.26
238.08	10.17
238.542	10.08
239.005	9.99
239.468	9.87
239.93	9.78
240.393	9.69
240.855	9.59
241.317	9.48
241.78	9.39
242.242	9.31
242.704	9.23
243.166	9.14
243.629	9.05
244.091	8.97
244.553	8.9
245.015	8.83
245.477	8.74
245.939	8.67
246.4	8.6
246.862	8.55
247.324	8.49
247.786	8.43
248.247	8.37
248.709	8.31
249.17	8.25
249.632	8.2
250.093	8.14
250.555	8.11
251.016	8.06
251.477	8.01
251.939	7.95
252.4	7.89
252.861	7.84
253.322	7.78
253.783	7.76
254.244	7.72
254.705	7.68
255.166	7.63
255.627	7.59
256.088	7.55
256.549	7.52
257.009	7.49
257.47	7.45
257.931	7.41
258.391	7.37
258.852	7.31
259.312	7.28
259.773	7.24
260.233	7.2
260.694	7.16
261.154	7.11
261.614	7.06
262.074	7.02
262.534	6.96
262.994	6.93
263.455	6.89
263.915	6.85
264.374	6.81
264.834	6.78
265.294	6.74
265.754	6.71
266.214	6.68
266.673	6.66
267.133	6.63
267.593	6.61
268.052	6.57
268.512	6.55
268.971	6.53
269.431	6.51
269.89	6.49
270.349	6.47
270.809	6.45
271.268	6.44
271.727	6.42
272.186	6.4
272.645	6.38
273.104	6.37
273.563	6.36
274.022	6.35
274.481	6.32
274.94	6.3
275.399	6.29
275.857	6.27
276.316	6.25
276.775	6.22
277.233	6.2
277.692	6.19
278.15	6.16
278.609	6.14
279.067	6.13
279.525	6.11
279.984	6.09
280.442	6.07
280.9	6.06
281.358	6.05
281.816	6.04
282.274	6.03
282.732	6.02
283.19	6.02
283.648	6.01
284.106	5.99
284.564	6
285.021	6
285.479	5.99
285.937	5.99
286.394	5.98
286.852	5.98
287.309	5.97
287.767	5.97
288.224	5.96
288.682	5.95
289.139	5.95
289.596	5.93
290.053	5.92
290.511	5.9
290.968	5.88
291.425	5.86
291.882	5.84
292.339	5.82
292.796	5.79
293.252	5.77
293.709	5.75
294.166	5.72
294.623	5.7
295.079	5.69
295.536	5.68
295.992	5.66
296.449	5.65
296.905	5.64
297.362	5.63
297.818	5.62
298.274	5.61
298.731	5.6
299.187	5.6
299.643	5.59
300.099	5.57
300.555	5.55
301.011	5.54
301.467	5.53
301.923	5.52
302.379	5.51
302.835	5.5
303.291	5.49
303.746	5.49
304.202	5.47
304.658	5.45
305.113	5.44
305.569	5.44
306.024	5.44
306.479	5.43
306.935	5.43
307.39	5.43
307.845	5.42
308.301	5.41
308.756	5.4
309.211	5.42
309.666	5.42
310.121	5.43
310.576	5.43
311.031	5.44
311.486	5.45
311.94	5.45
312.395	5.45
312.85	5.46
313.305	5.47
313.759	5.47
314.214	5.47
314.668	5.47
315.123	5.47
315.577	5.46
316.032	5.45
316.486	5.44
316.94	5.44
317.394	5.44
317.849	5.43
318.303	5.42
318.757	5.4
319.211	5.39
319.665	5.37
320.119	5.36
320.572	5.35
321.026	5.34
321.48	5.33
321.934	5.32
322.387	5.32
322.841	5.31
323.295	5.3
323.748	5.3
324.202	5.29
324.655	5.28
325.108	5.27
325.562	5.25
326.015	5.24
326.468	5.22
326.921	5.21
327.374	5.2
327.827	5.18
328.28	5.17
328.733	5.16
329.186	5.16
329.639	5.15
330.092	5.16
330.545	5.16
330.997	5.17
331.45	5.17
331.903	5.16
332.355	5.17
332.808	5.17
333.26	5.18
333.713	5.19
334.165	5.18
334.617	5.2
335.069	5.2
335.522	5.19
335.974	5.2
336.426	5.21
336.878	5.22
337.33	5.22
337.782	5.23
338.234	5.23
338.686	5.23
339.137	5.24
339.589	5.22
340.041	5.24
340.493	5.23
340.944	5.22
341.396	5.22
341.847	5.21
342.299	5.19
342.75	5.17
343.201	5.16
343.653	5.16
344.104	5.14
344.555	5.13
345.006	5.12
345.457	5.11
345.908	5.1
346.359	5.09
346.81	5.1
347.261	5.11
347.712	5.1
348.163	5.1
348.613	5.08
349.064	5.06
349.515	5.06
349.965	5.05
350.416	5.06
350.866	5.05
351.317	5.05
351.767	5.04
352.217	5.02
352.668	5.02
353.118	5.03
353.568	5.04
354.018	5.06
354.468	5.06
354.918	5.07
355.368	5.08
355.818	5.08
356.268	5.09
356.718	5.09
357.168	5.11
357.617	5.12
358.067	5.13
358.517	5.13
358.966	5.14
359.416	5.16
359.865	5.16
360.315	5.18
360.764	5.19
361.213	5.2
361.663	5.22
362.112	5.24
362.561	5.27
363.01	5.29
363.459	5.31
363.908	5.32
364.357	5.34
364.806	5.37
365.255	5.4
365.703	5.41
366.152	5.44
366.601	5.47
367.05	5.49
367.498	5.51
367.947	5.54
368.395	5.57
368.844	5.61
369.292	5.62
369.74	5.65
370.189	5.68
370.637	5.72
371.085	5.74
371.533	5.78
371.981	5.81
372.429	5.83
372.877	5.87
373.325	5.9
373.773	5.93
374.221	5.97
374.669	6.01
375.116	6.03
375.564	6.07
376.012	6.12
376.459	6.15
376.907	6.18
377.354	6.23
377.801	6.27
378.249	6.31
378.696	6.36
379.143	6.41
379.591	6.45
380.038	6.52
380.485	6.56
380.932	6.59
381.379	6.64
381.826	6.7
382.273	6.73
382.72	6.78
383.166	6.83
383.613	6.87
384.06	6.91
384.506	6.94
384.953	6.96
385.4	7.01
385.846	7.04
386.292	7.07
386.739	7.1
387.185	7.13
387.631	7.16
388.078	7.19
388.524	7.2
388.97	7.23
389.416	7.26
389.862	7.27
390.308	7.29
390.754	7.32
391.2	7.35
391.645	7.38
392.091	7.4
392.537	7.42
392.983	7.45
393.428	7.49
393.874	7.52
394.319	7.54
394.765	7.56
395.21	7.56
395.655	7.58
396.101	7.59
396.546	7.6
396.991	7.62
397.436	7.61
397.881	7.62
398.326	7.63
398.771	7.65
399.216	7.67
399.661	7.69
400.106	7.73
400.551	7.73
400.995	7.72
401.44	7.71
401.885	7.7
402.329	7.7
402.774	7.67
403.218	7.65
403.663	7.62
404.107	7.62
404.551	7.61
404.995	7.59
405.44	7.57
405.884	7.56
406.328	7.55
406.772	7.54
407.216	7.55
407.66	7.55
408.104	7.54
408.547	7.54
408.991	7.53
409.435	7.51
409.879	7.49
410.322	7.49
410.766	7.49
411.209	7.5
411.653	7.48
412.096	7.47
412.54	7.46
412.983	7.46
413.426	7.47
413.869	7.47
414.312	7.49
414.756	7.52
415.199	7.53
415.642	7.56
416.085	7.58
416.527	7.62
416.97	7.63
417.413	7.64
417.856	7.61
418.298	7.59
418.741	7.58
419.184	7.57
419.626	7.56
420.069	7.54
420.511	7.51
420.953	7.49
421.396	7.45
421.838	7.43
422.28	7.45
422.722	7.48
423.164	7.49
423.606	7.5
424.048	7.49
424.49	7.48
424.932	7.48
425.374	7.48
425.816	7.47
426.258	7.45
426.699	7.41
427.141	7.35
427.582	7.32
428.024	7.31
428.465	7.3
428.907	7.3
429.348	7.28
429.789	7.27
430.231	7.25
430.672	7.25
431.113	7.27
431.554	7.29
431.995	7.32
432.436	7.32
432.877	7.3
433.318	7.29
433.759	7.29
434.2	7.29
434.64	7.32
435.081	7.31
435.522	7.34
435.962	7.35
436.403	7.39
436.843	7.41
437.284	7.44
437.724	7.47
438.164	7.49
438.604	7.5
439.045	7.51
439.485	7.5
439.925	7.51
440.365	7.5
440.805	7.48
441.245	7.45
441.685	7.45
442.125	7.44
442.564	7.47
443.004	7.47
443.444	7.49
443.883	7.5
444.323	7.51
444.762	7.55
445.202	7.6
445.641	7.62
446.081	7.66
446.52	7.67
446.959	7.71
447.398	7.74
447.837	7.77
448.276	7.79
448.716	7.81
449.154	7.85
449.593	7.86
450.032	7.87
450.471	7.9
450.91	7.9
451.349	7.92
451.787	7.9
452.226	7.88
452.664	7.86
453.103	7.85
453.541	7.84
453.98	7.83
454.418	7.8
454.856	7.77
455.295	7.75
455.733	7.73
456.171	7.71
456.609	7.71
457.047	7.7
457.485	7.69
457.923	7.67
458.361	7.64
458.798	7.65
459.236	7.64
459.674	7.63
460.111	7.62
460.549	7.63
460.987	7.61
461.424	7.59
461.862	7.6
462.299	7.59
462.736	7.58
463.173	7.59
463.611	7.57
464.048	7.59
464.485	7.58
464.922	7.55
465.359	7.55
465.796	7.54
466.233	7.56
466.67	7.55
467.106	7.56
467.543	7.57
467.98	7.57
468.416	7.57
468.853	7.56
469.29	7.57
469.726	7.59
470.162	7.59
470.599	7.6
471.035	7.61
471.471	7.61
471.907	7.61
472.344	7.61
472.78	7.62
473.216	7.64
473.652	7.64
474.088	7.65
474.523	7.67
474.959	7.65
475.395	7.66
475.831	7.65
476.266	7.66
476.702	7.67
477.138	7.66
477.573	7.64
478.008	7.62
478.444	7.6
478.879	7.59
479.314	7.57
479.75	7.56
480.185	7.55
480.62	7.55
481.055	7.53
481.49	7.51
481.925	7.5
482.36	7.49
482.795	7.49
483.229	7.48
483.664	7.48
484.099	7.48
484.534	7.48
484.968	7.48
485.403	7.48
485.837	7.48
486.271	7.49
486.706	7.49
487.14	7.5
487.574	7.51
488.009	7.53
488.443	7.54
488.877	7.56
489.311	7.58
489.745	7.6
490.179	7.62
490.613	7.63
491.046	7.67
491.48	7.71
491.914	7.74
492.348	7.8
492.781	7.84
493.215	7.89
493.648	7.95
494.082	8.01
494.515	8.06
494.948	8.11
495.382	8.19
495.815	8.27
496.248	8.34
496.681	8.41
497.114	8.47
497.547	8.56
497.98	8.65
498.413	8.73
498.846	8.81
499.279	8.91
499.711	9.02
500.144	9.12
500.577	9.22
501.009	9.32
501.442	9.46
501.874	9.6
502.306	9.74
502.739	9.85
503.171	10.01
503.603	10.18
504.036	10.34
504.468	10.52
504.9	10.7
505.332	10.9
505.764	11.1
506.196	11.3
506.627	11.5
507.059	11.7
507.491	11.92
507.923	12.15
508.354	12.37
508.786	12.61
509.217	12.84
509.649	13.1
510.08	13.35
510.512	13.61
510.943	13.87
511.374	14.14
511.805	14.4
512.237	14.69
512.668	14.96
513.099	15.26
513.53	15.55
513.961	15.85
514.391	16.13
514.822	16.41
515.253	16.68
515.684	16.98
516.114	17.29
516.545	17.59
516.975	17.89
517.406	18.19
517.836	18.47
518.267	18.78
518.697	19.09
519.127	19.38
519.558	19.67
519.988	19.99
520.418	20.27
520.848	20.55
521.278	20.84
521.708	20.96
522.138	21.22
522.567	21.5
522.997	21.74
523.427	21.99
523.857	22.23
524.286	22.48
524.716	22.7
525.145	22.96
525.575	23.17
526.004	23.39
526.433	23.75
526.863	23.98
527.292	24.15
527.721	24.34
528.15	24.5
528.579	24.7
529.008	24.87
529.437	25.05
529.866	25.18
530.295	25.34
530.724	25.49
531.152	25.63
531.581	25.74
532.01	25.86
532.438	25.97
532.867	26.1
533.295	26.18
533.723	26.26
534.152	26.33
534.58	26.4
535.008	26.46
535.436	26.5
535.865	26.54
536.293	26.61
536.721	26.68
537.149	26.71
537.576	26.74
538.004	26.79
538.432	26.83
538.86	26.88
539.287	26.91
539.715	26.94
540.143	26.97
540.57	26.99
540.998	27.01
541.425	27.04
541.852	27.06
542.28	27.08
542.707	27.1
543.134	27.12
543.561	27.13
543.988	27.16
544.415	27.2
544.842	27.25
545.269	27.29
545.696	27.32
546.123	27.35
546.549	27.39
546.976	27.42
547.403	27.43
547.829	27.47
548.256	27.5
548.682	27.55
549.108	27.56
549.535	27.58
549.961	27.57
550.387	27.58
550.813	27.58
551.24	27.57
551.666	27.58
552.092	27.59
552.518	27.57
552.943	27.59
553.369	27.56
553.795	27.55
554.221	27.53
554.646	27.51
555.072	27.48
555.498	27.45
555.923	27.42
556.349	27.36
556.774	27.33
557.199	27.29
557.625	27.2
558.05	27.14
558.475	27.04
558.9	26.97
559.325	26.87
559.75	26.76
560.175	26.67
560.6	26.59
561.025	26.5
561.449	26.37
561.874	26.26
562.299	26.14
562.723	26
563.148	25.91
563.572	25.78
563.997	25.65
564.421	25.53
564.846	25.39
565.27	25.23
565.694	25.06
566.118	24.91
566.542	24.75
566.966	24.59
567.39	24.43
567.814	24.25
568.238	24.05
568.662	23.88
569.086	23.71
569.509	23.55
569.933	23.36
570.357	23.18
570.78	23.01
571.204	22.83
571.627	22.66
572.05	22.51
572.474	22.37
572.897	22.23
573.32	22.07
573.743	21.93
574.166	21.78
574.589	21.66
575.012	21.55
575.435	21.41
575.858	21.28
576.281	21.17
576.704	21.07
577.126	20.95
577.549	20.85
577.972	20.76
578.394	20.66
578.817	20.56
579.239	20.48
579.661	20.41
580.084	20.33
580.506	20.24
580.928	20.15
581.35	20.06
581.772	19.97
582.194	19.9
582.616	19.83
583.038	19.75
583.46	19.67
583.882	19.6
584.303	19.5
584.725	19.43
585.147	19.37
585.568	19.3
585.99	19.23
586.411	19.17
586.833	19.11
587.254	19.05
587.675	18.98
588.096	18.94
588.518	18.89
588.939	18.84
589.36	18.78
589.781	18.74
590.202	18.7
590.623	18.65
591.043	18.6
591.464	18.54
591.885	18.51
592.305	18.48
592.726	18.44
593.147	18.42
593.567	18.39
593.987	18.38
594.408	18.35
594.828	18.33
595.248	18.3
595.669	18.29
596.089	18.26
596.509	18.22
596.929	18.19
597.349	18.13
597.769	18.07
598.189	18.03
598.608	17.97
599.028	17.91
599.448	17.86
599.867	17.79
600.287	17.72
600.706	17.68
601.126	17.62
601.545	17.58
601.965	17.53
602.384	17.49
602.803	17.43
603.222	17.37
603.641	17.32
604.061	17.26
604.48	17.21
604.898	17.14
605.317	17.06
605.736	16.98
606.155	16.89
606.574	16.82
606.992	16.73
607.411	16.65
607.829	16.53
608.248	16.44
608.666	16.36
609.085	16.28
609.503	16.19
609.921	16.11
610.339	16.03
610.758	15.95
611.176	15.85
611.594	15.77
612.012	15.68
612.43	15.65
612.847	15.56
613.265	15.48
613.683	15.39
614.101	15.32
614.518	15.24
614.936	15.17
615.353	15.1
615.771	15.03
616.188	14.97
616.606	14.91
617.023	14.84
617.44	14.78
617.857	14.72
618.274	14.67
618.691	14.62
619.108	14.58
619.525	14.53
619.942	14.47
620.359	14.44
620.776	14.4
621.192	14.36
621.609	14.33
622.026	14.29
622.442	14.28
622.859	14.24
623.275	14.22
623.691	14.21
624.108	14.2
624.524	14.19
624.94	14.17
625.356	14.15
625.772	14.14
626.188	14.13
626.604	14.1
627.02	14.07
627.436	14.05
627.852	14.03
628.268	14
628.683	13.97
629.099	13.95
629.514	13.92
629.93	13.88
630.345	13.83
630.761	13.79
631.176	13.77
631.591	13.73
632.007	13.68
632.422	13.65
632.837	13.59
633.252	13.55
633.667	13.47
634.082	13.41
634.497	13.32
634.911	13.24
635.326	13.16
635.741	13.05
636.155	12.97
636.57	12.87
636.984	12.74
637.399	12.62
637.813	12.49
638.228	12.37
638.642	12.26
639.056	12.14
639.47	12.03
639.884	11.9
640.298	11.79
640.712	11.66
641.126	11.53
641.54	11.4
641.954	11.29
642.368	11.17
642.781	11.05
643.195	10.93
643.609	10.82
644.022	10.71
644.436	10.61
644.849	10.5
645.262	10.41
645.676	10.31
646.089	10.22
646.502	10.13
646.915	10.05
647.328	9.98
647.741	9.91
648.154	9.86
648.567	9.8
648.98	9.75
649.393	9.7
649.805	9.64
650.218	9.62
650.631	9.57
651.043	9.53
651.456	9.51
651.868	9.46
652.28	9.43
652.693	9.38
653.105	9.33
653.517	9.27
653.929	9.23
654.341	9.18
654.753	9.11
655.165	9.06
655.577	9
655.989	8.93
656.401	8.85
656.813	8.76
657.224	8.68
657.636	8.63
658.047	8.57
658.459	8.47
658.87	8.4
659.282	8.34
659.693	8.26
660.104	8.18
660.515	8.09
660.926	8.03
661.338	7.97
661.749	7.9
662.159	7.82
662.57	7.74
662.981	7.68
663.392	7.6
663.803	7.53
664.213	7.46
664.624	7.42
665.035	7.36
665.445	7.32
665.855	7.27
666.266	7.22
666.676	7.17
667.086	7.12
667.497	7.08
667.907	7.05
668.317	7.02
668.727	7
669.137	6.98
669.547	6.96
669.956	6.94
670.366	6.94
670.776	6.93
671.186	6.94
671.595	6.95
672.005	6.97
672.414	6.98
672.824	7
673.233	7.02
673.642	7.04
674.052	7.06
674.461	7.07
674.87	7.1
675.279	7.12
675.688	7.14
676.097	7.17
676.506	7.2
676.915	7.24
677.323	7.28
677.732	7.31
678.141	7.35
678.549	7.4
678.958	7.47
679.366	7.52
679.775	7.58
680.183	7.66
680.592	7.73
681	7.82
681.408	7.91
681.816	8.02
682.224	8.14
682.632	8.27
683.04	8.41
683.448	8.56
683.856	8.75
684.264	8.94
684.671	9.16
685.079	9.41
685.487	9.68
685.894	9.96
686.302	10.26
686.709	10.58
687.116	10.93
687.524	11.31
687.931	11.71
688.338	12.16
688.745	12.61
689.152	13.07
689.559	13.57
689.966	14.06
690.373	14.62
690.78	15.16
691.187	15.72
691.593	16.32
692	16.94
692.407	17.54
692.813	18.16
693.22	18.76
693.626	19.4
694.032	20.03
694.439	20.69
694.845	21.32
695.251	21.97
695.657	22.6
696.063	23.21
696.469	23.82
696.875	24.44
697.281	25.03
697.687	25.67
698.093	26.26
698.498	26.84
698.904	27.42
699.31	27.96
699.715	28.52
700.12	29.08
700.526	29.63
700.931	30.18
701.337	30.72
701.742	31.22
702.147	31.72
702.552	32.24
702.957	32.73
703.362	33.21
703.767	33.69
704.172	34.16
704.577	34.62
704.981	35.07
705.386	35.49
705.791	35.93
706.195	36.36
706.6	36.77
707.004	37.15
707.408	37.56
707.813	37.96
708.217	38.36
708.621	38.74
709.025	39.11
709.43	39.46
709.834	39.86
710.237	40.19
710.641	40.55
711.045	40.9
711.449	41.24
711.853	41.58
712.256	41.9
712.66	42.22
713.064	42.53
713.467	42.85
713.87	43.17
714.274	43.48
714.677	43.8
715.08	44.08
715.484	44.38
715.887	44.67
716.29	44.94
716.693	45.21
717.096	45.49
717.499	45.76
717.901	46
718.304	46.25
718.707	46.48
719.109	46.73
719.512	46.99
719.915	47.23
720.317	47.46
720.719	47.67
721.122	47.89
721.524	48.1
721.926	48.31
722.328	48.54
722.731	48.72
723.133	48.91
723.535	49.11
723.937	49.3
724.338	49.45
724.74	49.64
725.142	49.74
725.544	49.84
725.945	49.97
726.347	50.15
726.748	50.21
727.15	50.34
727.551	50.49
727.952	50.59
728.354	50.72
728.755	50.83
729.156	50.93
729.557	51.14
729.958	51.31
730.359	51.45
730.76	51.51
731.161	51.64
731.562	51.77
731.962	51.84
732.363	51.93
732.763	52
733.164	52.08
733.564	52.16
733.965	52.19
734.365	52.25
734.766	52.31
735.166	52.34
735.566	52.38
735.966	52.41
736.366	52.45
736.766	52.49
737.166	52.57
737.566	52.61
737.966	52.69
738.365	52.74
738.765	52.76
739.165	52.78
739.564	52.85
739.964	52.89
740.363	52.92
740.763	52.97
741.162	52.99
741.561	53.02
741.96	53.08
742.36	53.08
742.759	53.11
743.158	53.12
743.557	53.15
743.955	53.19
744.354	53.24
744.753	53.28
745.152	53.33
745.55	53.39
745.949	53.42
746.348	53.45
746.746	53.46
747.144	53.52
747.543	53.6
747.941	53.66
748.339	53.75
748.737	53.81
749.136	53.87
749.534	53.92
749.932	53.93
750.33	53.94
750.727	53.94
751.125	54
751.523	53.98
751.921	53.96
752.318	53.98
752.716	53.92
753.113	53.86
753.511	53.81
753.908	53.73
754.305	53.72
754.703	53.67
755.1	53.65
755.497	53.61
755.894	53.61
756.291	53.59
756.688	53.56
757.085	53.57
757.482	53.59
757.878	53.62
758.275	53.67
758.672	53.68
759.068	53.7
759.465	53.69
759.861	53.69
760.258	53.66
760.654	53.67
761.05	53.65
761.447	53.62
761.843	53.59
762.239	53.58
762.635	53.54
763.031	53.52
763.427	53.48
763.822	53.49
764.218	53.44
764.614	53.45
765.01	53.41
765.405	53.37
765.801	53.38
766.196	53.37
766.592	53.34
766.987	53.32
767.382	53.31
767.778	53.31
768.173	53.31
768.568	53.3
768.963	53.27
769.358	53.28
769.753	53.36
770.148	53.33
770.542	53.31
770.937	53.3
771.332	53.32
771.726	53.33
772.121	53.32
772.515	53.34
772.91	53.36
773.304	53.38
773.699	53.39
774.093	53.35
774.487	53.4
774.881	53.42
775.275	53.42
775.669	53.43
776.063	53.41
776.457	53.41
776.851	53.38
777.245	53.38
777.638	53.37
778.032	53.35
778.425	53.36
778.819	53.3
779.212	53.26
779.606	53.25
779.999	53.24
780.392	53.26
780.786	53.29
781.179	53.34
781.572	53.33
781.965	53.36
782.358	53.34
782.751	53.31
783.143	53.35
783.536	53.44
783.929	53.48
784.322	53.5
784.714	53.51
785.107	53.5
785.499	53.49
785.891	53.52
786.284	53.51
786.676	53.53
787.068	53.57
787.46	53.55
787.852	53.54
788.245	53.53
788.636	53.52
789.028	53.49
789.42	53.46
789.812	53.45
790.204	53.43
790.595	53.46
790.987	53.46
791.378	53.47
791.77	53.51
792.161	53.5
792.553	53.5
792.944	53.52
793.335	53.56
793.726	53.56
794.117	53.56
794.508	53.57
794.899	53.58
795.29	53.59
795.681	53.6
796.072	53.59
796.463	53.57
796.853	53.58
797.244	53.57
797.634	53.58
798.025	53.61
798.415	53.63
798.806	53.62
799.196	53.62
799.586	53.66
799.976	53.67
800.366	53.66
800.756	53.69
801.146	53.7
801.536	53.7
801.926	53.7
802.316	53.74
802.706	53.77
803.095	53.79
803.485	53.78
803.874	53.77
804.264	53.81
804.653	53.81
805.043	53.84
805.432	53.81
805.821	53.84
806.21	53.86
806.599	53.91
806.988	53.92
807.377	53.95
807.766	53.99
808.155	54
808.544	53.97
808.933	54.01
809.321	54.01
809.71	54.07
810.098	54.1
810.487	54.12
810.875	54.09
811.264	54.07
811.652	54.08
812.04	54.09
812.428	54.09
812.816	54.14
813.204	54.13
813.592	54.14
813.98	54.13
814.368	54.09
814.756	54.07
815.144	54.11
815.531	54.15
815.919	54.14
816.306	54.14
816.694	54.14
817.081	54.13
817.469	54.16
817.856	54.19
818.243	54.19
818.63	54.25
819.017	54.29
819.404	54.27
819.791	54.28
820.178	54.32
820.565	54.32
820.952	54.34
821.339	54.38
821.725	54.38
822.112	54.37
822.498	54.39
822.885	54.37
823.271	54.37
823.657	54.38
824.044	54.34
824.43	54.33
824.816	54.33
825.202	54.32
825.588	54.31
825.974	54.33
826.36	54.32
826.746	54.33
827.132	54.29
827.517	54.26
827.903	54.25
828.289	54.3
828.674	54.26
829.06	54.25
829.445	54.26
829.83	54.26
830.216	54.24
830.601	54.25
830.986	54.24
831.371	54.27
831.756	54.25
832.141	54.27
832.526	54.23
832.911	54.25
833.295	54.26
833.68	54.25
834.065	54.22
834.449	54.21
834.834	54.17
835.218	54.15
835.603	54.16
835.987	54.15
836.371	54.13
836.755	54.1
837.139	54.07
837.524	54.04
837.908	54.01
838.291	53.98
838.675	53.96
839.059	53.95
839.443	53.92
839.827	53.9
840.21	53.93
840.594	53.92
840.977	53.9
841.361	53.9
841.744	53.92
842.127	53.89
842.511	53.88
842.894	53.88
843.277	53.87
843.66	53.86
844.043	53.85
844.426	53.82
844.809	53.8
845.191	53.81
845.574	53.8
845.957	53.74
846.339	53.74
846.722	53.74
847.104	53.72
847.487	53.73
847.869	53.73
848.252	53.73
848.634	53.76
849.016	53.77
849.398	53.75
849.78	53.73
850.162	53.75
850.544	53.76
850.926	53.74
851.307	53.77
851.689	53.77
852.071	53.77
852.452	53.77
852.834	53.74
853.215	53.72
853.597	53.73
853.978	53.74
854.359	53.76
854.741	53.77
855.122	53.79
855.503	53.79
855.884	53.77
856.265	53.76
856.646	53.73
857.026	53.76
857.407	53.75
857.788	53.79
858.169	53.79
858.549	53.81
858.93	53.79
859.31	53.76
859.69	53.77
860.071	53.79
860.451	53.81
860.831	53.81
861.211	53.79
861.591	53.82
861.971	53.77
862.351	53.78
862.731	53.78
863.111	53.78
863.491	53.83
863.87	53.8
864.25	53.8
864.629	53.77
865.009	53.77
865.388	53.78
865.768	53.77
866.147	53.8
866.526	53.8
866.905	53.79
867.284	53.8
867.663	53.79
868.042	53.78
868.421	53.78
868.8	53.82
869.179	53.83
869.558	53.8
869.936	53.81
870.315	53.8
870.693	53.79
871.072	53.78
871.45	53.76
871.828	53.76
872.207	53.79
872.585	53.8
872.963	53.76
873.341	53.77
873.719	53.78
874.097	53.79
874.475	53.81
874.853	53.8
875.23	53.81
875.608	53.79
875.986	53.79
876.363	53.77
876.741	53.77
877.118	53.79
877.495	53.79
877.873	53.77
878.25	53.74
878.627	53.72
879.004	53.74
879.381	53.75
879.758	53.75
880.135	53.74
880.512	53.75
880.889	53.76
881.265	53.75
881.642	53.75
882.019	53.77
882.395	53.78
882.772	53.8
883.148	53.81
883.524	53.83
883.901	53.83
884.277	53.83
884.653	53.82
885.029	53.8
885.405	53.79
885.781	53.77
886.157	53.76
886.532	53.76
886.908	53.72
887.284	53.71
887.659	53.67
888.035	53.65
888.411	53.61
888.786	53.59
889.161	53.57
889.537	53.58
889.912	53.54
890.287	53.53
890.662	53.48
891.037	53.44
891.412	53.39
891.787	53.39
892.162	53.37
892.536	53.36
892.911	53.34
893.286	53.32
893.66	53.27
894.035	53.25
894.409	53.22
894.784	53.23
895.158	53.22
895.532	53.2
895.906	53.15
896.281	53.13
896.655	53.1
897.029	53.08
897.402	53.08
897.776	53.08
898.15	53.06
898.524	53.05
898.898	53.02
899.271	53.03
899.645	53.03
900.018	53.01
900.392	53.05
900.765	53.09
901.138	53.06
901.511	53.06
901.884	53.07
902.258	53.07
902.631	53.07
903.003	53.06
903.376	53.05
903.749	53.07
904.122	53.11
904.495	53.1
904.867	53.08
905.24	53.11
905.612	53.12
905.985	53.1
906.357	53.1
906.729	53.14
907.102	53.16
907.474	53.18
907.846	53.15
908.218	53.1
908.59	53.09
908.962	53.07
909.334	53.06
909.705	53.03
910.077	53.01
910.449	53.02
910.82	52.97
911.192	52.99
911.563	52.96
911.935	52.98
912.306	52.98
912.677	52.97
913.048	52.98
913.419	52.96
913.79	52.95
914.161	52.97
914.532	52.95
914.903	52.96
915.274	52.92
915.645	52.93
916.015	52.93
916.386	52.92
916.756	52.93
917.127	52.92
917.497	52.96
917.868	52.94
918.238	52.95
918.608	52.95
918.978	52.94
919.348	52.94
919.718	52.93
920.088	52.97
920.458	53.03
920.828	53.04
921.198	53.05
921.567	53.03
921.937	53.06
922.306	53.05
922.676	53.08
923.045	53.09
923.415	53.11
923.784	53.12
924.153	53.07
924.522	53.02
924.891	53.02
925.26	53.01
925.629	53.04
925.998	53.04
926.367	53.02
926.736	53
927.104	52.98
927.473	53
927.842	52.99
928.21	53
928.578	53.01
928.947	52.97
929.315	52.96
929.683	52.93
930.051	52.88
930.42	52.84
930.788	52.84
931.156	52.78
931.523	52.73
931.891	52.66
932.259	52.62
932.627	52.54
932.994	52.53
933.362	52.43
933.729	52.32
934.097	52.26
934.464	52.19
934.831	52.1
935.199	52.09
935.566	51.99
935.933	52.07
936.3	51.96
936.667	51.94
937.034	51.84
937.401	51.86
937.767	51.88
938.134	51.93
938.501	51.95
938.867	51.96
939.234	52.01
939.6	52.16
939.967	52.05
940.333	52.22
940.699	52.35
941.065	52.54
941.431	52.66
941.798	52.8
942.163	52.89
942.529	52.99
942.895	53.07
943.261	53.22
943.627	53.25
943.992	53.36
944.358	53.34
944.723	53.32
945.089	53.31
945.454	53.36
945.82	53.35
946.185	53.36
946.55	53.51
946.915	53.6
947.28	53.5
947.645	53.48
948.01	53.49
948.375	53.5
948.74	53.54
949.104	53.5
949.469	53.34
949.834	53.38
950.198	53.34
950.562	53.17
950.927	53.05
951.291	53.03
951.655	53.01
952.02	52.92
952.384	52.92
952.748	52.94
953.112	52.92
953.476	52.92
953.839	52.82
954.203	52.75
954.567	52.75
954.931	52.78
955.294	52.82
955.658	52.74
956.021	52.71
956.385	52.63
956.748	52.55
957.111	52.54
957.474	52.51
957.837	52.52
958.2	52.46
958.563	52.45
958.926	52.36
959.289	52.23
959.652	52.2
960.015	52.19
960.377	52.18
960.74	52.1
961.102	52.07
961.465	52.1
961.827	51.91
962.189	51.92
962.552	51.82
962.914	51.74
963.276	51.79
963.638	51.73
964	51.71
964.362	51.7
964.724	51.72
965.085	51.7
965.447	51.66
965.809	51.7
966.17	51.7
966.532	51.77
966.893	51.85
967.255	51.81
967.616	51.88
967.977	51.84
968.338	51.84
968.699	51.8
969.061	51.71
969.421	51.66
969.782	51.71
970.143	51.72
970.504	51.62
970.865	51.5
971.225	51.42
971.586	51.41
971.946	51.43
972.307	51.4
972.667	51.39
973.027	51.42
973.388	51.47
973.748	51.48
974.108	51.46
974.468	51.52
974.828	51.55
975.188	51.64
975.548	51.59
975.907	51.52
976.267	51.52
976.627	51.54
976.986	51.51
977.346	51.47
977.705	51.5
978.064	51.46
978.424	51.42
978.783	51.41
979.142	51.46
979.501	51.46
979.86	51.64
980.219	51.52
980.578	51.5
980.937	51.62
981.296	51.61
981.654	51.63
982.013	51.78
982.371	51.73
982.73	51.75
983.088	51.7
983.447	51.77
983.805	51.66
984.163	51.79
984.521	51.72
984.879	51.66
985.237	51.7
985.595	51.73
985.953	51.64
986.311	51.82
986.669	51.83
987.026	51.87
987.384	51.82
987.741	51.91
988.099	51.91
988.456	51.93
988.814	51.95
989.171	51.93
989.528	51.87
989.885	51.86
990.242	51.85
990.599	51.9
990.956	51.96
991.313	52.05
991.67	51.99
992.027	51.96
992.383	52.18
992.74	52.19
993.096	52.22
993.453	52.24
993.809	52.36
994.165	52.36
994.522	52.38
994.878	52.33
995.234	52.25
995.59	52.26
995.946	52.38
996.302	52.22
996.658	52.31
997.013	52.37
997.369	52.42
997.725	52.41
998.08	52.35
998.436	52.4
998.791	52.37
999.147	52.4
999.502	52.52
999.857	52.52
1000.212	52.58
1000.567	52.5
1000.922	52.36
1001.277	52.24
1001.632	52.26
1001.987	52.41
1002.342	52.5
1002.696	52.73
1003.051	52.66
1003.406	52.57
1003.76	52.4
1004.114	52.52
1004.469	52.6
1004.823	52.77
1005.177	53.05
1005.531	52.95
1005.885	53.04
1006.239	52.98
1006.593	52.67
1006.947	52.7
1007.301	52.68
1007.655	52.92
1008.008	52.87
1008.362	52.91
1008.715	53.06
1009.069	52.83
1009.422	52.85
1009.776	52.64
1010.129	52.61
1010.482	52.78
1010.835	52.96
1011.188	53.17
1011.541	52.95
1011.894	52.91
1012.247	52.88
1012.6	52.88
1012.952	53.06
1013.305	53.01
1013.657	53.3
1014.01	53.42
1014.362	53.62
1014.715	53.61
1015.067	53.82
1015.419	54.3
1015.771	54.65
1016.123	54.67
1016.475	54.61
1016.827	54.95
1017.179	55.17
1017.531	54.95
1017.883	55.05
1018.234	54.96
1018.586	54.94
1018.938	54.62
1019.289	54.21
1019.64	54.45
1019.992	54.61
1020.343	54.78
1020.694	54.31
1021.045	54.28
1021.396	54.42
1021.747	54.35
1022.098	54.53
1022.449	54.52
1022.8	54.6
1023.151	54.8
1023.501	54.57
1023.852	54.52
1024.202	54.32
1024.553	54.48
1024.903	54.72
1025.253	54.92
1025.604	55.18
1025.954	54.95
1026.304	55.69
1026.654	55.8
1027.004	56.07
1027.354	55.87
1027.703	55.9
1028.053	55.87
1028.403	55.54
1028.753	55.56
1029.102	55.24
1029.452	54.91
1029.801	54.78
1030.15	54.15
1030.499	53.96
897.758	509
901.051	521
904.343	518.59
907.636	508.63
910.928	504.14
914.22	509.42
917.511	499.16
920.803	477.09
924.094	459.49
927.384	463.19
930.675	448.83
933.965	444.01
937.255	441.49
940.544	425.8
943.834	410.61
947.123	403.01
950.411	380.62
953.7	374.18
956.988	364.94
960.276	350.92
963.563	345.83
966.851	327.08
970.138	320.01
973.424	299.22
976.711	295.39
979.997	283.8
983.283	275.54
986.568	269.3
989.853	263.24
993.138	252.92
996.423	247.01
999.708	241.59
1002.992	242.16
1006.275	235.59
1009.559	234.81
1012.842	227.7
1016.125	221.09
1019.408	218.1
1022.69	216.94
1025.972	213.89
1029.254	209.24
1032.536	205.81
1035.817	197.96
1039.098	195.06
1042.379	192.87
1045.659	188.76
1048.939	187.31
1052.219	184.96
1055.498	181.49
1058.778	177.36
1062.057	175.08
1065.335	174.78
1068.614	170.88
1071.892	169.88
1075.17	166.82
1078.447	163.8
1081.724	162.38
1085.001	159.08
1088.278	158.66
1091.554	158.53
1094.83	157.43
1098.106	154.46
1101.382	153.6
1104.657	154.11
1107.932	153.43
1111.206	151.42
1114.481	150.09
1117.755	149.31
1121.029	149.05
1124.302	146.63
1127.575	144.24
1130.848	143.75
1134.121	141.92
1137.393	140.92
1140.665	139.87
1143.937	138.14
1147.208	137.39
1150.48	135.58
1153.75	134.92
1157.021	133.71
1160.291	132.87
1163.561	131.66
1166.831	131.3
1170.101	130.84
1173.37	130.11
1176.639	128.67
1179.907	128.72
1183.176	127.76
1186.444	128.7
1189.711	127.33
1192.979	128.01
1196.246	128.46
1199.513	128.9
1202.78	128.38
1206.046	127.8
1209.312	129.19
1212.578	129.99
1215.843	131.54
1219.108	133.26
1222.373	134.75
1225.638	137.27
1228.902	140.02
1232.166	144.63
1235.43	146.14
1238.693	149.73
1241.956	154.28
1245.219	157.13
1248.482	158.34
1251.744	157.56
1255.006	158.06
1258.268	153.78
1261.529	152.43
1264.79	149.13
1268.051	145.35
1271.312	144.55
1274.572	141.71
1277.832	138.15
1281.092	136.09
1284.351	133.41
1287.61	133.35
1290.869	132.23
1294.128	132.23
1297.386	131.86
1300.644	130.5
1303.902	129.76
1307.159	128.75
1310.416	129.92
1313.673	131.41
1316.93	132.6
1320.186	135.2
1323.442	136.28
1326.697	138.75
1329.953	139.27
1333.208	144.18
1336.463	149.62
1339.717	152.98
1342.972	160.11
1346.226	163.08
1349.479	164.34
1352.733	170.75
1355.986	173.93
1359.238	177.49
1362.491	178.78
1365.743	185.52
1368.995	186.82
1372.247	188.33
1375.498	186.79
1378.749	191.49
1382	193.57
1385.251	191.81
1388.501	191.02
1391.751	191.82
1395	191.32
1398.25	193.93
1401.499	192.5
1404.748	189.78
1407.996	184.44
1411.244	184.73
1414.492	182.36
1417.74	176.09
1420.987	173.16
1424.234	169.65
1427.481	163.05
1430.728	158.33
1433.974	151.32
1437.22	146.92
1440.465	142.43
1443.711	138.22
1446.956	133.34
1450.201	128.13
1453.445	122.59
1456.689	118.66
1459.933	115.38
1463.177	110.34
1466.42	107.82
1469.663	105.18
1472.906	101.85
1476.148	98.79
1479.391	97.17
1482.633	95.66
1485.874	93.54
1489.115	92.76
1492.356	91.07
1495.597	89.47
1498.838	89.56
1502.078	88.69
1505.318	88.21
1508.557	87.87
1511.797	86.83
1515.036	86.19
1518.274	85.86
1521.513	84.72
1524.751	83.92
1527.989	85.05
1531.227	84.75
1534.464	84.56
1537.701	84.16
1540.938	83.51
1544.174	82.92
1547.41	83.9
1550.646	83.34
1553.882	83.53
1557.117	83.94
1560.352	84.26
1563.587	83.13
1566.821	83.03
1570.055	82.74
1573.289	82.9
1576.523	83.22
1579.756	83.56
1582.989	83.45
1586.222	83.41
1589.454	83.56
1592.686	83.22
1595.918	83.01
1599.15	83.16
1602.381	83.52
1605.612	83.53
1608.843	83.61
1612.073	83.66
1615.303	83.85
1618.533	83.25
1621.762	83.81
1624.992	83.66
1628.221	83.78
1631.449	84.21
1634.678	84.68
1637.906	84.68
1641.134	84.58
1644.361	84.46
1647.588	85.35
1650.815	85.51
1654.042	85.62
1657.269	85.1
1660.495	85.67
1663.72	85.59
1666.946	85.61
1670.171	85.67
1673.396	86.12
1676.621	86.54
1679.845	86.85
1683.069	86.15
1686.293	86.2
1689.517	86.42
1692.74	86.7
1695.963	86.48
1699.185	87.15
1702.408	86.75
1705.63	87.13
1708.852	87.29
1712.073	87.34
1715.294	87.14
1718.515	87.54
1721.736	87.75
1724.956	87.57
1728.176	87.84
1731.396	88.26
1734.616	88.34
1737.835	88.77
1741.054	88.15
1744.272	87.83
1747.491	87.92
1750.709	88.85
1753.927	88.77
1757.144	88.96
1760.361	89.1
1763.578	89.61
1766.795	89.88
1770.011	89.88
1773.227	90.11
1776.443	91.12
1779.658	90.96
1782.874	91.72
1786.089	90.5
1789.303	90.78
1792.518	91.24
1795.732	92.28
1798.945	92.78
1802.159	92.95
1805.372	93.78
1808.585	94.58
1811.797	94.62
1815.01	96.23
1818.222	96.14
1821.434	97.89
1824.645	98.48
1827.856	100.09
1831.067	100.13
1834.278	100.75
1837.488	101.67
1840.698	102.48
1843.908	102.66
1847.117	104.72
1850.326	104.75
1853.535	105.38
1856.744	106.13
1859.952	107.66
1863.16	107.07
1866.368	106.86
1869.575	107.4
1872.782	107.51
1875.989	105.72
1879.196	106.63
1882.402	104.01
1885.608	104.43
1888.814	104.42
1892.019	106.29
1895.224	103.91
1898.429	104.43
1901.634	104.54
1904.838	105.41
1908.042	105.41
1911.246	106.38
1914.449	105.39
1917.652	106.27
1920.855	107.14
1924.058	106.4
1927.26	104.39
1930.462	105.68
1933.664	105.64
1936.865	106.54
1940.066	104.69
1943.267	102.67
1946.467	104.65
1949.668	105.71
1952.868	105.84
1956.067	105.03
1959.267	105.76
1962.466	106.57
1965.665	106.78
1968.863	106.46
1972.061	109.07
1975.259	111.09
1978.457	114.12
1981.654	113.03
1984.852	112.92
1988.048	114.48
1991.245	116.56
1994.441	118.8
1997.637	121.07
2000.833	123.57
2004.028	125.79
2007.223	126.45
2010.418	128.88
2013.613	134.07
2016.807	138.24
2020.001	140.53
2023.194	144.93
2026.388	150.34
2029.581	156.91
2032.774	162.18
2035.966	167.27
2039.158	171.61
2042.35	175.03
2045.542	179.31
2048.733	185.96
2051.924	187.6
2055.115	192.03
2058.306	193.75
2061.496	195.73
2064.686	197.31
2067.875	196.2
2071.065	198.27
2074.254	197.93
2077.442	204.41
2080.631	206.51
2083.819	206.06
2087.007	211.48
2090.195	214.41
2093.382	214.13
2096.569	214.71
2099.756	217.98
2102.942	222.5
2106.128	226.97
2109.314	229.44
2112.5	229.7
2115.685	226.46
2118.87	228.26
2122.055	228.25
2125.239	233.22
2128.424	240.47
2131.608	238.4
2134.791	235.88
2137.974	237.61
2141.157	238.98
2144.34	241.23
2147.523	246.86
2150.705	254.18
2153.887	249.95
2157.068	253.64
2160.25	253.37
2163.431	254.03
2166.611	256.6
2169.792	263.85
2172.972	267.3
2176.152	266.83
2179.331	273.09
2182.511	270.16
2185.69	274.8
2188.868	286.48
2192.047	294.5
2195.225	301.33
2198.403	300.78
2201.58	301.54
2204.758	311.22
2207.935	311.38
2211.111	318.61
2214.288	318.46
2217.464	324.46
2220.64	324.8
2223.815	324.17
2226.991	320.49
2230.166	323.03
2233.34	335.12
2236.515	344.93
2239.689	338.07
2242.863	345.09
2246.036	342.9
2249.209	349.97
2252.382	348.71
2255.555	363.89
2258.727	368.04
2261.9	376.24
2265.071	381.78
2268.243	375.34
2271.414	385.74
2274.585	396.7
2277.756	396.33
2280.926	409.26
2284.096	416.31
2287.266	418.02
2290.436	407.81
2293.605	416.88
2296.774	432.97
2299.942	431.59
2303.111	451.02
2306.279	455.67
2309.447	457.81
2312.614	459.65
2315.781	473
2318.948	473.67
2322.115	481.13
2325.281	509.56
2328.447	502.94
2331.613	504.99
2334.779	511.95
2337.944	518.12
2341.109	531.11
2344.274	533.28
2347.438	544.66
2350.602	554.94
2353.766	592.51
2356.929	596.42
2360.092	603
2363.255	609.4
2366.418	615.78
2369.58	629.69
2372.742	629.94
2375.904	626.64
2379.066	646.09
2382.227	690.15
2385.388	690.58
2388.548	654.75
2391.709	650.39
2394.869	669.91
2398.029	670.48
2401.188	670.52
2404.347	688.79
2407.506	709.81
2410.665	682.5
2413.823	691.03
2416.981	685.96
2420.139	646.82
2423.296	702.58
2426.453	749.67
2429.61	704.42
2432.767	755.99
2435.923	777.27
2439.079	757.12
2442.235	772.16
2445.391	797.8
2448.546	783.53
2451.701	826.12
2454.855	888.31
2458.009	781.28
2461.163	800.03
2464.317	813.88
2467.471	793.86
2470.624	826.09
2473.777	806.79
2476.929	781.11
2480.082	826.82
2483.234	866.24
2486.385	879.9
2489.537	898.75
2492.688	985.93
2495.839	957.55
2498.989	991.98
2502.14	1002.36
2505.29	955.4
2508.439	1058.37
2511.589	1084.07
2514.738	1058.3
2517.887	1051.62
2521.035	993.94
2524.183	979.53
2527.331	975.45
2530.479	953.96
2533.627	976.47
