Data from c_3_dec_ct_2n_Splice17_06.txt Node
Date: Sat Feb 29 14:45:37 EST 2020
User: sa697716
Spectrometer: FLMS03696
Trigger mode: 0
Integration Time (sec): 3.180400E-1
Scans to average: 20
Electric dark correction enabled: true
Nonlinearity correction enabled: true
Boxcar width: 5
XAxis mode: Wavelengths
Number of Pixels in Spectrum: 2048
>>>>>Begin Spectral Data<<<<<
187.83	113.26
188.298	116.08
188.766	104.31
189.233	101.4
189.701	97.04
190.169	97.51
190.636	120.86
191.104	168.55
191.571	751.14
192.039	515.41
192.506	-472.62
192.974	-1099.36
193.441	386.47
193.908	36.85
194.375	-2.47
194.842	42.42
195.31	5.79
195.777	51.11
196.244	27
196.711	20.17
197.177	17.5
197.644	15.61
198.111	14.17
198.578	14.24
199.045	14.45
199.511	14.28
199.978	13.97
200.445	14.66
200.911	15.08
201.378	15.46
201.844	15.62
202.31	16.04
202.777	16.47
203.243	17.42
203.709	17.85
204.176	17.46
204.642	17.93
205.108	18.02
205.574	18.31
206.04	18.1
206.506	18.26
206.972	18.73
207.438	18.62
207.903	18.79
208.369	18.2
208.835	18.33
209.301	18.64
209.766	18.47
210.232	18.51
210.697	18.64
211.163	18.88
211.628	18.64
212.094	18.32
212.559	18.11
213.024	17.7
213.49	17.71
213.955	17.62
214.42	17.29
214.885	17.16
215.35	17
215.815	16.46
216.28	15.9
216.745	15.74
217.21	15.41
217.675	14.95
218.14	14.57
218.604	14.04
219.069	13.66
219.534	13.28
219.998	13.08
220.463	12.91
220.927	12.71
221.392	12.55
221.856	12.33
222.32	12.19
222.785	12.08
223.249	11.94
223.713	11.86
224.177	11.71
224.642	11.63
225.106	11.5
225.57	11.34
226.034	11.22
226.497	11.1
226.961	10.96
227.425	10.79
227.889	10.66
228.353	10.54
228.816	10.43
229.28	10.3
229.744	10.2
230.207	10.09
230.671	9.99
231.134	9.87
231.597	9.74
232.061	9.63
232.524	9.55
232.987	9.45
233.45	9.34
233.914	9.23
234.377	9.15
234.84	9.04
235.303	8.93
235.766	8.82
236.229	8.74
236.691	8.66
237.154	8.58
237.617	8.48
238.08	8.39
238.542	8.29
239.005	8.18
239.468	8.08
239.93	8
240.393	7.92
240.855	7.84
241.317	7.76
241.78	7.68
242.242	7.6
242.704	7.52
243.166	7.44
243.629	7.38
244.091	7.32
244.553	7.27
245.015	7.2
245.477	7.13
245.939	7.06
246.4	7
246.862	6.93
247.324	6.9
247.786	6.84
248.247	6.8
248.709	6.75
249.17	6.69
249.632	6.62
250.093	6.55
250.555	6.51
251.016	6.46
251.477	6.41
251.939	6.37
252.4	6.31
252.861	6.27
253.322	6.21
253.783	6.18
254.244	6.15
254.705	6.11
255.166	6.09
255.627	6.06
256.088	6.02
256.549	5.99
257.009	5.95
257.47	5.92
257.931	5.88
258.391	5.85
258.852	5.82
259.312	5.79
259.773	5.76
260.233	5.72
260.694	5.69
261.154	5.67
261.614	5.63
262.074	5.61
262.534	5.58
262.994	5.55
263.455	5.52
263.915	5.49
264.374	5.46
264.834	5.45
265.294	5.42
265.754	5.39
266.214	5.37
266.673	5.36
267.133	5.33
267.593	5.32
268.052	5.3
268.512	5.29
268.971	5.27
269.431	5.26
269.89	5.24
270.349	5.23
270.809	5.22
271.268	5.21
271.727	5.19
272.186	5.17
272.645	5.15
273.104	5.14
273.563	5.12
274.022	5.1
274.481	5.09
274.94	5.07
275.399	5.05
275.857	5.03
276.316	5.01
276.775	4.99
277.233	4.98
277.692	4.96
278.15	4.94
278.609	4.91
279.067	4.89
279.525	4.87
279.984	4.85
280.442	4.84
280.9	4.82
281.358	4.8
281.816	4.79
282.274	4.77
282.732	4.75
283.19	4.74
283.648	4.73
284.106	4.71
284.564	4.7
285.021	4.69
285.479	4.68
285.937	4.67
286.394	4.65
286.852	4.64
287.309	4.63
287.767	4.61
288.224	4.6
288.682	4.59
289.139	4.59
289.596	4.58
290.053	4.55
290.511	4.52
290.968	4.51
291.425	4.49
291.882	4.48
292.339	4.45
292.796	4.43
293.252	4.41
293.709	4.39
294.166	4.37
294.623	4.36
295.079	4.35
295.536	4.34
295.992	4.32
296.449	4.31
296.905	4.29
297.362	4.28
297.818	4.27
298.274	4.27
298.731	4.25
299.187	4.24
299.643	4.23
300.099	4.21
300.555	4.2
301.011	4.19
301.467	4.18
301.923	4.17
302.379	4.16
302.835	4.15
303.291	4.13
303.746	4.12
304.202	4.1
304.658	4.09
305.113	4.08
305.569	4.08
306.024	4.06
306.479	4.05
306.935	4.04
307.39	4.04
307.845	4.03
308.301	4.03
308.756	4.03
309.211	4.03
309.666	4.04
310.121	4.03
310.576	4.03
311.031	4.03
311.486	4.04
311.94	4.04
312.395	4.05
312.85	4.04
313.305	4.04
313.759	4.04
314.214	4.02
314.668	4.01
315.123	4
315.577	3.99
316.032	3.98
316.486	3.96
316.94	3.95
317.394	3.93
317.849	3.93
318.303	3.92
318.757	3.91
319.211	3.9
319.665	3.9
320.119	3.89
320.572	3.89
321.026	3.89
321.48	3.88
321.934	3.87
322.387	3.86
322.841	3.85
323.295	3.85
323.748	3.84
324.202	3.83
324.655	3.83
325.108	3.81
325.562	3.8
326.015	3.8
326.468	3.79
326.921	3.78
327.374	3.78
327.827	3.77
328.28	3.75
328.733	3.75
329.186	3.74
329.639	3.72
330.092	3.72
330.545	3.71
330.997	3.71
331.45	3.7
331.903	3.69
332.355	3.68
332.808	3.68
333.26	3.68
333.713	3.67
334.165	3.68
334.617	3.68
335.069	3.68
335.522	3.68
335.974	3.69
336.426	3.7
336.878	3.69
337.33	3.69
337.782	3.69
338.234	3.69
338.686	3.69
339.137	3.69
339.589	3.69
340.041	3.69
340.493	3.67
340.944	3.65
341.396	3.65
341.847	3.65
342.299	3.63
342.75	3.62
343.201	3.61
343.653	3.6
344.104	3.59
344.555	3.58
345.006	3.57
345.457	3.57
345.908	3.57
346.359	3.55
346.81	3.55
347.261	3.55
347.712	3.54
348.163	3.53
348.613	3.51
349.064	3.49
349.515	3.49
349.965	3.48
350.416	3.47
350.866	3.46
351.317	3.45
351.767	3.44
352.217	3.43
352.668	3.44
353.118	3.45
353.568	3.45
354.018	3.46
354.468	3.45
354.918	3.46
355.368	3.46
355.818	3.46
356.268	3.46
356.718	3.46
357.168	3.45
357.617	3.44
358.067	3.44
358.517	3.43
358.966	3.43
359.416	3.44
359.865	3.43
360.315	3.43
360.764	3.43
361.213	3.42
361.663	3.42
362.112	3.43
362.561	3.43
363.01	3.43
363.459	3.43
363.908	3.43
364.357	3.43
364.806	3.43
365.255	3.42
365.703	3.41
366.152	3.42
366.601	3.43
367.05	3.43
367.498	3.42
367.947	3.41
368.395	3.42
368.844	3.41
369.292	3.41
369.74	3.41
370.189	3.42
370.637	3.42
371.085	3.42
371.533	3.42
371.981	3.42
372.429	3.41
372.877	3.41
373.325	3.41
373.773	3.4
374.221	3.41
374.669	3.41
375.116	3.39
375.564	3.39
376.012	3.39
376.459	3.39
376.907	3.39
377.354	3.39
377.801	3.4
378.249	3.4
378.696	3.4
379.143	3.41
379.591	3.4
380.038	3.42
380.485	3.42
380.932	3.42
381.379	3.42
381.826	3.41
382.273	3.42
382.72	3.42
383.166	3.41
383.613	3.42
384.06	3.42
384.506	3.42
384.953	3.41
385.4	3.42
385.846	3.42
386.292	3.42
386.739	3.42
387.185	3.44
387.631	3.44
388.078	3.45
388.524	3.43
388.97	3.43
389.416	3.43
389.862	3.44
390.308	3.43
390.754	3.43
391.2	3.44
391.645	3.45
392.091	3.44
392.537	3.45
392.983	3.46
393.428	3.47
393.874	3.49
394.319	3.5
394.765	3.51
395.21	3.51
395.655	3.52
396.101	3.52
396.546	3.53
396.991	3.53
397.436	3.53
397.881	3.55
398.326	3.57
398.771	3.58
399.216	3.6
399.661	3.61
400.106	3.64
400.551	3.64
400.995	3.66
401.44	3.66
401.885	3.68
402.329	3.7
402.774	3.68
403.218	3.68
403.663	3.68
404.107	3.68
404.551	3.7
404.995	3.7
405.44	3.71
405.884	3.72
406.328	3.73
406.772	3.75
407.216	3.76
407.66	3.78
408.104	3.8
408.547	3.81
408.991	3.83
409.435	3.82
409.879	3.84
410.322	3.85
410.766	3.86
411.209	3.87
411.653	3.86
412.096	3.85
412.54	3.85
412.983	3.86
413.426	3.89
413.869	3.9
414.312	3.92
414.756	3.94
415.199	3.96
415.642	3.98
416.085	3.99
416.527	4.02
416.97	4.06
417.413	4.06
417.856	4.07
418.298	4.06
418.741	4.06
419.184	4.06
419.626	4.05
420.069	4.08
420.511	4.08
420.953	4.09
421.396	4.09
421.838	4.1
422.28	4.13
422.722	4.16
423.164	4.17
423.606	4.19
424.048	4.19
424.49	4.2
424.932	4.18
425.374	4.17
425.816	4.16
426.258	4.15
426.699	4.13
427.141	4.1
427.582	4.09
428.024	4.09
428.465	4.1
428.907	4.1
429.348	4.1
429.789	4.11
430.231	4.13
430.672	4.15
431.113	4.15
431.554	4.17
431.995	4.18
432.436	4.19
432.877	4.16
433.318	4.15
433.759	4.15
434.2	4.16
434.64	4.17
435.081	4.16
435.522	4.17
435.962	4.18
436.403	4.2
436.843	4.2
437.284	4.21
437.724	4.25
438.164	4.25
438.604	4.26
439.045	4.26
439.485	4.28
439.925	4.29
440.365	4.28
440.805	4.26
441.245	4.25
441.685	4.27
442.125	4.27
442.564	4.27
443.004	4.27
443.444	4.29
443.883	4.29
444.323	4.28
444.762	4.28
445.202	4.32
445.641	4.35
446.081	4.36
446.52	4.35
446.959	4.35
447.398	4.38
447.837	4.41
448.276	4.42
448.716	4.42
449.154	4.45
449.593	4.45
450.032	4.44
450.471	4.44
450.91	4.45
451.349	4.45
451.787	4.45
452.226	4.42
452.664	4.4
453.103	4.41
453.541	4.4
453.98	4.4
454.418	4.39
454.856	4.37
455.295	4.35
455.733	4.35
456.171	4.34
456.609	4.34
457.047	4.32
457.485	4.31
457.923	4.3
458.361	4.3
458.798	4.3
459.236	4.3
459.674	4.29
460.111	4.29
460.549	4.27
460.987	4.27
461.424	4.28
461.862	4.28
462.299	4.29
462.736	4.28
463.173	4.27
463.611	4.26
464.048	4.26
464.485	4.26
464.922	4.26
465.359	4.26
465.796	4.25
466.233	4.25
466.67	4.23
467.106	4.21
467.543	4.23
467.98	4.24
468.416	4.25
468.853	4.25
469.29	4.26
469.726	4.28
470.162	4.28
470.599	4.28
471.035	4.28
471.471	4.28
471.907	4.29
472.344	4.28
472.78	4.27
473.216	4.27
473.652	4.27
474.088	4.28
474.523	4.27
474.959	4.27
475.395	4.28
475.831	4.27
476.266	4.27
476.702	4.28
477.138	4.25
477.573	4.23
478.008	4.22
478.444	4.22
478.879	4.21
479.314	4.19
479.75	4.19
480.185	4.18
480.62	4.17
481.055	4.17
481.49	4.17
481.925	4.17
482.36	4.16
482.795	4.15
483.229	4.15
483.664	4.14
484.099	4.13
484.534	4.11
484.968	4.11
485.403	4.11
485.837	4.09
486.271	4.08
486.706	4.08
487.14	4.09
487.574	4.08
488.009	4.07
488.443	4.07
488.877	4.08
489.311	4.08
489.745	4.08
490.179	4.08
490.613	4.07
491.046	4.08
491.48	4.1
491.914	4.09
492.348	4.1
492.781	4.1
493.215	4.11
493.648	4.12
494.082	4.13
494.515	4.15
494.948	4.16
495.382	4.17
495.815	4.18
496.248	4.18
496.681	4.2
497.114	4.2
497.547	4.22
497.98	4.24
498.413	4.25
498.846	4.25
499.279	4.28
499.711	4.29
500.144	4.31
500.577	4.33
501.009	4.36
501.442	4.38
501.874	4.41
502.306	4.43
502.739	4.44
503.171	4.48
503.603	4.52
504.036	4.55
504.468	4.6
504.9	4.65
505.332	4.7
505.764	4.74
506.196	4.79
506.627	4.85
507.059	4.91
507.491	4.99
507.923	5.05
508.354	5.11
508.786	5.17
509.217	5.22
509.649	5.29
510.08	5.37
510.512	5.44
510.943	5.52
511.374	5.59
511.805	5.66
512.237	5.75
512.668	5.83
513.099	5.92
513.53	6.02
513.961	6.13
514.391	6.22
514.822	6.32
515.253	6.44
515.684	6.53
516.114	6.65
516.545	6.76
516.975	6.88
517.406	7
517.836	7.1
518.267	7.22
518.697	7.34
519.127	7.47
519.558	7.6
519.988	7.73
520.418	7.85
520.848	7.98
521.278	8.13
521.708	8.18
522.138	8.32
522.567	8.45
522.997	8.58
523.427	8.7
523.857	8.83
524.286	8.94
524.716	9.05
525.145	9.19
525.575	9.3
526.004	9.4
526.433	9.6
526.863	9.71
527.292	9.84
527.721	9.95
528.15	10.06
528.579	10.15
529.008	10.25
529.437	10.35
529.866	10.43
530.295	10.53
530.724	10.62
531.152	10.69
531.581	10.76
532.01	10.82
532.438	10.88
532.867	10.93
533.295	10.97
533.723	11.04
534.152	11.09
534.58	11.13
535.008	11.16
535.436	11.19
535.865	11.2
536.293	11.24
536.721	11.27
537.149	11.3
537.576	11.33
538.004	11.36
538.432	11.37
538.86	11.39
539.287	11.41
539.715	11.44
540.143	11.46
540.57	11.48
540.998	11.51
541.425	11.52
541.852	11.55
542.28	11.55
542.707	11.56
543.134	11.58
543.561	11.59
543.988	11.61
544.415	11.62
544.842	11.64
545.269	11.66
545.696	11.66
546.123	11.69
546.549	11.69
546.976	11.73
547.403	11.74
547.829	11.75
548.256	11.77
548.682	11.77
549.108	11.79
549.535	11.8
549.961	11.81
550.387	11.8
550.813	11.79
551.24	11.78
551.666	11.77
552.092	11.77
552.518	11.76
552.943	11.76
553.369	11.74
553.795	11.72
554.221	11.7
554.646	11.68
555.072	11.66
555.498	11.65
555.923	11.63
556.349	11.58
556.774	11.53
557.199	11.49
557.625	11.44
558.05	11.39
558.475	11.34
558.9	11.28
559.325	11.22
559.75	11.16
560.175	11.09
560.6	11.03
561.025	10.98
561.449	10.9
561.874	10.83
562.299	10.76
562.723	10.69
563.148	10.61
563.572	10.52
563.997	10.43
564.421	10.34
564.846	10.25
565.27	10.13
565.694	10.04
566.118	9.94
566.542	9.86
566.966	9.76
567.39	9.66
567.814	9.56
568.238	9.46
568.662	9.37
569.086	9.28
569.509	9.18
569.933	9.1
570.357	9
570.78	8.91
571.204	8.82
571.627	8.73
572.05	8.65
572.474	8.58
572.897	8.5
573.32	8.42
573.743	8.34
574.166	8.28
574.589	8.22
575.012	8.16
575.435	8.1
575.858	8.04
576.281	7.98
576.704	7.93
577.126	7.87
577.549	7.81
577.972	7.77
578.394	7.73
578.817	7.68
579.239	7.62
579.661	7.56
580.084	7.51
580.506	7.48
580.928	7.43
581.35	7.39
581.772	7.36
582.194	7.33
582.616	7.3
583.038	7.27
583.46	7.24
583.882	7.22
584.303	7.19
584.725	7.15
585.147	7.09
585.568	7.07
585.99	7.04
586.411	7.01
586.833	6.99
587.254	6.97
587.675	6.94
588.096	6.92
588.518	6.88
588.939	6.87
589.36	6.86
589.781	6.85
590.202	6.84
590.623	6.82
591.043	6.79
591.464	6.77
591.885	6.74
592.305	6.73
592.726	6.71
593.147	6.69
593.567	6.67
593.987	6.66
594.408	6.65
594.828	6.62
595.248	6.62
595.669	6.61
596.089	6.6
596.509	6.58
596.929	6.54
597.349	6.53
597.769	6.51
598.189	6.5
598.608	6.48
599.028	6.46
599.448	6.45
599.867	6.41
600.287	6.38
600.706	6.35
601.126	6.33
601.545	6.31
601.965	6.28
602.384	6.24
602.803	6.21
603.222	6.18
603.641	6.14
604.061	6.1
604.48	6.08
604.898	6.06
605.317	6.03
605.736	6.01
606.155	5.98
606.574	5.96
606.992	5.93
607.411	5.89
607.829	5.83
608.248	5.8
608.666	5.77
609.085	5.73
609.503	5.69
609.921	5.66
610.339	5.62
610.758	5.59
611.176	5.56
611.594	5.52
612.012	5.49
612.43	5.5
612.847	5.49
613.265	5.47
613.683	5.45
614.101	5.43
614.518	5.39
614.936	5.37
615.353	5.34
615.771	5.31
616.188	5.3
616.606	5.28
617.023	5.26
617.44	5.23
617.857	5.2
618.274	5.17
618.691	5.16
619.108	5.15
619.525	5.14
619.942	5.13
620.359	5.13
620.776	5.12
621.192	5.11
621.609	5.09
622.026	5.08
622.442	5.07
622.859	5.07
623.275	5.07
623.691	5.05
624.108	5.04
624.524	5.03
624.94	5.02
625.356	5.02
625.772	5.03
626.188	5.03
626.604	5.02
627.02	5.01
627.436	5
627.852	4.98
628.268	4.99
628.683	4.98
629.099	4.97
629.514	4.95
629.93	4.94
630.345	4.92
630.761	4.9
631.176	4.89
631.591	4.89
632.007	4.88
632.422	4.87
632.837	4.85
633.252	4.85
633.667	4.83
634.082	4.82
634.497	4.8
634.911	4.78
635.326	4.76
635.741	4.73
636.155	4.7
636.57	4.68
636.984	4.64
637.399	4.61
637.813	4.56
638.228	4.53
638.642	4.51
639.056	4.48
639.47	4.44
639.884	4.42
640.298	4.4
640.712	4.37
641.126	4.33
641.54	4.3
641.954	4.29
642.368	4.28
642.781	4.24
643.195	4.21
643.609	4.19
644.022	4.17
644.436	4.15
644.849	4.12
645.262	4.1
645.676	4.07
646.089	4.05
646.502	4.02
646.915	4
647.328	3.98
647.741	3.96
648.154	3.95
648.567	3.94
648.98	3.92
649.393	3.91
649.805	3.89
650.218	3.88
650.631	3.87
651.043	3.86
651.456	3.87
651.868	3.87
652.28	3.87
652.693	3.85
653.105	3.84
653.517	3.83
653.929	3.82
654.341	3.82
654.753	3.8
655.165	3.8
655.577	3.78
655.989	3.75
656.401	3.73
656.813	3.7
657.224	3.7
657.636	3.68
658.047	3.67
658.459	3.64
658.87	3.63
659.282	3.62
659.693	3.61
660.104	3.59
660.515	3.59
660.926	3.59
661.338	3.58
661.749	3.56
662.159	3.55
662.57	3.53
662.981	3.52
663.392	3.5
663.803	3.49
664.213	3.48
664.624	3.48
665.035	3.46
665.445	3.45
665.855	3.45
666.266	3.45
666.676	3.44
667.086	3.43
667.497	3.42
667.907	3.41
668.317	3.4
668.727	3.4
669.137	3.39
669.547	3.42
669.956	3.41
670.366	3.4
670.776	3.41
671.186	3.43
671.595	3.44
672.005	3.47
672.414	3.49
672.824	3.5
673.233	3.51
673.642	3.51
674.052	3.5
674.461	3.5
674.87	3.52
675.279	3.52
675.688	3.54
676.097	3.54
676.506	3.53
676.915	3.54
677.323	3.55
677.732	3.56
678.141	3.57
678.549	3.59
678.958	3.61
679.366	3.62
679.775	3.65
680.183	3.67
680.592	3.7
681	3.72
681.408	3.75
681.816	3.76
682.224	3.79
682.632	3.83
683.04	3.86
683.448	3.9
683.856	3.93
684.264	3.96
684.671	3.99
685.079	4.02
685.487	4.08
685.894	4.13
686.302	4.19
686.709	4.25
687.116	4.31
687.524	4.39
687.931	4.47
688.338	4.58
688.745	4.68
689.152	4.8
689.559	4.93
689.966	5.05
690.373	5.21
690.78	5.36
691.187	5.53
691.593	5.72
692	5.92
692.407	6.14
692.813	6.35
693.22	6.59
693.626	6.83
694.032	7.08
694.439	7.35
694.845	7.62
695.251	7.92
695.657	8.23
696.063	8.55
696.469	8.86
696.875	9.17
697.281	9.49
697.687	9.84
698.093	10.18
698.498	10.53
698.904	10.91
699.31	11.28
699.715	11.65
700.12	12.01
700.526	12.38
700.931	12.77
701.337	13.15
701.742	13.53
702.147	13.93
702.552	14.32
702.957	14.71
703.362	15.08
703.767	15.46
704.172	15.85
704.577	16.23
704.981	16.62
705.386	17.02
705.791	17.41
706.195	17.79
706.6	18.18
707.004	18.56
707.408	18.96
707.813	19.35
708.217	19.73
708.621	20.11
709.025	20.52
709.43	20.9
709.834	21.28
710.237	21.64
710.641	22.06
711.045	22.43
711.449	22.81
711.853	23.18
712.256	23.58
712.66	23.98
713.064	24.36
713.467	24.71
713.87	25.08
714.274	25.46
714.677	25.85
715.08	26.2
715.484	26.58
715.887	26.95
716.29	27.3
716.693	27.63
717.096	27.99
717.499	28.34
717.901	28.71
718.304	29.04
718.707	29.37
719.109	29.72
719.512	30.06
719.915	30.38
720.317	30.69
720.719	31
721.122	31.3
721.524	31.62
721.926	31.92
722.328	32.19
722.731	32.49
723.133	32.77
723.535	33.03
723.937	33.29
724.338	33.55
724.74	33.84
725.142	34.05
725.544	34.28
725.945	34.5
726.347	34.75
726.748	34.98
727.15	35.22
727.551	35.44
727.952	35.64
728.354	35.86
728.755	36.08
729.156	36.27
729.557	36.52
729.958	36.73
730.359	36.94
730.76	37.09
731.161	37.26
731.562	37.43
731.962	37.59
732.363	37.75
732.763	37.92
733.164	38.06
733.564	38.19
733.965	38.32
734.365	38.46
734.766	38.56
735.166	38.68
735.566	38.8
735.966	38.88
736.366	39
736.766	39.11
737.166	39.21
737.566	39.29
737.966	39.4
738.365	39.49
738.765	39.6
739.165	39.68
739.564	39.78
739.964	39.85
740.363	39.94
740.763	40.03
741.162	40.09
741.561	40.15
741.96	40.21
742.36	40.27
742.759	40.31
743.158	40.35
743.557	40.45
743.955	40.55
744.354	40.64
744.753	40.68
745.152	40.73
745.55	40.8
745.949	40.85
746.348	40.93
746.746	40.97
747.144	41.03
747.543	41.09
747.941	41.14
748.339	41.18
748.737	41.22
749.136	41.28
749.534	41.33
749.932	41.38
750.33	41.42
750.727	41.43
751.125	41.46
751.523	41.49
751.921	41.5
752.318	41.5
752.716	41.48
753.113	41.49
753.511	41.49
753.908	41.48
754.305	41.47
754.703	41.48
755.1	41.47
755.497	41.48
755.894	41.48
756.291	41.49
756.688	41.5
757.085	41.52
757.482	41.51
757.878	41.51
758.275	41.51
758.672	41.51
759.068	41.53
759.465	41.56
759.861	41.56
760.258	41.55
760.654	41.55
761.05	41.53
761.447	41.53
761.843	41.51
762.239	41.5
762.635	41.49
763.031	41.48
763.427	41.44
763.822	41.41
764.218	41.41
764.614	41.4
765.01	41.39
765.405	41.38
765.801	41.37
766.196	41.37
766.592	41.41
766.987	41.44
767.382	41.45
767.778	41.48
768.173	41.49
768.568	41.46
768.963	41.5
769.358	41.49
769.753	41.51
770.148	41.54
770.542	41.53
770.937	41.51
771.332	41.47
771.726	41.46
772.121	41.43
772.515	41.42
772.91	41.43
773.304	41.41
773.699	41.41
774.093	41.38
774.487	41.37
774.881	41.36
775.275	41.37
775.669	41.4
776.063	41.4
776.457	41.39
776.851	41.39
777.245	41.43
777.638	41.44
778.032	41.45
778.425	41.46
778.819	41.45
779.212	41.46
779.606	41.47
779.999	41.45
780.392	41.46
780.786	41.49
781.179	41.5
781.572	41.47
781.965	41.47
782.358	41.48
782.751	41.48
783.143	41.48
783.536	41.51
783.929	41.51
784.322	41.52
784.714	41.54
785.107	41.56
785.499	41.55
785.891	41.58
786.284	41.56
786.676	41.59
787.068	41.61
787.46	41.59
787.852	41.59
788.245	41.56
788.636	41.56
789.028	41.55
789.42	41.52
789.812	41.52
790.204	41.47
790.595	41.48
790.987	41.46
791.378	41.44
791.77	41.47
792.161	41.48
792.553	41.5
792.944	41.54
793.335	41.56
793.726	41.55
794.117	41.56
794.508	41.59
794.899	41.6
795.29	41.62
795.681	41.64
796.072	41.66
796.463	41.63
796.853	41.64
797.244	41.64
797.634	41.64
798.025	41.69
798.415	41.71
798.806	41.73
799.196	41.75
799.586	41.76
799.976	41.76
800.366	41.75
800.756	41.78
801.146	41.79
801.536	41.79
801.926	41.8
802.316	41.83
802.706	41.84
803.095	41.86
803.485	41.9
803.874	41.88
804.264	41.94
804.653	41.95
805.043	41.97
805.432	41.96
805.821	41.93
806.21	41.94
806.599	41.94
806.988	41.93
807.377	41.92
807.766	41.87
808.155	41.87
808.544	41.82
808.933	41.81
809.321	41.82
809.71	41.86
810.098	41.87
810.487	41.87
810.875	41.86
811.264	41.89
811.652	41.91
812.04	41.95
812.428	42
812.816	42.03
813.204	42.05
813.592	42.04
813.98	42.02
814.368	42.05
814.756	42.07
815.144	42.1
815.531	42.09
815.919	42.08
816.306	42.07
816.694	42.06
817.081	42.06
817.469	42.08
817.856	42.13
818.243	42.15
818.63	42.18
819.017	42.18
819.404	42.17
819.791	42.2
820.178	42.23
820.565	42.24
820.952	42.23
821.339	42.25
821.725	42.27
822.112	42.27
822.498	42.26
822.885	42.26
823.271	42.27
823.657	42.28
824.044	42.27
824.43	42.26
824.816	42.27
825.202	42.26
825.588	42.27
825.974	42.27
826.36	42.24
826.746	42.26
827.132	42.25
827.517	42.24
827.903	42.24
828.289	42.24
828.674	42.19
829.06	42.21
829.445	42.23
829.83	42.2
830.216	42.19
830.601	42.2
830.986	42.19
831.371	42.19
831.756	42.2
832.141	42.2
832.526	42.18
832.911	42.25
833.295	42.21
833.68	42.18
834.065	42.2
834.449	42.17
834.834	42.15
835.218	42.13
835.603	42.11
835.987	42.09
836.371	42.07
836.755	42.08
837.139	42.04
837.524	42.07
837.908	42.05
838.291	42.02
838.675	42.04
839.059	42.03
839.443	42.02
839.827	42.03
840.21	42.06
840.594	42.05
840.977	42.03
841.361	42.01
841.744	42
842.127	41.98
842.511	41.97
842.894	41.95
843.277	41.96
843.66	41.95
844.043	41.96
844.426	41.91
844.809	41.93
845.191	41.92
845.574	41.92
845.957	41.9
846.339	41.91
846.722	41.92
847.104	41.94
847.487	41.95
847.869	41.95
848.252	41.93
848.634	41.93
849.016	41.93
849.398	41.94
849.78	41.93
850.162	41.94
850.544	41.95
850.926	41.93
851.307	41.89
851.689	41.85
852.071	41.87
852.452	41.89
852.834	41.86
853.215	41.84
853.597	41.82
853.978	41.81
854.359	41.79
854.741	41.81
855.122	41.83
855.503	41.85
855.884	41.85
856.265	41.82
856.646	41.81
857.026	41.86
857.407	41.85
857.788	41.86
858.169	41.89
858.549	41.93
858.93	41.91
859.31	41.91
859.69	41.91
860.071	41.94
860.451	41.95
860.831	41.95
861.211	41.93
861.591	41.96
861.971	41.94
862.351	41.92
862.731	41.92
863.111	41.92
863.491	41.92
863.87	41.92
864.25	41.91
864.629	41.9
865.009	41.91
865.388	41.91
865.768	41.91
866.147	41.93
866.526	41.93
866.905	41.93
867.284	41.92
867.663	41.93
868.042	41.94
868.421	41.94
868.8	41.96
869.179	41.97
869.558	41.97
869.936	41.97
870.315	41.94
870.693	41.92
871.072	41.9
871.45	41.9
871.828	41.89
872.207	41.9
872.585	41.91
872.963	41.89
873.341	41.87
873.719	41.89
874.097	41.89
874.475	41.91
874.853	41.93
875.23	41.92
875.608	41.94
875.986	41.91
876.363	41.89
876.741	41.88
877.118	41.89
877.495	41.9
877.873	41.87
878.25	41.86
878.627	41.86
879.004	41.85
879.381	41.87
879.758	41.86
880.135	41.89
880.512	41.87
880.889	41.88
881.265	41.88
881.642	41.85
882.019	41.87
882.395	41.87
882.772	41.88
883.148	41.88
883.524	41.88
883.901	41.87
884.277	41.84
884.653	41.88
885.029	41.87
885.405	41.85
885.781	41.86
886.157	41.85
886.532	41.85
886.908	41.85
887.284	41.84
887.659	41.87
888.035	41.88
888.411	41.88
888.786	41.88
889.161	41.87
889.537	41.9
889.912	41.88
890.287	41.86
890.662	41.84
891.037	41.82
891.412	41.8
891.787	41.73
892.162	41.71
892.536	41.69
892.911	41.65
893.286	41.61
893.66	41.57
894.035	41.57
894.409	41.57
894.784	41.56
895.158	41.54
895.532	41.52
895.906	41.51
896.281	41.49
896.655	41.47
897.029	41.45
897.402	41.43
897.776	41.41
898.15	41.37
898.524	41.34
898.898	41.3
899.271	41.31
899.645	41.33
900.018	41.32
900.392	41.33
900.765	41.36
901.138	41.38
901.511	41.39
901.884	41.42
902.258	41.42
902.631	41.45
903.003	41.47
903.376	41.46
903.749	41.45
904.122	41.48
904.495	41.47
904.867	41.45
905.24	41.45
905.612	41.42
905.985	41.4
906.357	41.43
906.729	41.4
907.102	41.4
907.474	41.39
907.846	41.4
908.218	41.37
908.59	41.38
908.962	41.42
909.334	41.44
909.705	41.49
910.077	41.5
910.449	41.51
910.82	41.52
911.192	41.52
911.563	41.53
911.935	41.52
912.306	41.55
912.677	41.55
913.048	41.52
913.419	41.49
913.79	41.49
914.161	41.47
914.532	41.44
914.903	41.44
915.274	41.45
915.645	41.49
916.015	41.5
916.386	41.49
916.756	41.49
917.127	41.49
917.497	41.52
917.868	41.51
918.238	41.53
918.608	41.55
918.978	41.56
919.348	41.54
919.718	41.5
920.088	41.51
920.458	41.54
920.828	41.58
921.198	41.58
921.567	41.57
921.937	41.57
922.306	41.59
922.676	41.58
923.045	41.54
923.415	41.52
923.784	41.54
924.153	41.55
924.522	41.49
924.891	41.44
925.26	41.44
925.629	41.44
925.998	41.46
926.367	41.43
926.736	41.4
927.104	41.42
927.473	41.42
927.842	41.42
928.21	41.37
928.578	41.37
928.947	41.38
929.315	41.37
929.683	41.37
930.051	41.33
930.42	41.33
930.788	41.31
931.156	41.29
931.523	41.34
931.891	41.27
932.259	41.24
932.627	41.18
932.994	41.14
933.362	41.05
933.729	40.94
934.097	40.91
934.464	40.86
934.831	40.84
935.199	40.81
935.566	40.68
935.933	40.75
936.3	40.71
936.667	40.68
937.034	40.63
937.401	40.6
937.767	40.67
938.134	40.59
938.501	40.54
938.867	40.51
939.234	40.52
939.6	40.52
939.967	40.32
940.333	40.38
940.699	40.43
941.065	40.5
941.431	40.6
941.798	40.58
942.163	40.69
942.529	40.68
942.895	40.73
943.261	40.72
943.627	40.78
943.992	40.87
944.358	40.86
944.723	40.86
945.089	40.83
945.454	40.86
945.82	40.91
946.185	40.9
946.55	41
946.915	41.05
947.28	41.09
947.645	41.07
948.01	41.08
948.375	41.12
948.74	41.15
949.104	41.21
949.469	41.14
949.834	41.11
950.198	41.07
950.562	41.06
950.927	40.97
951.291	40.9
951.655	40.9
952.02	40.92
952.384	40.88
952.748	40.82
953.112	40.7
953.476	40.71
953.839	40.73
954.203	40.71
954.567	40.69
954.931	40.65
955.294	40.68
955.658	40.63
956.021	40.61
956.385	40.6
956.748	40.63
957.111	40.69
957.474	40.64
957.837	40.59
958.2	40.58
958.563	40.56
958.926	40.55
959.289	40.49
959.652	40.5
960.015	40.48
960.377	40.51
960.74	40.48
961.102	40.46
961.465	40.48
961.827	40.42
962.189	40.38
962.552	40.36
962.914	40.33
963.276	40.34
963.638	40.36
964	40.31
964.362	40.26
964.724	40.26
965.085	40.27
965.447	40.19
965.809	40.2
966.17	40.23
966.532	40.28
966.893	40.35
967.255	40.32
967.616	40.28
967.977	40.35
968.338	40.34
968.699	40.31
969.061	40.25
969.421	40.32
969.782	40.36
970.143	40.34
970.504	40.28
970.865	40.22
971.225	40.27
971.586	40.34
971.946	40.28
972.307	40.29
972.667	40.31
973.027	40.37
973.388	40.37
973.748	40.35
974.108	40.39
974.468	40.35
974.828	40.4
975.188	40.47
975.548	40.41
975.907	40.46
976.267	40.46
976.627	40.43
976.986	40.42
977.346	40.4
977.705	40.46
978.064	40.39
978.424	40.44
978.783	40.4
979.142	40.3
979.501	40.28
979.86	40.3
980.219	40.22
980.578	40.21
980.937	40.23
981.296	40.18
981.654	40.19
982.013	40.22
982.371	40.13
982.73	40.12
983.088	40.01
983.447	40.04
983.805	39.98
984.163	40.01
984.521	40.01
984.879	39.94
985.237	40
985.595	39.92
985.953	39.9
986.311	39.93
986.669	39.9
987.026	39.99
987.384	39.95
987.741	39.96
988.099	39.96
988.456	39.96
988.814	39.99
989.171	39.96
989.528	39.92
989.885	39.9
990.242	39.85
990.599	39.93
990.956	39.94
991.313	39.85
991.67	39.86
992.027	39.84
992.383	39.93
992.74	39.92
993.096	39.86
993.453	39.96
993.809	39.94
994.165	40
994.522	40.03
994.878	39.98
995.234	40
995.59	39.96
995.946	40.05
996.302	39.96
996.658	39.91
997.013	39.96
997.369	39.92
997.725	39.93
998.08	39.88
998.436	39.91
998.791	39.87
999.147	39.97
999.502	39.95
999.857	39.97
1000.212	39.99
1000.567	40.05
1000.922	40.01
1001.277	39.99
1001.632	40.05
1001.987	40.11
1002.342	40.06
1002.696	40.06
1003.051	39.89
1003.406	39.77
1003.76	39.66
1004.114	39.63
1004.469	39.56
1004.823	39.61
1005.177	39.7
1005.531	39.58
1005.885	39.53
1006.239	39.43
1006.593	39.46
1006.947	39.48
1007.301	39.51
1007.655	39.51
1008.008	39.35
1008.362	39.33
1008.715	39.12
1009.069	38.89
1009.422	38.89
1009.776	38.78
1010.129	38.72
1010.482	38.89
1010.835	39.04
1011.188	38.97
1011.541	38.65
1011.894	38.68
1012.247	38.66
1012.6	38.75
1012.952	38.83
1013.305	38.75
1013.657	39.12
1014.01	39.16
1014.362	39
1014.715	38.76
1015.067	38.93
1015.419	39.39
1015.771	39.45
1016.123	39.47
1016.475	39.64
1016.827	39.56
1017.179	39.59
1017.531	39.27
1017.883	39.23
1018.234	38.89
1018.586	38.86
1018.938	38.52
1019.289	38.34
1019.64	38.48
1019.992	38.41
1020.343	38.06
1020.694	37.87
1021.045	37.87
1021.396	37.75
1021.747	37.77
1022.098	38.09
1022.449	37.93
1022.8	37.9
1023.151	37.78
1023.501	37.38
1023.852	37.38
1024.202	37.45
1024.553	37.7
1024.903	37.77
1025.253	37.72
1025.604	37.65
1025.954	37.35
1026.304	38.03
1026.654	38.26
1027.004	38.2
1027.354	38.23
1027.703	38.23
1028.053	38.19
1028.403	37.66
1028.753	37.57
1029.102	37.57
1029.452	37.46
1029.801	37.38
1030.15	36.82
1030.499	36.69
897.758	582.52
901.051	592.23
904.343	601.47
907.636	589.48
910.928	578.92
914.22	587.01
917.511	576.79
920.803	549.1
924.094	526.85
927.384	531.28
930.675	519.84
933.965	512.39
937.255	510.33
940.544	486.31
943.834	467.14
947.123	459.77
950.411	435.51
953.7	426.24
956.988	412.86
960.276	398.64
963.563	395.52
966.851	373.37
970.138	366.49
973.424	342.19
976.711	338.97
979.997	327.22
983.283	318.5
986.568	308.83
989.853	302.61
993.138	291.88
996.423	285.94
999.708	276.36
1002.992	276.88
1006.275	267.82
1009.559	266.01
1012.842	257.38
1016.125	249.85
1019.408	246.71
1022.69	246.15
1025.972	240.52
1029.254	236.39
1032.536	231.69
1035.817	224.59
1039.098	222.12
1042.379	218.56
1045.659	215.46
1048.939	214.53
1052.219	211.78
1055.498	207.17
1058.778	201.97
1062.057	201.72
1065.335	199.88
1068.614	196.82
1071.892	194.56
1075.17	190.04
1078.447	188.07
1081.724	186.66
1085.001	181.09
1088.278	180.68
1091.554	179.82
1094.83	178.99
1098.106	175.12
1101.382	173.78
1104.657	173.04
1107.932	172.62
1111.206	171.47
1114.481	169.81
1117.755	168.29
1121.029	169.07
1124.302	166.1
1127.575	163.87
1130.848	163.4
1134.121	160.85
1137.393	160.8
1140.665	160.41
1143.937	158.47
1147.208	156.99
1150.48	155.4
1153.75	154.72
1157.021	153.28
1160.291	152.83
1163.561	152.29
1166.831	151.2
1170.101	151.46
1173.37	150.56
1176.639	148.74
1179.907	148.43
1183.176	147.87
1186.444	148
1189.711	146.58
1192.979	147.51
1196.246	147.31
1199.513	147.99
1202.78	147.49
1206.046	147.04
1209.312	148.6
1212.578	149.15
1215.843	151.63
1219.108	153.18
1222.373	155.03
1225.638	158.51
1228.902	161.33
1232.166	166.83
1235.43	168.15
1238.693	173.14
1241.956	176.93
1245.219	180.71
1248.482	181.93
1251.744	180.99
1255.006	181.33
1258.268	177.83
1261.529	175.54
1264.79	171.32
1268.051	167.74
1271.312	166.36
1274.572	163.09
1277.832	159.33
1281.092	156.8
1284.351	154.04
1287.61	153.99
1290.869	153.57
1294.128	152.98
1297.386	151.85
1300.644	151.08
1303.902	150.07
1307.159	149.46
1310.416	150.32
1313.673	152.05
1316.93	153.26
1320.186	155.54
1323.442	156.68
1326.697	158.62
1329.953	160.51
1333.208	166.18
1336.463	172.82
1339.717	176.26
1342.972	184.77
1346.226	190.26
1349.479	191.99
1352.733	199.61
1355.986	203.66
1359.238	208.36
1362.491	210.24
1365.743	216.35
1368.995	219.14
1372.247	218.19
1375.498	217.29
1378.749	222.77
1382	221.85
1385.251	221.18
1388.501	219.48
1391.751	221.66
1395	219.91
1398.25	221.67
1401.499	221.41
1404.748	218.38
1407.996	213.54
1411.244	213.45
1414.492	209.92
1417.74	204.74
1420.987	199.3
1424.234	195.91
1427.481	189.9
1430.728	185.4
1433.974	177.86
1437.22	173.12
1440.465	166.56
1443.711	161.86
1446.956	156.99
1450.201	151.32
1453.445	143.7
1456.689	140.42
1459.933	135.9
1463.177	129
1466.42	127.49
1469.663	124.5
1472.906	120.03
1476.148	116.96
1479.391	114.91
1482.633	112.68
1485.874	111.01
1489.115	110.39
1492.356	108.04
1495.597	106.65
1498.838	107.32
1502.078	105.48
1505.318	104.83
1508.557	103.85
1511.797	103.11
1515.036	102.28
1518.274	102.19
1521.513	100.53
1524.751	100.11
1527.989	100.78
1531.227	100.28
1534.464	99.62
1537.701	98.95
1540.938	98.51
1544.174	99.01
1547.41	99.45
1550.646	99.5
1553.882	99.54
1557.117	98.95
1560.352	98.37
1563.587	98.27
1566.821	98
1570.055	97.35
1573.289	97.48
1576.523	97.52
1579.756	97.09
1582.989	96.7
1586.222	96.78
1589.454	96.35
1592.686	96.83
1595.918	96.74
1599.15	96.01
1602.381	96.61
1605.612	96.62
1608.843	96.54
1612.073	97.02
1615.303	97.08
1618.533	97.56
1621.762	96.75
1624.992	97.04
1628.221	96.82
1631.449	97.55
1634.678	97.5
1637.906	97.74
1641.134	97.63
1644.361	97.46
1647.588	97.96
1650.815	98.18
1654.042	97.88
1657.269	98.02
1660.495	98.59
1663.72	98.58
1666.946	98.64
1670.171	99.32
1673.396	99.53
1676.621	99.6
1679.845	99.75
1683.069	99.6
1686.293	99.03
1689.517	99.59
1692.74	100.05
1695.963	99.81
1699.185	100.33
1702.408	100.34
1705.63	100.33
1708.852	100.73
1712.073	101.12
1715.294	101.42
1718.515	101.22
1721.736	101.72
1724.956	101.87
1728.176	101.75
1731.396	101.95
1734.616	102.1
1737.835	102.26
1741.054	101.99
1744.272	101.88
1747.491	101.63
1750.709	102.17
1753.927	102.32
1757.144	103.16
1760.361	102.79
1763.578	103.87
1766.795	104.16
1770.011	104.29
1773.227	104.4
1776.443	105.76
1779.658	104.97
1782.874	105.89
1786.089	105.43
1789.303	105.3
1792.518	106.1
1795.732	106.85
1798.945	107.06
1802.159	107.5
1805.372	108.25
1808.585	109.68
1811.797	109.72
1815.01	111.65
1818.222	112.12
1821.434	113.68
1824.645	114.88
1827.856	115.59
1831.067	116.07
1834.278	118.33
1837.488	118.98
1840.698	120.14
1843.908	119.51
1847.117	121.67
1850.326	122.14
1853.535	123.78
1856.744	124.81
1859.952	125.86
1863.16	126.54
1866.368	125.81
1869.575	124.94
1872.782	124.83
1875.989	123.35
1879.196	124.01
1882.402	121.85
1885.608	122.57
1888.814	121.15
1892.019	122.14
1895.224	120.43
1898.429	118.93
1901.634	120.16
1904.838	121.07
1908.042	122.15
1911.246	122.77
1914.449	122.67
1917.652	121.88
1920.855	121.78
1924.058	121.56
1927.26	120.48
1930.462	120.94
1933.664	123.24
1936.865	122.72
1940.066	120.75
1943.267	118.28
1946.467	119.88
1949.668	119.77
1952.868	121.45
1956.067	121.06
1959.267	121.24
1962.466	121.96
1965.665	123.83
1968.863	123.09
1972.061	125.2
1975.259	127.47
1978.457	130.73
1981.654	130.52
1984.852	131.54
1988.048	132.7
1991.245	135.52
1994.441	138.18
1997.637	141.3
2000.833	143.73
2004.028	145.58
2007.223	148.96
2010.418	151.86
2013.613	157.61
2016.807	162.19
2020.001	165.26
2023.194	170.35
2026.388	174.41
2029.581	184.27
2032.774	188.61
2035.966	193.48
2039.158	199.32
2042.35	201.58
2045.542	205.92
2048.733	213.17
2051.924	216.71
2055.115	221.09
2058.306	222.81
2061.496	227.09
2064.686	227.3
2067.875	226.51
2071.065	228.62
2074.254	228.04
2077.442	236.29
2080.631	238.49
2083.819	239.22
2087.007	243.19
2090.195	247.67
2093.382	247.86
2096.569	249.46
2099.756	250.59
2102.942	256.43
2106.128	261.77
2109.314	265.98
2112.5	265.39
2115.685	263.24
2118.87	263.23
2122.055	265.31
2125.239	268.8
2128.424	275.41
2131.608	274.04
2134.791	275.76
2137.974	275.37
2141.157	279.07
2144.34	279.6
2147.523	286.16
2150.705	293.87
2153.887	291.51
2157.068	293.05
2160.25	296.38
2163.431	295.66
2166.611	298.2
2169.792	305
2172.972	310.02
2176.152	308.82
2179.331	316.74
2182.511	314.19
2185.69	318.08
2188.868	331.01
2192.047	338.42
2195.225	343.73
2198.403	348.49
2201.58	345.03
2204.758	356.58
2207.935	359.32
2211.111	367.5
2214.288	368.13
2217.464	372.97
2220.64	375.99
2223.815	377.89
2226.991	373.29
2230.166	375.62
2233.34	386.09
2236.515	401.71
2239.689	391.05
2242.863	399.31
2246.036	393.9
2249.209	405.89
2252.382	402.44
2255.555	419.68
2258.727	420.88
2261.9	435.51
2265.071	440.75
2268.243	438.13
2271.414	448.85
2274.585	462.59
2277.756	457.91
2280.926	478.78
2284.096	479.01
2287.266	486.29
2290.436	473.19
2293.605	483.89
2296.774	498.68
2299.942	502.96
2303.111	515.05
2306.279	525.9
2309.447	526.68
2312.614	529.08
2315.781	541.15
2318.948	548.46
2322.115	558.47
2325.281	589.41
2328.447	580.59
2331.613	588.33
2334.779	592.12
2337.944	600.42
2341.109	607.75
2344.274	613.56
2347.438	634.54
2350.602	638.28
2353.766	676.63
2356.929	677.9
2360.092	690.08
2363.255	697.64
2366.418	701.48
2369.58	715.54
2372.742	730.55
2375.904	729.28
2379.066	752.2
2382.227	790.04
2385.388	793.73
2388.548	749.54
2391.709	742.82
2394.869	761.26
2398.029	764.65
2401.188	767.94
2404.347	795.5
2407.506	809.69
2410.665	784.89
2413.823	785.11
2416.981	790.47
2420.139	755.2
2423.296	816.71
2426.453	864.5
2429.61	820.87
2432.767	875.89
2435.923	901.64
2439.079	866.32
2442.235	891.21
2445.391	905.51
2448.546	899.25
2451.701	945.41
2454.855	1004.7
2458.009	893.1
2461.163	914.21
2464.317	933.78
2467.471	916.39
2470.624	947.98
2473.777	927.21
2476.929	897.21
2480.082	955.97
2483.234	1004.74
2486.385	1025.57
2489.537	1050.04
2492.688	1152.89
2495.839	1137.97
2498.989	1164.32
2502.14	1161.23
2505.29	1111.45
2508.439	1239.51
2511.589	1265.72
2514.738	1229.52
2517.887	1214.17
2521.035	1136.02
2524.183	1120.14
2527.331	1109.25
2530.479	1077.39
2533.627	1101.12
