Data from c_3_hir_wi_4n_Splice17_20.txt Node
Date: Sat Feb 29 14:52:53 EST 2020
User: sa697716
Spectrometer: FLMS03696
Trigger mode: 0
Integration Time (sec): 3.180400E-1
Scans to average: 20
Electric dark correction enabled: true
Nonlinearity correction enabled: true
Boxcar width: 5
XAxis mode: Wavelengths
Number of Pixels in Spectrum: 2048
>>>>>Begin Spectral Data<<<<<
187.83	135.82
188.298	136.78
188.766	120.05
189.233	113.04
189.701	115.46
190.169	105.73
190.636	98.95
191.104	83.05
191.571	277.94
192.039	89.21
192.506	201.37
192.974	7894.18
193.441	-543.15
193.908	64.31
194.375	71.05
194.842	83
195.31	50.26
195.777	-15.63
196.244	21.42
196.711	50.95
197.177	51.52
197.644	53.18
198.111	53.75
198.578	54.16
199.045	55.83
199.511	56.21
199.978	56.48
200.445	56.13
200.911	56.69
201.378	57.23
201.844	57.78
202.31	58.68
202.777	59.43
203.243	59.95
203.709	60.11
204.176	59.69
204.642	59.32
205.108	58.99
205.574	59.61
206.04	59.01
206.506	58.3
206.972	57.64
207.438	56.4
207.903	55.65
208.369	54.51
208.835	53.93
209.301	53.16
209.766	52.06
210.232	51.23
210.697	49.99
211.163	49.13
211.628	48.41
212.094	47.69
212.559	46.88
213.024	45.8
213.49	44.95
213.955	43.78
214.42	42.48
214.885	41.25
215.35	39.63
215.815	37.34
216.28	35.12
216.745	32.61
217.21	29.77
217.675	27.15
218.14	24.81
218.604	22.63
219.069	21.03
219.534	19.44
219.998	18.15
220.463	17.18
220.927	16.32
221.392	15.52
221.856	14.79
222.32	14.23
222.785	13.81
223.249	13.39
223.713	13.02
224.177	12.62
224.642	12.35
225.106	12.06
225.57	11.71
226.034	11.48
226.497	11.21
226.961	10.97
227.425	10.74
227.889	10.49
228.353	10.26
228.816	10.08
229.28	9.86
229.744	9.68
230.207	9.53
230.671	9.39
231.134	9.21
231.597	9.06
232.061	8.91
232.524	8.79
232.987	8.67
233.45	8.54
233.914	8.42
234.377	8.32
234.84	8.23
235.303	8.13
235.766	8.03
236.229	7.94
236.691	7.86
237.154	7.79
237.617	7.7
238.08	7.62
238.542	7.55
239.005	7.48
239.468	7.39
239.93	7.3
240.393	7.23
240.855	7.14
241.317	7.08
241.78	7.03
242.242	6.93
242.704	6.87
243.166	6.8
243.629	6.74
244.091	6.67
244.553	6.63
245.015	6.57
245.477	6.51
245.939	6.45
246.4	6.39
246.862	6.32
247.324	6.28
247.786	6.23
248.247	6.18
248.709	6.13
249.17	6.09
249.632	6.03
250.093	5.96
250.555	5.91
251.016	5.88
251.477	5.84
251.939	5.8
252.4	5.76
252.861	5.72
253.322	5.68
253.783	5.65
254.244	5.61
254.705	5.58
255.166	5.58
255.627	5.54
256.088	5.49
256.549	5.46
257.009	5.43
257.47	5.39
257.931	5.35
258.391	5.31
258.852	5.25
259.312	5.22
259.773	5.18
260.233	5.13
260.694	5.08
261.154	5.05
261.614	5.01
262.074	4.97
262.534	4.93
262.994	4.9
263.455	4.87
263.915	4.84
264.374	4.8
264.834	4.77
265.294	4.74
265.754	4.72
266.214	4.69
266.673	4.66
267.133	4.63
267.593	4.62
268.052	4.59
268.512	4.56
268.971	4.55
269.431	4.53
269.89	4.51
270.349	4.48
270.809	4.47
271.268	4.45
271.727	4.44
272.186	4.43
272.645	4.41
273.104	4.4
273.563	4.39
274.022	4.38
274.481	4.37
274.94	4.35
275.399	4.35
275.857	4.33
276.316	4.31
276.775	4.3
277.233	4.28
277.692	4.27
278.15	4.26
278.609	4.25
279.067	4.23
279.525	4.21
279.984	4.2
280.442	4.2
280.9	4.19
281.358	4.18
281.816	4.17
282.274	4.16
282.732	4.16
283.19	4.15
283.648	4.15
284.106	4.14
284.564	4.15
285.021	4.15
285.479	4.14
285.937	4.14
286.394	4.14
286.852	4.14
287.309	4.13
287.767	4.12
288.224	4.11
288.682	4.1
289.139	4.1
289.596	4.07
290.053	4.05
290.511	4.03
290.968	4.01
291.425	3.99
291.882	3.97
292.339	3.95
292.796	3.94
293.252	3.91
293.709	3.9
294.166	3.88
294.623	3.87
295.079	3.86
295.536	3.86
295.992	3.84
296.449	3.83
296.905	3.82
297.362	3.8
297.818	3.79
298.274	3.79
298.731	3.78
299.187	3.77
299.643	3.76
300.099	3.75
300.555	3.74
301.011	3.73
301.467	3.72
301.923	3.72
302.379	3.72
302.835	3.72
303.291	3.71
303.746	3.71
304.202	3.7
304.658	3.69
305.113	3.68
305.569	3.67
306.024	3.67
306.479	3.67
306.935	3.67
307.39	3.66
307.845	3.65
308.301	3.65
308.756	3.65
309.211	3.65
309.666	3.65
310.121	3.66
310.576	3.66
311.031	3.66
311.486	3.67
311.94	3.66
312.395	3.66
312.85	3.67
313.305	3.67
313.759	3.67
314.214	3.66
314.668	3.66
315.123	3.65
315.577	3.65
316.032	3.65
316.486	3.63
316.94	3.63
317.394	3.62
317.849	3.61
318.303	3.62
318.757	3.6
319.211	3.59
319.665	3.59
320.119	3.58
320.572	3.57
321.026	3.56
321.48	3.55
321.934	3.55
322.387	3.54
322.841	3.53
323.295	3.52
323.748	3.52
324.202	3.51
324.655	3.51
325.108	3.5
325.562	3.49
326.015	3.5
326.468	3.48
326.921	3.48
327.374	3.48
327.827	3.48
328.28	3.47
328.733	3.46
329.186	3.45
329.639	3.45
330.092	3.44
330.545	3.45
330.997	3.44
331.45	3.45
331.903	3.43
332.355	3.43
332.808	3.44
333.26	3.44
333.713	3.44
334.165	3.44
334.617	3.45
335.069	3.45
335.522	3.46
335.974	3.47
336.426	3.47
336.878	3.49
337.33	3.5
337.782	3.49
338.234	3.5
338.686	3.5
339.137	3.5
339.589	3.5
340.041	3.49
340.493	3.48
340.944	3.47
341.396	3.46
341.847	3.44
342.299	3.42
342.75	3.39
343.201	3.38
343.653	3.37
344.104	3.36
344.555	3.34
345.006	3.33
345.457	3.32
345.908	3.31
346.359	3.31
346.81	3.31
347.261	3.32
347.712	3.32
348.163	3.32
348.613	3.31
349.064	3.29
349.515	3.29
349.965	3.29
350.416	3.29
350.866	3.29
351.317	3.28
351.767	3.27
352.217	3.27
352.668	3.28
353.118	3.29
353.568	3.3
354.018	3.31
354.468	3.32
354.918	3.33
355.368	3.34
355.818	3.34
356.268	3.35
356.718	3.36
357.168	3.35
357.617	3.35
358.067	3.35
358.517	3.36
358.966	3.37
359.416	3.39
359.865	3.39
360.315	3.4
360.764	3.41
361.213	3.41
361.663	3.43
362.112	3.46
362.561	3.48
363.01	3.49
363.459	3.5
363.908	3.51
364.357	3.53
364.806	3.56
365.255	3.59
365.703	3.6
366.152	3.64
366.601	3.67
367.05	3.69
367.498	3.72
367.947	3.75
368.395	3.8
368.844	3.82
369.292	3.84
369.74	3.88
370.189	3.91
370.637	3.96
371.085	4
371.533	4.04
371.981	4.08
372.429	4.11
372.877	4.16
373.325	4.19
373.773	4.24
374.221	4.29
374.669	4.33
375.116	4.36
375.564	4.4
376.012	4.45
376.459	4.5
376.907	4.55
377.354	4.6
377.801	4.65
378.249	4.7
378.696	4.75
379.143	4.79
379.591	4.84
380.038	4.9
380.485	4.95
380.932	4.98
381.379	5.02
381.826	5.06
382.273	5.11
382.72	5.14
383.166	5.18
383.613	5.22
384.06	5.27
384.506	5.31
384.953	5.35
385.4	5.38
385.846	5.42
386.292	5.47
386.739	5.51
387.185	5.55
387.631	5.59
388.078	5.63
388.524	5.66
388.97	5.69
389.416	5.7
389.862	5.73
390.308	5.76
390.754	5.79
391.2	5.82
391.645	5.85
392.091	5.87
392.537	5.9
392.983	5.92
393.428	5.96
393.874	5.99
394.319	6.02
394.765	6.04
395.21	6.05
395.655	6.06
396.101	6.07
396.546	6.07
396.991	6.09
397.436	6.09
397.881	6.1
398.326	6.13
398.771	6.14
399.216	6.16
399.661	6.18
400.106	6.2
400.551	6.21
400.995	6.21
401.44	6.21
401.885	6.2
402.329	6.21
402.774	6.18
403.218	6.16
403.663	6.15
404.107	6.13
404.551	6.12
404.995	6.11
405.44	6.09
405.884	6.08
406.328	6.07
406.772	6.08
407.216	6.08
407.66	6.09
408.104	6.09
408.547	6.08
408.991	6.07
409.435	6.05
409.879	6.03
410.322	6.04
410.766	6.04
411.209	6.04
411.653	6.04
412.096	6.03
412.54	6.04
412.983	6.04
413.426	6.06
413.869	6.07
414.312	6.1
414.756	6.12
415.199	6.12
415.642	6.14
416.085	6.15
416.527	6.17
416.97	6.2
417.413	6.18
417.856	6.17
418.298	6.13
418.741	6.14
419.184	6.13
419.626	6.11
420.069	6.12
420.511	6.11
420.953	6.1
421.396	6.08
421.838	6.07
422.28	6.09
422.722	6.11
423.164	6.12
423.606	6.12
424.048	6.1
424.49	6.12
424.932	6.11
425.374	6.11
425.816	6.09
426.258	6.07
426.699	6.03
427.141	6.01
427.582	5.98
428.024	5.99
428.465	5.98
428.907	6
429.348	5.99
429.789	5.98
430.231	5.97
430.672	5.98
431.113	6
431.554	6.02
431.995	6.04
432.436	6.05
432.877	6.04
433.318	6.03
433.759	6.02
434.2	6.02
434.64	6.03
435.081	6.03
435.522	6.06
435.962	6.08
436.403	6.08
436.843	6.08
437.284	6.09
437.724	6.13
438.164	6.15
438.604	6.17
439.045	6.18
439.485	6.2
439.925	6.2
440.365	6.18
440.805	6.18
441.245	6.16
441.685	6.19
442.125	6.19
442.564	6.19
443.004	6.21
443.444	6.23
443.883	6.25
444.323	6.25
444.762	6.3
445.202	6.35
445.641	6.37
446.081	6.42
446.52	6.41
446.959	6.43
447.398	6.47
447.837	6.49
448.276	6.5
448.716	6.53
449.154	6.57
449.593	6.58
450.032	6.57
450.471	6.59
450.91	6.59
451.349	6.62
451.787	6.63
452.226	6.61
452.664	6.58
453.103	6.57
453.541	6.55
453.98	6.54
454.418	6.52
454.856	6.49
455.295	6.48
455.733	6.46
456.171	6.44
456.609	6.43
457.047	6.41
457.485	6.42
457.923	6.41
458.361	6.4
458.798	6.39
459.236	6.38
459.674	6.38
460.111	6.39
460.549	6.38
460.987	6.37
461.424	6.36
461.862	6.37
462.299	6.37
462.736	6.38
463.173	6.36
463.611	6.36
464.048	6.36
464.485	6.36
464.922	6.33
465.359	6.35
465.796	6.33
466.233	6.34
466.67	6.35
467.106	6.34
467.543	6.33
467.98	6.34
468.416	6.35
468.853	6.34
469.29	6.36
469.726	6.37
470.162	6.35
470.599	6.37
471.035	6.38
471.471	6.36
471.907	6.37
472.344	6.36
472.78	6.37
473.216	6.38
473.652	6.37
474.088	6.36
474.523	6.36
474.959	6.37
475.395	6.36
475.831	6.35
476.266	6.36
476.702	6.36
477.138	6.34
477.573	6.33
478.008	6.32
478.444	6.3
478.879	6.3
479.314	6.29
479.75	6.29
480.185	6.28
480.62	6.26
481.055	6.25
481.49	6.23
481.925	6.23
482.36	6.23
482.795	6.22
483.229	6.23
483.664	6.21
484.099	6.21
484.534	6.21
484.968	6.21
485.403	6.22
485.837	6.22
486.271	6.23
486.706	6.24
487.14	6.25
487.574	6.26
488.009	6.28
488.443	6.31
488.877	6.33
489.311	6.36
489.745	6.38
490.179	6.4
490.613	6.43
491.046	6.48
491.48	6.51
491.914	6.55
492.348	6.6
492.781	6.64
493.215	6.68
493.648	6.73
494.082	6.79
494.515	6.85
494.948	6.91
495.382	6.98
495.815	7.04
496.248	7.1
496.681	7.16
497.114	7.23
497.547	7.31
497.98	7.4
498.413	7.48
498.846	7.57
499.279	7.67
499.711	7.76
500.144	7.86
500.577	7.97
501.009	8.09
501.442	8.22
501.874	8.35
502.306	8.48
502.739	8.61
503.171	8.77
503.603	8.92
504.036	9.09
504.468	9.26
504.9	9.44
505.332	9.62
505.764	9.81
506.196	10
506.627	10.2
507.059	10.39
507.491	10.59
507.923	10.81
508.354	11.02
508.786	11.22
509.217	11.44
509.649	11.68
510.08	11.92
510.512	12.14
510.943	12.38
511.374	12.62
511.805	12.88
512.237	13.16
512.668	13.42
513.099	13.7
513.53	14
513.961	14.29
514.391	14.57
514.822	14.85
515.253	15.15
515.684	15.43
516.114	15.75
516.545	16.04
516.975	16.35
517.406	16.63
517.836	16.92
518.267	17.2
518.697	17.49
519.127	17.78
519.558	18.06
519.988	18.35
520.418	18.63
520.848	18.89
521.278	19.14
521.708	19.23
522.138	19.48
522.567	19.73
522.997	19.96
523.427	20.2
523.857	20.39
524.286	20.6
524.716	20.82
525.145	21.03
525.575	21.23
526.004	21.45
526.433	21.8
526.863	22
527.292	22.18
527.721	22.37
528.15	22.54
528.579	22.73
529.008	22.89
529.437	23.04
529.866	23.17
530.295	23.31
530.724	23.44
531.152	23.58
531.581	23.69
532.01	23.8
532.438	23.92
532.867	24.03
533.295	24.13
533.723	24.24
534.152	24.31
534.58	24.38
535.008	24.43
535.436	24.48
535.865	24.53
536.293	24.6
536.721	24.64
537.149	24.67
537.576	24.69
538.004	24.72
538.432	24.75
538.86	24.79
539.287	24.85
539.715	24.9
540.143	24.93
540.57	24.96
540.998	24.97
541.425	25.01
541.852	25.04
542.28	25.06
542.707	25.09
543.134	25.11
543.561	25.13
543.988	25.14
544.415	25.14
544.842	25.16
545.269	25.19
545.696	25.22
546.123	25.25
546.549	25.26
546.976	25.3
547.403	25.33
547.829	25.37
548.256	25.4
548.682	25.42
549.108	25.47
549.535	25.49
549.961	25.51
550.387	25.51
550.813	25.5
551.24	25.5
551.666	25.51
552.092	25.52
552.518	25.51
552.943	25.5
553.369	25.47
553.795	25.45
554.221	25.42
554.646	25.39
555.072	25.38
555.498	25.36
555.923	25.32
556.349	25.27
556.774	25.2
557.199	25.14
557.625	25.08
558.05	25.02
558.475	24.96
558.9	24.88
559.325	24.82
559.75	24.71
560.175	24.6
560.6	24.52
561.025	24.43
561.449	24.34
561.874	24.25
562.299	24.16
562.723	24.04
563.148	23.92
563.572	23.8
563.997	23.66
564.421	23.54
564.846	23.42
565.27	23.29
565.694	23.11
566.118	22.95
566.542	22.81
566.966	22.66
567.39	22.49
567.814	22.34
568.238	22.16
568.662	22
569.086	21.83
569.509	21.66
569.933	21.49
570.357	21.33
570.78	21.16
571.204	20.98
571.627	20.82
572.05	20.66
572.474	20.51
572.897	20.4
573.32	20.26
573.743	20.13
574.166	19.99
574.589	19.87
575.012	19.76
575.435	19.66
575.858	19.57
576.281	19.46
576.704	19.37
577.126	19.26
577.549	19.14
577.972	19.05
578.394	18.95
578.817	18.87
579.239	18.78
579.661	18.71
580.084	18.62
580.506	18.53
580.928	18.45
581.35	18.36
581.772	18.29
582.194	18.22
582.616	18.15
583.038	18.08
583.46	18.03
583.882	17.97
584.303	17.89
584.725	17.83
585.147	17.76
585.568	17.67
585.99	17.61
586.411	17.55
586.833	17.49
587.254	17.44
587.675	17.38
588.096	17.31
588.518	17.25
588.939	17.21
589.36	17.15
589.781	17.11
590.202	17.07
590.623	17.02
591.043	16.98
591.464	16.93
591.885	16.89
592.305	16.88
592.726	16.82
593.147	16.79
593.567	16.74
593.987	16.73
594.408	16.7
594.828	16.68
595.248	16.65
595.669	16.62
596.089	16.58
596.509	16.54
596.929	16.48
597.349	16.44
597.769	16.41
598.189	16.4
598.608	16.36
599.028	16.32
599.448	16.28
599.867	16.24
600.287	16.19
600.706	16.15
601.126	16.1
601.545	16.05
601.965	16.01
602.384	15.95
602.803	15.87
603.222	15.8
603.641	15.73
604.061	15.64
604.48	15.58
604.898	15.51
605.317	15.44
605.736	15.38
606.155	15.31
606.574	15.24
606.992	15.15
607.411	15.1
607.829	14.99
608.248	14.93
608.666	14.87
609.085	14.8
609.503	14.72
609.921	14.64
610.339	14.56
610.758	14.5
611.176	14.42
611.594	14.34
612.012	14.25
612.43	14.21
612.847	14.14
613.265	14.06
613.683	13.99
614.101	13.91
614.518	13.83
614.936	13.76
615.353	13.68
615.771	13.6
616.188	13.53
616.606	13.47
617.023	13.41
617.44	13.34
617.857	13.28
618.274	13.22
618.691	13.17
619.108	13.13
619.525	13.08
619.942	13.05
620.359	13.02
620.776	12.98
621.192	12.95
621.609	12.93
622.026	12.9
622.442	12.89
622.859	12.87
623.275	12.86
623.691	12.83
624.108	12.83
624.524	12.81
624.94	12.78
625.356	12.78
625.772	12.77
626.188	12.77
626.604	12.73
627.02	12.72
627.436	12.71
627.852	12.68
628.268	12.67
628.683	12.65
629.099	12.64
629.514	12.62
629.93	12.58
630.345	12.54
630.761	12.51
631.176	12.49
631.591	12.45
632.007	12.41
632.422	12.37
632.837	12.31
633.252	12.25
633.667	12.17
634.082	12.1
634.497	12.03
634.911	11.96
635.326	11.87
635.741	11.76
636.155	11.68
636.57	11.56
636.984	11.45
637.399	11.35
637.813	11.23
638.228	11.13
638.642	11.02
639.056	10.92
639.47	10.8
639.884	10.67
640.298	10.57
640.712	10.44
641.126	10.32
641.54	10.22
641.954	10.11
642.368	10
642.781	9.88
643.195	9.76
643.609	9.63
644.022	9.52
644.436	9.43
644.849	9.33
645.262	9.24
645.676	9.16
646.089	9.07
646.502	8.98
646.915	8.92
647.328	8.86
647.741	8.79
648.154	8.75
648.567	8.7
648.98	8.65
649.393	8.6
649.805	8.54
650.218	8.49
650.631	8.44
651.043	8.4
651.456	8.35
651.868	8.31
652.28	8.28
652.693	8.22
653.105	8.18
653.517	8.12
653.929	8.07
654.341	8.02
654.753	7.95
655.165	7.89
655.577	7.81
655.989	7.74
656.401	7.66
656.813	7.57
657.224	7.5
657.636	7.44
658.047	7.37
658.459	7.28
658.87	7.22
659.282	7.15
659.693	7.07
660.104	7
660.515	6.93
660.926	6.87
661.338	6.79
661.749	6.72
662.159	6.63
662.57	6.56
662.981	6.51
663.392	6.43
663.803	6.37
664.213	6.31
664.624	6.26
665.035	6.21
665.445	6.16
665.855	6.11
666.266	6.08
666.676	6.03
667.086	6
667.497	5.96
667.907	5.94
668.317	5.91
668.727	5.89
669.137	5.87
669.547	5.85
669.956	5.85
670.366	5.84
670.776	5.83
671.186	5.85
671.595	5.86
672.005	5.87
672.414	5.87
672.824	5.9
673.233	5.9
673.642	5.92
674.052	5.93
674.461	5.94
674.87	5.96
675.279	5.98
675.688	5.99
676.097	6.02
676.506	6.04
676.915	6.07
677.323	6.1
677.732	6.15
678.141	6.19
678.549	6.25
678.958	6.31
679.366	6.37
679.775	6.43
680.183	6.51
680.592	6.59
681	6.65
681.408	6.76
681.816	6.86
682.224	6.98
682.632	7.12
683.04	7.24
683.448	7.4
683.856	7.58
684.264	7.78
684.671	7.99
685.079	8.21
685.487	8.48
685.894	8.75
686.302	9.05
686.709	9.35
687.116	9.69
687.524	10.06
687.931	10.44
688.338	10.86
688.745	11.28
689.152	11.73
689.559	12.2
689.966	12.68
690.373	13.19
690.78	13.71
691.187	14.24
691.593	14.78
692	15.35
692.407	15.91
692.813	16.5
693.22	17.09
693.626	17.66
694.032	18.28
694.439	18.91
694.845	19.49
695.251	20.1
695.657	20.71
696.063	21.31
696.469	21.89
696.875	22.46
697.281	23.02
697.687	23.62
698.093	24.21
698.498	24.78
698.904	25.31
699.31	25.89
699.715	26.45
700.12	26.96
700.526	27.48
700.931	27.99
701.337	28.5
701.742	28.98
702.147	29.45
702.552	29.92
702.957	30.37
703.362	30.83
703.767	31.24
704.172	31.67
704.577	32.14
704.981	32.57
705.386	33.01
705.791	33.44
706.195	33.85
706.6	34.25
707.004	34.63
707.408	35.04
707.813	35.39
708.217	35.78
708.621	36.15
709.025	36.51
709.43	36.83
709.834	37.19
710.237	37.52
710.641	37.87
711.045	38.19
711.449	38.5
711.853	38.81
712.256	39.16
712.66	39.46
713.064	39.77
713.467	40.03
713.87	40.35
714.274	40.64
714.677	40.95
715.08	41.21
715.484	41.51
715.887	41.79
716.29	42.04
716.693	42.29
717.096	42.57
717.499	42.8
717.901	43.06
718.304	43.29
718.707	43.51
719.109	43.75
719.512	44.01
719.915	44.22
720.317	44.48
720.719	44.69
721.122	44.89
721.524	45.1
721.926	45.32
722.328	45.5
722.731	45.69
723.133	45.88
723.535	46.04
723.937	46.2
724.338	46.35
724.74	46.48
725.142	46.56
725.544	46.68
725.945	46.79
726.347	46.91
726.748	47.05
727.15	47.17
727.551	47.31
727.952	47.4
728.354	47.51
728.755	47.64
729.156	47.75
729.557	47.95
729.958	48.09
730.359	48.21
730.76	48.29
731.161	48.4
731.562	48.47
731.962	48.55
732.363	48.62
732.763	48.7
733.164	48.77
733.564	48.85
733.965	48.9
734.365	48.95
734.766	49.01
735.166	49.09
735.566	49.09
735.966	49.14
736.366	49.15
736.766	49.2
737.166	49.24
737.566	49.27
737.966	49.3
738.365	49.36
738.765	49.38
739.165	49.4
739.564	49.46
739.964	49.52
740.363	49.55
740.763	49.62
741.162	49.65
741.561	49.7
741.96	49.76
742.36	49.78
742.759	49.8
743.158	49.78
743.557	49.83
743.955	49.9
744.354	49.96
744.753	50.04
745.152	50.05
745.55	50.09
745.949	50.14
746.348	50.17
746.746	50.18
747.144	50.22
747.543	50.31
747.941	50.35
748.339	50.37
748.737	50.41
749.136	50.4
749.534	50.43
749.932	50.45
750.33	50.45
750.727	50.47
751.125	50.51
751.523	50.52
751.921	50.49
752.318	50.47
752.716	50.45
753.113	50.41
753.511	50.39
753.908	50.37
754.305	50.35
754.703	50.35
755.1	50.34
755.497	50.33
755.894	50.31
756.291	50.33
756.688	50.33
757.085	50.32
757.482	50.31
757.878	50.32
758.275	50.3
758.672	50.3
759.068	50.3
759.465	50.29
759.861	50.28
760.258	50.25
760.654	50.22
761.05	50.19
761.447	50.16
761.843	50.14
762.239	50.1
762.635	50.09
763.031	50.06
763.427	50.02
763.822	50.02
764.218	49.98
764.614	49.99
765.01	49.98
765.405	49.99
765.801	50.01
766.196	50.03
766.592	50.05
766.987	50.03
767.382	50.03
767.778	50.06
768.173	50.09
768.568	50.07
768.963	50.08
769.358	50.09
769.753	50.1
770.148	50.09
770.542	50.06
770.937	50.04
771.332	50.08
771.726	50.06
772.121	50.02
772.515	49.96
772.91	49.97
773.304	49.96
773.699	49.91
774.093	49.87
774.487	49.88
774.881	49.92
775.275	49.94
775.669	49.94
776.063	49.92
776.457	49.93
776.851	49.92
777.245	49.94
777.638	49.94
778.032	49.98
778.425	50.01
778.819	50.01
779.212	49.98
779.606	49.97
779.999	49.97
780.392	50.01
780.786	50.02
781.179	50.08
781.572	50.07
781.965	50.09
782.358	50.05
782.751	50.05
783.143	50.08
783.536	50.11
783.929	50.14
784.322	50.17
784.714	50.18
785.107	50.2
785.499	50.2
785.891	50.21
786.284	50.18
786.676	50.23
787.068	50.24
787.46	50.2
787.852	50.17
788.245	50.18
788.636	50.17
789.028	50.17
789.42	50.16
789.812	50.17
790.204	50.14
790.595	50.17
790.987	50.17
791.378	50.19
791.77	50.24
792.161	50.27
792.553	50.25
792.944	50.26
793.335	50.28
793.726	50.27
794.117	50.26
794.508	50.29
794.899	50.28
795.29	50.28
795.681	50.3
796.072	50.32
796.463	50.32
796.853	50.34
797.244	50.35
797.634	50.33
798.025	50.38
798.415	50.37
798.806	50.43
799.196	50.45
799.586	50.45
799.976	50.46
800.366	50.45
800.756	50.45
801.146	50.45
801.536	50.46
801.926	50.49
802.316	50.49
802.706	50.51
803.095	50.5
803.485	50.57
803.874	50.6
804.264	50.59
804.653	50.58
805.043	50.59
805.432	50.56
805.821	50.57
806.21	50.63
806.599	50.64
806.988	50.64
807.377	50.66
807.766	50.62
808.155	50.67
808.544	50.65
808.933	50.68
809.321	50.73
809.71	50.81
810.098	50.85
810.487	50.8
810.875	50.78
811.264	50.81
811.652	50.82
812.04	50.83
812.428	50.81
812.816	50.87
813.204	50.87
813.592	50.85
813.98	50.83
814.368	50.82
814.756	50.84
815.144	50.9
815.531	50.9
815.919	50.88
816.306	50.88
816.694	50.9
817.081	50.88
817.469	50.91
817.856	50.9
818.243	50.91
818.63	50.96
819.017	50.96
819.404	50.92
819.791	50.93
820.178	50.94
820.565	50.95
820.952	50.94
821.339	50.97
821.725	50.97
822.112	51.02
822.498	51.03
822.885	51
823.271	51.04
823.657	51.07
824.044	51.05
824.43	51.07
824.816	51.07
825.202	51.06
825.588	51.06
825.974	51.05
826.36	50.99
826.746	50.98
827.132	50.95
827.517	50.93
827.903	50.91
828.289	50.92
828.674	50.91
829.06	50.92
829.445	50.92
829.83	50.92
830.216	50.92
830.601	50.94
830.986	50.93
831.371	50.96
831.756	50.92
832.141	50.93
832.526	50.92
832.911	50.93
833.295	50.91
833.68	50.91
834.065	50.92
834.449	50.89
834.834	50.85
835.218	50.82
835.603	50.8
835.987	50.79
836.371	50.77
836.755	50.73
837.139	50.69
837.524	50.69
837.908	50.65
838.291	50.6
838.675	50.59
839.059	50.6
839.443	50.6
839.827	50.59
840.21	50.64
840.594	50.61
840.977	50.62
841.361	50.62
841.744	50.63
842.127	50.62
842.511	50.63
842.894	50.61
843.277	50.62
843.66	50.64
844.043	50.63
844.426	50.59
844.809	50.6
845.191	50.58
845.574	50.57
845.957	50.53
846.339	50.55
846.722	50.55
847.104	50.56
847.487	50.56
847.869	50.54
848.252	50.53
848.634	50.57
849.016	50.57
849.398	50.59
849.78	50.6
850.162	50.61
850.544	50.61
850.926	50.61
851.307	50.62
851.689	50.59
852.071	50.58
852.452	50.56
852.834	50.53
853.215	50.52
853.597	50.55
853.978	50.53
854.359	50.52
854.741	50.54
855.122	50.55
855.503	50.55
855.884	50.54
856.265	50.53
856.646	50.55
857.026	50.56
857.407	50.54
857.788	50.54
858.169	50.56
858.549	50.56
858.93	50.54
859.31	50.53
859.69	50.51
860.071	50.54
860.451	50.55
860.831	50.55
861.211	50.53
861.591	50.54
861.971	50.52
862.351	50.54
862.731	50.56
863.111	50.56
863.491	50.59
863.87	50.59
864.25	50.59
864.629	50.59
865.009	50.62
865.388	50.65
865.768	50.67
866.147	50.67
866.526	50.63
866.905	50.63
867.284	50.63
867.663	50.62
868.042	50.61
868.421	50.6
868.8	50.6
869.179	50.57
869.558	50.51
869.936	50.52
870.315	50.51
870.693	50.54
871.072	50.52
871.45	50.5
871.828	50.47
872.207	50.46
872.585	50.46
872.963	50.44
873.341	50.46
873.719	50.48
874.097	50.48
874.475	50.51
874.853	50.49
875.23	50.49
875.608	50.52
875.986	50.53
876.363	50.56
876.741	50.57
877.118	50.59
877.495	50.58
877.873	50.58
878.25	50.58
878.627	50.54
879.004	50.57
879.381	50.57
879.758	50.52
880.135	50.54
880.512	50.53
880.889	50.52
881.265	50.54
881.642	50.57
882.019	50.54
882.395	50.52
882.772	50.55
883.148	50.52
883.524	50.52
883.901	50.54
884.277	50.53
884.653	50.52
885.029	50.51
885.405	50.49
885.781	50.45
886.157	50.46
886.532	50.47
886.908	50.46
887.284	50.45
887.659	50.45
888.035	50.45
888.411	50.42
888.786	50.41
889.161	50.4
889.537	50.37
889.912	50.35
890.287	50.32
890.662	50.3
891.037	50.22
891.412	50.18
891.787	50.15
892.162	50.09
892.536	50.07
892.911	50.03
893.286	49.98
893.66	49.97
894.035	49.95
894.409	49.92
894.784	49.9
895.158	49.94
895.532	49.93
895.906	49.9
896.281	49.89
896.655	49.89
897.029	49.9
897.402	49.92
897.776	49.93
898.15	49.94
898.524	49.96
898.898	49.95
899.271	49.94
899.645	49.95
900.018	49.96
900.392	49.98
900.765	49.96
901.138	49.95
901.511	49.94
901.884	49.9
902.258	49.89
902.631	49.86
903.003	49.88
903.376	49.84
903.749	49.84
904.122	49.81
904.495	49.79
904.867	49.79
905.24	49.79
905.612	49.78
905.985	49.78
906.357	49.78
906.729	49.78
907.102	49.79
907.474	49.82
907.846	49.8
908.218	49.84
908.59	49.86
908.962	49.9
909.334	49.89
909.705	49.91
910.077	49.91
910.449	49.92
910.82	49.93
911.192	49.92
911.563	49.93
911.935	49.94
912.306	49.92
912.677	49.92
913.048	49.88
913.419	49.88
913.79	49.87
914.161	49.9
914.532	49.9
914.903	49.91
915.274	49.89
915.645	49.9
916.015	49.93
916.386	49.94
916.756	49.92
917.127	49.96
917.497	50.01
917.868	50.03
918.238	50.04
918.608	50.09
918.978	50.07
919.348	50.05
919.718	50.05
920.088	50.04
920.458	50.08
920.828	50.08
921.198	50.05
921.567	50.02
921.937	50.02
922.306	50
922.676	49.99
923.045	50.01
923.415	50.03
923.784	50.05
924.153	50.03
924.522	49.99
924.891	50
925.26	50.02
925.629	50
925.998	50
926.367	50.01
926.736	49.94
927.104	49.94
927.473	49.97
927.842	49.9
928.21	49.91
928.578	49.86
928.947	49.86
929.315	49.82
929.683	49.86
930.051	49.84
930.42	49.83
930.788	49.87
931.156	49.85
931.523	49.82
931.891	49.83
932.259	49.77
932.627	49.7
932.994	49.66
933.362	49.58
933.729	49.5
934.097	49.45
934.464	49.37
934.831	49.29
935.199	49.26
935.566	49.14
935.933	49.17
936.3	49.12
936.667	49.16
937.034	49.1
937.401	49.13
937.767	49.09
938.134	49.05
938.501	49.03
938.867	49.08
939.234	49.13
939.6	49.24
939.967	49.24
940.333	49.41
940.699	49.5
941.065	49.65
941.431	49.78
941.798	49.91
942.163	50.07
942.529	50.17
942.895	50.22
943.261	50.26
943.627	50.3
943.992	50.31
944.358	50.31
944.723	50.29
945.089	50.35
945.454	50.4
945.82	50.4
946.185	50.46
946.55	50.55
946.915	50.61
947.28	50.59
947.645	50.6
948.01	50.61
948.375	50.65
948.74	50.63
949.104	50.67
949.469	50.53
949.834	50.47
950.198	50.36
950.562	50.28
950.927	50.19
951.291	50.18
951.655	50.17
952.02	50.15
952.384	50.12
952.748	50.18
953.112	50.12
953.476	50.14
953.839	50.09
954.203	50.02
954.567	49.94
954.931	49.94
955.294	49.84
955.658	49.73
956.021	49.65
956.385	49.6
956.748	49.5
957.111	49.38
957.474	49.36
957.837	49.38
958.2	49.37
958.563	49.33
958.926	49.24
959.289	49.24
959.652	49.28
960.015	49.19
960.377	49.15
960.74	49.09
961.102	49.11
961.465	49.12
961.827	49.04
962.189	49.04
962.552	49.05
962.914	49.02
963.276	48.98
963.638	48.9
964	48.95
964.362	48.93
964.724	48.98
965.085	49
965.447	48.93
965.809	48.86
966.17	48.89
966.532	48.84
966.893	48.87
967.255	48.9
967.616	48.96
967.977	48.95
968.338	48.87
968.699	48.79
969.061	48.74
969.421	48.73
969.782	48.8
970.143	48.73
970.504	48.68
970.865	48.62
971.225	48.57
971.586	48.62
971.946	48.62
972.307	48.71
972.667	48.85
973.027	48.85
973.388	48.79
973.748	48.79
974.108	48.83
974.468	48.92
974.828	48.96
975.188	48.96
975.548	48.92
975.907	48.97
976.267	48.93
976.627	48.86
976.986	48.92
977.346	48.94
977.705	48.93
978.064	48.99
978.424	49.05
978.783	49.07
979.142	49.06
979.501	49.04
979.86	48.99
980.219	49
980.578	49
980.937	48.93
981.296	49.03
981.654	49.09
982.013	48.97
982.371	48.89
982.73	48.87
983.088	48.85
983.447	48.81
983.805	48.87
984.163	48.9
984.521	48.85
984.879	48.92
985.237	48.95
985.595	48.98
985.953	48.98
986.311	49.12
986.669	49.17
987.026	49.24
987.384	49.25
987.741	49.24
988.099	49.29
988.456	49.28
988.814	49.31
989.171	49.22
989.528	49.2
989.885	49.3
990.242	49.23
990.599	49.34
990.956	49.42
991.313	49.43
991.67	49.46
992.027	49.43
992.383	49.57
992.74	49.57
993.096	49.62
993.453	49.67
993.809	49.65
994.165	49.68
994.522	49.6
994.878	49.49
995.234	49.57
995.59	49.48
995.946	49.62
996.302	49.51
996.658	49.48
997.013	49.47
997.369	49.43
997.725	49.55
998.08	49.52
998.436	49.63
998.791	49.71
999.147	49.73
999.502	49.82
999.857	49.79
1000.212	49.83
1000.567	49.92
1000.922	49.96
1001.277	49.88
1001.632	49.93
1001.987	49.94
1002.342	49.86
1002.696	49.89
1003.051	49.7
1003.406	49.75
1003.76	49.67
1004.114	49.73
1004.469	49.73
1004.823	49.85
1005.177	50.01
1005.531	49.81
1005.885	49.96
1006.239	50.03
1006.593	50.16
1006.947	50.43
1007.301	50.4
1007.655	50.5
1008.008	50.46
1008.362	50.55
1008.715	50.6
1009.069	50.51
1009.422	50.61
1009.776	50.51
1010.129	50.51
1010.482	50.58
1010.835	50.72
1011.188	50.55
1011.541	50.49
1011.894	50.48
1012.247	50.21
1012.6	49.98
1012.952	50.31
1013.305	50.3
1013.657	50.35
1014.01	50.5
1014.362	50.38
1014.715	50.16
1015.067	50.52
1015.419	50.74
1015.771	51.18
1016.123	51.46
1016.475	51.82
1016.827	51.82
1017.179	52.06
1017.531	52.23
1017.883	52.53
1018.234	52.74
1018.586	52.91
1018.938	52.79
1019.289	52.72
1019.64	52.65
1019.992	52.58
1020.343	52.52
1020.694	52.38
1021.045	52.52
1021.396	52.56
1021.747	52.41
1022.098	52.43
1022.449	52.53
1022.8	52.65
1023.151	52.86
1023.501	52.81
1023.852	53.21
1024.202	53.1
1024.553	53.14
1024.903	52.87
1025.253	52.87
1025.604	52.65
1025.954	52.33
1026.304	52.64
1026.654	52.67
1027.004	52.82
1027.354	52.69
1027.703	52.64
1028.053	52.86
1028.403	52.4
1028.753	52.58
1029.102	52.88
1029.452	53.21
1029.801	53.79
1030.15	53.5
1030.499	53.65
897.758	502.7
901.051	513.99
904.343	512.63
907.636	505.46
910.928	501.13
914.22	503.08
917.511	493.74
920.803	474.71
924.094	455.9
927.384	457.99
930.675	446.12
933.965	441.5
937.255	439.23
940.544	423.53
943.834	407.2
947.123	399.46
950.411	381.53
953.7	374.39
956.988	360.47
960.276	347.13
963.563	342.29
966.851	323.01
970.138	317.6
973.424	296.15
976.711	293.29
979.997	281.15
983.283	273.33
986.568	265.29
989.853	260.04
993.138	252.22
996.423	246.33
999.708	240.21
1002.992	241.06
1006.275	233.39
1009.559	233.06
1012.842	225.59
1016.125	219.85
1019.408	216.3
1022.69	214.54
1025.972	210.95
1029.254	205.82
1032.536	202.61
1035.817	195.15
1039.098	193.31
1042.379	189.63
1045.659	185.95
1048.939	184.87
1052.219	182.38
1055.498	179.45
1058.778	176.09
1062.057	173.52
1065.335	172.8
1068.614	169.71
1071.892	168.53
1075.17	164.89
1078.447	162.34
1081.724	160.69
1085.001	156.18
1088.278	155.81
1091.554	155.68
1094.83	154.58
1098.106	152.23
1101.382	151.32
1104.657	151.51
1107.932	150.64
1111.206	149.08
1114.481	149.2
1117.755	148.38
1121.029	148.92
1124.302	146.49
1127.575	143.19
1130.848	143.07
1134.121	141.48
1137.393	140.68
1140.665	139.68
1143.937	138.54
1147.208	136.9
1150.48	134.82
1153.75	134.17
1157.021	133.13
1160.291	132.14
1163.561	132.55
1166.831	131.53
1170.101	130.68
1173.37	129.83
1176.639	128.31
1179.907	128.28
1183.176	127.56
1186.444	128.4
1189.711	127.2
1192.979	127.63
1196.246	128.1
1199.513	127.68
1202.78	127.13
1206.046	126.97
1209.312	128.66
1212.578	129.46
1215.843	131.01
1219.108	132.67
1222.373	133.8
1225.638	135.88
1228.902	139.07
1232.166	143.44
1235.43	144.62
1238.693	149.33
1241.956	153.19
1245.219	155.84
1248.482	156.87
1251.744	156.16
1255.006	157.12
1258.268	152.97
1261.529	152.38
1264.79	148.17
1268.051	144.89
1271.312	144.48
1274.572	141.48
1277.832	137.98
1281.092	134.94
1284.351	132.32
1287.61	132.46
1290.869	131.01
1294.128	131
1297.386	130.07
1300.644	128.85
1303.902	127.6
1307.159	126.62
1310.416	127.45
1313.673	128.83
1316.93	130.45
1320.186	132.83
1323.442	133.68
1326.697	136.31
1329.953	136.66
1333.208	141.58
1336.463	148.03
1339.717	151.52
1342.972	158.48
1346.226	161.75
1349.479	163.39
1352.733	170.27
1355.986	173.24
1359.238	177.15
1362.491	177.9
1365.743	185.72
1368.995	186.1
1372.247	187.43
1375.498	185.53
1378.749	190.83
1382	192.58
1385.251	190.17
1388.501	189.34
1391.751	191.38
1395	190.31
1398.25	192.49
1401.499	190.48
1404.748	189.63
1407.996	182.54
1411.244	183.54
1414.492	180.09
1417.74	173.51
1420.987	170.28
1424.234	167.8
1427.481	160.89
1430.728	155.95
1433.974	149.61
1437.22	144.95
1440.465	139.94
1443.711	136.39
1446.956	131.9
1450.201	126.74
1453.445	121.46
1456.689	117.55
1459.933	113.49
1463.177	108.85
1466.42	106.53
1469.663	103.61
1472.906	100.59
1476.148	97.86
1479.391	95.96
1482.633	94.11
1485.874	92.52
1489.115	91.22
1492.356	89.87
1495.597	88.37
1498.838	88.56
1502.078	87.78
1505.318	87.51
1508.557	86.55
1511.797	85.76
1515.036	85.14
1518.274	85.54
1521.513	84.3
1524.751	83.72
1527.989	84.86
1531.227	84.53
1534.464	83.88
1537.701	83.71
1540.938	83.18
1544.174	83.28
1547.41	83.87
1550.646	83.63
1553.882	83.28
1557.117	83.72
1560.352	83.65
1563.587	82.64
1566.821	82.81
1570.055	82.15
1573.289	82.34
1576.523	82.72
1579.756	82.81
1582.989	82.68
1586.222	82.4
1589.454	82.48
1592.686	82.34
1595.918	82.36
1599.15	82.54
1602.381	82.83
1605.612	83.45
1608.843	82.98
1612.073	82.82
1615.303	83.2
1618.533	82.9
1621.762	83.35
1624.992	83.54
1628.221	83.43
1631.449	83.55
1634.678	84.24
1637.906	83.94
1641.134	84.13
1644.361	84.19
1647.588	85.17
1650.815	85.22
1654.042	84.61
1657.269	84.36
1660.495	84.59
1663.72	84.86
1666.946	85.1
1670.171	84.98
1673.396	85.4
1676.621	85.65
1679.845	86.34
1683.069	85.3
1686.293	85.23
1689.517	85.87
1692.74	86.07
1695.963	85.8
1699.185	86.15
1702.408	85.46
1705.63	86.02
1708.852	86.43
1712.073	86.15
1715.294	85.68
1718.515	86.69
1721.736	86.97
1724.956	87.03
1728.176	87.14
1731.396	87.88
1734.616	87.88
1737.835	88.82
1741.054	88.12
1744.272	88
1747.491	88.12
1750.709	88.61
1753.927	88.42
1757.144	88.1
1760.361	88.07
1763.578	89.08
1766.795	88.99
1770.011	89.27
1773.227	89.36
1776.443	90.15
1779.658	89.86
1782.874	90.64
1786.089	89.55
1789.303	89.85
1792.518	90.96
1795.732	92.08
1798.945	92.32
1802.159	92.59
1805.372	93.45
1808.585	94.19
1811.797	94.59
1815.01	95.86
1818.222	96.15
1821.434	98.13
1824.645	98.37
1827.856	99.71
1831.067	99.82
1834.278	100.21
1837.488	100.93
1840.698	101.68
1843.908	101.91
1847.117	103.36
1850.326	103.57
1853.535	104.51
1856.744	105.46
1859.952	107.39
1863.16	106.92
1866.368	106.54
1869.575	107.02
1872.782	106.97
1875.989	105.37
1879.196	106.36
1882.402	103.99
1885.608	104.55
1888.814	103.85
1892.019	104.97
1895.224	102.34
1898.429	103.43
1901.634	103.51
1904.838	104.55
1908.042	105.46
1911.246	105.36
1914.449	104.73
1917.652	106.17
1920.855	106.38
1924.058	105.1
1927.26	104.18
1930.462	104.89
1933.664	104.48
1936.865	105.37
1940.066	103.63
1943.267	101.86
1946.467	103.44
1949.668	104.55
1952.868	104.03
1956.067	103.67
1959.267	104.41
1962.466	104.77
1965.665	106.39
1968.863	105.37
1972.061	107.48
1975.259	109.6
1978.457	112.05
1981.654	111.77
1984.852	111.28
1988.048	112.94
1991.245	114.96
1994.441	117.86
1997.637	120.17
2000.833	122.12
2004.028	124.63
2007.223	125.85
2010.418	128.08
2013.613	133.17
2016.807	137.63
2020.001	139.78
2023.194	143.59
2026.388	149.03
2029.581	156.87
2032.774	161.01
2035.966	165.54
2039.158	170.81
2042.35	173.94
2045.542	175.95
2048.733	183.38
2051.924	185.03
2055.115	189.37
2058.306	191.76
2061.496	193.79
2064.686	193.64
2067.875	192.82
2071.065	195.24
2074.254	194.32
2077.442	201.25
2080.631	205.02
2083.819	203.12
2087.007	209.72
2090.195	214.09
2093.382	213.61
2096.569	214.5
2099.756	216.77
2102.942	222.46
2106.128	227.16
2109.314	230.84
2112.5	230.36
2115.685	227.93
2118.87	229.44
2122.055	228.82
2125.239	232.36
2128.424	238.56
2131.608	236.42
2134.791	236.75
2137.974	238.61
2141.157	239.96
2144.34	241.17
2147.523	246.37
2150.705	253.82
2153.887	250.67
2157.068	253.11
2160.25	253.3
2163.431	253.51
2166.611	257.58
2169.792	263.46
2172.972	266.44
2176.152	265.34
2179.331	269.63
2182.511	268.27
2185.69	272.26
2188.868	284.17
2192.047	291.07
2195.225	297.88
2198.403	300.81
2201.58	297.94
2204.758	306.39
2207.935	306.62
2211.111	313.31
2214.288	315.95
2217.464	319.81
2220.64	321.06
2223.815	318.72
2226.991	316.58
2230.166	318.73
2233.34	327.71
2236.515	340.22
2239.689	333.62
2242.863	340.25
2246.036	339.23
2249.209	347.69
2252.382	345.32
2255.555	358.01
2258.727	361.68
2261.9	371.23
2265.071	377.58
2268.243	374.66
2271.414	382.09
2274.585	394.26
2277.756	393.53
2280.926	407.91
2284.096	415.66
2287.266	417.52
2290.436	409.35
2293.605	419.02
2296.774	434.53
2299.942	431.38
2303.111	444.16
2306.279	454.37
2309.447	453.88
2312.614	454.25
2315.781	465.5
2318.948	461.8
2322.115	471.73
2325.281	498
2328.447	491.16
2331.613	493.97
2334.779	500.74
2337.944	509.98
2341.109	518.24
2344.274	522.06
2347.438	536.32
2350.602	541.75
2353.766	579.81
2356.929	584.44
2360.092	595.25
2363.255	602.58
2366.418	608.17
2369.58	620.41
2372.742	621.7
2375.904	619.03
2379.066	638.59
2382.227	679.76
2385.388	683.8
2388.548	647.18
2391.709	640.81
2394.869	656.41
2398.029	659.37
2401.188	658.67
2404.347	682.15
2407.506	702.99
2410.665	675.93
2413.823	680.31
2416.981	677.12
2420.139	642.68
2423.296	697.72
2426.453	743.77
2429.61	699.46
2432.767	744.71
2435.923	771.21
2439.079	746.77
2442.235	761.94
2445.391	786.12
2448.546	776.56
2451.701	822.44
2454.855	877.59
2458.009	772.57
2461.163	788.36
2464.317	804.94
2467.471	790.06
2470.624	816.42
2473.777	799.31
2476.929	772.87
2480.082	815.99
2483.234	855.47
2486.385	870.94
2489.537	891.84
2492.688	975.36
2495.839	953.65
2498.989	986.88
2502.14	986.73
2505.29	943.65
2508.439	1048.43
2511.589	1080.45
2514.738	1052.79
2517.887	1044.02
2521.035	985.18
2524.183	964.5
2527.331	964.63
2530.479	943.84
2533.627	963.17
