Data from C_3_hir_il_4n_Splice17_05.txt Node
Date: Sat Feb 29 15:11:14 EST 2020
User: sa697716
Spectrometer: FLMS03696
Trigger mode: 0
Integration Time (sec): 3.180400E-1
Scans to average: 20
Electric dark correction enabled: true
Nonlinearity correction enabled: true
Boxcar width: 5
XAxis mode: Wavelengths
Number of Pixels in Spectrum: 2048
>>>>>Begin Spectral Data<<<<<
187.83	138.2
188.298	140.57
188.766	122.59
189.233	122.67
189.701	132.21
190.169	123.26
190.636	115.78
191.104	101.84
191.571	190.27
192.039	240.36
192.506	-4.37
192.974	329.91
193.441	414.03
193.908	18.27
194.375	58.98
194.842	156.78
195.31	87.44
195.777	70.11
196.244	68.46
196.711	80.11
197.177	80.63
197.644	82.16
198.111	83.65
198.578	83.76
199.045	83.91
199.511	83.59
199.978	83.96
200.445	83.87
200.911	83.94
201.378	84.22
201.844	84.92
202.31	85.92
202.777	85.82
203.243	86.25
203.709	86.17
204.176	86.02
204.642	85.47
205.108	85.48
205.574	85.55
206.04	85.25
206.506	84.61
206.972	83.88
207.438	83.14
207.903	82.73
208.369	80.87
208.835	79.96
209.301	78.84
209.766	77.44
210.232	75.87
210.697	74.26
211.163	72.65
211.628	71.32
212.094	69.88
212.559	68.47
213.024	66.71
213.49	65.39
213.955	64.24
214.42	62.32
214.885	60.58
215.35	58.38
215.815	55.56
216.28	52.5
216.745	48.94
217.21	45.39
217.675	41.76
218.14	38.53
218.604	35.52
219.069	32.94
219.534	30.9
219.998	29.13
220.463	27.75
220.927	26.49
221.392	25.34
221.856	24.45
222.32	23.59
222.785	22.94
223.249	22.33
223.713	21.85
224.177	21.34
224.642	20.91
225.106	20.48
225.57	20.02
226.034	19.66
226.497	19.31
226.961	18.94
227.425	18.63
227.889	18.28
228.353	17.98
228.816	17.69
229.28	17.39
229.744	17.12
230.207	16.89
230.671	16.61
231.134	16.34
231.597	16.12
232.061	15.91
232.524	15.69
232.987	15.48
233.45	15.28
233.914	15.1
234.377	14.96
234.84	14.79
235.303	14.59
235.766	14.44
236.229	14.31
236.691	14.17
237.154	14.02
237.617	13.89
238.08	13.76
238.542	13.63
239.005	13.5
239.468	13.36
239.93	13.24
240.393	13.15
240.855	13.03
241.317	12.92
241.78	12.8
242.242	12.68
242.704	12.57
243.166	12.46
243.629	12.37
244.091	12.27
244.553	12.16
245.015	12.05
245.477	11.94
245.939	11.85
246.4	11.74
246.862	11.65
247.324	11.57
247.786	11.48
248.247	11.4
248.709	11.31
249.17	11.22
249.632	11.13
250.093	11.04
250.555	10.96
251.016	10.89
251.477	10.82
251.939	10.74
252.4	10.66
252.861	10.58
253.322	10.5
253.783	10.44
254.244	10.36
254.705	10.31
255.166	10.27
255.627	10.22
256.088	10.14
256.549	10.08
257.009	10.02
257.47	9.95
257.931	9.89
258.391	9.81
258.852	9.74
259.312	9.68
259.773	9.6
260.233	9.52
260.694	9.45
261.154	9.4
261.614	9.33
262.074	9.27
262.534	9.2
262.994	9.15
263.455	9.1
263.915	9.04
264.374	8.99
264.834	8.94
265.294	8.89
265.754	8.84
266.214	8.78
266.673	8.75
267.133	8.7
267.593	8.67
268.052	8.62
268.512	8.59
268.971	8.56
269.431	8.52
269.89	8.49
270.349	8.46
270.809	8.44
271.268	8.42
271.727	8.39
272.186	8.36
272.645	8.33
273.104	8.3
273.563	8.28
274.022	8.25
274.481	8.22
274.94	8.2
275.399	8.17
275.857	8.15
276.316	8.11
276.775	8.07
277.233	8.04
277.692	8.02
278.15	7.99
278.609	7.97
279.067	7.94
279.525	7.92
279.984	7.9
280.442	7.88
280.9	7.86
281.358	7.84
281.816	7.82
282.274	7.8
282.732	7.78
283.19	7.77
283.648	7.75
284.106	7.74
284.564	7.73
285.021	7.72
285.479	7.71
285.937	7.69
286.394	7.68
286.852	7.67
287.309	7.66
287.767	7.65
288.224	7.63
288.682	7.6
289.139	7.58
289.596	7.55
290.053	7.51
290.511	7.47
290.968	7.45
291.425	7.42
291.882	7.39
292.339	7.36
292.796	7.33
293.252	7.3
293.709	7.27
294.166	7.24
294.623	7.21
295.079	7.19
295.536	7.18
295.992	7.14
296.449	7.13
296.905	7.1
297.362	7.08
297.818	7.07
298.274	7.04
298.731	7.02
299.187	7.01
299.643	6.98
300.099	6.98
300.555	6.95
301.011	6.94
301.467	6.92
301.923	6.91
302.379	6.9
302.835	6.9
303.291	6.88
303.746	6.87
304.202	6.86
304.658	6.85
305.113	6.84
305.569	6.83
306.024	6.83
306.479	6.82
306.935	6.82
307.39	6.81
307.845	6.8
308.301	6.81
308.756	6.82
309.211	6.82
309.666	6.81
310.121	6.81
310.576	6.81
311.031	6.81
311.486	6.81
311.94	6.8
312.395	6.79
312.85	6.79
313.305	6.78
313.759	6.78
314.214	6.78
314.668	6.77
315.123	6.77
315.577	6.76
316.032	6.75
316.486	6.74
316.94	6.73
317.394	6.72
317.849	6.71
318.303	6.69
318.757	6.67
319.211	6.64
319.665	6.62
320.119	6.59
320.572	6.57
321.026	6.55
321.48	6.54
321.934	6.53
322.387	6.52
322.841	6.51
323.295	6.5
323.748	6.49
324.202	6.48
324.655	6.48
325.108	6.47
325.562	6.46
326.015	6.46
326.468	6.44
326.921	6.42
327.374	6.42
327.827	6.4
328.28	6.39
328.733	6.37
329.186	6.37
329.639	6.36
330.092	6.36
330.545	6.35
330.997	6.35
331.45	6.35
331.903	6.35
332.355	6.34
332.808	6.35
333.26	6.36
333.713	6.37
334.165	6.37
334.617	6.37
335.069	6.37
335.522	6.38
335.974	6.38
336.426	6.39
336.878	6.39
337.33	6.39
337.782	6.37
338.234	6.36
338.686	6.35
339.137	6.35
339.589	6.35
340.041	6.32
340.493	6.29
340.944	6.29
341.396	6.27
341.847	6.25
342.299	6.22
342.75	6.2
343.201	6.18
343.653	6.15
344.104	6.13
344.555	6.1
345.006	6.08
345.457	6.07
345.908	6.04
346.359	6.03
346.81	6.02
347.261	6
347.712	5.99
348.163	5.99
348.613	5.97
349.064	5.95
349.515	5.95
349.965	5.94
350.416	5.94
350.866	5.94
351.317	5.93
351.767	5.93
352.217	5.92
352.668	5.92
353.118	5.91
353.568	5.92
354.018	5.93
354.468	5.92
354.918	5.93
355.368	5.92
355.818	5.92
356.268	5.91
356.718	5.91
357.168	5.91
357.617	5.91
358.067	5.91
358.517	5.89
358.966	5.9
359.416	5.9
359.865	5.89
360.315	5.9
360.764	5.9
361.213	5.9
361.663	5.91
362.112	5.91
362.561	5.9
363.01	5.92
363.459	5.92
363.908	5.91
364.357	5.9
364.806	5.89
365.255	5.89
365.703	5.89
366.152	5.88
366.601	5.88
367.05	5.88
367.498	5.88
367.947	5.87
368.395	5.88
368.844	5.88
369.292	5.87
369.74	5.88
370.189	5.87
370.637	5.88
371.085	5.88
371.533	5.87
371.981	5.87
372.429	5.87
372.877	5.86
373.325	5.85
373.773	5.86
374.221	5.87
374.669	5.86
375.116	5.84
375.564	5.83
376.012	5.83
376.459	5.84
376.907	5.84
377.354	5.85
377.801	5.86
378.249	5.86
378.696	5.87
379.143	5.87
379.591	5.89
380.038	5.9
380.485	5.92
380.932	5.91
381.379	5.9
381.826	5.9
382.273	5.89
382.72	5.89
383.166	5.89
383.613	5.89
384.06	5.89
384.506	5.88
384.953	5.88
385.4	5.88
385.846	5.89
386.292	5.92
386.739	5.93
387.185	5.94
387.631	5.96
388.078	5.96
388.524	5.96
388.97	5.96
389.416	5.97
389.862	5.97
390.308	5.98
390.754	5.99
391.2	6.01
391.645	6.02
392.091	6.03
392.537	6.05
392.983	6.07
393.428	6.11
393.874	6.15
394.319	6.16
394.765	6.17
395.21	6.19
395.655	6.21
396.101	6.22
396.546	6.23
396.991	6.25
397.436	6.24
397.881	6.27
398.326	6.3
398.771	6.34
399.216	6.38
399.661	6.41
400.106	6.45
400.551	6.46
400.995	6.46
401.44	6.48
401.885	6.5
402.329	6.53
402.774	6.53
403.218	6.54
403.663	6.53
404.107	6.55
404.551	6.57
404.995	6.57
405.44	6.58
405.884	6.61
406.328	6.64
406.772	6.67
407.216	6.69
407.66	6.72
408.104	6.75
408.547	6.77
408.991	6.78
409.435	6.8
409.879	6.83
410.322	6.86
410.766	6.89
411.209	6.92
411.653	6.94
412.096	6.96
412.54	6.99
412.983	7.01
413.426	7.06
413.869	7.08
414.312	7.12
414.756	7.15
415.199	7.19
415.642	7.22
416.085	7.25
416.527	7.28
416.97	7.31
417.413	7.31
417.856	7.32
418.298	7.3
418.741	7.3
419.184	7.3
419.626	7.31
420.069	7.3
420.511	7.31
420.953	7.3
421.396	7.32
421.838	7.34
422.28	7.38
422.722	7.42
423.164	7.45
423.606	7.49
424.048	7.5
424.49	7.54
424.932	7.56
425.374	7.56
425.816	7.56
426.258	7.57
426.699	7.54
427.141	7.51
427.582	7.5
428.024	7.51
428.465	7.52
428.907	7.54
429.348	7.53
429.789	7.55
430.231	7.55
430.672	7.57
431.113	7.59
431.554	7.64
431.995	7.68
432.436	7.71
432.877	7.72
433.318	7.73
433.759	7.74
434.2	7.75
434.64	7.75
435.081	7.77
435.522	7.79
435.962	7.8
436.403	7.84
436.843	7.86
437.284	7.85
437.724	7.88
438.164	7.89
438.604	7.91
439.045	7.94
439.485	7.96
439.925	7.98
440.365	7.99
440.805	8
441.245	7.97
441.685	7.98
442.125	7.99
442.564	8
443.004	7.99
443.444	8.01
443.883	8.01
444.323	8.02
444.762	8.04
445.202	8.08
445.641	8.1
446.081	8.15
446.52	8.13
446.959	8.15
447.398	8.18
447.837	8.23
448.276	8.23
448.716	8.25
449.154	8.27
449.593	8.29
450.032	8.29
450.471	8.3
450.91	8.29
451.349	8.32
451.787	8.32
452.226	8.3
452.664	8.25
453.103	8.23
453.541	8.2
453.98	8.19
454.418	8.16
454.856	8.13
455.295	8.09
455.733	8.08
456.171	8.04
456.609	7.99
457.047	7.95
457.485	7.94
457.923	7.93
458.361	7.92
458.798	7.9
459.236	7.88
459.674	7.87
460.111	7.88
460.549	7.84
460.987	7.84
461.424	7.85
461.862	7.85
462.299	7.86
462.736	7.85
463.173	7.85
463.611	7.86
464.048	7.87
464.485	7.87
464.922	7.86
465.359	7.86
465.796	7.86
466.233	7.86
466.67	7.87
467.106	7.87
467.543	7.88
467.98	7.88
468.416	7.88
468.853	7.88
469.29	7.88
469.726	7.88
470.162	7.88
470.599	7.87
471.035	7.88
471.471	7.87
471.907	7.86
472.344	7.85
472.78	7.84
473.216	7.82
473.652	7.82
474.088	7.81
474.523	7.79
474.959	7.78
475.395	7.77
475.831	7.76
476.266	7.75
476.702	7.72
477.138	7.7
477.573	7.68
478.008	7.66
478.444	7.64
478.879	7.63
479.314	7.62
479.75	7.62
480.185	7.59
480.62	7.57
481.055	7.57
481.49	7.54
481.925	7.52
482.36	7.5
482.795	7.47
483.229	7.44
483.664	7.42
484.099	7.4
484.534	7.38
484.968	7.37
485.403	7.36
485.837	7.34
486.271	7.33
486.706	7.32
487.14	7.32
487.574	7.31
488.009	7.31
488.443	7.32
488.877	7.32
489.311	7.31
489.745	7.31
490.179	7.31
490.613	7.32
491.046	7.33
491.48	7.34
491.914	7.36
492.348	7.38
492.781	7.39
493.215	7.39
493.648	7.4
494.082	7.43
494.515	7.45
494.948	7.47
495.382	7.48
495.815	7.5
496.248	7.52
496.681	7.52
497.114	7.54
497.547	7.56
497.98	7.6
498.413	7.63
498.846	7.65
499.279	7.69
499.711	7.72
500.144	7.76
500.577	7.8
501.009	7.85
501.442	7.9
501.874	7.94
502.306	8
502.739	8.05
503.171	8.12
503.603	8.2
504.036	8.26
504.468	8.35
504.9	8.44
505.332	8.53
505.764	8.62
506.196	8.72
506.627	8.82
507.059	8.93
507.491	9.04
507.923	9.14
508.354	9.26
508.786	9.39
509.217	9.5
509.649	9.65
510.08	9.8
510.512	9.95
510.943	10.12
511.374	10.29
511.805	10.46
512.237	10.63
512.668	10.81
513.099	11
513.53	11.2
513.961	11.43
514.391	11.62
514.822	11.82
515.253	12.04
515.684	12.25
516.114	12.47
516.545	12.69
516.975	12.95
517.406	13.19
517.836	13.42
518.267	13.68
518.697	13.91
519.127	14.17
519.558	14.42
519.988	14.67
520.418	14.94
520.848	15.19
521.278	15.45
521.708	15.57
522.138	15.81
522.567	16.06
522.997	16.31
523.427	16.57
523.857	16.78
524.286	17.04
524.716	17.26
525.145	17.48
525.575	17.69
526.004	17.9
526.433	18.23
526.863	18.44
527.292	18.65
527.721	18.82
528.15	18.99
528.579	19.18
529.008	19.34
529.437	19.48
529.866	19.62
530.295	19.78
530.724	19.94
531.152	20.08
531.581	20.21
532.01	20.32
532.438	20.44
532.867	20.55
533.295	20.65
533.723	20.74
534.152	20.86
534.58	20.94
535.008	20.99
535.436	21.06
535.865	21.12
536.293	21.19
536.721	21.24
537.149	21.3
537.576	21.34
538.004	21.38
538.432	21.41
538.86	21.45
539.287	21.49
539.715	21.54
540.143	21.58
540.57	21.61
540.998	21.63
541.425	21.66
541.852	21.7
542.28	21.72
542.707	21.75
543.134	21.8
543.561	21.82
543.988	21.87
544.415	21.89
544.842	21.91
545.269	21.96
545.696	21.98
546.123	22.01
546.549	22.04
546.976	22.09
547.403	22.13
547.829	22.13
548.256	22.17
548.682	22.18
549.108	22.22
549.535	22.24
549.961	22.24
550.387	22.27
550.813	22.27
551.24	22.29
551.666	22.29
552.092	22.28
552.518	22.3
552.943	22.3
553.369	22.29
553.795	22.28
554.221	22.25
554.646	22.22
555.072	22.19
555.498	22.14
555.923	22.08
556.349	22.03
556.774	21.96
557.199	21.91
557.625	21.85
558.05	21.75
558.475	21.67
558.9	21.59
559.325	21.49
559.75	21.38
560.175	21.3
560.6	21.18
561.025	21.07
561.449	20.96
561.874	20.83
562.299	20.69
562.723	20.56
563.148	20.42
563.572	20.29
563.997	20.15
564.421	20
564.846	19.83
565.27	19.69
565.694	19.51
566.118	19.35
566.542	19.18
566.966	19.02
567.39	18.84
567.814	18.68
568.238	18.48
568.662	18.32
569.086	18.15
569.509	18
569.933	17.82
570.357	17.65
570.78	17.49
571.204	17.32
571.627	17.16
572.05	17.01
572.474	16.86
572.897	16.72
573.32	16.59
573.743	16.45
574.166	16.32
574.589	16.19
575.012	16.07
575.435	15.95
575.858	15.85
576.281	15.75
576.704	15.65
577.126	15.56
577.549	15.47
577.972	15.37
578.394	15.28
578.817	15.2
579.239	15.13
579.661	15.06
580.084	14.98
580.506	14.91
580.928	14.83
581.35	14.76
581.772	14.7
582.194	14.62
582.616	14.57
583.038	14.51
583.46	14.45
583.882	14.39
584.303	14.33
584.725	14.27
585.147	14.2
585.568	14.13
585.99	14.08
586.411	14.03
586.833	13.98
587.254	13.93
587.675	13.88
588.096	13.82
588.518	13.77
588.939	13.72
589.36	13.68
589.781	13.63
590.202	13.6
590.623	13.54
591.043	13.51
591.464	13.47
591.885	13.43
592.305	13.39
592.726	13.36
593.147	13.34
593.567	13.31
593.987	13.28
594.408	13.25
594.828	13.22
595.248	13.21
595.669	13.18
596.089	13.14
596.509	13.09
596.929	13.06
597.349	13.02
597.769	12.96
598.189	12.93
598.608	12.89
599.028	12.87
599.448	12.84
599.867	12.8
600.287	12.75
600.706	12.73
601.126	12.69
601.545	12.65
601.965	12.6
602.384	12.57
602.803	12.52
603.222	12.47
603.641	12.41
604.061	12.34
604.48	12.29
604.898	12.22
605.317	12.15
605.736	12.09
606.155	12.04
606.574	11.98
606.992	11.92
607.411	11.87
607.829	11.77
608.248	11.71
608.666	11.66
609.085	11.59
609.503	11.53
609.921	11.48
610.339	11.42
610.758	11.36
611.176	11.3
611.594	11.25
612.012	11.17
612.43	11.15
612.847	11.11
613.265	11.05
613.683	10.99
614.101	10.92
614.518	10.87
614.936	10.83
615.353	10.78
615.771	10.73
616.188	10.68
616.606	10.64
617.023	10.6
617.44	10.55
617.857	10.5
618.274	10.46
618.691	10.46
619.108	10.42
619.525	10.39
619.942	10.36
620.359	10.34
620.776	10.31
621.192	10.29
621.609	10.25
622.026	10.23
622.442	10.22
622.859	10.21
623.275	10.19
623.691	10.17
624.108	10.16
624.524	10.15
624.94	10.13
625.356	10.13
625.772	10.12
626.188	10.13
626.604	10.09
627.02	10.08
627.436	10.07
627.852	10.06
628.268	10.05
628.683	10.02
629.099	10
629.514	9.98
629.93	9.96
630.345	9.93
630.761	9.91
631.176	9.91
631.591	9.87
632.007	9.83
632.422	9.8
632.837	9.76
633.252	9.73
633.667	9.69
634.082	9.66
634.497	9.6
634.911	9.54
635.326	9.49
635.741	9.43
636.155	9.38
636.57	9.33
636.984	9.25
637.399	9.17
637.813	9.1
638.228	9.03
638.642	8.98
639.056	8.92
639.47	8.86
639.884	8.79
640.298	8.72
640.712	8.65
641.126	8.59
641.54	8.53
641.954	8.48
642.368	8.43
642.781	8.37
643.195	8.3
643.609	8.24
644.022	8.19
644.436	8.14
644.849	8.1
645.262	8.05
645.676	8.01
646.089	7.97
646.502	7.92
646.915	7.89
647.328	7.86
647.741	7.82
648.154	7.81
648.567	7.8
648.98	7.77
649.393	7.76
649.805	7.73
650.218	7.71
650.631	7.69
651.043	7.67
651.456	7.65
651.868	7.61
652.28	7.6
652.693	7.56
653.105	7.52
653.517	7.51
653.929	7.48
654.341	7.47
654.753	7.44
655.165	7.43
655.577	7.41
655.989	7.37
656.401	7.35
656.813	7.32
657.224	7.3
657.636	7.28
658.047	7.24
658.459	7.21
658.87	7.18
659.282	7.17
659.693	7.14
660.104	7.1
660.515	7.08
660.926	7.07
661.338	7.04
661.749	7.02
662.159	7
662.57	6.99
662.981	6.98
663.392	6.96
663.803	6.94
664.213	6.93
664.624	6.93
665.035	6.92
665.445	6.93
665.855	6.93
666.266	6.93
666.676	6.93
667.086	6.92
667.497	6.91
667.907	6.91
668.317	6.9
668.727	6.91
669.137	6.92
669.547	6.93
669.956	6.93
670.366	6.94
670.776	6.95
671.186	6.97
671.595	6.98
672.005	7
672.414	7.02
672.824	7.04
673.233	7.06
673.642	7.07
674.052	7.08
674.461	7.1
674.87	7.11
675.279	7.14
675.688	7.15
676.097	7.17
676.506	7.2
676.915	7.24
677.323	7.28
677.732	7.32
678.141	7.36
678.549	7.4
678.958	7.45
679.366	7.47
679.775	7.51
680.183	7.56
680.592	7.62
681	7.65
681.408	7.67
681.816	7.7
682.224	7.73
682.632	7.79
683.04	7.83
683.448	7.87
683.856	7.95
684.264	8.01
684.671	8.07
685.079	8.14
685.487	8.24
685.894	8.37
686.302	8.49
686.709	8.63
687.116	8.79
687.524	8.95
687.931	9.13
688.338	9.35
688.745	9.58
689.152	9.84
689.559	10.12
689.966	10.41
690.373	10.74
690.78	11.08
691.187	11.43
691.593	11.8
692	12.21
692.407	12.65
692.813	13.1
693.22	13.57
693.626	14.04
694.032	14.53
694.439	15.07
694.845	15.59
695.251	16.15
695.657	16.72
696.063	17.29
696.469	17.87
696.875	18.45
697.281	19.03
697.687	19.62
698.093	20.23
698.498	20.86
698.904	21.46
699.31	22.07
699.715	22.7
700.12	23.29
700.526	23.91
700.931	24.52
701.337	25.15
701.742	25.75
702.147	26.39
702.552	27.01
702.957	27.61
703.362	28.19
703.767	28.79
704.172	29.37
704.577	29.99
704.981	30.59
705.386	31.19
705.791	31.74
706.195	32.33
706.6	32.86
707.004	33.4
707.408	33.96
707.813	34.52
708.217	35.07
708.621	35.62
709.025	36.17
709.43	36.69
709.834	37.26
710.237	37.8
710.641	38.34
711.045	38.85
711.449	39.4
711.853	39.94
712.256	40.47
712.66	40.99
713.064	41.49
713.467	41.96
713.87	42.46
714.274	42.93
714.677	43.4
715.08	43.87
715.484	44.38
715.887	44.88
716.29	45.32
716.693	45.78
717.096	46.24
717.499	46.72
717.901	47.17
718.304	47.63
718.707	48.07
719.109	48.56
719.512	49.01
719.915	49.43
720.317	49.83
720.719	50.24
721.122	50.63
721.524	51.04
721.926	51.43
722.328	51.82
722.731	52.17
723.133	52.53
723.535	52.88
723.937	53.21
724.338	53.54
724.74	53.87
725.142	54.15
725.544	54.47
725.945	54.75
726.347	55.05
726.748	55.3
727.15	55.59
727.551	55.85
727.952	56.09
728.354	56.36
728.755	56.63
729.156	56.88
729.557	57.15
729.958	57.39
730.359	57.6
730.76	57.8
731.161	58.04
731.562	58.21
731.962	58.41
732.363	58.58
732.763	58.74
733.164	58.89
733.564	59
733.965	59.16
734.365	59.26
734.766	59.42
735.166	59.52
735.566	59.62
735.966	59.74
736.366	59.85
736.766	59.98
737.166	60.09
737.566	60.2
737.966	60.3
738.365	60.4
738.765	60.52
739.165	60.59
739.564	60.7
739.964	60.78
740.363	60.87
740.763	60.94
741.162	61
741.561	61.1
741.96	61.17
742.36	61.29
742.759	61.33
743.158	61.4
743.557	61.48
743.955	61.57
744.354	61.71
744.753	61.8
745.152	61.87
745.55	61.96
745.949	62.01
746.348	62.08
746.746	62.13
747.144	62.22
747.543	62.29
747.941	62.35
748.339	62.39
748.737	62.45
749.136	62.47
749.534	62.54
749.932	62.54
750.33	62.59
750.727	62.61
751.125	62.62
751.523	62.6
751.921	62.62
752.318	62.62
752.716	62.6
753.113	62.59
753.511	62.57
753.908	62.53
754.305	62.51
754.703	62.46
755.1	62.47
755.497	62.46
755.894	62.51
756.291	62.47
756.688	62.46
757.085	62.46
757.482	62.42
757.878	62.47
758.275	62.45
758.672	62.48
759.068	62.52
759.465	62.53
759.861	62.5
760.258	62.47
760.654	62.5
761.05	62.5
761.447	62.48
761.843	62.49
762.239	62.45
762.635	62.49
763.031	62.49
763.427	62.47
763.822	62.41
764.218	62.41
764.614	62.41
765.01	62.41
765.405	62.41
765.801	62.41
766.196	62.42
766.592	62.43
766.987	62.43
767.382	62.43
767.778	62.45
768.173	62.48
768.568	62.5
768.963	62.52
769.358	62.48
769.753	62.52
770.148	62.53
770.542	62.56
770.937	62.54
771.332	62.55
771.726	62.53
772.121	62.51
772.515	62.52
772.91	62.51
773.304	62.51
773.699	62.53
774.093	62.45
774.487	62.46
774.881	62.46
775.275	62.49
775.669	62.51
776.063	62.52
776.457	62.51
776.851	62.47
777.245	62.53
777.638	62.55
778.032	62.56
778.425	62.61
778.819	62.63
779.212	62.6
779.606	62.59
779.999	62.56
780.392	62.57
780.786	62.58
781.179	62.64
781.572	62.56
781.965	62.53
782.358	62.48
782.751	62.5
783.143	62.52
783.536	62.56
783.929	62.61
784.322	62.64
784.714	62.65
785.107	62.71
785.499	62.7
785.891	62.78
786.284	62.79
786.676	62.87
787.068	62.87
787.46	62.85
787.852	62.84
788.245	62.81
788.636	62.79
789.028	62.78
789.42	62.75
789.812	62.75
790.204	62.68
790.595	62.71
790.987	62.7
791.378	62.71
791.77	62.72
792.161	62.7
792.553	62.69
792.944	62.76
793.335	62.78
793.726	62.76
794.117	62.71
794.508	62.73
794.899	62.73
795.29	62.73
795.681	62.73
796.072	62.77
796.463	62.81
796.853	62.83
797.244	62.78
797.634	62.77
798.025	62.81
798.415	62.88
798.806	62.94
799.196	62.97
799.586	62.99
799.976	63.03
800.366	63.01
800.756	63.03
801.146	63.05
801.536	63.11
801.926	63.12
802.316	63.16
802.706	63.2
803.095	63.23
803.485	63.23
803.874	63.25
804.264	63.25
804.653	63.27
805.043	63.28
805.432	63.26
805.821	63.28
806.21	63.33
806.599	63.39
806.988	63.37
807.377	63.38
807.766	63.44
808.155	63.45
808.544	63.48
808.933	63.53
809.321	63.58
809.71	63.69
810.098	63.68
810.487	63.68
810.875	63.68
811.264	63.7
811.652	63.7
812.04	63.68
812.428	63.71
812.816	63.71
813.204	63.68
813.592	63.67
813.98	63.65
814.368	63.67
814.756	63.71
815.144	63.73
815.531	63.77
815.919	63.78
816.306	63.79
816.694	63.8
817.081	63.78
817.469	63.81
817.856	63.85
818.243	63.86
818.63	63.9
819.017	63.88
819.404	63.87
819.791	63.87
820.178	63.92
820.565	63.95
820.952	63.95
821.339	64.01
821.725	64.03
822.112	64.02
822.498	64.02
822.885	64.01
823.271	64.03
823.657	64.03
824.044	64.01
824.43	64.01
824.816	64
825.202	63.98
825.588	63.95
825.974	63.9
826.36	63.87
826.746	63.86
827.132	63.79
827.517	63.77
827.903	63.77
828.289	63.77
828.674	63.69
829.06	63.68
829.445	63.69
829.83	63.69
830.216	63.71
830.601	63.69
830.986	63.68
831.371	63.72
831.756	63.69
832.141	63.67
832.526	63.63
832.911	63.67
833.295	63.64
833.68	63.63
834.065	63.61
834.449	63.59
834.834	63.56
835.218	63.55
835.603	63.53
835.987	63.5
836.371	63.5
836.755	63.5
837.139	63.43
837.524	63.4
837.908	63.34
838.291	63.34
838.675	63.32
839.059	63.3
839.443	63.27
839.827	63.22
840.21	63.24
840.594	63.2
840.977	63.19
841.361	63.19
841.744	63.19
842.127	63.19
842.511	63.16
842.894	63.12
843.277	63.12
843.66	63.1
844.043	63.12
844.426	63.12
844.809	63.13
845.191	63.12
845.574	63.09
845.957	63.09
846.339	63.08
846.722	63.11
847.104	63.12
847.487	63.14
847.869	63.17
848.252	63.14
848.634	63.12
849.016	63.12
849.398	63.12
849.78	63.14
850.162	63.12
850.544	63.13
850.926	63.09
851.307	63.1
851.689	63.07
852.071	63.04
852.452	63.05
852.834	63.03
853.215	63.03
853.597	62.99
853.978	62.96
854.359	62.98
854.741	63
855.122	63
855.503	63
855.884	63.03
856.265	63.02
856.646	63.01
857.026	63.04
857.407	63.01
857.788	63.06
858.169	63.1
858.549	63.11
858.93	63.08
859.31	63.08
859.69	63.06
860.071	63.04
860.451	63.06
860.831	63.08
861.211	63.07
861.591	63.09
861.971	63.05
862.351	63.05
862.731	63.04
863.111	63.05
863.491	63.06
863.87	63.07
864.25	63.11
864.629	63.08
865.009	63.06
865.388	63.04
865.768	63.05
866.147	63.07
866.526	63.07
866.905	63.07
867.284	63.1
867.663	63.08
868.042	63.09
868.421	63.05
868.8	63.05
869.179	63.06
869.558	63.07
869.936	63.05
870.315	63.03
870.693	63.02
871.072	63
871.45	62.95
871.828	62.95
872.207	62.93
872.585	62.93
872.963	62.94
873.341	62.93
873.719	62.94
874.097	62.94
874.475	62.96
874.853	62.99
875.23	63.01
875.608	63.05
875.986	63.06
876.363	63.07
876.741	63.08
877.118	63.08
877.495	63.06
877.873	63.06
878.25	63.06
878.627	63.07
879.004	63.04
879.381	63.02
879.758	62.99
880.135	62.99
880.512	62.99
880.889	62.97
881.265	62.98
881.642	63
882.019	62.97
882.395	62.96
882.772	62.96
883.148	62.93
883.524	62.96
883.901	62.94
884.277	62.92
884.653	62.92
885.029	62.91
885.405	62.9
885.781	62.83
886.157	62.82
886.532	62.8
886.908	62.79
887.284	62.77
887.659	62.75
888.035	62.74
888.411	62.72
888.786	62.67
889.161	62.69
889.537	62.66
889.912	62.69
890.287	62.66
890.662	62.65
891.037	62.59
891.412	62.55
891.787	62.5
892.162	62.45
892.536	62.42
892.911	62.4
893.286	62.34
893.66	62.3
894.035	62.26
894.409	62.24
894.784	62.22
895.158	62.21
895.532	62.17
895.906	62.17
896.281	62.14
896.655	62.13
897.029	62.1
897.402	62.12
897.776	62.13
898.15	62.15
898.524	62.12
898.898	62.1
899.271	62.11
899.645	62.13
900.018	62.12
900.392	62.15
900.765	62.16
901.138	62.18
901.511	62.16
901.884	62.15
902.258	62.12
902.631	62.12
903.003	62.15
903.376	62.15
903.749	62.17
904.122	62.19
904.495	62.19
904.867	62.19
905.24	62.18
905.612	62.16
905.985	62.16
906.357	62.16
906.729	62.19
907.102	62.21
907.474	62.22
907.846	62.21
908.218	62.17
908.59	62.17
908.962	62.16
909.334	62.16
909.705	62.19
910.077	62.18
910.449	62.17
910.82	62.15
911.192	62.1
911.563	62.09
911.935	62.05
912.306	62.08
912.677	62.1
913.048	62.14
913.419	62.15
913.79	62.1
914.161	62.11
914.532	62.11
914.903	62.12
915.274	62.15
915.645	62.13
916.015	62.18
916.386	62.18
916.756	62.17
917.127	62.13
917.497	62.13
917.868	62.18
918.238	62.19
918.608	62.19
918.978	62.19
919.348	62.13
919.718	62.16
920.088	62.17
920.458	62.17
920.828	62.16
921.198	62.18
921.567	62.16
921.937	62.14
922.306	62.11
922.676	62.15
923.045	62.12
923.415	62.17
923.784	62.18
924.153	62.18
924.522	62.15
924.891	62.14
925.26	62.1
925.629	62.1
925.998	62.08
926.367	62.11
926.736	62.09
927.104	62.12
927.473	62.09
927.842	62.05
928.21	62.03
928.578	62.01
928.947	62.04
929.315	62.03
929.683	62.06
930.051	62.03
930.42	61.97
930.788	61.97
931.156	61.91
931.523	61.94
931.891	61.89
932.259	61.81
932.627	61.76
932.994	61.67
933.362	61.62
933.729	61.49
934.097	61.46
934.464	61.39
934.831	61.27
935.199	61.21
935.566	61.05
935.933	61.04
936.3	60.98
936.667	60.94
937.034	60.9
937.401	60.9
937.767	60.93
938.134	60.97
938.501	61.02
938.867	61.13
939.234	61.21
939.6	61.35
939.967	61.44
940.333	61.56
940.699	61.76
941.065	61.92
941.431	62
941.798	62.14
942.163	62.27
942.529	62.39
942.895	62.51
943.261	62.63
943.627	62.79
943.992	62.81
944.358	62.89
944.723	62.9
945.089	62.94
945.454	63.02
945.82	62.99
946.185	62.98
946.55	63.03
946.915	62.98
947.28	62.89
947.645	62.81
948.01	62.85
948.375	62.87
948.74	62.84
949.104	62.82
949.469	62.75
949.834	62.74
950.198	62.6
950.562	62.54
950.927	62.48
951.291	62.44
951.655	62.39
952.02	62.35
952.384	62.34
952.748	62.29
953.112	62.2
953.476	62.12
953.839	62.02
954.203	62
954.567	61.92
954.931	61.91
955.294	61.86
955.658	61.83
956.021	61.72
956.385	61.61
956.748	61.6
957.111	61.53
957.474	61.55
957.837	61.57
958.2	61.48
958.563	61.45
958.926	61.38
959.289	61.36
959.652	61.28
960.015	61.29
960.377	61.24
960.74	61.15
961.102	61.14
961.465	61.06
961.827	60.94
962.189	60.92
962.552	60.84
962.914	60.75
963.276	60.74
963.638	60.71
964	60.63
964.362	60.69
964.724	60.68
965.085	60.68
965.447	60.56
965.809	60.54
966.17	60.62
966.532	60.65
966.893	60.65
967.255	60.62
967.616	60.64
967.977	60.65
968.338	60.57
968.699	60.5
969.061	60.45
969.421	60.53
969.782	60.53
970.143	60.48
970.504	60.47
970.865	60.47
971.225	60.46
971.586	60.45
971.946	60.48
972.307	60.45
972.667	60.5
973.027	60.47
973.388	60.51
973.748	60.47
974.108	60.46
974.468	60.42
974.828	60.4
975.188	60.46
975.548	60.51
975.907	60.44
976.267	60.47
976.627	60.51
976.986	60.58
977.346	60.52
977.705	60.6
978.064	60.65
978.424	60.64
978.783	60.65
979.142	60.61
979.501	60.56
979.86	60.6
980.219	60.55
980.578	60.44
980.937	60.41
981.296	60.43
981.654	60.45
982.013	60.5
982.371	60.51
982.73	60.61
983.088	60.56
983.447	60.58
983.805	60.59
984.163	60.62
984.521	60.58
984.879	60.53
985.237	60.68
985.595	60.71
985.953	60.65
986.311	60.68
986.669	60.69
987.026	60.83
987.384	60.8
987.741	60.78
988.099	60.76
988.456	60.9
988.814	61.1
989.171	61.05
989.528	61
989.885	60.96
990.242	61.09
990.599	61.12
990.956	61.05
991.313	61.04
991.67	61.12
992.027	61.19
992.383	61.27
992.74	61.31
993.096	61.36
993.453	61.36
993.809	61.57
994.165	61.48
994.522	61.42
994.878	61.36
995.234	61.47
995.59	61.42
995.946	61.52
996.302	61.45
996.658	61.37
997.013	61.28
997.369	61.3
997.725	61.22
998.08	61.28
998.436	61.39
998.791	61.49
999.147	61.57
999.502	61.71
999.857	61.7
1000.212	61.73
1000.567	61.7
1000.922	61.76
1001.277	61.8
1001.632	61.93
1001.987	61.94
1002.342	61.96
1002.696	62.14
1003.051	61.92
1003.406	61.83
1003.76	61.83
1004.114	62
1004.469	62.1
1004.823	62.28
1005.177	62.5
1005.531	62.39
1005.885	62.56
1006.239	62.7
1006.593	62.55
1006.947	62.82
1007.301	63.08
1007.655	63.23
1008.008	63.01
1008.362	62.99
1008.715	62.98
1009.069	62.86
1009.422	62.88
1009.776	62.92
1010.129	62.69
1010.482	62.99
1010.835	62.97
1011.188	62.98
1011.541	62.79
1011.894	63.13
1012.247	63.25
1012.6	63.25
1012.952	63.56
1013.305	63.62
1013.657	63.68
1014.01	63.93
1014.362	63.87
1014.715	63.89
1015.067	64.15
1015.419	64.52
1015.771	64.57
1016.123	64.69
1016.475	64.96
1016.827	64.95
1017.179	65.4
1017.531	65.35
1017.883	65.77
1018.234	65.88
1018.586	66.19
1018.938	66
1019.289	66.23
1019.64	66.61
1019.992	66.91
1020.343	66.78
1020.694	66.86
1021.045	66.61
1021.396	66.89
1021.747	66.48
1022.098	66.84
1022.449	66.73
1022.8	66.94
1023.151	67.2
1023.501	67.17
1023.852	67.36
1024.202	67.57
1024.553	67.42
1024.903	67.69
1025.253	67.81
1025.604	68.33
1025.954	68.09
1026.304	68.86
1026.654	69.21
1027.004	68.86
1027.354	69.09
1027.703	68.82
1028.053	69.03
1028.403	69.05
1028.753	69.53
1029.102	69.59
1029.452	69.56
1029.801	69.81
1030.15	69.45
1030.499	69.23
897.758	672.76
901.051	687.52
904.343	692.27
907.636	680.14
910.928	669.23
914.22	679.4
917.511	664.28
920.803	634.71
924.094	607.73
927.384	612.52
930.675	596.09
933.965	589.63
937.255	587.11
940.544	561.46
943.834	537.44
947.123	527.83
950.411	500.26
953.7	492.41
956.988	477.08
960.276	456.93
963.563	450.28
966.851	425.28
970.138	418.75
973.424	389.6
976.711	384.16
979.997	369.69
983.283	362.45
986.568	350.57
989.853	342.43
993.138	329.78
996.423	323.92
999.708	312.88
1002.992	314.96
1006.275	305.49
1009.559	302.01
1012.842	294.8
1016.125	285.63
1019.408	280.63
1022.69	277.46
1025.972	274.34
1029.254	267.2
1032.536	262.79
1035.817	256.93
1039.098	251.2
1042.379	245.11
1045.659	242.66
1048.939	240.38
1052.219	235.18
1055.498	229.8
1058.778	226.61
1062.057	222.78
1065.335	221.98
1068.614	218.18
1071.892	215.64
1075.17	211.32
1078.447	208.75
1081.724	207.01
1085.001	200.95
1088.278	202.97
1091.554	202.46
1094.83	200.63
1098.106	196.62
1101.382	195.56
1104.657	195.28
1107.932	193.62
1111.206	192.29
1114.481	190.66
1117.755	189
1121.029	189.72
1124.302	186.54
1127.575	182.88
1130.848	182.65
1134.121	180.8
1137.393	180.44
1140.665	179.36
1143.937	176.96
1147.208	176.19
1150.48	174.26
1153.75	173.58
1157.021	171.97
1160.291	170.7
1163.561	171.5
1166.831	168.74
1170.101	168.42
1173.37	166.9
1176.639	165.16
1179.907	165.95
1183.176	164.8
1186.444	165.26
1189.711	163.97
1192.979	164.92
1196.246	165.25
1199.513	164.48
1202.78	166
1206.046	165.98
1209.312	166.49
1212.578	167.47
1215.843	168.9
1219.108	170.04
1222.373	172.68
1225.638	175.85
1228.902	179.3
1232.166	185.68
1235.43	188.13
1238.693	191.99
1241.956	196.38
1245.219	201.89
1248.482	203.25
1251.744	202.42
1255.006	203.04
1258.268	198.28
1261.529	196.25
1264.79	190.94
1268.051	186.93
1271.312	185.66
1274.572	182.68
1277.832	177.24
1281.092	174.65
1284.351	171.15
1287.61	171.21
1290.869	171.44
1294.128	170.65
1297.386	168.95
1300.644	168.68
1303.902	168.15
1307.159	166.8
1310.416	167.51
1313.673	170.64
1316.93	172.21
1320.186	175.21
1323.442	177.4
1326.697	180.41
1329.953	181.62
1333.208	188.58
1336.463	196.14
1339.717	198.84
1342.972	208.47
1346.226	214.57
1349.479	216.08
1352.733	224.48
1355.986	229.6
1359.238	233.86
1362.491	235.41
1365.743	244.76
1368.995	244.78
1372.247	244.52
1375.498	243.15
1378.749	252.53
1382	250.64
1385.251	250.11
1388.501	250.66
1391.751	252.67
1395	250.1
1398.25	253.67
1401.499	253.36
1404.748	255
1407.996	247.94
1411.244	248.73
1414.492	243.6
1417.74	239.17
1420.987	232.39
1424.234	228.26
1427.481	218.21
1430.728	214.01
1433.974	205.54
1437.22	198.03
1440.465	190.92
1443.711	186.01
1446.956	180.7
1450.201	172.98
1453.445	163.86
1456.689	159.55
1459.933	153.91
1463.177	148.46
1466.42	145.71
1469.663	141.74
1472.906	137.93
1476.148	133.59
1479.391	130.24
1482.633	127.37
1485.874	125.64
1489.115	125.05
1492.356	123.51
1495.597	121.37
1498.838	120.82
1502.078	119.43
1505.318	118.55
1508.557	117.87
1511.797	117.26
1515.036	117.21
1518.274	117.08
1521.513	114.98
1524.751	114.29
1527.989	114.86
1531.227	114.95
1534.464	114.51
1537.701	113.67
1540.938	112.83
1544.174	112.88
1547.41	111.77
1550.646	112.48
1553.882	112.13
1557.117	112.65
1560.352	112.19
1563.587	110.89
1566.821	110.7
1570.055	110.2
1573.289	109.85
1576.523	110.14
1579.756	109.51
1582.989	110.18
1586.222	109.33
1589.454	109.6
1592.686	109.35
1595.918	109.17
1599.15	109.4
1602.381	109.63
1605.612	109.58
1608.843	109.97
1612.073	109.62
1615.303	110.19
1618.533	110.05
1621.762	110.43
1624.992	110.01
1628.221	109.48
1631.449	110.23
1634.678	110.18
1637.906	110.02
1641.134	110.31
1644.361	109.91
1647.588	110.58
1650.815	110.4
1654.042	110.62
1657.269	109.76
1660.495	110.28
1663.72	110.78
1666.946	110.47
1670.171	110.85
1673.396	111.68
1676.621	111.61
1679.845	112.36
1683.069	111.96
1686.293	111.66
1689.517	112
1692.74	112.52
1695.963	112.63
1699.185	113.36
1702.408	113.47
1705.63	113.39
1708.852	113.74
1712.073	113.93
1715.294	113.42
1718.515	114.35
1721.736	114.73
1724.956	114.85
1728.176	114.84
1731.396	115.42
1734.616	114.88
1737.835	115.47
1741.054	115.22
1744.272	114.87
1747.491	115.13
1750.709	116.42
1753.927	116.21
1757.144	117.08
1760.361	117.39
1763.578	117.93
1766.795	118.07
1770.011	118.55
1773.227	118.51
1776.443	119.8
1779.658	120.2
1782.874	120.14
1786.089	119.57
1789.303	120.1
1792.518	120.77
1795.732	121.71
1798.945	122.46
1802.159	122.78
1805.372	124.46
1808.585	125.94
1811.797	126.77
1815.01	127.89
1818.222	129.83
1821.434	130.81
1824.645	131.99
1827.856	134.01
1831.067	134.84
1834.278	135.68
1837.488	136.79
1840.698	137.56
1843.908	137.69
1847.117	139.55
1850.326	140.54
1853.535	140.37
1856.744	142.45
1859.952	143.63
1863.16	143.51
1866.368	141.75
1869.575	143.63
1872.782	143.52
1875.989	142.69
1879.196	142.67
1882.402	140.29
1885.608	140.29
1888.814	140.57
1892.019	141.27
1895.224	139.15
1898.429	138.62
1901.634	140.99
1904.838	140.91
1908.042	141.84
1911.246	141.83
1914.449	142.3
1917.652	143
1920.855	143.51
1924.058	142.15
1927.26	141.6
1930.462	143.22
1933.664	143.8
1936.865	144.46
1940.066	141.31
1943.267	140.14
1946.467	141.57
1949.668	141.66
1952.868	142.5
1956.067	142.04
1959.267	142.49
1962.466	142.49
1965.665	143.52
1968.863	144.38
1972.061	144.27
1975.259	149.44
1978.457	151.13
1981.654	151.18
1984.852	152.8
1988.048	154.21
1991.245	157.13
1994.441	160.78
1997.637	165.02
2000.833	166.94
2004.028	168.3
2007.223	173.85
2010.418	175.63
2013.613	181.9
2016.807	187.72
2020.001	190.83
2023.194	196.61
2026.388	203.4
2029.581	213.67
2032.774	218.43
2035.966	224.79
2039.158	231.42
2042.35	235.22
2045.542	240.1
2048.733	251.27
2051.924	253.27
2055.115	257.33
2058.306	260.12
2061.496	264.49
2064.686	263.4
2067.875	262.28
2071.065	264.66
2074.254	265.6
2077.442	273.49
2080.631	277.09
2083.819	276.29
2087.007	281.71
2090.195	287.8
2093.382	288.55
2096.569	288.07
2099.756	293.2
2102.942	300
2106.128	308.78
2109.314	310.41
2112.5	309.47
2115.685	307.07
2118.87	307.73
2122.055	310.15
2125.239	313.88
2128.424	321.06
2131.608	319.37
2134.791	321.79
2137.974	322.01
2141.157	323.07
2144.34	327.17
2147.523	335.15
2150.705	344.41
2153.887	339.33
2157.068	342.06
2160.25	345.57
2163.431	342.85
2166.611	349.39
2169.792	356.08
2172.972	360.57
2176.152	358.64
2179.331	366.31
2182.511	365.1
2185.69	367.35
2188.868	385.74
2192.047	394.82
2195.225	399.78
2198.403	406.64
2201.58	399.15
2204.758	412.51
2207.935	416.56
2211.111	428.53
2214.288	428.91
2217.464	432.47
2220.64	438.1
2223.815	438.29
2226.991	431.79
2230.166	435.94
2233.34	450.38
2236.515	469.43
2239.689	458.03
2242.863	466.96
2246.036	460.88
2249.209	475.5
2252.382	474.14
2255.555	488.11
2258.727	489.39
2261.9	508.17
2265.071	516.75
2268.243	509.47
2271.414	520.64
2274.585	534.25
2277.756	532.98
2280.926	557.77
2284.096	553.12
2287.266	559.63
2290.436	550.99
2293.605	565.72
2296.774	584.23
2299.942	580.57
2303.111	600.46
2306.279	613.3
2309.447	614.45
2312.614	615.72
2315.781	628.33
2318.948	636.11
2322.115	645.63
2325.281	680.83
2328.447	675.1
2331.613	676.96
2334.779	688.17
2337.944	701.88
2341.109	712.16
2344.274	720.77
2347.438	741.41
2350.602	752.65
2353.766	801.06
2356.929	804.99
2360.092	807.13
2363.255	811.02
2366.418	820.82
2369.58	841.08
2372.742	840.87
2375.904	836.11
2379.066	861.81
2382.227	915.04
2385.388	912.19
2388.548	864.01
2391.709	854.44
2394.869	890.96
2398.029	893.75
2401.188	892.14
2404.347	922.87
2407.506	946.53
2410.665	913.79
2413.823	919.79
2416.981	916.29
2420.139	869.49
2423.296	947.7
2426.453	1009.38
2429.61	957.86
2432.767	1023.01
2435.923	1054.42
2439.079	1017.19
2442.235	1041.88
2445.391	1074.66
2448.546	1060.43
2451.701	1121.21
2454.855	1201.81
2458.009	1062.94
2461.163	1073.17
2464.317	1094.78
2467.471	1064.14
2470.624	1108.1
2473.777	1083.79
2476.929	1050.79
2480.082	1119.49
2483.234	1176.03
2486.385	1195.86
2489.537	1222.62
2492.688	1342.5
2495.839	1326.54
2498.989	1362.49
2502.14	1380.44
2505.29	1314.64
2508.439	1451.93
2511.589	1488.56
2514.738	1436.15
2517.887	1421.8
2521.035	1334.86
2524.183	1317.83
2527.331	1301.12
2530.479	1272.57
2533.627	1298.39
