Data from c_3_dec_ct_2n_Splice17_09.txt Node
Date: Sat Feb 29 14:45:43 EST 2020
User: sa697716
Spectrometer: FLMS03696
Trigger mode: 0
Integration Time (sec): 3.180400E-1
Scans to average: 20
Electric dark correction enabled: true
Nonlinearity correction enabled: true
Boxcar width: 5
XAxis mode: Wavelengths
Number of Pixels in Spectrum: 2048
>>>>>Begin Spectral Data<<<<<
187.83	42.53
188.298	33.84
188.766	39.94
189.233	43.95
189.701	50.36
190.169	60.38
190.636	69.2
191.104	59.79
191.571	180.5
192.039	232.89
192.506	-263.41
192.974	2452.71
193.441	119.3
193.908	57.81
194.375	65.68
194.842	194.04
195.31	139.76
195.777	156.61
196.244	33.1
196.711	20.25
197.177	15.27
197.644	15.17
198.111	13.17
198.578	13.72
199.045	13.52
199.511	14.18
199.978	14.42
200.445	14.82
200.911	14.72
201.378	14.67
201.844	14.61
202.31	15.58
202.777	15.4
203.243	16.35
203.709	16.47
204.176	16.58
204.642	16.73
205.108	16.48
205.574	16.61
206.04	16.7
206.506	16.87
206.972	17.11
207.438	16.42
207.903	17.03
208.369	16.74
208.835	16.81
209.301	16.97
209.766	16.7
210.232	16.79
210.697	16.75
211.163	17.02
211.628	17.07
212.094	16.73
212.559	16.63
213.024	16.08
213.49	16.08
213.955	16.24
214.42	16.01
214.885	16.21
215.35	15.97
215.815	15.51
216.28	15.05
216.745	14.95
217.21	14.7
217.675	14.57
218.14	14.25
218.604	13.75
219.069	13.42
219.534	13.15
219.998	12.88
220.463	12.77
220.927	12.6
221.392	12.5
221.856	12.3
222.32	12.17
222.785	12.01
223.249	11.89
223.713	11.79
224.177	11.61
224.642	11.55
225.106	11.42
225.57	11.28
226.034	11.19
226.497	11.04
226.961	10.88
227.425	10.74
227.889	10.62
228.353	10.48
228.816	10.39
229.28	10.27
229.744	10.12
230.207	10
230.671	9.9
231.134	9.78
231.597	9.68
232.061	9.57
232.524	9.47
232.987	9.37
233.45	9.28
233.914	9.17
234.377	9.09
234.84	8.99
235.303	8.91
235.766	8.79
236.229	8.7
236.691	8.59
237.154	8.5
237.617	8.42
238.08	8.31
238.542	8.21
239.005	8.11
239.468	8
239.93	7.93
240.393	7.83
240.855	7.74
241.317	7.66
241.78	7.58
242.242	7.5
242.704	7.43
243.166	7.36
243.629	7.29
244.091	7.22
244.553	7.17
245.015	7.09
245.477	7.03
245.939	6.96
246.4	6.9
246.862	6.84
247.324	6.79
247.786	6.72
248.247	6.67
248.709	6.63
249.17	6.58
249.632	6.52
250.093	6.47
250.555	6.41
251.016	6.38
251.477	6.33
251.939	6.29
252.4	6.25
252.861	6.22
253.322	6.17
253.783	6.14
254.244	6.11
254.705	6.08
255.166	6.05
255.627	6.03
256.088	6.01
256.549	5.97
257.009	5.95
257.47	5.92
257.931	5.88
258.391	5.84
258.852	5.8
259.312	5.77
259.773	5.73
260.233	5.7
260.694	5.67
261.154	5.63
261.614	5.6
262.074	5.57
262.534	5.53
262.994	5.51
263.455	5.49
263.915	5.47
264.374	5.45
264.834	5.43
265.294	5.4
265.754	5.38
266.214	5.36
266.673	5.34
267.133	5.32
267.593	5.31
268.052	5.28
268.512	5.26
268.971	5.24
269.431	5.22
269.89	5.21
270.349	5.2
270.809	5.18
271.268	5.17
271.727	5.16
272.186	5.14
272.645	5.11
273.104	5.1
273.563	5.09
274.022	5.07
274.481	5.05
274.94	5.03
275.399	5.01
275.857	5
276.316	4.97
276.775	4.95
277.233	4.93
277.692	4.92
278.15	4.9
278.609	4.88
279.067	4.86
279.525	4.83
279.984	4.81
280.442	4.8
280.9	4.79
281.358	4.77
281.816	4.76
282.274	4.73
282.732	4.71
283.19	4.7
283.648	4.68
284.106	4.67
284.564	4.66
285.021	4.64
285.479	4.63
285.937	4.61
286.394	4.59
286.852	4.59
287.309	4.59
287.767	4.58
288.224	4.57
288.682	4.55
289.139	4.56
289.596	4.54
290.053	4.52
290.511	4.5
290.968	4.48
291.425	4.47
291.882	4.46
292.339	4.43
292.796	4.41
293.252	4.39
293.709	4.38
294.166	4.35
294.623	4.34
295.079	4.33
295.536	4.32
295.992	4.31
296.449	4.29
296.905	4.27
297.362	4.25
297.818	4.25
298.274	4.23
298.731	4.21
299.187	4.2
299.643	4.19
300.099	4.18
300.555	4.16
301.011	4.15
301.467	4.14
301.923	4.13
302.379	4.13
302.835	4.12
303.291	4.11
303.746	4.1
304.202	4.09
304.658	4.08
305.113	4.07
305.569	4.06
306.024	4.05
306.479	4.04
306.935	4.02
307.39	4.01
307.845	4
308.301	4
308.756	4.01
309.211	4.01
309.666	4.01
310.121	4
310.576	4
311.031	4
311.486	4
311.94	4.01
312.395	4.01
312.85	4.01
313.305	4
313.759	3.99
314.214	3.98
314.668	3.97
315.123	3.97
315.577	3.96
316.032	3.95
316.486	3.95
316.94	3.94
317.394	3.92
317.849	3.9
318.303	3.9
318.757	3.88
319.211	3.87
319.665	3.87
320.119	3.86
320.572	3.87
321.026	3.86
321.48	3.85
321.934	3.84
322.387	3.83
322.841	3.83
323.295	3.81
323.748	3.82
324.202	3.82
324.655	3.8
325.108	3.8
325.562	3.78
326.015	3.76
326.468	3.75
326.921	3.74
327.374	3.74
327.827	3.73
328.28	3.72
328.733	3.7
329.186	3.69
329.639	3.69
330.092	3.68
330.545	3.67
330.997	3.68
331.45	3.68
331.903	3.67
332.355	3.66
332.808	3.66
333.26	3.65
333.713	3.65
334.165	3.65
334.617	3.65
335.069	3.65
335.522	3.66
335.974	3.66
336.426	3.66
336.878	3.65
337.33	3.64
337.782	3.64
338.234	3.64
338.686	3.64
339.137	3.64
339.589	3.64
340.041	3.63
340.493	3.61
340.944	3.61
341.396	3.6
341.847	3.6
342.299	3.6
342.75	3.58
343.201	3.56
343.653	3.56
344.104	3.55
344.555	3.54
345.006	3.53
345.457	3.53
345.908	3.52
346.359	3.51
346.81	3.51
347.261	3.5
347.712	3.51
348.163	3.51
348.613	3.5
349.064	3.48
349.515	3.47
349.965	3.47
350.416	3.46
350.866	3.46
351.317	3.46
351.767	3.45
352.217	3.44
352.668	3.44
353.118	3.43
353.568	3.43
354.018	3.45
354.468	3.44
354.918	3.44
355.368	3.44
355.818	3.43
356.268	3.43
356.718	3.43
357.168	3.43
357.617	3.42
358.067	3.41
358.517	3.4
358.966	3.39
359.416	3.39
359.865	3.38
360.315	3.38
360.764	3.38
361.213	3.37
361.663	3.37
362.112	3.39
362.561	3.39
363.01	3.41
363.459	3.4
363.908	3.4
364.357	3.41
364.806	3.42
365.255	3.43
365.703	3.43
366.152	3.43
366.601	3.43
367.05	3.43
367.498	3.44
367.947	3.44
368.395	3.45
368.844	3.46
369.292	3.45
369.74	3.44
370.189	3.43
370.637	3.43
371.085	3.43
371.533	3.42
371.981	3.41
372.429	3.39
372.877	3.38
373.325	3.37
373.773	3.36
374.221	3.36
374.669	3.36
375.116	3.36
375.564	3.35
376.012	3.36
376.459	3.36
376.907	3.36
377.354	3.36
377.801	3.36
378.249	3.38
378.696	3.38
379.143	3.38
379.591	3.38
380.038	3.39
380.485	3.4
380.932	3.41
381.379	3.41
381.826	3.41
382.273	3.41
382.72	3.42
383.166	3.41
383.613	3.4
384.06	3.41
384.506	3.41
384.953	3.4
385.4	3.4
385.846	3.39
386.292	3.39
386.739	3.38
387.185	3.4
387.631	3.4
388.078	3.42
388.524	3.4
388.97	3.39
389.416	3.39
389.862	3.39
390.308	3.39
390.754	3.4
391.2	3.41
391.645	3.42
392.091	3.41
392.537	3.41
392.983	3.41
393.428	3.43
393.874	3.44
394.319	3.45
394.765	3.46
395.21	3.46
395.655	3.47
396.101	3.49
396.546	3.49
396.991	3.49
397.436	3.5
397.881	3.5
398.326	3.52
398.771	3.54
399.216	3.55
399.661	3.58
400.106	3.6
400.551	3.6
400.995	3.6
401.44	3.61
401.885	3.62
402.329	3.64
402.774	3.65
403.218	3.64
403.663	3.64
404.107	3.64
404.551	3.64
404.995	3.64
405.44	3.66
405.884	3.67
406.328	3.69
406.772	3.71
407.216	3.72
407.66	3.73
408.104	3.74
408.547	3.76
408.991	3.75
409.435	3.76
409.879	3.78
410.322	3.79
410.766	3.79
411.209	3.8
411.653	3.8
412.096	3.8
412.54	3.82
412.983	3.83
413.426	3.84
413.869	3.87
414.312	3.89
414.756	3.9
415.199	3.93
415.642	3.98
416.085	4
416.527	4.03
416.97	4.05
417.413	4.05
417.856	4.06
418.298	4.07
418.741	4.06
419.184	4.06
419.626	4.07
420.069	4.05
420.511	4.04
420.953	4.04
421.396	4.04
421.838	4.05
422.28	4.08
422.722	4.1
423.164	4.1
423.606	4.1
424.048	4.09
424.49	4.11
424.932	4.12
425.374	4.12
425.816	4.12
426.258	4.11
426.699	4.09
427.141	4.07
427.582	4.06
428.024	4.06
428.465	4.07
428.907	4.1
429.348	4.08
429.789	4.09
430.231	4.07
430.672	4.08
431.113	4.08
431.554	4.09
431.995	4.11
432.436	4.11
432.877	4.11
433.318	4.1
433.759	4.09
434.2	4.08
434.64	4.09
435.081	4.1
435.522	4.12
435.962	4.13
436.403	4.17
436.843	4.16
437.284	4.18
437.724	4.2
438.164	4.21
438.604	4.22
439.045	4.23
439.485	4.23
439.925	4.22
440.365	4.2
440.805	4.2
441.245	4.17
441.685	4.19
442.125	4.18
442.564	4.19
443.004	4.2
443.444	4.19
443.883	4.2
444.323	4.2
444.762	4.24
445.202	4.29
445.641	4.29
446.081	4.32
446.52	4.29
446.959	4.29
447.398	4.32
447.837	4.34
448.276	4.35
448.716	4.35
449.154	4.38
449.593	4.39
450.032	4.38
450.471	4.39
450.91	4.39
451.349	4.41
451.787	4.42
452.226	4.39
452.664	4.37
453.103	4.37
453.541	4.37
453.98	4.35
454.418	4.33
454.856	4.3
455.295	4.29
455.733	4.27
456.171	4.26
456.609	4.26
457.047	4.25
457.485	4.25
457.923	4.24
458.361	4.23
458.798	4.24
459.236	4.24
459.674	4.25
460.111	4.26
460.549	4.25
460.987	4.24
461.424	4.23
461.862	4.23
462.299	4.23
462.736	4.24
463.173	4.24
463.611	4.23
464.048	4.23
464.485	4.23
464.922	4.21
465.359	4.22
465.796	4.22
466.233	4.25
466.67	4.25
467.106	4.24
467.543	4.23
467.98	4.23
468.416	4.22
468.853	4.23
469.29	4.23
469.726	4.23
470.162	4.22
470.599	4.22
471.035	4.21
471.471	4.19
471.907	4.19
472.344	4.19
472.78	4.19
473.216	4.19
473.652	4.16
474.088	4.16
474.523	4.18
474.959	4.17
475.395	4.18
475.831	4.18
476.266	4.18
476.702	4.18
477.138	4.17
477.573	4.17
478.008	4.17
478.444	4.18
478.879	4.18
479.314	4.17
479.75	4.17
480.185	4.16
480.62	4.16
481.055	4.16
481.49	4.15
481.925	4.14
482.36	4.14
482.795	4.13
483.229	4.13
483.664	4.12
484.099	4.11
484.534	4.1
484.968	4.1
485.403	4.1
485.837	4.09
486.271	4.08
486.706	4.08
487.14	4.08
487.574	4.08
488.009	4.07
488.443	4.07
488.877	4.07
489.311	4.07
489.745	4.07
490.179	4.06
490.613	4.07
491.046	4.08
491.48	4.09
491.914	4.08
492.348	4.09
492.781	4.1
493.215	4.1
493.648	4.11
494.082	4.13
494.515	4.13
494.948	4.14
495.382	4.14
495.815	4.15
496.248	4.16
496.681	4.17
497.114	4.18
497.547	4.2
497.98	4.2
498.413	4.22
498.846	4.23
499.279	4.26
499.711	4.28
500.144	4.31
500.577	4.32
501.009	4.34
501.442	4.37
501.874	4.4
502.306	4.43
502.739	4.45
503.171	4.49
503.603	4.52
504.036	4.56
504.468	4.59
504.9	4.63
505.332	4.68
505.764	4.73
506.196	4.78
506.627	4.84
507.059	4.89
507.491	4.95
507.923	5
508.354	5.07
508.786	5.12
509.217	5.17
509.649	5.26
510.08	5.33
510.512	5.4
510.943	5.48
511.374	5.55
511.805	5.63
512.237	5.71
512.668	5.79
513.099	5.87
513.53	5.98
513.961	6.08
514.391	6.17
514.822	6.26
515.253	6.35
515.684	6.45
516.114	6.57
516.545	6.68
516.975	6.81
517.406	6.93
517.836	7.06
518.267	7.19
518.697	7.32
519.127	7.46
519.558	7.59
519.988	7.72
520.418	7.86
520.848	8
521.278	8.14
521.708	8.24
522.138	8.38
522.567	8.49
522.997	8.61
523.427	8.73
523.857	8.84
524.286	8.97
524.716	9.09
525.145	9.2
525.575	9.3
526.004	9.41
526.433	9.54
526.863	9.64
527.292	9.75
527.721	9.85
528.15	9.94
528.579	10.04
529.008	10.13
529.437	10.21
529.866	10.29
530.295	10.37
530.724	10.46
531.152	10.54
531.581	10.61
532.01	10.67
532.438	10.75
532.867	10.81
533.295	10.87
533.723	10.93
534.152	10.97
534.58	11.01
535.008	11.04
535.436	11.07
535.865	11.1
536.293	11.14
536.721	11.17
537.149	11.19
537.576	11.23
538.004	11.24
538.432	11.26
538.86	11.28
539.287	11.33
539.715	11.35
540.143	11.38
540.57	11.4
540.998	11.41
541.425	11.44
541.852	11.45
542.28	11.44
542.707	11.46
543.134	11.48
543.561	11.49
543.988	11.5
544.415	11.52
544.842	11.53
545.269	11.54
545.696	11.57
546.123	11.58
546.549	11.6
546.976	11.64
547.403	11.66
547.829	11.67
548.256	11.69
548.682	11.7
549.108	11.7
549.535	11.71
549.961	11.72
550.387	11.71
550.813	11.7
551.24	11.7
551.666	11.7
552.092	11.7
552.518	11.69
552.943	11.68
553.369	11.67
553.795	11.66
554.221	11.63
554.646	11.61
555.072	11.59
555.498	11.57
555.923	11.54
556.349	11.49
556.774	11.43
557.199	11.4
557.625	11.36
558.05	11.3
558.475	11.26
558.9	11.2
559.325	11.14
559.75	11.08
560.175	11.01
560.6	10.95
561.025	10.89
561.449	10.81
561.874	10.73
562.299	10.65
562.723	10.57
563.148	10.48
563.572	10.4
563.997	10.33
564.421	10.23
564.846	10.14
565.27	10.04
565.694	9.95
566.118	9.87
566.542	9.77
566.966	9.68
567.39	9.58
567.814	9.49
568.238	9.38
568.662	9.3
569.086	9.2
569.509	9.1
569.933	9.02
570.357	8.93
570.78	8.84
571.204	8.75
571.627	8.68
572.05	8.6
572.474	8.53
572.897	8.46
573.32	8.37
573.743	8.3
574.166	8.24
574.589	8.18
575.012	8.11
575.435	8.03
575.858	7.98
576.281	7.92
576.704	7.88
577.126	7.8
577.549	7.76
577.972	7.71
578.394	7.65
578.817	7.61
579.239	7.56
579.661	7.53
580.084	7.5
580.506	7.45
580.928	7.4
581.35	7.35
581.772	7.33
582.194	7.28
582.616	7.25
583.038	7.23
583.46	7.2
583.882	7.17
584.303	7.13
584.725	7.09
585.147	7.04
585.568	7
585.99	6.98
586.411	6.96
586.833	6.94
587.254	6.92
587.675	6.9
588.096	6.87
588.518	6.84
588.939	6.83
589.36	6.81
589.781	6.82
590.202	6.81
590.623	6.77
591.043	6.74
591.464	6.71
591.885	6.68
592.305	6.67
592.726	6.65
593.147	6.65
593.567	6.61
593.987	6.61
594.408	6.58
594.828	6.58
595.248	6.58
595.669	6.58
596.089	6.59
596.509	6.57
596.929	6.54
597.349	6.52
597.769	6.49
598.189	6.48
598.608	6.45
599.028	6.42
599.448	6.4
599.867	6.37
600.287	6.33
600.706	6.3
601.126	6.27
601.545	6.25
601.965	6.23
602.384	6.21
602.803	6.18
603.222	6.16
603.641	6.13
604.061	6.1
604.48	6.07
604.898	6.04
605.317	6.01
605.736	5.99
606.155	5.97
606.574	5.94
606.992	5.91
607.411	5.87
607.829	5.8
608.248	5.78
608.666	5.75
609.085	5.71
609.503	5.68
609.921	5.64
610.339	5.61
610.758	5.59
611.176	5.56
611.594	5.53
612.012	5.5
612.43	5.51
612.847	5.48
613.265	5.45
613.683	5.42
614.101	5.39
614.518	5.36
614.936	5.34
615.353	5.3
615.771	5.27
616.188	5.25
616.606	5.23
617.023	5.22
617.44	5.19
617.857	5.18
618.274	5.16
618.691	5.15
619.108	5.14
619.525	5.12
619.942	5.11
620.359	5.1
620.776	5.09
621.192	5.09
621.609	5.07
622.026	5.06
622.442	5.04
622.859	5.03
623.275	5.03
623.691	5.02
624.108	5.02
624.524	5
624.94	4.99
625.356	4.98
625.772	4.96
626.188	4.95
626.604	4.95
627.02	4.94
627.436	4.94
627.852	4.93
628.268	4.93
628.683	4.92
629.099	4.93
629.514	4.93
629.93	4.92
630.345	4.91
630.761	4.9
631.176	4.9
631.591	4.89
632.007	4.88
632.422	4.86
632.837	4.85
633.252	4.84
633.667	4.81
634.082	4.78
634.497	4.75
634.911	4.74
635.326	4.71
635.741	4.68
636.155	4.67
636.57	4.65
636.984	4.61
637.399	4.56
637.813	4.51
638.228	4.48
638.642	4.47
639.056	4.44
639.47	4.41
639.884	4.37
640.298	4.34
640.712	4.29
641.126	4.26
641.54	4.23
641.954	4.22
642.368	4.19
642.781	4.17
643.195	4.13
643.609	4.11
644.022	4.09
644.436	4.07
644.849	4.06
645.262	4.03
645.676	4
646.089	3.97
646.502	3.95
646.915	3.95
647.328	3.96
647.741	3.93
648.154	3.92
648.567	3.9
648.98	3.89
649.393	3.88
649.805	3.87
650.218	3.86
650.631	3.86
651.043	3.86
651.456	3.85
651.868	3.83
652.28	3.83
652.693	3.81
653.105	3.8
653.517	3.8
653.929	3.8
654.341	3.79
654.753	3.79
655.165	3.77
655.577	3.76
655.989	3.72
656.401	3.7
656.813	3.69
657.224	3.68
657.636	3.67
658.047	3.65
658.459	3.62
658.87	3.6
659.282	3.6
659.693	3.59
660.104	3.57
660.515	3.56
660.926	3.56
661.338	3.55
661.749	3.53
662.159	3.51
662.57	3.5
662.981	3.5
663.392	3.49
663.803	3.47
664.213	3.46
664.624	3.45
665.035	3.44
665.445	3.44
665.855	3.43
666.266	3.44
666.676	3.44
667.086	3.41
667.497	3.4
667.907	3.39
668.317	3.37
668.727	3.37
669.137	3.36
669.547	3.37
669.956	3.37
670.366	3.38
670.776	3.38
671.186	3.38
671.595	3.39
672.005	3.41
672.414	3.43
672.824	3.46
673.233	3.48
673.642	3.48
674.052	3.48
674.461	3.48
674.87	3.5
675.279	3.51
675.688	3.51
676.097	3.52
676.506	3.52
676.915	3.53
677.323	3.54
677.732	3.55
678.141	3.58
678.549	3.59
678.958	3.62
679.366	3.62
679.775	3.63
680.183	3.65
680.592	3.68
681	3.69
681.408	3.71
681.816	3.73
682.224	3.74
682.632	3.76
683.04	3.79
683.448	3.81
683.856	3.85
684.264	3.88
684.671	3.93
685.079	3.96
685.487	4.02
685.894	4.07
686.302	4.12
686.709	4.18
687.116	4.26
687.524	4.34
687.931	4.43
688.338	4.53
688.745	4.63
689.152	4.73
689.559	4.84
689.966	4.98
690.373	5.14
690.78	5.3
691.187	5.49
691.593	5.67
692	5.86
692.407	6.07
692.813	6.3
693.22	6.56
693.626	6.81
694.032	7.08
694.439	7.35
694.845	7.63
695.251	7.91
695.657	8.2
696.063	8.51
696.469	8.82
696.875	9.14
697.281	9.45
697.687	9.79
698.093	10.14
698.498	10.49
698.904	10.85
699.31	11.21
699.715	11.59
700.12	11.95
700.526	12.33
700.931	12.71
701.337	13.08
701.742	13.46
702.147	13.83
702.552	14.23
702.957	14.6
703.362	14.97
703.767	15.34
704.172	15.72
704.577	16.1
704.981	16.5
705.386	16.87
705.791	17.28
706.195	17.67
706.6	18.06
707.004	18.44
707.408	18.86
707.813	19.26
708.217	19.64
708.621	20.05
709.025	20.44
709.43	20.82
709.834	21.24
710.237	21.6
710.641	21.99
711.045	22.34
711.449	22.71
711.853	23.07
712.256	23.46
712.66	23.82
713.064	24.18
713.467	24.51
713.87	24.87
714.274	25.22
714.677	25.58
715.08	25.93
715.484	26.3
715.887	26.66
716.29	27
716.693	27.33
717.096	27.71
717.499	28.06
717.901	28.43
718.304	28.76
718.707	29.09
719.109	29.42
719.512	29.76
719.915	30.07
720.317	30.4
720.719	30.71
721.122	31.04
721.524	31.35
721.926	31.66
722.328	31.96
722.731	32.28
723.133	32.58
723.535	32.87
723.937	33.14
724.338	33.43
724.74	33.67
725.142	33.86
725.544	34.08
725.945	34.3
726.347	34.52
726.748	34.74
727.15	34.95
727.551	35.15
727.952	35.37
728.354	35.61
728.755	35.82
729.156	36.01
729.557	36.3
729.958	36.5
730.359	36.69
730.76	36.88
731.161	37.07
731.562	37.23
731.962	37.4
732.363	37.54
732.763	37.67
733.164	37.8
733.564	37.94
733.965	38.05
734.365	38.17
734.766	38.31
735.166	38.39
735.566	38.49
735.966	38.58
736.366	38.68
736.766	38.79
737.166	38.88
737.566	38.97
737.966	39.06
738.365	39.15
738.765	39.25
739.165	39.3
739.564	39.4
739.964	39.44
740.363	39.53
740.763	39.61
741.162	39.68
741.561	39.74
741.96	39.84
742.36	39.94
742.759	39.99
743.158	40.02
743.557	40.1
743.955	40.2
744.354	40.32
744.753	40.4
745.152	40.46
745.55	40.5
745.949	40.54
746.348	40.6
746.746	40.64
747.144	40.7
747.543	40.78
747.941	40.85
748.339	40.9
748.737	40.97
749.136	41
749.534	41.04
749.932	41.08
750.33	41.09
750.727	41.08
751.125	41.12
751.523	41.15
751.921	41.17
752.318	41.16
752.716	41.15
753.113	41.11
753.511	41.11
753.908	41.12
754.305	41.12
754.703	41.13
755.1	41.13
755.497	41.14
755.894	41.13
756.291	41.14
756.688	41.14
757.085	41.15
757.482	41.15
757.878	41.18
758.275	41.18
758.672	41.2
759.068	41.25
759.465	41.28
759.861	41.28
760.258	41.25
760.654	41.24
761.05	41.24
761.447	41.24
761.843	41.22
762.239	41.2
762.635	41.2
763.031	41.2
763.427	41.17
763.822	41.14
764.218	41.14
764.614	41.17
765.01	41.16
765.405	41.15
765.801	41.11
766.196	41.12
766.592	41.12
766.987	41.13
767.382	41.13
767.778	41.12
768.173	41.1
768.568	41.09
768.963	41.09
769.358	41.09
769.753	41.12
770.148	41.16
770.542	41.15
770.937	41.14
771.332	41.15
771.726	41.14
772.121	41.12
772.515	41.16
772.91	41.18
773.304	41.17
773.699	41.19
774.093	41.15
774.487	41.16
774.881	41.2
775.275	41.2
775.669	41.2
776.063	41.2
776.457	41.19
776.851	41.17
777.245	41.16
777.638	41.17
778.032	41.16
778.425	41.16
778.819	41.15
779.212	41.13
779.606	41.14
779.999	41.11
780.392	41.13
780.786	41.14
781.179	41.17
781.572	41.16
781.965	41.16
782.358	41.13
782.751	41.17
783.143	41.18
783.536	41.22
783.929	41.24
784.322	41.25
784.714	41.26
785.107	41.28
785.499	41.24
785.891	41.26
786.284	41.24
786.676	41.28
787.068	41.29
787.46	41.27
787.852	41.26
788.245	41.22
788.636	41.25
789.028	41.24
789.42	41.23
789.812	41.26
790.204	41.26
790.595	41.28
790.987	41.27
791.378	41.26
791.77	41.29
792.161	41.29
792.553	41.28
792.944	41.29
793.335	41.3
793.726	41.3
794.117	41.3
794.508	41.3
794.899	41.32
795.29	41.31
795.681	41.32
796.072	41.34
796.463	41.33
796.853	41.33
797.244	41.32
797.634	41.34
798.025	41.35
798.415	41.35
798.806	41.37
799.196	41.36
799.586	41.38
799.976	41.37
800.366	41.36
800.756	41.39
801.146	41.42
801.536	41.42
801.926	41.41
802.316	41.45
802.706	41.47
803.095	41.48
803.485	41.5
803.874	41.53
804.264	41.57
804.653	41.56
805.043	41.56
805.432	41.54
805.821	41.58
806.21	41.62
806.599	41.63
806.988	41.61
807.377	41.6
807.766	41.59
808.155	41.61
808.544	41.61
808.933	41.64
809.321	41.65
809.71	41.71
810.098	41.67
810.487	41.66
810.875	41.64
811.264	41.66
811.652	41.67
812.04	41.69
812.428	41.68
812.816	41.69
813.204	41.66
813.592	41.66
813.98	41.64
814.368	41.68
814.756	41.67
815.144	41.69
815.531	41.71
815.919	41.73
816.306	41.75
816.694	41.79
817.081	41.78
817.469	41.8
817.856	41.82
818.243	41.8
818.63	41.84
819.017	41.88
819.404	41.89
819.791	41.9
820.178	41.87
820.565	41.84
820.952	41.83
821.339	41.84
821.725	41.85
822.112	41.84
822.498	41.88
822.885	41.86
823.271	41.88
823.657	41.9
824.044	41.87
824.43	41.9
824.816	41.9
825.202	41.91
825.588	41.93
825.974	41.94
826.36	41.93
826.746	41.93
827.132	41.89
827.517	41.86
827.903	41.86
828.289	41.87
828.674	41.86
829.06	41.9
829.445	41.9
829.83	41.91
830.216	41.89
830.601	41.9
830.986	41.94
831.371	41.98
831.756	41.95
832.141	41.93
832.526	41.93
832.911	41.96
833.295	41.95
833.68	41.94
834.065	41.92
834.449	41.9
834.834	41.88
835.218	41.82
835.603	41.81
835.987	41.8
836.371	41.8
836.755	41.8
837.139	41.76
837.524	41.74
837.908	41.72
838.291	41.69
838.675	41.69
839.059	41.69
839.443	41.69
839.827	41.7
840.21	41.71
840.594	41.71
840.977	41.68
841.361	41.67
841.744	41.68
842.127	41.67
842.511	41.66
842.894	41.65
843.277	41.67
843.66	41.68
844.043	41.66
844.426	41.64
844.809	41.64
845.191	41.66
845.574	41.66
845.957	41.63
846.339	41.64
846.722	41.68
847.104	41.69
847.487	41.68
847.869	41.67
848.252	41.65
848.634	41.66
849.016	41.65
849.398	41.66
849.78	41.66
850.162	41.66
850.544	41.67
850.926	41.64
851.307	41.62
851.689	41.6
852.071	41.59
852.452	41.61
852.834	41.59
853.215	41.59
853.597	41.57
853.978	41.57
854.359	41.56
854.741	41.56
855.122	41.56
855.503	41.55
855.884	41.56
856.265	41.56
856.646	41.54
857.026	41.56
857.407	41.52
857.788	41.55
858.169	41.55
858.549	41.58
858.93	41.59
859.31	41.59
859.69	41.61
860.071	41.61
860.451	41.62
860.831	41.64
861.211	41.61
861.591	41.65
861.971	41.61
862.351	41.61
862.731	41.6
863.111	41.58
863.491	41.59
863.87	41.58
864.25	41.6
864.629	41.58
865.009	41.59
865.388	41.6
865.768	41.61
866.147	41.63
866.526	41.61
866.905	41.6
867.284	41.62
867.663	41.6
868.042	41.61
868.421	41.58
868.8	41.6
869.179	41.6
869.558	41.6
869.936	41.59
870.315	41.59
870.693	41.59
871.072	41.57
871.45	41.54
871.828	41.55
872.207	41.59
872.585	41.6
872.963	41.57
873.341	41.57
873.719	41.56
874.097	41.56
874.475	41.56
874.853	41.56
875.23	41.57
875.608	41.6
875.986	41.6
876.363	41.55
876.741	41.56
877.118	41.58
877.495	41.55
877.873	41.54
878.25	41.52
878.627	41.54
879.004	41.56
879.381	41.59
879.758	41.55
880.135	41.55
880.512	41.56
880.889	41.57
881.265	41.57
881.642	41.6
882.019	41.6
882.395	41.61
882.772	41.61
883.148	41.6
883.524	41.58
883.901	41.6
884.277	41.59
884.653	41.58
885.029	41.54
885.405	41.49
885.781	41.49
886.157	41.48
886.532	41.48
886.908	41.48
887.284	41.5
887.659	41.51
888.035	41.5
888.411	41.49
888.786	41.51
889.161	41.52
889.537	41.56
889.912	41.55
890.287	41.55
890.662	41.55
891.037	41.52
891.412	41.49
891.787	41.47
892.162	41.45
892.536	41.47
892.911	41.44
893.286	41.41
893.66	41.38
894.035	41.34
894.409	41.31
894.784	41.28
895.158	41.24
895.532	41.22
895.906	41.21
896.281	41.19
896.655	41.15
897.029	41.13
897.402	41.13
897.776	41.12
898.15	41.14
898.524	41.14
898.898	41.15
899.271	41.19
899.645	41.18
900.018	41.13
900.392	41.14
900.765	41.15
901.138	41.19
901.511	41.17
901.884	41.16
902.258	41.15
902.631	41.16
903.003	41.15
903.376	41.12
903.749	41.13
904.122	41.18
904.495	41.19
904.867	41.18
905.24	41.15
905.612	41.16
905.985	41.15
906.357	41.14
906.729	41.15
907.102	41.17
907.474	41.21
907.846	41.2
908.218	41.15
908.59	41.16
908.962	41.2
909.334	41.21
909.705	41.22
910.077	41.26
910.449	41.3
910.82	41.3
911.192	41.29
911.563	41.3
911.935	41.3
912.306	41.33
912.677	41.32
913.048	41.29
913.419	41.28
913.79	41.28
914.161	41.26
914.532	41.24
914.903	41.25
915.274	41.24
915.645	41.26
916.015	41.26
916.386	41.27
916.756	41.28
917.127	41.29
917.497	41.3
917.868	41.31
918.238	41.34
918.608	41.36
918.978	41.34
919.348	41.31
919.718	41.27
920.088	41.26
920.458	41.26
920.828	41.24
921.198	41.26
921.567	41.25
921.937	41.26
922.306	41.26
922.676	41.21
923.045	41.17
923.415	41.17
923.784	41.16
924.153	41.17
924.522	41.15
924.891	41.18
925.26	41.14
925.629	41.13
925.998	41.11
926.367	41.08
926.736	41.09
927.104	41.13
927.473	41.15
927.842	41.12
928.21	41.12
928.578	41.12
928.947	41.08
929.315	41.06
929.683	41.06
930.051	41.02
930.42	40.96
930.788	40.93
931.156	40.88
931.523	40.84
931.891	40.82
932.259	40.77
932.627	40.7
932.994	40.7
933.362	40.68
933.729	40.56
934.097	40.58
934.464	40.56
934.831	40.52
935.199	40.5
935.566	40.47
935.933	40.55
936.3	40.51
936.667	40.5
937.034	40.45
937.401	40.37
937.767	40.42
938.134	40.31
938.501	40.29
938.867	40.3
939.234	40.3
939.6	40.28
939.967	40.1
940.333	40.19
940.699	40.24
941.065	40.25
941.431	40.28
941.798	40.25
942.163	40.33
942.529	40.33
942.895	40.37
943.261	40.38
943.627	40.42
943.992	40.43
944.358	40.34
944.723	40.3
945.089	40.28
945.454	40.36
945.82	40.37
946.185	40.43
946.55	40.49
946.915	40.51
947.28	40.47
947.645	40.52
948.01	40.54
948.375	40.61
948.74	40.6
949.104	40.65
949.469	40.61
949.834	40.61
950.198	40.52
950.562	40.44
950.927	40.46
951.291	40.52
951.655	40.44
952.02	40.43
952.384	40.44
952.748	40.45
953.112	40.43
953.476	40.44
953.839	40.45
954.203	40.45
954.567	40.51
954.931	40.48
955.294	40.44
955.658	40.42
956.021	40.44
956.385	40.38
956.748	40.37
957.111	40.36
957.474	40.35
957.837	40.41
958.2	40.4
958.563	40.37
958.926	40.36
959.289	40.38
959.652	40.37
960.015	40.34
960.377	40.33
960.74	40.34
961.102	40.3
961.465	40.29
961.827	40.13
962.189	40.06
962.552	40.06
962.914	40.03
963.276	40.04
963.638	40.03
964	39.99
964.362	40.01
964.724	40.01
965.085	40.04
965.447	40.02
965.809	40.05
966.17	40.19
966.532	40.18
966.893	40.16
967.255	40.11
967.616	40.15
967.977	40.18
968.338	40.13
968.699	40.1
969.061	40.05
969.421	40.08
969.782	40.14
970.143	40.01
970.504	40.01
970.865	39.99
971.225	39.98
971.586	39.95
971.946	39.86
972.307	39.84
972.667	39.89
973.027	39.88
973.388	39.84
973.748	39.8
974.108	39.83
974.468	39.76
974.828	39.81
975.188	39.84
975.548	39.86
975.907	39.98
976.267	40.03
976.627	39.97
976.986	39.96
977.346	39.99
977.705	40.04
978.064	40.06
978.424	40.1
978.783	39.99
979.142	39.92
979.501	39.88
979.86	39.84
980.219	39.68
980.578	39.67
980.937	39.72
981.296	39.65
981.654	39.57
982.013	39.55
982.371	39.59
982.73	39.62
983.088	39.59
983.447	39.58
983.805	39.55
984.163	39.63
984.521	39.55
984.879	39.56
985.237	39.61
985.595	39.66
985.953	39.58
986.311	39.52
986.669	39.57
987.026	39.59
987.384	39.55
987.741	39.52
988.099	39.59
988.456	39.72
988.814	39.74
989.171	39.7
989.528	39.67
989.885	39.67
990.242	39.71
990.599	39.62
990.956	39.69
991.313	39.8
991.67	39.93
992.027	39.86
992.383	39.75
992.74	39.58
993.096	39.48
993.453	39.55
993.809	39.54
994.165	39.49
994.522	39.58
994.878	39.49
995.234	39.35
995.59	39.12
995.946	39.16
996.302	39.2
996.658	39.33
997.013	39.43
997.369	39.44
997.725	39.53
998.08	39.57
998.436	39.58
998.791	39.69
999.147	39.65
999.502	39.8
999.857	39.89
1000.212	39.86
1000.567	39.9
1000.922	39.97
1001.277	39.9
1001.632	39.94
1001.987	39.91
1002.342	39.93
1002.696	39.91
1003.051	40.03
1003.406	40.03
1003.76	39.91
1004.114	39.82
1004.469	39.63
1004.823	39.51
1005.177	39.54
1005.531	39.28
1005.885	39.33
1006.239	39.09
1006.593	38.91
1006.947	38.75
1007.301	38.67
1007.655	38.59
1008.008	38.63
1008.362	38.8
1008.715	38.85
1009.069	38.64
1009.422	38.69
1009.776	38.6
1010.129	38.8
1010.482	38.9
1010.835	38.87
1011.188	38.75
1011.541	38.61
1011.894	38.47
1012.247	38.47
1012.6	38.42
1012.952	38.63
1013.305	38.53
1013.657	38.48
1014.01	38.51
1014.362	38.52
1014.715	38.68
1015.067	38.94
1015.419	39.23
1015.771	39.43
1016.123	39.14
1016.475	39.07
1016.827	38.97
1017.179	39.14
1017.531	39.01
1017.883	38.99
1018.234	38.86
1018.586	38.67
1018.938	38.33
1019.289	37.96
1019.64	37.99
1019.992	37.8
1020.343	37.56
1020.694	37.53
1021.045	37.7
1021.396	37.81
1021.747	37.42
1022.098	37.82
1022.449	37.82
1022.8	37.88
1023.151	37.9
1023.501	37.84
1023.852	37.87
1024.202	37.98
1024.553	37.55
1024.903	37.27
1025.253	37.3
1025.604	37.32
1025.954	36.59
1026.304	36.76
1026.654	36.65
1027.004	37.05
1027.354	36.7
1027.703	36.94
1028.053	36.63
1028.403	36.63
1028.753	36.71
1029.102	36.16
1029.452	35.8
1029.801	35.77
1030.15	35.49
1030.499	35.36
897.758	573.75
901.051	582.46
904.343	593.21
907.636	582.05
910.928	572.47
914.22	582.36
917.511	570.77
920.803	547.28
924.094	523.93
927.384	529.26
930.675	518.64
933.965	512.18
937.255	510.56
940.544	486.26
943.834	466.71
947.123	459.64
950.411	434.68
953.7	427.53
956.988	412.31
960.276	399.88
963.563	393.28
966.851	371.59
970.138	364.76
973.424	341.12
976.711	336.56
979.997	324
983.283	315.47
986.568	305.51
989.853	298.3
993.138	288.09
996.423	281.02
999.708	273.67
1002.992	274.23
1006.275	263.67
1009.559	261.62
1012.842	254.43
1016.125	245.97
1019.408	242.6
1022.69	243.6
1025.972	239.84
1029.254	234.76
1032.536	230.06
1035.817	223.04
1039.098	219.73
1042.379	217.24
1045.659	213.54
1048.939	212.31
1052.219	210.55
1055.498	205.71
1058.778	199.35
1062.057	198.72
1065.335	197.3
1068.614	193.98
1071.892	192.56
1075.17	187.67
1078.447	185.72
1081.724	185.09
1085.001	179.8
1088.278	179.29
1091.554	178.28
1094.83	177.62
1098.106	173
1101.382	172.29
1104.657	171.81
1107.932	170.67
1111.206	171.02
1114.481	167.68
1117.755	167.1
1121.029	167.33
1124.302	165.03
1127.575	162.7
1130.848	162.04
1134.121	160.18
1137.393	159.65
1140.665	159.3
1143.937	157.41
1147.208	155.62
1150.48	155.55
1153.75	154.55
1157.021	152.56
1160.291	152.32
1163.561	152.07
1166.831	150.39
1170.101	150.38
1173.37	149.39
1176.639	147.61
1179.907	147.28
1183.176	145.89
1186.444	146.51
1189.711	144.81
1192.979	145.8
1196.246	145.44
1199.513	146.51
1202.78	146.58
1206.046	146.02
1209.312	147.21
1212.578	147.85
1215.843	150.37
1219.108	151.85
1222.373	153.42
1225.638	156.4
1228.902	159.73
1232.166	164.52
1235.43	165.5
1238.693	170.76
1241.956	174.98
1245.219	178.7
1248.482	180.18
1251.744	178.96
1255.006	180.07
1258.268	176.48
1261.529	174.38
1264.79	170.77
1268.051	166.92
1271.312	165.94
1274.572	162.39
1277.832	158.77
1281.092	156.85
1284.351	153.73
1287.61	153.78
1290.869	153.23
1294.128	152.57
1297.386	151.57
1300.644	150.19
1303.902	149.73
1307.159	148.43
1310.416	149.26
1313.673	151.01
1316.93	151.77
1320.186	154.56
1323.442	155.64
1326.697	157.19
1329.953	158.73
1333.208	164
1336.463	170.84
1339.717	174.37
1342.972	182.09
1346.226	187.66
1349.479	188.9
1352.733	196.91
1355.986	199.64
1359.238	204.79
1362.491	207.34
1365.743	213.62
1368.995	214.98
1372.247	214.99
1375.498	214.34
1378.749	221.58
1382	219.24
1385.251	218.39
1388.501	216.62
1391.751	218.95
1395	218.09
1398.25	219.63
1401.499	218.89
1404.748	218.26
1407.996	212.28
1411.244	211.96
1414.492	208.25
1417.74	203.44
1420.987	198.12
1424.234	195.14
1427.481	187.82
1430.728	182.12
1433.974	175.42
1437.22	170.98
1440.465	163.67
1443.711	159.36
1446.956	153.9
1450.201	148.13
1453.445	141.73
1456.689	138.25
1459.933	133.21
1463.177	128.01
1466.42	126.13
1469.663	122.41
1472.906	118.41
1476.148	116.31
1479.391	113.75
1482.633	112.01
1485.874	110.16
1489.115	109.25
1492.356	106.7
1495.597	105.48
1498.838	105.28
1502.078	103.71
1505.318	103.53
1508.557	102.6
1511.797	101.52
1515.036	100.67
1518.274	100.58
1521.513	98.8
1524.751	98.45
1527.989	99.68
1531.227	99.25
1534.464	98.85
1537.701	98.51
1540.938	97.9
1544.174	98.16
1547.41	98.8
1550.646	98.64
1553.882	98.78
1557.117	98.78
1560.352	97.77
1563.587	97.54
1566.821	97.3
1570.055	97.25
1573.289	97.04
1576.523	97.09
1579.756	96.67
1582.989	96.26
1586.222	96.55
1589.454	95.98
1592.686	96
1595.918	96.45
1599.15	95.79
1602.381	96.05
1605.612	95.79
1608.843	95.43
1612.073	96.04
1615.303	96.34
1618.533	96.41
1621.762	96.39
1624.992	96.68
1628.221	96.56
1631.449	97.25
1634.678	97
1637.906	97.48
1641.134	97.54
1644.361	97.69
1647.588	98.05
1650.815	98.11
1654.042	98.06
1657.269	97.41
1660.495	98
1663.72	98.01
1666.946	97.89
1670.171	98.57
1673.396	99
1676.621	98.77
1679.845	98.93
1683.069	98.49
1686.293	98.3
1689.517	98.72
1692.74	99.37
1695.963	99.03
1699.185	99.76
1702.408	99.71
1705.63	99.75
1708.852	100.17
1712.073	100.02
1715.294	100.37
1718.515	100.35
1721.736	100.62
1724.956	100.54
1728.176	100.43
1731.396	100.78
1734.616	100.87
1737.835	100.93
1741.054	100.7
1744.272	100.23
1747.491	100.57
1750.709	101.56
1753.927	101.66
1757.144	102.25
1760.361	102.19
1763.578	103.15
1766.795	103.46
1770.011	103.75
1773.227	103.98
1776.443	105.46
1779.658	104.84
1782.874	105.83
1786.089	104.98
1789.303	105.17
1792.518	105.63
1795.732	106.11
1798.945	106.72
1802.159	106.97
1805.372	107.76
1808.585	109.21
1811.797	109.24
1815.01	110.93
1818.222	111.28
1821.434	112.8
1824.645	113.56
1827.856	115.32
1831.067	115.92
1834.278	117.35
1837.488	118.18
1840.698	119.47
1843.908	118.78
1847.117	120.1
1850.326	120.92
1853.535	122.03
1856.744	123.02
1859.952	124.76
1863.16	124.87
1866.368	124.32
1869.575	124.03
1872.782	122.88
1875.989	121.47
1879.196	121.89
1882.402	120.71
1885.608	121.13
1888.814	120.36
1892.019	121.07
1895.224	118.87
1898.429	118.07
1901.634	119.2
1904.838	120.24
1908.042	121.86
1911.246	121.75
1914.449	122.07
1917.652	120.9
1920.855	120.98
1924.058	119.81
1927.26	118.95
1930.462	119.6
1933.664	120.79
1936.865	121.11
1940.066	118.76
1943.267	116.48
1946.467	118.22
1949.668	118.41
1952.868	120.1
1956.067	119.73
1959.267	120.49
1962.466	120.77
1965.665	122.76
1968.863	121.71
1972.061	123.5
1975.259	125.01
1978.457	128.61
1981.654	128.81
1984.852	129.41
1988.048	130.53
1991.245	132.84
1994.441	135.99
1997.637	139.44
2000.833	141.52
2004.028	143.9
2007.223	146.9
2010.418	150.96
2013.613	156.67
2016.807	160.64
2020.001	164.89
2023.194	169.19
2026.388	174.39
2029.581	184.42
2032.774	188.73
2035.966	194.32
2039.158	200.51
2042.35	202.53
2045.542	207.22
2048.733	214.06
2051.924	216.2
2055.115	219.49
2058.306	222.43
2061.496	226.84
2064.686	225.63
2067.875	223.16
2071.065	226.24
2074.254	226.21
2077.442	234.33
2080.631	235.34
2083.819	236.65
2087.007	241.35
2090.195	245.78
2093.382	245.51
2096.569	246.42
2099.756	247.41
2102.942	255.2
2106.128	258.67
2109.314	261.65
2112.5	261
2115.685	259.09
2118.87	259.58
2122.055	262.73
2125.239	266.3
2128.424	272.09
2131.608	270.78
2134.791	272.24
2137.974	273.47
2141.157	276.83
2144.34	278.03
2147.523	285.22
2150.705	293.27
2153.887	290.25
2157.068	291.62
2160.25	292.6
2163.431	291.35
2166.611	295.57
2169.792	302.83
2172.972	304.26
2176.152	303.54
2179.331	311.65
2182.511	308.37
2185.69	313.09
2188.868	326.13
2192.047	333.67
2195.225	341.39
2198.403	346.07
2201.58	341.3
2204.758	354.68
2207.935	358.85
2211.111	367.32
2214.288	367.97
2217.464	372.73
2220.64	372.52
2223.815	374.12
2226.991	368.05
2230.166	370.36
2233.34	381.77
2236.515	395.44
2239.689	383.19
2242.863	390.2
2246.036	385.71
2249.209	396.45
2252.382	394.01
2255.555	411.78
2258.727	412.21
2261.9	427.25
2265.071	432.78
2268.243	429.47
2271.414	440.57
2274.585	453.75
2277.756	452.12
2280.926	472.07
2284.096	472.75
2287.266	478.72
2290.436	467.97
2293.605	479.56
2296.774	497.96
2299.942	498.09
2303.111	513.33
2306.279	521.65
2309.447	522.51
2312.614	524.5
2315.781	535.62
2318.948	541.99
2322.115	551.61
2325.281	581.24
2328.447	570.29
2331.613	573.94
2334.779	580.03
2337.944	588.86
2341.109	600.66
2344.274	608.29
2347.438	624.51
2350.602	627.84
2353.766	669.3
2356.929	669.56
2360.092	682.66
2363.255	691.47
2366.418	697.84
2369.58	711.29
2372.742	717.53
2375.904	713.74
2379.066	734.2
2382.227	779.12
2385.388	785.86
2388.548	742.71
2391.709	735.12
2394.869	751.13
2398.029	754.34
2401.188	753.52
2404.347	777.4
2407.506	799.99
2410.665	773.17
2413.823	774.31
2416.981	776.4
2420.139	733.93
2423.296	789.73
2426.453	842.69
2429.61	796.87
2432.767	850.87
2435.923	880.44
2439.079	855.1
2442.235	877.17
2445.391	895.05
2448.546	886.66
2451.701	932.52
2454.855	1001.97
2458.009	887.98
2461.163	898.18
2464.317	926.69
2467.471	905.43
2470.624	938.48
2473.777	918.03
2476.929	888.45
2480.082	945.53
2483.234	994.61
2486.385	1006.13
2489.537	1029.61
2492.688	1134.37
2495.839	1119.52
2498.989	1145.61
2502.14	1148.26
2505.29	1093.6
2508.439	1217.01
2511.589	1238.72
2514.738	1210.82
2517.887	1193.2
2521.035	1127.6
2524.183	1111.73
2527.331	1100.83
2530.479	1078.05
2533.627	1097.61
