Data from C_3_dec_oh_4n_Splice17_17.txt Node
Date: Sat Feb 29 15:05:00 EST 2020
User: sa697716
Spectrometer: FLMS03696
Trigger mode: 0
Integration Time (sec): 3.180400E-1
Scans to average: 20
Electric dark correction enabled: true
Nonlinearity correction enabled: true
Boxcar width: 5
XAxis mode: Wavelengths
Number of Pixels in Spectrum: 2048
>>>>>Begin Spectral Data<<<<<
187.83	105.3
188.298	107.7
188.766	94.91
189.233	94.19
189.701	102.55
190.169	103.52
190.636	108.63
191.104	107.26
191.571	119.8
192.039	80.36
192.506	146.61
192.974	7082.21
193.441	-711.36
193.908	109.89
194.375	162.98
194.842	112.34
195.31	94.33
195.777	86.65
196.244	107.71
196.711	107.05
197.177	106.28
197.644	105.37
198.111	105.23
198.578	105.37
199.045	106.81
199.511	106.51
199.978	107.6
200.445	107.47
200.911	108.06
201.378	107.94
201.844	108.4
202.31	108.96
202.777	109.54
203.243	109.75
203.709	109.29
204.176	108.85
204.642	108.98
205.108	108.08
205.574	107.98
206.04	107.33
206.506	106.52
206.972	105.82
207.438	104.79
207.903	103.37
208.369	101.43
208.835	100.55
209.301	99.32
209.766	96.83
210.232	95.37
210.697	93.83
211.163	91.63
211.628	89.86
212.094	88.12
212.559	86.4
213.024	84.79
213.49	83.07
213.955	81.17
214.42	79.03
214.885	76.86
215.35	74.13
215.815	70.19
216.28	66.42
216.745	61.87
217.21	56.85
217.675	52.33
218.14	48.09
218.604	44.46
219.069	41.26
219.534	38.51
219.998	36.36
220.463	34.5
220.927	32.86
221.392	31.42
221.856	30.23
222.32	29.28
222.785	28.37
223.249	27.65
223.713	27.01
224.177	26.39
224.642	25.82
225.106	25.25
225.57	24.74
226.034	24.33
226.497	23.87
226.961	23.42
227.425	22.96
227.889	22.55
228.353	22.12
228.816	21.75
229.28	21.35
229.744	20.99
230.207	20.64
230.671	20.26
231.134	19.9
231.597	19.6
232.061	19.29
232.524	19.05
232.987	18.8
233.45	18.52
233.914	18.24
234.377	18.01
234.84	17.77
235.303	17.54
235.766	17.31
236.229	17.08
236.691	16.88
237.154	16.7
237.617	16.48
238.08	16.28
238.542	16.12
239.005	15.95
239.468	15.76
239.93	15.58
240.393	15.4
240.855	15.24
241.317	15.08
241.78	14.92
242.242	14.75
242.704	14.59
243.166	14.42
243.629	14.27
244.091	14.1
244.553	13.97
245.015	13.85
245.477	13.71
245.939	13.57
246.4	13.43
246.862	13.3
247.324	13.18
247.786	13.04
248.247	12.92
248.709	12.76
249.17	12.64
249.632	12.49
250.093	12.35
250.555	12.22
251.016	12.11
251.477	11.99
251.939	11.86
252.4	11.75
252.861	11.65
253.322	11.55
253.783	11.48
254.244	11.39
254.705	11.32
255.166	11.23
255.627	11.15
256.088	11.06
256.549	10.97
257.009	10.89
257.47	10.8
257.931	10.69
258.391	10.59
258.852	10.48
259.312	10.39
259.773	10.29
260.233	10.2
260.694	10.12
261.154	10.03
261.614	9.95
262.074	9.86
262.534	9.77
262.994	9.7
263.455	9.63
263.915	9.56
264.374	9.49
264.834	9.41
265.294	9.34
265.754	9.27
266.214	9.21
266.673	9.15
267.133	9.09
267.593	9.04
268.052	8.98
268.512	8.94
268.971	8.88
269.431	8.84
269.89	8.8
270.349	8.76
270.809	8.72
271.268	8.68
271.727	8.64
272.186	8.61
272.645	8.57
273.104	8.53
273.563	8.5
274.022	8.47
274.481	8.43
274.94	8.4
275.399	8.36
275.857	8.33
276.316	8.29
276.775	8.25
277.233	8.21
277.692	8.18
278.15	8.15
278.609	8.12
279.067	8.08
279.525	8.06
279.984	8.03
280.442	8.01
280.9	7.99
281.358	7.97
281.816	7.96
282.274	7.94
282.732	7.93
283.19	7.93
283.648	7.92
284.106	7.91
284.564	7.91
285.021	7.9
285.479	7.89
285.937	7.87
286.394	7.85
286.852	7.84
287.309	7.81
287.767	7.79
288.224	7.76
288.682	7.73
289.139	7.7
289.596	7.65
290.053	7.6
290.511	7.55
290.968	7.5
291.425	7.46
291.882	7.41
292.339	7.37
292.796	7.31
293.252	7.27
293.709	7.23
294.166	7.19
294.623	7.16
295.079	7.14
295.536	7.1
295.992	7.07
296.449	7.05
296.905	7.02
297.362	7
297.818	6.97
298.274	6.95
298.731	6.93
299.187	6.91
299.643	6.89
300.099	6.87
300.555	6.85
301.011	6.83
301.467	6.79
301.923	6.78
302.379	6.76
302.835	6.75
303.291	6.73
303.746	6.71
304.202	6.69
304.658	6.67
305.113	6.65
305.569	6.64
306.024	6.64
306.479	6.64
306.935	6.64
307.39	6.64
307.845	6.63
308.301	6.63
308.756	6.64
309.211	6.65
309.666	6.65
310.121	6.66
310.576	6.65
311.031	6.64
311.486	6.64
311.94	6.63
312.395	6.64
312.85	6.64
313.305	6.64
313.759	6.63
314.214	6.63
314.668	6.62
315.123	6.61
315.577	6.6
316.032	6.6
316.486	6.59
316.94	6.57
317.394	6.54
317.849	6.52
318.303	6.5
318.757	6.46
319.211	6.43
319.665	6.41
320.119	6.39
320.572	6.36
321.026	6.34
321.48	6.31
321.934	6.3
322.387	6.29
322.841	6.27
323.295	6.25
323.748	6.24
324.202	6.23
324.655	6.22
325.108	6.2
325.562	6.19
326.015	6.18
326.468	6.16
326.921	6.14
327.374	6.14
327.827	6.12
328.28	6.11
328.733	6.1
329.186	6.1
329.639	6.09
330.092	6.08
330.545	6.07
330.997	6.08
331.45	6.08
331.903	6.07
332.355	6.06
332.808	6.08
333.26	6.08
333.713	6.1
334.165	6.1
334.617	6.11
335.069	6.12
335.522	6.13
335.974	6.14
336.426	6.15
336.878	6.15
337.33	6.16
337.782	6.16
338.234	6.16
338.686	6.15
339.137	6.15
339.589	6.13
340.041	6.12
340.493	6.1
340.944	6.08
341.396	6.06
341.847	6.03
342.299	6.01
342.75	5.98
343.201	5.95
343.653	5.91
344.104	5.88
344.555	5.85
345.006	5.83
345.457	5.81
345.908	5.78
346.359	5.77
346.81	5.76
347.261	5.74
347.712	5.73
348.163	5.72
348.613	5.71
349.064	5.69
349.515	5.69
349.965	5.68
350.416	5.68
350.866	5.68
351.317	5.67
351.767	5.67
352.217	5.67
352.668	5.66
353.118	5.67
353.568	5.67
354.018	5.69
354.468	5.69
354.918	5.7
355.368	5.7
355.818	5.69
356.268	5.69
356.718	5.69
357.168	5.69
357.617	5.69
358.067	5.67
358.517	5.66
358.966	5.66
359.416	5.65
359.865	5.64
360.315	5.64
360.764	5.64
361.213	5.63
361.663	5.63
362.112	5.64
362.561	5.65
363.01	5.66
363.459	5.66
363.908	5.66
364.357	5.66
364.806	5.66
365.255	5.66
365.703	5.67
366.152	5.67
366.601	5.68
367.05	5.68
367.498	5.67
367.947	5.67
368.395	5.68
368.844	5.68
369.292	5.67
369.74	5.66
370.189	5.66
370.637	5.66
371.085	5.65
371.533	5.65
371.981	5.64
372.429	5.63
372.877	5.63
373.325	5.62
373.773	5.62
374.221	5.62
374.669	5.62
375.116	5.61
375.564	5.6
376.012	5.6
376.459	5.6
376.907	5.62
377.354	5.62
377.801	5.63
378.249	5.63
378.696	5.65
379.143	5.65
379.591	5.66
380.038	5.69
380.485	5.7
380.932	5.69
381.379	5.7
381.826	5.7
382.273	5.71
382.72	5.71
383.166	5.71
383.613	5.7
384.06	5.71
384.506	5.71
384.953	5.72
385.4	5.72
385.846	5.73
386.292	5.75
386.739	5.76
387.185	5.79
387.631	5.8
388.078	5.82
388.524	5.82
388.97	5.84
389.416	5.86
389.862	5.86
390.308	5.89
390.754	5.9
391.2	5.93
391.645	5.95
392.091	5.96
392.537	6
392.983	6.03
393.428	6.07
393.874	6.11
394.319	6.13
394.765	6.16
395.21	6.17
395.655	6.21
396.101	6.23
396.546	6.26
396.991	6.27
397.436	6.29
397.881	6.32
398.326	6.36
398.771	6.39
399.216	6.44
399.661	6.47
400.106	6.51
400.551	6.54
400.995	6.54
401.44	6.54
401.885	6.57
402.329	6.57
402.774	6.57
403.218	6.57
403.663	6.59
404.107	6.6
404.551	6.62
404.995	6.64
405.44	6.65
405.884	6.68
406.328	6.7
406.772	6.72
407.216	6.74
407.66	6.77
408.104	6.79
408.547	6.8
408.991	6.81
409.435	6.82
409.879	6.84
410.322	6.87
410.766	6.89
411.209	6.92
411.653	6.94
412.096	6.97
412.54	7
412.983	7.03
413.426	7.06
413.869	7.09
414.312	7.14
414.756	7.18
415.199	7.21
415.642	7.24
416.085	7.28
416.527	7.32
416.97	7.33
417.413	7.33
417.856	7.31
418.298	7.3
418.741	7.3
419.184	7.29
419.626	7.27
420.069	7.28
420.511	7.27
420.953	7.26
421.396	7.25
421.838	7.26
422.28	7.3
422.722	7.34
423.164	7.36
423.606	7.39
424.048	7.39
424.49	7.41
424.932	7.41
425.374	7.41
425.816	7.38
426.258	7.37
426.699	7.35
427.141	7.31
427.582	7.3
428.024	7.33
428.465	7.32
428.907	7.34
429.348	7.34
429.789	7.35
430.231	7.38
430.672	7.43
431.113	7.49
431.554	7.53
431.995	7.58
432.436	7.6
432.877	7.6
433.318	7.63
433.759	7.65
434.2	7.68
434.64	7.7
435.081	7.72
435.522	7.76
435.962	7.78
436.403	7.85
436.843	7.88
437.284	7.92
437.724	7.93
438.164	7.97
438.604	7.99
439.045	7.99
439.485	8.04
439.925	8.06
440.365	8.05
440.805	8.06
441.245	8.03
441.685	8.04
442.125	8.05
442.564	8.09
443.004	8.1
443.444	8.15
443.883	8.22
444.323	8.22
444.762	8.27
445.202	8.35
445.641	8.39
446.081	8.47
446.52	8.5
446.959	8.56
447.398	8.63
447.837	8.7
448.276	8.72
448.716	8.75
449.154	8.83
449.593	8.85
450.032	8.87
450.471	8.89
450.91	8.88
451.349	8.92
451.787	8.91
452.226	8.87
452.664	8.86
453.103	8.85
453.541	8.82
453.98	8.78
454.418	8.76
454.856	8.72
455.295	8.7
455.733	8.68
456.171	8.64
456.609	8.62
457.047	8.61
457.485	8.58
457.923	8.57
458.361	8.57
458.798	8.58
459.236	8.56
459.674	8.55
460.111	8.54
460.549	8.53
460.987	8.52
461.424	8.51
461.862	8.5
462.299	8.5
462.736	8.5
463.173	8.49
463.611	8.48
464.048	8.5
464.485	8.49
464.922	8.48
465.359	8.5
465.796	8.5
466.233	8.51
466.67	8.53
467.106	8.53
467.543	8.53
467.98	8.54
468.416	8.54
468.853	8.53
469.29	8.55
469.726	8.57
470.162	8.57
470.599	8.56
471.035	8.57
471.471	8.55
471.907	8.55
472.344	8.56
472.78	8.54
473.216	8.54
473.652	8.53
474.088	8.54
474.523	8.53
474.959	8.51
475.395	8.5
475.831	8.49
476.266	8.49
476.702	8.47
477.138	8.45
477.573	8.44
478.008	8.42
478.444	8.4
478.879	8.38
479.314	8.35
479.75	8.35
480.185	8.33
480.62	8.31
481.055	8.3
481.49	8.28
481.925	8.26
482.36	8.24
482.795	8.21
483.229	8.2
483.664	8.18
484.099	8.17
484.534	8.15
484.968	8.14
485.403	8.14
485.837	8.13
486.271	8.12
486.706	8.13
487.14	8.15
487.574	8.16
488.009	8.18
488.443	8.19
488.877	8.21
489.311	8.23
489.745	8.25
490.179	8.27
490.613	8.31
491.046	8.34
491.48	8.38
491.914	8.41
492.348	8.44
492.781	8.48
493.215	8.53
493.648	8.58
494.082	8.64
494.515	8.71
494.948	8.77
495.382	8.83
495.815	8.91
496.248	8.98
496.681	9.06
497.114	9.14
497.547	9.22
497.98	9.31
498.413	9.4
498.846	9.51
499.279	9.61
499.711	9.71
500.144	9.84
500.577	9.96
501.009	10.09
501.442	10.24
501.874	10.4
502.306	10.57
502.739	10.73
503.171	10.91
503.603	11.09
504.036	11.29
504.468	11.5
504.9	11.72
505.332	11.94
505.764	12.16
506.196	12.41
506.627	12.66
507.059	12.91
507.491	13.19
507.923	13.47
508.354	13.77
508.786	14.08
509.217	14.38
509.649	14.69
510.08	15.05
510.512	15.4
510.943	15.77
511.374	16.14
511.805	16.53
512.237	16.93
512.668	17.31
513.099	17.72
513.53	18.14
513.961	18.59
514.391	19.02
514.822	19.45
515.253	19.9
515.684	20.32
516.114	20.77
516.545	21.22
516.975	21.68
517.406	22.15
517.836	22.61
518.267	23.07
518.697	23.54
519.127	24.01
519.558	24.46
519.988	24.92
520.418	25.39
520.848	25.87
521.278	26.34
521.708	26.83
522.138	27.27
522.567	27.72
522.997	28.16
523.427	28.57
523.857	28.98
524.286	29.39
524.716	29.79
525.145	30.19
525.575	30.54
526.004	30.89
526.433	31.22
526.863	31.58
527.292	31.9
527.721	32.23
528.15	32.54
528.579	32.84
529.008	33.12
529.437	33.4
529.866	33.65
530.295	33.92
530.724	34.19
531.152	34.41
531.581	34.63
532.01	34.85
532.438	35.05
532.867	35.26
533.295	35.45
533.723	35.64
534.152	35.82
534.58	35.95
535.008	36.07
535.436	36.19
535.865	36.29
536.293	36.39
536.721	36.49
537.149	36.58
537.576	36.66
538.004	36.73
538.432	36.8
538.86	36.86
539.287	36.95
539.715	37.03
540.143	37.08
540.57	37.13
540.998	37.19
541.425	37.24
541.852	37.29
542.28	37.32
542.707	37.38
543.134	37.41
543.561	37.44
543.988	37.5
544.415	37.57
544.842	37.64
545.269	37.71
545.696	37.77
546.123	37.84
546.549	37.89
546.976	37.96
547.403	38.02
547.829	38.07
548.256	38.12
548.682	38.16
549.108	38.2
549.535	38.24
549.961	38.25
550.387	38.28
550.813	38.31
551.24	38.32
551.666	38.34
552.092	38.34
552.518	38.33
552.943	38.34
553.369	38.33
553.795	38.29
554.221	38.25
554.646	38.21
555.072	38.17
555.498	38.1
555.923	38.03
556.349	37.94
556.774	37.86
557.199	37.77
557.625	37.67
558.05	37.56
558.475	37.42
558.9	37.31
559.325	37.17
559.75	37.03
560.175	36.85
560.6	36.69
561.025	36.53
561.449	36.34
561.874	36.16
562.299	35.96
562.723	35.73
563.148	35.53
563.572	35.31
563.997	35.08
564.421	34.83
564.846	34.62
565.27	34.39
565.694	34.14
566.118	33.88
566.542	33.61
566.966	33.35
567.39	33.07
567.814	32.79
568.238	32.5
568.662	32.24
569.086	31.98
569.509	31.7
569.933	31.41
570.357	31.13
570.78	30.86
571.204	30.59
571.627	30.33
572.05	30.12
572.474	29.89
572.897	29.66
573.32	29.43
573.743	29.2
574.166	28.97
574.589	28.76
575.012	28.58
575.435	28.4
575.858	28.23
576.281	28.06
576.704	27.87
577.126	27.69
577.549	27.54
577.972	27.38
578.394	27.23
578.817	27.1
579.239	26.98
579.661	26.82
580.084	26.69
580.506	26.55
580.928	26.4
581.35	26.29
581.772	26.17
582.194	26.04
582.616	25.94
583.038	25.83
583.46	25.72
583.882	25.6
584.303	25.49
584.725	25.38
585.147	25.27
585.568	25.18
585.99	25.04
586.411	24.95
586.833	24.86
587.254	24.74
587.675	24.65
588.096	24.57
588.518	24.48
588.939	24.41
589.36	24.34
589.781	24.27
590.202	24.2
590.623	24.14
591.043	24.05
591.464	23.97
591.885	23.91
592.305	23.84
592.726	23.75
593.147	23.7
593.567	23.63
593.987	23.56
594.408	23.49
594.828	23.43
595.248	23.38
595.669	23.32
596.089	23.26
596.509	23.19
596.929	23.12
597.349	23.05
597.769	22.97
598.189	22.9
598.608	22.82
599.028	22.75
599.448	22.68
599.867	22.61
600.287	22.55
600.706	22.46
601.126	22.37
601.545	22.3
601.965	22.21
602.384	22.15
602.803	22.07
603.222	21.97
603.641	21.88
604.061	21.79
604.48	21.68
604.898	21.59
605.317	21.51
605.736	21.43
606.155	21.33
606.574	21.25
606.992	21.14
607.411	21.04
607.829	20.91
608.248	20.81
608.666	20.71
609.085	20.59
609.503	20.47
609.921	20.35
610.339	20.24
610.758	20.12
611.176	20.01
611.594	19.89
612.012	19.77
612.43	19.7
612.847	19.59
613.265	19.49
613.683	19.39
614.101	19.28
614.518	19.18
614.936	19.07
615.353	18.97
615.771	18.86
616.188	18.78
616.606	18.69
617.023	18.6
617.44	18.52
617.857	18.42
618.274	18.34
618.691	18.27
619.108	18.2
619.525	18.13
619.942	18.07
620.359	18.02
620.776	17.97
621.192	17.92
621.609	17.86
622.026	17.81
622.442	17.78
622.859	17.73
623.275	17.71
623.691	17.69
624.108	17.67
624.524	17.64
624.94	17.62
625.356	17.6
625.772	17.59
626.188	17.59
626.604	17.57
627.02	17.56
627.436	17.57
627.852	17.54
628.268	17.51
628.683	17.47
629.099	17.46
629.514	17.4
629.93	17.34
630.345	17.28
630.761	17.2
631.176	17.14
631.591	17.07
632.007	16.98
632.422	16.89
632.837	16.8
633.252	16.72
633.667	16.6
634.082	16.51
634.497	16.38
634.911	16.26
635.326	16.13
635.741	15.95
636.155	15.79
636.57	15.64
636.984	15.46
637.399	15.27
637.813	15.08
638.228	14.88
638.642	14.68
639.056	14.5
639.47	14.3
639.884	14.11
640.298	13.94
640.712	13.74
641.126	13.54
641.54	13.37
641.954	13.2
642.368	13.02
642.781	12.84
643.195	12.67
643.609	12.5
644.022	12.34
644.436	12.2
644.849	12.05
645.262	11.92
645.676	11.8
646.089	11.66
646.502	11.54
646.915	11.44
647.328	11.35
647.741	11.27
648.154	11.2
648.567	11.15
648.98	11.09
649.393	11.03
649.805	10.97
650.218	10.91
650.631	10.87
651.043	10.82
651.456	10.78
651.868	10.72
652.28	10.69
652.693	10.63
653.105	10.57
653.517	10.51
653.929	10.47
654.341	10.42
654.753	10.35
655.165	10.29
655.577	10.22
655.989	10.14
656.401	10.06
656.813	9.96
657.224	9.88
657.636	9.81
658.047	9.71
658.459	9.6
658.87	9.51
659.282	9.43
659.693	9.34
660.104	9.25
660.515	9.16
660.926	9.07
661.338	8.98
661.749	8.88
662.159	8.78
662.57	8.69
662.981	8.62
663.392	8.55
663.803	8.46
664.213	8.38
664.624	8.33
665.035	8.26
665.445	8.22
665.855	8.17
666.266	8.14
666.676	8.09
667.086	8.05
667.497	8
667.907	7.96
668.317	7.93
668.727	7.9
669.137	7.87
669.547	7.86
669.956	7.82
670.366	7.8
670.776	7.78
671.186	7.78
671.595	7.79
672.005	7.79
672.414	7.79
672.824	7.81
673.233	7.83
673.642	7.85
674.052	7.85
674.461	7.88
674.87	7.92
675.279	7.95
675.688	7.97
676.097	8
676.506	8.05
676.915	8.08
677.323	8.12
677.732	8.16
678.141	8.22
678.549	8.29
678.958	8.36
679.366	8.42
679.775	8.5
680.183	8.59
680.592	8.7
681	8.81
681.408	8.95
681.816	9.09
682.224	9.23
682.632	9.41
683.04	9.61
683.448	9.84
683.856	10.07
684.264	10.35
684.671	10.66
685.079	10.98
685.487	11.34
685.894	11.74
686.302	12.18
686.709	12.69
687.116	13.2
687.524	13.74
687.931	14.33
688.338	14.96
688.745	15.64
689.152	16.37
689.559	17.13
689.966	17.93
690.373	18.76
690.78	19.63
691.187	20.5
691.593	21.4
692	22.35
692.407	23.29
692.813	24.3
693.22	25.29
693.626	26.31
694.032	27.33
694.439	28.39
694.845	29.42
695.251	30.47
695.657	31.52
696.063	32.61
696.469	33.65
696.875	34.7
697.281	35.73
697.687	36.77
698.093	37.79
698.498	38.84
698.904	39.84
699.31	40.85
699.715	41.84
700.12	42.8
700.526	43.75
700.931	44.7
701.337	45.65
701.742	46.55
702.147	47.45
702.552	48.34
702.957	49.18
703.362	50.04
703.767	50.85
704.172	51.67
704.577	52.49
704.981	53.29
705.386	54.1
705.791	54.88
706.195	55.65
706.6	56.41
707.004	57.14
707.408	57.85
707.813	58.54
708.217	59.25
708.621	59.92
709.025	60.6
709.43	61.22
709.834	61.88
710.237	62.51
710.641	63.16
711.045	63.76
711.449	64.34
711.853	64.95
712.256	65.57
712.66	66.16
713.064	66.76
713.467	67.33
713.87	67.89
714.274	68.44
714.677	68.97
715.08	69.46
715.484	69.99
715.887	70.53
716.29	71.02
716.693	71.49
717.096	71.97
717.499	72.44
717.901	72.83
718.304	73.26
718.707	73.69
719.109	74.1
719.512	74.56
719.915	74.96
720.317	75.35
720.719	75.75
721.122	76.11
721.524	76.5
721.926	76.89
722.328	77.28
722.731	77.68
723.133	78.04
723.535	78.4
723.937	78.73
724.338	79.01
724.74	79.32
725.142	79.57
725.544	79.84
725.945	80.09
726.347	80.35
726.748	80.59
727.15	80.82
727.551	81.06
727.952	81.26
728.354	81.48
728.755	81.7
729.156	81.9
729.557	82.14
729.958	82.4
730.359	82.58
730.76	82.7
731.161	82.9
731.562	83.08
731.962	83.25
732.363	83.38
732.763	83.53
733.164	83.67
733.564	83.8
733.965	83.92
734.365	83.99
734.766	84.14
735.166	84.26
735.566	84.32
735.966	84.37
736.366	84.42
736.766	84.52
737.166	84.61
737.566	84.68
737.966	84.76
738.365	84.83
738.765	84.9
739.165	84.92
739.564	84.99
739.964	85.09
740.363	85.18
740.763	85.22
741.162	85.26
741.561	85.3
741.96	85.38
742.36	85.44
742.759	85.47
743.158	85.5
743.557	85.62
743.955	85.71
744.354	85.77
744.753	85.85
745.152	85.91
745.55	85.99
745.949	86.06
746.348	86.1
746.746	86.14
747.144	86.24
747.543	86.35
747.941	86.42
748.339	86.48
748.737	86.59
749.136	86.6
749.534	86.68
749.932	86.74
750.33	86.75
750.727	86.81
751.125	86.83
751.523	86.78
751.921	86.77
752.318	86.76
752.716	86.72
753.113	86.69
753.511	86.64
753.908	86.59
754.305	86.51
754.703	86.51
755.1	86.44
755.497	86.4
755.894	86.42
756.291	86.4
756.688	86.33
757.085	86.32
757.482	86.28
757.878	86.29
758.275	86.29
758.672	86.34
759.068	86.34
759.465	86.36
759.861	86.39
760.258	86.38
760.654	86.36
761.05	86.4
761.447	86.37
761.843	86.35
762.239	86.35
762.635	86.34
763.031	86.34
763.427	86.3
763.822	86.22
764.218	86.2
764.614	86.2
765.01	86.16
765.405	86.14
765.801	86.11
766.196	86.09
766.592	86.1
766.987	86.09
767.382	86.05
767.778	86.09
768.173	86.16
768.568	86.13
768.963	86.13
769.358	86.15
769.753	86.16
770.148	86.19
770.542	86.16
770.937	86.15
771.332	86.17
771.726	86.2
772.121	86.17
772.515	86.16
772.91	86.19
773.304	86.17
773.699	86.18
774.093	86.14
774.487	86.17
774.881	86.24
775.275	86.27
775.669	86.29
776.063	86.27
776.457	86.23
776.851	86.2
777.245	86.19
777.638	86.23
778.032	86.27
778.425	86.3
778.819	86.3
779.212	86.24
779.606	86.25
779.999	86.2
780.392	86.2
780.786	86.23
781.179	86.27
781.572	86.28
781.965	86.28
782.358	86.21
782.751	86.23
783.143	86.23
783.536	86.32
783.929	86.34
784.322	86.35
784.714	86.39
785.107	86.47
785.499	86.49
785.891	86.53
786.284	86.51
786.676	86.56
787.068	86.56
787.46	86.54
787.852	86.54
788.245	86.52
788.636	86.54
789.028	86.5
789.42	86.43
789.812	86.49
790.204	86.43
790.595	86.45
790.987	86.45
791.378	86.46
791.77	86.52
792.161	86.48
792.553	86.5
792.944	86.52
793.335	86.58
793.726	86.56
794.117	86.51
794.508	86.54
794.899	86.54
795.29	86.57
795.681	86.57
796.072	86.57
796.463	86.6
796.853	86.59
797.244	86.61
797.634	86.61
798.025	86.69
798.415	86.72
798.806	86.72
799.196	86.73
799.586	86.75
799.976	86.79
800.366	86.83
800.756	86.82
801.146	86.86
801.536	86.85
801.926	86.85
802.316	86.87
802.706	86.91
803.095	86.96
803.485	87.03
803.874	87.06
804.264	87.15
804.653	87.14
805.043	87.18
805.432	87.15
805.821	87.2
806.21	87.28
806.599	87.32
806.988	87.34
807.377	87.36
807.766	87.37
808.155	87.37
808.544	87.29
808.933	87.33
809.321	87.37
809.71	87.46
810.098	87.45
810.487	87.43
810.875	87.39
811.264	87.38
811.652	87.38
812.04	87.39
812.428	87.37
812.816	87.46
813.204	87.46
813.592	87.45
813.98	87.45
814.368	87.44
814.756	87.46
815.144	87.51
815.531	87.53
815.919	87.53
816.306	87.51
816.694	87.53
817.081	87.44
817.469	87.49
817.856	87.53
818.243	87.53
818.63	87.6
819.017	87.62
819.404	87.6
819.791	87.62
820.178	87.67
820.565	87.7
820.952	87.71
821.339	87.78
821.725	87.8
822.112	87.83
822.498	87.78
822.885	87.78
823.271	87.78
823.657	87.76
824.044	87.72
824.43	87.7
824.816	87.68
825.202	87.68
825.588	87.68
825.974	87.61
826.36	87.56
826.746	87.59
827.132	87.51
827.517	87.49
827.903	87.49
828.289	87.5
828.674	87.47
829.06	87.48
829.445	87.45
829.83	87.38
830.216	87.34
830.601	87.34
830.986	87.32
831.371	87.38
831.756	87.3
832.141	87.33
832.526	87.27
832.911	87.29
833.295	87.27
833.68	87.25
834.065	87.26
834.449	87.27
834.834	87.18
835.218	87.18
835.603	87.11
835.987	87.1
836.371	87.07
836.755	87.04
837.139	86.98
837.524	86.95
837.908	86.91
838.291	86.88
838.675	86.85
839.059	86.85
839.443	86.8
839.827	86.77
840.21	86.81
840.594	86.77
840.977	86.75
841.361	86.72
841.744	86.72
842.127	86.73
842.511	86.69
842.894	86.64
843.277	86.62
843.66	86.61
844.043	86.62
844.426	86.55
844.809	86.51
845.191	86.48
845.574	86.47
845.957	86.39
846.339	86.34
846.722	86.32
847.104	86.33
847.487	86.36
847.869	86.36
848.252	86.32
848.634	86.34
849.016	86.39
849.398	86.42
849.78	86.41
850.162	86.44
850.544	86.49
850.926	86.46
851.307	86.46
851.689	86.42
852.071	86.39
852.452	86.37
852.834	86.34
853.215	86.3
853.597	86.3
853.978	86.25
854.359	86.23
854.741	86.22
855.122	86.24
855.503	86.23
855.884	86.21
856.265	86.2
856.646	86.21
857.026	86.22
857.407	86.16
857.788	86.19
858.169	86.21
858.549	86.25
858.93	86.24
859.31	86.24
859.69	86.25
860.071	86.24
860.451	86.28
860.831	86.27
861.211	86.27
861.591	86.3
861.971	86.25
862.351	86.25
862.731	86.24
863.111	86.22
863.491	86.24
863.87	86.26
864.25	86.29
864.629	86.26
865.009	86.27
865.388	86.25
865.768	86.27
866.147	86.28
866.526	86.3
866.905	86.32
867.284	86.33
867.663	86.3
868.042	86.26
868.421	86.26
868.8	86.29
869.179	86.31
869.558	86.31
869.936	86.28
870.315	86.27
870.693	86.26
871.072	86.2
871.45	86.17
871.828	86.18
872.207	86.22
872.585	86.2
872.963	86.15
873.341	86.13
873.719	86.1
874.097	86.1
874.475	86.15
874.853	86.13
875.23	86.17
875.608	86.21
875.986	86.2
876.363	86.17
876.741	86.19
877.118	86.21
877.495	86.21
877.873	86.24
878.25	86.25
878.627	86.21
879.004	86.24
879.381	86.23
879.758	86.18
880.135	86.19
880.512	86.18
880.889	86.19
881.265	86.19
881.642	86.15
882.019	86.13
882.395	86.13
882.772	86.11
883.148	86.08
883.524	86.09
883.901	86.07
884.277	86.06
884.653	86.03
885.029	85.98
885.405	85.94
885.781	85.91
886.157	85.89
886.532	85.88
886.908	85.91
887.284	85.89
887.659	85.87
888.035	85.87
888.411	85.79
888.786	85.77
889.161	85.77
889.537	85.75
889.912	85.72
890.287	85.68
890.662	85.66
891.037	85.55
891.412	85.51
891.787	85.42
892.162	85.34
892.536	85.31
892.911	85.24
893.286	85.16
893.66	85.12
894.035	85.08
894.409	85.04
894.784	84.98
895.158	84.96
895.532	84.93
895.906	84.91
896.281	84.89
896.655	84.9
897.029	84.91
897.402	84.92
897.776	84.9
898.15	84.9
898.524	84.86
898.898	84.82
899.271	84.82
899.645	84.81
900.018	84.82
900.392	84.86
900.765	84.89
901.138	84.91
901.511	84.93
901.884	84.95
902.258	84.94
902.631	85.01
903.003	85.05
903.376	85.05
903.749	85.09
904.122	85.12
904.495	85.14
904.867	85.14
905.24	85.11
905.612	85.09
905.985	85.08
906.357	85.13
906.729	85.17
907.102	85.19
907.474	85.24
907.846	85.23
908.218	85.23
908.59	85.19
908.962	85.23
909.334	85.3
909.705	85.3
910.077	85.33
910.449	85.32
910.82	85.28
911.192	85.3
911.563	85.26
911.935	85.25
912.306	85.24
912.677	85.3
913.048	85.28
913.419	85.27
913.79	85.29
914.161	85.28
914.532	85.28
914.903	85.28
915.274	85.27
915.645	85.3
916.015	85.33
916.386	85.32
916.756	85.25
917.127	85.23
917.497	85.2
917.868	85.2
918.238	85.22
918.608	85.25
918.978	85.27
919.348	85.2
919.718	85.21
920.088	85.25
920.458	85.31
920.828	85.36
921.198	85.42
921.567	85.41
921.937	85.46
922.306	85.43
922.676	85.39
923.045	85.35
923.415	85.44
923.784	85.44
924.153	85.44
924.522	85.4
924.891	85.4
925.26	85.3
925.629	85.29
925.998	85.21
926.367	85.2
926.736	85.17
927.104	85.22
927.473	85.18
927.842	85.13
928.21	85.09
928.578	85.08
928.947	85.01
929.315	85.01
929.683	85.05
930.051	85.04
930.42	84.96
930.788	84.96
931.156	84.89
931.523	84.84
931.891	84.75
932.259	84.62
932.627	84.49
932.994	84.45
933.362	84.4
933.729	84.27
934.097	84.23
934.464	84.23
934.831	84.14
935.199	84.08
935.566	83.94
935.933	83.96
936.3	83.96
936.667	83.99
937.034	83.97
937.401	83.97
937.767	83.92
938.134	83.9
938.501	83.91
938.867	84.02
939.234	84.19
939.6	84.33
939.967	84.4
940.333	84.63
940.699	84.81
941.065	84.96
941.431	85.19
941.798	85.42
942.163	85.64
942.529	85.76
942.895	85.91
943.261	85.96
943.627	86.21
943.992	86.34
944.358	86.33
944.723	86.34
945.089	86.35
945.454	86.39
945.82	86.31
946.185	86.36
946.55	86.53
946.915	86.51
947.28	86.53
947.645	86.46
948.01	86.47
948.375	86.42
948.74	86.32
949.104	86.32
949.469	86.1
949.834	86.11
950.198	85.9
950.562	85.69
950.927	85.58
951.291	85.47
951.655	85.36
952.02	85.33
952.384	85.36
952.748	85.35
953.112	85.23
953.476	85.23
953.839	85.14
954.203	85.14
954.567	85.01
954.931	84.97
955.294	84.93
955.658	84.91
956.021	84.79
956.385	84.83
956.748	84.79
957.111	84.75
957.474	84.68
957.837	84.65
958.2	84.61
958.563	84.64
958.926	84.56
959.289	84.52
959.652	84.41
960.015	84.36
960.377	84.21
960.74	84.16
961.102	84.13
961.465	84.12
961.827	84.01
962.189	83.94
962.552	83.8
962.914	83.71
963.276	83.74
963.638	83.73
964	83.71
964.362	83.69
964.724	83.62
965.085	83.59
965.447	83.46
965.809	83.41
966.17	83.37
966.532	83.39
966.893	83.37
967.255	83.23
967.616	83.29
967.977	83.25
968.338	83.14
968.699	83.09
969.061	83.03
969.421	83.07
969.782	83.13
970.143	83.18
970.504	83.2
970.865	83.17
971.225	83.19
971.586	83.18
971.946	83.19
972.307	83.22
972.667	83.31
973.027	83.32
973.388	83.34
973.748	83.37
974.108	83.4
974.468	83.45
974.828	83.5
975.188	83.56
975.548	83.54
975.907	83.51
976.267	83.51
976.627	83.46
976.986	83.52
977.346	83.52
977.705	83.54
978.064	83.5
978.424	83.48
978.783	83.51
979.142	83.43
979.501	83.43
979.86	83.55
980.219	83.52
980.578	83.53
980.937	83.58
981.296	83.66
981.654	83.77
982.013	83.76
982.371	83.72
982.73	83.75
983.088	83.84
983.447	83.89
983.805	83.8
984.163	83.98
984.521	83.91
984.879	83.92
985.237	83.99
985.595	83.93
985.953	83.99
986.311	84.2
986.669	84.31
987.026	84.28
987.384	84.31
987.741	84.38
988.099	84.2
988.456	84.23
988.814	84.23
989.171	84.13
989.528	84.04
989.885	84.1
990.242	84.27
990.599	84.22
990.956	84.27
991.313	84.38
991.67	84.5
992.027	84.6
992.383	84.85
992.74	84.9
993.096	85.07
993.453	85.16
993.809	85.16
994.165	85.06
994.522	85.2
994.878	85.21
995.234	85.2
995.59	85.17
995.946	85.31
996.302	85.19
996.658	85.27
997.013	85.22
997.369	85.43
997.725	85.53
998.08	85.59
998.436	85.62
998.791	85.69
999.147	85.66
999.502	85.71
999.857	85.71
1000.212	85.83
1000.567	85.89
1000.922	86
1001.277	85.84
1001.632	85.92
1001.987	85.82
1002.342	85.81
1002.696	85.94
1003.051	86.02
1003.406	85.95
1003.76	86
1004.114	86.21
1004.469	86.13
1004.823	86.19
1005.177	86.49
1005.531	86.33
1005.885	86.47
1006.239	86.43
1006.593	86.48
1006.947	86.49
1007.301	86.71
1007.655	86.89
1008.008	86.71
1008.362	86.84
1008.715	86.82
1009.069	86.75
1009.422	86.98
1009.776	86.97
1010.129	86.96
1010.482	86.88
1010.835	87.03
1011.188	87.22
1011.541	87.16
1011.894	87.31
1012.247	87.42
1012.6	87.42
1012.952	87.59
1013.305	87.75
1013.657	87.96
1014.01	88.36
1014.362	88.54
1014.715	88.51
1015.067	88.52
1015.419	88.66
1015.771	88.97
1016.123	88.89
1016.475	89.33
1016.827	89.53
1017.179	89.65
1017.531	89.57
1017.883	89.75
1018.234	90.09
1018.586	90.47
1018.938	90.38
1019.289	90.7
1019.64	90.96
1019.992	91.26
1020.343	90.95
1020.694	90.73
1021.045	90.85
1021.396	90.86
1021.747	90.82
1022.098	90.98
1022.449	90.85
1022.8	90.96
1023.151	90.78
1023.501	90.82
1023.852	91.23
1024.202	91.17
1024.553	91.32
1024.903	91.33
1025.253	92
1025.604	92.18
1025.954	92.06
1026.304	92.39
1026.654	92.53
1027.004	92.87
1027.354	92.8
1027.703	92.53
1028.053	92.94
1028.403	92.89
1028.753	93.23
1029.102	92.66
1029.452	92.33
1029.801	92.03
1030.15	91.81
1030.499	91.8
897.758	580.22
901.051	600.36
904.343	605.3
907.636	592.2
910.928	581.98
914.22	594.74
917.511	578.92
920.803	556.23
924.094	534.38
927.384	540.79
930.675	529.33
933.965	525.36
937.255	520.63
940.544	498.74
943.834	481.24
947.123	475.23
950.411	450.34
953.7	444.9
956.988	434.29
960.276	415.87
963.563	409.02
966.851	386.7
970.138	381.45
973.424	356.59
976.711	354.61
979.997	340.56
983.283	332.37
986.568	322.24
989.853	316.45
993.138	304.59
996.423	300.6
999.708	294.59
1002.992	296.95
1006.275	285.64
1009.559	284.45
1012.842	275.99
1016.125	269.5
1019.408	266.48
1022.69	263.97
1025.972	261.1
1029.254	255.52
1032.536	251.43
1035.817	243.52
1039.098	239.71
1042.379	236.76
1045.659	233.52
1048.939	231.61
1052.219	228.62
1055.498	225.12
1058.778	222.71
1062.057	217.92
1065.335	217.37
1068.614	214.04
1071.892	212.76
1075.17	207.76
1078.447	206.27
1081.724	204.94
1085.001	200.51
1088.278	201.09
1091.554	199.64
1094.83	198.36
1098.106	196.75
1101.382	195.33
1104.657	194.79
1107.932	193.69
1111.206	193.31
1114.481	191.26
1117.755	190.18
1121.029	190
1124.302	187.55
1127.575	184.36
1130.848	183.45
1134.121	180.66
1137.393	180.3
1140.665	180.29
1143.937	178.56
1147.208	177
1150.48	175.29
1153.75	173.97
1157.021	172.4
1160.291	171.54
1163.561	171.69
1166.831	170.01
1170.101	170.32
1173.37	168.61
1176.639	166.31
1179.907	166.28
1183.176	166.15
1186.444	166.56
1189.711	165.09
1192.979	166.99
1196.246	166.63
1199.513	166.12
1202.78	166.43
1206.046	166.43
1209.312	167.13
1212.578	167.84
1215.843	170.02
1219.108	170.84
1222.373	172.99
1225.638	176.19
1228.902	178.67
1232.166	183.15
1235.43	185.37
1238.693	189.15
1241.956	194.02
1245.219	197.99
1248.482	200.03
1251.744	198.87
1255.006	198.24
1258.268	194.05
1261.529	192.83
1264.79	188.03
1268.051	185.93
1271.312	184.88
1274.572	182.63
1277.832	177.38
1281.092	175.76
1284.351	172.13
1287.61	171.87
1290.869	171.82
1294.128	171.19
1297.386	170.01
1300.644	169.73
1303.902	167.82
1307.159	165.89
1310.416	166.18
1313.673	168.42
1316.93	169.05
1320.186	171.27
1323.442	173.23
1326.697	175.16
1329.953	175.76
1333.208	180.3
1336.463	186.37
1339.717	189.98
1342.972	198.31
1346.226	201.91
1349.479	202.81
1352.733	210.76
1355.986	215.38
1359.238	218.81
1362.491	221.26
1365.743	229.11
1368.995	228.07
1372.247	230.36
1375.498	228.62
1378.749	236.34
1382	236.47
1385.251	234.23
1388.501	233.96
1391.751	236.12
1395	232.92
1398.25	233.7
1401.499	232.95
1404.748	234.12
1407.996	225.52
1411.244	225.42
1414.492	221.42
1417.74	213.87
1420.987	210.5
1424.234	205.98
1427.481	197.65
1430.728	193.21
1433.974	186.04
1437.22	179.89
1440.465	174.11
1443.711	168.94
1446.956	163.71
1450.201	157.34
1453.445	151.68
1456.689	147.32
1459.933	141.92
1463.177	136.88
1466.42	134.97
1469.663	132.18
1472.906	128.83
1476.148	125.33
1479.391	122.94
1482.633	121.09
1485.874	119.73
1489.115	118.93
1492.356	117.39
1495.597	115.9
1498.838	116.31
1502.078	115.19
1505.318	114.93
1508.557	114.48
1511.797	114
1515.036	113.96
1518.274	114.08
1521.513	111.89
1524.751	111.55
1527.989	112.9
1531.227	113.18
1534.464	112.47
1537.701	111.41
1540.938	110.77
1544.174	111.25
1547.41	111.14
1550.646	111.41
1553.882	111.1
1557.117	112.31
1560.352	111.76
1563.587	111.2
1566.821	111.24
1570.055	110.79
1573.289	111.26
1576.523	111.79
1579.756	111.04
1582.989	112.09
1586.222	111.65
1589.454	111.91
1592.686	111.98
1595.918	112.63
1599.15	111.91
1602.381	112.45
1605.612	113.09
1608.843	113.26
1612.073	113.39
1615.303	113.96
1618.533	113.32
1621.762	113.82
1624.992	113.88
1628.221	113.38
1631.449	113.93
1634.678	113.89
1637.906	113.57
1641.134	113.54
1644.361	113.82
1647.588	114.05
1650.815	114.4
1654.042	114.19
1657.269	113.52
1660.495	114.07
1663.72	114.36
1666.946	113.88
1670.171	114.75
1673.396	115.25
1676.621	115.51
1679.845	115.5
1683.069	115.35
1686.293	114.78
1689.517	115.07
1692.74	115.78
1695.963	115.87
1699.185	116.38
1702.408	116.3
1705.63	116.41
1708.852	117.15
1712.073	116.4
1715.294	116.24
1718.515	116.53
1721.736	116.95
1724.956	116.63
1728.176	116.45
1731.396	116.88
1734.616	116.74
1737.835	117.21
1741.054	116.59
1744.272	115.64
1747.491	116.15
1750.709	117.3
1753.927	117.04
1757.144	116.87
1760.361	117.67
1763.578	118.22
1766.795	117.95
1770.011	117.79
1773.227	117.76
1776.443	118.96
1779.658	119.22
1782.874	119.72
1786.089	118.85
1789.303	119.22
1792.518	119.95
1795.732	120.37
1798.945	121.18
1802.159	121.61
1805.372	123.08
1808.585	124.13
1811.797	124.55
1815.01	125.09
1818.222	126
1821.434	126.48
1824.645	127.17
1827.856	128.93
1831.067	129.91
1834.278	129.93
1837.488	130.6
1840.698	131.63
1843.908	131.75
1847.117	132.9
1850.326	134.31
1853.535	133.96
1856.744	135.46
1859.952	136.53
1863.16	136.1
1866.368	133.81
1869.575	134.46
1872.782	133.08
1875.989	130.57
1879.196	130.21
1882.402	127.97
1885.608	127.25
1888.814	126.57
1892.019	126.52
1895.224	123.67
1898.429	123.33
1901.634	124.18
1904.838	125.09
1908.042	125.6
1911.246	125.2
1914.449	125.18
1917.652	123.9
1920.855	124.97
1924.058	123.48
1927.26	122.62
1930.462	123.73
1933.664	124.27
1936.865	125.33
1940.066	122.43
1943.267	120.54
1946.467	122.64
1949.668	121.89
1952.868	123.97
1956.067	123.25
1959.267	124.01
1962.466	124.66
1965.665	126.29
1968.863	125.05
1972.061	126.77
1975.259	128.71
1978.457	131.71
1981.654	131.63
1984.852	133.8
1988.048	134.51
1991.245	135.69
1994.441	138.83
1997.637	141.02
2000.833	142.51
2004.028	145.14
2007.223	148.59
2010.418	152.02
2013.613	157.48
2016.807	161.68
2020.001	164.24
2023.194	169.41
2026.388	175.76
2029.581	185.44
2032.774	192.29
2035.966	198.56
2039.158	204.55
2042.35	206.96
2045.542	210.36
2048.733	220.26
2051.924	221.53
2055.115	226.22
2058.306	228.41
2061.496	232.92
2064.686	230.62
2067.875	229.83
2071.065	231.19
2074.254	231.6
2077.442	238.22
2080.631	241.55
2083.819	240.3
2087.007	246.63
2090.195	249.9
2093.382	248.82
2096.569	249.47
2099.756	254
2102.942	259.28
2106.128	264.83
2109.314	267.62
2112.5	266.88
2115.685	267.03
2118.87	267.8
2122.055	268.06
2125.239	273.51
2128.424	282.41
2131.608	279.69
2134.791	281.32
2137.974	280.64
2141.157	282.92
2144.34	285.49
2147.523	292.04
2150.705	297.28
2153.887	295.83
2157.068	300.09
2160.25	301.29
2163.431	300.89
2166.611	306.53
2169.792	310.04
2172.972	314.38
2176.152	313.21
2179.331	320.02
2182.511	317.76
2185.69	321.94
2188.868	332.15
2192.047	341.84
2195.225	347.55
2198.403	351.5
2201.58	345.37
2204.758	360.04
2207.935	362.52
2211.111	371.47
2214.288	373.98
2217.464	379.87
2220.64	380.04
2223.815	382.15
2226.991	376.42
2230.166	379.5
2233.34	388.64
2236.515	404.45
2239.689	398.09
2242.863	402.3
2246.036	401.43
2249.209	409.81
2252.382	404.92
2255.555	421.61
2258.727	423.46
2261.9	438.5
2265.071	442.87
2268.243	438.94
2271.414	449.52
2274.585	456.89
2277.756	457.6
2280.926	472.22
2284.096	475.98
2287.266	482.49
2290.436	471.85
2293.605	483.21
2296.774	495.05
2299.942	493.91
2303.111	512.48
2306.279	521.6
2309.447	521.32
2312.614	524.24
2315.781	539.29
2318.948	537.96
2322.115	547.77
2325.281	578.59
2328.447	572.21
2331.613	575.63
2334.779	585.35
2337.944	595.49
2341.109	603.74
2344.274	613.23
2347.438	629.24
2350.602	640
2353.766	681.28
2356.929	686.32
2360.092	692.59
2363.255	698.09
2366.418	706.01
2369.58	723.83
2372.742	716.94
2375.904	717.5
2379.066	738.71
2382.227	781.03
2385.388	772.77
2388.548	735.24
2391.709	725.89
2394.869	744.67
2398.029	748.65
2401.188	754.22
2404.347	773
2407.506	798.58
2410.665	769.28
2413.823	772.03
2416.981	774.29
2420.139	735.8
2423.296	799.32
2426.453	853.39
2429.61	811.4
2432.767	865.68
2435.923	886.26
2439.079	864.93
2442.235	883.2
2445.391	903.46
2448.546	892.08
2451.701	939.55
2454.855	1008.86
2458.009	881.72
2461.163	894.2
2464.317	910.27
2467.471	890.7
2470.624	919.51
2473.777	896.45
2476.929	867.83
2480.082	928.57
2483.234	978.01
2486.385	997.66
2489.537	1016.93
2492.688	1139.71
2495.839	1109.99
2498.989	1144.87
2502.14	1152.75
2505.29	1105.98
2508.439	1219.82
2511.589	1252.58
2514.738	1209.81
2517.887	1196.96
2521.035	1120.22
2524.183	1104.18
2527.331	1086.22
2530.479	1068.65
2533.627	1090.79
