Data from c_3_div_wi_4n_Splice17_15.txt Node
Date: Sat Feb 29 14:42:39 EST 2020
User: sa697716
Spectrometer: FLMS03696
Trigger mode: 0
Integration Time (sec): 3.180400E-1
Scans to average: 20
Electric dark correction enabled: true
Nonlinearity correction enabled: true
Boxcar width: 5
XAxis mode: Wavelengths
Number of Pixels in Spectrum: 2048
>>>>>Begin Spectral Data<<<<<
187.83	74.67
188.298	79.93
188.766	75.85
189.233	62.42
189.701	79.03
190.169	85.44
190.636	86.77
191.104	80.28
191.571	69.81
192.039	124.84
192.506	235
192.974	8123.1
193.441	-662.22
193.908	124.58
194.375	53.48
194.842	163.62
195.31	128.26
195.777	110.98
196.244	35.8
196.711	22.41
197.177	22.56
197.644	20.21
198.111	19.46
198.578	20.22
199.045	20.68
199.511	21.51
199.978	22.18
200.445	22.28
200.911	22.48
201.378	22.61
201.844	23.6
202.31	24.25
202.777	24.84
203.243	25.71
203.709	26.58
204.176	26.72
204.642	26.78
205.108	27.06
205.574	27.49
206.04	27.86
206.506	28.3
206.972	27.9
207.438	27.53
207.903	28.11
208.369	27.68
208.835	27.32
209.301	27.37
209.766	27.43
210.232	27.16
210.697	27.14
211.163	26.75
211.628	26.25
212.094	25.96
212.559	25.81
213.024	25.28
213.49	24.96
213.955	24.64
214.42	24.2
214.885	23.78
215.35	23.6
215.815	22.92
216.28	22.82
216.745	22.43
217.21	21.87
217.675	21.4
218.14	20.8
218.604	20.25
219.069	19.86
219.534	19.52
219.998	19.22
220.463	18.84
220.927	18.56
221.392	18.17
221.856	17.91
222.32	17.72
222.785	17.47
223.249	17.3
223.713	17.13
224.177	16.91
224.642	16.73
225.106	16.51
225.57	16.32
226.034	16.16
226.497	16
226.961	15.82
227.425	15.61
227.889	15.44
228.353	15.26
228.816	15.11
229.28	14.92
229.744	14.75
230.207	14.59
230.671	14.41
231.134	14.23
231.597	14.06
232.061	13.88
232.524	13.75
232.987	13.59
233.45	13.42
233.914	13.25
234.377	13.13
234.84	12.99
235.303	12.85
235.766	12.72
236.229	12.59
236.691	12.47
237.154	12.37
237.617	12.23
238.08	12.12
238.542	12.02
239.005	11.9
239.468	11.77
239.93	11.68
240.393	11.57
240.855	11.47
241.317	11.39
241.78	11.31
242.242	11.21
242.704	11.11
243.166	11.02
243.629	10.95
244.091	10.89
244.553	10.82
245.015	10.73
245.477	10.64
245.939	10.57
246.4	10.48
246.862	10.41
247.324	10.35
247.786	10.29
248.247	10.23
248.709	10.17
249.17	10.11
249.632	10.04
250.093	9.98
250.555	9.93
251.016	9.89
251.477	9.85
251.939	9.79
252.4	9.74
252.861	9.69
253.322	9.64
253.783	9.61
254.244	9.57
254.705	9.54
255.166	9.53
255.627	9.49
256.088	9.44
256.549	9.4
257.009	9.37
257.47	9.35
257.931	9.32
258.391	9.29
258.852	9.24
259.312	9.2
259.773	9.15
260.233	9.09
260.694	9.05
261.154	9.01
261.614	8.97
262.074	8.93
262.534	8.87
262.994	8.82
263.455	8.77
263.915	8.72
264.374	8.67
264.834	8.63
265.294	8.59
265.754	8.54
266.214	8.51
266.673	8.47
267.133	8.42
267.593	8.38
268.052	8.34
268.512	8.29
268.971	8.26
269.431	8.23
269.89	8.19
270.349	8.17
270.809	8.14
271.268	8.1
271.727	8.07
272.186	8.04
272.645	8.01
273.104	7.99
273.563	7.97
274.022	7.94
274.481	7.91
274.94	7.88
275.399	7.84
275.857	7.81
276.316	7.77
276.775	7.73
277.233	7.7
277.692	7.66
278.15	7.62
278.609	7.58
279.067	7.54
279.525	7.5
279.984	7.46
280.442	7.44
280.9	7.41
281.358	7.39
281.816	7.37
282.274	7.33
282.732	7.31
283.19	7.29
283.648	7.27
284.106	7.25
284.564	7.23
285.021	7.22
285.479	7.2
285.937	7.17
286.394	7.15
286.852	7.14
287.309	7.13
287.767	7.12
288.224	7.11
288.682	7.09
289.139	7.08
289.596	7.06
290.053	7.03
290.511	7.01
290.968	6.99
291.425	6.96
291.882	6.94
292.339	6.91
292.796	6.89
293.252	6.87
293.709	6.84
294.166	6.82
294.623	6.8
295.079	6.78
295.536	6.76
295.992	6.74
296.449	6.72
296.905	6.69
297.362	6.68
297.818	6.66
298.274	6.64
298.731	6.64
299.187	6.61
299.643	6.61
300.099	6.59
300.555	6.57
301.011	6.56
301.467	6.55
301.923	6.54
302.379	6.53
302.835	6.52
303.291	6.5
303.746	6.49
304.202	6.47
304.658	6.45
305.113	6.45
305.569	6.44
306.024	6.43
306.479	6.41
306.935	6.4
307.39	6.38
307.845	6.37
308.301	6.36
308.756	6.36
309.211	6.35
309.666	6.34
310.121	6.33
310.576	6.32
311.031	6.31
311.486	6.31
311.94	6.3
312.395	6.3
312.85	6.29
313.305	6.29
313.759	6.28
314.214	6.27
314.668	6.26
315.123	6.27
315.577	6.25
316.032	6.24
316.486	6.22
316.94	6.22
317.394	6.21
317.849	6.2
318.303	6.19
318.757	6.17
319.211	6.16
319.665	6.15
320.119	6.13
320.572	6.13
321.026	6.12
321.48	6.11
321.934	6.11
322.387	6.09
322.841	6.07
323.295	6.06
323.748	6.04
324.202	6.03
324.655	6.01
325.108	5.99
325.562	5.97
326.015	5.95
326.468	5.93
326.921	5.91
327.374	5.9
327.827	5.89
328.28	5.87
328.733	5.86
329.186	5.86
329.639	5.85
330.092	5.84
330.545	5.84
330.997	5.84
331.45	5.83
331.903	5.83
332.355	5.83
332.808	5.82
333.26	5.82
333.713	5.82
334.165	5.81
334.617	5.81
335.069	5.81
335.522	5.82
335.974	5.82
336.426	5.82
336.878	5.82
337.33	5.81
337.782	5.82
338.234	5.82
338.686	5.82
339.137	5.83
339.589	5.83
340.041	5.81
340.493	5.8
340.944	5.8
341.396	5.8
341.847	5.8
342.299	5.79
342.75	5.77
343.201	5.76
343.653	5.76
344.104	5.74
344.555	5.73
345.006	5.72
345.457	5.71
345.908	5.7
346.359	5.7
346.81	5.71
347.261	5.7
347.712	5.71
348.163	5.72
348.613	5.71
349.064	5.71
349.515	5.72
349.965	5.72
350.416	5.75
350.866	5.77
351.317	5.77
351.767	5.79
352.217	5.8
352.668	5.82
353.118	5.84
353.568	5.88
354.018	5.91
354.468	5.93
354.918	5.97
355.368	6
355.818	6.02
356.268	6.05
356.718	6.08
357.168	6.12
357.617	6.15
358.067	6.19
358.517	6.22
358.966	6.27
359.416	6.33
359.865	6.38
360.315	6.42
360.764	6.47
361.213	6.51
361.663	6.57
362.112	6.64
362.561	6.7
363.01	6.76
363.459	6.81
363.908	6.86
364.357	6.9
364.806	6.96
365.255	7.01
365.703	7.06
366.152	7.12
366.601	7.18
367.05	7.23
367.498	7.28
367.947	7.33
368.395	7.39
368.844	7.44
369.292	7.5
369.74	7.55
370.189	7.61
370.637	7.66
371.085	7.73
371.533	7.77
371.981	7.81
372.429	7.86
372.877	7.91
373.325	7.94
373.773	7.98
374.221	8.02
374.669	8.07
375.116	8.11
375.564	8.14
376.012	8.16
376.459	8.19
376.907	8.24
377.354	8.26
377.801	8.29
378.249	8.33
378.696	8.38
379.143	8.4
379.591	8.42
380.038	8.45
380.485	8.49
380.932	8.51
381.379	8.53
381.826	8.55
382.273	8.59
382.72	8.61
383.166	8.63
383.613	8.64
384.06	8.66
384.506	8.67
384.953	8.69
385.4	8.69
385.846	8.71
386.292	8.73
386.739	8.73
387.185	8.75
387.631	8.76
388.078	8.78
388.524	8.77
388.97	8.77
389.416	8.78
389.862	8.78
390.308	8.79
390.754	8.79
391.2	8.79
391.645	8.81
392.091	8.81
392.537	8.79
392.983	8.8
393.428	8.81
393.874	8.82
394.319	8.83
394.765	8.83
395.21	8.82
395.655	8.82
396.101	8.82
396.546	8.81
396.991	8.8
397.436	8.78
397.881	8.77
398.326	8.77
398.771	8.76
399.216	8.76
399.661	8.75
400.106	8.75
400.551	8.73
400.995	8.7
401.44	8.67
401.885	8.65
402.329	8.64
402.774	8.6
403.218	8.56
403.663	8.52
404.107	8.5
404.551	8.49
404.995	8.45
405.44	8.43
405.884	8.4
406.328	8.38
406.772	8.37
407.216	8.35
407.66	8.34
408.104	8.33
408.547	8.33
408.991	8.3
409.435	8.28
409.879	8.27
410.322	8.26
410.766	8.26
411.209	8.26
411.653	8.23
412.096	8.21
412.54	8.19
412.983	8.17
413.426	8.17
413.869	8.17
414.312	8.16
414.756	8.17
415.199	8.18
415.642	8.18
416.085	8.19
416.527	8.2
416.97	8.22
417.413	8.22
417.856	8.21
418.298	8.18
418.741	8.16
419.184	8.16
419.626	8.14
420.069	8.11
420.511	8.1
420.953	8.07
421.396	8.06
421.838	8.05
422.28	8.06
422.722	8.06
423.164	8.05
423.606	8.06
424.048	8.05
424.49	8.06
424.932	8.05
425.374	8.04
425.816	8.03
426.258	8.01
426.699	7.97
427.141	7.93
427.582	7.92
428.024	7.92
428.465	7.92
428.907	7.91
429.348	7.9
429.789	7.9
430.231	7.89
430.672	7.88
431.113	7.88
431.554	7.9
431.995	7.9
432.436	7.9
432.877	7.88
433.318	7.85
433.759	7.84
434.2	7.82
434.64	7.8
435.081	7.8
435.522	7.83
435.962	7.85
436.403	7.86
436.843	7.88
437.284	7.89
437.724	7.92
438.164	7.95
438.604	7.97
439.045	7.98
439.485	8.01
439.925	8.01
440.365	8
440.805	7.99
441.245	7.97
441.685	8
442.125	7.99
442.564	8
443.004	8.01
443.444	8.01
443.883	8.03
444.323	8.04
444.762	8.1
445.202	8.14
445.641	8.18
446.081	8.23
446.52	8.24
446.959	8.28
447.398	8.32
447.837	8.37
448.276	8.41
448.716	8.44
449.154	8.48
449.593	8.48
450.032	8.49
450.471	8.51
450.91	8.51
451.349	8.53
451.787	8.53
452.226	8.52
452.664	8.52
453.103	8.53
453.541	8.54
453.98	8.52
454.418	8.52
454.856	8.51
455.295	8.5
455.733	8.5
456.171	8.49
456.609	8.49
457.047	8.48
457.485	8.46
457.923	8.45
458.361	8.43
458.798	8.43
459.236	8.42
459.674	8.41
460.111	8.42
460.549	8.4
460.987	8.4
461.424	8.39
461.862	8.37
462.299	8.38
462.736	8.37
463.173	8.38
463.611	8.35
464.048	8.35
464.485	8.33
464.922	8.31
465.359	8.32
465.796	8.31
466.233	8.31
466.67	8.31
467.106	8.29
467.543	8.29
467.98	8.29
468.416	8.33
468.853	8.33
469.29	8.36
469.726	8.36
470.162	8.34
470.599	8.34
471.035	8.35
471.471	8.35
471.907	8.37
472.344	8.38
472.78	8.37
473.216	8.36
473.652	8.35
474.088	8.35
474.523	8.36
474.959	8.36
475.395	8.37
475.831	8.38
476.266	8.39
476.702	8.38
477.138	8.38
477.573	8.37
478.008	8.37
478.444	8.38
478.879	8.38
479.314	8.38
479.75	8.39
480.185	8.4
480.62	8.38
481.055	8.39
481.49	8.39
481.925	8.37
482.36	8.37
482.795	8.37
483.229	8.37
483.664	8.38
484.099	8.39
484.534	8.38
484.968	8.38
485.403	8.39
485.837	8.39
486.271	8.4
486.706	8.41
487.14	8.44
487.574	8.46
488.009	8.49
488.443	8.51
488.877	8.53
489.311	8.56
489.745	8.6
490.179	8.64
490.613	8.68
491.046	8.74
491.48	8.78
491.914	8.83
492.348	8.87
492.781	8.92
493.215	8.98
493.648	9.05
494.082	9.11
494.515	9.18
494.948	9.25
495.382	9.33
495.815	9.41
496.248	9.49
496.681	9.58
497.114	9.68
497.547	9.79
497.98	9.89
498.413	10
498.846	10.12
499.279	10.24
499.711	10.35
500.144	10.48
500.577	10.62
501.009	10.76
501.442	10.92
501.874	11.07
502.306	11.23
502.739	11.4
503.171	11.57
503.603	11.74
504.036	11.95
504.468	12.16
504.9	12.37
505.332	12.59
505.764	12.82
506.196	13.05
506.627	13.3
507.059	13.54
507.491	13.8
507.923	14.06
508.354	14.34
508.786	14.62
509.217	14.89
509.649	15.17
510.08	15.47
510.512	15.76
510.943	16.08
511.374	16.4
511.805	16.73
512.237	17.04
512.668	17.37
513.099	17.72
513.53	18.07
513.961	18.43
514.391	18.76
514.822	19.11
515.253	19.46
515.684	19.8
516.114	20.16
516.545	20.5
516.975	20.87
517.406	21.22
517.836	21.56
518.267	21.9
518.697	22.26
519.127	22.64
519.558	22.99
519.988	23.33
520.418	23.67
520.848	23.99
521.278	24.33
521.708	24.61
522.138	24.93
522.567	25.24
522.997	25.54
523.427	25.83
523.857	26.08
524.286	26.34
524.716	26.61
525.145	26.89
525.575	27.13
526.004	27.38
526.433	27.62
526.863	27.87
527.292	28.08
527.721	28.29
528.15	28.49
528.579	28.71
529.008	28.9
529.437	29.09
529.866	29.25
530.295	29.44
530.724	29.61
531.152	29.78
531.581	29.91
532.01	30.05
532.438	30.17
532.867	30.27
533.295	30.39
533.723	30.51
534.152	30.58
534.58	30.65
535.008	30.7
535.436	30.76
535.865	30.82
536.293	30.89
536.721	30.94
537.149	30.99
537.576	31.04
538.004	31.08
538.432	31.11
538.86	31.16
539.287	31.2
539.715	31.26
540.143	31.28
540.57	31.3
540.998	31.34
541.425	31.37
541.852	31.4
542.28	31.41
542.707	31.46
543.134	31.48
543.561	31.49
543.988	31.52
544.415	31.53
544.842	31.56
545.269	31.58
545.696	31.61
546.123	31.64
546.549	31.69
546.976	31.74
547.403	31.74
547.829	31.76
548.256	31.8
548.682	31.81
549.108	31.85
549.535	31.87
549.961	31.9
550.387	31.91
550.813	31.9
551.24	31.89
551.666	31.88
552.092	31.88
552.518	31.88
552.943	31.87
553.369	31.86
553.795	31.84
554.221	31.81
554.646	31.79
555.072	31.75
555.498	31.71
555.923	31.65
556.349	31.58
556.774	31.51
557.199	31.44
557.625	31.37
558.05	31.29
558.475	31.18
558.9	31.09
559.325	30.95
559.75	30.83
560.175	30.72
560.6	30.59
561.025	30.46
561.449	30.33
561.874	30.19
562.299	30.04
562.723	29.89
563.148	29.75
563.572	29.62
563.997	29.48
564.421	29.31
564.846	29.15
565.27	28.99
565.694	28.83
566.118	28.65
566.542	28.46
566.966	28.28
567.39	28.08
567.814	27.87
568.238	27.66
568.662	27.46
569.086	27.27
569.509	27.06
569.933	26.85
570.357	26.62
570.78	26.43
571.204	26.21
571.627	26
572.05	25.82
572.474	25.64
572.897	25.47
573.32	25.28
573.743	25.12
574.166	24.95
574.589	24.79
575.012	24.66
575.435	24.52
575.858	24.39
576.281	24.24
576.704	24.12
577.126	23.98
577.549	23.86
577.972	23.73
578.394	23.61
578.817	23.5
579.239	23.39
579.661	23.29
580.084	23.17
580.506	23.07
580.928	22.96
581.35	22.87
581.772	22.79
582.194	22.68
582.616	22.59
583.038	22.5
583.46	22.41
583.882	22.32
584.303	22.25
584.725	22.17
585.147	22.07
585.568	22.01
585.99	21.93
586.411	21.85
586.833	21.79
587.254	21.72
587.675	21.65
588.096	21.58
588.518	21.53
588.939	21.46
589.36	21.39
589.781	21.35
590.202	21.29
590.623	21.22
591.043	21.16
591.464	21.11
591.885	21.06
592.305	21.01
592.726	20.97
593.147	20.92
593.567	20.88
593.987	20.86
594.408	20.81
594.828	20.77
595.248	20.75
595.669	20.73
596.089	20.67
596.509	20.63
596.929	20.59
597.349	20.53
597.769	20.48
598.189	20.44
598.608	20.37
599.028	20.32
599.448	20.27
599.867	20.22
600.287	20.16
600.706	20.1
601.126	20.03
601.545	19.97
601.965	19.91
602.384	19.86
602.803	19.78
603.222	19.73
603.641	19.64
604.061	19.57
604.48	19.49
604.898	19.41
605.317	19.33
605.736	19.25
606.155	19.16
606.574	19.08
606.992	18.97
607.411	18.9
607.829	18.76
608.248	18.7
608.666	18.6
609.085	18.5
609.503	18.41
609.921	18.32
610.339	18.25
610.758	18.15
611.176	18.08
611.594	17.99
612.012	17.89
612.43	17.84
612.847	17.73
613.265	17.65
613.683	17.57
614.101	17.48
614.518	17.39
614.936	17.29
615.353	17.21
615.771	17.12
616.188	17.05
616.606	16.98
617.023	16.9
617.44	16.83
617.857	16.75
618.274	16.67
618.691	16.61
619.108	16.56
619.525	16.5
619.942	16.46
620.359	16.41
620.776	16.37
621.192	16.33
621.609	16.3
622.026	16.28
622.442	16.25
622.859	16.22
623.275	16.22
623.691	16.2
624.108	16.18
624.524	16.16
624.94	16.14
625.356	16.12
625.772	16.12
626.188	16.12
626.604	16.09
627.02	16.09
627.436	16.08
627.852	16.05
628.268	16.03
628.683	16.01
629.099	15.98
629.514	15.96
629.93	15.91
630.345	15.86
630.761	15.82
631.176	15.78
631.591	15.72
632.007	15.66
632.422	15.61
632.837	15.55
633.252	15.48
633.667	15.39
634.082	15.31
634.497	15.22
634.911	15.12
635.326	15.01
635.741	14.9
636.155	14.79
636.57	14.66
636.984	14.51
637.399	14.35
637.813	14.2
638.228	14.07
638.642	13.92
639.056	13.77
639.47	13.62
639.884	13.46
640.298	13.3
640.712	13.14
641.126	13
641.54	12.86
641.954	12.73
642.368	12.6
642.781	12.44
643.195	12.29
643.609	12.15
644.022	12.02
644.436	11.9
644.849	11.78
645.262	11.68
645.676	11.56
646.089	11.45
646.502	11.35
646.915	11.26
647.328	11.19
647.741	11.11
648.154	11.03
648.567	10.97
648.98	10.9
649.393	10.85
649.805	10.78
650.218	10.73
650.631	10.69
651.043	10.64
651.456	10.6
651.868	10.54
652.28	10.5
652.693	10.47
653.105	10.43
653.517	10.38
653.929	10.33
654.341	10.27
654.753	10.23
655.165	10.17
655.577	10.09
655.989	10.01
656.401	9.94
656.813	9.86
657.224	9.79
657.636	9.7
658.047	9.63
658.459	9.53
658.87	9.45
659.282	9.36
659.693	9.26
660.104	9.18
660.515	9.1
660.926	9.02
661.338	8.94
661.749	8.86
662.159	8.79
662.57	8.7
662.981	8.63
663.392	8.55
663.803	8.47
664.213	8.41
664.624	8.36
665.035	8.32
665.445	8.27
665.855	8.22
666.266	8.17
666.676	8.14
667.086	8.11
667.497	8.09
667.907	8.06
668.317	8.05
668.727	8.04
669.137	8.02
669.547	8.01
669.956	8.01
670.366	8.01
670.776	8
671.186	8
671.595	8.02
672.005	8.03
672.414	8.05
672.824	8.07
673.233	8.09
673.642	8.11
674.052	8.13
674.461	8.16
674.87	8.18
675.279	8.23
675.688	8.27
676.097	8.3
676.506	8.34
676.915	8.39
677.323	8.43
677.732	8.49
678.141	8.54
678.549	8.61
678.958	8.68
679.366	8.75
679.775	8.82
680.183	8.9
680.592	8.99
681	9.09
681.408	9.19
681.816	9.31
682.224	9.46
682.632	9.61
683.04	9.77
683.448	9.94
683.856	10.13
684.264	10.34
684.671	10.59
685.079	10.84
685.487	11.14
685.894	11.46
686.302	11.81
686.709	12.15
687.116	12.56
687.524	12.99
687.931	13.45
688.338	13.96
688.745	14.47
689.152	15.01
689.559	15.59
689.966	16.2
690.373	16.83
690.78	17.48
691.187	18.14
691.593	18.8
692	19.48
692.407	20.19
692.813	20.9
693.22	21.63
693.626	22.36
694.032	23.09
694.439	23.85
694.845	24.59
695.251	25.32
695.657	26.06
696.063	26.83
696.469	27.57
696.875	28.3
697.281	29.02
697.687	29.75
698.093	30.48
698.498	31.18
698.904	31.85
699.31	32.53
699.715	33.23
700.12	33.89
700.526	34.53
700.931	35.19
701.337	35.82
701.742	36.42
702.147	37.02
702.552	37.61
702.957	38.17
703.362	38.77
703.767	39.34
704.172	39.87
704.577	40.44
704.981	40.98
705.386	41.5
705.791	42.04
706.195	42.55
706.6	43.05
707.004	43.57
707.408	44.09
707.813	44.58
708.217	45.03
708.621	45.5
709.025	45.94
709.43	46.4
709.834	46.85
710.237	47.27
710.641	47.72
711.045	48.13
711.449	48.51
711.853	48.91
712.256	49.31
712.66	49.69
713.064	50.07
713.467	50.45
713.87	50.8
714.274	51.18
714.677	51.5
715.08	51.82
715.484	52.18
715.887	52.52
716.29	52.84
716.693	53.14
717.096	53.47
717.499	53.79
717.901	54.08
718.304	54.35
718.707	54.6
719.109	54.94
719.512	55.27
719.915	55.55
720.317	55.79
720.719	56.08
721.122	56.35
721.524	56.61
721.926	56.87
722.328	57.14
722.731	57.41
723.133	57.65
723.535	57.88
723.937	58.06
724.338	58.25
724.74	58.47
725.142	58.58
725.544	58.73
725.945	58.91
726.347	59.07
726.748	59.18
727.15	59.31
727.551	59.47
727.952	59.61
728.354	59.79
728.755	59.95
729.156	60.1
729.557	60.31
729.958	60.48
730.359	60.59
730.76	60.69
731.161	60.84
731.562	60.98
731.962	61.09
732.363	61.18
732.763	61.26
733.164	61.34
733.564	61.43
733.965	61.46
734.365	61.5
734.766	61.57
735.166	61.64
735.566	61.69
735.966	61.76
736.366	61.81
736.766	61.87
737.166	61.92
737.566	61.98
737.966	62.05
738.365	62.15
738.765	62.25
739.165	62.32
739.564	62.39
739.964	62.41
740.363	62.42
740.763	62.44
741.162	62.46
741.561	62.49
741.96	62.56
742.36	62.58
742.759	62.58
743.158	62.57
743.557	62.63
743.955	62.69
744.354	62.76
744.753	62.82
745.152	62.87
745.55	62.89
745.949	62.94
746.348	62.93
746.746	62.96
747.144	63
747.543	63.08
747.941	63.1
748.339	63.13
748.737	63.18
749.136	63.2
749.534	63.22
749.932	63.27
750.33	63.28
750.727	63.3
751.125	63.3
751.523	63.32
751.921	63.31
752.318	63.29
752.716	63.28
753.113	63.29
753.511	63.25
753.908	63.24
754.305	63.22
754.703	63.2
755.1	63.2
755.497	63.19
755.894	63.17
756.291	63.13
756.688	63.12
757.085	63.09
757.482	63.07
757.878	63.07
758.275	63.07
758.672	63.1
759.068	63.08
759.465	63.07
759.861	63.07
760.258	63.02
760.654	63.03
761.05	63.02
761.447	62.98
761.843	62.93
762.239	62.94
762.635	62.94
763.031	62.91
763.427	62.89
763.822	62.85
764.218	62.84
764.614	62.86
765.01	62.86
765.405	62.84
765.801	62.84
766.196	62.82
766.592	62.82
766.987	62.79
767.382	62.78
767.778	62.79
768.173	62.8
768.568	62.77
768.963	62.75
769.358	62.74
769.753	62.77
770.148	62.8
770.542	62.81
770.937	62.77
771.332	62.79
771.726	62.79
772.121	62.76
772.515	62.76
772.91	62.75
773.304	62.74
773.699	62.72
774.093	62.66
774.487	62.65
774.881	62.63
775.275	62.66
775.669	62.63
776.063	62.59
776.457	62.59
776.851	62.57
777.245	62.58
777.638	62.59
778.032	62.58
778.425	62.6
778.819	62.58
779.212	62.6
779.606	62.56
779.999	62.55
780.392	62.59
780.786	62.6
781.179	62.63
781.572	62.63
781.965	62.64
782.358	62.6
782.751	62.62
783.143	62.65
783.536	62.68
783.929	62.71
784.322	62.79
784.714	62.77
785.107	62.79
785.499	62.79
785.891	62.83
786.284	62.81
786.676	62.84
787.068	62.84
787.46	62.81
787.852	62.8
788.245	62.79
788.636	62.73
789.028	62.74
789.42	62.69
789.812	62.69
790.204	62.6
790.595	62.63
790.987	62.64
791.378	62.67
791.77	62.75
792.161	62.78
792.553	62.79
792.944	62.84
793.335	62.86
793.726	62.9
794.117	62.87
794.508	62.96
794.899	62.94
795.29	62.92
795.681	62.91
796.072	62.86
796.463	62.89
796.853	62.87
797.244	62.86
797.634	62.84
798.025	62.84
798.415	62.88
798.806	62.88
799.196	62.93
799.586	63.01
799.976	63.02
800.366	63.04
800.756	62.99
801.146	63
801.536	63.01
801.926	63.05
802.316	63.06
802.706	63.1
803.095	63.12
803.485	63.12
803.874	63.09
804.264	63.1
804.653	63.12
805.043	63.17
805.432	63.19
805.821	63.19
806.21	63.22
806.599	63.31
806.988	63.32
807.377	63.34
807.766	63.35
808.155	63.41
808.544	63.41
808.933	63.42
809.321	63.46
809.71	63.52
810.098	63.52
810.487	63.54
810.875	63.5
811.264	63.5
811.652	63.54
812.04	63.56
812.428	63.57
812.816	63.58
813.204	63.63
813.592	63.61
813.98	63.58
814.368	63.61
814.756	63.65
815.144	63.71
815.531	63.74
815.919	63.72
816.306	63.72
816.694	63.75
817.081	63.79
817.469	63.79
817.856	63.87
818.243	63.91
818.63	64.01
819.017	64.05
819.404	64
819.791	63.99
820.178	64.01
820.565	64.03
820.952	64.06
821.339	64.09
821.725	64.12
822.112	64.09
822.498	64.07
822.885	64.04
823.271	64.03
823.657	64.07
824.044	64.09
824.43	64.12
824.816	64.11
825.202	64.1
825.588	64.09
825.974	64.07
826.36	64.08
826.746	64.11
827.132	64.05
827.517	64.06
827.903	64.08
828.289	64.09
828.674	64.07
829.06	64.09
829.445	64.08
829.83	64.09
830.216	64.1
830.601	64.09
830.986	64.07
831.371	64.12
831.756	64.1
832.141	64.08
832.526	64.07
832.911	64.08
833.295	64.08
833.68	64.08
834.065	64.07
834.449	64.04
834.834	64.03
835.218	64
835.603	63.96
835.987	63.93
836.371	63.92
836.755	63.9
837.139	63.89
837.524	63.86
837.908	63.83
838.291	63.8
838.675	63.79
839.059	63.77
839.443	63.78
839.827	63.8
840.21	63.81
840.594	63.8
840.977	63.78
841.361	63.76
841.744	63.75
842.127	63.73
842.511	63.72
842.894	63.69
843.277	63.71
843.66	63.74
844.043	63.73
844.426	63.72
844.809	63.68
845.191	63.68
845.574	63.68
845.957	63.68
846.339	63.7
846.722	63.71
847.104	63.73
847.487	63.72
847.869	63.7
848.252	63.67
848.634	63.68
849.016	63.72
849.398	63.74
849.78	63.74
850.162	63.73
850.544	63.71
850.926	63.66
851.307	63.66
851.689	63.66
852.071	63.65
852.452	63.68
852.834	63.67
853.215	63.66
853.597	63.66
853.978	63.66
854.359	63.67
854.741	63.71
855.122	63.76
855.503	63.78
855.884	63.75
856.265	63.75
856.646	63.72
857.026	63.74
857.407	63.69
857.788	63.71
858.169	63.69
858.549	63.71
858.93	63.7
859.31	63.7
859.69	63.69
860.071	63.69
860.451	63.7
860.831	63.7
861.211	63.7
861.591	63.72
861.971	63.67
862.351	63.7
862.731	63.69
863.111	63.68
863.491	63.66
863.87	63.65
864.25	63.69
864.629	63.67
865.009	63.68
865.388	63.69
865.768	63.68
866.147	63.72
866.526	63.69
866.905	63.71
867.284	63.71
867.663	63.72
868.042	63.72
868.421	63.7
868.8	63.71
869.179	63.71
869.558	63.68
869.936	63.68
870.315	63.66
870.693	63.67
871.072	63.62
871.45	63.59
871.828	63.59
872.207	63.62
872.585	63.62
872.963	63.59
873.341	63.6
873.719	63.6
874.097	63.63
874.475	63.65
874.853	63.64
875.23	63.67
875.608	63.72
875.986	63.69
876.363	63.62
876.741	63.65
877.118	63.68
877.495	63.64
877.873	63.65
878.25	63.59
878.627	63.58
879.004	63.58
879.381	63.56
879.758	63.5
880.135	63.5
880.512	63.56
880.889	63.59
881.265	63.58
881.642	63.58
882.019	63.6
882.395	63.63
882.772	63.64
883.148	63.65
883.524	63.65
883.901	63.65
884.277	63.66
884.653	63.65
885.029	63.59
885.405	63.55
885.781	63.55
886.157	63.53
886.532	63.5
886.908	63.46
887.284	63.45
887.659	63.48
888.035	63.51
888.411	63.49
888.786	63.45
889.161	63.46
889.537	63.48
889.912	63.47
890.287	63.44
890.662	63.42
891.037	63.42
891.412	63.38
891.787	63.33
892.162	63.29
892.536	63.27
892.911	63.24
893.286	63.21
893.66	63.16
894.035	63.14
894.409	63.12
894.784	63.11
895.158	63.08
895.532	63.1
895.906	63.1
896.281	63.06
896.655	63.06
897.029	63.04
897.402	63.04
897.776	63.07
898.15	63.07
898.524	63.06
898.898	63.01
899.271	63.01
899.645	62.98
900.018	62.95
900.392	62.98
900.765	62.98
901.138	62.99
901.511	62.96
901.884	62.95
902.258	62.92
902.631	62.95
903.003	62.98
903.376	62.96
903.749	62.97
904.122	62.98
904.495	62.97
904.867	62.94
905.24	62.94
905.612	62.93
905.985	62.89
906.357	62.88
906.729	62.85
907.102	62.85
907.474	62.87
907.846	62.84
908.218	62.81
908.59	62.77
908.962	62.77
909.334	62.76
909.705	62.73
910.077	62.74
910.449	62.76
910.82	62.75
911.192	62.72
911.563	62.66
911.935	62.62
912.306	62.62
912.677	62.64
913.048	62.6
913.419	62.56
913.79	62.56
914.161	62.55
914.532	62.51
914.903	62.47
915.274	62.46
915.645	62.51
916.015	62.57
916.386	62.56
916.756	62.51
917.127	62.52
917.497	62.52
917.868	62.51
918.238	62.51
918.608	62.51
918.978	62.48
919.348	62.45
919.718	62.4
920.088	62.37
920.458	62.36
920.828	62.39
921.198	62.39
921.567	62.36
921.937	62.37
922.306	62.36
922.676	62.32
923.045	62.34
923.415	62.37
923.784	62.38
924.153	62.37
924.522	62.35
924.891	62.32
925.26	62.31
925.629	62.33
925.998	62.34
926.367	62.31
926.736	62.28
927.104	62.3
927.473	62.26
927.842	62.21
928.21	62.2
928.578	62.15
928.947	62.12
929.315	62.09
929.683	62.05
930.051	61.97
930.42	61.93
930.788	61.94
931.156	61.84
931.523	61.81
931.891	61.76
932.259	61.65
932.627	61.59
932.994	61.53
933.362	61.47
933.729	61.39
934.097	61.3
934.464	61.24
934.831	61.13
935.199	61.05
935.566	60.88
935.933	60.79
936.3	60.7
936.667	60.69
937.034	60.61
937.401	60.5
937.767	60.43
938.134	60.39
938.501	60.32
938.867	60.32
939.234	60.32
939.6	60.32
939.967	60.37
940.333	60.44
940.699	60.38
941.065	60.42
941.431	60.49
941.798	60.62
942.163	60.72
942.529	60.79
942.895	60.79
943.261	60.84
943.627	61.04
943.992	61.14
944.358	61.2
944.723	61.27
945.089	61.37
945.454	61.45
945.82	61.42
946.185	61.54
946.55	61.6
946.915	61.62
947.28	61.67
947.645	61.67
948.01	61.63
948.375	61.62
948.74	61.56
949.104	61.62
949.469	61.52
949.834	61.51
950.198	61.38
950.562	61.29
950.927	61.27
951.291	61.23
951.655	61.18
952.02	61.18
952.384	61.16
952.748	61.17
953.112	61.08
953.476	61.09
953.839	61.05
954.203	61
954.567	61.05
954.931	61.01
955.294	60.97
955.658	60.96
956.021	60.93
956.385	60.87
956.748	60.79
957.111	60.69
957.474	60.7
957.837	60.67
958.2	60.56
958.563	60.43
958.926	60.33
959.289	60.28
959.652	60.26
960.015	60.25
960.377	60.23
960.74	60.21
961.102	60.18
961.465	60.2
961.827	60.11
962.189	60.16
962.552	60.1
962.914	60.08
963.276	60.11
963.638	60.08
964	59.98
964.362	59.94
964.724	59.93
965.085	59.94
965.447	59.81
965.809	59.77
966.17	59.77
966.532	59.8
966.893	59.8
967.255	59.67
967.616	59.65
967.977	59.61
968.338	59.54
968.699	59.45
969.061	59.39
969.421	59.38
969.782	59.38
970.143	59.29
970.504	59.23
970.865	59.16
971.225	59.19
971.586	59.13
971.946	59.15
972.307	59.13
972.667	59.21
973.027	59.21
973.388	59.15
973.748	59.11
974.108	59.07
974.468	59.09
974.828	59.09
975.188	59.09
975.548	59.02
975.907	58.98
976.267	58.96
976.627	58.97
976.986	58.91
977.346	58.96
977.705	58.89
978.064	58.91
978.424	58.92
978.783	58.91
979.142	58.9
979.501	58.88
979.86	58.88
980.219	58.82
980.578	58.79
980.937	58.8
981.296	58.76
981.654	58.87
982.013	58.95
982.371	58.88
982.73	58.9
983.088	58.81
983.447	58.9
983.805	58.84
984.163	58.92
984.521	58.82
984.879	58.83
985.237	58.87
985.595	58.78
985.953	58.68
986.311	58.75
986.669	58.7
987.026	58.73
987.384	58.59
987.741	58.61
988.099	58.62
988.456	58.56
988.814	58.53
989.171	58.37
989.528	58.32
989.885	58.22
990.242	58.14
990.599	58.08
990.956	58.14
991.313	58.19
991.67	58.18
992.027	58.07
992.383	58.08
992.74	57.99
993.096	58.06
993.453	58.15
993.809	58.19
994.165	58.11
994.522	58.19
994.878	58.15
995.234	58.07
995.59	57.91
995.946	57.83
996.302	57.76
996.658	57.77
997.013	57.75
997.369	57.73
997.725	57.8
998.08	57.9
998.436	57.86
998.791	57.74
999.147	57.75
999.502	57.89
999.857	58.05
1000.212	58.04
1000.567	58.01
1000.922	57.94
1001.277	57.87
1001.632	57.7
1001.987	57.65
1002.342	57.71
1002.696	57.61
1003.051	57.41
1003.406	57.14
1003.76	57.03
1004.114	57.1
1004.469	57.16
1004.823	57.18
1005.177	57.35
1005.531	57.32
1005.885	57.39
1006.239	57.18
1006.593	57.13
1006.947	57.21
1007.301	57.44
1007.655	57.48
1008.008	57.22
1008.362	57.09
1008.715	56.92
1009.069	56.6
1009.422	56.58
1009.776	56.5
1010.129	56.3
1010.482	56.51
1010.835	56.73
1011.188	56.61
1011.541	56.32
1011.894	56.46
1012.247	56.47
1012.6	56.46
1012.952	56.45
1013.305	56.35
1013.657	56.11
1014.01	56.48
1014.362	56.23
1014.715	56
1015.067	56.08
1015.419	56.44
1015.771	56.77
1016.123	56.47
1016.475	56.48
1016.827	56.6
1017.179	56.74
1017.531	56.88
1017.883	56.52
1018.234	56.59
1018.586	56.64
1018.938	56.39
1019.289	55.9
1019.64	55.72
1019.992	56.06
1020.343	55.94
1020.694	55.77
1021.045	55.37
1021.396	55.28
1021.747	55.4
1022.098	55.33
1022.449	55.18
1022.8	55.07
1023.151	55.07
1023.501	54.83
1023.852	54.48
1024.202	54.66
1024.553	54.69
1024.903	54.82
1025.253	54.71
1025.604	54.76
1025.954	54.53
1026.304	54.84
1026.654	55.1
1027.004	55.2
1027.354	55.01
1027.703	55.05
1028.053	54.8
1028.403	54.54
1028.753	54.87
1029.102	54.45
1029.452	53.89
1029.801	53.62
1030.15	53.04
1030.499	52.61
897.758	582.04
901.051	595.65
904.343	602.34
907.636	594.08
910.928	583.18
914.22	592.47
917.511	580.29
920.803	560.53
924.094	535.42
927.384	541.13
930.675	526.18
933.965	521.39
937.255	520.99
940.544	497.41
943.834	475.46
947.123	468.36
950.411	445.36
953.7	436.64
956.988	421.67
960.276	407.26
963.563	400.46
966.851	377.31
970.138	372.7
973.424	345.83
976.711	342.42
979.997	331.84
983.283	323.44
986.568	311.92
989.853	303.74
993.138	292.7
996.423	287.64
999.708	277.59
1002.992	279.49
1006.275	270.36
1009.559	267.91
1012.842	259.23
1016.125	250.28
1019.408	246.49
1022.69	246.73
1025.972	243.18
1029.254	238.28
1032.536	232.97
1035.817	227.04
1039.098	222.64
1042.379	218.6
1045.659	216.26
1048.939	214.25
1052.219	210.83
1055.498	207.48
1058.778	202.46
1062.057	199.97
1065.335	198.22
1068.614	195.22
1071.892	193.05
1075.17	189.9
1078.447	186.8
1081.724	184.9
1085.001	179.9
1088.278	179.96
1091.554	178.84
1094.83	177.89
1098.106	174.29
1101.382	172.74
1104.657	172.78
1107.932	171.96
1111.206	170.74
1114.481	168.97
1117.755	167.05
1121.029	168.22
1124.302	165.22
1127.575	162.22
1130.848	161.24
1134.121	159.64
1137.393	159.59
1140.665	157.91
1143.937	155.78
1147.208	154.23
1150.48	152.73
1153.75	153.12
1157.021	150.3
1160.291	149.94
1163.561	149.06
1166.831	148.68
1170.101	148.46
1173.37	147.06
1176.639	145.67
1179.907	145.96
1183.176	144.55
1186.444	144.58
1189.711	143.1
1192.979	145.87
1196.246	145.47
1199.513	146.7
1202.78	145.36
1206.046	145.22
1209.312	147.1
1212.578	147.8
1215.843	150.14
1219.108	151.79
1222.373	154.55
1225.638	157.13
1228.902	159.36
1232.166	165.12
1235.43	166.03
1238.693	171.12
1241.956	175.71
1245.219	179.33
1248.482	179.97
1251.744	179.12
1255.006	181.36
1258.268	175.74
1261.529	174.44
1264.79	170.2
1268.051	166.28
1271.312	164.9
1274.572	161.98
1277.832	157.52
1281.092	155.17
1284.351	152.59
1287.61	152.59
1290.869	150.66
1294.128	151.36
1297.386	150.14
1300.644	149.49
1303.902	148.33
1307.159	147.57
1310.416	148.3
1313.673	150.67
1316.93	151.21
1320.186	154.1
1323.442	155.22
1326.697	157.73
1329.953	159.76
1333.208	165.67
1336.463	172.04
1339.717	175.41
1342.972	184.04
1346.226	188.9
1349.479	189.49
1352.733	199.12
1355.986	203.32
1359.238	208.11
1362.491	210.3
1365.743	216.51
1368.995	217.66
1372.247	215.32
1375.498	215.3
1378.749	220.86
1382	220.07
1385.251	220.3
1388.501	218.82
1391.751	219.59
1395	218.57
1398.25	220.24
1401.499	218.23
1404.748	216.89
1407.996	214.68
1411.244	214.23
1414.492	211.68
1417.74	205.14
1420.987	200.26
1424.234	196.33
1427.481	189.4
1430.728	183.16
1433.974	177.05
1437.22	172.56
1440.465	166.41
1443.711	161.19
1446.956	156.23
1450.201	149.67
1453.445	144.64
1456.689	140.32
1459.933	135.84
1463.177	129.89
1466.42	127.76
1469.663	124.11
1472.906	120.02
1476.148	116.77
1479.391	114.57
1482.633	112.53
1485.874	110.96
1489.115	109.45
1492.356	107.77
1495.597	105.81
1498.838	106.27
1502.078	105.35
1505.318	104.74
1508.557	104.23
1511.797	103.14
1515.036	102.35
1518.274	102.08
1521.513	100.9
1524.751	100.18
1527.989	100.93
1531.227	100.76
1534.464	99.86
1537.701	99.11
1540.938	98.69
1544.174	99.12
1547.41	98.78
1550.646	99.14
1553.882	99.17
1557.117	98.15
1560.352	97.64
1563.587	97.13
1566.821	96.86
1570.055	96.57
1573.289	96.43
1576.523	96.32
1579.756	95.44
1582.989	95.89
1586.222	95.18
1589.454	95.21
1592.686	95.92
1595.918	95.74
1599.15	95.16
1602.381	95.21
1605.612	95.39
1608.843	95.33
1612.073	95.95
1615.303	96.01
1618.533	95.88
1621.762	95.41
1624.992	95.75
1628.221	94.96
1631.449	95.87
1634.678	96.11
1637.906	96.46
1641.134	96.7
1644.361	96.75
1647.588	96.76
1650.815	96.97
1654.042	97.63
1657.269	97.69
1660.495	97.87
1663.72	98.37
1666.946	98.36
1670.171	98.72
1673.396	99.21
1676.621	98.97
1679.845	98.88
1683.069	99.17
1686.293	98.78
1689.517	98.74
1692.74	99.47
1695.963	99.35
1699.185	99.76
1702.408	99.87
1705.63	100.04
1708.852	100.81
1712.073	100.63
1715.294	101.16
1718.515	101.14
1721.736	101.51
1724.956	101.7
1728.176	101.45
1731.396	101.85
1734.616	101.68
1737.835	101.92
1741.054	101.13
1744.272	101.01
1747.491	100.98
1750.709	101.78
1753.927	101.64
1757.144	102.16
1760.361	102.03
1763.578	102.55
1766.795	102.93
1770.011	103.66
1773.227	104.07
1776.443	105.33
1779.658	104.59
1782.874	105.87
1786.089	105.67
1789.303	105.99
1792.518	107.04
1795.732	107.25
1798.945	108.88
1802.159	108.73
1805.372	109.64
1808.585	110.36
1811.797	111.76
1815.01	112.52
1818.222	112.9
1821.434	114.62
1824.645	115.1
1827.856	116.19
1831.067	116.98
1834.278	117.79
1837.488	119.11
1840.698	119.67
1843.908	119.46
1847.117	120.02
1850.326	121.74
1853.535	122.31
1856.744	122.26
1859.952	124.05
1863.16	124.01
1866.368	124.36
1869.575	124.58
1872.782	123.12
1875.989	122.55
1879.196	123.16
1882.402	122.2
1885.608	122.34
1888.814	122.18
1892.019	123.7
1895.224	121.81
1898.429	122.46
1901.634	122.74
1904.838	122.7
1908.042	124.64
1911.246	124.29
1914.449	124.47
1917.652	124.01
1920.855	124.23
1924.058	123.18
1927.26	121.87
1930.462	123.24
1933.664	123.25
1936.865	124.28
1940.066	122.75
1943.267	121.22
1946.467	123.05
1949.668	123.07
1952.868	123.7
1956.067	123.82
1959.267	124.38
1962.466	125.15
1965.665	125.18
1968.863	125.22
1972.061	126.51
1975.259	129.45
1978.457	131.69
1981.654	132.16
1984.852	133.37
1988.048	135.39
1991.245	136.54
1994.441	140.8
1997.637	142.27
2000.833	145.75
2004.028	147.87
2007.223	149.73
2010.418	152.78
2013.613	159.48
2016.807	163.36
2020.001	166.12
2023.194	170.49
2026.388	176.78
2029.581	185.98
2032.774	193.19
2035.966	198.15
2039.158	203.51
2042.35	207.66
2045.542	210.81
2048.733	217.44
2051.924	222.08
2055.115	226.92
2058.306	229.55
2061.496	233.4
2064.686	231.33
2067.875	229.79
2071.065	233.43
2074.254	233.22
2077.442	241.21
2080.631	243.78
2083.819	244.66
2087.007	246.65
2090.195	250.07
2093.382	251.86
2096.569	252.56
2099.756	256.11
2102.942	262.71
2106.128	266.5
2109.314	269.53
2112.5	268.74
2115.685	264.61
2118.87	265.48
2122.055	270.04
2125.239	274.48
2128.424	278.12
2131.608	279.56
2134.791	279.25
2137.974	278.18
2141.157	282.04
2144.34	283.87
2147.523	287.48
2150.705	298.18
2153.887	296.15
2157.068	295.79
2160.25	301.06
2163.431	301.83
2166.611	301.76
2169.792	308.87
2172.972	313.57
2176.152	313.14
2179.331	319.87
2182.511	322.19
2185.69	325.24
2188.868	336.68
2192.047	347.79
2195.225	350.66
2198.403	354.52
2201.58	353.2
2204.758	365.03
2207.935	368.38
2211.111	375.94
2214.288	378.13
2217.464	381.64
2220.64	386.47
2223.815	386.48
2226.991	377.32
2230.166	381.38
2233.34	392.12
2236.515	403.63
2239.689	397.31
2242.863	405.92
2246.036	401.3
2249.209	410.07
2252.382	409.18
2255.555	420.96
2258.727	425.31
2261.9	439.59
2265.071	443.03
2268.243	441.98
2271.414	454.08
2274.585	464.41
2277.756	462.5
2280.926	484.09
2284.096	484.76
2287.266	489.34
2290.436	481.24
2293.605	490.87
2296.774	507.25
2299.942	507.05
2303.111	520.31
2306.279	531.01
2309.447	534
2312.614	533.38
2315.781	542.37
2318.948	548.49
2322.115	557.81
2325.281	586.89
2328.447	588.83
2331.613	589.36
2334.779	601.7
2337.944	610.87
2341.109	619.53
2344.274	623.14
2347.438	644.36
2350.602	653.14
2353.766	698.32
2356.929	699.09
2360.092	713.19
2363.255	711.13
2366.418	724.15
2369.58	735.02
2372.742	738.76
2375.904	736.83
2379.066	758.7
2382.227	797.75
2385.388	793.66
2388.548	755.61
2391.709	752.08
2394.869	765.14
2398.029	766.41
2401.188	770.95
2404.347	794.63
2407.506	816.31
2410.665	793.32
2413.823	791.11
2416.981	794.69
2420.139	756.41
2423.296	813.15
2426.453	870.66
2429.61	822.83
2432.767	881.37
2435.923	905.9
2439.079	878.05
2442.235	896.75
2445.391	912.97
2448.546	909.78
2451.701	958.1
2454.855	1023.7
2458.009	906.51
2461.163	911.55
2464.317	937.97
2467.471	918.05
2470.624	945.01
2473.777	925.96
2476.929	902.26
2480.082	956.56
2483.234	1007.37
2486.385	1021.01
2489.537	1051.84
2492.688	1148.7
2495.839	1136.46
2498.989	1165.87
2502.14	1163.29
2505.29	1120.42
2508.439	1240.57
2511.589	1264.27
2514.738	1236.27
2517.887	1220.99
2521.035	1146.38
2524.183	1127.84
2527.331	1121.5
2530.479	1090.71
2533.627	1114.13
