Data from C_3_dec_oh_4n_Splice17_09.txt Node
Date: Sat Feb 29 15:04:46 EST 2020
User: sa697716
Spectrometer: FLMS03696
Trigger mode: 0
Integration Time (sec): 3.180400E-1
Scans to average: 20
Electric dark correction enabled: true
Nonlinearity correction enabled: true
Boxcar width: 5
XAxis mode: Wavelengths
Number of Pixels in Spectrum: 2048
>>>>>Begin Spectral Data<<<<<
187.83	72.78
188.298	84.05
188.766	91.22
189.233	75.91
189.701	85.53
190.169	84.94
190.636	85.04
191.104	71.46
191.571	85.46
192.039	38.39
192.506	130.6
192.974	1462.13
193.441	-228.97
193.908	119.34
194.375	65.23
194.842	173.29
195.31	109.82
195.777	117.84
196.244	109.54
196.711	106.82
197.177	102.61
197.644	104.18
198.111	105.63
198.578	105.79
199.045	107.46
199.511	108.1
199.978	108.28
200.445	107.87
200.911	108.13
201.378	107.65
201.844	108.63
202.31	109.11
202.777	109.15
203.243	109.05
203.709	109.02
204.176	107.83
204.642	107.28
205.108	106.73
205.574	106.71
206.04	105.84
206.506	105.52
206.972	104.21
207.438	103.68
207.903	102.28
208.369	100.34
208.835	99.32
209.301	98.43
209.766	96.08
210.232	94.27
210.697	92.3
211.163	90.69
211.628	88.99
212.094	87
212.559	85.47
213.024	83.86
213.49	82.2
213.955	79.87
214.42	77.43
214.885	75.11
215.35	72.26
215.815	68.57
216.28	64.46
216.745	59.94
217.21	55.48
217.675	50.77
218.14	46.85
218.604	43.35
219.069	40.4
219.534	37.8
219.998	35.73
220.463	33.94
220.927	32.4
221.392	31.06
221.856	29.97
222.32	28.99
222.785	28.14
223.249	27.38
223.713	26.74
224.177	26.09
224.642	25.53
225.106	25
225.57	24.45
226.034	23.97
226.497	23.49
226.961	22.99
227.425	22.53
227.889	22.13
228.353	21.71
228.816	21.31
229.28	20.9
229.744	20.56
230.207	20.17
230.671	19.82
231.134	19.51
231.597	19.2
232.061	18.91
232.524	18.63
232.987	18.35
233.45	18.08
233.914	17.81
234.377	17.59
234.84	17.35
235.303	17.14
235.766	16.94
236.229	16.72
236.691	16.53
237.154	16.35
237.617	16.17
238.08	16.01
238.542	15.83
239.005	15.67
239.468	15.49
239.93	15.33
240.393	15.16
240.855	14.98
241.317	14.83
241.78	14.67
242.242	14.5
242.704	14.34
243.166	14.17
243.629	14.03
244.091	13.87
244.553	13.73
245.015	13.58
245.477	13.43
245.939	13.31
246.4	13.15
246.862	13.02
247.324	12.88
247.786	12.75
248.247	12.62
248.709	12.49
249.17	12.38
249.632	12.25
250.093	12.12
250.555	12.01
251.016	11.9
251.477	11.8
251.939	11.7
252.4	11.59
252.861	11.49
253.322	11.39
253.783	11.31
254.244	11.21
254.705	11.13
255.166	11.06
255.627	10.98
256.088	10.88
256.549	10.79
257.009	10.7
257.47	10.61
257.931	10.52
258.391	10.43
258.852	10.33
259.312	10.23
259.773	10.12
260.233	10.03
260.694	9.95
261.154	9.86
261.614	9.77
262.074	9.7
262.534	9.62
262.994	9.55
263.455	9.47
263.915	9.4
264.374	9.33
264.834	9.27
265.294	9.2
265.754	9.13
266.214	9.07
266.673	9.02
267.133	8.96
267.593	8.91
268.052	8.85
268.512	8.82
268.971	8.77
269.431	8.73
269.89	8.68
270.349	8.64
270.809	8.61
271.268	8.57
271.727	8.53
272.186	8.5
272.645	8.46
273.104	8.43
273.563	8.39
274.022	8.35
274.481	8.32
274.94	8.28
275.399	8.25
275.857	8.22
276.316	8.18
276.775	8.13
277.233	8.1
277.692	8.07
278.15	8.03
278.609	8.02
279.067	7.99
279.525	7.96
279.984	7.94
280.442	7.92
280.9	7.9
281.358	7.88
281.816	7.87
282.274	7.85
282.732	7.84
283.19	7.83
283.648	7.8
284.106	7.79
284.564	7.79
285.021	7.78
285.479	7.77
285.937	7.75
286.394	7.74
286.852	7.73
287.309	7.71
287.767	7.69
288.224	7.65
288.682	7.62
289.139	7.59
289.596	7.54
290.053	7.49
290.511	7.43
290.968	7.38
291.425	7.33
291.882	7.29
292.339	7.24
292.796	7.2
293.252	7.17
293.709	7.13
294.166	7.1
294.623	7.07
295.079	7.04
295.536	7.02
295.992	6.99
296.449	6.98
296.905	6.94
297.362	6.92
297.818	6.89
298.274	6.87
298.731	6.85
299.187	6.83
299.643	6.81
300.099	6.79
300.555	6.77
301.011	6.75
301.467	6.72
301.923	6.71
302.379	6.69
302.835	6.68
303.291	6.67
303.746	6.65
304.202	6.64
304.658	6.61
305.113	6.6
305.569	6.6
306.024	6.59
306.479	6.58
306.935	6.58
307.39	6.57
307.845	6.56
308.301	6.56
308.756	6.56
309.211	6.55
309.666	6.56
310.121	6.55
310.576	6.55
311.031	6.56
311.486	6.56
311.94	6.54
312.395	6.55
312.85	6.53
313.305	6.54
313.759	6.54
314.214	6.54
314.668	6.53
315.123	6.53
315.577	6.52
316.032	6.5
316.486	6.48
316.94	6.47
317.394	6.45
317.849	6.44
318.303	6.42
318.757	6.38
319.211	6.34
319.665	6.32
320.119	6.29
320.572	6.27
321.026	6.25
321.48	6.23
321.934	6.22
322.387	6.2
322.841	6.17
323.295	6.15
323.748	6.14
324.202	6.13
324.655	6.12
325.108	6.1
325.562	6.09
326.015	6.09
326.468	6.08
326.921	6.07
327.374	6.07
327.827	6.06
328.28	6.05
328.733	6.04
329.186	6.04
329.639	6.03
330.092	6.03
330.545	6.03
330.997	6.02
331.45	6.03
331.903	6.02
332.355	6.02
332.808	6.02
333.26	6.02
333.713	6.03
334.165	6.03
334.617	6.05
335.069	6.04
335.522	6.05
335.974	6.06
336.426	6.07
336.878	6.07
337.33	6.06
337.782	6.06
338.234	6.07
338.686	6.08
339.137	6.08
339.589	6.06
340.041	6.05
340.493	6.03
340.944	6
341.396	5.98
341.847	5.97
342.299	5.94
342.75	5.91
343.201	5.87
343.653	5.83
344.104	5.8
344.555	5.78
345.006	5.76
345.457	5.73
345.908	5.71
346.359	5.7
346.81	5.69
347.261	5.67
347.712	5.67
348.163	5.65
348.613	5.65
349.064	5.62
349.515	5.62
349.965	5.6
350.416	5.6
350.866	5.6
351.317	5.58
351.767	5.57
352.217	5.57
352.668	5.57
353.118	5.58
353.568	5.59
354.018	5.61
354.468	5.6
354.918	5.62
355.368	5.62
355.818	5.61
356.268	5.62
356.718	5.64
357.168	5.63
357.617	5.62
358.067	5.61
358.517	5.61
358.966	5.61
359.416	5.62
359.865	5.6
360.315	5.59
360.764	5.59
361.213	5.58
361.663	5.57
362.112	5.58
362.561	5.59
363.01	5.6
363.459	5.59
363.908	5.58
364.357	5.58
364.806	5.58
365.255	5.58
365.703	5.58
366.152	5.59
366.601	5.6
367.05	5.6
367.498	5.59
367.947	5.58
368.395	5.59
368.844	5.58
369.292	5.57
369.74	5.57
370.189	5.55
370.637	5.56
371.085	5.56
371.533	5.55
371.981	5.55
372.429	5.55
372.877	5.56
373.325	5.55
373.773	5.55
374.221	5.55
374.669	5.56
375.116	5.56
375.564	5.54
376.012	5.53
376.459	5.54
376.907	5.54
377.354	5.54
377.801	5.55
378.249	5.56
378.696	5.57
379.143	5.58
379.591	5.58
380.038	5.61
380.485	5.63
380.932	5.63
381.379	5.62
381.826	5.63
382.273	5.64
382.72	5.63
383.166	5.63
383.613	5.63
384.06	5.64
384.506	5.65
384.953	5.65
385.4	5.66
385.846	5.66
386.292	5.7
386.739	5.71
387.185	5.73
387.631	5.76
388.078	5.77
388.524	5.78
388.97	5.79
389.416	5.79
389.862	5.82
390.308	5.85
390.754	5.88
391.2	5.9
391.645	5.93
392.091	5.96
392.537	5.99
392.983	6.02
393.428	6.06
393.874	6.1
394.319	6.12
394.765	6.13
395.21	6.14
395.655	6.17
396.101	6.19
396.546	6.22
396.991	6.25
397.436	6.25
397.881	6.27
398.326	6.31
398.771	6.35
399.216	6.38
399.661	6.42
400.106	6.45
400.551	6.46
400.995	6.47
401.44	6.47
401.885	6.47
402.329	6.49
402.774	6.5
403.218	6.51
403.663	6.52
404.107	6.54
404.551	6.56
404.995	6.57
405.44	6.59
405.884	6.61
406.328	6.64
406.772	6.67
407.216	6.7
407.66	6.73
408.104	6.74
408.547	6.75
408.991	6.76
409.435	6.78
409.879	6.79
410.322	6.82
410.766	6.85
411.209	6.87
411.653	6.88
412.096	6.88
412.54	6.91
412.983	6.94
413.426	6.98
413.869	7.01
414.312	7.06
414.756	7.1
415.199	7.12
415.642	7.14
416.085	7.18
416.527	7.21
416.97	7.23
417.413	7.21
417.856	7.21
418.298	7.2
418.741	7.2
419.184	7.2
419.626	7.19
420.069	7.19
420.511	7.19
420.953	7.18
421.396	7.18
421.838	7.21
422.28	7.26
422.722	7.28
423.164	7.3
423.606	7.32
424.048	7.32
424.49	7.35
424.932	7.37
425.374	7.37
425.816	7.36
426.258	7.35
426.699	7.33
427.141	7.28
427.582	7.28
428.024	7.29
428.465	7.29
428.907	7.32
429.348	7.32
429.789	7.32
430.231	7.32
430.672	7.36
431.113	7.41
431.554	7.47
431.995	7.52
432.436	7.54
432.877	7.54
433.318	7.56
433.759	7.59
434.2	7.63
434.64	7.67
435.081	7.69
435.522	7.73
435.962	7.74
436.403	7.76
436.843	7.79
437.284	7.82
437.724	7.89
438.164	7.92
438.604	7.93
439.045	7.95
439.485	7.96
439.925	8
440.365	8.01
440.805	8.03
441.245	8.02
441.685	8.05
442.125	8.06
442.564	8.09
443.004	8.11
443.444	8.14
443.883	8.16
444.323	8.19
444.762	8.22
445.202	8.28
445.641	8.32
446.081	8.4
446.52	8.42
446.959	8.47
447.398	8.53
447.837	8.57
448.276	8.59
448.716	8.65
449.154	8.69
449.593	8.74
450.032	8.76
450.471	8.78
450.91	8.76
451.349	8.76
451.787	8.77
452.226	8.75
452.664	8.73
453.103	8.73
453.541	8.7
453.98	8.68
454.418	8.65
454.856	8.62
455.295	8.59
455.733	8.58
456.171	8.55
456.609	8.54
457.047	8.51
457.485	8.5
457.923	8.47
458.361	8.44
458.798	8.43
459.236	8.43
459.674	8.42
460.111	8.41
460.549	8.39
460.987	8.4
461.424	8.37
461.862	8.38
462.299	8.37
462.736	8.37
463.173	8.37
463.611	8.36
464.048	8.37
464.485	8.36
464.922	8.37
465.359	8.38
465.796	8.37
466.233	8.38
466.67	8.38
467.106	8.37
467.543	8.39
467.98	8.41
468.416	8.42
468.853	8.41
469.29	8.42
469.726	8.43
470.162	8.41
470.599	8.42
471.035	8.44
471.471	8.43
471.907	8.46
472.344	8.46
472.78	8.43
473.216	8.42
473.652	8.42
474.088	8.43
474.523	8.42
474.959	8.42
475.395	8.41
475.831	8.39
476.266	8.38
476.702	8.36
477.138	8.36
477.573	8.35
478.008	8.33
478.444	8.3
478.879	8.28
479.314	8.27
479.75	8.25
480.185	8.24
480.62	8.21
481.055	8.2
481.49	8.17
481.925	8.14
482.36	8.12
482.795	8.11
483.229	8.11
483.664	8.09
484.099	8.07
484.534	8.05
484.968	8.05
485.403	8.04
485.837	8.03
486.271	8.04
486.706	8.03
487.14	8.03
487.574	8.04
488.009	8.04
488.443	8.06
488.877	8.07
489.311	8.09
489.745	8.11
490.179	8.13
490.613	8.17
491.046	8.19
491.48	8.24
491.914	8.27
492.348	8.31
492.781	8.34
493.215	8.38
493.648	8.44
494.082	8.5
494.515	8.56
494.948	8.63
495.382	8.68
495.815	8.76
496.248	8.84
496.681	8.93
497.114	9.01
497.547	9.09
497.98	9.18
498.413	9.28
498.846	9.38
499.279	9.5
499.711	9.61
500.144	9.73
500.577	9.86
501.009	9.99
501.442	10.15
501.874	10.31
502.306	10.47
502.739	10.63
503.171	10.81
503.603	10.99
504.036	11.18
504.468	11.38
504.9	11.59
505.332	11.82
505.764	12.04
506.196	12.26
506.627	12.52
507.059	12.77
507.491	13.05
507.923	13.34
508.354	13.63
508.786	13.92
509.217	14.23
509.649	14.56
510.08	14.9
510.512	15.24
510.943	15.6
511.374	15.96
511.805	16.33
512.237	16.72
512.668	17.11
513.099	17.54
513.53	17.95
513.961	18.39
514.391	18.8
514.822	19.22
515.253	19.67
515.684	20.09
516.114	20.56
516.545	21.02
516.975	21.49
517.406	21.95
517.836	22.38
518.267	22.84
518.697	23.29
519.127	23.77
519.558	24.23
519.988	24.7
520.418	25.16
520.848	25.6
521.278	26.05
521.708	26.53
522.138	26.96
522.567	27.4
522.997	27.83
523.427	28.26
523.857	28.65
524.286	29.05
524.716	29.45
525.145	29.84
525.575	30.2
526.004	30.57
526.433	30.87
526.863	31.22
527.292	31.54
527.721	31.86
528.15	32.15
528.579	32.46
529.008	32.75
529.437	33.01
529.866	33.26
530.295	33.52
530.724	33.78
531.152	34.02
531.581	34.25
532.01	34.46
532.438	34.67
532.867	34.88
533.295	35.07
533.723	35.25
534.152	35.41
534.58	35.58
535.008	35.7
535.436	35.83
535.865	35.94
536.293	36.04
536.721	36.15
537.149	36.23
537.576	36.3
538.004	36.37
538.432	36.43
538.86	36.5
539.287	36.56
539.715	36.65
540.143	36.7
540.57	36.75
540.998	36.81
541.425	36.88
541.852	36.93
542.28	36.98
542.707	37.05
543.134	37.1
543.561	37.14
543.988	37.19
544.415	37.24
544.842	37.32
545.269	37.4
545.696	37.49
546.123	37.56
546.549	37.64
546.976	37.71
547.403	37.76
547.829	37.82
548.256	37.9
548.682	37.94
549.108	37.99
549.535	38.01
549.961	38.02
550.387	38.03
550.813	38.03
551.24	38.02
551.666	38.04
552.092	38.04
552.518	38.04
552.943	38.04
553.369	38.04
553.795	38
554.221	37.95
554.646	37.92
555.072	37.88
555.498	37.81
555.923	37.74
556.349	37.65
556.774	37.59
557.199	37.5
557.625	37.39
558.05	37.26
558.475	37.13
558.9	37.01
559.325	36.87
559.75	36.71
560.175	36.56
560.6	36.38
561.025	36.2
561.449	36.01
561.874	35.82
562.299	35.62
562.723	35.43
563.148	35.25
563.572	35.04
563.997	34.82
564.421	34.57
564.846	34.34
565.27	34.12
565.694	33.88
566.118	33.63
566.542	33.38
566.966	33.1
567.39	32.81
567.814	32.54
568.238	32.24
568.662	31.98
569.086	31.72
569.509	31.45
569.933	31.18
570.357	30.9
570.78	30.63
571.204	30.37
571.627	30.13
572.05	29.91
572.474	29.68
572.897	29.45
573.32	29.22
573.743	29
574.166	28.81
574.589	28.59
575.012	28.4
575.435	28.19
575.858	28.02
576.281	27.84
576.704	27.69
577.126	27.51
577.549	27.36
577.972	27.21
578.394	27.05
578.817	26.87
579.239	26.74
579.661	26.61
580.084	26.51
580.506	26.37
580.928	26.24
581.35	26.1
581.772	25.98
582.194	25.86
582.616	25.75
583.038	25.64
583.46	25.55
583.882	25.43
584.303	25.32
584.725	25.2
585.147	25.08
585.568	24.97
585.99	24.87
586.411	24.76
586.833	24.67
587.254	24.57
587.675	24.48
588.096	24.4
588.518	24.3
588.939	24.21
589.36	24.14
589.781	24.06
590.202	23.96
590.623	23.87
591.043	23.81
591.464	23.72
591.885	23.66
592.305	23.62
592.726	23.54
593.147	23.51
593.567	23.44
593.987	23.39
594.408	23.32
594.828	23.29
595.248	23.25
595.669	23.19
596.089	23.13
596.509	23.05
596.929	22.95
597.349	22.88
597.769	22.8
598.189	22.74
598.608	22.67
599.028	22.6
599.448	22.54
599.867	22.46
600.287	22.38
600.706	22.31
601.126	22.25
601.545	22.19
601.965	22.12
602.384	22.05
602.803	21.96
603.222	21.86
603.641	21.77
604.061	21.68
604.48	21.59
604.898	21.5
605.317	21.4
605.736	21.3
606.155	21.2
606.574	21.1
606.992	20.99
607.411	20.89
607.829	20.76
608.248	20.66
608.666	20.54
609.085	20.41
609.503	20.29
609.921	20.18
610.339	20.07
610.758	19.96
611.176	19.83
611.594	19.71
612.012	19.59
612.43	19.51
612.847	19.4
613.265	19.3
613.683	19.2
614.101	19.11
614.518	18.99
614.936	18.88
615.353	18.79
615.771	18.69
616.188	18.62
616.606	18.53
617.023	18.43
617.44	18.33
617.857	18.26
618.274	18.17
618.691	18.12
619.108	18.05
619.525	18
619.942	17.94
620.359	17.9
620.776	17.84
621.192	17.79
621.609	17.75
622.026	17.72
622.442	17.68
622.859	17.66
623.275	17.63
623.691	17.61
624.108	17.59
624.524	17.56
624.94	17.52
625.356	17.49
625.772	17.48
626.188	17.48
626.604	17.45
627.02	17.43
627.436	17.41
627.852	17.39
628.268	17.34
628.683	17.3
629.099	17.27
629.514	17.24
629.93	17.21
630.345	17.15
630.761	17.07
631.176	17.02
631.591	16.95
632.007	16.87
632.422	16.78
632.837	16.7
633.252	16.61
633.667	16.5
634.082	16.39
634.497	16.25
634.911	16.1
635.326	15.96
635.741	15.8
636.155	15.64
636.57	15.48
636.984	15.28
637.399	15.08
637.813	14.89
638.228	14.7
638.642	14.52
639.056	14.34
639.47	14.15
639.884	13.96
640.298	13.78
640.712	13.57
641.126	13.38
641.54	13.21
641.954	13.06
642.368	12.88
642.781	12.71
643.195	12.52
643.609	12.36
644.022	12.21
644.436	12.06
644.849	11.93
645.262	11.81
645.676	11.69
646.089	11.56
646.502	11.44
646.915	11.34
647.328	11.24
647.741	11.15
648.154	11.08
648.567	11.01
648.98	10.95
649.393	10.88
649.805	10.81
650.218	10.77
650.631	10.73
651.043	10.69
651.456	10.65
651.868	10.6
652.28	10.57
652.693	10.52
653.105	10.47
653.517	10.41
653.929	10.37
654.341	10.33
654.753	10.25
655.165	10.19
655.577	10.1
655.989	10.01
656.401	9.92
656.813	9.84
657.224	9.75
657.636	9.66
658.047	9.56
658.459	9.45
658.87	9.34
659.282	9.26
659.693	9.17
660.104	9.08
660.515	8.99
660.926	8.9
661.338	8.81
661.749	8.71
662.159	8.62
662.57	8.55
662.981	8.47
663.392	8.38
663.803	8.3
664.213	8.23
664.624	8.17
665.035	8.1
665.445	8.06
665.855	8.01
666.266	7.96
666.676	7.92
667.086	7.86
667.497	7.83
667.907	7.79
668.317	7.77
668.727	7.73
669.137	7.7
669.547	7.69
669.956	7.67
670.366	7.67
670.776	7.67
671.186	7.66
671.595	7.67
672.005	7.67
672.414	7.69
672.824	7.71
673.233	7.73
673.642	7.74
674.052	7.75
674.461	7.75
674.87	7.77
675.279	7.79
675.688	7.81
676.097	7.84
676.506	7.88
676.915	7.9
677.323	7.94
677.732	7.98
678.141	8.04
678.549	8.1
678.958	8.17
679.366	8.23
679.775	8.31
680.183	8.41
680.592	8.51
681	8.62
681.408	8.75
681.816	8.88
682.224	9.05
682.632	9.22
683.04	9.41
683.448	9.64
683.856	9.9
684.264	10.18
684.671	10.49
685.079	10.82
685.487	11.19
685.894	11.6
686.302	12.03
686.709	12.49
687.116	13
687.524	13.55
687.931	14.12
688.338	14.76
688.745	15.43
689.152	16.14
689.559	16.89
689.966	17.68
690.373	18.53
690.78	19.41
691.187	20.3
691.593	21.2
692	22.14
692.407	23.13
692.813	24.11
693.22	25.1
693.626	26.13
694.032	27.17
694.439	28.2
694.845	29.23
695.251	30.26
695.657	31.3
696.063	32.36
696.469	33.44
696.875	34.45
697.281	35.48
697.687	36.53
698.093	37.53
698.498	38.56
698.904	39.58
699.31	40.57
699.715	41.57
700.12	42.53
700.526	43.49
700.931	44.41
701.337	45.37
701.742	46.27
702.147	47.17
702.552	48.08
702.957	48.94
703.362	49.79
703.767	50.6
704.172	51.42
704.577	52.25
704.981	53.06
705.386	53.83
705.791	54.6
706.195	55.37
706.6	56.09
707.004	56.81
707.408	57.48
707.813	58.15
708.217	58.86
708.621	59.53
709.025	60.19
709.43	60.82
709.834	61.46
710.237	62.07
710.641	62.69
711.045	63.3
711.449	63.88
711.853	64.48
712.256	65.08
712.66	65.65
713.064	66.2
713.467	66.75
713.87	67.31
714.274	67.88
714.677	68.42
715.08	68.9
715.484	69.44
715.887	69.97
716.29	70.48
716.693	70.96
717.096	71.44
717.499	71.91
717.901	72.33
718.304	72.75
718.707	73.16
719.109	73.61
719.512	74.07
719.915	74.48
720.317	74.86
720.719	75.24
721.122	75.64
721.524	76.04
721.926	76.43
722.328	76.8
722.731	77.17
723.133	77.51
723.535	77.82
723.937	78.14
724.338	78.41
724.74	78.7
725.142	78.95
725.544	79.21
725.945	79.46
726.347	79.72
726.748	79.95
727.15	80.19
727.551	80.46
727.952	80.64
728.354	80.89
728.755	81.11
729.156	81.34
729.557	81.57
729.958	81.77
730.359	81.93
730.76	82.07
731.161	82.26
731.562	82.43
731.962	82.59
732.363	82.75
732.763	82.92
733.164	83.06
733.564	83.16
733.965	83.26
734.365	83.34
734.766	83.49
735.166	83.58
735.566	83.64
735.966	83.72
736.366	83.78
736.766	83.89
737.166	83.93
737.566	83.98
737.966	84.07
738.365	84.17
738.765	84.29
739.165	84.3
739.564	84.42
739.964	84.5
740.363	84.56
740.763	84.61
741.162	84.64
741.561	84.7
741.96	84.79
742.36	84.85
742.759	84.87
743.158	84.87
743.557	84.96
743.955	85.02
744.354	85.11
744.753	85.18
745.152	85.24
745.55	85.31
745.949	85.37
746.348	85.4
746.746	85.44
747.144	85.57
747.543	85.65
747.941	85.72
748.339	85.82
748.737	85.89
749.136	85.92
749.534	85.97
749.932	86
750.33	86.01
750.727	86.09
751.125	86.11
751.523	86.09
751.921	86.11
752.318	86.1
752.716	85.99
753.113	85.94
753.511	85.94
753.908	85.89
754.305	85.86
754.703	85.82
755.1	85.79
755.497	85.77
755.894	85.74
756.291	85.72
756.688	85.68
757.085	85.67
757.482	85.68
757.878	85.66
758.275	85.66
758.672	85.73
759.068	85.76
759.465	85.74
759.861	85.74
760.258	85.7
760.654	85.71
761.05	85.71
761.447	85.73
761.843	85.67
762.239	85.65
762.635	85.64
763.031	85.59
763.427	85.57
763.822	85.51
764.218	85.49
764.614	85.52
765.01	85.47
765.405	85.47
765.801	85.45
766.196	85.45
766.592	85.46
766.987	85.44
767.382	85.45
767.778	85.45
768.173	85.48
768.568	85.44
768.963	85.43
769.358	85.46
769.753	85.47
770.148	85.48
770.542	85.47
770.937	85.47
771.332	85.53
771.726	85.49
772.121	85.45
772.515	85.46
772.91	85.49
773.304	85.48
773.699	85.47
774.093	85.49
774.487	85.49
774.881	85.52
775.275	85.55
775.669	85.53
776.063	85.51
776.457	85.52
776.851	85.47
777.245	85.47
777.638	85.5
778.032	85.49
778.425	85.54
778.819	85.57
779.212	85.54
779.606	85.57
779.999	85.57
780.392	85.58
780.786	85.61
781.179	85.68
781.572	85.69
781.965	85.69
782.358	85.66
782.751	85.61
783.143	85.62
783.536	85.71
783.929	85.7
784.322	85.73
784.714	85.76
785.107	85.78
785.499	85.79
785.891	85.86
786.284	85.87
786.676	85.95
787.068	85.93
787.46	85.92
787.852	85.86
788.245	85.87
788.636	85.89
789.028	85.88
789.42	85.89
789.812	85.91
790.204	85.81
790.595	85.84
790.987	85.81
791.378	85.84
791.77	85.9
792.161	85.97
792.553	85.98
792.944	85.98
793.335	86.05
793.726	86.01
794.117	85.97
794.508	85.99
794.899	85.98
795.29	86.01
795.681	86.04
796.072	86.03
796.463	86
796.853	86
797.244	86
797.634	85.97
798.025	85.99
798.415	86.06
798.806	86.13
799.196	86.17
799.586	86.17
799.976	86.17
800.366	86.12
800.756	86.14
801.146	86.19
801.536	86.18
801.926	86.18
802.316	86.24
802.706	86.23
803.095	86.23
803.485	86.26
803.874	86.3
804.264	86.34
804.653	86.36
805.043	86.38
805.432	86.34
805.821	86.38
806.21	86.44
806.599	86.48
806.988	86.48
807.377	86.51
807.766	86.53
808.155	86.57
808.544	86.61
808.933	86.67
809.321	86.72
809.71	86.75
810.098	86.79
810.487	86.81
810.875	86.79
811.264	86.87
811.652	86.89
812.04	86.9
812.428	86.91
812.816	86.91
813.204	86.91
813.592	86.87
813.98	86.9
814.368	86.88
814.756	86.88
815.144	86.95
815.531	86.93
815.919	86.89
816.306	86.85
816.694	86.81
817.081	86.79
817.469	86.82
817.856	86.92
818.243	86.9
818.63	86.96
819.017	86.99
819.404	86.93
819.791	86.9
820.178	86.96
820.565	87.02
820.952	87.07
821.339	87.12
821.725	87.15
822.112	87.13
822.498	87.16
822.885	87.15
823.271	87.14
823.657	87.16
824.044	87.17
824.43	87.17
824.816	87.16
825.202	87.13
825.588	87.15
825.974	87.12
826.36	87.06
826.746	87.06
827.132	87
827.517	87
827.903	86.96
828.289	86.95
828.674	86.89
829.06	86.86
829.445	86.87
829.83	86.83
830.216	86.79
830.601	86.77
830.986	86.69
831.371	86.73
831.756	86.63
832.141	86.63
832.526	86.63
832.911	86.66
833.295	86.66
833.68	86.62
834.065	86.56
834.449	86.5
834.834	86.47
835.218	86.47
835.603	86.43
835.987	86.44
836.371	86.42
836.755	86.34
837.139	86.24
837.524	86.16
837.908	86.12
838.291	86.13
838.675	86.14
839.059	86.09
839.443	86.04
839.827	86.03
840.21	86.04
840.594	86
840.977	86
841.361	86.01
841.744	86.01
842.127	85.98
842.511	85.95
842.894	85.88
843.277	85.91
843.66	85.92
844.043	85.9
844.426	85.85
844.809	85.8
845.191	85.76
845.574	85.77
845.957	85.73
846.339	85.74
846.722	85.71
847.104	85.75
847.487	85.76
847.869	85.76
848.252	85.71
848.634	85.74
849.016	85.78
849.398	85.81
849.78	85.8
850.162	85.77
850.544	85.79
850.926	85.79
851.307	85.76
851.689	85.7
852.071	85.69
852.452	85.7
852.834	85.68
853.215	85.65
853.597	85.64
853.978	85.58
854.359	85.59
854.741	85.58
855.122	85.57
855.503	85.6
855.884	85.61
856.265	85.6
856.646	85.6
857.026	85.61
857.407	85.57
857.788	85.6
858.169	85.63
858.549	85.67
858.93	85.67
859.31	85.63
859.69	85.62
860.071	85.64
860.451	85.65
860.831	85.6
861.211	85.57
861.591	85.61
861.971	85.57
862.351	85.6
862.731	85.57
863.111	85.57
863.491	85.6
863.87	85.6
864.25	85.62
864.629	85.58
865.009	85.6
865.388	85.62
865.768	85.62
866.147	85.66
866.526	85.6
866.905	85.62
867.284	85.64
867.663	85.63
868.042	85.65
868.421	85.63
868.8	85.67
869.179	85.68
869.558	85.69
869.936	85.68
870.315	85.64
870.693	85.68
871.072	85.65
871.45	85.6
871.828	85.61
872.207	85.64
872.585	85.63
872.963	85.59
873.341	85.58
873.719	85.53
874.097	85.54
874.475	85.55
874.853	85.55
875.23	85.59
875.608	85.64
875.986	85.6
876.363	85.56
876.741	85.57
877.118	85.58
877.495	85.58
877.873	85.6
878.25	85.61
878.627	85.6
879.004	85.61
879.381	85.59
879.758	85.53
880.135	85.54
880.512	85.55
880.889	85.53
881.265	85.57
881.642	85.53
882.019	85.53
882.395	85.49
882.772	85.47
883.148	85.46
883.524	85.45
883.901	85.46
884.277	85.42
884.653	85.37
885.029	85.34
885.405	85.31
885.781	85.29
886.157	85.26
886.532	85.23
886.908	85.22
887.284	85.17
887.659	85.14
888.035	85.12
888.411	85.07
888.786	85.07
889.161	85.06
889.537	85.02
889.912	84.96
890.287	84.89
890.662	84.88
891.037	84.83
891.412	84.77
891.787	84.72
892.162	84.62
892.536	84.63
892.911	84.56
893.286	84.46
893.66	84.41
894.035	84.41
894.409	84.4
894.784	84.35
895.158	84.34
895.532	84.34
895.906	84.3
896.281	84.34
896.655	84.29
897.029	84.28
897.402	84.35
897.776	84.35
898.15	84.33
898.524	84.32
898.898	84.29
899.271	84.27
899.645	84.27
900.018	84.27
900.392	84.29
900.765	84.33
901.138	84.32
901.511	84.32
901.884	84.35
902.258	84.39
902.631	84.42
903.003	84.48
903.376	84.53
903.749	84.58
904.122	84.59
904.495	84.6
904.867	84.6
905.24	84.63
905.612	84.63
905.985	84.65
906.357	84.63
906.729	84.61
907.102	84.61
907.474	84.6
907.846	84.55
908.218	84.56
908.59	84.55
908.962	84.54
909.334	84.54
909.705	84.58
910.077	84.58
910.449	84.66
910.82	84.68
911.192	84.7
911.563	84.68
911.935	84.68
912.306	84.69
912.677	84.72
913.048	84.74
913.419	84.75
913.79	84.72
914.161	84.69
914.532	84.64
914.903	84.64
915.274	84.64
915.645	84.69
916.015	84.72
916.386	84.74
916.756	84.7
917.127	84.72
917.497	84.74
917.868	84.73
918.238	84.76
918.608	84.78
918.978	84.78
919.348	84.71
919.718	84.71
920.088	84.75
920.458	84.79
920.828	84.82
921.198	84.81
921.567	84.76
921.937	84.8
922.306	84.77
922.676	84.76
923.045	84.74
923.415	84.78
923.784	84.75
924.153	84.69
924.522	84.64
924.891	84.63
925.26	84.6
925.629	84.59
925.998	84.55
926.367	84.52
926.736	84.48
927.104	84.48
927.473	84.49
927.842	84.47
928.21	84.46
928.578	84.43
928.947	84.35
929.315	84.34
929.683	84.35
930.051	84.31
930.42	84.31
930.788	84.3
931.156	84.2
931.523	84.19
931.891	84.09
932.259	83.98
932.627	83.84
932.994	83.78
933.362	83.68
933.729	83.61
934.097	83.5
934.464	83.44
934.831	83.37
935.199	83.4
935.566	83.24
935.933	83.26
936.3	83.31
936.667	83.39
937.034	83.36
937.401	83.41
937.767	83.45
938.134	83.55
938.501	83.54
938.867	83.63
939.234	83.71
939.6	83.86
939.967	83.9
940.333	84.05
940.699	84.18
941.065	84.41
941.431	84.6
941.798	84.74
942.163	84.93
942.529	85.04
942.895	85.12
943.261	85.22
943.627	85.42
943.992	85.55
944.358	85.48
944.723	85.52
945.089	85.58
945.454	85.55
945.82	85.48
946.185	85.45
946.55	85.64
946.915	85.67
947.28	85.58
947.645	85.57
948.01	85.62
948.375	85.71
948.74	85.56
949.104	85.52
949.469	85.43
949.834	85.32
950.198	85.2
950.562	84.96
950.927	84.89
951.291	84.81
951.655	84.67
952.02	84.62
952.384	84.61
952.748	84.61
953.112	84.51
953.476	84.48
953.839	84.41
954.203	84.43
954.567	84.44
954.931	84.34
955.294	84.28
955.658	84.18
956.021	84.07
956.385	83.99
956.748	83.96
957.111	83.79
957.474	83.79
957.837	83.84
958.2	83.7
958.563	83.62
958.926	83.55
959.289	83.6
959.652	83.59
960.015	83.57
960.377	83.48
960.74	83.4
961.102	83.51
961.465	83.44
961.827	83.22
962.189	83.24
962.552	83.17
962.914	83.15
963.276	83.14
963.638	83.12
964	83.06
964.362	83.16
964.724	83.13
965.085	83.1
965.447	83
965.809	83.07
966.17	83.1
966.532	83.1
966.893	83.06
967.255	82.91
967.616	82.92
967.977	82.88
968.338	82.73
968.699	82.74
969.061	82.64
969.421	82.7
969.782	82.71
970.143	82.61
970.504	82.61
970.865	82.53
971.225	82.55
971.586	82.6
971.946	82.56
972.307	82.64
972.667	82.68
973.027	82.67
973.388	82.66
973.748	82.69
974.108	82.73
974.468	82.76
974.828	82.86
975.188	82.94
975.548	82.94
975.907	83.02
976.267	82.99
976.627	82.97
976.986	83.02
977.346	83.02
977.705	83.06
978.064	83.01
978.424	82.95
978.783	82.97
979.142	82.97
979.501	82.84
979.86	82.84
980.219	82.75
980.578	82.77
980.937	82.84
981.296	82.9
981.654	83.02
982.013	83.11
982.371	83.14
982.73	83.14
983.088	83.13
983.447	83.24
983.805	83.19
984.163	83.28
984.521	83.19
984.879	83.25
985.237	83.35
985.595	83.29
985.953	83.33
986.311	83.48
986.669	83.56
987.026	83.72
987.384	83.73
987.741	83.82
988.099	83.83
988.456	83.91
988.814	83.88
989.171	83.83
989.528	83.8
989.885	83.87
990.242	83.91
990.599	83.98
990.956	83.99
991.313	84.1
991.67	84.14
992.027	84.23
992.383	84.29
992.74	84.3
993.096	84.26
993.453	84.36
993.809	84.48
994.165	84.44
994.522	84.4
994.878	84.31
995.234	84.26
995.59	84.28
995.946	84.32
996.302	84.29
996.658	84.32
997.013	84.48
997.369	84.54
997.725	84.56
998.08	84.52
998.436	84.71
998.791	84.72
999.147	84.84
999.502	84.94
999.857	84.97
1000.212	84.99
1000.567	85.22
1000.922	85.25
1001.277	85.19
1001.632	85.07
1001.987	85.2
1002.342	85.12
1002.696	85.35
1003.051	85.38
1003.406	85.46
1003.76	85.68
1004.114	86.08
1004.469	85.99
1004.823	85.87
1005.177	86.1
1005.531	86.16
1005.885	86.21
1006.239	86.34
1006.593	86.19
1006.947	86.14
1007.301	86.18
1007.655	86.09
1008.008	85.81
1008.362	85.93
1008.715	86.01
1009.069	85.87
1009.422	85.99
1009.776	85.93
1010.129	85.72
1010.482	85.99
1010.835	86.16
1011.188	86.32
1011.541	86.39
1011.894	86.74
1012.247	86.65
1012.6	86.67
1012.952	87.07
1013.305	87.12
1013.657	87.47
1014.01	87.9
1014.362	88.1
1014.715	87.84
1015.067	87.96
1015.419	88.18
1015.771	88.2
1016.123	88.39
1016.475	88.84
1016.827	88.84
1017.179	88.8
1017.531	88.72
1017.883	89
1018.234	88.87
1018.586	89.02
1018.938	88.77
1019.289	88.62
1019.64	89.03
1019.992	89.2
1020.343	89.08
1020.694	88.95
1021.045	89.41
1021.396	89.63
1021.747	89.33
1022.098	89.43
1022.449	89.7
1022.8	90.08
1023.151	90.27
1023.501	90.19
1023.852	90.22
1024.202	90.2
1024.553	90.28
1024.903	90.34
1025.253	90.8
1025.604	90.92
1025.954	91.02
1026.304	91.44
1026.654	91.51
1027.004	91.67
1027.354	91.74
1027.703	92.01
1028.053	92.27
1028.403	92.3
1028.753	92.58
1029.102	92.16
1029.452	92.22
1029.801	92.18
1030.15	92.11
1030.499	92.09
897.758	583.1
901.051	597.74
904.343	604.02
907.636	594.11
910.928	582.07
914.22	597.58
917.511	582.45
920.803	561.22
924.094	539.25
927.384	546.89
930.675	532.72
933.965	530.03
937.255	528.9
940.544	506.29
943.834	486.28
947.123	481.73
950.411	454.65
953.7	448.49
956.988	431.7
960.276	416.95
963.563	409.85
966.851	387.36
970.138	381.74
973.424	356.92
976.711	352.68
979.997	340.81
983.283	332.68
986.568	322.08
989.853	313.89
993.138	305.24
996.423	300.21
999.708	293.86
1002.992	295.79
1006.275	286.34
1009.559	284.65
1012.842	277.37
1016.125	269.9
1019.408	266.95
1022.69	263.42
1025.972	262.4
1029.254	256.76
1032.536	251.79
1035.817	244.18
1039.098	241.53
1042.379	237.3
1045.659	233.86
1048.939	232.12
1052.219	229.05
1055.498	226.21
1058.778	224.77
1062.057	220.28
1065.335	218.98
1068.614	215.43
1071.892	213.58
1075.17	208.65
1078.447	206.68
1081.724	205.82
1085.001	201.94
1088.278	201.29
1091.554	200.73
1094.83	198.65
1098.106	196.26
1101.382	195.18
1104.657	194.48
1107.932	193.71
1111.206	193.13
1114.481	191.6
1117.755	190.56
1121.029	189.95
1124.302	188.48
1127.575	184.15
1130.848	183.83
1134.121	181.01
1137.393	180.59
1140.665	180.7
1143.937	179.63
1147.208	177.03
1150.48	175.4
1153.75	173.25
1157.021	172.76
1160.291	171.58
1163.561	172.2
1166.831	169.77
1170.101	170.42
1173.37	169.01
1176.639	166.63
1179.907	166.55
1183.176	166.45
1186.444	167.2
1189.711	166.02
1192.979	166.92
1196.246	167.02
1199.513	166.22
1202.78	167.61
1206.046	167.2
1209.312	168.27
1212.578	169.06
1215.843	170.72
1219.108	172.42
1222.373	173.79
1225.638	176.67
1228.902	179.46
1232.166	183.82
1235.43	185.25
1238.693	188.96
1241.956	194.02
1245.219	196.83
1248.482	198.93
1251.744	197.73
1255.006	197.74
1258.268	193.15
1261.529	191.99
1264.79	187.92
1268.051	185.68
1271.312	184.48
1274.572	182.37
1277.832	176.81
1281.092	175.76
1284.351	172.47
1287.61	172.45
1290.869	171.4
1294.128	171.09
1297.386	170.57
1300.644	169.34
1303.902	167.22
1307.159	166.41
1310.416	166.89
1313.673	169.62
1316.93	169.17
1320.186	171.63
1323.442	173.02
1326.697	176.55
1329.953	177.34
1333.208	181.62
1336.463	188.5
1339.717	192.29
1342.972	200.93
1346.226	203.35
1349.479	204.23
1352.733	213.73
1355.986	218.08
1359.238	222.31
1362.491	222.21
1365.743	230.53
1368.995	229.88
1372.247	230.75
1375.498	229.27
1378.749	234.37
1382	235.96
1385.251	233.97
1388.501	232.52
1391.751	233.45
1395	230.95
1398.25	232.38
1401.499	231.02
1404.748	232.12
1407.996	224.83
1411.244	224.77
1414.492	221.16
1417.74	214.01
1420.987	209.9
1424.234	206.42
1427.481	199.07
1430.728	194.4
1433.974	188
1437.22	181.67
1440.465	176
1443.711	170.74
1446.956	164.78
1450.201	158.75
1453.445	152.72
1456.689	148.78
1459.933	143.69
1463.177	138.52
1466.42	135.98
1469.663	132.24
1472.906	128.86
1476.148	125.4
1479.391	123.41
1482.633	121.85
1485.874	119.85
1489.115	118.89
1492.356	116.88
1495.597	115.75
1498.838	115.21
1502.078	114.43
1505.318	114.47
1508.557	114.15
1511.797	113.47
1515.036	113.14
1518.274	113.55
1521.513	112.5
1524.751	111.64
1527.989	113.63
1531.227	113.33
1534.464	113.31
1537.701	112.38
1540.938	111.89
1544.174	112.31
1547.41	112.47
1550.646	112.39
1553.882	111.94
1557.117	112.48
1560.352	112.3
1563.587	111.33
1566.821	111.18
1570.055	110.65
1573.289	111.45
1576.523	111.56
1579.756	111.02
1582.989	111.52
1586.222	111.49
1589.454	111.51
1592.686	111.73
1595.918	111.91
1599.15	111.48
1602.381	112.12
1605.612	112.63
1608.843	112.63
1612.073	113.09
1615.303	113.41
1618.533	112.91
1621.762	112.83
1624.992	113.3
1628.221	112.59
1631.449	113.28
1634.678	113.54
1637.906	113.04
1641.134	113.41
1644.361	113.27
1647.588	113.27
1650.815	113.4
1654.042	113.82
1657.269	113.61
1660.495	114.02
1663.72	114.25
1666.946	114.13
1670.171	114.66
1673.396	115.3
1676.621	115.47
1679.845	115.59
1683.069	115.73
1686.293	115.7
1689.517	115.6
1692.74	116.22
1695.963	115.97
1699.185	116.47
1702.408	116.62
1705.63	116.73
1708.852	117.49
1712.073	116.81
1715.294	116.52
1718.515	116.97
1721.736	116.84
1724.956	117.07
1728.176	116.8
1731.396	117.28
1734.616	117.25
1737.835	117.34
1741.054	116.72
1744.272	116.39
1747.491	116.93
1750.709	117.89
1753.927	117.53
1757.144	117.68
1760.361	117.7
1763.578	118.74
1766.795	118.56
1770.011	118.57
1773.227	118.67
1776.443	119.69
1779.658	119.18
1782.874	119.77
1786.089	119.06
1789.303	119.34
1792.518	119.91
1795.732	120.61
1798.945	121.09
1802.159	121.46
1805.372	122.71
1808.585	123.88
1811.797	124.5
1815.01	125.03
1818.222	125.57
1821.434	127.05
1824.645	127.69
1827.856	129.85
1831.067	130.43
1834.278	130.62
1837.488	131.81
1840.698	132.65
1843.908	132.64
1847.117	133.72
1850.326	135.48
1853.535	135.03
1856.744	135.44
1859.952	136.61
1863.16	135.71
1866.368	133.9
1869.575	134.42
1872.782	133.36
1875.989	131.75
1879.196	131.08
1882.402	128.77
1885.608	128.06
1888.814	127.5
1892.019	127.68
1895.224	124.62
1898.429	124.2
1901.634	125.1
1904.838	125.28
1908.042	124.92
1911.246	124.37
1914.449	124.51
1917.652	123.77
1920.855	125.05
1924.058	123.4
1927.26	122.22
1930.462	123.33
1933.664	123.75
1936.865	124.2
1940.066	121.72
1943.267	120.74
1946.467	122.33
1949.668	122.63
1952.868	123.65
1956.067	122.38
1959.267	124.51
1962.466	124.91
1965.665	126.87
1968.863	125.9
1972.061	127.07
1975.259	129.99
1978.457	132.1
1981.654	132.37
1984.852	133.43
1988.048	134.8
1991.245	136.56
1994.441	139.63
1997.637	141.9
2000.833	143.84
2004.028	146.09
2007.223	149.81
2010.418	152.42
2013.613	158.52
2016.807	162.33
2020.001	166.53
2023.194	171.23
2026.388	178.39
2029.581	186.16
2032.774	193.21
2035.966	198.03
2039.158	204.36
2042.35	208.31
2045.542	212.87
2048.733	223.13
2051.924	223.04
2055.115	227.36
2058.306	230.22
2061.496	234.05
2064.686	233.35
2067.875	231.72
2071.065	235.06
2074.254	235.34
2077.442	240.98
2080.631	243
2083.819	241.85
2087.007	248.57
2090.195	250.52
2093.382	250.86
2096.569	250.61
2099.756	254.29
2102.942	260.39
2106.128	265.79
2109.314	267.9
2112.5	268.04
2115.685	268.09
2118.87	267.94
2122.055	271.25
2125.239	276.23
2128.424	283.33
2131.608	280.91
2134.791	283.85
2137.974	283.39
2141.157	285.12
2144.34	288.7
2147.523	294.87
2150.705	301.54
2153.887	299.08
2157.068	301.22
2160.25	302.38
2163.431	301.52
2166.611	307.43
2169.792	310.54
2172.972	314.13
2176.152	313.77
2179.331	320.84
2182.511	318.27
2185.69	321.51
2188.868	331.33
2192.047	341.02
2195.225	346.46
2198.403	352.86
2201.58	347.91
2204.758	360
2207.935	363
2211.111	369.05
2214.288	370.86
2217.464	377.64
2220.64	379.56
2223.815	382.84
2226.991	377.07
2230.166	379.6
2233.34	388.49
2236.515	401.33
2239.689	395.44
2242.863	401.48
2246.036	400.75
2249.209	410.75
2252.382	406.87
2255.555	422.58
2258.727	424.52
2261.9	439.19
2265.071	444.63
2268.243	440.92
2271.414	453.69
2274.585	462.64
2277.756	461.02
2280.926	475.38
2284.096	478.61
2287.266	482.28
2290.436	471.56
2293.605	482.78
2296.774	497.06
2299.942	495.39
2303.111	510.33
2306.279	516.18
2309.447	519.02
2312.614	520.93
2315.781	538.39
2318.948	536.17
2322.115	547.17
2325.281	577.66
2328.447	571.69
2331.613	577.55
2334.779	585.65
2337.944	595.93
2341.109	607.01
2344.274	611.64
2347.438	630.07
2350.602	639.09
2353.766	681.29
2356.929	685.36
2360.092	688.71
2363.255	692.91
2366.418	694.86
2369.58	717.04
2372.742	714.41
2375.904	712.76
2379.066	736.33
2382.227	779.75
2385.388	774.2
2388.548	736.43
2391.709	724.26
2394.869	746.79
2398.029	755.28
2401.188	759.5
2404.347	776.32
2407.506	800.72
2410.665	774.03
2413.823	776.99
2416.981	776.69
2420.139	738.79
2423.296	800.33
2426.453	855.14
2429.61	816.09
2432.767	868.38
2435.923	887.79
2439.079	866.11
2442.235	889.65
2445.391	910.68
2448.546	900.09
2451.701	950.85
2454.855	1016.09
2458.009	890.35
2461.163	910.98
2464.317	923
2467.471	900.93
2470.624	934.63
2473.777	913.73
2476.929	881.82
2480.082	939.8
2483.234	991
2486.385	1000.67
2489.537	1023.33
2492.688	1141.38
2495.839	1111.93
2498.989	1141.22
2502.14	1150.18
2505.29	1106.34
2508.439	1218.52
2511.589	1250.65
2514.738	1201.69
2517.887	1186.26
2521.035	1117.95
2524.183	1102.49
2527.331	1085.35
2530.479	1061.38
2533.627	1089.44
