Data from c_3_hir_wi_4n_Splice17_12.txt Node
Date: Sat Feb 29 14:52:35 EST 2020
User: sa697716
Spectrometer: FLMS03696
Trigger mode: 0
Integration Time (sec): 3.180400E-1
Scans to average: 20
Electric dark correction enabled: true
Nonlinearity correction enabled: true
Boxcar width: 5
XAxis mode: Wavelengths
Number of Pixels in Spectrum: 2048
>>>>>Begin Spectral Data<<<<<
187.83	46.76
188.298	52.84
188.766	56.15
189.233	51.29
189.701	64.54
190.169	66.2
190.636	77.58
191.104	78.32
191.571	525.38
192.039	451.11
192.506	-863.79
192.974	-2234.19
193.441	-177.66
193.908	114.72
194.375	147.07
194.842	288.85
195.31	160.78
195.777	186.36
196.244	69.04
196.711	61.17
197.177	60.01
197.644	59.77
198.111	58.6
198.578	57.73
199.045	58.09
199.511	58.13
199.978	58.38
200.445	58.09
200.911	58.38
201.378	58.8
201.844	59.73
202.31	59.94
202.777	59.78
203.243	60.23
203.709	59.83
204.176	59.46
204.642	59.55
205.108	59.36
205.574	59.78
206.04	59.61
206.506	58.99
206.972	58.48
207.438	58.03
207.903	57.86
208.369	56.79
208.835	57.01
209.301	56.39
209.766	55.25
210.232	54.38
210.697	53.25
211.163	51.82
211.628	51.1
212.094	50.17
212.559	49.07
213.024	47.91
213.49	46.9
213.955	45.76
214.42	44.67
214.885	43.43
215.35	41.82
215.815	39.93
216.28	38.2
216.745	35.8
217.21	33.16
217.675	30.88
218.14	28.59
218.604	26.49
219.069	24.73
219.534	23.09
219.998	21.87
220.463	20.8
220.927	19.77
221.392	18.86
221.856	18.13
222.32	17.55
222.785	16.98
223.249	16.55
223.713	16.18
224.177	15.79
224.642	15.52
225.106	15.19
225.57	14.87
226.034	14.63
226.497	14.35
226.961	14.09
227.425	13.83
227.889	13.63
228.353	13.38
228.816	13.18
229.28	12.94
229.744	12.74
230.207	12.55
230.671	12.38
231.134	12.2
231.597	12.04
232.061	11.87
232.524	11.73
232.987	11.55
233.45	11.41
233.914	11.24
234.377	11.13
234.84	10.99
235.303	10.86
235.766	10.73
236.229	10.62
236.691	10.53
237.154	10.43
237.617	10.35
238.08	10.26
238.542	10.17
239.005	10.09
239.468	9.97
239.93	9.88
240.393	9.8
240.855	9.71
241.317	9.63
241.78	9.53
242.242	9.43
242.704	9.34
243.166	9.26
243.629	9.17
244.091	9.1
244.553	9.03
245.015	8.97
245.477	8.87
245.939	8.8
246.4	8.72
246.862	8.66
247.324	8.6
247.786	8.53
248.247	8.47
248.709	8.41
249.17	8.34
249.632	8.28
250.093	8.2
250.555	8.16
251.016	8.11
251.477	8.06
251.939	8
252.4	7.95
252.861	7.9
253.322	7.85
253.783	7.82
254.244	7.78
254.705	7.74
255.166	7.71
255.627	7.67
256.088	7.62
256.549	7.59
257.009	7.53
257.47	7.5
257.931	7.46
258.391	7.43
258.852	7.38
259.312	7.34
259.773	7.3
260.233	7.24
260.694	7.2
261.154	7.15
261.614	7.11
262.074	7.08
262.534	7.03
262.994	6.99
263.455	6.96
263.915	6.91
264.374	6.88
264.834	6.85
265.294	6.82
265.754	6.78
266.214	6.75
266.673	6.72
267.133	6.7
267.593	6.67
268.052	6.64
268.512	6.61
268.971	6.59
269.431	6.56
269.89	6.54
270.349	6.52
270.809	6.5
271.268	6.5
271.727	6.48
272.186	6.46
272.645	6.44
273.104	6.42
273.563	6.41
274.022	6.4
274.481	6.38
274.94	6.37
275.399	6.35
275.857	6.33
276.316	6.31
276.775	6.28
277.233	6.27
277.692	6.26
278.15	6.23
278.609	6.21
279.067	6.19
279.525	6.17
279.984	6.15
280.442	6.14
280.9	6.13
281.358	6.12
281.816	6.11
282.274	6.09
282.732	6.08
283.19	6.07
283.648	6.07
284.106	6.05
284.564	6.05
285.021	6.05
285.479	6.04
285.937	6.04
286.394	6.03
286.852	6.03
287.309	6.03
287.767	6.02
288.224	6.02
288.682	6.02
289.139	6.02
289.596	6
290.053	5.98
290.511	5.96
290.968	5.94
291.425	5.93
291.882	5.9
292.339	5.88
292.796	5.85
293.252	5.82
293.709	5.8
294.166	5.78
294.623	5.76
295.079	5.75
295.536	5.73
295.992	5.71
296.449	5.69
296.905	5.68
297.362	5.67
297.818	5.66
298.274	5.65
298.731	5.64
299.187	5.63
299.643	5.63
300.099	5.62
300.555	5.6
301.011	5.59
301.467	5.58
301.923	5.58
302.379	5.58
302.835	5.57
303.291	5.56
303.746	5.55
304.202	5.54
304.658	5.53
305.113	5.52
305.569	5.51
306.024	5.51
306.479	5.5
306.935	5.48
307.39	5.48
307.845	5.48
308.301	5.48
308.756	5.49
309.211	5.49
309.666	5.5
310.121	5.5
310.576	5.51
311.031	5.51
311.486	5.52
311.94	5.52
312.395	5.53
312.85	5.52
313.305	5.52
313.759	5.53
314.214	5.52
314.668	5.51
315.123	5.52
315.577	5.53
316.032	5.53
316.486	5.52
316.94	5.52
317.394	5.51
317.849	5.49
318.303	5.49
318.757	5.47
319.211	5.45
319.665	5.44
320.119	5.43
320.572	5.41
321.026	5.4
321.48	5.39
321.934	5.39
322.387	5.38
322.841	5.38
323.295	5.37
323.748	5.36
324.202	5.36
324.655	5.36
325.108	5.35
325.562	5.33
326.015	5.32
326.468	5.3
326.921	5.29
327.374	5.28
327.827	5.27
328.28	5.26
328.733	5.25
329.186	5.25
329.639	5.24
330.092	5.23
330.545	5.23
330.997	5.24
331.45	5.24
331.903	5.24
332.355	5.24
332.808	5.24
333.26	5.25
333.713	5.25
334.165	5.25
334.617	5.26
335.069	5.27
335.522	5.28
335.974	5.29
336.426	5.29
336.878	5.3
337.33	5.3
337.782	5.3
338.234	5.31
338.686	5.31
339.137	5.31
339.589	5.3
340.041	5.3
340.493	5.29
340.944	5.28
341.396	5.28
341.847	5.28
342.299	5.25
342.75	5.24
343.201	5.22
343.653	5.21
344.104	5.19
344.555	5.19
345.006	5.17
345.457	5.16
345.908	5.15
346.359	5.14
346.81	5.14
347.261	5.14
347.712	5.13
348.163	5.14
348.613	5.13
349.064	5.13
349.515	5.12
349.965	5.11
350.416	5.11
350.866	5.12
351.317	5.12
351.767	5.11
352.217	5.1
352.668	5.1
353.118	5.1
353.568	5.11
354.018	5.11
354.468	5.1
354.918	5.11
355.368	5.13
355.818	5.12
356.268	5.14
356.718	5.14
357.168	5.15
357.617	5.16
358.067	5.17
358.517	5.17
358.966	5.19
359.416	5.22
359.865	5.22
360.315	5.23
360.764	5.25
361.213	5.25
361.663	5.27
362.112	5.3
362.561	5.31
363.01	5.34
363.459	5.36
363.908	5.37
364.357	5.39
364.806	5.42
365.255	5.44
365.703	5.46
366.152	5.49
366.601	5.51
367.05	5.53
367.498	5.56
367.947	5.59
368.395	5.62
368.844	5.64
369.292	5.66
369.74	5.68
370.189	5.71
370.637	5.74
371.085	5.78
371.533	5.82
371.981	5.85
372.429	5.88
372.877	5.91
373.325	5.95
373.773	6
374.221	6.05
374.669	6.1
375.116	6.14
375.564	6.17
376.012	6.21
376.459	6.25
376.907	6.29
377.354	6.32
377.801	6.36
378.249	6.4
378.696	6.44
379.143	6.48
379.591	6.52
380.038	6.57
380.485	6.63
380.932	6.68
381.379	6.72
381.826	6.77
382.273	6.82
382.72	6.88
383.166	6.92
383.613	6.96
384.06	7
384.506	7.04
384.953	7.06
385.4	7.09
385.846	7.11
386.292	7.16
386.739	7.17
387.185	7.2
387.631	7.22
388.078	7.25
388.524	7.25
388.97	7.28
389.416	7.29
389.862	7.31
390.308	7.34
390.754	7.36
391.2	7.37
391.645	7.4
392.091	7.43
392.537	7.45
392.983	7.48
393.428	7.53
393.874	7.56
394.319	7.58
394.765	7.6
395.21	7.6
395.655	7.62
396.101	7.64
396.546	7.66
396.991	7.68
397.436	7.67
397.881	7.67
398.326	7.68
398.771	7.69
399.216	7.72
399.661	7.74
400.106	7.77
400.551	7.78
400.995	7.78
401.44	7.76
401.885	7.76
402.329	7.75
402.774	7.75
403.218	7.74
403.663	7.72
404.107	7.7
404.551	7.69
404.995	7.66
405.44	7.64
405.884	7.62
406.328	7.61
406.772	7.61
407.216	7.6
407.66	7.61
408.104	7.59
408.547	7.58
408.991	7.56
409.435	7.55
409.879	7.54
410.322	7.54
410.766	7.54
411.209	7.55
411.653	7.54
412.096	7.53
412.54	7.52
412.983	7.52
413.426	7.52
413.869	7.52
414.312	7.55
414.756	7.58
415.199	7.6
415.642	7.62
416.085	7.64
416.527	7.65
416.97	7.68
417.413	7.68
417.856	7.67
418.298	7.67
418.741	7.66
419.184	7.65
419.626	7.62
420.069	7.6
420.511	7.59
420.953	7.56
421.396	7.55
421.838	7.54
422.28	7.57
422.722	7.59
423.164	7.58
423.606	7.6
424.048	7.58
424.49	7.6
424.932	7.6
425.374	7.59
425.816	7.58
426.258	7.54
426.699	7.5
427.141	7.44
427.582	7.42
428.024	7.42
428.465	7.4
428.907	7.39
429.348	7.39
429.789	7.37
430.231	7.34
430.672	7.32
431.113	7.35
431.554	7.37
431.995	7.41
432.436	7.39
432.877	7.38
433.318	7.37
433.759	7.36
434.2	7.34
434.64	7.37
435.081	7.36
435.522	7.36
435.962	7.37
436.403	7.39
436.843	7.39
437.284	7.43
437.724	7.46
438.164	7.48
438.604	7.51
439.045	7.52
439.485	7.53
439.925	7.55
440.365	7.56
440.805	7.55
441.245	7.53
441.685	7.55
442.125	7.52
442.564	7.54
443.004	7.55
443.444	7.56
443.883	7.58
444.323	7.58
444.762	7.64
445.202	7.69
445.641	7.72
446.081	7.76
446.52	7.74
446.959	7.77
447.398	7.8
447.837	7.83
448.276	7.83
448.716	7.86
449.154	7.89
449.593	7.88
450.032	7.89
450.471	7.9
450.91	7.91
451.349	7.95
451.787	7.96
452.226	7.94
452.664	7.93
453.103	7.92
453.541	7.91
453.98	7.88
454.418	7.86
454.856	7.82
455.295	7.81
455.733	7.79
456.171	7.77
456.609	7.74
457.047	7.73
457.485	7.71
457.923	7.69
458.361	7.69
458.798	7.69
459.236	7.68
459.674	7.69
460.111	7.68
460.549	7.66
460.987	7.65
461.424	7.65
461.862	7.63
462.299	7.65
462.736	7.66
463.173	7.66
463.611	7.64
464.048	7.67
464.485	7.66
464.922	7.65
465.359	7.67
465.796	7.65
466.233	7.67
466.67	7.68
467.106	7.64
467.543	7.64
467.98	7.64
468.416	7.64
468.853	7.64
469.29	7.65
469.726	7.65
470.162	7.64
470.599	7.64
471.035	7.64
471.471	7.64
471.907	7.64
472.344	7.64
472.78	7.64
473.216	7.65
473.652	7.64
474.088	7.65
474.523	7.66
474.959	7.67
475.395	7.68
475.831	7.68
476.266	7.69
476.702	7.7
477.138	7.69
477.573	7.67
478.008	7.66
478.444	7.66
478.879	7.64
479.314	7.64
479.75	7.63
480.185	7.63
480.62	7.61
481.055	7.61
481.49	7.57
481.925	7.57
482.36	7.56
482.795	7.55
483.229	7.54
483.664	7.53
484.099	7.54
484.534	7.53
484.968	7.52
485.403	7.52
485.837	7.53
486.271	7.54
486.706	7.54
487.14	7.55
487.574	7.56
488.009	7.58
488.443	7.59
488.877	7.6
489.311	7.62
489.745	7.64
490.179	7.67
490.613	7.69
491.046	7.74
491.48	7.79
491.914	7.84
492.348	7.89
492.781	7.94
493.215	7.98
493.648	8.03
494.082	8.1
494.515	8.15
494.948	8.2
495.382	8.26
495.815	8.32
496.248	8.38
496.681	8.44
497.114	8.51
497.547	8.59
497.98	8.68
498.413	8.77
498.846	8.86
499.279	8.96
499.711	9.07
500.144	9.18
500.577	9.29
501.009	9.41
501.442	9.52
501.874	9.66
502.306	9.78
502.739	9.91
503.171	10.06
503.603	10.23
504.036	10.38
504.468	10.56
504.9	10.74
505.332	10.92
505.764	11.12
506.196	11.32
506.627	11.52
507.059	11.74
507.491	11.97
507.923	12.18
508.354	12.4
508.786	12.63
509.217	12.85
509.649	13.09
510.08	13.35
510.512	13.59
510.943	13.86
511.374	14.13
511.805	14.39
512.237	14.66
512.668	14.94
513.099	15.25
513.53	15.55
513.961	15.87
514.391	16.16
514.822	16.46
515.253	16.77
515.684	17.06
516.114	17.37
516.545	17.69
516.975	18
517.406	18.3
517.836	18.58
518.267	18.89
518.697	19.19
519.127	19.49
519.558	19.77
519.988	20.06
520.418	20.35
520.848	20.64
521.278	20.92
521.708	21.06
522.138	21.32
522.567	21.59
522.997	21.82
523.427	22.07
523.857	22.32
524.286	22.57
524.716	22.81
525.145	23.03
525.575	23.25
526.004	23.46
526.433	23.8
526.863	24.02
527.292	24.2
527.721	24.4
528.15	24.56
528.579	24.73
529.008	24.89
529.437	25.05
529.866	25.19
530.295	25.35
530.724	25.48
531.152	25.62
531.581	25.73
532.01	25.88
532.438	25.98
532.867	26.11
533.295	26.2
533.723	26.3
534.152	26.38
534.58	26.43
535.008	26.48
535.436	26.53
535.865	26.59
536.293	26.66
536.721	26.71
537.149	26.77
537.576	26.81
538.004	26.86
538.432	26.9
538.86	26.94
539.287	27.01
539.715	27.06
540.143	27.09
540.57	27.12
540.998	27.14
541.425	27.15
541.852	27.16
542.28	27.18
542.707	27.22
543.134	27.23
543.561	27.25
543.988	27.28
544.415	27.29
544.842	27.34
545.269	27.38
545.696	27.41
546.123	27.45
546.549	27.49
546.976	27.52
547.403	27.54
547.829	27.58
548.256	27.6
548.682	27.62
549.108	27.66
549.535	27.66
549.961	27.66
550.387	27.68
550.813	27.68
551.24	27.67
551.666	27.68
552.092	27.7
552.518	27.69
552.943	27.7
553.369	27.69
553.795	27.66
554.221	27.64
554.646	27.61
555.072	27.56
555.498	27.53
555.923	27.5
556.349	27.42
556.774	27.34
557.199	27.3
557.625	27.22
558.05	27.14
558.475	27.06
558.9	27
559.325	26.93
559.75	26.84
560.175	26.75
560.6	26.65
561.025	26.56
561.449	26.47
561.874	26.33
562.299	26.22
562.723	26.13
563.148	26.02
563.572	25.89
563.997	25.74
564.421	25.61
564.846	25.47
565.27	25.32
565.694	25.18
566.118	25.02
566.542	24.89
566.966	24.73
567.39	24.54
567.814	24.37
568.238	24.17
568.662	24
569.086	23.83
569.509	23.65
569.933	23.47
570.357	23.29
570.78	23.11
571.204	22.93
571.627	22.76
572.05	22.61
572.474	22.44
572.897	22.28
573.32	22.14
573.743	22
574.166	21.86
574.589	21.72
575.012	21.6
575.435	21.48
575.858	21.35
576.281	21.24
576.704	21.12
577.126	21.03
577.549	20.95
577.972	20.85
578.394	20.75
578.817	20.66
579.239	20.58
579.661	20.49
580.084	20.4
580.506	20.33
580.928	20.24
581.35	20.17
581.772	20.08
582.194	20
582.616	19.91
583.038	19.84
583.46	19.75
583.882	19.69
584.303	19.62
584.725	19.55
585.147	19.46
585.568	19.39
585.99	19.32
586.411	19.24
586.833	19.19
587.254	19.15
587.675	19.08
588.096	19.04
588.518	19
588.939	18.93
589.36	18.89
589.781	18.85
590.202	18.83
590.623	18.78
591.043	18.74
591.464	18.68
591.885	18.64
592.305	18.62
592.726	18.57
593.147	18.52
593.567	18.48
593.987	18.44
594.408	18.4
594.828	18.36
595.248	18.34
595.669	18.32
596.089	18.29
596.509	18.23
596.929	18.18
597.349	18.14
597.769	18.08
598.189	18.06
598.608	18.01
599.028	17.97
599.448	17.93
599.867	17.88
600.287	17.81
600.706	17.78
601.126	17.74
601.545	17.7
601.965	17.65
602.384	17.6
602.803	17.53
603.222	17.46
603.641	17.4
604.061	17.32
604.48	17.26
604.898	17.21
605.317	17.13
605.736	17.04
606.155	16.95
606.574	16.88
606.992	16.81
607.411	16.75
607.829	16.63
608.248	16.57
608.666	16.48
609.085	16.4
609.503	16.29
609.921	16.2
610.339	16.12
610.758	16.06
611.176	15.98
611.594	15.89
612.012	15.81
612.43	15.77
612.847	15.68
613.265	15.61
613.683	15.52
614.101	15.44
614.518	15.35
614.936	15.28
615.353	15.2
615.771	15.12
616.188	15.06
616.606	14.98
617.023	14.92
617.44	14.86
617.857	14.8
618.274	14.74
618.691	14.68
619.108	14.64
619.525	14.6
619.942	14.55
620.359	14.51
620.776	14.47
621.192	14.43
621.609	14.4
622.026	14.35
622.442	14.31
622.859	14.3
623.275	14.29
623.691	14.28
624.108	14.25
624.524	14.23
624.94	14.21
625.356	14.19
625.772	14.18
626.188	14.19
626.604	14.17
627.02	14.17
627.436	14.13
627.852	14.11
628.268	14.08
628.683	14.06
629.099	14.03
629.514	14
629.93	13.98
630.345	13.93
630.761	13.88
631.176	13.86
631.591	13.81
632.007	13.79
632.422	13.74
632.837	13.69
633.252	13.63
633.667	13.57
634.082	13.5
634.497	13.43
634.911	13.34
635.326	13.26
635.741	13.15
636.155	13.06
636.57	12.94
636.984	12.81
637.399	12.69
637.813	12.56
638.228	12.45
638.642	12.33
639.056	12.21
639.47	12.09
639.884	11.95
640.298	11.83
640.712	11.69
641.126	11.55
641.54	11.45
641.954	11.35
642.368	11.23
642.781	11.1
643.195	10.98
643.609	10.87
644.022	10.76
644.436	10.66
644.849	10.55
645.262	10.48
645.676	10.39
646.089	10.28
646.502	10.19
646.915	10.11
647.328	10.05
647.741	9.99
648.154	9.94
648.567	9.9
648.98	9.84
649.393	9.79
649.805	9.73
650.218	9.7
650.631	9.67
651.043	9.64
651.456	9.61
651.868	9.56
652.28	9.51
652.693	9.45
653.105	9.4
653.517	9.36
653.929	9.32
654.341	9.27
654.753	9.21
655.165	9.14
655.577	9.05
655.989	8.97
656.401	8.89
656.813	8.81
657.224	8.73
657.636	8.66
658.047	8.58
658.459	8.48
658.87	8.38
659.282	8.3
659.693	8.22
660.104	8.15
660.515	8.08
660.926	8.02
661.338	7.95
661.749	7.88
662.159	7.8
662.57	7.73
662.981	7.67
663.392	7.61
663.803	7.55
664.213	7.5
664.624	7.44
665.035	7.39
665.445	7.33
665.855	7.3
666.266	7.26
666.676	7.22
667.086	7.2
667.497	7.15
667.907	7.12
668.317	7.09
668.727	7.07
669.137	7.05
669.547	7.05
669.956	7.03
670.366	7.02
670.776	7.02
671.186	7.02
671.595	7.03
672.005	7.05
672.414	7.07
672.824	7.09
673.233	7.11
673.642	7.11
674.052	7.12
674.461	7.14
674.87	7.17
675.279	7.18
675.688	7.21
676.097	7.23
676.506	7.26
676.915	7.29
677.323	7.32
677.732	7.36
678.141	7.41
678.549	7.47
678.958	7.53
679.366	7.58
679.775	7.67
680.183	7.73
680.592	7.81
681	7.88
681.408	7.98
681.816	8.08
682.224	8.2
682.632	8.35
683.04	8.48
683.448	8.63
683.856	8.79
684.264	8.98
684.671	9.21
685.079	9.44
685.487	9.71
685.894	9.99
686.302	10.31
686.709	10.63
687.116	10.97
687.524	11.36
687.931	11.76
688.338	12.2
688.745	12.66
689.152	13.12
689.559	13.63
689.966	14.13
690.373	14.68
690.78	15.24
691.187	15.8
691.593	16.39
692	16.98
692.407	17.59
692.813	18.21
693.22	18.84
693.626	19.48
694.032	20.11
694.439	20.77
694.845	21.41
695.251	22.04
695.657	22.68
696.063	23.32
696.469	23.93
696.875	24.55
697.281	25.15
697.687	25.76
698.093	26.36
698.498	26.97
698.904	27.55
699.31	28.11
699.715	28.69
700.12	29.23
700.526	29.78
700.931	30.31
701.337	30.84
701.742	31.34
702.147	31.84
702.552	32.35
702.957	32.81
703.362	33.29
703.767	33.77
704.172	34.23
704.577	34.69
704.981	35.16
705.386	35.61
705.791	36.07
706.195	36.52
706.6	36.93
707.004	37.35
707.408	37.78
707.813	38.18
708.217	38.55
708.621	38.93
709.025	39.31
709.43	39.64
709.834	40.01
710.237	40.34
710.641	40.7
711.045	41.04
711.449	41.35
711.853	41.66
712.256	42
712.66	42.34
713.064	42.66
713.467	42.95
713.87	43.26
714.274	43.56
714.677	43.86
715.08	44.14
715.484	44.44
715.887	44.74
716.29	45.02
716.693	45.28
717.096	45.55
717.499	45.82
717.901	46.08
718.304	46.35
718.707	46.59
719.109	46.84
719.512	47.08
719.915	47.31
720.317	47.52
720.719	47.74
721.122	47.95
721.524	48.15
721.926	48.35
722.328	48.55
722.731	48.75
723.133	48.96
723.535	49.17
723.937	49.36
724.338	49.53
724.74	49.72
725.142	49.81
725.544	49.95
725.945	50.11
726.347	50.27
726.748	50.39
727.15	50.52
727.551	50.65
727.952	50.74
728.354	50.87
728.755	50.99
729.156	51.12
729.557	51.31
729.958	51.47
730.359	51.56
730.76	51.62
731.161	51.76
731.562	51.88
731.962	51.99
732.363	52.06
732.763	52.17
733.164	52.23
733.564	52.31
733.965	52.38
734.365	52.42
734.766	52.51
735.166	52.55
735.566	52.57
735.966	52.58
736.366	52.62
736.766	52.7
737.166	52.75
737.566	52.81
737.966	52.85
738.365	52.89
738.765	52.94
739.165	52.95
739.564	53.04
739.964	53.09
740.363	53.13
740.763	53.13
741.162	53.13
741.561	53.14
741.96	53.16
742.36	53.21
742.759	53.22
743.158	53.22
743.557	53.25
743.955	53.35
744.354	53.4
744.753	53.46
745.152	53.5
745.55	53.54
745.949	53.56
746.348	53.61
746.746	53.62
747.144	53.69
747.543	53.71
747.941	53.76
748.339	53.75
748.737	53.81
749.136	53.8
749.534	53.83
749.932	53.83
750.33	53.87
750.727	53.86
751.125	53.87
751.523	53.87
751.921	53.9
752.318	53.89
752.716	53.85
753.113	53.82
753.511	53.82
753.908	53.78
754.305	53.77
754.703	53.73
755.1	53.73
755.497	53.73
755.894	53.68
756.291	53.66
756.688	53.61
757.085	53.59
757.482	53.57
757.878	53.56
758.275	53.58
758.672	53.59
759.068	53.63
759.465	53.63
759.861	53.6
760.258	53.59
760.654	53.57
761.05	53.59
761.447	53.58
761.843	53.56
762.239	53.55
762.635	53.54
763.031	53.55
763.427	53.52
763.822	53.5
764.218	53.49
764.614	53.51
765.01	53.54
765.405	53.55
765.801	53.53
766.196	53.52
766.592	53.5
766.987	53.49
767.382	53.44
767.778	53.42
768.173	53.42
768.568	53.39
768.963	53.35
769.358	53.32
769.753	53.32
770.148	53.31
770.542	53.33
770.937	53.34
771.332	53.35
771.726	53.36
772.121	53.37
772.515	53.38
772.91	53.41
773.304	53.42
773.699	53.44
774.093	53.43
774.487	53.45
774.881	53.46
775.275	53.46
775.669	53.48
776.063	53.44
776.457	53.41
776.851	53.4
777.245	53.4
777.638	53.4
778.032	53.4
778.425	53.39
778.819	53.38
779.212	53.37
779.606	53.35
779.999	53.33
780.392	53.37
780.786	53.42
781.179	53.45
781.572	53.44
781.965	53.44
782.358	53.4
782.751	53.43
783.143	53.43
783.536	53.5
783.929	53.51
784.322	53.55
784.714	53.58
785.107	53.55
785.499	53.54
785.891	53.54
786.284	53.6
786.676	53.65
787.068	53.64
787.46	53.63
787.852	53.6
788.245	53.62
788.636	53.6
789.028	53.6
789.42	53.64
789.812	53.65
790.204	53.63
790.595	53.62
790.987	53.6
791.378	53.63
791.77	53.66
792.161	53.67
792.553	53.65
792.944	53.67
793.335	53.65
793.726	53.62
794.117	53.62
794.508	53.67
794.899	53.66
795.29	53.66
795.681	53.61
796.072	53.61
796.463	53.62
796.853	53.61
797.244	53.63
797.634	53.61
798.025	53.65
798.415	53.64
798.806	53.64
799.196	53.62
799.586	53.67
799.976	53.75
800.366	53.76
800.756	53.76
801.146	53.76
801.536	53.76
801.926	53.8
802.316	53.8
802.706	53.86
803.095	53.89
803.485	53.95
803.874	53.93
804.264	53.92
804.653	53.91
805.043	53.94
805.432	53.97
805.821	53.96
806.21	54.01
806.599	54.05
806.988	54.04
807.377	54.04
807.766	54.05
808.155	54.07
808.544	54.06
808.933	54.07
809.321	54.1
809.71	54.13
810.098	54.15
810.487	54.12
810.875	54.11
811.264	54.15
811.652	54.14
812.04	54.16
812.428	54.18
812.816	54.21
813.204	54.19
813.592	54.17
813.98	54.16
814.368	54.16
814.756	54.21
815.144	54.22
815.531	54.21
815.919	54.22
816.306	54.23
816.694	54.25
817.081	54.24
817.469	54.31
817.856	54.38
818.243	54.38
818.63	54.47
819.017	54.46
819.404	54.43
819.791	54.45
820.178	54.47
820.565	54.48
820.952	54.47
821.339	54.49
821.725	54.49
822.112	54.47
822.498	54.49
822.885	54.46
823.271	54.48
823.657	54.49
824.044	54.47
824.43	54.52
824.816	54.5
825.202	54.53
825.588	54.55
825.974	54.54
826.36	54.51
826.746	54.52
827.132	54.46
827.517	54.45
827.903	54.45
828.289	54.44
828.674	54.38
829.06	54.38
829.445	54.35
829.83	54.32
830.216	54.31
830.601	54.31
830.986	54.3
831.371	54.32
831.756	54.31
832.141	54.32
832.526	54.3
832.911	54.32
833.295	54.32
833.68	54.33
834.065	54.33
834.449	54.3
834.834	54.26
835.218	54.26
835.603	54.24
835.987	54.24
836.371	54.2
836.755	54.21
837.139	54.17
837.524	54.16
837.908	54.1
838.291	54.08
838.675	54.09
839.059	54.1
839.443	54.08
839.827	54.06
840.21	54.06
840.594	54.06
840.977	54.03
841.361	54.05
841.744	54.06
842.127	54.06
842.511	54.04
842.894	54.02
843.277	54.01
843.66	54.02
844.043	54.02
844.426	53.99
844.809	53.99
845.191	53.99
845.574	53.96
845.957	53.92
846.339	53.92
846.722	53.93
847.104	53.91
847.487	53.95
847.869	53.94
848.252	53.93
848.634	53.94
849.016	53.93
849.398	53.93
849.78	53.9
850.162	53.9
850.544	53.93
850.926	53.91
851.307	53.93
851.689	53.86
852.071	53.87
852.452	53.88
852.834	53.88
853.215	53.86
853.597	53.86
853.978	53.87
854.359	53.85
854.741	53.82
855.122	53.83
855.503	53.83
855.884	53.85
856.265	53.85
856.646	53.79
857.026	53.79
857.407	53.8
857.788	53.8
858.169	53.81
858.549	53.86
858.93	53.84
859.31	53.85
859.69	53.83
860.071	53.84
860.451	53.84
860.831	53.87
861.211	53.87
861.591	53.88
861.971	53.86
862.351	53.87
862.731	53.86
863.111	53.87
863.491	53.85
863.87	53.85
864.25	53.84
864.629	53.83
865.009	53.84
865.388	53.85
865.768	53.84
866.147	53.9
866.526	53.92
866.905	53.93
867.284	53.94
867.663	53.97
868.042	53.95
868.421	53.95
868.8	53.97
869.179	53.95
869.558	53.91
869.936	53.91
870.315	53.87
870.693	53.82
871.072	53.78
871.45	53.77
871.828	53.76
872.207	53.78
872.585	53.78
872.963	53.76
873.341	53.78
873.719	53.81
874.097	53.82
874.475	53.83
874.853	53.82
875.23	53.83
875.608	53.82
875.986	53.79
876.363	53.77
876.741	53.74
877.118	53.73
877.495	53.66
877.873	53.63
878.25	53.61
878.627	53.64
879.004	53.67
879.381	53.7
879.758	53.69
880.135	53.71
880.512	53.75
880.889	53.77
881.265	53.8
881.642	53.85
882.019	53.88
882.395	53.87
882.772	53.84
883.148	53.82
883.524	53.82
883.901	53.81
884.277	53.8
884.653	53.78
885.029	53.78
885.405	53.76
885.781	53.73
886.157	53.72
886.532	53.76
886.908	53.76
887.284	53.76
887.659	53.75
888.035	53.75
888.411	53.72
888.786	53.73
889.161	53.7
889.537	53.67
889.912	53.67
890.287	53.62
890.662	53.6
891.037	53.54
891.412	53.49
891.787	53.44
892.162	53.43
892.536	53.42
892.911	53.39
893.286	53.36
893.66	53.33
894.035	53.3
894.409	53.27
894.784	53.22
895.158	53.23
895.532	53.23
895.906	53.23
896.281	53.18
896.655	53.16
897.029	53.13
897.402	53.14
897.776	53.15
898.15	53.14
898.524	53.13
898.898	53.15
899.271	53.13
899.645	53.14
900.018	53.14
900.392	53.17
900.765	53.19
901.138	53.2
901.511	53.19
901.884	53.2
902.258	53.21
902.631	53.26
903.003	53.25
903.376	53.23
903.749	53.2
904.122	53.19
904.495	53.2
904.867	53.17
905.24	53.18
905.612	53.16
905.985	53.13
906.357	53.12
906.729	53.07
907.102	53.08
907.474	53.09
907.846	53.13
908.218	53.11
908.59	53.08
908.962	53.08
909.334	53.08
909.705	53.1
910.077	53.09
910.449	53.11
910.82	53.12
911.192	53.11
911.563	53.14
911.935	53.14
912.306	53.16
912.677	53.17
913.048	53.15
913.419	53.15
913.79	53.14
914.161	53.15
914.532	53.14
914.903	53.15
915.274	53.13
915.645	53.13
916.015	53.13
916.386	53.09
916.756	53.09
917.127	53.1
917.497	53.1
917.868	53.11
918.238	53.16
918.608	53.19
918.978	53.19
919.348	53.19
919.718	53.19
920.088	53.17
920.458	53.21
920.828	53.22
921.198	53.25
921.567	53.23
921.937	53.21
922.306	53.14
922.676	53.09
923.045	53.04
923.415	53.02
923.784	53.01
924.153	52.97
924.522	52.95
924.891	52.94
925.26	52.92
925.629	52.94
925.998	52.98
926.367	53
926.736	53.01
927.104	53.05
927.473	53.06
927.842	53.06
928.21	53.1
928.578	53.08
928.947	53.04
929.315	53.01
929.683	52.98
930.051	52.9
930.42	52.92
930.788	52.88
931.156	52.84
931.523	52.82
931.891	52.76
932.259	52.66
932.627	52.58
932.994	52.56
933.362	52.45
933.729	52.37
934.097	52.33
934.464	52.2
934.831	52.13
935.199	52.07
935.566	51.97
935.933	52.05
936.3	52.03
936.667	52.03
937.034	51.97
937.401	52.03
937.767	52.06
938.134	52.12
938.501	52.16
938.867	52.27
939.234	52.4
939.6	52.48
939.967	52.4
940.333	52.55
940.699	52.72
941.065	52.87
941.431	53
941.798	53.12
942.163	53.26
942.529	53.27
942.895	53.32
943.261	53.3
943.627	53.46
943.992	53.51
944.358	53.51
944.723	53.52
945.089	53.51
945.454	53.46
945.82	53.43
946.185	53.39
946.55	53.54
946.915	53.57
947.28	53.56
947.645	53.54
948.01	53.54
948.375	53.57
948.74	53.49
949.104	53.49
949.469	53.41
949.834	53.35
950.198	53.25
950.562	53.2
950.927	53.15
951.291	53.12
951.655	53.05
952.02	53
952.384	53
952.748	53.03
953.112	52.96
953.476	52.96
953.839	52.93
954.203	52.87
954.567	52.87
954.931	52.89
955.294	52.84
955.658	52.74
956.021	52.68
956.385	52.58
956.748	52.52
957.111	52.5
957.474	52.5
957.837	52.47
958.2	52.43
958.563	52.31
958.926	52.17
959.289	52.19
959.652	52.21
960.015	52.21
960.377	52.2
960.74	52.11
961.102	52.06
961.465	51.98
961.827	51.92
962.189	51.94
962.552	51.87
962.914	51.85
963.276	51.83
963.638	51.88
964	51.83
964.362	51.86
964.724	51.89
965.085	51.89
965.447	51.94
965.809	51.96
966.17	51.95
966.532	52.01
966.893	52.07
967.255	51.96
967.616	51.85
967.977	51.81
968.338	51.71
968.699	51.66
969.061	51.65
969.421	51.57
969.782	51.63
970.143	51.65
970.504	51.63
970.865	51.51
971.225	51.52
971.586	51.56
971.946	51.57
972.307	51.59
972.667	51.61
973.027	51.66
973.388	51.62
973.748	51.55
974.108	51.49
974.468	51.53
974.828	51.61
975.188	51.69
975.548	51.69
975.907	51.77
976.267	51.74
976.627	51.81
976.986	51.69
977.346	51.72
977.705	51.8
978.064	51.8
978.424	51.71
978.783	51.73
979.142	51.73
979.501	51.68
979.86	51.66
980.219	51.65
980.578	51.62
980.937	51.73
981.296	51.82
981.654	51.82
982.013	51.86
982.371	51.95
982.73	51.93
983.088	51.77
983.447	51.8
983.805	51.78
984.163	51.84
984.521	51.74
984.879	51.69
985.237	51.7
985.595	51.64
985.953	51.62
986.311	51.63
986.669	51.71
987.026	51.94
987.384	51.94
987.741	52.07
988.099	52
988.456	52.14
988.814	52.19
989.171	52.1
989.528	52.06
989.885	52.01
990.242	52.05
990.599	52.09
990.956	52.04
991.313	52.04
991.67	51.99
992.027	52.01
992.383	52
992.74	52.07
993.096	52.1
993.453	52.2
993.809	52.35
994.165	52.35
994.522	52.28
994.878	52.2
995.234	52.28
995.59	52.21
995.946	52.3
996.302	52.17
996.658	52.17
997.013	52.26
997.369	52.18
997.725	52.19
998.08	52.18
998.436	52.22
998.791	52.37
999.147	52.38
999.502	52.48
999.857	52.46
1000.212	52.5
1000.567	52.48
1000.922	52.63
1001.277	52.76
1001.632	52.84
1001.987	52.81
1002.342	52.86
1002.696	52.89
1003.051	52.74
1003.406	52.71
1003.76	52.83
1004.114	53.1
1004.469	53.07
1004.823	52.97
1005.177	53.04
1005.531	53.1
1005.885	53.14
1006.239	53.04
1006.593	53.01
1006.947	52.96
1007.301	53.07
1007.655	53.12
1008.008	53.08
1008.362	53.2
1008.715	53.15
1009.069	53.12
1009.422	52.87
1009.776	52.98
1010.129	52.99
1010.482	53.11
1010.835	53.46
1011.188	53.42
1011.541	53.08
1011.894	53.05
1012.247	52.95
1012.6	52.82
1012.952	52.77
1013.305	52.81
1013.657	52.86
1014.01	53.04
1014.362	52.8
1014.715	52.73
1015.067	52.78
1015.419	53.3
1015.771	53.55
1016.123	53.65
1016.475	54.18
1016.827	54.56
1017.179	54.67
1017.531	54.67
1017.883	54.83
1018.234	55.09
1018.586	55.09
1018.938	55.17
1019.289	55.05
1019.64	54.99
1019.992	55.23
1020.343	54.99
1020.694	54.61
1021.045	54.73
1021.396	55.04
1021.747	54.99
1022.098	55.14
1022.449	55.19
1022.8	54.89
1023.151	54.92
1023.501	55.03
1023.852	55.02
1024.202	54.96
1024.553	55.09
1024.903	55.01
1025.253	54.63
1025.604	54.61
1025.954	54.43
1026.304	54.96
1026.654	55.32
1027.004	55.57
1027.354	55.86
1027.703	55.37
1028.053	55.47
1028.403	55.28
1028.753	55.83
1029.102	56
1029.452	56.02
1029.801	56.19
1030.15	55.9
1030.499	55.95
897.758	506.5
901.051	521.29
904.343	519.38
907.636	509.49
910.928	505.67
914.22	511.38
917.511	502.62
920.803	480.82
924.094	461.2
927.384	466.16
930.675	453.84
933.965	448.46
937.255	444.6
940.544	428.98
943.834	413.46
947.123	405.82
950.411	383.11
953.7	376.02
956.988	364.42
960.276	352.44
963.563	347.01
966.851	326.27
970.138	320.01
973.424	299.6
976.711	295.33
979.997	283.61
983.283	275.42
986.568	268.79
989.853	262.7
993.138	253.82
996.423	247.5
999.708	241.75
1002.992	243.39
1006.275	234.76
1009.559	234.08
1012.842	227.25
1016.125	221.02
1019.408	218.13
1022.69	216.19
1025.972	212.94
1029.254	208.29
1032.536	204.74
1035.817	197.44
1039.098	193.89
1042.379	191.8
1045.659	188.25
1048.939	187.15
1052.219	184.6
1055.498	180.74
1058.778	177.58
1062.057	175.16
1065.335	174.62
1068.614	170.89
1071.892	169.24
1075.17	166.61
1078.447	164.33
1081.724	162.47
1085.001	158.61
1088.278	158.04
1091.554	158.44
1094.83	156.8
1098.106	154.08
1101.382	152.91
1104.657	153.24
1107.932	153.1
1111.206	151.3
1114.481	150.14
1117.755	149.18
1121.029	149.05
1124.302	146.76
1127.575	143.66
1130.848	143.5
1134.121	141.79
1137.393	140.97
1140.665	140.12
1143.937	138.34
1147.208	137.27
1150.48	135.39
1153.75	134.75
1157.021	133.8
1160.291	132.87
1163.561	132.23
1166.831	131.52
1170.101	130.83
1173.37	130.35
1176.639	128.81
1179.907	128.39
1183.176	127.5
1186.444	128.58
1189.711	127.45
1192.979	128.03
1196.246	128.48
1199.513	128.75
1202.78	128.37
1206.046	128.1
1209.312	129.54
1212.578	129.97
1215.843	132.58
1219.108	133.5
1222.373	135.03
1225.638	137.28
1228.902	140.22
1232.166	145.18
1235.43	146.23
1238.693	149.86
1241.956	154.25
1245.219	156.85
1248.482	158.69
1251.744	157.17
1255.006	158.41
1258.268	153.84
1261.529	152.91
1264.79	148.63
1268.051	144.45
1271.312	144.26
1274.572	141.59
1277.832	138.59
1281.092	136.45
1284.351	133.37
1287.61	133.29
1290.869	132.32
1294.128	132.48
1297.386	131.84
1300.644	131.13
1303.902	130.46
1307.159	129.07
1310.416	130.05
1313.673	130.86
1316.93	132.61
1320.186	135.49
1323.442	136.48
1326.697	139.07
1329.953	139.47
1333.208	144.16
1336.463	149.56
1339.717	152.83
1342.972	160.7
1346.226	164.04
1349.479	165.18
1352.733	171.05
1355.986	173.87
1359.238	177.6
1362.491	178.74
1365.743	185.84
1368.995	187.37
1372.247	189.09
1375.498	187.94
1378.749	192.53
1382	193.9
1385.251	191.96
1388.501	190.87
1391.751	192.46
1395	191.43
1398.25	194.04
1401.499	192.7
1404.748	190.28
1407.996	184.36
1411.244	184.34
1414.492	182
1417.74	175.92
1420.987	173.18
1424.234	170.29
1427.481	163.1
1430.728	158.96
1433.974	152.14
1437.22	147.09
1440.465	142.41
1443.711	138.62
1446.956	133.57
1450.201	127.91
1453.445	122.86
1456.689	119.26
1459.933	114.96
1463.177	110.07
1466.42	107.77
1469.663	104.86
1472.906	101.8
1476.148	98.62
1479.391	96.43
1482.633	94.98
1485.874	93.06
1489.115	92.15
1492.356	90.22
1495.597	89.1
1498.838	89.18
1502.078	88.17
1505.318	87.77
1508.557	87.07
1511.797	86.52
1515.036	85.98
1518.274	86.14
1521.513	84.75
1524.751	83.88
1527.989	85.26
1531.227	85.04
1534.464	84.79
1537.701	84.15
1540.938	83.62
1544.174	83.33
1547.41	84.07
1550.646	83.85
1553.882	83.7
1557.117	84.24
1560.352	84.37
1563.587	83.11
1566.821	82.99
1570.055	82.78
1573.289	83.05
1576.523	83.2
1579.756	83.46
1582.989	83.36
1586.222	83.2
1589.454	83.2
1592.686	82.98
1595.918	82.88
1599.15	83.03
1602.381	83.71
1605.612	83.67
1608.843	83.8
1612.073	83.9
1615.303	84.15
1618.533	83.64
1621.762	83.95
1624.992	83.87
1628.221	84.1
1631.449	84.48
1634.678	84.7
1637.906	84.53
1641.134	84.38
1644.361	84.23
1647.588	84.98
1650.815	85.07
1654.042	84.9
1657.269	84.57
1660.495	85.1
1663.72	85.38
1666.946	85.05
1670.171	85.25
1673.396	85.85
1676.621	86.4
1679.845	86.84
1683.069	86.14
1686.293	85.89
1689.517	86.17
1692.74	86.54
1695.963	86.48
1699.185	86.97
1702.408	86.56
1705.63	87.03
1708.852	87.15
1712.073	87.01
1715.294	86.64
1718.515	87.3
1721.736	87.91
1724.956	87.66
1728.176	87.89
1731.396	88.28
1734.616	88.04
1737.835	88.86
1741.054	88.01
1744.272	87.63
1747.491	87.83
1750.709	88.72
1753.927	88.65
1757.144	88.33
1760.361	88.62
1763.578	89
1766.795	89.12
1770.011	88.96
1773.227	89.26
1776.443	90.61
1779.658	90.27
1782.874	91.14
1786.089	90.25
1789.303	90.33
1792.518	91.15
1795.732	92.06
1798.945	92.9
1802.159	92.96
1805.372	94.29
1808.585	95.37
1811.797	95.12
1815.01	96.64
1818.222	96.71
1821.434	98.19
1824.645	98.82
1827.856	100.61
1831.067	100.69
1834.278	101.23
1837.488	102.21
1840.698	102.78
1843.908	102.66
1847.117	104.55
1850.326	104.66
1853.535	105.64
1856.744	106.25
1859.952	107.82
1863.16	107.31
1866.368	107.31
1869.575	107.67
1872.782	108.11
1875.989	106.12
1879.196	107.22
1882.402	105.05
1885.608	105.48
1888.814	105.06
1892.019	106.67
1895.224	104.25
1898.429	104.97
1901.634	105.06
1904.838	105.71
1908.042	105.51
1911.246	106.44
1914.449	105.56
1917.652	106.12
1920.855	106.77
1924.058	105.9
1927.26	104.32
1930.462	105.33
1933.664	104.86
1936.865	105.38
1940.066	103.86
1943.267	102.49
1946.467	104.51
1949.668	105.19
1952.868	105.68
1956.067	104.87
1959.267	105.64
1962.466	106.51
1965.665	106.96
1968.863	107.01
1972.061	109.41
1975.259	111.35
1978.457	114.17
1981.654	112.95
1984.852	113.46
1988.048	114.92
1991.245	116.52
1994.441	119.41
1997.637	121.48
2000.833	123.76
2004.028	125.8
2007.223	127.38
2010.418	130.2
2013.613	134.69
2016.807	139.4
2020.001	141.7
2023.194	145.97
2026.388	152.2
2029.581	158.02
2032.774	163.44
2035.966	168.82
2039.158	173.37
2042.35	176.92
2045.542	179.72
2048.733	187.41
2051.924	188.6
2055.115	192.27
2058.306	194.12
2061.496	196.47
2064.686	198.2
2067.875	195.66
2071.065	198.07
2074.254	198.63
2077.442	204.1
2080.631	207.23
2083.819	206.07
2087.007	211.53
2090.195	214.55
2093.382	214.17
2096.569	214.82
2099.756	217.63
2102.942	223.58
2106.128	228.31
2109.314	229.58
2112.5	229.81
2115.685	227.14
2118.87	228.78
2122.055	229.36
2125.239	233.89
2128.424	241.13
2131.608	237.33
2134.791	237.01
2137.974	239.07
2141.157	240.19
2144.34	242.12
2147.523	247.25
2150.705	254.17
2153.887	250.45
2157.068	253.34
2160.25	253.2
2163.431	254.11
2166.611	258.29
2169.792	264.41
2172.972	266.22
2176.152	266.12
2179.331	272.54
2182.511	270.88
2185.69	275.02
2188.868	286.44
2192.047	294.83
2195.225	302.22
2198.403	301.84
2201.58	301.76
2204.758	311.22
2207.935	313.15
2211.111	319.94
2214.288	320.64
2217.464	326.13
2220.64	327.73
2223.815	327.01
2226.991	322.58
2230.166	324.49
2233.34	336.66
2236.515	346.19
2239.689	339.59
2242.863	345.19
2246.036	343.43
2249.209	350.56
2252.382	350.05
2255.555	364.11
2258.727	368.3
2261.9	375.76
2265.071	381.94
2268.243	375.44
2271.414	388.14
2274.585	397.12
2277.756	397.85
2280.926	411.62
2284.096	417.89
2287.266	420.2
2290.436	408.9
2293.605	417.89
2296.774	435.88
2299.942	434.5
2303.111	451.57
2306.279	454.6
2309.447	458.69
2312.614	458.91
2315.781	471.23
2318.948	470.22
2322.115	477.12
2325.281	505.82
2328.447	500.02
2331.613	498.68
2334.779	504.74
2337.944	514.25
2341.109	526.46
2344.274	526.88
2347.438	543.86
2350.602	550.87
2353.766	589.39
2356.929	591.83
2360.092	594.73
2363.255	601.52
2366.418	611.12
2369.58	624.21
2372.742	622.67
2375.904	620.21
2379.066	640.82
2382.227	676.04
2385.388	680.24
2388.548	644.92
2391.709	639.75
2394.869	666.18
2398.029	666.89
2401.188	664.92
2404.347	684.56
2407.506	706.75
2410.665	679.87
2413.823	686.24
2416.981	686.37
2420.139	646.17
2423.296	703.68
2426.453	753.13
2429.61	708.48
2432.767	757.47
2435.923	783.86
2439.079	757.81
2442.235	771.78
2445.391	796.68
2448.546	783.13
2451.701	823.33
2454.855	887.46
2458.009	777.05
2461.163	790.09
2464.317	806.83
2467.471	787.63
2470.624	818.98
2473.777	802.16
2476.929	775.13
2480.082	823.34
2483.234	864.04
2486.385	877.54
2489.537	895.95
2492.688	987.71
2495.839	961.63
2498.989	990.48
2502.14	997.96
2505.29	954.79
2508.439	1054.86
2511.589	1085.81
2514.738	1049.37
2517.887	1041.86
2521.035	990.77
2524.183	967.92
2527.331	961.68
2530.479	942.86
2533.627	961.59
