Data from c_3_dec_ct_2n_Splice17_16.txt Node
Date: Sat Feb 29 14:45:58 EST 2020
User: sa697716
Spectrometer: FLMS03696
Trigger mode: 0
Integration Time (sec): 3.180400E-1
Scans to average: 20
Electric dark correction enabled: true
Nonlinearity correction enabled: true
Boxcar width: 5
XAxis mode: Wavelengths
Number of Pixels in Spectrum: 2048
>>>>>Begin Spectral Data<<<<<
187.83	63.35
188.298	61.69
188.766	57.95
189.233	39.75
189.701	43.91
190.169	51.48
190.636	64.11
191.104	52.11
191.571	142.63
192.039	149.04
192.506	336.99
192.974	11519.44
193.441	-1074.29
193.908	175.09
194.375	97.48
194.842	61.41
195.31	16.9
195.777	79.1
196.244	19.5
196.711	16.03
197.177	11.7
197.644	11.54
198.111	11.46
198.578	11.51
199.045	11.56
199.511	12.49
199.978	13.5
200.445	13.85
200.911	13.76
201.378	13.9
201.844	14.14
202.31	14.96
202.777	15.18
203.243	15.7
203.709	16.3
204.176	16.24
204.642	16.38
205.108	16.27
205.574	16.88
206.04	16.6
206.506	16.89
206.972	16.88
207.438	16.92
207.903	17.37
208.369	17.24
208.835	17.18
209.301	17.56
209.766	17.61
210.232	17.69
210.697	17.67
211.163	18.31
211.628	18.03
212.094	17.89
212.559	17.69
213.024	17.32
213.49	17.2
213.955	17.24
214.42	16.89
214.885	16.61
215.35	16.28
215.815	15.62
216.28	15.01
216.745	14.67
217.21	14.48
217.675	14.18
218.14	13.66
218.604	13.32
219.069	12.98
219.534	12.78
219.998	12.55
220.463	12.43
220.927	12.27
221.392	12.13
221.856	12.02
222.32	11.87
222.785	11.75
223.249	11.7
223.713	11.6
224.177	11.47
224.642	11.4
225.106	11.3
225.57	11.13
226.034	11.01
226.497	10.89
226.961	10.75
227.425	10.62
227.889	10.48
228.353	10.35
228.816	10.21
229.28	10.07
229.744	9.95
230.207	9.85
230.671	9.78
231.134	9.67
231.597	9.55
232.061	9.45
232.524	9.34
232.987	9.24
233.45	9.13
233.914	9.04
234.377	8.95
234.84	8.83
235.303	8.74
235.766	8.63
236.229	8.55
236.691	8.49
237.154	8.4
237.617	8.31
238.08	8.23
238.542	8.15
239.005	8.07
239.468	7.97
239.93	7.9
240.393	7.81
240.855	7.72
241.317	7.64
241.78	7.57
242.242	7.49
242.704	7.42
243.166	7.35
243.629	7.29
244.091	7.21
244.553	7.16
245.015	7.09
245.477	7.03
245.939	6.98
246.4	6.91
246.862	6.84
247.324	6.79
247.786	6.73
248.247	6.68
248.709	6.62
249.17	6.58
249.632	6.53
250.093	6.47
250.555	6.42
251.016	6.37
251.477	6.34
251.939	6.3
252.4	6.25
252.861	6.2
253.322	6.14
253.783	6.11
254.244	6.06
254.705	6.02
255.166	6
255.627	5.96
256.088	5.92
256.549	5.88
257.009	5.85
257.47	5.83
257.931	5.8
258.391	5.77
258.852	5.73
259.312	5.71
259.773	5.68
260.233	5.65
260.694	5.62
261.154	5.59
261.614	5.56
262.074	5.53
262.534	5.49
262.994	5.47
263.455	5.46
263.915	5.44
264.374	5.41
264.834	5.39
265.294	5.36
265.754	5.34
266.214	5.32
266.673	5.3
267.133	5.29
267.593	5.28
268.052	5.25
268.512	5.23
268.971	5.21
269.431	5.2
269.89	5.19
270.349	5.17
270.809	5.15
271.268	5.14
271.727	5.13
272.186	5.11
272.645	5.09
273.104	5.08
273.563	5.06
274.022	5.04
274.481	5.02
274.94	5
275.399	4.99
275.857	4.97
276.316	4.95
276.775	4.92
277.233	4.91
277.692	4.89
278.15	4.86
278.609	4.84
279.067	4.82
279.525	4.8
279.984	4.79
280.442	4.77
280.9	4.75
281.358	4.74
281.816	4.72
282.274	4.7
282.732	4.7
283.19	4.69
283.648	4.67
284.106	4.66
284.564	4.65
285.021	4.64
285.479	4.63
285.937	4.61
286.394	4.59
286.852	4.58
287.309	4.58
287.767	4.55
288.224	4.54
288.682	4.54
289.139	4.53
289.596	4.51
290.053	4.49
290.511	4.46
290.968	4.45
291.425	4.43
291.882	4.42
292.339	4.39
292.796	4.37
293.252	4.35
293.709	4.34
294.166	4.32
294.623	4.31
295.079	4.3
295.536	4.29
295.992	4.27
296.449	4.27
296.905	4.24
297.362	4.23
297.818	4.22
298.274	4.2
298.731	4.19
299.187	4.18
299.643	4.16
300.099	4.15
300.555	4.14
301.011	4.13
301.467	4.11
301.923	4.1
302.379	4.09
302.835	4.09
303.291	4.08
303.746	4.07
304.202	4.06
304.658	4.04
305.113	4.03
305.569	4.03
306.024	4.01
306.479	4.01
306.935	4
307.39	3.99
307.845	3.98
308.301	3.98
308.756	3.98
309.211	3.98
309.666	3.98
310.121	3.96
310.576	3.96
311.031	3.96
311.486	3.96
311.94	3.95
312.395	3.96
312.85	3.95
313.305	3.94
313.759	3.94
314.214	3.93
314.668	3.93
315.123	3.93
315.577	3.93
316.032	3.92
316.486	3.92
316.94	3.92
317.394	3.9
317.849	3.9
318.303	3.89
318.757	3.88
319.211	3.86
319.665	3.85
320.119	3.84
320.572	3.84
321.026	3.83
321.48	3.82
321.934	3.81
322.387	3.8
322.841	3.8
323.295	3.78
323.748	3.78
324.202	3.78
324.655	3.77
325.108	3.76
325.562	3.74
326.015	3.74
326.468	3.72
326.921	3.71
327.374	3.71
327.827	3.7
328.28	3.69
328.733	3.68
329.186	3.67
329.639	3.66
330.092	3.65
330.545	3.65
330.997	3.65
331.45	3.64
331.903	3.64
332.355	3.64
332.808	3.64
333.26	3.63
333.713	3.63
334.165	3.62
334.617	3.63
335.069	3.62
335.522	3.62
335.974	3.62
336.426	3.62
336.878	3.61
337.33	3.61
337.782	3.61
338.234	3.61
338.686	3.62
339.137	3.62
339.589	3.61
340.041	3.61
340.493	3.59
340.944	3.58
341.396	3.57
341.847	3.56
342.299	3.55
342.75	3.55
343.201	3.54
343.653	3.53
344.104	3.51
344.555	3.51
345.006	3.51
345.457	3.5
345.908	3.49
346.359	3.49
346.81	3.5
347.261	3.5
347.712	3.49
348.163	3.49
348.613	3.48
349.064	3.47
349.515	3.47
349.965	3.45
350.416	3.45
350.866	3.44
351.317	3.44
351.767	3.43
352.217	3.41
352.668	3.41
353.118	3.41
353.568	3.41
354.018	3.43
354.468	3.42
354.918	3.42
355.368	3.42
355.818	3.42
356.268	3.42
356.718	3.42
357.168	3.41
357.617	3.41
358.067	3.4
358.517	3.39
358.966	3.39
359.416	3.4
359.865	3.39
360.315	3.4
360.764	3.4
361.213	3.4
361.663	3.39
362.112	3.4
362.561	3.4
363.01	3.4
363.459	3.4
363.908	3.4
364.357	3.39
364.806	3.38
365.255	3.38
365.703	3.37
366.152	3.37
366.601	3.37
367.05	3.38
367.498	3.37
367.947	3.37
368.395	3.38
368.844	3.38
369.292	3.38
369.74	3.39
370.189	3.39
370.637	3.4
371.085	3.4
371.533	3.39
371.981	3.38
372.429	3.38
372.877	3.37
373.325	3.36
373.773	3.36
374.221	3.36
374.669	3.35
375.116	3.34
375.564	3.34
376.012	3.34
376.459	3.35
376.907	3.35
377.354	3.34
377.801	3.35
378.249	3.36
378.696	3.37
379.143	3.37
379.591	3.36
380.038	3.38
380.485	3.38
380.932	3.37
381.379	3.37
381.826	3.37
382.273	3.37
382.72	3.38
383.166	3.38
383.613	3.38
384.06	3.39
384.506	3.39
384.953	3.39
385.4	3.39
385.846	3.4
386.292	3.4
386.739	3.4
387.185	3.4
387.631	3.41
388.078	3.41
388.524	3.39
388.97	3.38
389.416	3.38
389.862	3.38
390.308	3.38
390.754	3.39
391.2	3.4
391.645	3.41
392.091	3.4
392.537	3.4
392.983	3.41
393.428	3.42
393.874	3.43
394.319	3.45
394.765	3.45
395.21	3.45
395.655	3.46
396.101	3.46
396.546	3.48
396.991	3.49
397.436	3.48
397.881	3.49
398.326	3.51
398.771	3.53
399.216	3.55
399.661	3.57
400.106	3.6
400.551	3.61
400.995	3.61
401.44	3.61
401.885	3.62
402.329	3.64
402.774	3.64
403.218	3.65
403.663	3.65
404.107	3.66
404.551	3.67
404.995	3.66
405.44	3.68
405.884	3.69
406.328	3.69
406.772	3.71
407.216	3.72
407.66	3.74
408.104	3.75
408.547	3.75
408.991	3.76
409.435	3.75
409.879	3.77
410.322	3.77
410.766	3.79
411.209	3.81
411.653	3.81
412.096	3.81
412.54	3.82
412.983	3.82
413.426	3.84
413.869	3.84
414.312	3.86
414.756	3.88
415.199	3.9
415.642	3.92
416.085	3.94
416.527	3.97
416.97	3.99
417.413	3.99
417.856	4
418.298	4
418.741	4.01
419.184	4.02
419.626	4
420.069	4
420.511	3.99
420.953	3.98
421.396	3.98
421.838	4
422.28	4.03
422.722	4.05
423.164	4.06
423.606	4.08
424.048	4.07
424.49	4.1
424.932	4.1
425.374	4.11
425.816	4.1
426.258	4.1
426.699	4.08
427.141	4.07
427.582	4.06
428.024	4.06
428.465	4.05
428.907	4.06
429.348	4.06
429.789	4.06
430.231	4.05
430.672	4.07
431.113	4.09
431.554	4.09
431.995	4.11
432.436	4.11
432.877	4.11
433.318	4.12
433.759	4.11
434.2	4.11
434.64	4.1
435.081	4.1
435.522	4.11
435.962	4.11
436.403	4.12
436.843	4.13
437.284	4.14
437.724	4.17
438.164	4.18
438.604	4.2
439.045	4.22
439.485	4.23
439.925	4.22
440.365	4.2
440.805	4.2
441.245	4.17
441.685	4.18
442.125	4.18
442.564	4.15
443.004	4.16
443.444	4.16
443.883	4.18
444.323	4.16
444.762	4.18
445.202	4.21
445.641	4.23
446.081	4.26
446.52	4.25
446.959	4.26
447.398	4.29
447.837	4.31
448.276	4.3
448.716	4.3
449.154	4.33
449.593	4.34
450.032	4.34
450.471	4.34
450.91	4.33
451.349	4.33
451.787	4.32
452.226	4.31
452.664	4.3
453.103	4.29
453.541	4.3
453.98	4.3
454.418	4.28
454.856	4.25
455.295	4.24
455.733	4.23
456.171	4.23
456.609	4.23
457.047	4.22
457.485	4.22
457.923	4.23
458.361	4.21
458.798	4.22
459.236	4.23
459.674	4.24
460.111	4.25
460.549	4.23
460.987	4.24
461.424	4.24
461.862	4.24
462.299	4.24
462.736	4.24
463.173	4.24
463.611	4.23
464.048	4.23
464.485	4.22
464.922	4.2
465.359	4.21
465.796	4.19
466.233	4.19
466.67	4.2
467.106	4.19
467.543	4.16
467.98	4.16
468.416	4.17
468.853	4.15
469.29	4.15
469.726	4.17
470.162	4.16
470.599	4.17
471.035	4.18
471.471	4.17
471.907	4.17
472.344	4.18
472.78	4.18
473.216	4.18
473.652	4.17
474.088	4.18
474.523	4.17
474.959	4.19
475.395	4.18
475.831	4.17
476.266	4.18
476.702	4.16
477.138	4.16
477.573	4.14
478.008	4.14
478.444	4.14
478.879	4.13
479.314	4.13
479.75	4.13
480.185	4.12
480.62	4.11
481.055	4.11
481.49	4.11
481.925	4.11
482.36	4.1
482.795	4.09
483.229	4.09
483.664	4.08
484.099	4.07
484.534	4.06
484.968	4.07
485.403	4.06
485.837	4.06
486.271	4.05
486.706	4.04
487.14	4.04
487.574	4.04
488.009	4.03
488.443	4.02
488.877	4.02
489.311	4.03
489.745	4.02
490.179	4.02
490.613	4.01
491.046	4.02
491.48	4.03
491.914	4.04
492.348	4.04
492.781	4.04
493.215	4.04
493.648	4.06
494.082	4.07
494.515	4.08
494.948	4.08
495.382	4.1
495.815	4.11
496.248	4.12
496.681	4.13
497.114	4.15
497.547	4.17
497.98	4.19
498.413	4.2
498.846	4.21
499.279	4.22
499.711	4.25
500.144	4.27
500.577	4.29
501.009	4.3
501.442	4.33
501.874	4.35
502.306	4.37
502.739	4.39
503.171	4.42
503.603	4.46
504.036	4.5
504.468	4.54
504.9	4.58
505.332	4.63
505.764	4.68
506.196	4.73
506.627	4.78
507.059	4.83
507.491	4.9
507.923	4.97
508.354	5.03
508.786	5.08
509.217	5.12
509.649	5.19
510.08	5.28
510.512	5.35
510.943	5.42
511.374	5.5
511.805	5.58
512.237	5.67
512.668	5.75
513.099	5.85
513.53	5.96
513.961	6.08
514.391	6.18
514.822	6.27
515.253	6.38
515.684	6.48
516.114	6.61
516.545	6.73
516.975	6.84
517.406	6.94
517.836	7.05
518.267	7.16
518.697	7.29
519.127	7.43
519.558	7.56
519.988	7.69
520.418	7.81
520.848	7.93
521.278	8.07
521.708	8.16
522.138	8.28
522.567	8.4
522.997	8.53
523.427	8.63
523.857	8.74
524.286	8.87
524.716	8.98
525.145	9.1
525.575	9.21
526.004	9.31
526.433	9.44
526.863	9.55
527.292	9.65
527.721	9.76
528.15	9.84
528.579	9.94
529.008	10.01
529.437	10.09
529.866	10.17
530.295	10.24
530.724	10.33
531.152	10.41
531.581	10.48
532.01	10.54
532.438	10.6
532.867	10.66
533.295	10.71
533.723	10.77
534.152	10.82
534.58	10.87
535.008	10.9
535.436	10.93
535.865	10.95
536.293	10.99
536.721	11.05
537.149	11.07
537.576	11.1
538.004	11.11
538.432	11.13
538.86	11.15
539.287	11.17
539.715	11.2
540.143	11.21
540.57	11.24
540.998	11.25
541.425	11.25
541.852	11.26
542.28	11.27
542.707	11.29
543.134	11.32
543.561	11.33
543.988	11.34
544.415	11.36
544.842	11.39
545.269	11.4
545.696	11.43
546.123	11.45
546.549	11.49
546.976	11.53
547.403	11.54
547.829	11.55
548.256	11.57
548.682	11.58
549.108	11.58
549.535	11.58
549.961	11.59
550.387	11.57
550.813	11.56
551.24	11.55
551.666	11.53
552.092	11.54
552.518	11.54
552.943	11.52
553.369	11.52
553.795	11.51
554.221	11.5
554.646	11.48
555.072	11.45
555.498	11.43
555.923	11.4
556.349	11.36
556.774	11.31
557.199	11.26
557.625	11.22
558.05	11.16
558.475	11.1
558.9	11.04
559.325	10.99
559.75	10.94
560.175	10.88
560.6	10.81
561.025	10.74
561.449	10.67
561.874	10.61
562.299	10.52
562.723	10.46
563.148	10.39
563.572	10.3
563.997	10.22
564.421	10.13
564.846	10.05
565.27	9.96
565.694	9.88
566.118	9.78
566.542	9.69
566.966	9.61
567.39	9.51
567.814	9.41
568.238	9.31
568.662	9.21
569.086	9.12
569.509	9.03
569.933	8.92
570.357	8.82
570.78	8.73
571.204	8.63
571.627	8.55
572.05	8.47
572.474	8.4
572.897	8.32
573.32	8.25
573.743	8.18
574.166	8.11
574.589	8.06
575.012	8
575.435	7.93
575.858	7.87
576.281	7.82
576.704	7.78
577.126	7.72
577.549	7.68
577.972	7.63
578.394	7.58
578.817	7.52
579.239	7.47
579.661	7.44
580.084	7.39
580.506	7.37
580.928	7.31
581.35	7.26
581.772	7.23
582.194	7.2
582.616	7.15
583.038	7.11
583.46	7.1
583.882	7.08
584.303	7.04
584.725	7.01
585.147	6.96
585.568	6.93
585.99	6.92
586.411	6.89
586.833	6.87
587.254	6.86
587.675	6.84
588.096	6.81
588.518	6.77
588.939	6.75
589.36	6.74
589.781	6.74
590.202	6.73
590.623	6.69
591.043	6.67
591.464	6.65
591.885	6.61
592.305	6.59
592.726	6.58
593.147	6.58
593.567	6.56
593.987	6.55
594.408	6.53
594.828	6.5
595.248	6.5
595.669	6.49
596.089	6.48
596.509	6.45
596.929	6.43
597.349	6.42
597.769	6.4
598.189	6.38
598.608	6.35
599.028	6.33
599.448	6.32
599.867	6.28
600.287	6.25
600.706	6.22
601.126	6.2
601.545	6.18
601.965	6.16
602.384	6.13
602.803	6.1
603.222	6.08
603.641	6.05
604.061	6.02
604.48	6
604.898	5.96
605.317	5.94
605.736	5.91
606.155	5.88
606.574	5.84
606.992	5.8
607.411	5.78
607.829	5.7
608.248	5.67
608.666	5.65
609.085	5.62
609.503	5.58
609.921	5.54
610.339	5.52
610.758	5.5
611.176	5.47
611.594	5.45
612.012	5.41
612.43	5.43
612.847	5.41
613.265	5.38
613.683	5.35
614.101	5.33
614.518	5.31
614.936	5.29
615.353	5.26
615.771	5.24
616.188	5.23
616.606	5.2
617.023	5.18
617.44	5.17
617.857	5.15
618.274	5.13
618.691	5.12
619.108	5.1
619.525	5.09
619.942	5.07
620.359	5.06
620.776	5.05
621.192	5.04
621.609	5.02
622.026	5
622.442	4.98
622.859	4.97
623.275	4.97
623.691	4.95
624.108	4.94
624.524	4.92
624.94	4.9
625.356	4.89
625.772	4.89
626.188	4.89
626.604	4.88
627.02	4.88
627.436	4.88
627.852	4.86
628.268	4.87
628.683	4.86
629.099	4.85
629.514	4.86
629.93	4.84
630.345	4.83
630.761	4.82
631.176	4.81
631.591	4.79
632.007	4.78
632.422	4.78
632.837	4.76
633.252	4.76
633.667	4.75
634.082	4.73
634.497	4.72
634.911	4.7
635.326	4.69
635.741	4.67
636.155	4.65
636.57	4.64
636.984	4.6
637.399	4.57
637.813	4.53
638.228	4.49
638.642	4.48
639.056	4.44
639.47	4.41
639.884	4.36
640.298	4.33
640.712	4.29
641.126	4.26
641.54	4.23
641.954	4.21
642.368	4.19
642.781	4.16
643.195	4.13
643.609	4.1
644.022	4.08
644.436	4.06
644.849	4.03
645.262	4.02
645.676	4
646.089	3.98
646.502	3.95
646.915	3.93
647.328	3.91
647.741	3.89
648.154	3.88
648.567	3.87
648.98	3.86
649.393	3.84
649.805	3.82
650.218	3.82
650.631	3.81
651.043	3.81
651.456	3.8
651.868	3.79
652.28	3.8
652.693	3.79
653.105	3.77
653.517	3.75
653.929	3.74
654.341	3.74
654.753	3.71
655.165	3.7
655.577	3.68
655.989	3.66
656.401	3.64
656.813	3.62
657.224	3.6
657.636	3.6
658.047	3.6
658.459	3.59
658.87	3.56
659.282	3.57
659.693	3.55
660.104	3.53
660.515	3.53
660.926	3.53
661.338	3.51
661.749	3.49
662.159	3.48
662.57	3.46
662.981	3.44
663.392	3.43
663.803	3.42
664.213	3.41
664.624	3.4
665.035	3.4
665.445	3.39
665.855	3.39
666.266	3.39
666.676	3.38
667.086	3.38
667.497	3.37
667.907	3.37
668.317	3.36
668.727	3.36
669.137	3.37
669.547	3.37
669.956	3.37
670.366	3.38
670.776	3.39
671.186	3.39
671.595	3.4
672.005	3.42
672.414	3.43
672.824	3.45
673.233	3.46
673.642	3.46
674.052	3.46
674.461	3.48
674.87	3.47
675.279	3.48
675.688	3.49
676.097	3.49
676.506	3.5
676.915	3.51
677.323	3.51
677.732	3.51
678.141	3.53
678.549	3.56
678.958	3.56
679.366	3.58
679.775	3.6
680.183	3.63
680.592	3.65
681	3.66
681.408	3.69
681.816	3.7
682.224	3.74
682.632	3.77
683.04	3.78
683.448	3.8
683.856	3.83
684.264	3.87
684.671	3.9
685.079	3.94
685.487	4
685.894	4.05
686.302	4.11
686.709	4.16
687.116	4.22
687.524	4.3
687.931	4.39
688.338	4.49
688.745	4.58
689.152	4.7
689.559	4.81
689.966	4.93
690.373	5.08
690.78	5.24
691.187	5.41
691.593	5.61
692	5.8
692.407	6
692.813	6.23
693.22	6.46
693.626	6.7
694.032	6.98
694.439	7.26
694.845	7.54
695.251	7.81
695.657	8.09
696.063	8.39
696.469	8.71
696.875	9.01
697.281	9.32
697.687	9.66
698.093	10.01
698.498	10.35
698.904	10.7
699.31	11.05
699.715	11.43
700.12	11.81
700.526	12.17
700.931	12.53
701.337	12.91
701.742	13.28
702.147	13.66
702.552	14.03
702.957	14.39
703.362	14.8
703.767	15.17
704.172	15.54
704.577	15.92
704.981	16.31
705.386	16.7
705.791	17.1
706.195	17.47
706.6	17.86
707.004	18.24
707.408	18.62
707.813	18.95
708.217	19.32
708.621	19.72
709.025	20.11
709.43	20.46
709.834	20.86
710.237	21.23
710.641	21.62
711.045	21.97
711.449	22.35
711.853	22.7
712.256	23.1
712.66	23.48
713.064	23.83
713.467	24.18
713.87	24.56
714.274	24.92
714.677	25.28
715.08	25.63
715.484	26
715.887	26.36
716.29	26.72
716.693	27.04
717.096	27.39
717.499	27.73
717.901	28.08
718.304	28.42
718.707	28.7
719.109	29.04
719.512	29.36
719.915	29.64
720.317	29.98
720.719	30.29
721.122	30.61
721.524	30.93
721.926	31.21
722.328	31.49
722.731	31.77
723.133	32.08
723.535	32.37
723.937	32.65
724.338	32.92
724.74	33.16
725.142	33.35
725.544	33.59
725.945	33.8
726.347	34.02
726.748	34.24
727.15	34.44
727.551	34.66
727.952	34.84
728.354	35.05
728.755	35.25
729.156	35.45
729.557	35.7
729.958	35.9
730.359	36.09
730.76	36.26
731.161	36.46
731.562	36.66
731.962	36.76
732.363	36.92
732.763	37.08
733.164	37.24
733.564	37.35
733.965	37.49
734.365	37.63
734.766	37.74
735.166	37.86
735.566	37.95
735.966	38.01
736.366	38.13
736.766	38.23
737.166	38.31
737.566	38.41
737.966	38.51
738.365	38.58
738.765	38.66
739.165	38.73
739.564	38.82
739.964	38.9
740.363	38.99
740.763	39.08
741.162	39.16
741.561	39.25
741.96	39.29
742.36	39.37
742.759	39.4
743.158	39.46
743.557	39.54
743.955	39.61
744.354	39.68
744.753	39.74
745.152	39.82
745.55	39.87
745.949	39.9
746.348	39.98
746.746	40.02
747.144	40.09
747.543	40.15
747.941	40.21
748.339	40.29
748.737	40.34
749.136	40.41
749.534	40.47
749.932	40.5
750.33	40.53
750.727	40.54
751.125	40.56
751.523	40.58
751.921	40.6
752.318	40.6
752.716	40.59
753.113	40.57
753.511	40.55
753.908	40.51
754.305	40.51
754.703	40.54
755.1	40.55
755.497	40.57
755.894	40.57
756.291	40.55
756.688	40.54
757.085	40.53
757.482	40.55
757.878	40.57
758.275	40.58
758.672	40.59
759.068	40.59
759.465	40.58
759.861	40.57
760.258	40.54
760.654	40.55
761.05	40.56
761.447	40.56
761.843	40.57
762.239	40.57
762.635	40.56
763.031	40.59
763.427	40.57
763.822	40.57
764.218	40.58
764.614	40.61
765.01	40.62
765.405	40.62
765.801	40.62
766.196	40.61
766.592	40.61
766.987	40.61
767.382	40.59
767.778	40.6
768.173	40.61
768.568	40.6
768.963	40.62
769.358	40.65
769.753	40.65
770.148	40.63
770.542	40.63
770.937	40.62
771.332	40.64
771.726	40.63
772.121	40.59
772.515	40.59
772.91	40.59
773.304	40.59
773.699	40.56
774.093	40.54
774.487	40.57
774.881	40.6
775.275	40.63
775.669	40.61
776.063	40.61
776.457	40.62
776.851	40.6
777.245	40.6
777.638	40.59
778.032	40.59
778.425	40.6
778.819	40.6
779.212	40.57
779.606	40.56
779.999	40.55
780.392	40.57
780.786	40.57
781.179	40.6
781.572	40.58
781.965	40.59
782.358	40.57
782.751	40.6
783.143	40.59
783.536	40.63
783.929	40.64
784.322	40.64
784.714	40.63
785.107	40.62
785.499	40.61
785.891	40.64
786.284	40.64
786.676	40.69
787.068	40.68
787.46	40.68
787.852	40.67
788.245	40.65
788.636	40.68
789.028	40.68
789.42	40.68
789.812	40.69
790.204	40.69
790.595	40.7
790.987	40.68
791.378	40.68
791.77	40.71
792.161	40.73
792.553	40.73
792.944	40.73
793.335	40.76
793.726	40.76
794.117	40.75
794.508	40.77
794.899	40.75
795.29	40.75
795.681	40.74
796.072	40.75
796.463	40.7
796.853	40.71
797.244	40.7
797.634	40.67
798.025	40.7
798.415	40.72
798.806	40.68
799.196	40.68
799.586	40.69
799.976	40.7
800.366	40.71
800.756	40.73
801.146	40.74
801.536	40.75
801.926	40.77
802.316	40.8
802.706	40.8
803.095	40.84
803.485	40.86
803.874	40.86
804.264	40.91
804.653	40.87
805.043	40.87
805.432	40.84
805.821	40.83
806.21	40.86
806.599	40.91
806.988	40.91
807.377	40.9
807.766	40.91
808.155	40.92
808.544	40.9
808.933	40.94
809.321	40.98
809.71	41.03
810.098	41.05
810.487	41.04
810.875	41.02
811.264	41.04
811.652	41.05
812.04	41.07
812.428	41.09
812.816	41.12
813.204	41.11
813.592	41.1
813.98	41.1
814.368	41.1
814.756	41.08
815.144	41.13
815.531	41.1
815.919	41.1
816.306	41.08
816.694	41.11
817.081	41.11
817.469	41.11
817.856	41.14
818.243	41.14
818.63	41.17
819.017	41.19
819.404	41.15
819.791	41.2
820.178	41.24
820.565	41.28
820.952	41.25
821.339	41.25
821.725	41.3
822.112	41.3
822.498	41.31
822.885	41.31
823.271	41.33
823.657	41.36
824.044	41.31
824.43	41.32
824.816	41.29
825.202	41.29
825.588	41.3
825.974	41.3
826.36	41.3
826.746	41.33
827.132	41.28
827.517	41.29
827.903	41.29
828.289	41.29
828.674	41.25
829.06	41.27
829.445	41.29
829.83	41.31
830.216	41.28
830.601	41.25
830.986	41.21
831.371	41.25
831.756	41.21
832.141	41.22
832.526	41.21
832.911	41.24
833.295	41.26
833.68	41.23
834.065	41.22
834.449	41.21
834.834	41.21
835.218	41.22
835.603	41.19
835.987	41.19
836.371	41.17
836.755	41.16
837.139	41.14
837.524	41.13
837.908	41.1
838.291	41.06
838.675	41.06
839.059	41.05
839.443	41.03
839.827	41.02
840.21	41.04
840.594	41.04
840.977	41.02
841.361	41.04
841.744	41.03
842.127	41.03
842.511	41.01
842.894	41
843.277	41.03
843.66	41
844.043	41.01
844.426	40.99
844.809	40.96
845.191	40.95
845.574	40.91
845.957	40.89
846.339	40.89
846.722	40.89
847.104	40.89
847.487	40.87
847.869	40.88
848.252	40.87
848.634	40.87
849.016	40.91
849.398	40.91
849.78	40.9
850.162	40.89
850.544	40.9
850.926	40.92
851.307	40.96
851.689	40.95
852.071	40.95
852.452	40.96
852.834	40.96
853.215	40.95
853.597	40.96
853.978	40.96
854.359	40.97
854.741	40.95
855.122	40.95
855.503	40.93
855.884	40.92
856.265	40.91
856.646	40.89
857.026	40.89
857.407	40.83
857.788	40.86
858.169	40.87
858.549	40.88
858.93	40.91
859.31	40.91
859.69	40.87
860.071	40.89
860.451	40.89
860.831	40.9
861.211	40.91
861.591	40.97
861.971	40.91
862.351	40.94
862.731	40.92
863.111	40.91
863.491	40.93
863.87	40.94
864.25	40.94
864.629	40.93
865.009	40.92
865.388	40.91
865.768	40.89
866.147	40.92
866.526	40.91
866.905	40.92
867.284	40.91
867.663	40.89
868.042	40.89
868.421	40.91
868.8	40.93
869.179	40.92
869.558	40.93
869.936	40.95
870.315	40.96
870.693	40.96
871.072	40.96
871.45	40.98
871.828	41.01
872.207	41.03
872.585	41.02
872.963	41.02
873.341	41.04
873.719	41.05
874.097	41.02
874.475	41.03
874.853	41.02
875.23	41.02
875.608	41.03
875.986	40.98
876.363	40.98
876.741	40.99
877.118	40.97
877.495	40.96
877.873	40.96
878.25	40.95
878.627	40.94
879.004	40.93
879.381	40.93
879.758	40.89
880.135	40.93
880.512	40.94
880.889	40.94
881.265	40.96
881.642	40.94
882.019	40.93
882.395	40.95
882.772	40.93
883.148	40.95
883.524	40.96
883.901	40.96
884.277	40.95
884.653	40.95
885.029	40.96
885.405	40.93
885.781	40.95
886.157	40.95
886.532	40.96
886.908	40.97
887.284	40.97
887.659	40.98
888.035	41.01
888.411	40.98
888.786	40.97
889.161	40.97
889.537	40.99
889.912	40.96
890.287	40.94
890.662	40.92
891.037	40.87
891.412	40.86
891.787	40.81
892.162	40.76
892.536	40.73
892.911	40.72
893.286	40.68
893.66	40.67
894.035	40.66
894.409	40.65
894.784	40.62
895.158	40.63
895.532	40.59
895.906	40.6
896.281	40.58
896.655	40.57
897.029	40.53
897.402	40.5
897.776	40.48
898.15	40.47
898.524	40.48
898.898	40.44
899.271	40.43
899.645	40.45
900.018	40.44
900.392	40.46
900.765	40.49
901.138	40.5
901.511	40.53
901.884	40.55
902.258	40.53
902.631	40.54
903.003	40.56
903.376	40.58
903.749	40.58
904.122	40.59
904.495	40.59
904.867	40.59
905.24	40.59
905.612	40.58
905.985	40.56
906.357	40.56
906.729	40.56
907.102	40.57
907.474	40.56
907.846	40.57
908.218	40.54
908.59	40.56
908.962	40.57
909.334	40.58
909.705	40.59
910.077	40.59
910.449	40.62
910.82	40.61
911.192	40.61
911.563	40.62
911.935	40.61
912.306	40.63
912.677	40.66
913.048	40.64
913.419	40.64
913.79	40.61
914.161	40.62
914.532	40.61
914.903	40.62
915.274	40.63
915.645	40.65
916.015	40.68
916.386	40.63
916.756	40.59
917.127	40.62
917.497	40.59
917.868	40.63
918.238	40.66
918.608	40.68
918.978	40.68
919.348	40.66
919.718	40.63
920.088	40.61
920.458	40.67
920.828	40.71
921.198	40.72
921.567	40.75
921.937	40.74
922.306	40.7
922.676	40.69
923.045	40.65
923.415	40.67
923.784	40.67
924.153	40.67
924.522	40.62
924.891	40.59
925.26	40.55
925.629	40.54
925.998	40.52
926.367	40.56
926.736	40.55
927.104	40.59
927.473	40.58
927.842	40.57
928.21	40.56
928.578	40.53
928.947	40.51
929.315	40.51
929.683	40.51
930.051	40.51
930.42	40.46
930.788	40.41
931.156	40.39
931.523	40.36
931.891	40.3
932.259	40.28
932.627	40.23
932.994	40.2
933.362	40.11
933.729	40.08
934.097	40.03
934.464	39.99
934.831	39.96
935.199	39.94
935.566	39.86
935.933	39.95
936.3	39.84
936.667	39.89
937.034	39.84
937.401	39.83
937.767	39.74
938.134	39.71
938.501	39.67
938.867	39.63
939.234	39.59
939.6	39.61
939.967	39.47
940.333	39.56
940.699	39.61
941.065	39.66
941.431	39.62
941.798	39.7
942.163	39.72
942.529	39.76
942.895	39.88
943.261	39.92
943.627	39.94
943.992	40.06
944.358	40.07
944.723	39.97
945.089	40.01
945.454	40.12
945.82	40.12
946.185	40.14
946.55	40.27
946.915	40.16
947.28	40.17
947.645	40.21
948.01	40.1
948.375	40.14
948.74	40.13
949.104	40.09
949.469	40.06
949.834	40.08
950.198	40.03
950.562	39.99
950.927	40.03
951.291	40.01
951.655	39.93
952.02	39.9
952.384	39.89
952.748	39.92
953.112	39.95
953.476	39.92
953.839	39.9
954.203	39.83
954.567	39.75
954.931	39.73
955.294	39.74
955.658	39.72
956.021	39.76
956.385	39.79
956.748	39.77
957.111	39.74
957.474	39.73
957.837	39.72
958.2	39.76
958.563	39.76
958.926	39.73
959.289	39.69
959.652	39.77
960.015	39.74
960.377	39.66
960.74	39.66
961.102	39.64
961.465	39.69
961.827	39.59
962.189	39.6
962.552	39.61
962.914	39.6
963.276	39.59
963.638	39.5
964	39.56
964.362	39.56
964.724	39.59
965.085	39.62
965.447	39.49
965.809	39.55
966.17	39.51
966.532	39.48
966.893	39.46
967.255	39.47
967.616	39.49
967.977	39.46
968.338	39.42
968.699	39.37
969.061	39.33
969.421	39.41
969.782	39.44
970.143	39.43
970.504	39.46
970.865	39.45
971.225	39.45
971.586	39.51
971.946	39.45
972.307	39.5
972.667	39.53
973.027	39.6
973.388	39.55
973.748	39.57
974.108	39.56
974.468	39.56
974.828	39.56
975.188	39.59
975.548	39.55
975.907	39.52
976.267	39.53
976.627	39.56
976.986	39.51
977.346	39.56
977.705	39.55
978.064	39.6
978.424	39.61
978.783	39.66
979.142	39.62
979.501	39.56
979.86	39.64
980.219	39.55
980.578	39.51
980.937	39.51
981.296	39.44
981.654	39.46
982.013	39.51
982.371	39.42
982.73	39.36
983.088	39.39
983.447	39.45
983.805	39.43
984.163	39.46
984.521	39.48
984.879	39.42
985.237	39.46
985.595	39.44
985.953	39.4
986.311	39.46
986.669	39.46
987.026	39.46
987.384	39.46
987.741	39.48
988.099	39.46
988.456	39.43
988.814	39.5
989.171	39.46
989.528	39.46
989.885	39.39
990.242	39.4
990.599	39.37
990.956	39.28
991.313	39.23
991.67	39.15
992.027	39.17
992.383	39.21
992.74	39.11
993.096	39.05
993.453	39.03
993.809	39.03
994.165	38.99
994.522	39.07
994.878	39.03
995.234	39.02
995.59	38.99
995.946	38.97
996.302	38.85
996.658	38.9
997.013	38.89
997.369	38.82
997.725	38.93
998.08	38.94
998.436	39.01
998.791	39.08
999.147	39.18
999.502	39.27
999.857	39.25
1000.212	39.3
1000.567	39.39
1000.922	39.48
1001.277	39.51
1001.632	39.43
1001.987	39.49
1002.342	39.44
1002.696	39.53
1003.051	39.34
1003.406	39.24
1003.76	39.3
1004.114	39.28
1004.469	39.15
1004.823	39.05
1005.177	39.17
1005.531	39.07
1005.885	39.09
1006.239	38.95
1006.593	38.67
1006.947	38.69
1007.301	38.67
1007.655	38.78
1008.008	38.68
1008.362	38.62
1008.715	38.59
1009.069	38.52
1009.422	38.46
1009.776	38.35
1010.129	38.18
1010.482	38.35
1010.835	38.46
1011.188	38.31
1011.541	37.9
1011.894	37.89
1012.247	37.84
1012.6	37.87
1012.952	37.65
1013.305	37.57
1013.657	37.54
1014.01	37.88
1014.362	37.83
1014.715	37.53
1015.067	37.8
1015.419	37.98
1015.771	37.99
1016.123	38.08
1016.475	38.31
1016.827	38.45
1017.179	38.59
1017.531	38.57
1017.883	38.46
1018.234	38.4
1018.586	38.75
1018.938	38.5
1019.289	38.53
1019.64	38.61
1019.992	38.5
1020.343	38.33
1020.694	38.31
1021.045	38.19
1021.396	38.28
1021.747	38.26
1022.098	38.22
1022.449	38.02
1022.8	38.11
1023.151	37.89
1023.501	37.56
1023.852	37.81
1024.202	37.62
1024.553	37.47
1024.903	37.42
1025.253	37.02
1025.604	36.65
1025.954	36.56
1026.304	36.81
1026.654	36.92
1027.004	37.06
1027.354	37.09
1027.703	36.53
1028.053	36.25
1028.403	36.01
1028.753	35.98
1029.102	35.94
1029.452	35.93
1029.801	35.8
1030.15	35.45
1030.499	35.12
897.758	583.38
901.051	596.46
904.343	603.23
907.636	589.89
910.928	580.06
914.22	588.94
917.511	579.01
920.803	552.31
924.094	530.09
927.384	538.81
930.675	524.23
933.965	515.7
937.255	512.94
940.544	489.01
943.834	471.49
947.123	463.54
950.411	438.97
953.7	430.54
956.988	417.44
960.276	400.31
963.563	394.33
966.851	372.87
970.138	367.41
973.424	342.51
976.711	338.46
979.997	327.8
983.283	319.54
986.568	309.27
989.853	301.68
993.138	291.47
996.423	285.92
999.708	277.45
1002.992	278.99
1006.275	267.11
1009.559	266.02
1012.842	257.8
1016.125	248.36
1019.408	245.39
1022.69	244.84
1025.972	240.66
1029.254	235.38
1032.536	230.7
1035.817	224.01
1039.098	219.8
1042.379	217.89
1045.659	214.34
1048.939	213.57
1052.219	210.03
1055.498	205.19
1058.778	200.24
1062.057	199.32
1065.335	197.84
1068.614	194.19
1071.892	192.63
1075.17	189.52
1078.447	187.27
1081.724	185.72
1085.001	180.28
1088.278	181.16
1091.554	180.47
1094.83	179.28
1098.106	174.59
1101.382	173.89
1104.657	173.86
1107.932	172.04
1111.206	171.45
1114.481	168.85
1117.755	167.96
1121.029	168.51
1124.302	165.47
1127.575	162.73
1130.848	162.46
1134.121	161.13
1137.393	160.13
1140.665	159.51
1143.937	158.05
1147.208	155.96
1150.48	155.16
1153.75	153.78
1157.021	151.88
1160.291	151.32
1163.561	151.65
1166.831	150.04
1170.101	149.93
1173.37	149.22
1176.639	147.65
1179.907	147.55
1183.176	146.36
1186.444	146.77
1189.711	145.21
1192.979	147.19
1196.246	146.83
1199.513	146.62
1202.78	147.06
1206.046	146.5
1209.312	147.82
1212.578	148.24
1215.843	151.16
1219.108	152.54
1222.373	154.59
1225.638	157.68
1228.902	160.04
1232.166	164.99
1235.43	166.97
1238.693	171.6
1241.956	175.16
1245.219	179.17
1248.482	180.87
1251.744	179.55
1255.006	180.2
1258.268	175.75
1261.529	174.45
1264.79	170.6
1268.051	167.58
1271.312	166.19
1274.572	162.45
1277.832	159.73
1281.092	156.44
1284.351	153.24
1287.61	153.22
1290.869	152.96
1294.128	152.91
1297.386	151.53
1300.644	150.64
1303.902	149.81
1307.159	148.46
1310.416	149.73
1313.673	150.81
1316.93	152.51
1320.186	155.08
1323.442	156.5
1326.697	158.75
1329.953	160.08
1333.208	165.89
1336.463	172.24
1339.717	175.47
1342.972	183.9
1346.226	188.93
1349.479	190.55
1352.733	198.8
1355.986	201.5
1359.238	206.06
1362.491	207.84
1365.743	215.51
1368.995	215.64
1372.247	215.46
1375.498	214.93
1378.749	222.23
1382	220.99
1385.251	219.86
1388.501	218.48
1391.751	221.57
1395	220.51
1398.25	222.84
1401.499	220.33
1404.748	220.4
1407.996	215.47
1411.244	214.87
1414.492	210.47
1417.74	204.94
1420.987	201
1424.234	195.94
1427.481	190.02
1430.728	184.04
1433.974	176.27
1437.22	172.15
1440.465	165.32
1443.711	160.64
1446.956	155.4
1450.201	149.58
1453.445	143.45
1456.689	138.9
1459.933	135.15
1463.177	128.95
1466.42	126.59
1469.663	123.16
1472.906	119.05
1476.148	116.43
1479.391	113.8
1482.633	112.05
1485.874	110.23
1489.115	109.04
1492.356	106.59
1495.597	105.09
1498.838	105.38
1502.078	104.16
1505.318	104.07
1508.557	103.13
1511.797	101.89
1515.036	101.55
1518.274	101.41
1521.513	99.59
1524.751	99.26
1527.989	100.68
1531.227	100.2
1534.464	99.35
1537.701	98.76
1540.938	98.24
1544.174	98.51
1547.41	99.35
1550.646	99.08
1553.882	98.97
1557.117	98.9
1560.352	98.53
1563.587	97.93
1566.821	97.73
1570.055	97.53
1573.289	97.61
1576.523	97.46
1579.756	97.21
1582.989	96.5
1586.222	96.47
1589.454	96.17
1592.686	96.41
1595.918	96.14
1599.15	95.64
1602.381	96.13
1605.612	95.88
1608.843	95.7
1612.073	96.14
1615.303	95.65
1618.533	96.16
1621.762	96.38
1624.992	96.23
1628.221	96.05
1631.449	96.86
1634.678	96.84
1637.906	97.01
1641.134	97.26
1644.361	97.28
1647.588	97.89
1650.815	98.66
1654.042	98.1
1657.269	97.56
1660.495	98.58
1663.72	98.55
1666.946	98.37
1670.171	98.94
1673.396	99.52
1676.621	99.66
1679.845	99.67
1683.069	98.87
1686.293	98.58
1689.517	99.34
1692.74	99.83
1695.963	99.45
1699.185	100.27
1702.408	100.18
1705.63	100.17
1708.852	100.49
1712.073	100.14
1715.294	100.53
1718.515	100.75
1721.736	101.07
1724.956	101.47
1728.176	101.21
1731.396	101.9
1734.616	101.34
1737.835	101.55
1741.054	101.26
1744.272	101.22
1747.491	101.09
1750.709	101.52
1753.927	101.96
1757.144	102.36
1760.361	101.79
1763.578	102.83
1766.795	102.92
1770.011	103.41
1773.227	103.95
1776.443	105.19
1779.658	104.31
1782.874	106.08
1786.089	105.79
1789.303	105.72
1792.518	106.15
1795.732	107.11
1798.945	107.44
1802.159	107.63
1805.372	108.74
1808.585	109.7
1811.797	110.4
1815.01	111.91
1818.222	111.75
1821.434	113.56
1824.645	114.35
1827.856	116.24
1831.067	116.45
1834.278	118.19
1837.488	119.19
1840.698	120.26
1843.908	119.61
1847.117	120.79
1850.326	121.7
1853.535	123.54
1856.744	124.02
1859.952	125.32
1863.16	125.31
1866.368	124.97
1869.575	124.72
1872.782	124.34
1875.989	123.2
1879.196	123.12
1882.402	121.59
1885.608	121.92
1888.814	120.72
1892.019	121.82
1895.224	120.1
1898.429	118.91
1901.634	119.83
1904.838	120.72
1908.042	121.22
1911.246	120.91
1914.449	121.67
1917.652	121.23
1920.855	121.15
1924.058	119.88
1927.26	119
1930.462	119.62
1933.664	121.35
1936.865	121.2
1940.066	118.84
1943.267	117.07
1946.467	118.98
1949.668	119.08
1952.868	120.72
1956.067	120.58
1959.267	121.78
1962.466	122.01
1965.665	123.77
1968.863	122.88
1972.061	124.96
1975.259	126.61
1978.457	130.36
1981.654	130.25
1984.852	131.24
1988.048	132.04
1991.245	134.24
1994.441	136.23
1997.637	138.89
2000.833	141.53
2004.028	144.35
2007.223	147
2010.418	151.44
2013.613	156.8
2016.807	161.31
2020.001	164.56
2023.194	168.9
2026.388	174.1
2029.581	183.92
2032.774	189.96
2035.966	195.67
2039.158	200.26
2042.35	202.56
2045.542	206.51
2048.733	213.96
2051.924	215.9
2055.115	221.16
2058.306	223.61
2061.496	227.63
2064.686	228.29
2067.875	225.43
2071.065	226.82
2074.254	227.92
2077.442	236.42
2080.631	237.14
2083.819	236.66
2087.007	242.02
2090.195	245.24
2093.382	246.1
2096.569	247.2
2099.756	248.01
2102.942	255.53
2106.128	260.78
2109.314	262.42
2112.5	261.48
2115.685	261.36
2118.87	261.82
2122.055	264.64
2125.239	267.76
2128.424	272.54
2131.608	272.24
2134.791	274.32
2137.974	273.97
2141.157	276.75
2144.34	279.5
2147.523	286.63
2150.705	293.89
2153.887	290.75
2157.068	292.62
2160.25	294.97
2163.431	295.83
2166.611	297.83
2169.792	303.45
2172.972	307.52
2176.152	307.59
2179.331	313.93
2182.511	311.38
2185.69	315.16
2188.868	330.92
2192.047	338.11
2195.225	344.91
2198.403	346.33
2201.58	344.35
2204.758	357.17
2207.935	360.35
2211.111	367.58
2214.288	370.11
2217.464	374.4
2220.64	375.91
2223.815	373.82
2226.991	369.6
2230.166	371.15
2233.34	384.58
2236.515	398.29
2239.689	387.37
2242.863	395.05
2246.036	391.68
2249.209	402.14
2252.382	399.25
2255.555	417.13
2258.727	419.72
2261.9	430.84
2265.071	438.16
2268.243	434.15
2271.414	445.06
2274.585	458.8
2277.756	457.88
2280.926	474.49
2284.096	476.27
2287.266	481.26
2290.436	469.05
2293.605	482
2296.774	499.7
2299.942	501.94
2303.111	513.98
2306.279	522.86
2309.447	523.3
2312.614	525.44
2315.781	537.99
2318.948	540.3
2322.115	551.85
2325.281	582.68
2328.447	574.06
2331.613	578.23
2334.779	581.19
2337.944	595.05
2341.109	603.97
2344.274	612.59
2347.438	624.8
2350.602	635.2
2353.766	677.84
2356.929	678.53
2360.092	690.19
2363.255	697.47
2366.418	705.3
2369.58	719.29
2372.742	724.46
2375.904	720
2379.066	739.94
2382.227	787.52
2385.388	785.48
2388.548	750.18
2391.709	741.92
2394.869	759.29
2398.029	762.29
2401.188	763.09
2404.347	786
2407.506	807.72
2410.665	785.3
2413.823	783.96
2416.981	785.13
2420.139	749.79
2423.296	804.79
2426.453	859.51
2429.61	818.31
2432.767	868.86
2435.923	899.24
2439.079	873.5
2442.235	892.32
2445.391	906.05
2448.546	899.16
2451.701	947.76
2454.855	1009.86
2458.009	894.16
2461.163	904.99
2464.317	924.23
2467.471	906.78
2470.624	938.1
2473.777	917.99
2476.929	891.75
2480.082	956.69
2483.234	1004.6
2486.385	1014.27
2489.537	1038.9
2492.688	1140.87
2495.839	1126.02
2498.989	1156.98
2502.14	1158.14
2505.29	1104.24
2508.439	1222.05
2511.589	1246.91
2514.738	1212.23
2517.887	1194.92
2521.035	1123.19
2524.183	1111.84
2527.331	1102.06
2530.479	1075.15
2533.627	1092.51
