Data from C_3_hir_il_4n_Splice17_09.txt Node
Date: Sat Feb 29 15:11:20 EST 2020
User: sa697716
Spectrometer: FLMS03696
Trigger mode: 0
Integration Time (sec): 3.180400E-1
Scans to average: 20
Electric dark correction enabled: true
Nonlinearity correction enabled: true
Boxcar width: 5
XAxis mode: Wavelengths
Number of Pixels in Spectrum: 2048
>>>>>Begin Spectral Data<<<<<
187.83	136.62
188.298	140.02
188.766	114.61
189.233	111.13
189.701	117.86
190.169	116.32
190.636	121.76
191.104	101.73
191.571	115.33
192.039	25.34
192.506	-29.69
192.974	2155.04
193.441	31.59
193.908	23.67
194.375	8.19
194.842	87.26
195.31	39.96
195.777	19.46
196.244	47.65
196.711	73.3
197.177	76.37
197.644	79.59
198.111	81.36
198.578	82.07
199.045	82.7
199.511	82.71
199.978	82.59
200.445	82.91
200.911	83.57
201.378	84
201.844	84.8
202.31	85.45
202.777	85.77
203.243	86.05
203.709	85.75
204.176	85.51
204.642	85.37
205.108	85.54
205.574	85.88
206.04	85.34
206.506	84.74
206.972	83.63
207.438	82.73
207.903	82.27
208.369	80.91
208.835	80.36
209.301	79.61
209.766	78.36
210.232	76.85
210.697	75.08
211.163	73.57
211.628	72.21
212.094	71.21
212.559	70.11
213.024	68.59
213.49	67.18
213.955	65.7
214.42	63.83
214.885	62.09
215.35	59.92
215.815	57.44
216.28	54.54
216.745	51.17
217.21	47.53
217.675	44.04
218.14	40.86
218.604	38.07
219.069	35.75
219.534	33.7
219.998	31.93
220.463	30.51
220.927	29.21
221.392	28.06
221.856	27.17
222.32	26.36
222.785	25.69
223.249	25.07
223.713	24.56
224.177	24
224.642	23.57
225.106	23.13
225.57	22.7
226.034	22.31
226.497	21.93
226.961	21.51
227.425	21.14
227.889	20.77
228.353	20.43
228.816	20.11
229.28	19.78
229.744	19.48
230.207	19.2
230.671	18.91
231.134	18.64
231.597	18.39
232.061	18.15
232.524	17.92
232.987	17.7
233.45	17.46
233.914	17.22
234.377	17.03
234.84	16.83
235.303	16.64
235.766	16.47
236.229	16.3
236.691	16.14
237.154	16.01
237.617	15.88
238.08	15.74
238.542	15.61
239.005	15.5
239.468	15.36
239.93	15.25
240.393	15.12
240.855	14.97
241.317	14.86
241.78	14.74
242.242	14.58
242.704	14.46
243.166	14.33
243.629	14.2
244.091	14.08
244.553	13.96
245.015	13.83
245.477	13.71
245.939	13.61
246.4	13.48
246.862	13.36
247.324	13.3
247.786	13.18
248.247	13.09
248.709	12.98
249.17	12.89
249.632	12.79
250.093	12.7
250.555	12.61
251.016	12.52
251.477	12.43
251.939	12.36
252.4	12.26
252.861	12.18
253.322	12.1
253.783	12.06
254.244	11.99
254.705	11.92
255.166	11.87
255.627	11.81
256.088	11.73
256.549	11.68
257.009	11.61
257.47	11.55
257.931	11.48
258.391	11.4
258.852	11.3
259.312	11.22
259.773	11.14
260.233	11.05
260.694	10.98
261.154	10.91
261.614	10.83
262.074	10.78
262.534	10.71
262.994	10.66
263.455	10.6
263.915	10.55
264.374	10.49
264.834	10.43
265.294	10.39
265.754	10.33
266.214	10.28
266.673	10.23
267.133	10.18
267.593	10.13
268.052	10.08
268.512	10.04
268.971	10.01
269.431	9.99
269.89	9.96
270.349	9.93
270.809	9.9
271.268	9.87
271.727	9.83
272.186	9.8
272.645	9.77
273.104	9.73
273.563	9.71
274.022	9.68
274.481	9.63
274.94	9.6
275.399	9.56
275.857	9.53
276.316	9.5
276.775	9.47
277.233	9.44
277.692	9.42
278.15	9.39
278.609	9.35
279.067	9.32
279.525	9.29
279.984	9.26
280.442	9.24
280.9	9.22
281.358	9.19
281.816	9.17
282.274	9.15
282.732	9.14
283.19	9.11
283.648	9.1
284.106	9.07
284.564	9.07
285.021	9.06
285.479	9.04
285.937	9.03
286.394	9.01
286.852	9
287.309	8.98
287.767	8.96
288.224	8.95
288.682	8.92
289.139	8.91
289.596	8.87
290.053	8.84
290.511	8.79
290.968	8.74
291.425	8.7
291.882	8.67
292.339	8.63
292.796	8.59
293.252	8.55
293.709	8.52
294.166	8.48
294.623	8.44
295.079	8.42
295.536	8.4
295.992	8.37
296.449	8.35
296.905	8.32
297.362	8.29
297.818	8.27
298.274	8.24
298.731	8.22
299.187	8.2
299.643	8.17
300.099	8.15
300.555	8.13
301.011	8.11
301.467	8.08
301.923	8.06
302.379	8.04
302.835	8.02
303.291	8.01
303.746	7.98
304.202	7.96
304.658	7.95
305.113	7.93
305.569	7.93
306.024	7.92
306.479	7.91
306.935	7.91
307.39	7.91
307.845	7.91
308.301	7.9
308.756	7.9
309.211	7.91
309.666	7.9
310.121	7.89
310.576	7.88
311.031	7.87
311.486	7.87
311.94	7.86
312.395	7.85
312.85	7.84
313.305	7.83
313.759	7.82
314.214	7.81
314.668	7.8
315.123	7.8
315.577	7.8
316.032	7.79
316.486	7.77
316.94	7.77
317.394	7.75
317.849	7.74
318.303	7.74
318.757	7.71
319.211	7.68
319.665	7.67
320.119	7.64
320.572	7.63
321.026	7.6
321.48	7.59
321.934	7.57
322.387	7.55
322.841	7.53
323.295	7.5
323.748	7.49
324.202	7.49
324.655	7.48
325.108	7.46
325.562	7.43
326.015	7.43
326.468	7.41
326.921	7.39
327.374	7.38
327.827	7.37
328.28	7.35
328.733	7.34
329.186	7.31
329.639	7.31
330.092	7.31
330.545	7.32
330.997	7.31
331.45	7.31
331.903	7.3
332.355	7.3
332.808	7.31
333.26	7.31
333.713	7.32
334.165	7.33
334.617	7.32
335.069	7.32
335.522	7.31
335.974	7.32
336.426	7.32
336.878	7.32
337.33	7.32
337.782	7.31
338.234	7.32
338.686	7.3
339.137	7.29
339.589	7.29
340.041	7.28
340.493	7.25
340.944	7.24
341.396	7.22
341.847	7.19
342.299	7.17
342.75	7.13
343.201	7.09
343.653	7.07
344.104	7.03
344.555	7
345.006	6.98
345.457	6.96
345.908	6.94
346.359	6.93
346.81	6.92
347.261	6.9
347.712	6.9
348.163	6.89
348.613	6.89
349.064	6.87
349.515	6.86
349.965	6.85
350.416	6.84
350.866	6.83
351.317	6.82
351.767	6.8
352.217	6.79
352.668	6.78
353.118	6.78
353.568	6.78
354.018	6.79
354.468	6.78
354.918	6.78
355.368	6.79
355.818	6.78
356.268	6.77
356.718	6.78
357.168	6.78
357.617	6.78
358.067	6.77
358.517	6.76
358.966	6.76
359.416	6.78
359.865	6.78
360.315	6.77
360.764	6.76
361.213	6.75
361.663	6.76
362.112	6.75
362.561	6.75
363.01	6.76
363.459	6.75
363.908	6.74
364.357	6.72
364.806	6.72
365.255	6.73
365.703	6.73
366.152	6.74
366.601	6.73
367.05	6.74
367.498	6.75
367.947	6.74
368.395	6.74
368.844	6.74
369.292	6.74
369.74	6.74
370.189	6.73
370.637	6.74
371.085	6.74
371.533	6.73
371.981	6.74
372.429	6.72
372.877	6.71
373.325	6.7
373.773	6.69
374.221	6.69
374.669	6.68
375.116	6.67
375.564	6.67
376.012	6.66
376.459	6.66
376.907	6.66
377.354	6.66
377.801	6.67
378.249	6.69
378.696	6.7
379.143	6.71
379.591	6.72
380.038	6.73
380.485	6.74
380.932	6.74
381.379	6.74
381.826	6.74
382.273	6.76
382.72	6.76
383.166	6.75
383.613	6.74
384.06	6.74
384.506	6.74
384.953	6.73
385.4	6.73
385.846	6.72
386.292	6.72
386.739	6.72
387.185	6.73
387.631	6.74
388.078	6.76
388.524	6.76
388.97	6.77
389.416	6.79
389.862	6.8
390.308	6.81
390.754	6.84
391.2	6.86
391.645	6.88
392.091	6.88
392.537	6.89
392.983	6.91
393.428	6.94
393.874	6.95
394.319	6.96
394.765	6.98
395.21	6.98
395.655	7
396.101	7.02
396.546	7.04
396.991	7.06
397.436	7.07
397.881	7.09
398.326	7.13
398.771	7.16
399.216	7.19
399.661	7.22
400.106	7.27
400.551	7.27
400.995	7.27
401.44	7.28
401.885	7.29
402.329	7.3
402.774	7.3
403.218	7.31
403.663	7.32
404.107	7.33
404.551	7.36
404.995	7.36
405.44	7.38
405.884	7.41
406.328	7.44
406.772	7.48
407.216	7.52
407.66	7.55
408.104	7.58
408.547	7.61
408.991	7.62
409.435	7.62
409.879	7.65
410.322	7.69
410.766	7.72
411.209	7.75
411.653	7.77
412.096	7.78
412.54	7.79
412.983	7.81
413.426	7.85
413.869	7.88
414.312	7.94
414.756	7.99
415.199	8.03
415.642	8.09
416.085	8.12
416.527	8.15
416.97	8.2
417.413	8.22
417.856	8.23
418.298	8.21
418.741	8.21
419.184	8.2
419.626	8.19
420.069	8.2
420.511	8.18
420.953	8.17
421.396	8.17
421.838	8.19
422.28	8.22
422.722	8.25
423.164	8.29
423.606	8.34
424.048	8.34
424.49	8.36
424.932	8.37
425.374	8.39
425.816	8.38
426.258	8.36
426.699	8.33
427.141	8.3
427.582	8.29
428.024	8.3
428.465	8.31
428.907	8.35
429.348	8.36
429.789	8.37
430.231	8.38
430.672	8.44
431.113	8.48
431.554	8.54
431.995	8.58
432.436	8.58
432.877	8.59
433.318	8.59
433.759	8.58
434.2	8.59
434.64	8.6
435.081	8.62
435.522	8.64
435.962	8.66
436.403	8.69
436.843	8.7
437.284	8.75
437.724	8.77
438.164	8.79
438.604	8.81
439.045	8.82
439.485	8.84
439.925	8.83
440.365	8.82
440.805	8.82
441.245	8.78
441.685	8.81
442.125	8.8
442.564	8.83
443.004	8.86
443.444	8.88
443.883	8.9
444.323	8.9
444.762	8.94
445.202	9
445.641	9.02
446.081	9.08
446.52	9.07
446.959	9.11
447.398	9.13
447.837	9.17
448.276	9.18
448.716	9.2
449.154	9.25
449.593	9.26
450.032	9.24
450.471	9.24
450.91	9.23
451.349	9.25
451.787	9.21
452.226	9.18
452.664	9.13
453.103	9.1
453.541	9.09
453.98	9.04
454.418	9.01
454.856	8.98
455.295	8.95
455.733	8.92
456.171	8.89
456.609	8.9
457.047	8.87
457.485	8.86
457.923	8.86
458.361	8.83
458.798	8.83
459.236	8.82
459.674	8.81
460.111	8.81
460.549	8.79
460.987	8.78
461.424	8.76
461.862	8.77
462.299	8.76
462.736	8.75
463.173	8.75
463.611	8.73
464.048	8.71
464.485	8.71
464.922	8.7
465.359	8.71
465.796	8.7
466.233	8.7
466.67	8.7
467.106	8.7
467.543	8.7
467.98	8.72
468.416	8.73
468.853	8.74
469.29	8.75
469.726	8.76
470.162	8.75
470.599	8.77
471.035	8.77
471.471	8.76
471.907	8.75
472.344	8.75
472.78	8.73
473.216	8.72
473.652	8.7
474.088	8.72
474.523	8.69
474.959	8.69
475.395	8.67
475.831	8.67
476.266	8.65
476.702	8.62
477.138	8.6
477.573	8.58
478.008	8.56
478.444	8.55
478.879	8.51
479.314	8.5
479.75	8.48
480.185	8.46
480.62	8.43
481.055	8.43
481.49	8.42
481.925	8.4
482.36	8.37
482.795	8.35
483.229	8.33
483.664	8.31
484.099	8.29
484.534	8.28
484.968	8.26
485.403	8.24
485.837	8.23
486.271	8.22
486.706	8.21
487.14	8.21
487.574	8.21
488.009	8.22
488.443	8.22
488.877	8.22
489.311	8.22
489.745	8.23
490.179	8.23
490.613	8.22
491.046	8.22
491.48	8.24
491.914	8.25
492.348	8.25
492.781	8.24
493.215	8.27
493.648	8.28
494.082	8.3
494.515	8.31
494.948	8.33
495.382	8.36
495.815	8.37
496.248	8.39
496.681	8.4
497.114	8.43
497.547	8.46
497.98	8.48
498.413	8.5
498.846	8.53
499.279	8.58
499.711	8.61
500.144	8.65
500.577	8.69
501.009	8.74
501.442	8.79
501.874	8.84
502.306	8.9
502.739	8.96
503.171	9.02
503.603	9.1
504.036	9.16
504.468	9.25
504.9	9.33
505.332	9.42
505.764	9.52
506.196	9.62
506.627	9.74
507.059	9.85
507.491	9.97
507.923	10.09
508.354	10.21
508.786	10.35
509.217	10.46
509.649	10.61
510.08	10.76
510.512	10.91
510.943	11.07
511.374	11.22
511.805	11.39
512.237	11.57
512.668	11.75
513.099	11.93
513.53	12.13
513.961	12.36
514.391	12.56
514.822	12.76
515.253	12.99
515.684	13.19
516.114	13.43
516.545	13.66
516.975	13.89
517.406	14.14
517.836	14.38
518.267	14.62
518.697	14.86
519.127	15.11
519.558	15.36
519.988	15.61
520.418	15.87
520.848	16.1
521.278	16.34
521.708	16.45
522.138	16.68
522.567	16.91
522.997	17.14
523.427	17.38
523.857	17.6
524.286	17.83
524.716	18.06
525.145	18.28
525.575	18.5
526.004	18.72
526.433	19.05
526.863	19.28
527.292	19.48
527.721	19.68
528.15	19.85
528.579	20.04
529.008	20.19
529.437	20.34
529.866	20.48
530.295	20.63
530.724	20.77
531.152	20.92
531.581	21.04
532.01	21.16
532.438	21.27
532.867	21.39
533.295	21.48
533.723	21.6
534.152	21.7
534.58	21.78
535.008	21.84
535.436	21.91
535.865	21.96
536.293	22.04
536.721	22.11
537.149	22.15
537.576	22.21
538.004	22.25
538.432	22.28
538.86	22.32
539.287	22.37
539.715	22.41
540.143	22.46
540.57	22.49
540.998	22.51
541.425	22.54
541.852	22.57
542.28	22.58
542.707	22.62
543.134	22.65
543.561	22.67
543.988	22.69
544.415	22.73
544.842	22.75
545.269	22.79
545.696	22.82
546.123	22.86
546.549	22.88
546.976	22.93
547.403	22.95
547.829	23
548.256	23.03
548.682	23.06
549.108	23.09
549.535	23.12
549.961	23.13
550.387	23.13
550.813	23.13
551.24	23.14
551.666	23.15
552.092	23.16
552.518	23.14
552.943	23.12
553.369	23.11
553.795	23.09
554.221	23.06
554.646	23.04
555.072	23.01
555.498	22.96
555.923	22.91
556.349	22.84
556.774	22.77
557.199	22.72
557.625	22.67
558.05	22.59
558.475	22.51
558.9	22.44
559.325	22.34
559.75	22.26
560.175	22.16
560.6	22.08
561.025	21.96
561.449	21.84
561.874	21.7
562.299	21.57
562.723	21.43
563.148	21.28
563.572	21.13
563.997	20.99
564.421	20.83
564.846	20.69
565.27	20.53
565.694	20.38
566.118	20.23
566.542	20.09
566.966	19.93
567.39	19.76
567.814	19.57
568.238	19.4
568.662	19.24
569.086	19.06
569.509	18.89
569.933	18.71
570.357	18.52
570.78	18.36
571.204	18.19
571.627	18.04
572.05	17.92
572.474	17.78
572.897	17.63
573.32	17.49
573.743	17.35
574.166	17.22
574.589	17.11
575.012	17.01
575.435	16.89
575.858	16.8
576.281	16.69
576.704	16.58
577.126	16.48
577.549	16.39
577.972	16.3
578.394	16.22
578.817	16.13
579.239	16.05
579.661	15.98
580.084	15.9
580.506	15.82
580.928	15.73
581.35	15.66
581.772	15.6
582.194	15.52
582.616	15.46
583.038	15.4
583.46	15.36
583.882	15.3
584.303	15.23
584.725	15.18
585.147	15.11
585.568	15.04
585.99	15
586.411	14.95
586.833	14.92
587.254	14.87
587.675	14.81
588.096	14.75
588.518	14.7
588.939	14.67
589.36	14.61
589.781	14.57
590.202	14.54
590.623	14.48
591.043	14.42
591.464	14.38
591.885	14.35
592.305	14.32
592.726	14.28
593.147	14.26
593.567	14.22
593.987	14.21
594.408	14.19
594.828	14.16
595.248	14.13
595.669	14.12
596.089	14.08
596.509	14.03
596.929	13.99
597.349	13.96
597.769	13.92
598.189	13.89
598.608	13.86
599.028	13.81
599.448	13.77
599.867	13.71
600.287	13.67
600.706	13.64
601.126	13.59
601.545	13.55
601.965	13.49
602.384	13.45
602.803	13.38
603.222	13.32
603.641	13.28
604.061	13.23
604.48	13.19
604.898	13.12
605.317	13.06
605.736	13.02
606.155	12.96
606.574	12.9
606.992	12.84
607.411	12.81
607.829	12.71
608.248	12.66
608.666	12.6
609.085	12.54
609.503	12.48
609.921	12.42
610.339	12.37
610.758	12.31
611.176	12.26
611.594	12.18
612.012	12.12
612.43	12.1
612.847	12.04
613.265	11.99
613.683	11.94
614.101	11.87
614.518	11.82
614.936	11.76
615.353	11.71
615.771	11.66
616.188	11.62
616.606	11.56
617.023	11.51
617.44	11.46
617.857	11.42
618.274	11.37
618.691	11.35
619.108	11.32
619.525	11.29
619.942	11.27
620.359	11.25
620.776	11.22
621.192	11.2
621.609	11.18
622.026	11.17
622.442	11.15
622.859	11.13
623.275	11.11
623.691	11.09
624.108	11.07
624.524	11.05
624.94	11.02
625.356	11.01
625.772	11.01
626.188	11
626.604	10.97
627.02	10.95
627.436	10.95
627.852	10.93
628.268	10.91
628.683	10.9
629.099	10.9
629.514	10.88
629.93	10.86
630.345	10.83
630.761	10.8
631.176	10.79
631.591	10.76
632.007	10.74
632.422	10.72
632.837	10.69
633.252	10.67
633.667	10.61
634.082	10.58
634.497	10.53
634.911	10.48
635.326	10.43
635.741	10.37
636.155	10.32
636.57	10.26
636.984	10.18
637.399	10.11
637.813	10.02
638.228	9.95
638.642	9.87
639.056	9.82
639.47	9.74
639.884	9.67
640.298	9.6
640.712	9.53
641.126	9.45
641.54	9.39
641.954	9.34
642.368	9.28
642.781	9.23
643.195	9.16
643.609	9.11
644.022	9.06
644.436	9.01
644.849	8.95
645.262	8.91
645.676	8.86
646.089	8.81
646.502	8.76
646.915	8.72
647.328	8.68
647.741	8.65
648.154	8.62
648.567	8.59
648.98	8.56
649.393	8.54
649.805	8.52
650.218	8.5
650.631	8.49
651.043	8.47
651.456	8.47
651.868	8.45
652.28	8.44
652.693	8.42
653.105	8.39
653.517	8.36
653.929	8.35
654.341	8.34
654.753	8.32
655.165	8.3
655.577	8.25
655.989	8.2
656.401	8.17
656.813	8.14
657.224	8.12
657.636	8.1
658.047	8.07
658.459	8.03
658.87	7.99
659.282	7.97
659.693	7.93
660.104	7.92
660.515	7.9
660.926	7.88
661.338	7.86
661.749	7.82
662.159	7.8
662.57	7.77
662.981	7.76
663.392	7.74
663.803	7.72
664.213	7.71
664.624	7.69
665.035	7.68
665.445	7.68
665.855	7.68
666.266	7.69
666.676	7.68
667.086	7.68
667.497	7.67
667.907	7.67
668.317	7.67
668.727	7.68
669.137	7.67
669.547	7.69
669.956	7.68
670.366	7.69
670.776	7.69
671.186	7.7
671.595	7.72
672.005	7.74
672.414	7.76
672.824	7.77
673.233	7.79
673.642	7.8
674.052	7.81
674.461	7.84
674.87	7.86
675.279	7.87
675.688	7.89
676.097	7.92
676.506	7.94
676.915	7.98
677.323	8.01
677.732	8.04
678.141	8.08
678.549	8.12
678.958	8.15
679.366	8.18
679.775	8.21
680.183	8.26
680.592	8.3
681	8.34
681.408	8.38
681.816	8.42
682.224	8.45
682.632	8.49
683.04	8.56
683.448	8.61
683.856	8.68
684.264	8.76
684.671	8.83
685.079	8.91
685.487	9.01
685.894	9.13
686.302	9.25
686.709	9.4
687.116	9.56
687.524	9.72
687.931	9.91
688.338	10.14
688.745	10.36
689.152	10.61
689.559	10.88
689.966	11.19
690.373	11.5
690.78	11.84
691.187	12.22
691.593	12.61
692	13.03
692.407	13.44
692.813	13.88
693.22	14.35
693.626	14.84
694.032	15.36
694.439	15.9
694.845	16.45
695.251	17.02
695.657	17.58
696.063	18.16
696.469	18.75
696.875	19.35
697.281	19.92
697.687	20.53
698.093	21.12
698.498	21.73
698.904	22.3
699.31	22.89
699.715	23.49
700.12	24.08
700.526	24.69
700.931	25.27
701.337	25.87
701.742	26.46
702.147	27.05
702.552	27.66
702.957	28.24
703.362	28.86
703.767	29.45
704.172	30.02
704.577	30.6
704.981	31.18
705.386	31.75
705.791	32.36
706.195	32.94
706.6	33.51
707.004	34.05
707.408	34.62
707.813	35.13
708.217	35.66
708.621	36.21
709.025	36.75
709.43	37.27
709.834	37.8
710.237	38.29
710.641	38.81
711.045	39.32
711.449	39.82
711.853	40.34
712.256	40.87
712.66	41.37
713.064	41.85
713.467	42.36
713.87	42.85
714.274	43.34
714.677	43.86
715.08	44.32
715.484	44.8
715.887	45.31
716.29	45.76
716.693	46.23
717.096	46.7
717.499	47.17
717.901	47.59
718.304	48.03
718.707	48.46
719.109	48.85
719.512	49.29
719.915	49.7
720.317	50.09
720.719	50.5
721.122	50.86
721.524	51.25
721.926	51.64
722.328	52.03
722.731	52.39
723.133	52.71
723.535	53.07
723.937	53.37
724.338	53.67
724.74	53.97
725.142	54.2
725.544	54.49
725.945	54.77
726.347	55.06
726.748	55.29
727.15	55.54
727.551	55.82
727.952	56.04
728.354	56.29
728.755	56.55
729.156	56.78
729.557	57.05
729.958	57.28
730.359	57.48
730.76	57.61
731.161	57.82
731.562	58.03
731.962	58.22
732.363	58.42
732.763	58.6
733.164	58.74
733.564	58.87
733.965	59.01
734.365	59.13
734.766	59.24
735.166	59.37
735.566	59.46
735.966	59.54
736.366	59.6
736.766	59.68
737.166	59.77
737.566	59.88
737.966	60.03
738.365	60.17
738.765	60.3
739.165	60.39
739.564	60.5
739.964	60.61
740.363	60.71
740.763	60.79
741.162	60.86
741.561	60.97
741.96	61.03
742.36	61.08
742.759	61.1
743.158	61.12
743.557	61.2
743.955	61.32
744.354	61.38
744.753	61.47
745.152	61.54
745.55	61.64
745.949	61.67
746.348	61.72
746.746	61.75
747.144	61.84
747.543	61.92
747.941	62.01
748.339	62.04
748.737	62.1
749.136	62.13
749.534	62.19
749.932	62.22
750.33	62.27
750.727	62.35
751.125	62.39
751.523	62.38
751.921	62.4
752.318	62.4
752.716	62.38
753.113	62.38
753.511	62.34
753.908	62.33
754.305	62.29
754.703	62.24
755.1	62.18
755.497	62.16
755.894	62.18
756.291	62.18
756.688	62.17
757.085	62.16
757.482	62.16
757.878	62.22
758.275	62.2
758.672	62.23
759.068	62.29
759.465	62.33
759.861	62.33
760.258	62.26
760.654	62.24
761.05	62.25
761.447	62.25
761.843	62.22
762.239	62.19
762.635	62.18
763.031	62.19
763.427	62.18
763.822	62.13
764.218	62.14
764.614	62.19
765.01	62.19
765.405	62.18
765.801	62.2
766.196	62.19
766.592	62.22
766.987	62.26
767.382	62.28
767.778	62.26
768.173	62.31
768.568	62.29
768.963	62.27
769.358	62.28
769.753	62.31
770.148	62.32
770.542	62.34
770.937	62.28
771.332	62.27
771.726	62.22
772.121	62.21
772.515	62.21
772.91	62.23
773.304	62.24
773.699	62.23
774.093	62.22
774.487	62.21
774.881	62.22
775.275	62.25
775.669	62.29
776.063	62.28
776.457	62.25
776.851	62.21
777.245	62.24
777.638	62.25
778.032	62.28
778.425	62.29
778.819	62.3
779.212	62.27
779.606	62.28
779.999	62.24
780.392	62.25
780.786	62.34
781.179	62.38
781.572	62.36
781.965	62.36
782.358	62.33
782.751	62.33
783.143	62.34
783.536	62.37
783.929	62.39
784.322	62.4
784.714	62.37
785.107	62.37
785.499	62.38
785.891	62.4
786.284	62.37
786.676	62.4
787.068	62.37
787.46	62.36
787.852	62.37
788.245	62.36
788.636	62.37
789.028	62.39
789.42	62.35
789.812	62.33
790.204	62.3
790.595	62.32
790.987	62.34
791.378	62.37
791.77	62.4
792.161	62.41
792.553	62.44
792.944	62.48
793.335	62.51
793.726	62.51
794.117	62.52
794.508	62.54
794.899	62.54
795.29	62.53
795.681	62.52
796.072	62.5
796.463	62.49
796.853	62.46
797.244	62.43
797.634	62.43
798.025	62.47
798.415	62.48
798.806	62.53
799.196	62.57
799.586	62.58
799.976	62.63
800.366	62.68
800.756	62.7
801.146	62.73
801.536	62.77
801.926	62.81
802.316	62.81
802.706	62.84
803.095	62.87
803.485	62.9
803.874	62.96
804.264	63
804.653	63
805.043	63
805.432	63.01
805.821	63.02
806.21	63.07
806.599	63.17
806.988	63.2
807.377	63.22
807.766	63.23
808.155	63.22
808.544	63.21
808.933	63.24
809.321	63.3
809.71	63.35
810.098	63.37
810.487	63.36
810.875	63.28
811.264	63.31
811.652	63.31
812.04	63.31
812.428	63.34
812.816	63.38
813.204	63.38
813.592	63.4
813.98	63.41
814.368	63.42
814.756	63.45
815.144	63.53
815.531	63.55
815.919	63.56
816.306	63.61
816.694	63.61
817.081	63.57
817.469	63.59
817.856	63.62
818.243	63.63
818.63	63.7
819.017	63.7
819.404	63.69
819.791	63.66
820.178	63.67
820.565	63.66
820.952	63.66
821.339	63.71
821.725	63.73
822.112	63.72
822.498	63.71
822.885	63.66
823.271	63.69
823.657	63.65
824.044	63.67
824.43	63.68
824.816	63.64
825.202	63.64
825.588	63.64
825.974	63.61
826.36	63.58
826.746	63.6
827.132	63.58
827.517	63.57
827.903	63.55
828.289	63.52
828.674	63.49
829.06	63.51
829.445	63.51
829.83	63.48
830.216	63.47
830.601	63.42
830.986	63.39
831.371	63.4
831.756	63.34
832.141	63.33
832.526	63.3
832.911	63.31
833.295	63.29
833.68	63.26
834.065	63.25
834.449	63.22
834.834	63.21
835.218	63.18
835.603	63.14
835.987	63.15
836.371	63.19
836.755	63.16
837.139	63.12
837.524	63.06
837.908	63.02
838.291	63
838.675	62.99
839.059	63
839.443	62.97
839.827	62.96
840.21	62.98
840.594	62.93
840.977	62.96
841.361	62.97
841.744	62.98
842.127	62.99
842.511	62.95
842.894	62.97
843.277	62.93
843.66	62.93
844.043	62.91
844.426	62.88
844.809	62.87
845.191	62.82
845.574	62.8
845.957	62.77
846.339	62.77
846.722	62.79
847.104	62.75
847.487	62.78
847.869	62.76
848.252	62.75
848.634	62.76
849.016	62.8
849.398	62.81
849.78	62.81
850.162	62.85
850.544	62.87
850.926	62.83
851.307	62.86
851.689	62.85
852.071	62.87
852.452	62.89
852.834	62.86
853.215	62.82
853.597	62.81
853.978	62.8
854.359	62.76
854.741	62.77
855.122	62.8
855.503	62.79
855.884	62.78
856.265	62.75
856.646	62.73
857.026	62.75
857.407	62.72
857.788	62.75
858.169	62.76
858.549	62.8
858.93	62.77
859.31	62.75
859.69	62.73
860.071	62.72
860.451	62.78
860.831	62.79
861.211	62.8
861.591	62.84
861.971	62.8
862.351	62.82
862.731	62.81
863.111	62.81
863.491	62.86
863.87	62.87
864.25	62.89
864.629	62.87
865.009	62.84
865.388	62.84
865.768	62.83
866.147	62.86
866.526	62.85
866.905	62.82
867.284	62.82
867.663	62.8
868.042	62.79
868.421	62.76
868.8	62.77
869.179	62.79
869.558	62.79
869.936	62.78
870.315	62.79
870.693	62.78
871.072	62.77
871.45	62.76
871.828	62.75
872.207	62.79
872.585	62.81
872.963	62.79
873.341	62.78
873.719	62.76
874.097	62.76
874.475	62.74
874.853	62.75
875.23	62.78
875.608	62.8
875.986	62.77
876.363	62.75
876.741	62.73
877.118	62.76
877.495	62.75
877.873	62.73
878.25	62.71
878.627	62.69
879.004	62.69
879.381	62.68
879.758	62.62
880.135	62.65
880.512	62.66
880.889	62.69
881.265	62.66
881.642	62.68
882.019	62.7
882.395	62.73
882.772	62.73
883.148	62.69
883.524	62.7
883.901	62.69
884.277	62.67
884.653	62.64
885.029	62.6
885.405	62.58
885.781	62.56
886.157	62.53
886.532	62.5
886.908	62.51
887.284	62.53
887.659	62.49
888.035	62.53
888.411	62.48
888.786	62.44
889.161	62.43
889.537	62.43
889.912	62.4
890.287	62.37
890.662	62.34
891.037	62.29
891.412	62.23
891.787	62.2
892.162	62.13
892.536	62.11
892.911	62.1
893.286	62.05
893.66	62.01
894.035	61.96
894.409	61.96
894.784	61.92
895.158	61.93
895.532	61.92
895.906	61.91
896.281	61.91
896.655	61.88
897.029	61.88
897.402	61.88
897.776	61.88
898.15	61.89
898.524	61.86
898.898	61.86
899.271	61.83
899.645	61.83
900.018	61.8
900.392	61.8
900.765	61.85
901.138	61.85
901.511	61.86
901.884	61.87
902.258	61.86
902.631	61.92
903.003	61.93
903.376	61.93
903.749	61.94
904.122	61.98
904.495	62.03
904.867	62.02
905.24	62
905.612	61.99
905.985	62.01
906.357	62.01
906.729	61.97
907.102	61.96
907.474	61.99
907.846	61.98
908.218	61.94
908.59	61.91
908.962	61.9
909.334	61.89
909.705	61.89
910.077	61.83
910.449	61.86
910.82	61.83
911.192	61.83
911.563	61.82
911.935	61.81
912.306	61.8
912.677	61.78
913.048	61.8
913.419	61.82
913.79	61.85
914.161	61.87
914.532	61.84
914.903	61.9
915.274	61.89
915.645	61.89
916.015	61.87
916.386	61.87
916.756	61.84
917.127	61.82
917.497	61.78
917.868	61.77
918.238	61.77
918.608	61.79
918.978	61.69
919.348	61.68
919.718	61.69
920.088	61.73
920.458	61.81
920.828	61.84
921.198	61.9
921.567	61.9
921.937	61.89
922.306	61.88
922.676	61.84
923.045	61.9
923.415	61.94
923.784	61.95
924.153	61.91
924.522	61.83
924.891	61.8
925.26	61.76
925.629	61.75
925.998	61.71
926.367	61.68
926.736	61.69
927.104	61.7
927.473	61.7
927.842	61.66
928.21	61.7
928.578	61.67
928.947	61.64
929.315	61.64
929.683	61.66
930.051	61.7
930.42	61.7
930.788	61.68
931.156	61.61
931.523	61.57
931.891	61.51
932.259	61.39
932.627	61.33
932.994	61.33
933.362	61.25
933.729	61.15
934.097	61.06
934.464	61.03
934.831	60.94
935.199	60.9
935.566	60.79
935.933	60.77
936.3	60.75
936.667	60.79
937.034	60.72
937.401	60.68
937.767	60.74
938.134	60.71
938.501	60.63
938.867	60.78
939.234	60.86
939.6	61.02
939.967	61.06
940.333	61.17
940.699	61.29
941.065	61.51
941.431	61.7
941.798	61.78
942.163	61.99
942.529	62.25
942.895	62.31
943.261	62.37
943.627	62.48
943.992	62.62
944.358	62.71
944.723	62.78
945.089	62.83
945.454	62.96
945.82	62.98
946.185	63.01
946.55	63.04
946.915	63.05
947.28	63.05
947.645	63.01
948.01	62.99
948.375	63.05
948.74	62.86
949.104	62.77
949.469	62.57
949.834	62.42
950.198	62.3
950.562	62.18
950.927	62.11
951.291	62.04
951.655	62
952.02	61.92
952.384	61.84
952.748	61.85
953.112	61.81
953.476	61.81
953.839	61.85
954.203	61.73
954.567	61.63
954.931	61.56
955.294	61.57
955.658	61.49
956.021	61.42
956.385	61.36
956.748	61.38
957.111	61.29
957.474	61.29
957.837	61.21
958.2	61.15
958.563	61.18
958.926	61.09
959.289	61.02
959.652	61.03
960.015	61.01
960.377	60.95
960.74	60.81
961.102	60.76
961.465	60.69
961.827	60.6
962.189	60.58
962.552	60.49
962.914	60.47
963.276	60.38
963.638	60.27
964	60.22
964.362	60.24
964.724	60.22
965.085	60.29
965.447	60.22
965.809	60.19
966.17	60.29
966.532	60.23
966.893	60.25
967.255	60.26
967.616	60.3
967.977	60.34
968.338	60.26
968.699	60.28
969.061	60.15
969.421	60.09
969.782	60.14
970.143	60.04
970.504	60.04
970.865	59.95
971.225	59.98
971.586	59.92
971.946	59.86
972.307	59.87
972.667	59.88
973.027	59.93
973.388	60.01
973.748	60.1
974.108	60.1
974.468	60.13
974.828	60.2
975.188	60.16
975.548	60.16
975.907	60.17
976.267	60.17
976.627	60.13
976.986	60.1
977.346	60.09
977.705	60.04
978.064	59.99
978.424	60.02
978.783	60.01
979.142	59.97
979.501	59.9
979.86	59.99
980.219	59.89
980.578	59.89
980.937	59.93
981.296	59.92
981.654	59.97
982.013	60.09
982.371	60.04
982.73	60.02
983.088	60.04
983.447	60.09
983.805	60.04
984.163	60.18
984.521	60.07
984.879	60.14
985.237	60.2
985.595	60.23
985.953	60.15
986.311	60.18
986.669	60.19
987.026	60.24
987.384	60.31
987.741	60.3
988.099	60.38
988.456	60.52
988.814	60.48
989.171	60.51
989.528	60.35
989.885	60.38
990.242	60.48
990.599	60.63
990.956	60.7
991.313	60.71
991.67	60.78
992.027	60.75
992.383	60.83
992.74	60.88
993.096	60.88
993.453	61
993.809	61.08
994.165	61.02
994.522	60.98
994.878	60.99
995.234	61.14
995.59	61.1
995.946	61.05
996.302	60.99
996.658	61.04
997.013	61.04
997.369	61.14
997.725	61.31
998.08	61.33
998.436	61.49
998.791	61.46
999.147	61.43
999.502	61.4
999.857	61.54
1000.212	61.72
1000.567	61.66
1000.922	61.73
1001.277	61.72
1001.632	61.75
1001.987	61.82
1002.342	61.81
1002.696	62.05
1003.051	62.01
1003.406	62.13
1003.76	62.11
1004.114	62.12
1004.469	62.17
1004.823	62.23
1005.177	62.32
1005.531	62.1
1005.885	62.26
1006.239	62.31
1006.593	62.12
1006.947	62.14
1007.301	62.21
1007.655	62.22
1008.008	62.05
1008.362	62.16
1008.715	62.18
1009.069	62.03
1009.422	62.08
1009.776	62.06
1010.129	61.93
1010.482	62.14
1010.835	62.29
1011.188	62.45
1011.541	62.55
1011.894	62.86
1012.247	62.86
1012.6	63.04
1012.952	63.29
1013.305	63.51
1013.657	63.58
1014.01	63.9
1014.362	64.21
1014.715	64.22
1015.067	64.34
1015.419	64.48
1015.771	64.5
1016.123	64.67
1016.475	64.58
1016.827	64.82
1017.179	65
1017.531	65.04
1017.883	65.15
1018.234	64.85
1018.586	64.92
1018.938	64.71
1019.289	64.69
1019.64	64.82
1019.992	64.74
1020.343	65.04
1020.694	64.97
1021.045	64.8
1021.396	64.85
1021.747	64.84
1022.098	64.86
1022.449	64.68
1022.8	65
1023.151	65.38
1023.501	65.68
1023.852	66.03
1024.202	65.92
1024.553	65.78
1024.903	66.12
1025.253	66.66
1025.604	66.53
1025.954	66.72
1026.304	67.41
1026.654	67.34
1027.004	67.37
1027.354	67.33
1027.703	67.35
1028.053	67.34
1028.403	67.59
1028.753	67.86
1029.102	67.53
1029.452	67.8
1029.801	67.93
1030.15	67.74
1030.499	67.89
897.758	672.45
901.051	691.32
904.343	695.35
907.636	682.47
910.928	673.56
914.22	682.96
917.511	667.12
920.803	636.52
924.094	610.82
927.384	617.08
930.675	599.61
933.965	594.74
937.255	588.38
940.544	562.74
943.834	542.19
947.123	529.91
950.411	503.39
953.7	494.98
956.988	480.71
960.276	459.33
963.563	453.21
966.851	428.91
970.138	421.52
973.424	393.63
976.711	387.85
979.997	370.9
983.283	364.37
986.568	351.99
989.853	342.38
993.138	330.85
996.423	325.03
999.708	313.18
1002.992	314.65
1006.275	304.71
1009.559	302.28
1012.842	294.81
1016.125	286.18
1019.408	281.13
1022.69	277.84
1025.972	275.92
1029.254	268.44
1032.536	263.76
1035.817	258.76
1039.098	253.92
1042.379	247.66
1045.659	244.32
1048.939	241.71
1052.219	237.41
1055.498	232.68
1058.778	229.5
1062.057	225.34
1065.335	224.18
1068.614	220.49
1071.892	216.85
1075.17	212.28
1078.447	210.03
1081.724	207.6
1085.001	202.46
1088.278	202.63
1091.554	201.77
1094.83	200.44
1098.106	196.3
1101.382	195.82
1104.657	194.61
1107.932	193.93
1111.206	192.8
1114.481	190.43
1117.755	190.16
1121.029	190.4
1124.302	187.89
1127.575	183.61
1130.848	182.88
1134.121	181.35
1137.393	180.12
1140.665	179.82
1143.937	176.85
1147.208	175.47
1150.48	173.95
1153.75	172.35
1157.021	170.48
1160.291	169.64
1163.561	170.35
1166.831	167.95
1170.101	167.72
1173.37	166.56
1176.639	164.42
1179.907	165.26
1183.176	164.67
1186.444	165.05
1189.711	164.05
1192.979	165.68
1196.246	165.72
1199.513	165.3
1202.78	166.84
1206.046	166.33
1209.312	167.24
1212.578	168.37
1215.843	169.87
1219.108	170.72
1222.373	173.49
1225.638	176.62
1228.902	179.99
1232.166	185.39
1235.43	187.53
1238.693	191.4
1241.956	196.54
1245.219	201.26
1248.482	203.06
1251.744	202.58
1255.006	202.8
1258.268	198.73
1261.529	196.15
1264.79	190.46
1268.051	187.41
1271.312	186.77
1274.572	183.47
1277.832	177.45
1281.092	175.65
1284.351	171.77
1287.61	171.84
1290.869	171.98
1294.128	170.8
1297.386	169.61
1300.644	169.31
1303.902	168.48
1307.159	166.51
1310.416	167.35
1313.673	170.88
1316.93	171.44
1320.186	174.37
1323.442	176.22
1326.697	179.15
1329.953	180.39
1333.208	186.33
1336.463	194.58
1339.717	197.63
1342.972	208.2
1346.226	213.78
1349.479	214.92
1352.733	223.98
1355.986	230.55
1359.238	234.72
1362.491	236.4
1365.743	246.35
1368.995	247.02
1372.247	245.49
1375.498	244.01
1378.749	252.64
1382	252.38
1385.251	251.24
1388.501	251.56
1391.751	252.13
1395	250.72
1398.25	254.62
1401.499	252.73
1404.748	254.75
1407.996	249.38
1411.244	250.47
1414.492	244.48
1417.74	239.19
1420.987	234.24
1424.234	230.18
1427.481	220.55
1430.728	216.61
1433.974	207.46
1437.22	200.22
1440.465	193.71
1443.711	188.17
1446.956	182.57
1450.201	175.59
1453.445	166.78
1456.689	161.94
1459.933	156.73
1463.177	151.27
1466.42	148.01
1469.663	143.73
1472.906	140.3
1476.148	136.48
1479.391	133.15
1482.633	130.35
1485.874	127.96
1489.115	127.2
1492.356	125.19
1495.597	123
1498.838	122.39
1502.078	120.81
1505.318	120.36
1508.557	119.74
1511.797	118.24
1515.036	117.89
1518.274	118
1521.513	116.04
1524.751	115.21
1527.989	115.96
1531.227	115.66
1534.464	115.14
1537.701	114.32
1540.938	113.51
1544.174	113.79
1547.41	112.85
1550.646	113.3
1553.882	112.9
1557.117	112.94
1560.352	112.91
1563.587	111.38
1566.821	111.36
1570.055	110.4
1573.289	110.27
1576.523	110.69
1579.756	109.51
1582.989	110.03
1586.222	109.61
1589.454	109.18
1592.686	109.14
1595.918	108.96
1599.15	109.13
1602.381	109.29
1605.612	109.65
1608.843	109.72
1612.073	109.37
1615.303	110.29
1618.533	110.14
1621.762	109.83
1624.992	110.02
1628.221	109.87
1631.449	110.12
1634.678	110.22
1637.906	110.27
1641.134	110.21
1644.361	110.08
1647.588	110.36
1650.815	110.07
1654.042	110.18
1657.269	110.07
1660.495	110.55
1663.72	110.91
1666.946	110.93
1670.171	111.38
1673.396	111.68
1676.621	111.97
1679.845	112.36
1683.069	112.76
1686.293	112.53
1689.517	112.74
1692.74	113.11
1695.963	113.12
1699.185	113.79
1702.408	113.85
1705.63	113.85
1708.852	114.3
1712.073	114.42
1715.294	114.12
1718.515	114.48
1721.736	115.05
1724.956	115.15
1728.176	115.18
1731.396	115.48
1734.616	115.14
1737.835	115.62
1741.054	115.51
1744.272	115.7
1747.491	115.89
1750.709	116.84
1753.927	116.74
1757.144	116.73
1760.361	117.27
1763.578	118.01
1766.795	118.32
1770.011	119.2
1773.227	118.92
1776.443	119.99
1779.658	119.82
1782.874	120.2
1786.089	120.09
1789.303	120.51
1792.518	122.2
1795.732	122.96
1798.945	123.45
1802.159	123.96
1805.372	125.2
1808.585	127.11
1811.797	127.71
1815.01	129.31
1818.222	130.8
1821.434	132.04
1824.645	132.92
1827.856	134.31
1831.067	135.33
1834.278	136.73
1837.488	137.42
1840.698	138.36
1843.908	138.32
1847.117	140.36
1850.326	141.12
1853.535	141.16
1856.744	142.64
1859.952	144.62
1863.16	144.29
1866.368	143.24
1869.575	144.14
1872.782	144.86
1875.989	143.6
1879.196	143.97
1882.402	142
1885.608	141.9
1888.814	142.26
1892.019	143.17
1895.224	140.56
1898.429	140.75
1901.634	142.4
1904.838	142.83
1908.042	143.37
1911.246	144.31
1914.449	144.26
1917.652	144.32
1920.855	145.53
1924.058	144.58
1927.26	143.85
1930.462	146.17
1933.664	146.28
1936.865	146.99
1940.066	144.46
1943.267	143.78
1946.467	144.5
1949.668	144.75
1952.868	146.1
1956.067	145.11
1959.267	146.09
1962.466	146.52
1965.665	146.88
1968.863	147.78
1972.061	147.42
1975.259	151.91
1978.457	153
1981.654	153.34
1984.852	155.04
1988.048	156.37
1991.245	158.92
1994.441	160.96
1997.637	166.42
2000.833	167.63
2004.028	169.23
2007.223	175.08
2010.418	177.04
2013.613	184.03
2016.807	189.18
2020.001	191.8
2023.194	197.18
2026.388	205.09
2029.581	214.95
2032.774	218.49
2035.966	226.92
2039.158	233.17
2042.35	237.33
2045.542	241.69
2048.733	252.74
2051.924	255.9
2055.115	259.92
2058.306	262.53
2061.496	266.55
2064.686	267.77
2067.875	265.31
2071.065	267.31
2074.254	268.6
2077.442	276.12
2080.631	279.73
2083.819	278.76
2087.007	284.83
2090.195	290.25
2093.382	290.62
2096.569	289.57
2099.756	294.85
2102.942	302.19
2106.128	309.33
2109.314	310.35
2112.5	309.62
2115.685	307.89
2118.87	307.92
2122.055	307.96
2125.239	313.84
2128.424	321.92
2131.608	320.78
2134.791	323.36
2137.974	323.02
2141.157	325.75
2144.34	330.77
2147.523	337.59
2150.705	346.29
2153.887	341.92
2157.068	345.69
2160.25	350.27
2163.431	348.22
2166.611	355.13
2169.792	360.25
2172.972	366.09
2176.152	363.53
2179.331	371.25
2182.511	370.21
2185.69	373.45
2188.868	391.76
2192.047	401.79
2195.225	405.35
2198.403	409.77
2201.58	403.04
2204.758	416.44
2207.935	420.09
2211.111	432.78
2214.288	433.47
2217.464	437.74
2220.64	442.23
2223.815	442.22
2226.991	435.99
2230.166	440.13
2233.34	454.54
2236.515	472.18
2239.689	462.77
2242.863	470.86
2246.036	464.94
2249.209	479.81
2252.382	477.67
2255.555	494.45
2258.727	495.15
2261.9	514.88
2265.071	521.49
2268.243	518.37
2271.414	529.48
2274.585	540.03
2277.756	541.21
2280.926	565.33
2284.096	562.51
2287.266	567.66
2290.436	555.92
2293.605	572.74
2296.774	587.94
2299.942	586.09
2303.111	602.01
2306.279	616.71
2309.447	617.89
2312.614	619.87
2315.781	631.61
2318.948	636.69
2322.115	649.12
2325.281	686.01
2328.447	679.25
2331.613	681.04
2334.779	693.05
2337.944	708.39
2341.109	716.97
2344.274	727.85
2347.438	744.82
2350.602	755.46
2353.766	808.2
2356.929	809.82
2360.092	815.52
2363.255	820.09
2366.418	831.76
2369.58	849.39
2372.742	847.25
2375.904	844.58
2379.066	869.91
2382.227	921.99
2385.388	921.97
2388.548	867.46
2391.709	862.56
2394.869	895.98
2398.029	900.83
2401.188	894.99
2404.347	926.26
2407.506	952.55
2410.665	916.52
2413.823	921.13
2416.981	920.15
2420.139	871.75
2423.296	954.73
2426.453	1014.01
2429.61	960.31
2432.767	1022.8
2435.923	1061.47
2439.079	1022.71
2442.235	1050.53
2445.391	1081.51
2448.546	1071.67
2451.701	1130.32
2454.855	1210.41
2458.009	1065.7
2461.163	1080.29
2464.317	1100.12
2467.471	1072.99
2470.624	1118.28
2473.777	1090.54
2476.929	1054.09
2480.082	1123.68
2483.234	1178.27
2486.385	1201.29
2489.537	1228.85
2492.688	1353.91
2495.839	1331.08
2498.989	1369.2
2502.14	1381.45
2505.29	1311.49
2508.439	1460.96
2511.589	1498.43
2514.738	1447.29
2517.887	1436.91
2521.035	1340.53
2524.183	1326.99
2527.331	1308.73
2530.479	1282.2
2533.627	1309.56
