Data from C_3_div_oh_2n_Splice17_10.txt Node
Date: Sat Feb 29 14:38:56 EST 2020
User: sa697716
Spectrometer: FLMS03696
Trigger mode: 0
Integration Time (sec): 3.180400E-1
Scans to average: 20
Electric dark correction enabled: true
Nonlinearity correction enabled: true
Boxcar width: 5
XAxis mode: Wavelengths
Number of Pixels in Spectrum: 2048
>>>>>Begin Spectral Data<<<<<
187.83	67.66
188.298	71.55
188.766	67.57
189.233	66.86
189.701	84.57
190.169	78.86
190.636	93.52
191.104	121.75
191.571	455.75
192.039	453.69
192.506	-633.97
192.974	-4450.2
193.441	-9.8
193.908	51.98
194.375	36.34
194.842	219.12
195.31	113.7
195.777	147.46
196.244	16.29
196.711	-15.89
197.177	-21.97
197.644	-23.33
198.111	-24.52
198.578	-26.32
199.045	-26.02
199.511	-25.73
199.978	-25.56
200.445	-25.61
200.911	-25.26
201.378	-24.83
201.844	-24.5
202.31	-23.59
202.777	-22.92
203.243	-22.24
203.709	-21.01
204.176	-21.15
204.642	-20.59
205.108	-20.36
205.574	-19.55
206.04	-19.09
206.506	-18.96
206.972	-18.64
207.438	-18.39
207.903	-17.72
208.369	-17.02
208.835	-16.87
209.301	-15.58
209.766	-14.89
210.232	-14.08
210.697	-13.39
211.163	-12.89
211.628	-12.23
212.094	-11.69
212.559	-11.33
213.024	-11.27
213.49	-11.11
213.955	-10.36
214.42	-9.8
214.885	-9.18
215.35	-8.25
215.815	-7.41
216.28	-6.26
216.745	-4.75
217.21	-3.28
217.675	-1.92
218.14	-0.73
218.604	0.14
219.069	0.94
219.534	1.56
219.998	2.11
220.463	2.56
220.927	2.91
221.392	3.19
221.856	3.36
222.32	3.54
222.785	3.69
223.249	3.82
223.713	3.99
224.177	4.02
224.642	4.12
225.106	4.17
225.57	4.25
226.034	4.31
226.497	4.36
226.961	4.38
227.425	4.37
227.889	4.39
228.353	4.39
228.816	4.4
229.28	4.4
229.744	4.39
230.207	4.41
230.671	4.39
231.134	4.37
231.597	4.36
232.061	4.35
232.524	4.36
232.987	4.34
233.45	4.32
233.914	4.3
234.377	4.29
234.84	4.25
235.303	4.21
235.766	4.19
236.229	4.15
236.691	4.13
237.154	4.1
237.617	4.06
238.08	4.02
238.542	3.97
239.005	3.93
239.468	3.89
239.93	3.86
240.393	3.84
240.855	3.78
241.317	3.77
241.78	3.74
242.242	3.7
242.704	3.67
243.166	3.65
243.629	3.64
244.091	3.62
244.553	3.62
245.015	3.6
245.477	3.59
245.939	3.59
246.4	3.57
246.862	3.56
247.324	3.56
247.786	3.56
248.247	3.55
248.709	3.54
249.17	3.55
249.632	3.52
250.093	3.5
250.555	3.48
251.016	3.47
251.477	3.47
251.939	3.46
252.4	3.45
252.861	3.44
253.322	3.43
253.783	3.43
254.244	3.42
254.705	3.42
255.166	3.43
255.627	3.43
256.088	3.42
256.549	3.41
257.009	3.41
257.47	3.41
257.931	3.39
258.391	3.38
258.852	3.37
259.312	3.37
259.773	3.37
260.233	3.36
260.694	3.36
261.154	3.34
261.614	3.34
262.074	3.33
262.534	3.32
262.994	3.32
263.455	3.32
263.915	3.32
264.374	3.31
264.834	3.31
265.294	3.3
265.754	3.29
266.214	3.3
266.673	3.3
267.133	3.3
267.593	3.3
268.052	3.3
268.512	3.29
268.971	3.28
269.431	3.28
269.89	3.27
270.349	3.27
270.809	3.27
271.268	3.26
271.727	3.24
272.186	3.24
272.645	3.23
273.104	3.23
273.563	3.23
274.022	3.23
274.481	3.22
274.94	3.21
275.399	3.21
275.857	3.21
276.316	3.21
276.775	3.2
277.233	3.19
277.692	3.18
278.15	3.17
278.609	3.15
279.067	3.14
279.525	3.13
279.984	3.12
280.442	3.11
280.9	3.09
281.358	3.08
281.816	3.07
282.274	3.06
282.732	3.05
283.19	3.04
283.648	3.03
284.106	3.02
284.564	3.02
285.021	3.02
285.479	3.01
285.937	3.01
286.394	3
286.852	3
287.309	3
287.767	3
288.224	3.01
288.682	3.02
289.139	3.02
289.596	3.03
290.053	3.03
290.511	3.03
290.968	3.04
291.425	3.04
291.882	3.03
292.339	3.03
292.796	3.02
293.252	3.01
293.709	3
294.166	2.99
294.623	2.99
295.079	2.98
295.536	2.98
295.992	2.96
296.449	2.96
296.905	2.96
297.362	2.95
297.818	2.95
298.274	2.94
298.731	2.94
299.187	2.94
299.643	2.93
300.099	2.92
300.555	2.91
301.011	2.91
301.467	2.9
301.923	2.9
302.379	2.89
302.835	2.88
303.291	2.88
303.746	2.87
304.202	2.86
304.658	2.84
305.113	2.83
305.569	2.83
306.024	2.81
306.479	2.8
306.935	2.79
307.39	2.78
307.845	2.77
308.301	2.76
308.756	2.75
309.211	2.74
309.666	2.73
310.121	2.72
310.576	2.71
311.031	2.7
311.486	2.7
311.94	2.7
312.395	2.69
312.85	2.68
313.305	2.67
313.759	2.66
314.214	2.65
314.668	2.64
315.123	2.65
315.577	2.65
316.032	2.65
316.486	2.64
316.94	2.63
317.394	2.62
317.849	2.62
318.303	2.61
318.757	2.62
319.211	2.62
319.665	2.61
320.119	2.61
320.572	2.61
321.026	2.61
321.48	2.6
321.934	2.6
322.387	2.6
322.841	2.6
323.295	2.6
323.748	2.59
324.202	2.58
324.655	2.57
325.108	2.56
325.562	2.54
326.015	2.54
326.468	2.52
326.921	2.52
327.374	2.51
327.827	2.51
328.28	2.49
328.733	2.49
329.186	2.48
329.639	2.48
330.092	2.48
330.545	2.47
330.997	2.47
331.45	2.47
331.903	2.45
332.355	2.45
332.808	2.45
333.26	2.44
333.713	2.43
334.165	2.44
334.617	2.44
335.069	2.43
335.522	2.43
335.974	2.42
336.426	2.42
336.878	2.42
337.33	2.41
337.782	2.41
338.234	2.41
338.686	2.42
339.137	2.42
339.589	2.43
340.041	2.43
340.493	2.42
340.944	2.42
341.396	2.42
341.847	2.42
342.299	2.42
342.75	2.42
343.201	2.42
343.653	2.42
344.104	2.41
344.555	2.4
345.006	2.39
345.457	2.39
345.908	2.39
346.359	2.39
346.81	2.39
347.261	2.39
347.712	2.38
348.163	2.38
348.613	2.37
349.064	2.35
349.515	2.35
349.965	2.34
350.416	2.34
350.866	2.33
351.317	2.33
351.767	2.33
352.217	2.32
352.668	2.33
353.118	2.33
353.568	2.34
354.018	2.34
354.468	2.34
354.918	2.36
355.368	2.36
355.818	2.36
356.268	2.36
356.718	2.36
357.168	2.35
357.617	2.33
358.067	2.33
358.517	2.33
358.966	2.33
359.416	2.34
359.865	2.33
360.315	2.33
360.764	2.33
361.213	2.32
361.663	2.31
362.112	2.31
362.561	2.33
363.01	2.33
363.459	2.32
363.908	2.31
364.357	2.31
364.806	2.3
365.255	2.31
365.703	2.3
366.152	2.3
366.601	2.3
367.05	2.3
367.498	2.29
367.947	2.28
368.395	2.29
368.844	2.29
369.292	2.29
369.74	2.29
370.189	2.28
370.637	2.29
371.085	2.3
371.533	2.29
371.981	2.29
372.429	2.29
372.877	2.29
373.325	2.28
373.773	2.27
374.221	2.27
374.669	2.27
375.116	2.26
375.564	2.24
376.012	2.23
376.459	2.23
376.907	2.22
377.354	2.21
377.801	2.23
378.249	2.22
378.696	2.22
379.143	2.22
379.591	2.21
380.038	2.22
380.485	2.24
380.932	2.23
381.379	2.23
381.826	2.23
382.273	2.23
382.72	2.22
383.166	2.23
383.613	2.24
384.06	2.24
384.506	2.24
384.953	2.23
385.4	2.22
385.846	2.23
386.292	2.24
386.739	2.22
387.185	2.24
387.631	2.24
388.078	2.24
388.524	2.22
388.97	2.22
389.416	2.21
389.862	2.2
390.308	2.2
390.754	2.19
391.2	2.19
391.645	2.2
392.091	2.18
392.537	2.17
392.983	2.16
393.428	2.17
393.874	2.16
394.319	2.16
394.765	2.17
395.21	2.16
395.655	2.16
396.101	2.16
396.546	2.15
396.991	2.13
397.436	2.12
397.881	2.12
398.326	2.11
398.771	2.1
399.216	2.09
399.661	2.09
400.106	2.09
400.551	2.08
400.995	2.06
401.44	2.06
401.885	2.07
402.329	2.08
402.774	2.06
403.218	2.05
403.663	2.03
404.107	2.04
404.551	2.03
404.995	2.03
405.44	2.03
405.884	2.03
406.328	2.03
406.772	2.03
407.216	2.03
407.66	2.03
408.104	2.02
408.547	2.04
408.991	2.02
409.435	2.02
409.879	2.01
410.322	2.01
410.766	2.01
411.209	2.01
411.653	1.99
412.096	1.98
412.54	1.96
412.983	1.96
413.426	1.96
413.869	1.97
414.312	1.97
414.756	1.96
415.199	1.96
415.642	1.96
416.085	1.95
416.527	1.96
416.97	1.99
417.413	1.97
417.856	1.96
418.298	1.94
418.741	1.93
419.184	1.93
419.626	1.9
420.069	1.9
420.511	1.89
420.953	1.88
421.396	1.88
421.838	1.86
422.28	1.88
422.722	1.88
423.164	1.89
423.606	1.89
424.048	1.88
424.49	1.89
424.932	1.88
425.374	1.89
425.816	1.89
426.258	1.88
426.699	1.87
427.141	1.85
427.582	1.85
428.024	1.83
428.465	1.83
428.907	1.83
429.348	1.83
429.789	1.83
430.231	1.82
430.672	1.82
431.113	1.81
431.554	1.81
431.995	1.8
432.436	1.79
432.877	1.77
433.318	1.76
433.759	1.76
434.2	1.75
434.64	1.72
435.081	1.7
435.522	1.68
435.962	1.68
436.403	1.67
436.843	1.69
437.284	1.69
437.724	1.71
438.164	1.71
438.604	1.72
439.045	1.72
439.485	1.72
439.925	1.73
440.365	1.72
440.805	1.7
441.245	1.68
441.685	1.68
442.125	1.66
442.564	1.64
443.004	1.64
443.444	1.63
443.883	1.62
444.323	1.6
444.762	1.6
445.202	1.61
445.641	1.62
446.081	1.61
446.52	1.57
446.959	1.58
447.398	1.59
447.837	1.6
448.276	1.59
448.716	1.59
449.154	1.61
449.593	1.59
450.032	1.59
450.471	1.59
450.91	1.59
451.349	1.61
451.787	1.61
452.226	1.59
452.664	1.56
453.103	1.57
453.541	1.59
453.98	1.6
454.418	1.6
454.856	1.59
455.295	1.58
455.733	1.6
456.171	1.61
456.609	1.62
457.047	1.62
457.485	1.64
457.923	1.63
458.361	1.61
458.798	1.63
459.236	1.63
459.674	1.63
460.111	1.65
460.549	1.64
460.987	1.64
461.424	1.63
461.862	1.62
462.299	1.62
462.736	1.61
463.173	1.6
463.611	1.57
464.048	1.57
464.485	1.58
464.922	1.57
465.359	1.57
465.796	1.54
466.233	1.53
466.67	1.52
467.106	1.5
467.543	1.51
467.98	1.5
468.416	1.51
468.853	1.5
469.29	1.5
469.726	1.5
470.162	1.51
470.599	1.53
471.035	1.55
471.471	1.54
471.907	1.54
472.344	1.54
472.78	1.55
473.216	1.55
473.652	1.56
474.088	1.56
474.523	1.55
474.959	1.56
475.395	1.57
475.831	1.57
476.266	1.59
476.702	1.61
477.138	1.61
477.573	1.61
478.008	1.62
478.444	1.61
478.879	1.62
479.314	1.63
479.75	1.63
480.185	1.63
480.62	1.64
481.055	1.62
481.49	1.62
481.925	1.64
482.36	1.65
482.795	1.65
483.229	1.66
483.664	1.66
484.099	1.65
484.534	1.65
484.968	1.66
485.403	1.66
485.837	1.67
486.271	1.67
486.706	1.65
487.14	1.65
487.574	1.66
488.009	1.66
488.443	1.66
488.877	1.67
489.311	1.67
489.745	1.67
490.179	1.66
490.613	1.66
491.046	1.67
491.48	1.68
491.914	1.67
492.348	1.67
492.781	1.67
493.215	1.66
493.648	1.65
494.082	1.65
494.515	1.64
494.948	1.64
495.382	1.64
495.815	1.64
496.248	1.64
496.681	1.64
497.114	1.62
497.547	1.62
497.98	1.63
498.413	1.62
498.846	1.63
499.279	1.63
499.711	1.63
500.144	1.62
500.577	1.6
501.009	1.6
501.442	1.6
501.874	1.6
502.306	1.59
502.739	1.58
503.171	1.58
503.603	1.57
504.036	1.57
504.468	1.57
504.9	1.58
505.332	1.59
505.764	1.59
506.196	1.59
506.627	1.58
507.059	1.59
507.491	1.59
507.923	1.59
508.354	1.6
508.786	1.6
509.217	1.58
509.649	1.59
510.08	1.59
510.512	1.58
510.943	1.58
511.374	1.59
511.805	1.59
512.237	1.59
512.668	1.58
513.099	1.58
513.53	1.58
513.961	1.6
514.391	1.58
514.822	1.57
515.253	1.58
515.684	1.57
516.114	1.56
516.545	1.55
516.975	1.55
517.406	1.55
517.836	1.54
518.267	1.53
518.697	1.53
519.127	1.53
519.558	1.54
519.988	1.54
520.418	1.53
520.848	1.54
521.278	1.55
521.708	1.5
522.138	1.51
522.567	1.52
522.997	1.52
523.427	1.52
523.857	1.52
524.286	1.53
524.716	1.52
525.145	1.55
525.575	1.54
526.004	1.54
526.433	1.6
526.863	1.6
527.292	1.59
527.721	1.58
528.15	1.57
528.579	1.57
529.008	1.57
529.437	1.57
529.866	1.55
530.295	1.55
530.724	1.56
531.152	1.55
531.581	1.55
532.01	1.56
532.438	1.56
532.867	1.55
533.295	1.56
533.723	1.56
534.152	1.56
534.58	1.55
535.008	1.56
535.436	1.54
535.865	1.53
536.293	1.54
536.721	1.53
537.149	1.54
537.576	1.56
538.004	1.55
538.432	1.55
538.86	1.55
539.287	1.55
539.715	1.55
540.143	1.55
540.57	1.55
540.998	1.57
541.425	1.56
541.852	1.56
542.28	1.55
542.707	1.56
543.134	1.56
543.561	1.54
543.988	1.55
544.415	1.56
544.842	1.56
545.269	1.57
545.696	1.56
546.123	1.56
546.549	1.55
546.976	1.56
547.403	1.55
547.829	1.54
548.256	1.55
548.682	1.54
549.108	1.54
549.535	1.52
549.961	1.51
550.387	1.51
550.813	1.5
551.24	1.52
551.666	1.52
552.092	1.52
552.518	1.52
552.943	1.53
553.369	1.53
553.795	1.53
554.221	1.55
554.646	1.56
555.072	1.57
555.498	1.58
555.923	1.58
556.349	1.57
556.774	1.58
557.199	1.57
557.625	1.57
558.05	1.57
558.475	1.57
558.9	1.56
559.325	1.56
559.75	1.54
560.175	1.54
560.6	1.54
561.025	1.53
561.449	1.53
561.874	1.54
562.299	1.53
562.723	1.53
563.148	1.53
563.572	1.52
563.997	1.52
564.421	1.53
564.846	1.53
565.27	1.52
565.694	1.53
566.118	1.53
566.542	1.52
566.966	1.54
567.39	1.55
567.814	1.54
568.238	1.55
568.662	1.56
569.086	1.56
569.509	1.56
569.933	1.56
570.357	1.54
570.78	1.56
571.204	1.55
571.627	1.54
572.05	1.53
572.474	1.53
572.897	1.52
573.32	1.52
573.743	1.51
574.166	1.51
574.589	1.51
575.012	1.52
575.435	1.51
575.858	1.51
576.281	1.52
576.704	1.53
577.126	1.53
577.549	1.54
577.972	1.53
578.394	1.53
578.817	1.53
579.239	1.52
579.661	1.51
580.084	1.51
580.506	1.51
580.928	1.5
581.35	1.48
581.772	1.47
582.194	1.47
582.616	1.47
583.038	1.47
583.46	1.47
583.882	1.48
584.303	1.48
584.725	1.48
585.147	1.45
585.568	1.44
585.99	1.47
586.411	1.46
586.833	1.48
587.254	1.48
587.675	1.49
588.096	1.48
588.518	1.49
588.939	1.48
589.36	1.48
589.781	1.5
590.202	1.49
590.623	1.48
591.043	1.48
591.464	1.47
591.885	1.46
592.305	1.46
592.726	1.46
593.147	1.47
593.567	1.48
593.987	1.5
594.408	1.5
594.828	1.51
595.248	1.51
595.669	1.52
596.089	1.52
596.509	1.52
596.929	1.51
597.349	1.51
597.769	1.51
598.189	1.51
598.608	1.51
599.028	1.52
599.448	1.52
599.867	1.52
600.287	1.52
600.706	1.53
601.126	1.54
601.545	1.54
601.965	1.55
602.384	1.54
602.803	1.53
603.222	1.53
603.641	1.52
604.061	1.52
604.48	1.52
604.898	1.52
605.317	1.51
605.736	1.51
606.155	1.52
606.574	1.53
606.992	1.52
607.411	1.53
607.829	1.48
608.248	1.48
608.666	1.49
609.085	1.49
609.503	1.48
609.921	1.47
610.339	1.48
610.758	1.47
611.176	1.47
611.594	1.47
612.012	1.47
612.43	1.52
612.847	1.53
613.265	1.53
613.683	1.53
614.101	1.52
614.518	1.53
614.936	1.53
615.353	1.53
615.771	1.52
616.188	1.53
616.606	1.53
617.023	1.53
617.44	1.52
617.857	1.52
618.274	1.51
618.691	1.51
619.108	1.52
619.525	1.52
619.942	1.51
620.359	1.52
620.776	1.51
621.192	1.5
621.609	1.49
622.026	1.5
622.442	1.49
622.859	1.5
623.275	1.51
623.691	1.51
624.108	1.52
624.524	1.52
624.94	1.51
625.356	1.52
625.772	1.52
626.188	1.52
626.604	1.51
627.02	1.52
627.436	1.51
627.852	1.5
628.268	1.49
628.683	1.48
629.099	1.48
629.514	1.47
629.93	1.46
630.345	1.45
630.761	1.45
631.176	1.46
631.591	1.45
632.007	1.44
632.422	1.45
632.837	1.45
633.252	1.46
633.667	1.45
634.082	1.46
634.497	1.46
634.911	1.47
635.326	1.46
635.741	1.46
636.155	1.46
636.57	1.46
636.984	1.44
637.399	1.43
637.813	1.42
638.228	1.42
638.642	1.43
639.056	1.43
639.47	1.42
639.884	1.42
640.298	1.42
640.712	1.42
641.126	1.42
641.54	1.42
641.954	1.43
642.368	1.43
642.781	1.42
643.195	1.41
643.609	1.41
644.022	1.41
644.436	1.42
644.849	1.42
645.262	1.44
645.676	1.43
646.089	1.43
646.502	1.43
646.915	1.44
647.328	1.45
647.741	1.44
648.154	1.44
648.567	1.44
648.98	1.45
649.393	1.44
649.805	1.42
650.218	1.43
650.631	1.43
651.043	1.43
651.456	1.43
651.868	1.43
652.28	1.44
652.693	1.44
653.105	1.43
653.517	1.42
653.929	1.43
654.341	1.44
654.753	1.44
655.165	1.43
655.577	1.43
655.989	1.41
656.401	1.4
656.813	1.4
657.224	1.41
657.636	1.42
658.047	1.41
658.459	1.4
658.87	1.41
659.282	1.42
659.693	1.41
660.104	1.42
660.515	1.42
660.926	1.43
661.338	1.43
661.749	1.42
662.159	1.41
662.57	1.41
662.981	1.4
663.392	1.38
663.803	1.36
664.213	1.35
664.624	1.36
665.035	1.36
665.445	1.36
665.855	1.36
666.266	1.37
666.676	1.38
667.086	1.36
667.497	1.36
667.907	1.36
668.317	1.36
668.727	1.36
669.137	1.37
669.547	1.37
669.956	1.36
670.366	1.35
670.776	1.35
671.186	1.35
671.595	1.36
672.005	1.37
672.414	1.37
672.824	1.38
673.233	1.39
673.642	1.38
674.052	1.38
674.461	1.38
674.87	1.37
675.279	1.36
675.688	1.36
676.097	1.35
676.506	1.34
676.915	1.35
677.323	1.35
677.732	1.35
678.141	1.36
678.549	1.36
678.958	1.36
679.366	1.36
679.775	1.36
680.183	1.37
680.592	1.38
681	1.36
681.408	1.35
681.816	1.33
682.224	1.32
682.632	1.31
683.04	1.31
683.448	1.31
683.856	1.31
684.264	1.32
684.671	1.32
685.079	1.32
685.487	1.35
685.894	1.35
686.302	1.36
686.709	1.35
687.116	1.36
687.524	1.36
687.931	1.36
688.338	1.35
688.745	1.36
689.152	1.34
689.559	1.34
689.966	1.32
690.373	1.33
690.78	1.32
691.187	1.33
691.593	1.33
692	1.34
692.407	1.34
692.813	1.36
693.22	1.34
693.626	1.34
694.032	1.33
694.439	1.35
694.845	1.35
695.251	1.36
695.657	1.36
696.063	1.36
696.469	1.37
696.875	1.36
697.281	1.34
697.687	1.35
698.093	1.36
698.498	1.36
698.904	1.36
699.31	1.37
699.715	1.37
700.12	1.36
700.526	1.38
700.931	1.37
701.337	1.37
701.742	1.37
702.147	1.37
702.552	1.36
702.957	1.38
703.362	1.37
703.767	1.36
704.172	1.36
704.577	1.36
704.981	1.36
705.386	1.37
705.791	1.36
706.195	1.39
706.6	1.38
707.004	1.38
707.408	1.39
707.813	1.36
708.217	1.35
708.621	1.37
709.025	1.36
709.43	1.34
709.834	1.36
710.237	1.35
710.641	1.35
711.045	1.33
711.449	1.32
711.853	1.31
712.256	1.32
712.66	1.32
713.064	1.3
713.467	1.31
713.87	1.31
714.274	1.3
714.677	1.29
715.08	1.27
715.484	1.28
715.887	1.28
716.29	1.28
716.693	1.29
717.096	1.3
717.499	1.3
717.901	1.3
718.304	1.31
718.707	1.31
719.109	1.31
719.512	1.33
719.915	1.33
720.317	1.34
720.719	1.36
721.122	1.35
721.524	1.34
721.926	1.33
722.328	1.32
722.731	1.31
723.133	1.3
723.535	1.3
723.937	1.29
724.338	1.28
724.74	1.27
725.142	1.2
725.544	1.18
725.945	1.16
726.347	1.16
726.748	1.16
727.15	1.16
727.551	1.17
727.952	1.16
728.354	1.18
728.755	1.19
729.156	1.19
729.557	1.26
729.958	1.27
730.359	1.29
730.76	1.3
731.161	1.3
731.562	1.31
731.962	1.3
732.363	1.31
732.763	1.29
733.164	1.28
733.564	1.29
733.965	1.3
734.365	1.32
734.766	1.31
735.166	1.31
735.566	1.31
735.966	1.28
736.366	1.29
736.766	1.28
737.166	1.28
737.566	1.28
737.966	1.28
738.365	1.27
738.765	1.25
739.165	1.25
739.564	1.26
739.964	1.27
740.363	1.29
740.763	1.28
741.162	1.3
741.561	1.31
741.96	1.32
742.36	1.31
742.759	1.31
743.158	1.29
743.557	1.29
743.955	1.29
744.354	1.29
744.753	1.29
745.152	1.3
745.55	1.27
745.949	1.27
746.348	1.28
746.746	1.28
747.144	1.28
747.543	1.31
747.941	1.31
748.339	1.31
748.737	1.31
749.136	1.3
749.534	1.29
749.932	1.3
750.33	1.3
750.727	1.3
751.125	1.29
751.523	1.3
751.921	1.31
752.318	1.29
752.716	1.3
753.113	1.31
753.511	1.31
753.908	1.31
754.305	1.3
754.703	1.3
755.1	1.28
755.497	1.3
755.894	1.29
756.291	1.29
756.688	1.3
757.085	1.28
757.482	1.27
757.878	1.27
758.275	1.28
758.672	1.28
759.068	1.28
759.465	1.29
759.861	1.27
760.258	1.26
760.654	1.25
761.05	1.25
761.447	1.28
761.843	1.28
762.239	1.28
762.635	1.25
763.031	1.26
763.427	1.27
763.822	1.26
764.218	1.28
764.614	1.28
765.01	1.26
765.405	1.26
765.801	1.25
766.196	1.26
766.592	1.25
766.987	1.27
767.382	1.26
767.778	1.25
768.173	1.24
768.568	1.22
768.963	1.22
769.358	1.24
769.753	1.24
770.148	1.24
770.542	1.23
770.937	1.23
771.332	1.22
771.726	1.23
772.121	1.21
772.515	1.21
772.91	1.2
773.304	1.2
773.699	1.21
774.093	1.19
774.487	1.18
774.881	1.18
775.275	1.18
775.669	1.18
776.063	1.16
776.457	1.17
776.851	1.16
777.245	1.16
777.638	1.16
778.032	1.14
778.425	1.13
778.819	1.15
779.212	1.16
779.606	1.16
779.999	1.17
780.392	1.18
780.786	1.19
781.179	1.2
781.572	1.2
781.965	1.19
782.358	1.18
782.751	1.19
783.143	1.18
783.536	1.16
783.929	1.15
784.322	1.15
784.714	1.15
785.107	1.15
785.499	1.14
785.891	1.13
786.284	1.13
786.676	1.13
787.068	1.14
787.46	1.15
787.852	1.15
788.245	1.15
788.636	1.15
789.028	1.15
789.42	1.14
789.812	1.14
790.204	1.15
790.595	1.16
790.987	1.15
791.378	1.16
791.77	1.17
792.161	1.17
792.553	1.15
792.944	1.15
793.335	1.15
793.726	1.14
794.117	1.16
794.508	1.17
794.899	1.18
795.29	1.19
795.681	1.18
796.072	1.18
796.463	1.14
796.853	1.17
797.244	1.14
797.634	1.12
798.025	1.13
798.415	1.13
798.806	1.14
799.196	1.12
799.586	1.11
799.976	1.12
800.366	1.1
800.756	1.14
801.146	1.15
801.536	1.17
801.926	1.2
802.316	1.21
802.706	1.22
803.095	1.21
803.485	1.21
803.874	1.21
804.264	1.22
804.653	1.23
805.043	1.24
805.432	1.21
805.821	1.2
806.21	1.19
806.599	1.2
806.988	1.18
807.377	1.19
807.766	1.2
808.155	1.22
808.544	1.22
808.933	1.21
809.321	1.2
809.71	1.21
810.098	1.22
810.487	1.22
810.875	1.24
811.264	1.24
811.652	1.21
812.04	1.22
812.428	1.21
812.816	1.21
813.204	1.22
813.592	1.21
813.98	1.22
814.368	1.23
814.756	1.22
815.144	1.21
815.531	1.22
815.919	1.24
816.306	1.25
816.694	1.26
817.081	1.26
817.469	1.26
817.856	1.27
818.243	1.29
818.63	1.3
819.017	1.32
819.404	1.32
819.791	1.33
820.178	1.33
820.565	1.31
820.952	1.29
821.339	1.3
821.725	1.32
822.112	1.32
822.498	1.32
822.885	1.31
823.271	1.31
823.657	1.32
824.044	1.32
824.43	1.34
824.816	1.33
825.202	1.34
825.588	1.35
825.974	1.35
826.36	1.34
826.746	1.33
827.132	1.31
827.517	1.29
827.903	1.31
828.289	1.31
828.674	1.3
829.06	1.33
829.445	1.34
829.83	1.34
830.216	1.36
830.601	1.37
830.986	1.39
831.371	1.41
831.756	1.42
832.141	1.41
832.526	1.4
832.911	1.41
833.295	1.41
833.68	1.4
834.065	1.41
834.449	1.39
834.834	1.39
835.218	1.38
835.603	1.37
835.987	1.38
836.371	1.39
836.755	1.4
837.139	1.41
837.524	1.41
837.908	1.42
838.291	1.4
838.675	1.4
839.059	1.4
839.443	1.41
839.827	1.42
840.21	1.41
840.594	1.41
840.977	1.4
841.361	1.38
841.744	1.38
842.127	1.39
842.511	1.4
842.894	1.4
843.277	1.41
843.66	1.39
844.043	1.4
844.426	1.39
844.809	1.4
845.191	1.4
845.574	1.41
845.957	1.4
846.339	1.4
846.722	1.39
847.104	1.41
847.487	1.4
847.869	1.41
848.252	1.42
848.634	1.43
849.016	1.43
849.398	1.43
849.78	1.43
850.162	1.44
850.544	1.44
850.926	1.44
851.307	1.44
851.689	1.43
852.071	1.43
852.452	1.43
852.834	1.44
853.215	1.43
853.597	1.44
853.978	1.42
854.359	1.41
854.741	1.41
855.122	1.42
855.503	1.42
855.884	1.41
856.265	1.41
856.646	1.39
857.026	1.39
857.407	1.38
857.788	1.37
858.169	1.39
858.549	1.38
858.93	1.38
859.31	1.38
859.69	1.39
860.071	1.4
860.451	1.41
860.831	1.41
861.211	1.41
861.591	1.42
861.971	1.42
862.351	1.43
862.731	1.43
863.111	1.44
863.491	1.44
863.87	1.43
864.25	1.42
864.629	1.42
865.009	1.43
865.388	1.42
865.768	1.42
866.147	1.41
866.526	1.42
866.905	1.42
867.284	1.41
867.663	1.41
868.042	1.41
868.421	1.39
868.8	1.39
869.179	1.38
869.558	1.39
869.936	1.4
870.315	1.41
870.693	1.41
871.072	1.41
871.45	1.41
871.828	1.41
872.207	1.4
872.585	1.41
872.963	1.42
873.341	1.42
873.719	1.43
874.097	1.43
874.475	1.42
874.853	1.41
875.23	1.41
875.608	1.4
875.986	1.39
876.363	1.4
876.741	1.4
877.118	1.39
877.495	1.4
877.873	1.37
878.25	1.36
878.627	1.36
879.004	1.36
879.381	1.36
879.758	1.35
880.135	1.37
880.512	1.37
880.889	1.38
881.265	1.4
881.642	1.39
882.019	1.41
882.395	1.42
882.772	1.43
883.148	1.43
883.524	1.42
883.901	1.44
884.277	1.44
884.653	1.45
885.029	1.44
885.405	1.43
885.781	1.42
886.157	1.43
886.532	1.44
886.908	1.43
887.284	1.44
887.659	1.46
888.035	1.45
888.411	1.45
888.786	1.46
889.161	1.45
889.537	1.46
889.912	1.47
890.287	1.49
890.662	1.48
891.037	1.48
891.412	1.47
891.787	1.47
892.162	1.48
892.536	1.49
892.911	1.5
893.286	1.51
893.66	1.52
894.035	1.52
894.409	1.52
894.784	1.52
895.158	1.54
895.532	1.53
895.906	1.54
896.281	1.54
896.655	1.53
897.029	1.51
897.402	1.5
897.776	1.49
898.15	1.48
898.524	1.47
898.898	1.48
899.271	1.45
899.645	1.47
900.018	1.44
900.392	1.44
900.765	1.43
901.138	1.43
901.511	1.42
901.884	1.42
902.258	1.41
902.631	1.41
903.003	1.38
903.376	1.39
903.749	1.39
904.122	1.41
904.495	1.39
904.867	1.37
905.24	1.38
905.612	1.4
905.985	1.41
906.357	1.42
906.729	1.43
907.102	1.43
907.474	1.43
907.846	1.43
908.218	1.43
908.59	1.42
908.962	1.44
909.334	1.42
909.705	1.4
910.077	1.38
910.449	1.38
910.82	1.37
911.192	1.36
911.563	1.33
911.935	1.31
912.306	1.31
912.677	1.34
913.048	1.33
913.419	1.32
913.79	1.32
914.161	1.31
914.532	1.32
914.903	1.32
915.274	1.31
915.645	1.35
916.015	1.36
916.386	1.34
916.756	1.31
917.127	1.31
917.497	1.31
917.868	1.32
918.238	1.34
918.608	1.32
918.978	1.33
919.348	1.32
919.718	1.28
920.088	1.26
920.458	1.27
920.828	1.28
921.198	1.27
921.567	1.26
921.937	1.27
922.306	1.27
922.676	1.24
923.045	1.22
923.415	1.22
923.784	1.21
924.153	1.23
924.522	1.23
924.891	1.21
925.26	1.22
925.629	1.22
925.998	1.19
926.367	1.18
926.736	1.18
927.104	1.18
927.473	1.2
927.842	1.22
928.21	1.22
928.578	1.24
928.947	1.25
929.315	1.24
929.683	1.22
930.051	1.25
930.42	1.21
930.788	1.2
931.156	1.22
931.523	1.18
931.891	1.15
932.259	1.16
932.627	1.12
932.994	1.12
933.362	1.09
933.729	1.06
934.097	1.02
934.464	1.04
934.831	1.08
935.199	1.04
935.566	1.06
935.933	1.06
936.3	1.04
936.667	1.05
937.034	1.02
937.401	0.95
937.767	1.01
938.134	0.95
938.501	0.92
938.867	0.88
939.234	0.84
939.6	0.79
939.967	0.77
940.333	0.73
940.699	0.72
941.065	0.65
941.431	0.65
941.798	0.6
942.163	0.65
942.529	0.61
942.895	0.51
943.261	0.49
943.627	0.45
943.992	0.46
944.358	0.43
944.723	0.4
945.089	0.38
945.454	0.44
945.82	0.37
946.185	0.37
946.55	0.37
946.915	0.42
947.28	0.43
947.645	0.42
948.01	0.4
948.375	0.38
948.74	0.38
949.104	0.45
949.469	0.46
949.834	0.5
950.198	0.57
950.562	0.65
950.927	0.63
951.291	0.65
951.655	0.67
952.02	0.66
952.384	0.71
952.748	0.71
953.112	0.66
953.476	0.64
953.839	0.67
954.203	0.59
954.567	0.53
954.931	0.59
955.294	0.61
955.658	0.63
956.021	0.67
956.385	0.7
956.748	0.7
957.111	0.78
957.474	0.79
957.837	0.78
958.2	0.81
958.563	0.87
958.926	0.85
959.289	0.86
959.652	0.89
960.015	0.92
960.377	0.92
960.74	0.94
961.102	0.93
961.465	0.93
961.827	0.84
962.189	0.8
962.552	0.79
962.914	0.77
963.276	0.73
963.638	0.7
964	0.68
964.362	0.65
964.724	0.66
965.085	0.67
965.447	0.72
965.809	0.79
966.17	0.87
966.532	0.89
966.893	0.95
967.255	0.97
967.616	0.98
967.977	0.96
968.338	0.91
968.699	0.85
969.061	0.77
969.421	0.77
969.782	0.73
970.143	0.69
970.504	0.61
970.865	0.54
971.225	0.55
971.586	0.53
971.946	0.58
972.307	0.53
972.667	0.56
973.027	0.67
973.388	0.6
973.748	0.65
974.108	0.59
974.468	0.67
974.828	0.68
975.188	0.66
975.548	0.67
975.907	0.64
976.267	0.73
976.627	0.66
976.986	0.62
977.346	0.67
977.705	0.7
978.064	0.78
978.424	0.75
978.783	0.71
979.142	0.76
979.501	0.72
979.86	0.71
980.219	0.63
980.578	0.69
980.937	0.61
981.296	0.51
981.654	0.4
982.013	0.38
982.371	0.39
982.73	0.42
983.088	0.33
983.447	0.34
983.805	0.32
984.163	0.33
984.521	0.32
984.879	0.45
985.237	0.51
985.595	0.51
985.953	0.5
986.311	0.48
986.669	0.51
987.026	0.46
987.384	0.34
987.741	0.35
988.099	0.33
988.456	0.42
988.814	0.33
989.171	0.29
989.528	0.31
989.885	0.28
990.242	0.15
990.599	0.11
990.956	0.19
991.313	0.16
991.67	0.1
992.027	0.2
992.383	0.1
992.74	0
993.096	-0.07
993.453	0.06
993.809	0.05
994.165	0.1
994.522	-0.02
994.878	-0.13
995.234	-0.09
995.59	-0.2
995.946	-0.34
996.302	-0.4
996.658	-0.38
997.013	-0.4
997.369	-0.6
997.725	-0.69
998.08	-0.86
998.436	-0.83
998.791	-0.86
999.147	-0.92
999.502	-0.81
999.857	-0.77
1000.212	-0.86
1000.567	-0.85
1000.922	-0.89
1001.277	-0.92
1001.632	-0.8
1001.987	-0.75
1002.342	-0.72
1002.696	-0.74
1003.051	-0.81
1003.406	-1.06
1003.76	-1.17
1004.114	-1.21
1004.469	-1.31
1004.823	-1.27
1005.177	-1.25
1005.531	-1.53
1005.885	-1.56
1006.239	-1.81
1006.593	-1.79
1006.947	-1.71
1007.301	-1.69
1007.655	-1.74
1008.008	-1.73
1008.362	-1.72
1008.715	-1.8
1009.069	-1.87
1009.422	-1.85
1009.776	-1.7
1010.129	-1.58
1010.482	-1.47
1010.835	-1.53
1011.188	-1.66
1011.541	-1.79
1011.894	-1.79
1012.247	-2
1012.6	-1.99
1012.952	-1.99
1013.305	-1.96
1013.657	-1.98
1014.01	-1.84
1014.362	-2.06
1014.715	-2.25
1015.067	-1.95
1015.419	-1.85
1015.771	-1.83
1016.123	-1.75
1016.475	-1.72
1016.827	-1.82
1017.179	-2
1017.531	-2.25
1017.883	-2.65
1018.234	-2.99
1018.586	-3.18
1018.938	-3.52
1019.289	-3.82
1019.64	-3.76
1019.992	-3.92
1020.343	-3.89
1020.694	-4.19
1021.045	-4.28
1021.396	-4.58
1021.747	-4.33
1022.098	-3.84
1022.449	-3.52
1022.8	-3.52
1023.151	-3.68
1023.501	-3.96
1023.852	-4.01
1024.202	-3.98
1024.553	-4.05
1024.903	-3.86
1025.253	-3.73
1025.604	-3.86
1025.954	-4.41
1026.304	-4.22
1026.654	-4.21
1027.004	-3.97
1027.354	-4.55
1027.703	-4.39
1028.053	-4.75
1028.403	-4.96
1028.753	-5.27
1029.102	-5.07
1029.452	-5.07
1029.801	-4.78
1030.15	-5.09
1030.499	-5.17
897.758	513.13
901.051	524.41
904.343	528
907.636	521.1
910.928	511.24
914.22	517.95
917.511	507.25
920.803	484.83
924.094	463.35
927.384	467.77
930.675	450.61
933.965	446.95
937.255	442.36
940.544	420.82
943.834	398.39
947.123	392.2
950.411	371.82
953.7	364.1
956.988	353.55
960.276	339.17
963.563	329.85
966.851	309.12
970.138	304.52
973.424	283.34
976.711	279.6
979.997	270.43
983.283	261.58
986.568	251.67
989.853	245.85
993.138	233.6
996.423	227.87
999.708	221.58
1002.992	222.01
1006.275	212.84
1009.559	210.97
1012.842	203.35
1016.125	195.63
1019.408	191.9
1022.69	191.18
1025.972	185.55
1029.254	181.9
1032.536	176.94
1035.817	170.31
1039.098	167.76
1042.379	164.07
1045.659	160.38
1048.939	158.64
1052.219	154.78
1055.498	151.37
1058.778	146.22
1062.057	145.68
1065.335	144.52
1068.614	141.36
1071.892	138.44
1075.17	135.05
1078.447	131.84
1081.724	130.9
1085.001	126.61
1088.278	127.31
1091.554	125.49
1094.83	124.81
1098.106	121.21
1101.382	119.61
1104.657	119.77
1107.932	119.73
1111.206	118.87
1114.481	116.36
1117.755	115.1
1121.029	115.72
1124.302	112.29
1127.575	110.67
1130.848	109.54
1134.121	108.46
1137.393	108.25
1140.665	106.52
1143.937	105.11
1147.208	103.52
1150.48	103.56
1153.75	102.01
1157.021	100.24
1160.291	99.98
1163.561	99.69
1166.831	99.19
1170.101	98.48
1173.37	98.12
1176.639	97.19
1179.907	96.35
1183.176	96.14
1186.444	96.53
1189.711	95.78
1192.979	96.28
1196.246	96.96
1199.513	96.71
1202.78	96.43
1206.046	96.23
1209.312	96.48
1212.578	97.57
1215.843	99.74
1219.108	100.75
1222.373	102.86
1225.638	105.72
1228.902	108.94
1232.166	113.39
1235.43	116.22
1238.693	120.39
1241.956	124.07
1245.219	127.06
1248.482	127.79
1251.744	128.09
1255.006	128.56
1258.268	123.8
1261.529	122.58
1264.79	118.47
1268.051	114.84
1271.312	113.65
1274.572	110.52
1277.832	106.57
1281.092	104.71
1284.351	102.49
1287.61	102.27
1290.869	100.11
1294.128	99.96
1297.386	99.88
1300.644	100.06
1303.902	98.66
1307.159	97.77
1310.416	99
1313.673	100.41
1316.93	103.06
1320.186	104.91
1323.442	107.08
1326.697	111.02
1329.953	112.36
1333.208	116.48
1336.463	123.85
1339.717	127.41
1342.972	136.66
1346.226	140.47
1349.479	142.98
1352.733	150.02
1355.986	155.14
1359.238	158.82
1362.491	161.66
1365.743	169.55
1368.995	172.51
1372.247	172.29
1375.498	172.65
1378.749	178.88
1382	180.49
1385.251	180.34
1388.501	182.51
1391.751	185.77
1395	183.56
1398.25	185.04
1401.499	184.99
1404.748	184.37
1407.996	179.71
1411.244	180.68
1414.492	177.69
1417.74	174.31
1420.987	169.69
1424.234	165.39
1427.481	158.63
1430.728	155.65
1433.974	149.89
1437.22	144.82
1440.465	139.1
1443.711	135.22
1446.956	130.78
1450.201	125.19
1453.445	118.87
1456.689	116.01
1459.933	110.87
1463.177	105.21
1466.42	103.12
1469.663	99.89
1472.906	96.58
1476.148	93.26
1479.391	90.61
1482.633	88.52
1485.874	86.51
1489.115	85.51
1492.356	82.92
1495.597	81.16
1498.838	80.89
1502.078	79.18
1505.318	78.36
1508.557	77.17
1511.797	76.16
1515.036	75.17
1518.274	74.33
1521.513	72.02
1524.751	71.31
1527.989	71.77
1531.227	71.28
1534.464	70.48
1537.701	69.32
1540.938	68.75
1544.174	68.82
1547.41	68.65
1550.646	68.43
1553.882	68.02
1557.117	67.49
1560.352	66.66
1563.587	65.17
1566.821	65.1
1570.055	64.18
1573.289	63.99
1576.523	63.63
1579.756	62.66
1582.989	62.37
1586.222	61.21
1589.454	61.43
1592.686	61.7
1595.918	61.35
1599.15	61.12
1602.381	61.02
1605.612	60.95
1608.843	60.69
1612.073	61.14
1615.303	61.43
1618.533	60.69
1621.762	60.96
1624.992	60.84
1628.221	60
1631.449	60.59
1634.678	60.65
1637.906	60.71
1641.134	61.02
1644.361	60.76
1647.588	60.83
1650.815	60.93
1654.042	61.31
1657.269	61.14
1660.495	61.4
1663.72	61.73
1666.946	61.36
1670.171	61.85
1673.396	62.16
1676.621	61.79
1679.845	62.82
1683.069	62.31
1686.293	62.05
1689.517	62.06
1692.74	62.47
1695.963	62.07
1699.185	62.86
1702.408	62.56
1705.63	62.55
1708.852	63.37
1712.073	63.22
1715.294	62.52
1718.515	64.2
1721.736	64.39
1724.956	64.76
1728.176	64.83
1731.396	65.15
1734.616	65.54
1737.835	66.63
1741.054	66.55
1744.272	66.29
1747.491	66.96
1750.709	68.17
1753.927	67.61
1757.144	68.43
1760.361	68.76
1763.578	69.33
1766.795	70.22
1770.011	70.6
1773.227	71.1
1776.443	72.08
1779.658	71.83
1782.874	72.73
1786.089	72.01
1789.303	72.46
1792.518	73.55
1795.732	74.45
1798.945	75.32
1802.159	75.16
1805.372	75.37
1808.585	76.31
1811.797	77.04
1815.01	78.33
1818.222	78.96
1821.434	81.29
1824.645	81.56
1827.856	82.29
1831.067	82.81
1834.278	85.18
1837.488	86.29
1840.698	87.75
1843.908	87.61
1847.117	90.03
1850.326	91.28
1853.535	93.01
1856.744	93.92
1859.952	96.77
1863.16	97.14
1866.368	98.57
1869.575	99.68
1872.782	101.46
1875.989	102.04
1879.196	103.84
1882.402	103.51
1885.608	104.96
1888.814	105.47
1892.019	108.24
1895.224	106.99
1898.429	108.8
1901.634	109.72
1904.838	109.96
1908.042	111.35
1911.246	111.06
1914.449	111.11
1917.652	111.37
1920.855	111.38
1924.058	110.82
1927.26	109.51
1930.462	111.11
1933.664	109.95
1936.865	111.03
1940.066	109.27
1943.267	108.8
1946.467	110.45
1949.668	109.99
1952.868	110.45
1956.067	110.46
1959.267	111.38
1962.466	111.9
1965.665	111.84
1968.863	113.31
1972.061	113.13
1975.259	116.19
1978.457	117.19
1981.654	117.42
1984.852	118.76
1988.048	120.38
1991.245	122.34
1994.441	124.51
1997.637	127.87
2000.833	130.46
2004.028	130.94
2007.223	134.59
2010.418	137.64
2013.613	142.94
2016.807	147.04
2020.001	150.08
2023.194	153.6
2026.388	158.17
2029.581	167.06
2032.774	170.6
2035.966	175.7
2039.158	181.12
2042.35	185.07
2045.542	186.25
2048.733	193.86
2051.924	196.75
2055.115	200.61
2058.306	203.43
2061.496	206.04
2064.686	205.38
2067.875	204.2
2071.065	206.85
2074.254	207.85
2077.442	211.01
2080.631	215.58
2083.819	214.98
2087.007	218.87
2090.195	219.56
2093.382	220.5
2096.569	221.59
2099.756	223.77
2102.942	228.66
2106.128	232.42
2109.314	234.44
2112.5	236.66
2115.685	232.81
2118.87	233.14
2122.055	235.23
2125.239	240.4
2128.424	243.32
2131.608	243.11
2134.791	245.71
2137.974	245.72
2141.157	247.9
2144.34	249.1
2147.523	253.05
2150.705	261.65
2153.887	258.61
2157.068	258.82
2160.25	262.31
2163.431	263.09
2166.611	265.28
2169.792	268.77
2172.972	273.58
2176.152	274.28
2179.331	280.66
2182.511	282.63
2185.69	284.36
2188.868	295.47
2192.047	302.82
2195.225	307.83
2198.403	311.67
2201.58	312.66
2204.758	320.96
2207.935	322.67
2211.111	330.9
2214.288	334
2217.464	335.68
2220.64	339.37
2223.815	340.24
2226.991	333.97
2230.166	337.09
2233.34	347.13
2236.515	357
2239.689	351.78
2242.863	359.95
2246.036	354.33
2249.209	360.6
2252.382	362.8
2255.555	375.88
2258.727	379.03
2261.9	392.78
2265.071	398.43
2268.243	396.61
2271.414	406.71
2274.585	417.46
2277.756	416.75
2280.926	435.34
2284.096	435.81
2287.266	435.12
2290.436	430.96
2293.605	440.47
2296.774	455.12
2299.942	456.42
2303.111	469.07
2306.279	480.58
2309.447	481.46
2312.614	484.3
2315.781	493.48
2318.948	501.67
2322.115	512.81
2325.281	532.58
2328.447	533.38
2331.613	539.29
2334.779	545.55
2337.944	553.29
2341.109	558.38
2344.274	562.34
2347.438	577.76
2350.602	585.16
2353.766	624.85
2356.929	627.56
2360.092	636.36
2363.255	636.7
2366.418	643.15
2369.58	652.5
2372.742	660.54
2375.904	658.04
2379.066	680.55
2382.227	714.6
2385.388	713.05
2388.548	676.39
2391.709	667.31
2394.869	692.45
2398.029	698.46
2401.188	698.24
2404.347	720.3
2407.506	737.2
2410.665	712.94
2413.823	720.71
2416.981	724.34
2420.139	689.44
2423.296	743.31
2426.453	798.95
2429.61	754.49
2432.767	798.16
2435.923	824.89
2439.079	801.1
2442.235	823.05
2445.391	839.73
2448.546	823.2
2451.701	870.28
2454.855	931.1
2458.009	820.67
2461.163	825.94
2464.317	852.15
2467.471	834.47
2470.624	861.9
2473.777	851.66
2476.929	821.71
2480.082	875.89
2483.234	923.77
2486.385	936.85
2489.537	961.11
2492.688	1061.29
2495.839	1046.14
2498.989	1070.39
2502.14	1071.41
2505.29	1026.33
2508.439	1132.07
2511.589	1159.92
2514.738	1119.48
2517.887	1109.53
2521.035	1034.75
2524.183	1023.93
2527.331	1010.84
2530.479	988.08
2533.627	1001.35
