Data from C_3_div_oh_2n_Splice17_06.txt Node
Date: Sat Feb 29 14:38:47 EST 2020
User: sa697716
Spectrometer: FLMS03696
Trigger mode: 0
Integration Time (sec): 3.180400E-1
Scans to average: 20
Electric dark correction enabled: true
Nonlinearity correction enabled: true
Boxcar width: 5
XAxis mode: Wavelengths
Number of Pixels in Spectrum: 2048
>>>>>Begin Spectral Data<<<<<
187.83	33.37
188.298	23.83
188.766	30.23
189.233	17.71
189.701	37.9
190.169	38.13
190.636	34.11
191.104	-22
191.571	-164.28
192.039	-9.44
192.506	474.41
192.974	5527.87
193.441	-247.47
193.908	72.68
194.375	-27.87
194.842	48.68
195.31	8.93
195.777	-13.19
196.244	-46.57
196.711	-28.09
197.177	-29.57
197.644	-27.43
198.111	-27.32
198.578	-26.3
199.045	-25.87
199.511	-24.8
199.978	-24.04
200.445	-24.06
200.911	-23.34
201.378	-22.96
201.844	-22.39
202.31	-21.45
202.777	-20.89
203.243	-20.09
203.709	-19.38
204.176	-19.36
204.642	-18.91
205.108	-18.76
205.574	-17.7
206.04	-17.62
206.506	-17.57
206.972	-17.35
207.438	-17.22
207.903	-16.71
208.369	-16.29
208.835	-16.29
209.301	-15.55
209.766	-14.94
210.232	-14.13
210.697	-13.52
211.163	-12.81
211.628	-12.22
212.094	-11.83
212.559	-11.43
213.024	-11.17
213.49	-10.88
213.955	-9.85
214.42	-9.23
214.885	-8.7
215.35	-7.91
215.815	-7.26
216.28	-6.18
216.745	-4.67
217.21	-3.03
217.675	-1.41
218.14	-0.5
218.604	0.32
219.069	1.03
219.534	1.75
219.998	2.24
220.463	2.67
220.927	3.12
221.392	3.44
221.856	3.67
222.32	3.76
222.785	3.8
223.249	4
223.713	4.16
224.177	4.21
224.642	4.28
225.106	4.37
225.57	4.42
226.034	4.51
226.497	4.5
226.961	4.51
227.425	4.53
227.889	4.55
228.353	4.52
228.816	4.54
229.28	4.52
229.744	4.51
230.207	4.51
230.671	4.48
231.134	4.43
231.597	4.42
232.061	4.39
232.524	4.38
232.987	4.36
233.45	4.35
233.914	4.33
234.377	4.31
234.84	4.28
235.303	4.25
235.766	4.22
236.229	4.19
236.691	4.16
237.154	4.14
237.617	4.1
238.08	4.07
238.542	4.03
239.005	3.98
239.468	3.93
239.93	3.89
240.393	3.86
240.855	3.83
241.317	3.82
241.78	3.79
242.242	3.76
242.704	3.74
243.166	3.71
243.629	3.69
244.091	3.67
244.553	3.67
245.015	3.67
245.477	3.65
245.939	3.62
246.4	3.6
246.862	3.58
247.324	3.57
247.786	3.57
248.247	3.57
248.709	3.55
249.17	3.55
249.632	3.53
250.093	3.5
250.555	3.49
251.016	3.5
251.477	3.49
251.939	3.49
252.4	3.48
252.861	3.47
253.322	3.46
253.783	3.46
254.244	3.45
254.705	3.45
255.166	3.47
255.627	3.47
256.088	3.46
256.549	3.46
257.009	3.45
257.47	3.45
257.931	3.45
258.391	3.43
258.852	3.42
259.312	3.42
259.773	3.4
260.233	3.39
260.694	3.38
261.154	3.38
261.614	3.37
262.074	3.37
262.534	3.35
262.994	3.34
263.455	3.34
263.915	3.34
264.374	3.34
264.834	3.34
265.294	3.34
265.754	3.34
266.214	3.34
266.673	3.33
267.133	3.33
267.593	3.33
268.052	3.32
268.512	3.32
268.971	3.32
269.431	3.31
269.89	3.3
270.349	3.29
270.809	3.28
271.268	3.27
271.727	3.26
272.186	3.25
272.645	3.24
273.104	3.24
273.563	3.24
274.022	3.23
274.481	3.23
274.94	3.22
275.399	3.22
275.857	3.22
276.316	3.21
276.775	3.2
277.233	3.19
277.692	3.19
278.15	3.18
278.609	3.16
279.067	3.15
279.525	3.14
279.984	3.14
280.442	3.12
280.9	3.12
281.358	3.11
281.816	3.1
282.274	3.09
282.732	3.08
283.19	3.08
283.648	3.07
284.106	3.07
284.564	3.06
285.021	3.06
285.479	3.06
285.937	3.05
286.394	3.04
286.852	3.04
287.309	3.04
287.767	3.04
288.224	3.04
288.682	3.03
289.139	3.04
289.596	3.04
290.053	3.03
290.511	3.03
290.968	3.04
291.425	3.05
291.882	3.05
292.339	3.05
292.796	3.04
293.252	3.04
293.709	3.04
294.166	3.04
294.623	3.04
295.079	3.04
295.536	3.03
295.992	3.01
296.449	3.01
296.905	3
297.362	3
297.818	2.99
298.274	2.98
298.731	2.98
299.187	2.97
299.643	2.96
300.099	2.95
300.555	2.95
301.011	2.94
301.467	2.93
301.923	2.92
302.379	2.92
302.835	2.9
303.291	2.9
303.746	2.89
304.202	2.88
304.658	2.87
305.113	2.86
305.569	2.86
306.024	2.85
306.479	2.84
306.935	2.83
307.39	2.81
307.845	2.81
308.301	2.8
308.756	2.78
309.211	2.78
309.666	2.78
310.121	2.77
310.576	2.75
311.031	2.75
311.486	2.75
311.94	2.74
312.395	2.74
312.85	2.73
313.305	2.72
313.759	2.71
314.214	2.7
314.668	2.68
315.123	2.68
315.577	2.68
316.032	2.68
316.486	2.66
316.94	2.66
317.394	2.66
317.849	2.65
318.303	2.65
318.757	2.65
319.211	2.65
319.665	2.64
320.119	2.64
320.572	2.64
321.026	2.64
321.48	2.63
321.934	2.63
322.387	2.62
322.841	2.61
323.295	2.61
323.748	2.6
324.202	2.6
324.655	2.59
325.108	2.58
325.562	2.57
326.015	2.56
326.468	2.55
326.921	2.54
327.374	2.54
327.827	2.53
328.28	2.51
328.733	2.5
329.186	2.49
329.639	2.48
330.092	2.47
330.545	2.47
330.997	2.47
331.45	2.46
331.903	2.45
332.355	2.45
332.808	2.44
333.26	2.45
333.713	2.45
334.165	2.45
334.617	2.46
335.069	2.46
335.522	2.46
335.974	2.45
336.426	2.45
336.878	2.45
337.33	2.45
337.782	2.44
338.234	2.44
338.686	2.43
339.137	2.43
339.589	2.42
340.041	2.42
340.493	2.41
340.944	2.42
341.396	2.43
341.847	2.42
342.299	2.41
342.75	2.41
343.201	2.41
343.653	2.41
344.104	2.41
344.555	2.4
345.006	2.4
345.457	2.4
345.908	2.39
346.359	2.39
346.81	2.41
347.261	2.42
347.712	2.42
348.163	2.42
348.613	2.41
349.064	2.4
349.515	2.39
349.965	2.39
350.416	2.38
350.866	2.38
351.317	2.38
351.767	2.37
352.217	2.36
352.668	2.36
353.118	2.36
353.568	2.37
354.018	2.38
354.468	2.38
354.918	2.38
355.368	2.39
355.818	2.38
356.268	2.38
356.718	2.37
357.168	2.35
357.617	2.35
358.067	2.34
358.517	2.33
358.966	2.33
359.416	2.34
359.865	2.34
360.315	2.34
360.764	2.35
361.213	2.35
361.663	2.35
362.112	2.36
362.561	2.36
363.01	2.37
363.459	2.36
363.908	2.35
364.357	2.35
364.806	2.35
365.255	2.34
365.703	2.33
366.152	2.33
366.601	2.33
367.05	2.32
367.498	2.32
367.947	2.31
368.395	2.33
368.844	2.32
369.292	2.33
369.74	2.32
370.189	2.32
370.637	2.32
371.085	2.33
371.533	2.32
371.981	2.32
372.429	2.32
372.877	2.31
373.325	2.3
373.773	2.3
374.221	2.29
374.669	2.28
375.116	2.28
375.564	2.27
376.012	2.26
376.459	2.27
376.907	2.27
377.354	2.25
377.801	2.25
378.249	2.25
378.696	2.25
379.143	2.25
379.591	2.25
380.038	2.25
380.485	2.25
380.932	2.25
381.379	2.23
381.826	2.22
382.273	2.23
382.72	2.23
383.166	2.24
383.613	2.24
384.06	2.25
384.506	2.24
384.953	2.24
385.4	2.24
385.846	2.23
386.292	2.23
386.739	2.23
387.185	2.24
387.631	2.24
388.078	2.24
388.524	2.22
388.97	2.21
389.416	2.21
389.862	2.21
390.308	2.2
390.754	2.2
391.2	2.21
391.645	2.21
392.091	2.2
392.537	2.19
392.983	2.18
393.428	2.19
393.874	2.19
394.319	2.19
394.765	2.18
395.21	2.17
395.655	2.18
396.101	2.17
396.546	2.17
396.991	2.17
397.436	2.15
397.881	2.14
398.326	2.14
398.771	2.14
399.216	2.14
399.661	2.14
400.106	2.15
400.551	2.14
400.995	2.13
401.44	2.12
401.885	2.12
402.329	2.13
402.774	2.11
403.218	2.11
403.663	2.09
404.107	2.08
404.551	2.08
404.995	2.07
405.44	2.06
405.884	2.05
406.328	2.05
406.772	2.05
407.216	2.04
407.66	2.05
408.104	2.04
408.547	2.05
408.991	2.05
409.435	2.04
409.879	2.03
410.322	2.03
410.766	2.04
411.209	2.04
411.653	2.03
412.096	2.02
412.54	2.01
412.983	2
413.426	1.99
413.869	1.98
414.312	1.98
414.756	1.98
415.199	1.99
415.642	1.99
416.085	1.99
416.527	1.99
416.97	1.99
417.413	1.98
417.856	1.97
418.298	1.98
418.741	1.96
419.184	1.96
419.626	1.94
420.069	1.93
420.511	1.91
420.953	1.9
421.396	1.91
421.838	1.93
422.28	1.94
422.722	1.94
423.164	1.94
423.606	1.94
424.048	1.93
424.49	1.96
424.932	1.95
425.374	1.96
425.816	1.95
426.258	1.93
426.699	1.91
427.141	1.9
427.582	1.9
428.024	1.89
428.465	1.89
428.907	1.88
429.348	1.87
429.789	1.87
430.231	1.84
430.672	1.84
431.113	1.84
431.554	1.83
431.995	1.81
432.436	1.8
432.877	1.77
433.318	1.74
433.759	1.74
434.2	1.73
434.64	1.7
435.081	1.7
435.522	1.69
435.962	1.69
436.403	1.68
436.843	1.69
437.284	1.69
437.724	1.71
438.164	1.73
438.604	1.73
439.045	1.72
439.485	1.74
439.925	1.73
440.365	1.72
440.805	1.71
441.245	1.71
441.685	1.69
442.125	1.68
442.564	1.68
443.004	1.67
443.444	1.66
443.883	1.66
444.323	1.62
444.762	1.63
445.202	1.64
445.641	1.62
446.081	1.62
446.52	1.59
446.959	1.58
447.398	1.58
447.837	1.61
448.276	1.61
448.716	1.61
449.154	1.63
449.593	1.64
450.032	1.64
450.471	1.65
450.91	1.63
451.349	1.66
451.787	1.66
452.226	1.64
452.664	1.61
453.103	1.62
453.541	1.63
453.98	1.61
454.418	1.62
454.856	1.6
455.295	1.6
455.733	1.62
456.171	1.62
456.609	1.63
457.047	1.64
457.485	1.64
457.923	1.65
458.361	1.63
458.798	1.65
459.236	1.64
459.674	1.64
460.111	1.66
460.549	1.64
460.987	1.64
461.424	1.64
461.862	1.64
462.299	1.64
462.736	1.63
463.173	1.64
463.611	1.62
464.048	1.64
464.485	1.63
464.922	1.61
465.359	1.62
465.796	1.6
466.233	1.6
466.67	1.58
467.106	1.57
467.543	1.57
467.98	1.56
468.416	1.57
468.853	1.55
469.29	1.55
469.726	1.55
470.162	1.55
470.599	1.55
471.035	1.57
471.471	1.55
471.907	1.57
472.344	1.57
472.78	1.57
473.216	1.57
473.652	1.58
474.088	1.59
474.523	1.6
474.959	1.61
475.395	1.62
475.831	1.63
476.266	1.63
476.702	1.64
477.138	1.64
477.573	1.63
478.008	1.64
478.444	1.64
478.879	1.64
479.314	1.64
479.75	1.65
480.185	1.65
480.62	1.65
481.055	1.66
481.49	1.66
481.925	1.66
482.36	1.66
482.795	1.66
483.229	1.67
483.664	1.67
484.099	1.67
484.534	1.66
484.968	1.67
485.403	1.66
485.837	1.66
486.271	1.65
486.706	1.66
487.14	1.67
487.574	1.67
488.009	1.67
488.443	1.66
488.877	1.67
489.311	1.67
489.745	1.67
490.179	1.67
490.613	1.68
491.046	1.68
491.48	1.68
491.914	1.67
492.348	1.67
492.781	1.66
493.215	1.66
493.648	1.67
494.082	1.67
494.515	1.66
494.948	1.66
495.382	1.66
495.815	1.67
496.248	1.66
496.681	1.66
497.114	1.65
497.547	1.65
497.98	1.65
498.413	1.65
498.846	1.64
499.279	1.64
499.711	1.63
500.144	1.64
500.577	1.63
501.009	1.62
501.442	1.62
501.874	1.62
502.306	1.62
502.739	1.6
503.171	1.61
503.603	1.61
504.036	1.61
504.468	1.61
504.9	1.62
505.332	1.61
505.764	1.62
506.196	1.62
506.627	1.61
507.059	1.61
507.491	1.61
507.923	1.61
508.354	1.61
508.786	1.6
509.217	1.58
509.649	1.58
510.08	1.58
510.512	1.57
510.943	1.58
511.374	1.58
511.805	1.58
512.237	1.59
512.668	1.58
513.099	1.58
513.53	1.58
513.961	1.59
514.391	1.59
514.822	1.59
515.253	1.59
515.684	1.59
516.114	1.59
516.545	1.59
516.975	1.59
517.406	1.59
517.836	1.58
518.267	1.58
518.697	1.58
519.127	1.58
519.558	1.58
519.988	1.57
520.418	1.58
520.848	1.58
521.278	1.58
521.708	1.52
522.138	1.52
522.567	1.52
522.997	1.52
523.427	1.52
523.857	1.52
524.286	1.51
524.716	1.5
525.145	1.51
525.575	1.51
526.004	1.51
526.433	1.56
526.863	1.57
527.292	1.57
527.721	1.57
528.15	1.57
528.579	1.56
529.008	1.56
529.437	1.57
529.866	1.55
530.295	1.55
530.724	1.55
531.152	1.57
531.581	1.56
532.01	1.57
532.438	1.57
532.867	1.58
533.295	1.58
533.723	1.58
534.152	1.59
534.58	1.59
535.008	1.58
535.436	1.59
535.865	1.57
536.293	1.58
536.721	1.57
537.149	1.57
537.576	1.57
538.004	1.57
538.432	1.56
538.86	1.56
539.287	1.57
539.715	1.57
540.143	1.58
540.57	1.57
540.998	1.57
541.425	1.56
541.852	1.56
542.28	1.55
542.707	1.56
543.134	1.55
543.561	1.53
543.988	1.53
544.415	1.52
544.842	1.52
545.269	1.52
545.696	1.52
546.123	1.52
546.549	1.51
546.976	1.53
547.403	1.52
547.829	1.53
548.256	1.55
548.682	1.55
549.108	1.56
549.535	1.55
549.961	1.54
550.387	1.54
550.813	1.54
551.24	1.54
551.666	1.55
552.092	1.55
552.518	1.55
552.943	1.54
553.369	1.54
553.795	1.53
554.221	1.53
554.646	1.53
555.072	1.54
555.498	1.56
555.923	1.55
556.349	1.55
556.774	1.55
557.199	1.56
557.625	1.57
558.05	1.57
558.475	1.58
558.9	1.59
559.325	1.58
559.75	1.58
560.175	1.57
560.6	1.59
561.025	1.59
561.449	1.58
561.874	1.58
562.299	1.58
562.723	1.58
563.148	1.57
563.572	1.57
563.997	1.58
564.421	1.58
564.846	1.58
565.27	1.57
565.694	1.57
566.118	1.57
566.542	1.58
566.966	1.59
567.39	1.58
567.814	1.57
568.238	1.57
568.662	1.56
569.086	1.57
569.509	1.57
569.933	1.56
570.357	1.55
570.78	1.55
571.204	1.54
571.627	1.53
572.05	1.54
572.474	1.54
572.897	1.54
573.32	1.54
573.743	1.53
574.166	1.52
574.589	1.52
575.012	1.52
575.435	1.52
575.858	1.53
576.281	1.53
576.704	1.54
577.126	1.54
577.549	1.54
577.972	1.54
578.394	1.54
578.817	1.54
579.239	1.53
579.661	1.53
580.084	1.52
580.506	1.52
580.928	1.51
581.35	1.51
581.772	1.5
582.194	1.49
582.616	1.49
583.038	1.5
583.46	1.5
583.882	1.51
584.303	1.51
584.725	1.5
585.147	1.48
585.568	1.47
585.99	1.47
586.411	1.46
586.833	1.47
587.254	1.48
587.675	1.48
588.096	1.47
588.518	1.49
588.939	1.5
589.36	1.5
589.781	1.52
590.202	1.52
590.623	1.52
591.043	1.52
591.464	1.5
591.885	1.51
592.305	1.52
592.726	1.52
593.147	1.51
593.567	1.51
593.987	1.52
594.408	1.52
594.828	1.53
595.248	1.54
595.669	1.55
596.089	1.55
596.509	1.54
596.929	1.53
597.349	1.52
597.769	1.52
598.189	1.52
598.608	1.52
599.028	1.53
599.448	1.52
599.867	1.52
600.287	1.51
600.706	1.52
601.126	1.52
601.545	1.52
601.965	1.53
602.384	1.53
602.803	1.52
603.222	1.52
603.641	1.52
604.061	1.51
604.48	1.53
604.898	1.52
605.317	1.51
605.736	1.53
606.155	1.53
606.574	1.54
606.992	1.52
607.411	1.54
607.829	1.5
608.248	1.5
608.666	1.5
609.085	1.5
609.503	1.5
609.921	1.5
610.339	1.5
610.758	1.5
611.176	1.5
611.594	1.52
612.012	1.5
612.43	1.55
612.847	1.56
613.265	1.56
613.683	1.56
614.101	1.56
614.518	1.56
614.936	1.55
615.353	1.55
615.771	1.55
616.188	1.55
616.606	1.56
617.023	1.54
617.44	1.54
617.857	1.53
618.274	1.53
618.691	1.52
619.108	1.52
619.525	1.52
619.942	1.52
620.359	1.52
620.776	1.51
621.192	1.51
621.609	1.51
622.026	1.51
622.442	1.51
622.859	1.51
623.275	1.53
623.691	1.53
624.108	1.53
624.524	1.53
624.94	1.52
625.356	1.52
625.772	1.51
626.188	1.52
626.604	1.51
627.02	1.51
627.436	1.52
627.852	1.51
628.268	1.51
628.683	1.51
629.099	1.51
629.514	1.51
629.93	1.52
630.345	1.51
630.761	1.51
631.176	1.51
631.591	1.5
632.007	1.49
632.422	1.5
632.837	1.49
633.252	1.49
633.667	1.47
634.082	1.46
634.497	1.45
634.911	1.45
635.326	1.44
635.741	1.43
636.155	1.44
636.57	1.43
636.984	1.41
637.399	1.4
637.813	1.39
638.228	1.39
638.642	1.39
639.056	1.4
639.47	1.41
639.884	1.4
640.298	1.4
640.712	1.39
641.126	1.4
641.54	1.41
641.954	1.44
642.368	1.45
642.781	1.45
643.195	1.45
643.609	1.44
644.022	1.45
644.436	1.46
644.849	1.46
645.262	1.48
645.676	1.47
646.089	1.46
646.502	1.45
646.915	1.46
647.328	1.46
647.741	1.46
648.154	1.47
648.567	1.46
648.98	1.46
649.393	1.46
649.805	1.44
650.218	1.45
650.631	1.45
651.043	1.45
651.456	1.45
651.868	1.45
652.28	1.45
652.693	1.45
653.105	1.44
653.517	1.44
653.929	1.46
654.341	1.46
654.753	1.46
655.165	1.46
655.577	1.45
655.989	1.44
656.401	1.45
656.813	1.44
657.224	1.44
657.636	1.45
658.047	1.45
658.459	1.43
658.87	1.43
659.282	1.43
659.693	1.42
660.104	1.42
660.515	1.42
660.926	1.43
661.338	1.43
661.749	1.42
662.159	1.41
662.57	1.42
662.981	1.41
663.392	1.4
663.803	1.4
664.213	1.4
664.624	1.4
665.035	1.4
665.445	1.39
665.855	1.39
666.266	1.39
666.676	1.4
667.086	1.39
667.497	1.38
667.907	1.39
668.317	1.38
668.727	1.38
669.137	1.38
669.547	1.38
669.956	1.38
670.366	1.38
670.776	1.38
671.186	1.38
671.595	1.39
672.005	1.39
672.414	1.38
672.824	1.39
673.233	1.4
673.642	1.39
674.052	1.38
674.461	1.39
674.87	1.39
675.279	1.38
675.688	1.37
676.097	1.37
676.506	1.36
676.915	1.37
677.323	1.36
677.732	1.37
678.141	1.37
678.549	1.38
678.958	1.37
679.366	1.36
679.775	1.37
680.183	1.37
680.592	1.36
681	1.35
681.408	1.35
681.816	1.34
682.224	1.34
682.632	1.33
683.04	1.34
683.448	1.34
683.856	1.34
684.264	1.35
684.671	1.36
685.079	1.36
685.487	1.38
685.894	1.39
686.302	1.39
686.709	1.38
687.116	1.38
687.524	1.37
687.931	1.38
688.338	1.38
688.745	1.37
689.152	1.37
689.559	1.36
689.966	1.36
690.373	1.35
690.78	1.35
691.187	1.35
691.593	1.34
692	1.35
692.407	1.35
692.813	1.35
693.22	1.35
693.626	1.34
694.032	1.35
694.439	1.36
694.845	1.36
695.251	1.36
695.657	1.37
696.063	1.38
696.469	1.38
696.875	1.37
697.281	1.36
697.687	1.37
698.093	1.37
698.498	1.37
698.904	1.37
699.31	1.37
699.715	1.37
700.12	1.37
700.526	1.38
700.931	1.37
701.337	1.37
701.742	1.36
702.147	1.36
702.552	1.36
702.957	1.36
703.362	1.36
703.767	1.35
704.172	1.34
704.577	1.35
704.981	1.34
705.386	1.35
705.791	1.35
706.195	1.37
706.6	1.35
707.004	1.35
707.408	1.36
707.813	1.34
708.217	1.35
708.621	1.36
709.025	1.36
709.43	1.35
709.834	1.37
710.237	1.36
710.641	1.36
711.045	1.36
711.449	1.36
711.853	1.34
712.256	1.35
712.66	1.35
713.064	1.35
713.467	1.34
713.87	1.35
714.274	1.31
714.677	1.33
715.08	1.31
715.484	1.3
715.887	1.29
716.29	1.3
716.693	1.3
717.096	1.3
717.499	1.29
717.901	1.29
718.304	1.29
718.707	1.3
719.109	1.3
719.512	1.31
719.915	1.3
720.317	1.31
720.719	1.31
721.122	1.31
721.524	1.3
721.926	1.3
722.328	1.29
722.731	1.28
723.133	1.29
723.535	1.27
723.937	1.26
724.338	1.27
724.74	1.28
725.142	1.2
725.544	1.18
725.945	1.15
726.347	1.15
726.748	1.16
727.15	1.17
727.551	1.15
727.952	1.16
728.354	1.18
728.755	1.18
729.156	1.19
729.557	1.27
729.958	1.28
730.359	1.32
730.76	1.33
731.161	1.33
731.562	1.33
731.962	1.35
732.363	1.34
732.763	1.33
733.164	1.33
733.564	1.34
733.965	1.36
734.365	1.37
734.766	1.36
735.166	1.35
735.566	1.35
735.966	1.34
736.366	1.33
736.766	1.33
737.166	1.34
737.566	1.33
737.966	1.34
738.365	1.32
738.765	1.3
739.165	1.3
739.564	1.3
739.964	1.3
740.363	1.3
740.763	1.3
741.162	1.31
741.561	1.3
741.96	1.31
742.36	1.3
742.759	1.3
743.158	1.3
743.557	1.3
743.955	1.32
744.354	1.32
744.753	1.33
745.152	1.33
745.55	1.32
745.949	1.32
746.348	1.32
746.746	1.33
747.144	1.32
747.543	1.33
747.941	1.33
748.339	1.32
748.737	1.31
749.136	1.3
749.534	1.31
749.932	1.3
750.33	1.29
750.727	1.29
751.125	1.29
751.523	1.31
751.921	1.31
752.318	1.3
752.716	1.3
753.113	1.32
753.511	1.31
753.908	1.31
754.305	1.3
754.703	1.29
755.1	1.28
755.497	1.29
755.894	1.27
756.291	1.28
756.688	1.29
757.085	1.28
757.482	1.27
757.878	1.29
758.275	1.29
758.672	1.31
759.068	1.33
759.465	1.33
759.861	1.32
760.258	1.29
760.654	1.29
761.05	1.29
761.447	1.3
761.843	1.29
762.239	1.29
762.635	1.28
763.031	1.28
763.427	1.28
763.822	1.27
764.218	1.29
764.614	1.29
765.01	1.27
765.405	1.25
765.801	1.25
766.196	1.26
766.592	1.25
766.987	1.27
767.382	1.25
767.778	1.24
768.173	1.24
768.568	1.22
768.963	1.24
769.358	1.27
769.753	1.29
770.148	1.29
770.542	1.27
770.937	1.27
771.332	1.25
771.726	1.25
772.121	1.23
772.515	1.23
772.91	1.23
773.304	1.23
773.699	1.23
774.093	1.21
774.487	1.19
774.881	1.2
775.275	1.2
775.669	1.21
776.063	1.2
776.457	1.22
776.851	1.2
777.245	1.19
777.638	1.17
778.032	1.16
778.425	1.14
778.819	1.15
779.212	1.15
779.606	1.15
779.999	1.14
780.392	1.16
780.786	1.15
781.179	1.16
781.572	1.17
781.965	1.17
782.358	1.15
782.751	1.15
783.143	1.15
783.536	1.12
783.929	1.14
784.322	1.15
784.714	1.16
785.107	1.16
785.499	1.14
785.891	1.14
786.284	1.16
786.676	1.17
787.068	1.19
787.46	1.18
787.852	1.19
788.245	1.15
788.636	1.14
789.028	1.14
789.42	1.15
789.812	1.16
790.204	1.16
790.595	1.15
790.987	1.13
791.378	1.13
791.77	1.15
792.161	1.17
792.553	1.17
792.944	1.18
793.335	1.18
793.726	1.17
794.117	1.17
794.508	1.18
794.899	1.19
795.29	1.21
795.681	1.2
796.072	1.19
796.463	1.15
796.853	1.14
797.244	1.13
797.634	1.13
798.025	1.12
798.415	1.14
798.806	1.14
799.196	1.12
799.586	1.11
799.976	1.12
800.366	1.12
800.756	1.16
801.146	1.19
801.536	1.19
801.926	1.21
802.316	1.21
802.706	1.19
803.095	1.19
803.485	1.21
803.874	1.21
804.264	1.23
804.653	1.23
805.043	1.24
805.432	1.21
805.821	1.19
806.21	1.19
806.599	1.21
806.988	1.22
807.377	1.21
807.766	1.19
808.155	1.19
808.544	1.19
808.933	1.18
809.321	1.17
809.71	1.2
810.098	1.2
810.487	1.2
810.875	1.19
811.264	1.17
811.652	1.17
812.04	1.18
812.428	1.19
812.816	1.18
813.204	1.2
813.592	1.21
813.98	1.19
814.368	1.21
814.756	1.21
815.144	1.21
815.531	1.22
815.919	1.23
816.306	1.23
816.694	1.23
817.081	1.23
817.469	1.23
817.856	1.22
818.243	1.25
818.63	1.26
819.017	1.28
819.404	1.28
819.791	1.3
820.178	1.3
820.565	1.3
820.952	1.3
821.339	1.31
821.725	1.34
822.112	1.34
822.498	1.35
822.885	1.35
823.271	1.34
823.657	1.36
824.044	1.34
824.43	1.35
824.816	1.34
825.202	1.34
825.588	1.35
825.974	1.36
826.36	1.36
826.746	1.35
827.132	1.35
827.517	1.34
827.903	1.34
828.289	1.35
828.674	1.37
829.06	1.39
829.445	1.41
829.83	1.39
830.216	1.39
830.601	1.39
830.986	1.39
831.371	1.39
831.756	1.38
832.141	1.37
832.526	1.36
832.911	1.36
833.295	1.35
833.68	1.34
834.065	1.36
834.449	1.35
834.834	1.35
835.218	1.35
835.603	1.35
835.987	1.36
836.371	1.37
836.755	1.37
837.139	1.39
837.524	1.39
837.908	1.37
838.291	1.34
838.675	1.35
839.059	1.37
839.443	1.38
839.827	1.38
840.21	1.39
840.594	1.39
840.977	1.39
841.361	1.37
841.744	1.38
842.127	1.4
842.511	1.43
842.894	1.44
843.277	1.43
843.66	1.42
844.043	1.42
844.426	1.41
844.809	1.42
845.191	1.43
845.574	1.44
845.957	1.43
846.339	1.42
846.722	1.41
847.104	1.41
847.487	1.41
847.869	1.42
848.252	1.43
848.634	1.44
849.016	1.44
849.398	1.43
849.78	1.44
850.162	1.45
850.544	1.47
850.926	1.46
851.307	1.46
851.689	1.46
852.071	1.46
852.452	1.46
852.834	1.46
853.215	1.46
853.597	1.45
853.978	1.44
854.359	1.43
854.741	1.42
855.122	1.43
855.503	1.43
855.884	1.43
856.265	1.44
856.646	1.44
857.026	1.45
857.407	1.44
857.788	1.45
858.169	1.45
858.549	1.45
858.93	1.45
859.31	1.47
859.69	1.46
860.071	1.47
860.451	1.46
860.831	1.46
861.211	1.45
861.591	1.45
861.971	1.44
862.351	1.46
862.731	1.46
863.111	1.46
863.491	1.45
863.87	1.46
864.25	1.44
864.629	1.44
865.009	1.44
865.388	1.44
865.768	1.44
866.147	1.44
866.526	1.44
866.905	1.44
867.284	1.43
867.663	1.44
868.042	1.43
868.421	1.43
868.8	1.44
869.179	1.44
869.558	1.44
869.936	1.43
870.315	1.44
870.693	1.43
871.072	1.43
871.45	1.43
871.828	1.43
872.207	1.43
872.585	1.43
872.963	1.42
873.341	1.43
873.719	1.43
874.097	1.43
874.475	1.43
874.853	1.42
875.23	1.42
875.608	1.42
875.986	1.41
876.363	1.41
876.741	1.42
877.118	1.41
877.495	1.42
877.873	1.4
878.25	1.4
878.627	1.39
879.004	1.39
879.381	1.4
879.758	1.41
880.135	1.41
880.512	1.41
880.889	1.41
881.265	1.41
881.642	1.4
882.019	1.41
882.395	1.41
882.772	1.41
883.148	1.42
883.524	1.41
883.901	1.41
884.277	1.42
884.653	1.42
885.029	1.43
885.405	1.43
885.781	1.44
886.157	1.45
886.532	1.47
886.908	1.47
887.284	1.47
887.659	1.48
888.035	1.48
888.411	1.48
888.786	1.49
889.161	1.48
889.537	1.48
889.912	1.5
890.287	1.49
890.662	1.47
891.037	1.47
891.412	1.47
891.787	1.47
892.162	1.48
892.536	1.48
892.911	1.48
893.286	1.5
893.66	1.51
894.035	1.49
894.409	1.5
894.784	1.5
895.158	1.51
895.532	1.5
895.906	1.51
896.281	1.51
896.655	1.5
897.029	1.49
897.402	1.47
897.776	1.47
898.15	1.47
898.524	1.47
898.898	1.49
899.271	1.48
899.645	1.5
900.018	1.47
900.392	1.47
900.765	1.47
901.138	1.47
901.511	1.46
901.884	1.45
902.258	1.45
902.631	1.44
903.003	1.41
903.376	1.41
903.749	1.39
904.122	1.41
904.495	1.41
904.867	1.4
905.24	1.4
905.612	1.41
905.985	1.43
906.357	1.43
906.729	1.43
907.102	1.43
907.474	1.43
907.846	1.43
908.218	1.42
908.59	1.41
908.962	1.43
909.334	1.43
909.705	1.42
910.077	1.39
910.449	1.39
910.82	1.39
911.192	1.38
911.563	1.37
911.935	1.36
912.306	1.35
912.677	1.37
913.048	1.34
913.419	1.31
913.79	1.3
914.161	1.29
914.532	1.29
914.903	1.31
915.274	1.31
915.645	1.33
916.015	1.34
916.386	1.32
916.756	1.28
917.127	1.3
917.497	1.34
917.868	1.35
918.238	1.35
918.608	1.36
918.978	1.36
919.348	1.36
919.718	1.33
920.088	1.3
920.458	1.33
920.828	1.34
921.198	1.34
921.567	1.31
921.937	1.31
922.306	1.32
922.676	1.31
923.045	1.27
923.415	1.25
923.784	1.26
924.153	1.28
924.522	1.27
924.891	1.23
925.26	1.23
925.629	1.23
925.998	1.23
926.367	1.24
926.736	1.23
927.104	1.24
927.473	1.27
927.842	1.27
928.21	1.27
928.578	1.29
928.947	1.33
929.315	1.33
929.683	1.35
930.051	1.36
930.42	1.31
930.788	1.29
931.156	1.29
931.523	1.25
931.891	1.25
932.259	1.25
932.627	1.2
932.994	1.19
933.362	1.16
933.729	1.12
934.097	1.09
934.464	1.11
934.831	1.15
935.199	1.12
935.566	1.17
935.933	1.15
936.3	1.12
936.667	1.13
937.034	1.09
937.401	1.09
937.767	1.12
938.134	1.06
938.501	1.01
938.867	0.98
939.234	0.97
939.6	0.92
939.967	0.92
940.333	0.89
940.699	0.88
941.065	0.86
941.431	0.81
941.798	0.78
942.163	0.78
942.529	0.8
942.895	0.76
943.261	0.74
943.627	0.68
943.992	0.66
944.358	0.61
944.723	0.61
945.089	0.52
945.454	0.57
945.82	0.5
946.185	0.52
946.55	0.48
946.915	0.49
947.28	0.49
947.645	0.47
948.01	0.44
948.375	0.48
948.74	0.5
949.104	0.57
949.469	0.61
949.834	0.61
950.198	0.66
950.562	0.7
950.927	0.68
951.291	0.7
951.655	0.74
952.02	0.79
952.384	0.81
952.748	0.76
953.112	0.74
953.476	0.71
953.839	0.83
954.203	0.78
954.567	0.79
954.931	0.84
955.294	0.87
955.658	0.85
956.021	0.85
956.385	0.88
956.748	0.88
957.111	0.95
957.474	0.97
957.837	0.88
958.2	0.89
958.563	0.95
958.926	0.94
959.289	0.9
959.652	0.94
960.015	0.93
960.377	0.93
960.74	1.01
961.102	0.96
961.465	0.94
961.827	0.87
962.189	0.84
962.552	0.79
962.914	0.8
963.276	0.8
963.638	0.76
964	0.77
964.362	0.73
964.724	0.7
965.085	0.74
965.447	0.81
965.809	0.92
966.17	0.97
966.532	0.99
966.893	1
967.255	1.01
967.616	0.98
967.977	1
968.338	1.01
968.699	0.99
969.061	0.92
969.421	0.87
969.782	0.85
970.143	0.84
970.504	0.76
970.865	0.66
971.225	0.68
971.586	0.73
971.946	0.73
972.307	0.71
972.667	0.7
973.027	0.79
973.388	0.8
973.748	0.75
974.108	0.73
974.468	0.72
974.828	0.83
975.188	0.76
975.548	0.76
975.907	0.71
976.267	0.7
976.627	0.66
976.986	0.58
977.346	0.56
977.705	0.6
978.064	0.6
978.424	0.64
978.783	0.56
979.142	0.58
979.501	0.51
979.86	0.49
980.219	0.47
980.578	0.52
980.937	0.49
981.296	0.44
981.654	0.43
982.013	0.44
982.371	0.42
982.73	0.45
983.088	0.38
983.447	0.45
983.805	0.51
984.163	0.45
984.521	0.46
984.879	0.54
985.237	0.6
985.595	0.54
985.953	0.54
986.311	0.57
986.669	0.49
987.026	0.53
987.384	0.52
987.741	0.46
988.099	0.45
988.456	0.41
988.814	0.31
989.171	0.32
989.528	0.29
989.885	0.2
990.242	0.08
990.599	0.05
990.956	0.04
991.313	-0.11
991.67	-0.13
992.027	-0.08
992.383	-0.1
992.74	-0.14
993.096	-0.23
993.453	-0.15
993.809	-0.2
994.165	-0.08
994.522	-0.08
994.878	-0.08
995.234	0.04
995.59	-0.13
995.946	-0.14
996.302	-0.16
996.658	-0.11
997.013	-0.12
997.369	-0.27
997.725	-0.23
998.08	-0.45
998.436	-0.33
998.791	-0.49
999.147	-0.56
999.502	-0.41
999.857	-0.45
1000.212	-0.51
1000.567	-0.61
1000.922	-0.7
1001.277	-0.72
1001.632	-0.72
1001.987	-0.69
1002.342	-0.84
1002.696	-0.81
1003.051	-0.99
1003.406	-1.15
1003.76	-1.17
1004.114	-1.25
1004.469	-1.33
1004.823	-1.4
1005.177	-1.43
1005.531	-1.53
1005.885	-1.44
1006.239	-1.58
1006.593	-1.58
1006.947	-1.43
1007.301	-1.37
1007.655	-1.43
1008.008	-1.43
1008.362	-1.35
1008.715	-1.3
1009.069	-1.24
1009.422	-1.3
1009.776	-1.5
1010.129	-1.49
1010.482	-1.44
1010.835	-1.55
1011.188	-1.69
1011.541	-1.91
1011.894	-2.03
1012.247	-2.18
1012.6	-2.29
1012.952	-2.51
1013.305	-2.69
1013.657	-2.68
1014.01	-2.4
1014.362	-2.56
1014.715	-2.73
1015.067	-2.69
1015.419	-2.69
1015.771	-2.61
1016.123	-2.74
1016.475	-2.7
1016.827	-2.72
1017.179	-2.56
1017.531	-2.35
1017.883	-2.83
1018.234	-2.81
1018.586	-2.92
1018.938	-3.23
1019.289	-3.37
1019.64	-3.48
1019.992	-3.35
1020.343	-3.45
1020.694	-3.49
1021.045	-3.82
1021.396	-4.13
1021.747	-3.94
1022.098	-3.95
1022.449	-3.81
1022.8	-3.57
1023.151	-3.53
1023.501	-3.6
1023.852	-3.84
1024.202	-3.94
1024.553	-3.6
1024.903	-3.34
1025.253	-3.56
1025.604	-3.48
1025.954	-3.71
1026.304	-3.48
1026.654	-3.45
1027.004	-3.27
1027.354	-3.51
1027.703	-3.21
1028.053	-3.38
1028.403	-4.22
1028.753	-4.55
1029.102	-4.49
1029.452	-4.73
1029.801	-4.75
1030.15	-5
1030.499	-5.31
897.758	502.48
901.051	514.14
904.343	518.34
907.636	510.07
910.928	502.97
914.22	509.88
917.511	501.71
920.803	478.96
924.094	458.16
927.384	461.45
930.675	443.84
933.965	439.66
937.255	435.04
940.544	413.68
943.834	393.42
947.123	386.55
950.411	363.73
953.7	357.78
956.988	347.62
960.276	332.65
963.563	324.58
966.851	303.78
970.138	298.85
973.424	278.76
976.711	274.97
979.997	264.86
983.283	256.48
986.568	248.12
989.853	240.97
993.138	229.21
996.423	224.49
999.708	217.31
1002.992	218.47
1006.275	209.61
1009.559	205.88
1012.842	198.9
1016.125	191.58
1019.408	187.93
1022.69	187.11
1025.972	182.61
1029.254	178.68
1032.536	173.97
1035.817	166.68
1039.098	164.06
1042.379	159.45
1045.659	157.37
1048.939	154.64
1052.219	151.76
1055.498	146.98
1058.778	143.02
1062.057	140.63
1065.335	140.53
1068.614	137.07
1071.892	135.4
1075.17	131.78
1078.447	129.37
1081.724	127.88
1085.001	124.37
1088.278	122.9
1091.554	122.63
1094.83	121.03
1098.106	118.36
1101.382	116.64
1104.657	117.32
1107.932	116.67
1111.206	115.44
1114.481	113.37
1117.755	112.28
1121.029	112.56
1124.302	111.21
1127.575	108.93
1130.848	108.13
1134.121	106.98
1137.393	106.91
1140.665	105.32
1143.937	103.68
1147.208	102.47
1150.48	101.99
1153.75	100.37
1157.021	98.88
1160.291	98.18
1163.561	98.34
1166.831	97.71
1170.101	96.88
1173.37	96.08
1176.639	94.71
1179.907	94.26
1183.176	93.55
1186.444	94.3
1189.711	93.57
1192.979	94.72
1196.246	94.99
1199.513	94.25
1202.78	93.44
1206.046	93.81
1209.312	94.52
1212.578	95.59
1215.843	97.77
1219.108	99.16
1222.373	101.09
1225.638	104.36
1228.902	106.93
1232.166	111.3
1235.43	114.12
1238.693	118.91
1241.956	122.1
1245.219	125.31
1248.482	125.86
1251.744	126.28
1255.006	126.62
1258.268	121.39
1261.529	119.72
1264.79	116.05
1268.051	112.85
1271.312	111.34
1274.572	108.54
1277.832	105.39
1281.092	103.1
1284.351	101.29
1287.61	100.61
1290.869	99.27
1294.128	99.83
1297.386	99.28
1300.644	99.51
1303.902	97.77
1307.159	97.29
1310.416	98.15
1313.673	99.53
1316.93	102.62
1320.186	104.37
1323.442	106.25
1326.697	109.71
1329.953	111.34
1333.208	115.84
1336.463	121.62
1339.717	126.34
1342.972	134.68
1346.226	139.38
1349.479	141.13
1352.733	146.84
1355.986	152.26
1359.238	156.46
1362.491	158.79
1365.743	166.28
1368.995	169.46
1372.247	169.83
1375.498	169.56
1378.749	177.03
1382	176.98
1385.251	176.58
1388.501	178.64
1391.751	181.17
1395	179.79
1398.25	181.55
1401.499	181.15
1404.748	180.79
1407.996	176.85
1411.244	177.92
1414.492	174.78
1417.74	171.53
1420.987	168.3
1424.234	164.07
1427.481	157.85
1430.728	154.41
1433.974	148.17
1437.22	143.81
1440.465	137.81
1443.711	134.16
1446.956	129.13
1450.201	123.88
1453.445	117.84
1456.689	114.27
1459.933	110.04
1463.177	104.08
1466.42	102.24
1469.663	98.79
1472.906	95.14
1476.148	91.48
1479.391	88.99
1482.633	87.11
1485.874	84.85
1489.115	84.13
1492.356	81.61
1495.597	79.67
1498.838	79.14
1502.078	77.6
1505.318	77.17
1508.557	75.83
1511.797	75.36
1515.036	74.3
1518.274	73.61
1521.513	71.41
1524.751	70.53
1527.989	71.05
1531.227	70.71
1534.464	70.03
1537.701	68.71
1540.938	68.14
1544.174	68.33
1547.41	67.6
1550.646	67.7
1553.882	66.92
1557.117	66.26
1560.352	65.98
1563.587	64.63
1566.821	64.45
1570.055	63.48
1573.289	63.21
1576.523	62.99
1579.756	61.77
1582.989	62.15
1586.222	60.77
1589.454	61.24
1592.686	61.8
1595.918	60.85
1599.15	60.82
1602.381	60.07
1605.612	60.34
1608.843	59.93
1612.073	60.28
1615.303	60.88
1618.533	59.61
1621.762	60.18
1624.992	59.57
1628.221	58.68
1631.449	59.22
1634.678	58.98
1637.906	59.37
1641.134	59.55
1644.361	59.57
1647.588	59.48
1650.815	59.49
1654.042	59.93
1657.269	59.6
1660.495	60.14
1663.72	60.28
1666.946	60.26
1670.171	60.76
1673.396	61.25
1676.621	60.9
1679.845	61.51
1683.069	61.07
1686.293	60.86
1689.517	61.11
1692.74	61.43
1695.963	61.27
1699.185	61.87
1702.408	61.51
1705.63	61.46
1708.852	61.81
1712.073	61.82
1715.294	61.42
1718.515	62.87
1721.736	62.94
1724.956	63.42
1728.176	63.39
1731.396	63.64
1734.616	64.39
1737.835	65.19
1741.054	65.03
1744.272	65.41
1747.491	65.96
1750.709	66.81
1753.927	66.58
1757.144	67.4
1760.361	67.57
1763.578	68.21
1766.795	68.96
1770.011	69.06
1773.227	69.38
1776.443	70.63
1779.658	70.21
1782.874	71.3
1786.089	70.83
1789.303	71.25
1792.518	72.34
1795.732	72.95
1798.945	74.02
1802.159	74.26
1805.372	74.89
1808.585	76.25
1811.797	76.97
1815.01	77.93
1818.222	78.52
1821.434	80.72
1824.645	80.65
1827.856	81.63
1831.067	81.99
1834.278	83.38
1837.488	84.26
1840.698	85.96
1843.908	85.63
1847.117	87.3
1850.326	88.77
1853.535	90.83
1856.744	91.93
1859.952	94.83
1863.16	95.11
1866.368	96.72
1869.575	98.28
1872.782	99.82
1875.989	99.22
1879.196	101.66
1882.402	101.83
1885.608	103.04
1888.814	103.08
1892.019	106.48
1895.224	105.57
1898.429	107.06
1901.634	108.64
1904.838	108.89
1908.042	110.28
1911.246	111.2
1914.449	111.11
1917.652	111.04
1920.855	111.52
1924.058	110.44
1927.26	108.15
1930.462	110.03
1933.664	109.25
1936.865	110.32
1940.066	108.74
1943.267	107.97
1946.467	109.05
1949.668	108.32
1952.868	109.63
1956.067	109.36
1959.267	110.75
1962.466	111.54
1965.665	111.72
1968.863	112.05
1972.061	111.71
1975.259	114.35
1978.457	115.47
1981.654	116.11
1984.852	117.71
1988.048	118.58
1991.245	120.41
1994.441	122.55
1997.637	124.94
2000.833	127.32
2004.028	128.67
2007.223	132.25
2010.418	135.68
2013.613	141.46
2016.807	144.95
2020.001	148.04
2023.194	151.41
2026.388	156.08
2029.581	164.31
2032.774	169.19
2035.966	173.32
2039.158	179.43
2042.35	182.67
2045.542	184.99
2048.733	190.56
2051.924	192.3
2055.115	195.64
2058.306	199.03
2061.496	202.27
2064.686	201.73
2067.875	200.52
2071.065	203.67
2074.254	203.05
2077.442	208.52
2080.631	210.63
2083.819	211.08
2087.007	216.51
2090.195	217.41
2093.382	217.69
2096.569	218.41
2099.756	221.63
2102.942	226.59
2106.128	230.08
2109.314	233.47
2112.5	233.14
2115.685	230
2118.87	230.46
2122.055	232.39
2125.239	237.8
2128.424	241.15
2131.608	240.14
2134.791	243.31
2137.974	243.34
2141.157	244.52
2144.34	245.38
2147.523	250.21
2150.705	259.51
2153.887	254.83
2157.068	255.16
2160.25	258.96
2163.431	259.04
2166.611	261.37
2169.792	262.7
2172.972	266.5
2176.152	268.81
2179.331	274.74
2182.511	275.16
2185.69	277.79
2188.868	290.2
2192.047	297.36
2195.225	301.42
2198.403	306
2201.58	306.41
2204.758	314.77
2207.935	318.21
2211.111	324.75
2214.288	328.45
2217.464	330.32
2220.64	331.57
2223.815	331.82
2226.991	326.84
2230.166	330.14
2233.34	340.48
2236.515	348.55
2239.689	346.51
2242.863	351.42
2246.036	349.08
2249.209	353.78
2252.382	356.28
2255.555	369.66
2258.727	373.78
2261.9	387.96
2265.071	392.41
2268.243	387.14
2271.414	398.72
2274.585	408.13
2277.756	408.95
2280.926	424.84
2284.096	425.81
2287.266	425.56
2290.436	420.78
2293.605	430.28
2296.774	442.84
2299.942	446.13
2303.111	461.68
2306.279	472.37
2309.447	470.67
2312.614	476.5
2315.781	483.48
2318.948	493.51
2322.115	503.75
2325.281	527.71
2328.447	525.19
2331.613	532.83
2334.779	537.42
2337.944	548.98
2341.109	554.7
2344.274	563.04
2347.438	572.69
2350.602	579.35
2353.766	622.7
2356.929	626.48
2360.092	630.06
2363.255	634.74
2366.418	639.29
2369.58	649.33
2372.742	650.55
2375.904	651.36
2379.066	667.96
2382.227	707.81
2385.388	708.23
2388.548	666.1
2391.709	656.37
2394.869	685.46
2398.029	688.8
2401.188	688.96
2404.347	712.44
2407.506	732.74
2410.665	701.07
2413.823	713.83
2416.981	715.42
2420.139	681.65
2423.296	733.17
2426.453	786.81
2429.61	739.3
2432.767	785.59
2435.923	811.19
2439.079	779.27
2442.235	798.34
2445.391	819.4
2448.546	800.71
2451.701	847.45
2454.855	905.52
2458.009	803.7
2461.163	813.13
2464.317	838.06
2467.471	820.73
2470.624	843.37
2473.777	837.08
2476.929	811.36
2480.082	862.41
2483.234	902.38
2486.385	912.58
2489.537	939.31
2492.688	1027.51
2495.839	1015.36
2498.989	1039.7
2502.14	1040.38
2505.29	1008.42
2508.439	1110.7
2511.589	1134.81
2514.738	1103.97
2517.887	1096.84
2521.035	1034.44
2524.183	1013.06
2527.331	1008.31
2530.479	980.5
2533.627	999.49
