Data from N_1_dec_ct_2n_033_Splice17_20.txt Node
Date: Sat Feb 29 13:47:35 EST 2020
User: sa697716
Spectrometer: FLMS03696
Trigger mode: 0
Integration Time (sec): 3.180400E-1
Scans to average: 20
Electric dark correction enabled: true
Nonlinearity correction enabled: true
Boxcar width: 5
XAxis mode: Wavelengths
Number of Pixels in Spectrum: 2048
>>>>>Begin Spectral Data<<<<<
187.83	66.55
188.298	70.88
188.766	73
189.233	85.1
189.701	88.46
190.169	96.48
190.636	102.31
191.104	127.57
191.571	531.24
192.039	195.54
192.506	71.63
192.974	1655.6
193.441	-151.3
193.908	105.07
194.375	196.75
194.842	264.69
195.31	193.74
195.777	186.64
196.244	93.4
196.711	62.57
197.177	55.58
197.644	56.25
198.111	55.35
198.578	55.67
199.045	55.6
199.511	56.52
199.978	56.4
200.445	55.99
200.911	56.11
201.378	56.12
201.844	56.8
202.31	57.74
202.777	58.31
203.243	58.96
203.709	59.36
204.176	59.2
204.642	58.61
205.108	58.88
205.574	59.42
206.04	59.14
206.506	58.75
206.972	58.55
207.438	58.16
207.903	57.68
208.369	56.88
208.835	56.67
209.301	56.7
209.766	56.57
210.232	56.17
210.697	55.77
211.163	55.29
211.628	54.81
212.094	54.53
212.559	54.24
213.024	53.56
213.49	53.52
213.955	52.99
214.42	52.08
214.885	51.47
215.35	50.73
215.815	49.76
216.28	49.09
216.745	47.94
217.21	46.62
217.675	45.3
218.14	44.04
218.604	42.96
219.069	42.13
219.534	41.36
219.998	40.72
220.463	40.13
220.927	39.54
221.392	39.06
221.856	38.66
222.32	38.25
222.785	37.84
223.249	37.53
223.713	37.19
224.177	36.8
224.642	36.4
225.106	36
225.57	35.62
226.034	35.29
226.497	34.91
226.961	34.51
227.425	34.11
227.889	33.79
228.353	33.39
228.816	33.03
229.28	32.66
229.744	32.38
230.207	32.02
230.671	31.68
231.134	31.33
231.597	30.96
232.061	30.66
232.524	30.37
232.987	30
233.45	29.68
233.914	29.36
234.377	29.07
234.84	28.8
235.303	28.52
235.766	28.23
236.229	27.97
236.691	27.74
237.154	27.48
237.617	27.22
238.08	27.02
238.542	26.8
239.005	26.56
239.468	26.3
239.93	26.05
240.393	25.82
240.855	25.62
241.317	25.39
241.78	25.18
242.242	24.96
242.704	24.78
243.166	24.58
243.629	24.39
244.091	24.2
244.553	24.06
245.015	23.89
245.477	23.73
245.939	23.54
246.4	23.37
246.862	23.19
247.324	23.06
247.786	22.88
248.247	22.72
248.709	22.56
249.17	22.42
249.632	22.25
250.093	22.09
250.555	21.95
251.016	21.84
251.477	21.71
251.939	21.61
252.4	21.51
252.861	21.41
253.322	21.32
253.783	21.23
254.244	21.12
254.705	21.06
255.166	21
255.627	20.92
256.088	20.84
256.549	20.78
257.009	20.7
257.47	20.63
257.931	20.55
258.391	20.47
258.852	20.39
259.312	20.34
259.773	20.27
260.233	20.21
260.694	20.14
261.154	20.07
261.614	20.01
262.074	19.97
262.534	19.91
262.994	19.87
263.455	19.83
263.915	19.79
264.374	19.76
264.834	19.72
265.294	19.68
265.754	19.64
266.214	19.62
266.673	19.61
267.133	19.57
267.593	19.56
268.052	19.53
268.512	19.51
268.971	19.5
269.431	19.48
269.89	19.47
270.349	19.46
270.809	19.46
271.268	19.45
271.727	19.42
272.186	19.41
272.645	19.4
273.104	19.39
273.563	19.37
274.022	19.35
274.481	19.33
274.94	19.31
275.399	19.28
275.857	19.26
276.316	19.24
276.775	19.21
277.233	19.18
277.692	19.16
278.15	19.12
278.609	19.1
279.067	19.07
279.525	19.04
279.984	19.02
280.442	19
280.9	18.98
281.358	18.94
281.816	18.92
282.274	18.91
282.732	18.89
283.19	18.88
283.648	18.86
284.106	18.83
284.564	18.83
285.021	18.82
285.479	18.83
285.937	18.82
286.394	18.83
286.852	18.84
287.309	18.84
287.767	18.86
288.224	18.85
288.682	18.84
289.139	18.83
289.596	18.81
290.053	18.77
290.511	18.72
290.968	18.7
291.425	18.66
291.882	18.63
292.339	18.59
292.796	18.55
293.252	18.53
293.709	18.51
294.166	18.5
294.623	18.48
295.079	18.48
295.536	18.47
295.992	18.46
296.449	18.46
296.905	18.44
297.362	18.44
297.818	18.45
298.274	18.44
298.731	18.44
299.187	18.43
299.643	18.43
300.099	18.44
300.555	18.42
301.011	18.42
301.467	18.41
301.923	18.4
302.379	18.4
302.835	18.38
303.291	18.37
303.746	18.35
304.202	18.33
304.658	18.32
305.113	18.31
305.569	18.31
306.024	18.3
306.479	18.27
306.935	18.27
307.39	18.26
307.845	18.25
308.301	18.25
308.756	18.27
309.211	18.27
309.666	18.28
310.121	18.27
310.576	18.27
311.031	18.27
311.486	18.29
311.94	18.3
312.395	18.31
312.85	18.31
313.305	18.32
313.759	18.31
314.214	18.31
314.668	18.31
315.123	18.32
315.577	18.32
316.032	18.31
316.486	18.3
316.94	18.27
317.394	18.25
317.849	18.23
318.303	18.21
318.757	18.18
319.211	18.14
319.665	18.09
320.119	18.07
320.572	18.05
321.026	18.02
321.48	18.01
321.934	18
322.387	17.98
322.841	17.96
323.295	17.94
323.748	17.92
324.202	17.9
324.655	17.89
325.108	17.86
325.562	17.84
326.015	17.8
326.468	17.78
326.921	17.75
327.374	17.73
327.827	17.7
328.28	17.68
328.733	17.66
329.186	17.64
329.639	17.63
330.092	17.6
330.545	17.59
330.997	17.59
331.45	17.58
331.903	17.57
332.355	17.57
332.808	17.58
333.26	17.56
333.713	17.56
334.165	17.57
334.617	17.56
335.069	17.58
335.522	17.59
335.974	17.59
336.426	17.59
336.878	17.6
337.33	17.59
337.782	17.6
338.234	17.61
338.686	17.6
339.137	17.59
339.589	17.57
340.041	17.55
340.493	17.51
340.944	17.48
341.396	17.46
341.847	17.42
342.299	17.38
342.75	17.34
343.201	17.28
343.653	17.24
344.104	17.19
344.555	17.17
345.006	17.15
345.457	17.12
345.908	17.1
346.359	17.06
346.81	17.03
347.261	16.99
347.712	16.99
348.163	16.98
348.613	16.94
349.064	16.91
349.515	16.89
349.965	16.87
350.416	16.84
350.866	16.84
351.317	16.84
351.767	16.83
352.217	16.84
352.668	16.83
353.118	16.82
353.568	16.83
354.018	16.84
354.468	16.84
354.918	16.84
355.368	16.85
355.818	16.82
356.268	16.81
356.718	16.81
357.168	16.79
357.617	16.79
358.067	16.78
358.517	16.77
358.966	16.77
359.416	16.77
359.865	16.76
360.315	16.75
360.764	16.76
361.213	16.76
361.663	16.77
362.112	16.77
362.561	16.76
363.01	16.77
363.459	16.78
363.908	16.77
364.357	16.76
364.806	16.75
365.255	16.77
365.703	16.77
366.152	16.78
366.601	16.79
367.05	16.8
367.498	16.8
367.947	16.8
368.395	16.82
368.844	16.84
369.292	16.86
369.74	16.89
370.189	16.89
370.637	16.9
371.085	16.91
371.533	16.93
371.981	16.97
372.429	16.98
372.877	17.02
373.325	17.05
373.773	17.08
374.221	17.11
374.669	17.15
375.116	17.18
375.564	17.23
376.012	17.29
376.459	17.34
376.907	17.39
377.354	17.46
377.801	17.51
378.249	17.58
378.696	17.64
379.143	17.71
379.591	17.78
380.038	17.86
380.485	17.94
380.932	18
381.379	18.06
381.826	18.13
382.273	18.21
382.72	18.3
383.166	18.38
383.613	18.47
384.06	18.55
384.506	18.63
384.953	18.72
385.4	18.79
385.846	18.86
386.292	18.96
386.739	19.04
387.185	19.12
387.631	19.22
388.078	19.3
388.524	19.34
388.97	19.41
389.416	19.45
389.862	19.49
390.308	19.56
390.754	19.62
391.2	19.68
391.645	19.72
392.091	19.78
392.537	19.82
392.983	19.9
393.428	19.99
393.874	20.06
394.319	20.11
394.765	20.16
395.21	20.19
395.655	20.24
396.101	20.27
396.546	20.32
396.991	20.35
397.436	20.35
397.881	20.35
398.326	20.38
398.771	20.42
399.216	20.45
399.661	20.47
400.106	20.5
400.551	20.49
400.995	20.47
401.44	20.44
401.885	20.41
402.329	20.4
402.774	20.36
403.218	20.35
403.663	20.31
404.107	20.3
404.551	20.3
404.995	20.28
405.44	20.26
405.884	20.26
406.328	20.23
406.772	20.22
407.216	20.22
407.66	20.21
408.104	20.16
408.547	20.14
408.991	20.09
409.435	20.04
409.879	20
410.322	19.98
410.766	19.97
411.209	19.97
411.653	19.93
412.096	19.91
412.54	19.88
412.983	19.86
413.426	19.84
413.869	19.83
414.312	19.84
414.756	19.84
415.199	19.83
415.642	19.82
416.085	19.82
416.527	19.84
416.97	19.83
417.413	19.79
417.856	19.77
418.298	19.72
418.741	19.7
419.184	19.67
419.626	19.65
420.069	19.62
420.511	19.58
420.953	19.53
421.396	19.5
421.838	19.47
422.28	19.48
422.722	19.48
423.164	19.47
423.606	19.48
424.048	19.45
424.49	19.45
424.932	19.42
425.374	19.39
425.816	19.37
426.258	19.31
426.699	19.25
427.141	19.19
427.582	19.14
428.024	19.12
428.465	19.11
428.907	19.11
429.348	19.07
429.789	19.08
430.231	19.07
430.672	19.08
431.113	19.12
431.554	19.16
431.995	19.22
432.436	19.24
432.877	19.26
433.318	19.25
433.759	19.28
434.2	19.32
434.64	19.34
435.081	19.35
435.522	19.4
435.962	19.43
436.403	19.47
436.843	19.48
437.284	19.51
437.724	19.55
438.164	19.59
438.604	19.61
439.045	19.63
439.485	19.64
439.925	19.69
440.365	19.71
440.805	19.71
441.245	19.73
441.685	19.79
442.125	19.82
442.564	19.88
443.004	19.93
443.444	19.99
443.883	20.07
444.323	20.13
444.762	20.2
445.202	20.3
445.641	20.4
446.081	20.45
446.52	20.49
446.959	20.58
447.398	20.65
447.837	20.73
448.276	20.77
448.716	20.83
449.154	20.94
449.593	21
450.032	21.05
450.471	21.09
450.91	21.15
451.349	21.21
451.787	21.26
452.226	21.28
452.664	21.28
453.103	21.32
453.541	21.34
453.98	21.34
454.418	21.38
454.856	21.4
455.295	21.43
455.733	21.44
456.171	21.46
456.609	21.47
457.047	21.5
457.485	21.58
457.923	21.63
458.361	21.65
458.798	21.71
459.236	21.72
459.674	21.74
460.111	21.76
460.549	21.78
460.987	21.81
461.424	21.86
461.862	21.87
462.299	21.85
462.736	21.85
463.173	21.85
463.611	21.86
464.048	21.87
464.485	21.89
464.922	21.91
465.359	21.94
465.796	21.95
466.233	21.94
466.67	21.97
467.106	21.97
467.543	21.97
467.98	21.97
468.416	21.97
468.853	21.95
469.29	21.95
469.726	21.95
470.162	21.93
470.599	21.92
471.035	21.93
471.471	21.9
471.907	21.91
472.344	21.93
472.78	21.93
473.216	21.94
473.652	21.94
474.088	21.95
474.523	21.93
474.959	21.94
475.395	21.92
475.831	21.91
476.266	21.92
476.702	21.91
477.138	21.88
477.573	21.84
478.008	21.82
478.444	21.81
478.879	21.77
479.314	21.77
479.75	21.76
480.185	21.76
480.62	21.75
481.055	21.76
481.49	21.75
481.925	21.76
482.36	21.78
482.795	21.8
483.229	21.81
483.664	21.85
484.099	21.89
484.534	21.93
484.968	21.97
485.403	22.04
485.837	22.09
486.271	22.15
486.706	22.24
487.14	22.33
487.574	22.42
488.009	22.53
488.443	22.64
488.877	22.74
489.311	22.85
489.745	22.97
490.179	23.09
490.613	23.21
491.046	23.37
491.48	23.52
491.914	23.67
492.348	23.84
492.781	23.99
493.215	24.15
493.648	24.35
494.082	24.56
494.515	24.76
494.948	24.98
495.382	25.21
495.815	25.43
496.248	25.66
496.681	25.9
497.114	26.15
497.547	26.41
497.98	26.7
498.413	26.96
498.846	27.25
499.279	27.55
499.711	27.84
500.144	28.13
500.577	28.44
501.009	28.77
501.442	29.11
501.874	29.46
502.306	29.84
502.739	30.19
503.171	30.58
503.603	30.96
504.036	31.34
504.468	31.74
504.9	32.16
505.332	32.57
505.764	33
506.196	33.43
506.627	33.88
507.059	34.3
507.491	34.74
507.923	35.17
508.354	35.61
508.786	36.06
509.217	36.51
509.649	36.99
510.08	37.49
510.512	37.94
510.943	38.4
511.374	38.86
511.805	39.35
512.237	39.82
512.668	40.26
513.099	40.77
513.53	41.26
513.961	41.73
514.391	42.17
514.822	42.61
515.253	43.08
515.684	43.51
516.114	43.96
516.545	44.36
516.975	44.83
517.406	45.27
517.836	45.65
518.267	46.04
518.697	46.45
519.127	46.84
519.558	47.23
519.988	47.59
520.418	47.95
520.848	48.3
521.278	48.64
521.708	48.83
522.138	49.13
522.567	49.47
522.997	49.78
523.427	50.08
523.857	50.35
524.286	50.59
524.716	50.85
525.145	51.12
525.575	51.39
526.004	51.64
526.433	51.99
526.863	52.25
527.292	52.47
527.721	52.67
528.15	52.88
528.579	53.1
529.008	53.32
529.437	53.51
529.866	53.67
530.295	53.85
530.724	54.04
531.152	54.22
531.581	54.36
532.01	54.51
532.438	54.67
532.867	54.81
533.295	54.94
533.723	55.05
534.152	55.2
534.58	55.33
535.008	55.43
535.436	55.54
535.865	55.64
536.293	55.75
536.721	55.83
537.149	55.94
537.576	56.02
538.004	56.11
538.432	56.22
538.86	56.29
539.287	56.36
539.715	56.44
540.143	56.49
540.57	56.54
540.998	56.6
541.425	56.68
541.852	56.73
542.28	56.77
542.707	56.83
543.134	56.88
543.561	56.92
543.988	56.98
544.415	57.01
544.842	57.06
545.269	57.12
545.696	57.14
546.123	57.18
546.549	57.23
546.976	57.28
547.403	57.3
547.829	57.35
548.256	57.38
548.682	57.4
549.108	57.42
549.535	57.48
549.961	57.47
550.387	57.49
550.813	57.49
551.24	57.51
551.666	57.54
552.092	57.56
552.518	57.53
552.943	57.53
553.369	57.55
553.795	57.59
554.221	57.57
554.646	57.58
555.072	57.61
555.498	57.63
555.923	57.64
556.349	57.61
556.774	57.6
557.199	57.6
557.625	57.59
558.05	57.53
558.475	57.45
558.9	57.4
559.325	57.36
559.75	57.29
560.175	57.21
560.6	57.11
561.025	57.06
561.449	56.99
561.874	56.94
562.299	56.87
562.723	56.8
563.148	56.72
563.572	56.66
563.997	56.57
564.421	56.49
564.846	56.39
565.27	56.29
565.694	56.17
566.118	56.08
566.542	55.97
566.966	55.83
567.39	55.71
567.814	55.58
568.238	55.42
568.662	55.32
569.086	55.17
569.509	55.03
569.933	54.9
570.357	54.76
570.78	54.57
571.204	54.4
571.627	54.26
572.05	54.13
572.474	54.01
572.897	53.85
573.32	53.69
573.743	53.57
574.166	53.44
574.589	53.3
575.012	53.2
575.435	53.09
575.858	52.98
576.281	52.87
576.704	52.77
577.126	52.65
577.549	52.59
577.972	52.5
578.394	52.39
578.817	52.3
579.239	52.22
579.661	52.12
580.084	52.04
580.506	51.98
580.928	51.9
581.35	51.83
581.772	51.79
582.194	51.69
582.616	51.6
583.038	51.53
583.46	51.46
583.882	51.39
584.303	51.33
584.725	51.27
585.147	51.18
585.568	51.09
585.99	51
586.411	50.92
586.833	50.86
587.254	50.78
587.675	50.72
588.096	50.69
588.518	50.62
588.939	50.55
589.36	50.46
589.781	50.41
590.202	50.35
590.623	50.29
591.043	50.23
591.464	50.18
591.885	50.15
592.305	50.09
592.726	50.01
593.147	49.98
593.567	49.9
593.987	49.88
594.408	49.81
594.828	49.78
595.248	49.75
595.669	49.7
596.089	49.66
596.509	49.6
596.929	49.54
597.349	49.48
597.769	49.42
598.189	49.37
598.608	49.3
599.028	49.25
599.448	49.16
599.867	49.08
600.287	49.03
600.706	48.94
601.126	48.87
601.545	48.8
601.965	48.74
602.384	48.69
602.803	48.61
603.222	48.56
603.641	48.5
604.061	48.45
604.48	48.38
604.898	48.28
605.317	48.23
605.736	48.15
606.155	48.08
606.574	48
606.992	47.9
607.411	47.84
607.829	47.72
608.248	47.63
608.666	47.54
609.085	47.46
609.503	47.38
609.921	47.3
610.339	47.22
610.758	47.15
611.176	47.08
611.594	46.98
612.012	46.88
612.43	46.82
612.847	46.74
613.265	46.66
613.683	46.57
614.101	46.47
614.518	46.38
614.936	46.29
615.353	46.2
615.771	46.1
616.188	46.03
616.606	45.95
617.023	45.87
617.44	45.79
617.857	45.71
618.274	45.66
618.691	45.61
619.108	45.54
619.525	45.51
619.942	45.45
620.359	45.42
620.776	45.39
621.192	45.34
621.609	45.31
622.026	45.29
622.442	45.26
622.859	45.22
623.275	45.2
623.691	45.18
624.108	45.14
624.524	45.14
624.94	45.12
625.356	45.09
625.772	45.1
626.188	45.09
626.604	45.07
627.02	45.07
627.436	45.05
627.852	45.02
628.268	45.02
628.683	44.99
629.099	44.98
629.514	44.94
629.93	44.9
630.345	44.85
630.761	44.79
631.176	44.73
631.591	44.67
632.007	44.59
632.422	44.52
632.837	44.41
633.252	44.29
633.667	44.14
634.082	44
634.497	43.85
634.911	43.67
635.326	43.47
635.741	43.26
636.155	43.02
636.57	42.78
636.984	42.49
637.399	42.19
637.813	41.89
638.228	41.57
638.642	41.27
639.056	40.95
639.47	40.6
639.884	40.29
640.298	39.95
640.712	39.58
641.126	39.24
641.54	38.89
641.954	38.58
642.368	38.24
642.781	37.9
643.195	37.53
643.609	37.2
644.022	36.87
644.436	36.52
644.849	36.19
645.262	35.9
645.676	35.61
646.089	35.35
646.502	35.07
646.915	34.86
647.328	34.63
647.741	34.42
648.154	34.25
648.567	34.09
648.98	33.95
649.393	33.82
649.805	33.69
650.218	33.58
650.631	33.47
651.043	33.37
651.456	33.28
651.868	33.22
652.28	33.16
652.693	33.05
653.105	32.98
653.517	32.87
653.929	32.83
654.341	32.74
654.753	32.65
655.165	32.53
655.577	32.4
655.989	32.25
656.401	32.08
656.813	31.91
657.224	31.75
657.636	31.57
658.047	31.4
658.459	31.17
658.87	30.96
659.282	30.75
659.693	30.56
660.104	30.35
660.515	30.13
660.926	29.93
661.338	29.72
661.749	29.47
662.159	29.26
662.57	29.03
662.981	28.82
663.392	28.59
663.803	28.38
664.213	28.16
664.624	27.97
665.035	27.78
665.445	27.61
665.855	27.42
666.266	27.27
666.676	27.09
667.086	26.97
667.497	26.83
667.907	26.72
668.317	26.63
668.727	26.53
669.137	26.45
669.547	26.38
669.956	26.31
670.366	26.3
670.776	26.29
671.186	26.27
671.595	26.24
672.005	26.26
672.414	26.27
672.824	26.29
673.233	26.34
673.642	26.37
674.052	26.42
674.461	26.48
674.87	26.54
675.279	26.61
675.688	26.72
676.097	26.85
676.506	26.97
676.915	27.12
677.323	27.3
677.732	27.5
678.141	27.71
678.549	27.96
678.958	28.26
679.366	28.56
679.775	28.89
680.183	29.27
680.592	29.69
681	30.12
681.408	30.61
681.816	31.1
682.224	31.65
682.632	32.27
683.04	32.89
683.448	33.53
683.856	34.25
684.264	34.99
684.671	35.78
685.079	36.62
685.487	37.48
685.894	38.38
686.302	39.3
686.709	40.23
687.116	41.16
687.524	42.1
687.931	43.07
688.338	44.05
688.745	45.04
689.152	46.01
689.559	46.94
689.966	47.88
690.373	48.83
690.78	49.74
691.187	50.62
691.593	51.47
692	52.33
692.407	53.19
692.813	54
693.22	54.75
693.626	55.51
694.032	56.22
694.439	56.96
694.845	57.62
695.251	58.29
695.657	58.9
696.063	59.54
696.469	60.12
696.875	60.65
697.281	61.15
697.687	61.7
698.093	62.18
698.498	62.68
698.904	63.13
699.31	63.56
699.715	64
700.12	64.42
700.526	64.84
700.931	65.2
701.337	65.58
701.742	65.92
702.147	66.26
702.552	66.58
702.957	66.89
703.362	67.17
703.767	67.46
704.172	67.73
704.577	67.99
704.981	68.22
705.386	68.47
705.791	68.7
706.195	68.92
706.6	69.11
707.004	69.35
707.408	69.51
707.813	69.73
708.217	69.89
708.621	70.06
709.025	70.21
709.43	70.38
709.834	70.59
710.237	70.72
710.641	70.91
711.045	71.03
711.449	71.15
711.853	71.33
712.256	71.48
712.66	71.67
713.064	71.79
713.467	71.92
713.87	72.05
714.274	72.14
714.677	72.29
715.08	72.42
715.484	72.57
715.887	72.68
716.29	72.81
716.693	72.88
717.096	72.97
717.499	73.07
717.901	73.18
718.304	73.28
718.707	73.38
719.109	73.48
719.512	73.58
719.915	73.66
720.317	73.77
720.719	73.84
721.122	73.95
721.524	74.02
721.926	74.11
722.328	74.21
722.731	74.28
723.133	74.33
723.535	74.4
723.937	74.47
724.338	74.49
724.74	74.53
725.142	74.54
725.544	74.53
725.945	74.57
726.347	74.65
726.748	74.63
727.15	74.7
727.551	74.75
727.952	74.77
728.354	74.81
728.755	74.87
729.156	74.95
729.557	75.06
729.958	75.16
730.359	75.19
730.76	75.17
731.161	75.22
731.562	75.23
731.962	75.26
732.363	75.28
732.763	75.31
733.164	75.32
733.564	75.31
733.965	75.26
734.365	75.24
734.766	75.24
735.166	75.24
735.566	75.2
735.966	75.18
736.366	75.19
736.766	75.18
737.166	75.17
737.566	75.16
737.966	75.16
738.365	75.19
738.765	75.23
739.165	75.21
739.564	75.24
739.964	75.26
740.363	75.3
740.763	75.28
741.162	75.29
741.561	75.31
741.96	75.34
742.36	75.37
742.759	75.33
743.158	75.29
743.557	75.33
743.955	75.38
744.354	75.41
744.753	75.44
745.152	75.45
745.55	75.46
745.949	75.46
746.348	75.47
746.746	75.42
747.144	75.5
747.543	75.52
747.941	75.56
748.339	75.56
748.737	75.58
749.136	75.57
749.534	75.63
749.932	75.63
750.33	75.65
750.727	75.64
751.125	75.67
751.523	75.62
751.921	75.61
752.318	75.59
752.716	75.52
753.113	75.51
753.511	75.45
753.908	75.36
754.305	75.31
754.703	75.23
755.1	75.25
755.497	75.24
755.894	75.25
756.291	75.19
756.688	75.19
757.085	75.22
757.482	75.21
757.878	75.23
758.275	75.25
758.672	75.3
759.068	75.34
759.465	75.31
759.861	75.29
760.258	75.26
760.654	75.29
761.05	75.23
761.447	75.17
761.843	75.13
762.239	75.1
762.635	75.1
763.031	75.07
763.427	75.04
763.822	74.99
764.218	74.97
764.614	74.94
765.01	74.92
765.405	74.91
765.801	74.89
766.196	74.88
766.592	74.88
766.987	74.84
767.382	74.82
767.778	74.8
768.173	74.82
768.568	74.8
768.963	74.79
769.358	74.79
769.753	74.84
770.148	74.82
770.542	74.8
770.937	74.78
771.332	74.79
771.726	74.8
772.121	74.81
772.515	74.78
772.91	74.79
773.304	74.79
773.699	74.78
774.093	74.73
774.487	74.78
774.881	74.81
775.275	74.85
775.669	74.83
776.063	74.77
776.457	74.78
776.851	74.78
777.245	74.78
777.638	74.83
778.032	74.83
778.425	74.86
778.819	74.81
779.212	74.75
779.606	74.74
779.999	74.74
780.392	74.77
780.786	74.73
781.179	74.75
781.572	74.76
781.965	74.73
782.358	74.7
782.751	74.68
783.143	74.74
783.536	74.82
783.929	74.86
784.322	74.9
784.714	74.91
785.107	74.95
785.499	74.92
785.891	74.91
786.284	74.86
786.676	74.92
787.068	74.91
787.46	74.92
787.852	74.9
788.245	74.88
788.636	74.86
789.028	74.87
789.42	74.86
789.812	74.86
790.204	74.84
790.595	74.88
790.987	74.89
791.378	74.86
791.77	74.85
792.161	74.83
792.553	74.8
792.944	74.79
793.335	74.79
793.726	74.75
794.117	74.73
794.508	74.77
794.899	74.75
795.29	74.75
795.681	74.83
796.072	74.82
796.463	74.82
796.853	74.85
797.244	74.86
797.634	74.86
798.025	74.95
798.415	74.99
798.806	75
799.196	75.04
799.586	75.01
799.976	74.96
800.366	74.98
800.756	74.98
801.146	74.99
801.536	74.99
801.926	74.96
802.316	74.93
802.706	74.94
803.095	74.91
803.485	74.9
803.874	74.92
804.264	75.01
804.653	74.98
805.043	74.97
805.432	74.93
805.821	74.92
806.21	74.99
806.599	75
806.988	74.98
807.377	75.01
807.766	75.02
808.155	75.03
808.544	74.99
808.933	75.01
809.321	75.09
809.71	75.12
810.098	75.12
810.487	75.09
810.875	75.07
811.264	75.09
811.652	75.13
812.04	75.08
812.428	75.12
812.816	75.13
813.204	75.12
813.592	75.07
813.98	75.09
814.368	75.08
814.756	75.09
815.144	75.14
815.531	75.18
815.919	75.12
816.306	75.15
816.694	75.11
817.081	75.12
817.469	75.12
817.856	75.15
818.243	75.14
818.63	75.2
819.017	75.22
819.404	75.18
819.791	75.15
820.178	75.18
820.565	75.21
820.952	75.22
821.339	75.25
821.725	75.31
822.112	75.33
822.498	75.37
822.885	75.34
823.271	75.38
823.657	75.39
824.044	75.4
824.43	75.42
824.816	75.42
825.202	75.43
825.588	75.39
825.974	75.4
826.36	75.41
826.746	75.42
827.132	75.4
827.517	75.39
827.903	75.41
828.289	75.39
828.674	75.34
829.06	75.34
829.445	75.35
829.83	75.37
830.216	75.35
830.601	75.33
830.986	75.31
831.371	75.37
831.756	75.29
832.141	75.33
832.526	75.35
832.911	75.41
833.295	75.42
833.68	75.43
834.065	75.42
834.449	75.4
834.834	75.37
835.218	75.36
835.603	75.33
835.987	75.35
836.371	75.37
836.755	75.34
837.139	75.34
837.524	75.3
837.908	75.26
838.291	75.27
838.675	75.31
839.059	75.32
839.443	75.31
839.827	75.27
840.21	75.27
840.594	75.21
840.977	75.19
841.361	75.19
841.744	75.2
842.127	75.19
842.511	75.17
842.894	75.14
843.277	75.12
843.66	75.11
844.043	75.13
844.426	75.16
844.809	75.16
845.191	75.18
845.574	75.16
845.957	75.14
846.339	75.14
846.722	75.14
847.104	75.13
847.487	75.18
847.869	75.21
848.252	75.19
848.634	75.21
849.016	75.23
849.398	75.22
849.78	75.23
850.162	75.23
850.544	75.26
850.926	75.24
851.307	75.26
851.689	75.18
852.071	75.15
852.452	75.16
852.834	75.12
853.215	75.1
853.597	75.07
853.978	75.07
854.359	75.03
854.741	75.02
855.122	75.02
855.503	75.02
855.884	75.07
856.265	75.02
856.646	75.01
857.026	75
857.407	74.96
857.788	75
858.169	74.96
858.549	75.01
858.93	75.01
859.31	74.99
859.69	74.96
860.071	74.93
860.451	74.94
860.831	74.92
861.211	74.93
861.591	74.95
861.971	74.91
862.351	74.93
862.731	74.91
863.111	74.86
863.491	74.89
863.87	74.9
864.25	74.91
864.629	74.92
865.009	74.91
865.388	74.88
865.768	74.9
866.147	74.93
866.526	74.94
866.905	74.91
867.284	74.96
867.663	74.93
868.042	74.93
868.421	74.93
868.8	74.93
869.179	74.96
869.558	74.98
869.936	74.96
870.315	74.93
870.693	74.93
871.072	74.93
871.45	74.94
871.828	74.95
872.207	74.97
872.585	74.95
872.963	74.94
873.341	74.96
873.719	74.94
874.097	74.95
874.475	74.98
874.853	74.97
875.23	75
875.608	74.97
875.986	74.94
876.363	74.94
876.741	74.95
877.118	74.92
877.495	74.91
877.873	74.94
878.25	74.92
878.627	74.93
879.004	74.92
879.381	74.89
879.758	74.86
880.135	74.88
880.512	74.87
880.889	74.84
881.265	74.92
881.642	74.92
882.019	74.91
882.395	74.91
882.772	74.91
883.148	74.92
883.524	74.97
883.901	74.97
884.277	74.95
884.653	74.97
885.029	75
885.405	74.95
885.781	74.92
886.157	74.94
886.532	74.93
886.908	74.94
887.284	74.93
887.659	74.91
888.035	74.94
888.411	74.92
888.786	74.89
889.161	74.88
889.537	74.89
889.912	74.87
890.287	74.83
890.662	74.82
891.037	74.76
891.412	74.7
891.787	74.65
892.162	74.6
892.536	74.59
892.911	74.56
893.286	74.47
893.66	74.43
894.035	74.42
894.409	74.41
894.784	74.38
895.158	74.39
895.532	74.38
895.906	74.36
896.281	74.34
896.655	74.33
897.029	74.35
897.402	74.41
897.776	74.41
898.15	74.42
898.524	74.38
898.898	74.34
899.271	74.36
899.645	74.36
900.018	74.33
900.392	74.35
900.765	74.35
901.138	74.34
901.511	74.32
901.884	74.33
902.258	74.32
902.631	74.33
903.003	74.35
903.376	74.34
903.749	74.39
904.122	74.41
904.495	74.42
904.867	74.41
905.24	74.39
905.612	74.39
905.985	74.34
906.357	74.29
906.729	74.29
907.102	74.31
907.474	74.29
907.846	74.23
908.218	74.23
908.59	74.18
908.962	74.16
909.334	74.15
909.705	74.12
910.077	74.13
910.449	74.15
910.82	74.12
911.192	74.11
911.563	74.08
911.935	74.07
912.306	74.06
912.677	74.08
913.048	74.05
913.419	74.05
913.79	74.03
914.161	73.98
914.532	73.98
914.903	73.99
915.274	73.93
915.645	74
916.015	74.02
916.386	74.01
916.756	73.98
917.127	74.03
917.497	74.04
917.868	74.04
918.238	74.12
918.608	74.09
918.978	74.08
919.348	74.1
919.718	74.04
920.088	74.01
920.458	74.05
920.828	74.06
921.198	74.04
921.567	74.02
921.937	74.02
922.306	73.95
922.676	73.96
923.045	73.92
923.415	73.93
923.784	73.97
924.153	73.97
924.522	73.91
924.891	73.87
925.26	73.82
925.629	73.83
925.998	73.82
926.367	73.81
926.736	73.78
927.104	73.83
927.473	73.84
927.842	73.81
928.21	73.8
928.578	73.75
928.947	73.78
929.315	73.78
929.683	73.77
930.051	73.74
930.42	73.76
930.788	73.81
931.156	73.76
931.523	73.72
931.891	73.66
932.259	73.59
932.627	73.57
932.994	73.54
933.362	73.51
933.729	73.43
934.097	73.39
934.464	73.33
934.831	73.2
935.199	73.23
935.566	73.18
935.933	73.17
936.3	73.13
936.667	73.08
937.034	73
937.401	72.96
937.767	72.93
938.134	72.89
938.501	72.86
938.867	72.87
939.234	72.83
939.6	72.76
939.967	72.71
940.333	72.85
940.699	72.99
941.065	73.18
941.431	73.19
941.798	73.32
942.163	73.46
942.529	73.51
942.895	73.6
943.261	73.52
943.627	73.64
943.992	73.71
944.358	73.57
944.723	73.53
945.089	73.45
945.454	73.54
945.82	73.56
946.185	73.59
946.55	73.75
946.915	73.79
947.28	73.81
947.645	73.84
948.01	73.81
948.375	73.93
948.74	73.86
949.104	73.9
949.469	73.78
949.834	73.72
950.198	73.58
950.562	73.45
950.927	73.43
951.291	73.46
951.655	73.41
952.02	73.47
952.384	73.45
952.748	73.44
953.112	73.35
953.476	73.34
953.839	73.32
954.203	73.26
954.567	73.22
954.931	73.18
955.294	73.08
955.658	72.97
956.021	72.89
956.385	72.85
956.748	72.88
957.111	72.86
957.474	72.89
957.837	72.97
958.2	72.89
958.563	72.88
958.926	72.73
959.289	72.78
959.652	72.88
960.015	72.85
960.377	72.79
960.74	72.75
961.102	72.76
961.465	72.75
961.827	72.54
962.189	72.55
962.552	72.48
962.914	72.52
963.276	72.49
963.638	72.36
964	72.31
964.362	72.36
964.724	72.36
965.085	72.35
965.447	72.18
965.809	72.19
966.17	72.17
966.532	72.22
966.893	72.28
967.255	72.23
967.616	72.33
967.977	72.38
968.338	72.4
968.699	72.3
969.061	72.24
969.421	72.4
969.782	72.42
970.143	72.41
970.504	72.35
970.865	72.25
971.225	72.29
971.586	72.31
971.946	72.31
972.307	72.17
972.667	72.24
973.027	72.35
973.388	72.32
973.748	72.39
974.108	72.46
974.468	72.49
974.828	72.55
975.188	72.52
975.548	72.54
975.907	72.55
976.267	72.63
976.627	72.59
976.986	72.54
977.346	72.54
977.705	72.57
978.064	72.57
978.424	72.58
978.783	72.66
979.142	72.63
979.501	72.47
979.86	72.45
980.219	72.36
980.578	72.36
980.937	72.4
981.296	72.4
981.654	72.38
982.013	72.46
982.371	72.47
982.73	72.33
983.088	72.37
983.447	72.47
983.805	72.43
984.163	72.54
984.521	72.43
984.879	72.4
985.237	72.39
985.595	72.33
985.953	72.27
986.311	72.34
986.669	72.43
987.026	72.44
987.384	72.37
987.741	72.41
988.099	72.37
988.456	72.46
988.814	72.47
989.171	72.45
989.528	72.4
989.885	72.33
990.242	72.27
990.599	72.26
990.956	72.22
991.313	72.28
991.67	72.3
992.027	72.24
992.383	72.2
992.74	72.2
993.096	72.14
993.453	72.1
993.809	72.15
994.165	72.09
994.522	72.13
994.878	72.13
995.234	71.99
995.59	71.9
995.946	72.02
996.302	71.97
996.658	72
997.013	72.1
997.369	72.18
997.725	72.21
998.08	72.3
998.436	72.3
998.791	72.38
999.147	72.54
999.502	72.55
999.857	72.52
1000.212	72.49
1000.567	72.7
1000.922	72.68
1001.277	72.66
1001.632	72.61
1001.987	72.48
1002.342	72.45
1002.696	72.43
1003.051	72.24
1003.406	72.23
1003.76	72.08
1004.114	72.32
1004.469	72.01
1004.823	72.03
1005.177	72.22
1005.531	72.12
1005.885	72.18
1006.239	72.18
1006.593	72.06
1006.947	72.16
1007.301	72.3
1007.655	72.47
1008.008	72.23
1008.362	72.33
1008.715	72.25
1009.069	71.97
1009.422	71.85
1009.776	71.73
1010.129	71.74
1010.482	71.88
1010.835	72.15
1011.188	71.86
1011.541	71.6
1011.894	71.65
1012.247	71.5
1012.6	71.48
1012.952	71.63
1013.305	71.85
1013.657	71.92
1014.01	71.87
1014.362	71.95
1014.715	71.64
1015.067	71.94
1015.419	72.17
1015.771	72.43
1016.123	72.44
1016.475	72.77
1016.827	72.88
1017.179	73.18
1017.531	73.25
1017.883	73.45
1018.234	73.39
1018.586	73.43
1018.938	73.25
1019.289	73.26
1019.64	73.27
1019.992	73.42
1020.343	72.87
1020.694	72.73
1021.045	72.39
1021.396	72.38
1021.747	72.15
1022.098	72.29
1022.449	72.48
1022.8	72.71
1023.151	73.03
1023.501	73
1023.852	73.02
1024.202	73.31
1024.553	72.98
1024.903	72.87
1025.253	72.99
1025.604	72.69
1025.954	72.32
1026.304	72.56
1026.654	72.84
1027.004	72.7
1027.354	72.83
1027.703	72.23
1028.053	71.87
1028.403	72.16
1028.753	72.37
1029.102	71.92
1029.452	72.02
1029.801	71.82
1030.15	71.31
1030.499	70.66
897.758	518.27
901.051	533.27
904.343	535.13
907.636	531.2
910.928	519.32
914.22	528.12
917.511	519.29
920.803	495.34
924.094	479.33
927.384	485.82
930.675	471.02
933.965	466.22
937.255	461.04
940.544	444.1
943.834	419.44
947.123	417.69
950.411	397.66
953.7	388.64
956.988	380.47
960.276	360.21
963.563	356.89
966.851	339.73
970.138	334.54
973.424	313.89
976.711	310.13
979.997	302.5
983.283	293.98
986.568	284.4
989.853	278.66
993.138	268.56
996.423	268.11
999.708	259.32
1002.992	259.78
1006.275	254.7
1009.559	253.08
1012.842	245.79
1016.125	240.27
1019.408	236.14
1022.69	235.22
1025.972	233.19
1029.254	227.48
1032.536	223.69
1035.817	216.36
1039.098	213.76
1042.379	209.53
1045.659	206.87
1048.939	205.85
1052.219	201.74
1055.498	199.82
1058.778	196.26
1062.057	192.72
1065.335	192.81
1068.614	189.1
1071.892	187.36
1075.17	185.27
1078.447	183.08
1081.724	181.65
1085.001	177.8
1088.278	179.05
1091.554	177.62
1094.83	176.59
1098.106	174.53
1101.382	173.43
1104.657	173.42
1107.932	173.17
1111.206	171.3
1114.481	169.47
1117.755	168.62
1121.029	169.07
1124.302	165.9
1127.575	163.25
1130.848	162.55
1134.121	161.14
1137.393	160.87
1140.665	159.74
1143.937	157.92
1147.208	156.7
1150.48	155.5
1153.75	155.96
1157.021	153.65
1160.291	153.77
1163.561	154.7
1166.831	152.78
1170.101	152.77
1173.37	151.34
1176.639	150.19
1179.907	149.96
1183.176	149.62
1186.444	148.98
1189.711	147.2
1192.979	149.83
1196.246	149.05
1199.513	147.99
1202.78	148.83
1206.046	148.63
1209.312	149.12
1212.578	150.3
1215.843	151.86
1219.108	152.41
1222.373	155.69
1225.638	156.9
1228.902	158.75
1232.166	162.73
1235.43	165.22
1238.693	169.47
1241.956	172.39
1245.219	177.19
1248.482	177.9
1251.744	177.85
1255.006	178.73
1258.268	173.22
1261.529	172.9
1264.79	168.96
1268.051	166.38
1271.312	164.4
1274.572	161.56
1277.832	159.18
1281.092	156.07
1284.351	153.19
1287.61	153.44
1290.869	152.53
1294.128	153.34
1297.386	152.51
1300.644	151.48
1303.902	150.95
1307.159	151.13
1310.416	151.01
1313.673	152.51
1316.93	153.27
1320.186	155.84
1323.442	157.08
1326.697	159.46
1329.953	159.68
1333.208	163.93
1336.463	170
1339.717	172.46
1342.972	178.11
1346.226	182.21
1349.479	183.41
1352.733	191.49
1355.986	193.77
1359.238	197.44
1362.491	198.38
1365.743	205.51
1368.995	206.18
1372.247	203.45
1375.498	202.55
1378.749	208.55
1382	207.83
1385.251	206.53
1388.501	206.06
1391.751	208.11
1395	207.1
1398.25	209.02
1401.499	207.48
1404.748	206.98
1407.996	202.9
1411.244	202.95
1414.492	199.43
1417.74	194.15
1420.987	189.24
1424.234	184.46
1427.481	177.36
1430.728	173.18
1433.974	166.3
1437.22	162.43
1440.465	157.14
1443.711	153.82
1446.956	149.54
1450.201	143.62
1453.445	138.31
1456.689	135.64
1459.933	131.52
1463.177	126.91
1466.42	124.54
1469.663	121.68
1472.906	117.85
1476.148	116.15
1479.391	114.15
1482.633	112.65
1485.874	111.26
1489.115	110.66
1492.356	108.11
1495.597	107.47
1498.838	107.89
1502.078	106.9
1505.318	107.1
1508.557	106.74
1511.797	105.25
1515.036	105.06
1518.274	104.98
1521.513	103.99
1524.751	103.71
1527.989	105.29
1531.227	105.04
1534.464	104.73
1537.701	103.97
1540.938	103.75
1544.174	103.85
1547.41	104.73
1550.646	104.37
1553.882	104.32
1557.117	104.6
1560.352	104.47
1563.587	102.94
1566.821	103.16
1570.055	102.9
1573.289	102.73
1576.523	103.12
1579.756	102.73
1582.989	102.73
1586.222	103.05
1589.454	103.2
1592.686	103.02
1595.918	103.03
1599.15	103.62
1602.381	103.67
1605.612	103.79
1608.843	103.71
1612.073	104.12
1615.303	104.2
1618.533	103.96
1621.762	104.15
1624.992	104.01
1628.221	103.88
1631.449	104.14
1634.678	104.01
1637.906	103.53
1641.134	103.51
1644.361	104.14
1647.588	103.38
1650.815	103.5
1654.042	103.73
1657.269	103.28
1660.495	103.61
1663.72	103.45
1666.946	103.4
1670.171	103.75
1673.396	104.53
1676.621	105.1
1679.845	105.09
1683.069	104.7
1686.293	104.97
1689.517	104.59
1692.74	104.8
1695.963	104.93
1699.185	105.76
1702.408	105.78
1705.63	105.91
1708.852	106.29
1712.073	105.69
1715.294	105.65
1718.515	107.05
1721.736	107
1724.956	106.94
1728.176	106.97
1731.396	107.38
1734.616	107.03
1737.835	107.24
1741.054	106.43
1744.272	106.2
1747.491	106.51
1750.709	107
1753.927	106.71
1757.144	106.02
1760.361	106.65
1763.578	106.8
1766.795	107.14
1770.011	107.53
1773.227	108
1776.443	109.24
1779.658	109.14
1782.874	109.42
1786.089	108.97
1789.303	108.76
1792.518	110.32
1795.732	110.68
1798.945	112.21
1802.159	112.01
1805.372	113.19
1808.585	113.36
1811.797	113.9
1815.01	114.83
1818.222	115.53
1821.434	116.84
1824.645	117.81
1827.856	118.67
1831.067	118.67
1834.278	118.93
1837.488	119.51
1840.698	120.28
1843.908	120.45
1847.117	121.01
1850.326	121.29
1853.535	121.49
1856.744	122.52
1859.952	122.81
1863.16	122.48
1866.368	121.98
1869.575	121.79
1872.782	121.04
1875.989	119.37
1879.196	118.31
1882.402	116.93
1885.608	117.15
1888.814	116.03
1892.019	114.91
1895.224	112.51
1898.429	112.58
1901.634	113.63
1904.838	112.64
1908.042	113.13
1911.246	112.06
1914.449	112.77
1917.652	112.6
1920.855	112.66
1924.058	112.43
1927.26	111.77
1930.462	113.14
1933.664	112.73
1936.865	111.6
1940.066	110.93
1943.267	109.09
1946.467	111.08
1949.668	110.39
1952.868	112.35
1956.067	111.91
1959.267	112.59
1962.466	113.12
1965.665	113.69
1968.863	115.73
1972.061	116.11
1975.259	118.67
1978.457	120.56
1981.654	120.95
1984.852	122.42
1988.048	122.55
1991.245	124.64
1994.441	126.99
1997.637	130.15
2000.833	133.02
2004.028	133.96
2007.223	139.15
2010.418	141.56
2013.613	147.74
2016.807	152.27
2020.001	155.87
2023.194	159.64
2026.388	163.99
2029.581	172.39
2032.774	176.75
2035.966	181.86
2039.158	187.66
2042.35	189.27
2045.542	191.62
2048.733	199.02
2051.924	200.73
2055.115	201.96
2058.306	204.29
2061.496	208.18
2064.686	208.09
2067.875	207.94
2071.065	210.62
2074.254	209.08
2077.442	216.52
2080.631	218.93
2083.819	218.55
2087.007	223.51
2090.195	228.21
2093.382	229.13
2096.569	229.84
2099.756	233.6
2102.942	238.84
2106.128	241.94
2109.314	244.45
2112.5	244.46
2115.685	243.13
2118.87	243.61
2122.055	244.72
2125.239	249.66
2128.424	255.82
2131.608	253.04
2134.791	251.35
2137.974	252.24
2141.157	253.29
2144.34	255.75
2147.523	260.98
2150.705	268.67
2153.887	265.8
2157.068	268.42
2160.25	271.99
2163.431	267.45
2166.611	275.91
2169.792	281.79
2172.972	285.13
2176.152	287.37
2179.331	294.16
2182.511	291.84
2185.69	296.08
2188.868	306.75
2192.047	312.15
2195.225	315.25
2198.403	323.44
2201.58	316.75
2204.758	326.53
2207.935	328.4
2211.111	333.88
2214.288	335.33
2217.464	339.57
2220.64	339.99
2223.815	342.03
2226.991	337.11
2230.166	340.46
2233.34	347.91
2236.515	357.79
2239.689	352.31
2242.863	358.57
2246.036	355.38
2249.209	362.73
2252.382	362.19
2255.555	376.16
2258.727	379.25
2261.9	389.36
2265.071	393.58
2268.243	391.29
2271.414	402.61
2274.585	410.99
2277.756	415.51
2280.926	424.15
2284.096	424.3
2287.266	427.91
2290.436	416.65
2293.605	425.41
2296.774	444.98
2299.942	444.61
2303.111	456.95
2306.279	462.79
2309.447	465.91
2312.614	459.66
2315.781	479.72
2318.948	487.31
2322.115	494.83
2325.281	520.94
2328.447	519.06
2331.613	515.42
2334.779	524.24
2337.944	530.05
2341.109	540.44
2344.274	548.15
2347.438	568.81
2350.602	575.68
2353.766	606.32
2356.929	610.67
2360.092	619.81
2363.255	620.37
2366.418	631.38
2369.58	645.67
2372.742	639.58
2375.904	638.95
2379.066	651.9
2382.227	686.58
2385.388	685.35
2388.548	651.28
2391.709	645.89
2394.869	666.97
2398.029	669.19
2401.188	669.04
2404.347	686.7
2407.506	716.77
2410.665	689.24
2413.823	693.5
2416.981	692.59
2420.139	658.59
2423.296	710.04
2426.453	756.44
2429.61	720.93
2432.767	765.71
2435.923	796.3
2439.079	766.35
2442.235	788.24
2445.391	804.98
2448.546	793.81
2451.701	837.85
2454.855	893.84
2458.009	794.54
2461.163	802.19
2464.317	812.57
2467.471	797.09
2470.624	818.82
2473.777	807.64
2476.929	775.47
2480.082	832.99
2483.234	873.82
2486.385	878.75
2489.537	899.65
2492.688	997.43
2495.839	982.27
2498.989	1005.46
2502.14	1011.68
2505.29	965.9
2508.439	1080.37
2511.589	1115.38
2514.738	1068.6
2517.887	1062.81
2521.035	998.77
2524.183	986.3
2527.331	971.17
2530.479	949.69
2533.627	969.45
