Data from N_1_hir_wi_4n_041_Splice17_13.txt Node
Date: Sat Feb 29 13:50:30 EST 2020
User: sa697716
Spectrometer: FLMS03696
Trigger mode: 0
Integration Time (sec): 3.180400E-1
Scans to average: 20
Electric dark correction enabled: true
Nonlinearity correction enabled: true
Boxcar width: 5
XAxis mode: Wavelengths
Number of Pixels in Spectrum: 2048
>>>>>Begin Spectral Data<<<<<
187.83	83.34
188.298	92.86
188.766	87.83
189.233	67.67
189.701	66.06
190.169	75.55
190.636	68.96
191.104	80.34
191.571	312.22
192.039	320.36
192.506	-427.17
192.974	-5507.56
193.441	441.16
193.908	9.95
194.375	-52.48
194.842	48.44
195.31	31.82
195.777	27.45
196.244	81.51
196.711	78.53
197.177	76.19
197.644	76.41
198.111	78.34
198.578	78.4
199.045	79.12
199.511	78.7
199.978	77.82
200.445	77.9
200.911	77.75
201.378	77.25
201.844	78.01
202.31	78.37
202.777	77.97
203.243	78.22
203.709	77.92
204.176	77.29
204.642	76.71
205.108	76.27
205.574	76.39
206.04	75.99
206.506	75.31
206.972	74.38
207.438	74.09
207.903	73.89
208.369	71.94
208.835	70.64
209.301	69.44
209.766	67.72
210.232	66.78
210.697	65.4
211.163	64.18
211.628	62.96
212.094	61.66
212.559	60.08
213.024	58.25
213.49	56.83
213.955	55.83
214.42	54.19
214.885	52.84
215.35	50.76
215.815	48.02
216.28	44.92
216.745	41.78
217.21	38.55
217.675	35.6
218.14	32.89
218.604	30.38
219.069	28.16
219.534	26.29
219.998	24.68
220.463	23.36
220.927	22.27
221.392	21.32
221.856	20.49
222.32	19.76
222.785	19.08
223.249	18.55
223.713	18.13
224.177	17.68
224.642	17.31
225.106	16.95
225.57	16.59
226.034	16.28
226.497	15.96
226.961	15.69
227.425	15.37
227.889	15.07
228.353	14.78
228.816	14.51
229.28	14.24
229.744	14.04
230.207	13.8
230.671	13.59
231.134	13.38
231.597	13.19
232.061	13.01
232.524	12.86
232.987	12.72
233.45	12.57
233.914	12.43
234.377	12.31
234.84	12.15
235.303	12.03
235.766	11.9
236.229	11.78
236.691	11.68
237.154	11.56
237.617	11.47
238.08	11.37
238.542	11.26
239.005	11.17
239.468	11.06
239.93	11
240.393	10.9
240.855	10.8
241.317	10.73
241.78	10.65
242.242	10.57
242.704	10.48
243.166	10.41
243.629	10.34
244.091	10.25
244.553	10.19
245.015	10.11
245.477	10.05
245.939	9.99
246.4	9.92
246.862	9.86
247.324	9.8
247.786	9.74
248.247	9.68
248.709	9.64
249.17	9.58
249.632	9.53
250.093	9.46
250.555	9.41
251.016	9.38
251.477	9.31
251.939	9.26
252.4	9.22
252.861	9.18
253.322	9.14
253.783	9.1
254.244	9.06
254.705	9.01
255.166	9
255.627	8.96
256.088	8.9
256.549	8.86
257.009	8.82
257.47	8.77
257.931	8.73
258.391	8.67
258.852	8.62
259.312	8.58
259.773	8.54
260.233	8.5
260.694	8.46
261.154	8.42
261.614	8.39
262.074	8.36
262.534	8.33
262.994	8.3
263.455	8.27
263.915	8.24
264.374	8.21
264.834	8.18
265.294	8.14
265.754	8.11
266.214	8.09
266.673	8.07
267.133	8.04
267.593	8.01
268.052	7.98
268.512	7.97
268.971	7.95
269.431	7.94
269.89	7.92
270.349	7.9
270.809	7.89
271.268	7.88
271.727	7.87
272.186	7.86
272.645	7.84
273.104	7.84
273.563	7.83
274.022	7.81
274.481	7.79
274.94	7.78
275.399	7.77
275.857	7.75
276.316	7.73
276.775	7.71
277.233	7.7
277.692	7.69
278.15	7.66
278.609	7.64
279.067	7.62
279.525	7.61
279.984	7.6
280.442	7.59
280.9	7.58
281.358	7.57
281.816	7.55
282.274	7.53
282.732	7.53
283.19	7.53
283.648	7.53
284.106	7.52
284.564	7.52
285.021	7.51
285.479	7.5
285.937	7.49
286.394	7.49
286.852	7.48
287.309	7.48
287.767	7.47
288.224	7.47
288.682	7.45
289.139	7.45
289.596	7.44
290.053	7.43
290.511	7.41
290.968	7.4
291.425	7.38
291.882	7.38
292.339	7.36
292.796	7.35
293.252	7.33
293.709	7.32
294.166	7.3
294.623	7.3
295.079	7.29
295.536	7.28
295.992	7.26
296.449	7.27
296.905	7.26
297.362	7.25
297.818	7.24
298.274	7.24
298.731	7.23
299.187	7.23
299.643	7.22
300.099	7.23
300.555	7.22
301.011	7.23
301.467	7.22
301.923	7.22
302.379	7.22
302.835	7.23
303.291	7.23
303.746	7.23
304.202	7.23
304.658	7.23
305.113	7.23
305.569	7.23
306.024	7.23
306.479	7.23
306.935	7.22
307.39	7.22
307.845	7.21
308.301	7.21
308.756	7.22
309.211	7.22
309.666	7.23
310.121	7.23
310.576	7.24
311.031	7.24
311.486	7.23
311.94	7.24
312.395	7.25
312.85	7.25
313.305	7.26
313.759	7.26
314.214	7.27
314.668	7.27
315.123	7.28
315.577	7.28
316.032	7.28
316.486	7.28
316.94	7.28
317.394	7.27
317.849	7.27
318.303	7.26
318.757	7.25
319.211	7.23
319.665	7.22
320.119	7.21
320.572	7.2
321.026	7.19
321.48	7.18
321.934	7.18
322.387	7.18
322.841	7.17
323.295	7.16
323.748	7.15
324.202	7.14
324.655	7.12
325.108	7.11
325.562	7.1
326.015	7.09
326.468	7.08
326.921	7.06
327.374	7.04
327.827	7.03
328.28	7.01
328.733	7.01
329.186	7.01
329.639	7.01
330.092	7.01
330.545	7.01
330.997	7
331.45	7
331.903	7
332.355	6.99
332.808	6.99
333.26	7
333.713	7.01
334.165	7
334.617	7.01
335.069	7.02
335.522	7.02
335.974	7.02
336.426	7.03
336.878	7.03
337.33	7.04
337.782	7.04
338.234	7.04
338.686	7.03
339.137	7.04
339.589	7.02
340.041	7
340.493	7
340.944	6.99
341.396	6.98
341.847	6.97
342.299	6.96
342.75	6.93
343.201	6.92
343.653	6.9
344.104	6.87
344.555	6.86
345.006	6.85
345.457	6.83
345.908	6.81
346.359	6.8
346.81	6.78
347.261	6.76
347.712	6.75
348.163	6.74
348.613	6.72
349.064	6.7
349.515	6.68
349.965	6.67
350.416	6.66
350.866	6.65
351.317	6.64
351.767	6.64
352.217	6.62
352.668	6.62
353.118	6.61
353.568	6.6
354.018	6.61
354.468	6.61
354.918	6.61
355.368	6.62
355.818	6.62
356.268	6.62
356.718	6.62
357.168	6.62
357.617	6.62
358.067	6.61
358.517	6.61
358.966	6.62
359.416	6.64
359.865	6.63
360.315	6.63
360.764	6.62
361.213	6.62
361.663	6.61
362.112	6.61
362.561	6.61
363.01	6.62
363.459	6.6
363.908	6.59
364.357	6.57
364.806	6.57
365.255	6.57
365.703	6.57
366.152	6.58
366.601	6.58
367.05	6.57
367.498	6.57
367.947	6.57
368.395	6.59
368.844	6.59
369.292	6.58
369.74	6.59
370.189	6.58
370.637	6.58
371.085	6.58
371.533	6.57
371.981	6.57
372.429	6.58
372.877	6.57
373.325	6.56
373.773	6.55
374.221	6.56
374.669	6.56
375.116	6.55
375.564	6.56
376.012	6.56
376.459	6.57
376.907	6.58
377.354	6.58
377.801	6.6
378.249	6.62
378.696	6.64
379.143	6.64
379.591	6.65
380.038	6.67
380.485	6.68
380.932	6.69
381.379	6.7
381.826	6.71
382.273	6.72
382.72	6.72
383.166	6.73
383.613	6.74
384.06	6.75
384.506	6.77
384.953	6.76
385.4	6.78
385.846	6.8
386.292	6.82
386.739	6.82
387.185	6.84
387.631	6.86
388.078	6.88
388.524	6.88
388.97	6.89
389.416	6.9
389.862	6.92
390.308	6.93
390.754	6.95
391.2	6.96
391.645	6.99
392.091	7
392.537	7.01
392.983	7.02
393.428	7.05
393.874	7.07
394.319	7.08
394.765	7.1
395.21	7.09
395.655	7.11
396.101	7.13
396.546	7.14
396.991	7.15
397.436	7.15
397.881	7.17
398.326	7.2
398.771	7.22
399.216	7.23
399.661	7.25
400.106	7.3
400.551	7.3
400.995	7.3
401.44	7.3
401.885	7.31
402.329	7.33
402.774	7.32
403.218	7.32
403.663	7.32
404.107	7.34
404.551	7.36
404.995	7.35
405.44	7.34
405.884	7.36
406.328	7.36
406.772	7.36
407.216	7.37
407.66	7.37
408.104	7.36
408.547	7.37
408.991	7.35
409.435	7.34
409.879	7.34
410.322	7.36
410.766	7.36
411.209	7.36
411.653	7.36
412.096	7.36
412.54	7.37
412.983	7.39
413.426	7.4
413.869	7.42
414.312	7.45
414.756	7.47
415.199	7.48
415.642	7.49
416.085	7.51
416.527	7.52
416.97	7.54
417.413	7.53
417.856	7.52
418.298	7.5
418.741	7.49
419.184	7.47
419.626	7.44
420.069	7.42
420.511	7.43
420.953	7.43
421.396	7.43
421.838	7.44
422.28	7.46
422.722	7.48
423.164	7.47
423.606	7.49
424.048	7.49
424.49	7.5
424.932	7.51
425.374	7.49
425.816	7.47
426.258	7.47
426.699	7.42
427.141	7.41
427.582	7.39
428.024	7.39
428.465	7.39
428.907	7.39
429.348	7.38
429.789	7.37
430.231	7.38
430.672	7.4
431.113	7.41
431.554	7.43
431.995	7.44
432.436	7.44
432.877	7.42
433.318	7.42
433.759	7.42
434.2	7.41
434.64	7.41
435.081	7.38
435.522	7.39
435.962	7.39
436.403	7.41
436.843	7.42
437.284	7.44
437.724	7.48
438.164	7.47
438.604	7.49
439.045	7.51
439.485	7.52
439.925	7.53
440.365	7.51
440.805	7.49
441.245	7.45
441.685	7.44
442.125	7.42
442.564	7.42
443.004	7.41
443.444	7.39
443.883	7.37
444.323	7.35
444.762	7.37
445.202	7.38
445.641	7.41
446.081	7.45
446.52	7.41
446.959	7.42
447.398	7.44
447.837	7.46
448.276	7.46
448.716	7.48
449.154	7.48
449.593	7.47
450.032	7.45
450.471	7.41
450.91	7.38
451.349	7.37
451.787	7.34
452.226	7.29
452.664	7.25
453.103	7.21
453.541	7.19
453.98	7.16
454.418	7.15
454.856	7.1
455.295	7.08
455.733	7.06
456.171	7.03
456.609	7.02
457.047	7
457.485	6.99
457.923	6.99
458.361	6.97
458.798	6.97
459.236	6.96
459.674	6.98
460.111	6.98
460.549	6.98
460.987	6.97
461.424	6.95
461.862	6.95
462.299	6.95
462.736	6.97
463.173	6.96
463.611	6.95
464.048	6.97
464.485	6.95
464.922	6.94
465.359	6.95
465.796	6.96
466.233	6.97
466.67	6.98
467.106	6.98
467.543	6.98
467.98	6.99
468.416	7
468.853	6.99
469.29	7
469.726	7
470.162	6.99
470.599	6.98
471.035	6.99
471.471	6.97
471.907	6.96
472.344	6.96
472.78	6.95
473.216	6.92
473.652	6.9
474.088	6.89
474.523	6.88
474.959	6.88
475.395	6.86
475.831	6.83
476.266	6.82
476.702	6.79
477.138	6.76
477.573	6.74
478.008	6.71
478.444	6.7
478.879	6.68
479.314	6.66
479.75	6.64
480.185	6.62
480.62	6.61
481.055	6.6
481.49	6.58
481.925	6.56
482.36	6.55
482.795	6.54
483.229	6.52
483.664	6.51
484.099	6.49
484.534	6.47
484.968	6.46
485.403	6.45
485.837	6.43
486.271	6.43
486.706	6.41
487.14	6.4
487.574	6.38
488.009	6.38
488.443	6.37
488.877	6.37
489.311	6.36
489.745	6.36
490.179	6.35
490.613	6.36
491.046	6.36
491.48	6.37
491.914	6.38
492.348	6.39
492.781	6.39
493.215	6.38
493.648	6.38
494.082	6.4
494.515	6.4
494.948	6.41
495.382	6.41
495.815	6.42
496.248	6.43
496.681	6.44
497.114	6.44
497.547	6.45
497.98	6.47
498.413	6.48
498.846	6.49
499.279	6.51
499.711	6.53
500.144	6.56
500.577	6.57
501.009	6.59
501.442	6.62
501.874	6.65
502.306	6.68
502.739	6.7
503.171	6.74
503.603	6.77
504.036	6.81
504.468	6.85
504.9	6.9
505.332	6.95
505.764	7
506.196	7.05
506.627	7.11
507.059	7.17
507.491	7.24
507.923	7.3
508.354	7.37
508.786	7.44
509.217	7.5
509.649	7.58
510.08	7.68
510.512	7.77
510.943	7.86
511.374	7.95
511.805	8.06
512.237	8.16
512.668	8.27
513.099	8.38
513.53	8.5
513.961	8.64
514.391	8.75
514.822	8.87
515.253	9
515.684	9.12
516.114	9.26
516.545	9.4
516.975	9.55
517.406	9.7
517.836	9.84
518.267	10.01
518.697	10.17
519.127	10.33
519.558	10.48
519.988	10.65
520.418	10.82
520.848	10.98
521.278	11.17
521.708	11.19
522.138	11.33
522.567	11.5
522.997	11.65
523.427	11.79
523.857	11.94
524.286	12.1
524.716	12.24
525.145	12.39
525.575	12.53
526.004	12.65
526.433	12.92
526.863	13.07
527.292	13.21
527.721	13.34
528.15	13.47
528.579	13.6
529.008	13.71
529.437	13.82
529.866	13.91
530.295	14.02
530.724	14.14
531.152	14.24
531.581	14.33
532.01	14.4
532.438	14.47
532.867	14.53
533.295	14.61
533.723	14.69
534.152	14.76
534.58	14.82
535.008	14.88
535.436	14.93
535.865	14.97
536.293	15.01
536.721	15.06
537.149	15.1
537.576	15.15
538.004	15.17
538.432	15.19
538.86	15.23
539.287	15.25
539.715	15.26
540.143	15.29
540.57	15.31
540.998	15.36
541.425	15.38
541.852	15.41
542.28	15.42
542.707	15.45
543.134	15.48
543.561	15.48
543.988	15.51
544.415	15.52
544.842	15.54
545.269	15.56
545.696	15.57
546.123	15.58
546.549	15.6
546.976	15.64
547.403	15.63
547.829	15.64
548.256	15.66
548.682	15.68
549.108	15.7
549.535	15.71
549.961	15.71
550.387	15.7
550.813	15.7
551.24	15.72
551.666	15.7
552.092	15.71
552.518	15.7
552.943	15.7
553.369	15.69
553.795	15.66
554.221	15.64
554.646	15.62
555.072	15.59
555.498	15.57
555.923	15.52
556.349	15.47
556.774	15.42
557.199	15.37
557.625	15.31
558.05	15.23
558.475	15.17
558.9	15.09
559.325	15.02
559.75	14.92
560.175	14.84
560.6	14.75
561.025	14.67
561.449	14.57
561.874	14.46
562.299	14.38
562.723	14.31
563.148	14.23
563.572	14.13
563.997	14.02
564.421	13.91
564.846	13.81
565.27	13.7
565.694	13.59
566.118	13.48
566.542	13.38
566.966	13.25
567.39	13.12
567.814	13.01
568.238	12.89
568.662	12.78
569.086	12.69
569.509	12.57
569.933	12.45
570.357	12.33
570.78	12.23
571.204	12.12
571.627	12.01
572.05	11.91
572.474	11.8
572.897	11.71
573.32	11.61
573.743	11.5
574.166	11.42
574.589	11.35
575.012	11.27
575.435	11.19
575.858	11.11
576.281	11.04
576.704	10.98
577.126	10.92
577.549	10.86
577.972	10.81
578.394	10.75
578.817	10.7
579.239	10.64
579.661	10.57
580.084	10.51
580.506	10.48
580.928	10.43
581.35	10.37
581.772	10.33
582.194	10.29
582.616	10.24
583.038	10.19
583.46	10.15
583.882	10.12
584.303	10.08
584.725	10.05
585.147	9.99
585.568	9.94
585.99	9.91
586.411	9.86
586.833	9.81
587.254	9.79
587.675	9.76
588.096	9.74
588.518	9.71
588.939	9.68
589.36	9.66
589.781	9.64
590.202	9.62
590.623	9.58
591.043	9.55
591.464	9.52
591.885	9.48
592.305	9.46
592.726	9.44
593.147	9.43
593.567	9.4
593.987	9.39
594.408	9.36
594.828	9.35
595.248	9.33
595.669	9.33
596.089	9.31
596.509	9.28
596.929	9.24
597.349	9.2
597.769	9.17
598.189	9.16
598.608	9.13
599.028	9.11
599.448	9.07
599.867	9.04
600.287	9.01
600.706	9
601.126	8.98
601.545	8.96
601.965	8.93
602.384	8.9
602.803	8.85
603.222	8.82
603.641	8.79
604.061	8.77
604.48	8.72
604.898	8.69
605.317	8.65
605.736	8.61
606.155	8.57
606.574	8.53
606.992	8.49
607.411	8.46
607.829	8.38
608.248	8.34
608.666	8.3
609.085	8.28
609.503	8.24
609.921	8.2
610.339	8.18
610.758	8.15
611.176	8.12
611.594	8.09
612.012	8.05
612.43	8.06
612.847	8.03
613.265	8
613.683	7.94
614.101	7.91
614.518	7.87
614.936	7.83
615.353	7.8
615.771	7.77
616.188	7.74
616.606	7.73
617.023	7.69
617.44	7.66
617.857	7.64
618.274	7.63
618.691	7.61
619.108	7.6
619.525	7.57
619.942	7.55
620.359	7.54
620.776	7.52
621.192	7.5
621.609	7.49
622.026	7.49
622.442	7.48
622.859	7.46
623.275	7.46
623.691	7.45
624.108	7.46
624.524	7.45
624.94	7.45
625.356	7.44
625.772	7.44
626.188	7.44
626.604	7.42
627.02	7.42
627.436	7.42
627.852	7.41
628.268	7.41
628.683	7.4
629.099	7.4
629.514	7.39
629.93	7.39
630.345	7.38
630.761	7.36
631.176	7.36
631.591	7.34
632.007	7.33
632.422	7.31
632.837	7.29
633.252	7.27
633.667	7.26
634.082	7.24
634.497	7.2
634.911	7.17
635.326	7.14
635.741	7.11
636.155	7.08
636.57	7.04
636.984	7.01
637.399	6.96
637.813	6.92
638.228	6.88
638.642	6.84
639.056	6.81
639.47	6.78
639.884	6.75
640.298	6.72
640.712	6.69
641.126	6.65
641.54	6.62
641.954	6.6
642.368	6.57
642.781	6.54
643.195	6.51
643.609	6.47
644.022	6.45
644.436	6.43
644.849	6.41
645.262	6.39
645.676	6.36
646.089	6.34
646.502	6.31
646.915	6.3
647.328	6.29
647.741	6.25
648.154	6.25
648.567	6.23
648.98	6.23
649.393	6.22
649.805	6.2
650.218	6.21
650.631	6.21
651.043	6.2
651.456	6.2
651.868	6.19
652.28	6.21
652.693	6.2
653.105	6.18
653.517	6.18
653.929	6.17
654.341	6.16
654.753	6.14
655.165	6.12
655.577	6.1
655.989	6.08
656.401	6.07
656.813	6.03
657.224	6.02
657.636	6.01
658.047	6
658.459	5.97
658.87	5.95
659.282	5.96
659.693	5.96
660.104	5.96
660.515	5.94
660.926	5.95
661.338	5.97
661.749	5.96
662.159	5.95
662.57	5.94
662.981	5.95
663.392	5.94
663.803	5.93
664.213	5.91
664.624	5.92
665.035	5.92
665.445	5.92
665.855	5.92
666.266	5.93
666.676	5.94
667.086	5.94
667.497	5.93
667.907	5.93
668.317	5.93
668.727	5.94
669.137	5.94
669.547	5.95
669.956	5.95
670.366	5.95
670.776	5.94
671.186	5.94
671.595	5.97
672.005	5.99
672.414	6.01
672.824	6.03
673.233	6.05
673.642	6.05
674.052	6.06
674.461	6.07
674.87	6.09
675.279	6.12
675.688	6.12
676.097	6.14
676.506	6.15
676.915	6.16
677.323	6.19
677.732	6.2
678.141	6.23
678.549	6.26
678.958	6.29
679.366	6.29
679.775	6.32
680.183	6.35
680.592	6.38
681	6.4
681.408	6.42
681.816	6.44
682.224	6.45
682.632	6.48
683.04	6.5
683.448	6.52
683.856	6.57
684.264	6.59
684.671	6.63
685.079	6.65
685.487	6.7
685.894	6.75
686.302	6.8
686.709	6.86
687.116	6.92
687.524	6.98
687.931	7.07
688.338	7.16
688.745	7.27
689.152	7.39
689.559	7.55
689.966	7.69
690.373	7.87
690.78	8.04
691.187	8.24
691.593	8.46
692	8.7
692.407	8.96
692.813	9.25
693.22	9.53
693.626	9.83
694.032	10.13
694.439	10.47
694.845	10.81
695.251	11.17
695.657	11.53
696.063	11.93
696.469	12.34
696.875	12.74
697.281	13.14
697.687	13.56
698.093	13.99
698.498	14.44
698.904	14.9
699.31	15.34
699.715	15.81
700.12	16.24
700.526	16.71
700.931	17.17
701.337	17.65
701.742	18.11
702.147	18.6
702.552	19.09
702.957	19.55
703.362	20.03
703.767	20.52
704.172	20.99
704.577	21.51
704.981	21.98
705.386	22.46
705.791	22.93
706.195	23.41
706.6	23.86
707.004	24.3
707.408	24.77
707.813	25.23
708.217	25.7
708.621	26.15
709.025	26.61
709.43	27.05
709.834	27.54
710.237	27.98
710.641	28.43
711.045	28.9
711.449	29.36
711.853	29.82
712.256	30.28
712.66	30.71
713.064	31.17
713.467	31.61
713.87	32.06
714.274	32.48
714.677	32.92
715.08	33.34
715.484	33.8
715.887	34.22
716.29	34.63
716.693	35.01
717.096	35.45
717.499	35.84
717.901	36.23
718.304	36.63
718.707	37.02
719.109	37.42
719.512	37.82
719.915	38.16
720.317	38.55
720.719	38.94
721.122	39.31
721.524	39.67
721.926	40.05
722.328	40.42
722.731	40.79
723.133	41.12
723.535	41.46
723.937	41.8
724.338	42.12
724.74	42.42
725.142	42.67
725.544	42.97
725.945	43.23
726.347	43.53
726.748	43.73
727.15	43.97
727.551	44.21
727.952	44.44
728.354	44.71
728.755	44.96
729.156	45.19
729.557	45.47
729.958	45.68
730.359	45.88
730.76	46.03
731.161	46.28
731.562	46.5
731.962	46.67
732.363	46.85
732.763	46.97
733.164	47.12
733.564	47.27
733.965	47.41
734.365	47.55
734.766	47.71
735.166	47.85
735.566	47.97
735.966	48.06
736.366	48.2
736.766	48.29
737.166	48.42
737.566	48.53
737.966	48.65
738.365	48.78
738.765	48.9
739.165	48.95
739.564	49.06
739.964	49.14
740.363	49.24
740.763	49.31
741.162	49.39
741.561	49.48
741.96	49.55
742.36	49.62
742.759	49.67
743.158	49.72
743.557	49.82
743.955	49.92
744.354	50.01
744.753	50.08
745.152	50.16
745.55	50.25
745.949	50.29
746.348	50.38
746.746	50.43
747.144	50.47
747.543	50.54
747.941	50.63
748.339	50.7
748.737	50.74
749.136	50.77
749.534	50.82
749.932	50.85
750.33	50.91
750.727	50.94
751.125	51
751.523	51.04
751.921	51.07
752.318	51.06
752.716	51.06
753.113	51.08
753.511	51.13
753.908	51.14
754.305	51.14
754.703	51.12
755.1	51.1
755.497	51.08
755.894	51.06
756.291	51.04
756.688	51.03
757.085	50.98
757.482	50.97
757.878	50.94
758.275	50.89
758.672	50.9
759.068	50.9
759.465	50.91
759.861	50.9
760.258	50.88
760.654	50.87
761.05	50.89
761.447	50.89
761.843	50.86
762.239	50.87
762.635	50.91
763.031	50.92
763.427	50.91
763.822	50.89
764.218	50.93
764.614	50.96
765.01	50.98
765.405	50.98
765.801	51
766.196	51.05
766.592	51.09
766.987	51.09
767.382	51.1
767.778	51.14
768.173	51.16
768.568	51.16
768.963	51.19
769.358	51.2
769.753	51.22
770.148	51.28
770.542	51.27
770.937	51.26
771.332	51.28
771.726	51.26
772.121	51.27
772.515	51.28
772.91	51.28
773.304	51.27
773.699	51.26
774.093	51.22
774.487	51.17
774.881	51.21
775.275	51.2
775.669	51.18
776.063	51.17
776.457	51.14
776.851	51.13
777.245	51.16
777.638	51.17
778.032	51.18
778.425	51.21
778.819	51.21
779.212	51.17
779.606	51.19
779.999	51.17
780.392	51.21
780.786	51.23
781.179	51.23
781.572	51.2
781.965	51.22
782.358	51.18
782.751	51.21
783.143	51.23
783.536	51.29
783.929	51.29
784.322	51.34
784.714	51.35
785.107	51.37
785.499	51.38
785.891	51.38
786.284	51.34
786.676	51.42
787.068	51.4
787.46	51.39
787.852	51.35
788.245	51.33
788.636	51.32
789.028	51.32
789.42	51.26
789.812	51.25
790.204	51.23
790.595	51.27
790.987	51.22
791.378	51.21
791.77	51.24
792.161	51.24
792.553	51.26
792.944	51.27
793.335	51.26
793.726	51.28
794.117	51.28
794.508	51.29
794.899	51.31
795.29	51.34
795.681	51.35
796.072	51.35
796.463	51.34
796.853	51.32
797.244	51.32
797.634	51.29
798.025	51.3
798.415	51.33
798.806	51.34
799.196	51.32
799.586	51.33
799.976	51.33
800.366	51.33
800.756	51.35
801.146	51.33
801.536	51.33
801.926	51.33
802.316	51.34
802.706	51.33
803.095	51.34
803.485	51.35
803.874	51.31
804.264	51.34
804.653	51.28
805.043	51.28
805.432	51.26
805.821	51.26
806.21	51.25
806.599	51.26
806.988	51.24
807.377	51.25
807.766	51.24
808.155	51.23
808.544	51.19
808.933	51.21
809.321	51.24
809.71	51.28
810.098	51.26
810.487	51.27
810.875	51.24
811.264	51.26
811.652	51.25
812.04	51.25
812.428	51.26
812.816	51.27
813.204	51.28
813.592	51.25
813.98	51.23
814.368	51.22
814.756	51.21
815.144	51.21
815.531	51.19
815.919	51.18
816.306	51.17
816.694	51.15
817.081	51.12
817.469	51.1
817.856	51.11
818.243	51.1
818.63	51.12
819.017	51.12
819.404	51.1
819.791	51.08
820.178	51.08
820.565	51.08
820.952	51.07
821.339	51.1
821.725	51.1
822.112	51.1
822.498	51.12
822.885	51.15
823.271	51.18
823.657	51.22
824.044	51.25
824.43	51.25
824.816	51.26
825.202	51.26
825.588	51.26
825.974	51.27
826.36	51.25
826.746	51.28
827.132	51.24
827.517	51.22
827.903	51.2
828.289	51.19
828.674	51.19
829.06	51.17
829.445	51.2
829.83	51.19
830.216	51.21
830.601	51.22
830.986	51.2
831.371	51.23
831.756	51.18
832.141	51.17
832.526	51.16
832.911	51.15
833.295	51.21
833.68	51.2
834.065	51.22
834.449	51.17
834.834	51.15
835.218	51.15
835.603	51.13
835.987	51.16
836.371	51.15
836.755	51.15
837.139	51.14
837.524	51.13
837.908	51.09
838.291	51.1
838.675	51.12
839.059	51.15
839.443	51.14
839.827	51.13
840.21	51.14
840.594	51.16
840.977	51.16
841.361	51.15
841.744	51.16
842.127	51.16
842.511	51.12
842.894	51.11
843.277	51.1
843.66	51.11
844.043	51.15
844.426	51.13
844.809	51.11
845.191	51.12
845.574	51.1
845.957	51.06
846.339	51.07
846.722	51.1
847.104	51.1
847.487	51.12
847.869	51.09
848.252	51.04
848.634	51.04
849.016	51.06
849.398	51.05
849.78	51.05
850.162	51.05
850.544	51.06
850.926	51.04
851.307	51.08
851.689	51.03
852.071	51.04
852.452	51.06
852.834	51.06
853.215	51.07
853.597	51.08
853.978	51.09
854.359	51.07
854.741	51.06
855.122	51.06
855.503	51.01
855.884	51.03
856.265	50.98
856.646	50.99
857.026	50.96
857.407	50.91
857.788	50.89
858.169	50.87
858.549	50.88
858.93	50.87
859.31	50.85
859.69	50.83
860.071	50.82
860.451	50.87
860.831	50.85
861.211	50.86
861.591	50.91
861.971	50.9
862.351	50.92
862.731	50.92
863.111	50.93
863.491	50.93
863.87	50.96
864.25	50.96
864.629	50.94
865.009	50.91
865.388	50.89
865.768	50.88
866.147	50.89
866.526	50.88
866.905	50.9
867.284	50.91
867.663	50.92
868.042	50.9
868.421	50.92
868.8	50.92
869.179	50.95
869.558	50.99
869.936	50.96
870.315	50.97
870.693	50.99
871.072	50.95
871.45	50.92
871.828	50.92
872.207	50.94
872.585	50.93
872.963	50.9
873.341	50.89
873.719	50.86
874.097	50.89
874.475	50.87
874.853	50.86
875.23	50.87
875.608	50.88
875.986	50.87
876.363	50.83
876.741	50.84
877.118	50.87
877.495	50.89
877.873	50.91
878.25	50.91
878.627	50.9
879.004	50.91
879.381	50.91
879.758	50.88
880.135	50.89
880.512	50.94
880.889	50.94
881.265	50.93
881.642	50.89
882.019	50.89
882.395	50.92
882.772	50.92
883.148	50.9
883.524	50.9
883.901	50.9
884.277	50.9
884.653	50.88
885.029	50.86
885.405	50.87
885.781	50.86
886.157	50.82
886.532	50.78
886.908	50.78
887.284	50.8
887.659	50.8
888.035	50.8
888.411	50.78
888.786	50.75
889.161	50.75
889.537	50.73
889.912	50.72
890.287	50.7
890.662	50.71
891.037	50.65
891.412	50.63
891.787	50.6
892.162	50.58
892.536	50.57
892.911	50.58
893.286	50.54
893.66	50.54
894.035	50.55
894.409	50.56
894.784	50.55
895.158	50.59
895.532	50.58
895.906	50.57
896.281	50.58
896.655	50.59
897.029	50.56
897.402	50.57
897.776	50.6
898.15	50.62
898.524	50.62
898.898	50.6
899.271	50.6
899.645	50.59
900.018	50.59
900.392	50.61
900.765	50.61
901.138	50.62
901.511	50.63
901.884	50.6
902.258	50.56
902.631	50.56
903.003	50.55
903.376	50.54
903.749	50.56
904.122	50.58
904.495	50.57
904.867	50.55
905.24	50.54
905.612	50.51
905.985	50.5
906.357	50.49
906.729	50.49
907.102	50.49
907.474	50.51
907.846	50.51
908.218	50.46
908.59	50.42
908.962	50.43
909.334	50.43
909.705	50.46
910.077	50.44
910.449	50.46
910.82	50.47
911.192	50.48
911.563	50.44
911.935	50.36
912.306	50.38
912.677	50.41
913.048	50.38
913.419	50.37
913.79	50.34
914.161	50.33
914.532	50.28
914.903	50.24
915.274	50.18
915.645	50.23
916.015	50.27
916.386	50.26
916.756	50.18
917.127	50.21
917.497	50.22
917.868	50.25
918.238	50.31
918.608	50.34
918.978	50.36
919.348	50.38
919.718	50.32
920.088	50.33
920.458	50.38
920.828	50.43
921.198	50.44
921.567	50.44
921.937	50.43
922.306	50.39
922.676	50.38
923.045	50.35
923.415	50.36
923.784	50.41
924.153	50.4
924.522	50.39
924.891	50.38
925.26	50.4
925.629	50.39
925.998	50.38
926.367	50.36
926.736	50.35
927.104	50.37
927.473	50.41
927.842	50.38
928.21	50.38
928.578	50.34
928.947	50.33
929.315	50.29
929.683	50.32
930.051	50.33
930.42	50.32
930.788	50.31
931.156	50.29
931.523	50.28
931.891	50.31
932.259	50.29
932.627	50.24
932.994	50.23
933.362	50.21
933.729	50.15
934.097	50.1
934.464	50.07
934.831	50.06
935.199	50.09
935.566	50.04
935.933	49.97
936.3	49.99
936.667	50.04
937.034	50.06
937.401	50.09
937.767	50.09
938.134	50.12
938.501	50.23
938.867	50.28
939.234	50.33
939.6	50.34
939.967	50.41
940.333	50.46
940.699	50.53
941.065	50.64
941.431	50.65
941.798	50.82
942.163	50.94
942.529	50.88
942.895	51
943.261	50.98
943.627	51.01
943.992	51.07
944.358	51.03
944.723	51.06
945.089	51.09
945.454	51.11
945.82	51.02
946.185	51.02
946.55	51.12
946.915	51.08
947.28	51.06
947.645	51.08
948.01	51.02
948.375	51.04
948.74	50.96
949.104	50.87
949.469	50.84
949.834	50.84
950.198	50.76
950.562	50.71
950.927	50.58
951.291	50.59
951.655	50.5
952.02	50.46
952.384	50.43
952.748	50.42
953.112	50.42
953.476	50.42
953.839	50.37
954.203	50.35
954.567	50.26
954.931	50.28
955.294	50.2
955.658	50.19
956.021	50.16
956.385	50.13
956.748	50.13
957.111	50.09
957.474	50.07
957.837	50.06
958.2	49.99
958.563	50
958.926	49.95
959.289	50
959.652	50.04
960.015	50.02
960.377	49.98
960.74	49.96
961.102	49.92
961.465	49.88
961.827	49.83
962.189	49.81
962.552	49.81
962.914	49.78
963.276	49.73
963.638	49.67
964	49.7
964.362	49.73
964.724	49.75
965.085	49.79
965.447	49.74
965.809	49.69
966.17	49.71
966.532	49.69
966.893	49.67
967.255	49.61
967.616	49.69
967.977	49.7
968.338	49.65
968.699	49.56
969.061	49.47
969.421	49.45
969.782	49.45
970.143	49.5
970.504	49.48
970.865	49.45
971.225	49.44
971.586	49.4
971.946	49.36
972.307	49.37
972.667	49.36
973.027	49.45
973.388	49.53
973.748	49.62
974.108	49.58
974.468	49.61
974.828	49.69
975.188	49.75
975.548	49.72
975.907	49.75
976.267	49.75
976.627	49.78
976.986	49.79
977.346	49.78
977.705	49.79
978.064	49.84
978.424	49.9
978.783	49.9
979.142	49.86
979.501	49.92
979.86	49.86
980.219	49.82
980.578	49.81
980.937	49.84
981.296	49.84
981.654	49.88
982.013	49.94
982.371	49.89
982.73	49.87
983.088	49.93
983.447	49.91
983.805	49.98
984.163	50.04
984.521	50.01
984.879	50.04
985.237	50.03
985.595	49.99
985.953	49.91
986.311	49.95
986.669	49.96
987.026	50.04
987.384	49.99
987.741	50.03
988.099	50.03
988.456	50.07
988.814	50.07
989.171	50.03
989.528	49.91
989.885	49.93
990.242	49.99
990.599	50.01
990.956	50.05
991.313	50.09
991.67	50.07
992.027	50.15
992.383	50.21
992.74	50.15
993.096	50.29
993.453	50.47
993.809	50.51
994.165	50.46
994.522	50.64
994.878	50.62
995.234	50.75
995.59	50.76
995.946	50.77
996.302	50.72
996.658	50.78
997.013	50.8
997.369	50.73
997.725	50.67
998.08	50.62
998.436	50.56
998.791	50.6
999.147	50.54
999.502	50.64
999.857	50.65
1000.212	50.71
1000.567	50.75
1000.922	50.8
1001.277	50.76
1001.632	50.93
1001.987	51.07
1002.342	51.15
1002.696	51.21
1003.051	51.29
1003.406	51.27
1003.76	51.33
1004.114	51.59
1004.469	51.53
1004.823	51.65
1005.177	51.98
1005.531	52.04
1005.885	51.96
1006.239	51.86
1006.593	51.85
1006.947	51.87
1007.301	52.1
1007.655	52.35
1008.008	52.11
1008.362	52.17
1008.715	52.29
1009.069	52.09
1009.422	52.05
1009.776	52.21
1010.129	52.18
1010.482	52.4
1010.835	52.55
1011.188	52.42
1011.541	52.04
1011.894	52.36
1012.247	52.57
1012.6	52.24
1012.952	52.23
1013.305	52.33
1013.657	52.58
1014.01	52.94
1014.362	53.07
1014.715	53.04
1015.067	53.3
1015.419	53.63
1015.771	53.8
1016.123	53.84
1016.475	54.22
1016.827	54.62
1017.179	54.74
1017.531	54.66
1017.883	54.76
1018.234	54.8
1018.586	54.9
1018.938	54.61
1019.289	54.6
1019.64	54.88
1019.992	54.9
1020.343	54.91
1020.694	54.98
1021.045	55.22
1021.396	55.43
1021.747	55.53
1022.098	55.27
1022.449	55.39
1022.8	55.77
1023.151	55.97
1023.501	55.83
1023.852	56.19
1024.202	56.53
1024.553	56.54
1024.903	56.82
1025.253	57.17
1025.604	57.3
1025.954	57.6
1026.304	58
1026.654	58.65
1027.004	58.91
1027.354	58.88
1027.703	58.72
1028.053	58.42
1028.403	58.69
1028.753	58.73
1029.102	58.83
1029.452	58.97
1029.801	59.32
1030.15	59.4
1030.499	58.92
897.758	616.78
901.051	621.78
904.343	629.71
907.636	616.59
910.928	608.32
914.22	615.35
917.511	600.17
920.803	576.01
924.094	554.37
927.384	559.91
930.675	539.58
933.965	532.97
937.255	536.24
940.544	510.54
943.834	489.77
947.123	480.54
950.411	457.13
953.7	449.55
956.988	433.17
960.276	412.03
963.563	406.3
966.851	386.31
970.138	378.26
973.424	350.66
976.711	347.3
979.997	335.05
983.283	326.49
986.568	315.59
989.853	306.87
993.138	296.7
996.423	293.05
999.708	283.16
1002.992	284.02
1006.275	277.41
1009.559	273.97
1012.842	265.4
1016.125	257.08
1019.408	253.08
1022.69	252.59
1025.972	249.78
1029.254	243.19
1032.536	239.47
1035.817	230.73
1039.098	227
1042.379	221.79
1045.659	218.95
1048.939	216.16
1052.219	213.44
1055.498	210.13
1058.778	204.77
1062.057	200.51
1065.335	200.03
1068.614	194.91
1071.892	193.12
1075.17	191.61
1078.447	188.48
1081.724	187.08
1085.001	183.9
1088.278	182.37
1091.554	180.59
1094.83	179.65
1098.106	177.24
1101.382	175.08
1104.657	175.85
1107.932	175.27
1111.206	172.84
1114.481	170.78
1117.755	169.51
1121.029	168.65
1124.302	166.36
1127.575	164.17
1130.848	163.71
1134.121	161.49
1137.393	161.82
1140.665	159.88
1143.937	158.27
1147.208	156.15
1150.48	155.35
1153.75	154.36
1157.021	153.32
1160.291	153.33
1163.561	153.17
1166.831	150.43
1170.101	150.98
1173.37	149.2
1176.639	147.96
1179.907	148.03
1183.176	147.72
1186.444	147.09
1189.711	146.39
1192.979	147.87
1196.246	146.87
1199.513	145.88
1202.78	147.62
1206.046	146.62
1209.312	147.96
1212.578	149.2
1215.843	150.32
1219.108	151.18
1222.373	154.27
1225.638	156.76
1228.902	159.63
1232.166	164.79
1235.43	167.92
1238.693	172.14
1241.956	176.3
1245.219	181.18
1248.482	182.27
1251.744	182.48
1255.006	182.91
1258.268	178.06
1261.529	176.45
1264.79	171.81
1268.051	169.11
1271.312	166.91
1274.572	163.33
1277.832	159.8
1281.092	156.66
1284.351	153.78
1287.61	153.62
1290.869	152.87
1294.128	152.65
1297.386	151.78
1300.644	150.71
1303.902	149.43
1307.159	149.87
1310.416	150.47
1313.673	152.65
1316.93	153.84
1320.186	156.19
1323.442	158.2
1326.697	161.12
1329.953	162.16
1333.208	167.79
1336.463	174.71
1339.717	178.61
1342.972	185.65
1346.226	191.48
1349.479	193.07
1352.733	201.86
1355.986	205.73
1359.238	209.66
1362.491	212.43
1365.743	220.72
1368.995	221.25
1372.247	221.24
1375.498	220.01
1378.749	227.9
1382	225.87
1385.251	226.48
1388.501	225.53
1391.751	228.23
1395	227.54
1398.25	228.05
1401.499	227.63
1404.748	228.62
1407.996	223.78
1411.244	224.98
1414.492	219.5
1417.74	215.01
1420.987	208.42
1424.234	205.29
1427.481	196.69
1430.728	191.99
1433.974	185
1437.22	180.33
1440.465	172.84
1443.711	167.84
1446.956	162.34
1450.201	157.11
1453.445	149.4
1456.689	145.89
1459.933	140.62
1463.177	135.83
1466.42	132.36
1469.663	129.48
1472.906	124.75
1476.148	121.81
1479.391	119.25
1482.633	117.32
1485.874	114.51
1489.115	114.22
1492.356	110.86
1495.597	109.84
1498.838	108.91
1502.078	108.08
1505.318	107.3
1508.557	106.75
1511.797	105.69
1515.036	104.77
1518.274	104.38
1521.513	103.14
1524.751	102.56
1527.989	104.17
1531.227	103.27
1534.464	103.35
1537.701	101.92
1540.938	101.36
1544.174	101.52
1547.41	101.2
1550.646	100.94
1553.882	100.9
1557.117	100.77
1560.352	100.22
1563.587	98.73
1566.821	98.8
1570.055	98
1573.289	98.01
1576.523	98.41
1579.756	97.28
1582.989	97.87
1586.222	97.23
1589.454	96.67
1592.686	97.3
1595.918	96.94
1599.15	97.13
1602.381	97.15
1605.612	97.28
1608.843	97.18
1612.073	97.5
1615.303	97.99
1618.533	97.51
1621.762	98.17
1624.992	98.48
1628.221	97.79
1631.449	98.28
1634.678	98.43
1637.906	98.56
1641.134	98.59
1644.361	98.78
1647.588	97.97
1650.815	98.12
1654.042	98.96
1657.269	98.31
1660.495	98.66
1663.72	98.46
1666.946	98.28
1670.171	98.76
1673.396	99.13
1676.621	99.55
1679.845	100.16
1683.069	99.8
1686.293	99.96
1689.517	99.35
1692.74	99.98
1695.963	99.78
1699.185	100.34
1702.408	100.41
1705.63	100.93
1708.852	101.35
1712.073	101.23
1715.294	100.83
1718.515	102.13
1721.736	101.9
1724.956	102.27
1728.176	102.38
1731.396	102.9
1734.616	102.84
1737.835	103.58
1741.054	103.12
1744.272	102.4
1747.491	102.6
1750.709	103.27
1753.927	103.4
1757.144	103.57
1760.361	103.73
1763.578	104.65
1766.795	105.06
1770.011	105.52
1773.227	105.87
1776.443	106.65
1779.658	107.73
1782.874	107.9
1786.089	108.1
1789.303	108.36
1792.518	110.15
1795.732	110.69
1798.945	111.18
1802.159	111.6
1805.372	112.95
1808.585	113.75
1811.797	114.28
1815.01	115
1818.222	116.17
1821.434	117.82
1824.645	118.04
1827.856	118.77
1831.067	120.11
1834.278	120.72
1837.488	122.12
1840.698	123.15
1843.908	123.64
1847.117	125.26
1850.326	126.16
1853.535	126.47
1856.744	127.23
1859.952	129.96
1863.16	130.13
1866.368	128.72
1869.575	130.41
1872.782	130.18
1875.989	129.56
1879.196	129.28
1882.402	127.12
1885.608	128.22
1888.814	128.51
1892.019	129.3
1895.224	126.66
1898.429	127.78
1901.634	130
1904.838	129.32
1908.042	130.17
1911.246	129.58
1914.449	130.46
1917.652	131.74
1920.855	131.35
1924.058	130.86
1927.26	129.84
1930.462	131.2
1933.664	130.56
1936.865	129.49
1940.066	128.77
1943.267	127.89
1946.467	129.17
1949.668	128.8
1952.868	129.68
1956.067	129.33
1959.267	129.72
1962.466	130.63
1965.665	130.86
1968.863	132.44
1972.061	133.46
1975.259	136.32
1978.457	136.15
1981.654	138.01
1984.852	139.01
1988.048	139.77
1991.245	141.78
1994.441	144.95
1997.637	147.75
2000.833	151.28
2004.028	151.68
2007.223	156.75
2010.418	159.06
2013.613	166.24
2016.807	169.73
2020.001	173.99
2023.194	179.32
2026.388	185.95
2029.581	194.24
2032.774	200.34
2035.966	205.9
2039.158	212.7
2042.35	214.62
2045.542	219.68
2048.733	229.56
2051.924	230.34
2055.115	234.89
2058.306	236.82
2061.496	241.51
2064.686	241.61
2067.875	238.11
2071.065	241.16
2074.254	241.79
2077.442	249.76
2080.631	252
2083.819	251.66
2087.007	258.39
2090.195	260.29
2093.382	261.47
2096.569	260.54
2099.756	266.54
2102.942	275.05
2106.128	280.71
2109.314	280.33
2112.5	280.86
2115.685	279.21
2118.87	280.35
2122.055	281.08
2125.239	286.77
2128.424	295.01
2131.608	292.1
2134.791	289.7
2137.974	289.88
2141.157	292.63
2144.34	296.01
2147.523	301.16
2150.705	308.94
2153.887	303.24
2157.068	307.77
2160.25	310.85
2163.431	307.14
2166.611	315.74
2169.792	322.43
2172.972	329.44
2176.152	327.98
2179.331	336.29
2182.511	335.8
2185.69	339.14
2188.868	358.74
2192.047	362.78
2195.225	368.64
2198.403	373.77
2201.58	367.74
2204.758	381.16
2207.935	382.15
2211.111	392.88
2214.288	394
2217.464	399.77
2220.64	400.54
2223.815	399.74
2226.991	399.33
2230.166	402.32
2233.34	415.05
2236.515	428.37
2239.689	421.18
2242.863	428.12
2246.036	421.73
2249.209	434.73
2252.382	429.78
2255.555	447.61
2258.727	449.7
2261.9	463.48
2265.071	469.96
2268.243	463.81
2271.414	480.37
2274.585	490.74
2277.756	491.24
2280.926	506.24
2284.096	500.66
2287.266	509.54
2290.436	497.76
2293.605	508.61
2296.774	525.9
2299.942	527.65
2303.111	546.22
2306.279	547.73
2309.447	548.8
2312.614	549.02
2315.781	567.91
2318.948	577.56
2322.115	587.31
2325.281	616.95
2328.447	613.92
2331.613	611.42
2334.779	619.5
2337.944	625.65
2341.109	646.6
2344.274	649.71
2347.438	669.26
2350.602	676.05
2353.766	719.08
2356.929	721.62
2360.092	731.74
2363.255	733.57
2366.418	748.34
2369.58	764.77
2372.742	763.69
2375.904	754.7
2379.066	781.01
2382.227	829.83
2385.388	829.18
2388.548	790.17
2391.709	779.7
2394.869	804.13
2398.029	813.44
2401.188	809.31
2404.347	831.6
2407.506	865.91
2410.665	831.78
2413.823	833.52
2416.981	830.05
2420.139	791.36
2423.296	848.81
2426.453	902.27
2429.61	869.12
2432.767	920.49
2435.923	956.24
2439.079	919.51
2442.235	936.89
2445.391	962.76
2448.546	955.59
2451.701	1009.61
2454.855	1074.34
2458.009	952.29
2461.163	970.22
2464.317	975.85
2467.471	952.45
2470.624	989.5
2473.777	967.99
2476.929	938.07
2480.082	1002.38
2483.234	1050.42
2486.385	1061.41
2489.537	1091.64
2492.688	1196.19
2495.839	1186.65
2498.989	1219.04
2502.14	1223.46
2505.29	1158.29
2508.439	1302.19
2511.589	1340.27
2514.738	1288.44
2517.887	1281.91
2521.035	1199.62
2524.183	1177.04
2527.331	1174.28
2530.479	1137.71
2533.627	1162.36
