Data from N_1_div_il_4n_005_Splice17_11.txt Node
Date: Sat Feb 29 13:34:38 EST 2020
User: sa697716
Spectrometer: FLMS03696
Trigger mode: 0
Integration Time (sec): 3.180400E-1
Scans to average: 20
Electric dark correction enabled: true
Nonlinearity correction enabled: true
Boxcar width: 5
XAxis mode: Wavelengths
Number of Pixels in Spectrum: 2048
>>>>>Begin Spectral Data<<<<<
187.83	47.22
188.298	60.88
188.766	64.22
189.233	65.91
189.701	79.13
190.169	93.07
190.636	120.48
191.104	169.64
191.571	571.79
192.039	495.84
192.506	-903.82
192.974	-9522.39
193.441	576.64
193.908	28.68
194.375	82.44
194.842	256.63
195.31	177.36
195.777	256.28
196.244	83.79
196.711	30.01
197.177	22.18
197.644	19.46
198.111	18.24
198.578	17.21
199.045	16.41
199.511	16.76
199.978	16.63
200.445	16.64
200.911	16.66
201.378	16.55
201.844	16.46
202.31	17.27
202.777	17.33
203.243	17.77
203.709	18.2
204.176	18.25
204.642	18.14
205.108	18
205.574	18.69
206.04	18.77
206.506	18.76
206.972	18.88
207.438	18.72
207.903	19.24
208.369	18.84
208.835	18.95
209.301	18.84
209.766	19.02
210.232	18.99
210.697	18.71
211.163	18.71
211.628	18.35
212.094	18.22
212.559	18.21
213.024	17.93
213.49	17.78
213.955	17.53
214.42	17.38
214.885	16.8
215.35	16.52
215.815	16.1
216.28	15.74
216.745	15.69
217.21	15.39
217.675	14.93
218.14	14.56
218.604	14.19
219.069	13.92
219.534	13.77
219.998	13.53
220.463	13.41
220.927	13.21
221.392	13.04
221.856	12.84
222.32	12.66
222.785	12.49
223.249	12.36
223.713	12.28
224.177	12.14
224.642	12
225.106	11.87
225.57	11.73
226.034	11.64
226.497	11.51
226.961	11.38
227.425	11.24
227.889	11.15
228.353	11.02
228.816	10.9
229.28	10.76
229.744	10.66
230.207	10.57
230.671	10.46
231.134	10.35
231.597	10.23
232.061	10.13
232.524	10.04
232.987	9.96
233.45	9.87
233.914	9.79
234.377	9.71
234.84	9.63
235.303	9.53
235.766	9.45
236.229	9.36
236.691	9.29
237.154	9.23
237.617	9.15
238.08	9.06
238.542	8.98
239.005	8.9
239.468	8.82
239.93	8.74
240.393	8.67
240.855	8.59
241.317	8.52
241.78	8.47
242.242	8.39
242.704	8.34
243.166	8.29
243.629	8.23
244.091	8.18
244.553	8.13
245.015	8.08
245.477	8.02
245.939	7.96
246.4	7.92
246.862	7.86
247.324	7.82
247.786	7.76
248.247	7.71
248.709	7.66
249.17	7.62
249.632	7.55
250.093	7.49
250.555	7.46
251.016	7.43
251.477	7.38
251.939	7.33
252.4	7.29
252.861	7.26
253.322	7.21
253.783	7.19
254.244	7.14
254.705	7.11
255.166	7.09
255.627	7.05
256.088	7.02
256.549	6.98
257.009	6.95
257.47	6.92
257.931	6.87
258.391	6.82
258.852	6.77
259.312	6.73
259.773	6.69
260.233	6.64
260.694	6.6
261.154	6.56
261.614	6.53
262.074	6.48
262.534	6.43
262.994	6.41
263.455	6.38
263.915	6.36
264.374	6.33
264.834	6.3
265.294	6.27
265.754	6.23
266.214	6.21
266.673	6.19
267.133	6.16
267.593	6.14
268.052	6.11
268.512	6.08
268.971	6.05
269.431	6.03
269.89	6
270.349	5.98
270.809	5.96
271.268	5.94
271.727	5.92
272.186	5.89
272.645	5.87
273.104	5.85
273.563	5.83
274.022	5.81
274.481	5.79
274.94	5.77
275.399	5.75
275.857	5.72
276.316	5.7
276.775	5.67
277.233	5.64
277.692	5.62
278.15	5.59
278.609	5.57
279.067	5.54
279.525	5.51
279.984	5.48
280.442	5.46
280.9	5.44
281.358	5.42
281.816	5.4
282.274	5.38
282.732	5.36
283.19	5.34
283.648	5.33
284.106	5.3
284.564	5.3
285.021	5.28
285.479	5.26
285.937	5.24
286.394	5.22
286.852	5.21
287.309	5.19
287.767	5.17
288.224	5.16
288.682	5.15
289.139	5.14
289.596	5.11
290.053	5.08
290.511	5.06
290.968	5.05
291.425	5.04
291.882	5.02
292.339	5
292.796	4.98
293.252	4.96
293.709	4.93
294.166	4.92
294.623	4.9
295.079	4.9
295.536	4.88
295.992	4.87
296.449	4.86
296.905	4.84
297.362	4.82
297.818	4.81
298.274	4.8
298.731	4.8
299.187	4.79
299.643	4.78
300.099	4.76
300.555	4.75
301.011	4.74
301.467	4.73
301.923	4.72
302.379	4.72
302.835	4.71
303.291	4.69
303.746	4.68
304.202	4.67
304.658	4.66
305.113	4.65
305.569	4.64
306.024	4.62
306.479	4.61
306.935	4.6
307.39	4.59
307.845	4.58
308.301	4.57
308.756	4.57
309.211	4.57
309.666	4.56
310.121	4.55
310.576	4.54
311.031	4.54
311.486	4.54
311.94	4.54
312.395	4.53
312.85	4.52
313.305	4.52
313.759	4.51
314.214	4.49
314.668	4.48
315.123	4.48
315.577	4.48
316.032	4.47
316.486	4.45
316.94	4.44
317.394	4.44
317.849	4.43
318.303	4.42
318.757	4.41
319.211	4.4
319.665	4.39
320.119	4.38
320.572	4.37
321.026	4.37
321.48	4.37
321.934	4.37
322.387	4.35
322.841	4.34
323.295	4.33
323.748	4.32
324.202	4.32
324.655	4.31
325.108	4.3
325.562	4.27
326.015	4.26
326.468	4.25
326.921	4.23
327.374	4.24
327.827	4.24
328.28	4.23
328.733	4.23
329.186	4.22
329.639	4.22
330.092	4.21
330.545	4.22
330.997	4.22
331.45	4.21
331.903	4.2
332.355	4.2
332.808	4.2
333.26	4.2
333.713	4.2
334.165	4.2
334.617	4.21
335.069	4.2
335.522	4.2
335.974	4.21
336.426	4.21
336.878	4.21
337.33	4.21
337.782	4.21
338.234	4.21
338.686	4.2
339.137	4.2
339.589	4.18
340.041	4.18
340.493	4.16
340.944	4.15
341.396	4.14
341.847	4.13
342.299	4.11
342.75	4.1
343.201	4.08
343.653	4.07
344.104	4.06
344.555	4.06
345.006	4.05
345.457	4.05
345.908	4.05
346.359	4.05
346.81	4.06
347.261	4.05
347.712	4.05
348.163	4.05
348.613	4.04
349.064	4.03
349.515	4.01
349.965	4.01
350.416	4.01
350.866	4.01
351.317	3.99
351.767	3.98
352.217	3.98
352.668	3.97
353.118	3.97
353.568	3.98
354.018	3.99
354.468	3.99
354.918	3.99
355.368	3.99
355.818	3.99
356.268	4
356.718	3.99
357.168	3.99
357.617	3.98
358.067	3.97
358.517	3.97
358.966	3.97
359.416	3.99
359.865	3.98
360.315	3.99
360.764	3.99
361.213	3.98
361.663	3.98
362.112	3.99
362.561	4
363.01	4.01
363.459	4
363.908	4
364.357	3.99
364.806	4
365.255	3.99
365.703	4
366.152	4.01
366.601	4.02
367.05	4.03
367.498	4.04
367.947	4.04
368.395	4.06
368.844	4.06
369.292	4.06
369.74	4.06
370.189	4.07
370.637	4.07
371.085	4.08
371.533	4.09
371.981	4.09
372.429	4.09
372.877	4.1
373.325	4.1
373.773	4.1
374.221	4.11
374.669	4.11
375.116	4.11
375.564	4.12
376.012	4.13
376.459	4.14
376.907	4.17
377.354	4.17
377.801	4.19
378.249	4.22
378.696	4.25
379.143	4.28
379.591	4.3
380.038	4.33
380.485	4.35
380.932	4.37
381.379	4.38
381.826	4.38
382.273	4.4
382.72	4.42
383.166	4.44
383.613	4.44
384.06	4.46
384.506	4.47
384.953	4.49
385.4	4.5
385.846	4.51
386.292	4.53
386.739	4.56
387.185	4.58
387.631	4.59
388.078	4.6
388.524	4.61
388.97	4.64
389.416	4.66
389.862	4.67
390.308	4.7
390.754	4.72
391.2	4.76
391.645	4.78
392.091	4.8
392.537	4.83
392.983	4.85
393.428	4.89
393.874	4.91
394.319	4.94
394.765	4.97
395.21	4.98
395.655	5.01
396.101	5.02
396.546	5.03
396.991	5.05
397.436	5.06
397.881	5.09
398.326	5.12
398.771	5.15
399.216	5.17
399.661	5.18
400.106	5.23
400.551	5.24
400.995	5.26
401.44	5.27
401.885	5.3
402.329	5.32
402.774	5.32
403.218	5.32
403.663	5.31
404.107	5.33
404.551	5.35
404.995	5.36
405.44	5.37
405.884	5.39
406.328	5.4
406.772	5.41
407.216	5.42
407.66	5.45
408.104	5.46
408.547	5.49
408.991	5.48
409.435	5.49
409.879	5.52
410.322	5.54
410.766	5.55
411.209	5.57
411.653	5.58
412.096	5.59
412.54	5.59
412.983	5.61
413.426	5.63
413.869	5.63
414.312	5.66
414.756	5.66
415.199	5.68
415.642	5.72
416.085	5.73
416.527	5.76
416.97	5.79
417.413	5.79
417.856	5.79
418.298	5.78
418.741	5.81
419.184	5.78
419.626	5.77
420.069	5.77
420.511	5.74
420.953	5.75
421.396	5.75
421.838	5.75
422.28	5.77
422.722	5.8
423.164	5.82
423.606	5.84
424.048	5.85
424.49	5.9
424.932	5.9
425.374	5.91
425.816	5.91
426.258	5.91
426.699	5.91
427.141	5.91
427.582	5.9
428.024	5.91
428.465	5.91
428.907	5.93
429.348	5.91
429.789	5.93
430.231	5.94
430.672	5.95
431.113	5.96
431.554	5.99
431.995	5.99
432.436	6
432.877	5.98
433.318	5.98
433.759	5.99
434.2	5.99
434.64	5.99
435.081	5.98
435.522	5.99
435.962	6
436.403	6
436.843	6
437.284	6.02
437.724	6.05
438.164	6.06
438.604	6.07
439.045	6.08
439.485	6.09
439.925	6.11
440.365	6.11
440.805	6.12
441.245	6.1
441.685	6.14
442.125	6.14
442.564	6.16
443.004	6.19
443.444	6.19
443.883	6.22
444.323	6.23
444.762	6.25
445.202	6.29
445.641	6.33
446.081	6.36
446.52	6.35
446.959	6.36
447.398	6.4
447.837	6.42
448.276	6.44
448.716	6.46
449.154	6.49
449.593	6.51
450.032	6.51
450.471	6.5
450.91	6.51
451.349	6.53
451.787	6.55
452.226	6.54
452.664	6.53
453.103	6.53
453.541	6.53
453.98	6.53
454.418	6.52
454.856	6.5
455.295	6.5
455.733	6.5
456.171	6.5
456.609	6.5
457.047	6.49
457.485	6.49
457.923	6.49
458.361	6.49
458.798	6.5
459.236	6.5
459.674	6.5
460.111	6.51
460.549	6.51
460.987	6.52
461.424	6.52
461.862	6.52
462.299	6.53
462.736	6.53
463.173	6.55
463.611	6.55
464.048	6.56
464.485	6.57
464.922	6.56
465.359	6.55
465.796	6.54
466.233	6.56
466.67	6.57
467.106	6.57
467.543	6.59
467.98	6.57
468.416	6.57
468.853	6.55
469.29	6.56
469.726	6.58
470.162	6.58
470.599	6.58
471.035	6.56
471.471	6.53
471.907	6.54
472.344	6.52
472.78	6.52
473.216	6.52
473.652	6.53
474.088	6.53
474.523	6.53
474.959	6.54
475.395	6.54
475.831	6.56
476.266	6.56
476.702	6.56
477.138	6.55
477.573	6.54
478.008	6.55
478.444	6.54
478.879	6.54
479.314	6.53
479.75	6.52
480.185	6.52
480.62	6.5
481.055	6.51
481.49	6.48
481.925	6.47
482.36	6.48
482.795	6.46
483.229	6.46
483.664	6.46
484.099	6.45
484.534	6.44
484.968	6.45
485.403	6.46
485.837	6.45
486.271	6.47
486.706	6.47
487.14	6.47
487.574	6.48
488.009	6.48
488.443	6.49
488.877	6.53
489.311	6.54
489.745	6.56
490.179	6.58
490.613	6.61
491.046	6.62
491.48	6.66
491.914	6.68
492.348	6.71
492.781	6.74
493.215	6.76
493.648	6.78
494.082	6.82
494.515	6.84
494.948	6.87
495.382	6.9
495.815	6.95
496.248	6.99
496.681	7.03
497.114	7.08
497.547	7.13
497.98	7.18
498.413	7.22
498.846	7.27
499.279	7.33
499.711	7.39
500.144	7.45
500.577	7.51
501.009	7.58
501.442	7.66
501.874	7.73
502.306	7.81
502.739	7.89
503.171	7.99
503.603	8.07
504.036	8.18
504.468	8.29
504.9	8.41
505.332	8.53
505.764	8.67
506.196	8.8
506.627	8.92
507.059	9.05
507.491	9.19
507.923	9.33
508.354	9.5
508.786	9.65
509.217	9.8
509.649	9.98
510.08	10.16
510.512	10.33
510.943	10.51
511.374	10.71
511.805	10.91
512.237	11.1
512.668	11.31
513.099	11.51
513.53	11.72
513.961	11.94
514.391	12.13
514.822	12.35
515.253	12.58
515.684	12.8
516.114	13.03
516.545	13.27
516.975	13.53
517.406	13.78
517.836	14.02
518.267	14.29
518.697	14.56
519.127	14.83
519.558	15.08
519.988	15.33
520.418	15.59
520.848	15.85
521.278	16.1
521.708	16.43
522.138	16.67
522.567	16.92
522.997	17.14
523.427	17.36
523.857	17.57
524.286	17.79
524.716	18
525.145	18.21
525.575	18.41
526.004	18.6
526.433	18.7
526.863	18.88
527.292	19.06
527.721	19.23
528.15	19.38
528.579	19.54
529.008	19.69
529.437	19.83
529.866	19.94
530.295	20.07
530.724	20.22
531.152	20.34
531.581	20.45
532.01	20.55
532.438	20.68
532.867	20.79
533.295	20.89
533.723	21
534.152	21.09
534.58	21.17
535.008	21.24
535.436	21.29
535.865	21.34
536.293	21.42
536.721	21.47
537.149	21.51
537.576	21.56
538.004	21.59
538.432	21.61
538.86	21.66
539.287	21.71
539.715	21.77
540.143	21.78
540.57	21.82
540.998	21.86
541.425	21.9
541.852	21.93
542.28	21.95
542.707	21.98
543.134	21.99
543.561	22
543.988	22.03
544.415	22.07
544.842	22.1
545.269	22.12
545.696	22.15
546.123	22.17
546.549	22.19
546.976	22.21
547.403	22.23
547.829	22.26
548.256	22.28
548.682	22.3
549.108	22.31
549.535	22.3
549.961	22.31
550.387	22.28
550.813	22.27
551.24	22.27
551.666	22.28
552.092	22.28
552.518	22.27
552.943	22.26
553.369	22.23
553.795	22.19
554.221	22.19
554.646	22.16
555.072	22.13
555.498	22.08
555.923	22.03
556.349	21.96
556.774	21.88
557.199	21.81
557.625	21.74
558.05	21.65
558.475	21.58
558.9	21.47
559.325	21.39
559.75	21.31
560.175	21.22
560.6	21.11
561.025	21
561.449	20.92
561.874	20.82
562.299	20.72
562.723	20.61
563.148	20.48
563.572	20.38
563.997	20.23
564.421	20.07
564.846	19.94
565.27	19.81
565.694	19.67
566.118	19.52
566.542	19.39
566.966	19.24
567.39	19.09
567.814	18.95
568.238	18.78
568.662	18.65
569.086	18.53
569.509	18.39
569.933	18.24
570.357	18.09
570.78	17.95
571.204	17.8
571.627	17.64
572.05	17.52
572.474	17.4
572.897	17.27
573.32	17.13
573.743	16.99
574.166	16.85
574.589	16.72
575.012	16.61
575.435	16.48
575.858	16.37
576.281	16.27
576.704	16.16
577.126	16.05
577.549	15.96
577.972	15.87
578.394	15.78
578.817	15.7
579.239	15.63
579.661	15.55
580.084	15.46
580.506	15.38
580.928	15.29
581.35	15.19
581.772	15.1
582.194	15.02
582.616	14.95
583.038	14.88
583.46	14.81
583.882	14.74
584.303	14.67
584.725	14.62
585.147	14.55
585.568	14.49
585.99	14.47
586.411	14.42
586.833	14.37
587.254	14.31
587.675	14.25
588.096	14.21
588.518	14.15
588.939	14.09
589.36	14.03
589.781	13.99
590.202	13.96
590.623	13.89
591.043	13.85
591.464	13.79
591.885	13.76
592.305	13.75
592.726	13.7
593.147	13.67
593.567	13.65
593.987	13.64
594.408	13.62
594.828	13.58
595.248	13.56
595.669	13.55
596.089	13.54
596.509	13.51
596.929	13.47
597.349	13.43
597.769	13.42
598.189	13.38
598.608	13.35
599.028	13.32
599.448	13.31
599.867	13.28
600.287	13.24
600.706	13.19
601.126	13.14
601.545	13.11
601.965	13.07
602.384	13.02
602.803	12.98
603.222	12.92
603.641	12.88
604.061	12.82
604.48	12.76
604.898	12.7
605.317	12.66
605.736	12.59
606.155	12.53
606.574	12.48
606.992	12.41
607.411	12.36
607.829	12.25
608.248	12.18
608.666	12.12
609.085	12.05
609.503	12
609.921	11.91
610.339	11.87
610.758	11.81
611.176	11.74
611.594	11.69
612.012	11.62
612.43	11.61
612.847	11.56
613.265	11.5
613.683	11.43
614.101	11.36
614.518	11.3
614.936	11.25
615.353	11.18
615.771	11.13
616.188	11.07
616.606	11.03
617.023	10.97
617.44	10.91
617.857	10.86
618.274	10.83
618.691	10.79
619.108	10.75
619.525	10.71
619.942	10.68
620.359	10.64
620.776	10.62
621.192	10.6
621.609	10.56
622.026	10.54
622.442	10.51
622.859	10.49
623.275	10.49
623.691	10.48
624.108	10.47
624.524	10.44
624.94	10.43
625.356	10.42
625.772	10.41
626.188	10.41
626.604	10.4
627.02	10.4
627.436	10.39
627.852	10.37
628.268	10.37
628.683	10.35
629.099	10.36
629.514	10.35
629.93	10.33
630.345	10.31
630.761	10.29
631.176	10.28
631.591	10.25
632.007	10.21
632.422	10.18
632.837	10.14
633.252	10.1
633.667	10.04
634.082	10
634.497	9.95
634.911	9.89
635.326	9.85
635.741	9.77
636.155	9.72
636.57	9.66
636.984	9.59
637.399	9.51
637.813	9.44
638.228	9.37
638.642	9.29
639.056	9.21
639.47	9.14
639.884	9.06
640.298	8.99
640.712	8.92
641.126	8.84
641.54	8.77
641.954	8.71
642.368	8.64
642.781	8.59
643.195	8.52
643.609	8.45
644.022	8.39
644.436	8.33
644.849	8.27
645.262	8.2
645.676	8.13
646.089	8.07
646.502	8.01
646.915	7.96
647.328	7.91
647.741	7.85
648.154	7.82
648.567	7.78
648.98	7.74
649.393	7.71
649.805	7.67
650.218	7.67
650.631	7.65
651.043	7.62
651.456	7.6
651.868	7.57
652.28	7.56
652.693	7.52
653.105	7.48
653.517	7.45
653.929	7.43
654.341	7.39
654.753	7.34
655.165	7.31
655.577	7.27
655.989	7.21
656.401	7.17
656.813	7.12
657.224	7.09
657.636	7.06
658.047	7.01
658.459	6.96
658.87	6.91
659.282	6.88
659.693	6.84
660.104	6.8
660.515	6.76
660.926	6.72
661.338	6.69
661.749	6.64
662.159	6.61
662.57	6.56
662.981	6.54
663.392	6.5
663.803	6.48
664.213	6.45
664.624	6.44
665.035	6.4
665.445	6.39
665.855	6.37
666.266	6.37
666.676	6.36
667.086	6.36
667.497	6.34
667.907	6.33
668.317	6.31
668.727	6.31
669.137	6.3
669.547	6.31
669.956	6.3
670.366	6.32
670.776	6.31
671.186	6.32
671.595	6.33
672.005	6.34
672.414	6.35
672.824	6.38
673.233	6.39
673.642	6.39
674.052	6.41
674.461	6.43
674.87	6.45
675.279	6.47
675.688	6.49
676.097	6.51
676.506	6.53
676.915	6.56
677.323	6.57
677.732	6.6
678.141	6.64
678.549	6.68
678.958	6.72
679.366	6.73
679.775	6.76
680.183	6.81
680.592	6.85
681	6.88
681.408	6.93
681.816	6.96
682.224	7.02
682.632	7.09
683.04	7.14
683.448	7.21
683.856	7.3
684.264	7.38
684.671	7.47
685.079	7.58
685.487	7.74
685.894	7.88
686.302	8.03
686.709	8.19
687.116	8.35
687.524	8.55
687.931	8.76
688.338	9
688.745	9.25
689.152	9.55
689.559	9.84
689.966	10.14
690.373	10.48
690.78	10.85
691.187	11.22
691.593	11.62
692	12.03
692.407	12.47
692.813	12.92
693.22	13.37
693.626	13.82
694.032	14.31
694.439	14.83
694.845	15.33
695.251	15.87
695.657	16.4
696.063	16.94
696.469	17.47
696.875	18.02
697.281	18.54
697.687	19.12
698.093	19.67
698.498	20.23
698.904	20.75
699.31	21.29
699.715	21.82
700.12	22.37
700.526	22.9
700.931	23.43
701.337	23.96
701.742	24.5
702.147	24.99
702.552	25.52
702.957	26.03
703.362	26.55
703.767	27.04
704.172	27.54
704.577	28.04
704.981	28.54
705.386	29.04
705.791	29.53
706.195	30
706.6	30.48
707.004	30.94
707.408	31.41
707.813	31.86
708.217	32.31
708.621	32.76
709.025	33.21
709.43	33.64
709.834	34.08
710.237	34.49
710.641	34.93
711.045	35.36
711.449	35.77
711.853	36.19
712.256	36.59
712.66	37.02
713.064	37.42
713.467	37.79
713.87	38.21
714.274	38.59
714.677	39.01
715.08	39.36
715.484	39.75
715.887	40.14
716.29	40.47
716.693	40.81
717.096	41.16
717.499	41.51
717.901	41.83
718.304	42.15
718.707	42.46
719.109	42.79
719.512	43.12
719.915	43.45
720.317	43.75
720.719	44.07
721.122	44.37
721.524	44.66
721.926	44.96
722.328	45.25
722.731	45.5
723.133	45.75
723.535	46.01
723.937	46.25
724.338	46.45
724.74	46.67
725.142	46.96
725.544	47.17
725.945	47.4
726.347	47.58
726.748	47.76
727.15	47.96
727.551	48.18
727.952	48.32
728.354	48.51
728.755	48.7
729.156	48.86
729.557	48.98
729.958	49.14
730.359	49.27
730.76	49.43
731.161	49.6
731.562	49.74
731.962	49.86
732.363	50.05
732.763	50.19
733.164	50.32
733.564	50.42
733.965	50.53
734.365	50.63
734.766	50.74
735.166	50.83
735.566	50.89
735.966	50.98
736.366	51.04
736.766	51.1
737.166	51.18
737.566	51.27
737.966	51.35
738.365	51.46
738.765	51.55
739.165	51.6
739.564	51.68
739.964	51.75
740.363	51.84
740.763	51.91
741.162	51.94
741.561	51.98
741.96	52.02
742.36	52.09
742.759	52.11
743.158	52.13
743.557	52.18
743.955	52.23
744.354	52.28
744.753	52.32
745.152	52.35
745.55	52.41
745.949	52.46
746.348	52.48
746.746	52.49
747.144	52.54
747.543	52.58
747.941	52.64
748.339	52.67
748.737	52.76
749.136	52.76
749.534	52.83
749.932	52.87
750.33	52.9
750.727	52.92
751.125	52.98
751.523	52.99
751.921	53.04
752.318	53.05
752.716	53.06
753.113	53.07
753.511	53.09
753.908	53.09
754.305	53.05
754.703	53.05
755.1	53.06
755.497	53.08
755.894	53.12
756.291	53.11
756.688	53.12
757.085	53.11
757.482	53.11
757.878	53.13
758.275	53.14
758.672	53.18
759.068	53.18
759.465	53.2
759.861	53.17
760.258	53.14
760.654	53.14
761.05	53.13
761.447	53.12
761.843	53.1
762.239	53.07
762.635	53.07
763.031	53.07
763.427	53.04
763.822	53
764.218	53.01
764.614	53.01
765.01	52.98
765.405	52.97
765.801	52.98
766.196	52.98
766.592	52.96
766.987	52.95
767.382	52.93
767.778	52.92
768.173	52.94
768.568	52.9
768.963	52.9
769.358	52.91
769.753	52.89
770.148	52.9
770.542	52.89
770.937	52.87
771.332	52.83
771.726	52.81
772.121	52.83
772.515	52.86
772.91	52.85
773.304	52.84
773.699	52.83
774.093	52.8
774.487	52.8
774.881	52.8
775.275	52.83
775.669	52.84
776.063	52.83
776.457	52.8
776.851	52.72
777.245	52.78
777.638	52.79
778.032	52.77
778.425	52.8
778.819	52.79
779.212	52.81
779.606	52.78
779.999	52.78
780.392	52.82
780.786	52.83
781.179	52.87
781.572	52.81
781.965	52.78
782.358	52.8
782.751	52.81
783.143	52.83
783.536	52.85
783.929	52.86
784.322	52.88
784.714	52.89
785.107	52.89
785.499	52.91
785.891	52.94
786.284	52.94
786.676	52.91
787.068	52.9
787.46	52.87
787.852	52.84
788.245	52.82
788.636	52.82
789.028	52.81
789.42	52.81
789.812	52.77
790.204	52.71
790.595	52.71
790.987	52.72
791.378	52.71
791.77	52.74
792.161	52.73
792.553	52.72
792.944	52.74
793.335	52.73
793.726	52.73
794.117	52.72
794.508	52.77
794.899	52.78
795.29	52.78
795.681	52.82
796.072	52.8
796.463	52.86
796.853	52.9
797.244	52.89
797.634	52.87
798.025	52.87
798.415	52.87
798.806	52.9
799.196	52.91
799.586	52.91
799.976	52.88
800.366	52.88
800.756	52.83
801.146	52.8
801.536	52.81
801.926	52.83
802.316	52.85
802.706	52.87
803.095	52.89
803.485	52.93
803.874	52.96
804.264	52.97
804.653	52.96
805.043	52.95
805.432	52.94
805.821	52.95
806.21	52.97
806.599	52.99
806.988	52.98
807.377	52.94
807.766	52.88
808.155	52.89
808.544	52.89
808.933	52.92
809.321	52.97
809.71	52.98
810.098	52.94
810.487	52.9
810.875	52.89
811.264	52.9
811.652	52.96
812.04	52.99
812.428	52.98
812.816	53.02
813.204	52.98
813.592	52.94
813.98	52.93
814.368	52.95
814.756	52.98
815.144	53
815.531	52.99
815.919	52.96
816.306	52.95
816.694	52.95
817.081	52.91
817.469	52.96
817.856	53
818.243	53.03
818.63	53.06
819.017	53.07
819.404	53.05
819.791	53.04
820.178	53.04
820.565	53.05
820.952	53.07
821.339	53.11
821.725	53.09
822.112	53.09
822.498	53.12
822.885	53.1
823.271	53.12
823.657	53.13
824.044	53.16
824.43	53.23
824.816	53.25
825.202	53.27
825.588	53.28
825.974	53.31
826.36	53.31
826.746	53.33
827.132	53.32
827.517	53.35
827.903	53.39
828.289	53.41
828.674	53.36
829.06	53.37
829.445	53.39
829.83	53.42
830.216	53.43
830.601	53.47
830.986	53.5
831.371	53.55
831.756	53.53
832.141	53.53
832.526	53.53
832.911	53.58
833.295	53.58
833.68	53.56
834.065	53.54
834.449	53.53
834.834	53.52
835.218	53.49
835.603	53.46
835.987	53.44
836.371	53.45
836.755	53.43
837.139	53.41
837.524	53.39
837.908	53.39
838.291	53.41
838.675	53.4
839.059	53.4
839.443	53.4
839.827	53.41
840.21	53.45
840.594	53.42
840.977	53.4
841.361	53.38
841.744	53.38
842.127	53.39
842.511	53.38
842.894	53.37
843.277	53.37
843.66	53.38
844.043	53.39
844.426	53.36
844.809	53.38
845.191	53.4
845.574	53.44
845.957	53.41
846.339	53.4
846.722	53.4
847.104	53.4
847.487	53.39
847.869	53.37
848.252	53.34
848.634	53.36
849.016	53.37
849.398	53.38
849.78	53.37
850.162	53.4
850.544	53.4
850.926	53.39
851.307	53.4
851.689	53.36
852.071	53.38
852.452	53.39
852.834	53.38
853.215	53.37
853.597	53.37
853.978	53.34
854.359	53.31
854.741	53.28
855.122	53.27
855.503	53.26
855.884	53.26
856.265	53.24
856.646	53.24
857.026	53.24
857.407	53.21
857.788	53.23
858.169	53.26
858.549	53.27
858.93	53.31
859.31	53.32
859.69	53.33
860.071	53.34
860.451	53.33
860.831	53.33
861.211	53.32
861.591	53.35
861.971	53.31
862.351	53.31
862.731	53.32
863.111	53.29
863.491	53.28
863.87	53.28
864.25	53.31
864.629	53.32
865.009	53.31
865.388	53.31
865.768	53.29
866.147	53.33
866.526	53.33
866.905	53.35
867.284	53.38
867.663	53.38
868.042	53.38
868.421	53.35
868.8	53.35
869.179	53.36
869.558	53.37
869.936	53.36
870.315	53.32
870.693	53.32
871.072	53.3
871.45	53.25
871.828	53.25
872.207	53.26
872.585	53.28
872.963	53.26
873.341	53.26
873.719	53.24
874.097	53.24
874.475	53.24
874.853	53.23
875.23	53.24
875.608	53.24
875.986	53.21
876.363	53.21
876.741	53.21
877.118	53.21
877.495	53.2
877.873	53.21
878.25	53.2
878.627	53.21
879.004	53.22
879.381	53.19
879.758	53.17
880.135	53.18
880.512	53.18
880.889	53.17
881.265	53.19
881.642	53.19
882.019	53.2
882.395	53.23
882.772	53.22
883.148	53.2
883.524	53.23
883.901	53.26
884.277	53.26
884.653	53.28
885.029	53.27
885.405	53.24
885.781	53.26
886.157	53.25
886.532	53.27
886.908	53.3
887.284	53.32
887.659	53.33
888.035	53.32
888.411	53.3
888.786	53.26
889.161	53.29
889.537	53.34
889.912	53.3
890.287	53.28
890.662	53.24
891.037	53.22
891.412	53.19
891.787	53.19
892.162	53.18
892.536	53.19
892.911	53.2
893.286	53.15
893.66	53.1
894.035	53.11
894.409	53.09
894.784	53.12
895.158	53.12
895.532	53.11
895.906	53.11
896.281	53.13
896.655	53.13
897.029	53.14
897.402	53.15
897.776	53.16
898.15	53.18
898.524	53.2
898.898	53.17
899.271	53.17
899.645	53.18
900.018	53.15
900.392	53.15
900.765	53.13
901.138	53.14
901.511	53.11
901.884	53.1
902.258	53.07
902.631	53.05
903.003	53.02
903.376	52.98
903.749	52.96
904.122	52.97
904.495	52.96
904.867	52.95
905.24	52.92
905.612	52.93
905.985	52.9
906.357	52.85
906.729	52.83
907.102	52.83
907.474	52.82
907.846	52.8
908.218	52.76
908.59	52.68
908.962	52.67
909.334	52.66
909.705	52.63
910.077	52.61
910.449	52.66
910.82	52.64
911.192	52.65
911.563	52.66
911.935	52.64
912.306	52.66
912.677	52.68
913.048	52.67
913.419	52.61
913.79	52.6
914.161	52.62
914.532	52.56
914.903	52.59
915.274	52.55
915.645	52.54
916.015	52.53
916.386	52.49
916.756	52.44
917.127	52.43
917.497	52.45
917.868	52.43
918.238	52.44
918.608	52.45
918.978	52.4
919.348	52.37
919.718	52.34
920.088	52.32
920.458	52.36
920.828	52.4
921.198	52.38
921.567	52.37
921.937	52.36
922.306	52.29
922.676	52.29
923.045	52.3
923.415	52.32
923.784	52.31
924.153	52.35
924.522	52.31
924.891	52.27
925.26	52.21
925.629	52.21
925.998	52.22
926.367	52.22
926.736	52.22
927.104	52.2
927.473	52.21
927.842	52.2
928.21	52.18
928.578	52.15
928.947	52.18
929.315	52.2
929.683	52.2
930.051	52.16
930.42	52.17
930.788	52.15
931.156	52.14
931.523	52.09
931.891	52.05
932.259	51.99
932.627	51.98
932.994	51.88
933.362	51.86
933.729	51.79
934.097	51.78
934.464	51.7
934.831	51.63
935.199	51.56
935.566	51.52
935.933	51.59
936.3	51.51
936.667	51.46
937.034	51.49
937.401	51.4
937.767	51.36
938.134	51.29
938.501	51.3
938.867	51.3
939.234	51.25
939.6	51.25
939.967	51.05
940.333	51.11
940.699	51.13
941.065	51.06
941.431	51.13
941.798	51.19
942.163	51.21
942.529	51.15
942.895	51.14
943.261	51.12
943.627	51.14
943.992	51.13
944.358	51.08
944.723	51.01
945.089	51.08
945.454	51.16
945.82	51.1
946.185	51.17
946.55	51.34
946.915	51.31
947.28	51.3
947.645	51.28
948.01	51.28
948.375	51.34
948.74	51.3
949.104	51.38
949.469	51.27
949.834	51.26
950.198	51.17
950.562	51.02
950.927	51.04
951.291	51.09
951.655	51.05
952.02	51.08
952.384	51.09
952.748	51.05
953.112	50.92
953.476	50.98
953.839	50.93
954.203	50.93
954.567	50.9
954.931	50.81
955.294	50.7
955.658	50.61
956.021	50.56
956.385	50.49
956.748	50.51
957.111	50.47
957.474	50.39
957.837	50.45
958.2	50.38
958.563	50.42
958.926	50.41
959.289	50.4
959.652	50.47
960.015	50.42
960.377	50.44
960.74	50.41
961.102	50.43
961.465	50.48
961.827	50.39
962.189	50.37
962.552	50.29
962.914	50.35
963.276	50.38
963.638	50.4
964	50.4
964.362	50.38
964.724	50.42
965.085	50.44
965.447	50.37
965.809	50.34
966.17	50.29
966.532	50.34
966.893	50.31
967.255	50.24
967.616	50.19
967.977	50.22
968.338	50.2
968.699	50.17
969.061	50.08
969.421	50.07
969.782	50.05
970.143	50.1
970.504	50.13
970.865	50.05
971.225	50.08
971.586	50.07
971.946	49.94
972.307	49.87
972.667	49.83
973.027	49.91
973.388	49.86
973.748	49.9
974.108	49.89
974.468	49.8
974.828	49.88
975.188	49.86
975.548	49.8
975.907	49.87
976.267	49.9
976.627	49.88
976.986	49.79
977.346	49.77
977.705	49.76
978.064	49.69
978.424	49.66
978.783	49.57
979.142	49.54
979.501	49.55
979.86	49.52
980.219	49.4
980.578	49.37
980.937	49.36
981.296	49.36
981.654	49.32
982.013	49.32
982.371	49.36
982.73	49.46
983.088	49.45
983.447	49.48
983.805	49.47
984.163	49.53
984.521	49.45
984.879	49.45
985.237	49.49
985.595	49.48
985.953	49.51
986.311	49.46
986.669	49.47
987.026	49.45
987.384	49.36
987.741	49.39
988.099	49.38
988.456	49.52
988.814	49.53
989.171	49.46
989.528	49.38
989.885	49.33
990.242	49.32
990.599	49.2
990.956	49.16
991.313	49.18
991.67	49.14
992.027	49.17
992.383	49.15
992.74	49.06
993.096	48.92
993.453	48.96
993.809	48.89
994.165	48.86
994.522	48.96
994.878	48.95
995.234	48.87
995.59	48.79
995.946	48.71
996.302	48.59
996.658	48.54
997.013	48.68
997.369	48.66
997.725	48.7
998.08	48.66
998.436	48.44
998.791	48.36
999.147	48.5
999.502	48.53
999.857	48.55
1000.212	48.43
1000.567	48.49
1000.922	48.45
1001.277	48.32
1001.632	48.32
1001.987	48.33
1002.342	48.51
1002.696	48.57
1003.051	48.35
1003.406	48.31
1003.76	48.26
1004.114	48.3
1004.469	48.17
1004.823	48.06
1005.177	48.25
1005.531	48.19
1005.885	48.11
1006.239	47.77
1006.593	47.62
1006.947	47.55
1007.301	47.45
1007.655	47.39
1008.008	47.38
1008.362	47.44
1008.715	47.45
1009.069	47.16
1009.422	46.96
1009.776	46.91
1010.129	47.04
1010.482	47.29
1010.835	47.56
1011.188	47.31
1011.541	47.14
1011.894	47.11
1012.247	47.14
1012.6	46.94
1012.952	47.1
1013.305	47.27
1013.657	47.34
1014.01	47.43
1014.362	47.25
1014.715	47.01
1015.067	47.44
1015.419	47.65
1015.771	47.89
1016.123	47.83
1016.475	48.11
1016.827	48.17
1017.179	48.25
1017.531	48.22
1017.883	48.03
1018.234	48.18
1018.586	48.31
1018.938	48.19
1019.289	48
1019.64	47.85
1019.992	47.88
1020.343	47.85
1020.694	47.59
1021.045	47.42
1021.396	47.52
1021.747	47.71
1022.098	47.27
1022.449	46.85
1022.8	46.73
1023.151	46.63
1023.501	46.67
1023.852	46.32
1024.202	46.32
1024.553	46.16
1024.903	45.88
1025.253	45.7
1025.604	45.31
1025.954	45.11
1026.304	45.44
1026.654	45.4
1027.004	45.69
1027.354	45.54
1027.703	45.56
1028.053	45.24
1028.403	45.45
1028.753	45.74
1029.102	45.48
1029.452	45.53
1029.801	45.75
1030.15	45.57
1030.499	45.65
897.758	675.18
901.051	683.13
904.343	686.79
907.636	677.08
910.928	668.16
914.22	677.1
917.511	665.06
920.803	641.2
924.094	612.7
927.384	618.09
930.675	595.8
933.965	588.77
937.255	586.65
940.544	562.87
943.834	532.6
947.123	521.58
950.411	497.66
953.7	485.61
956.988	471.21
960.276	449.53
963.563	441.29
966.851	417.75
970.138	411.26
973.424	383.44
976.711	377.49
979.997	365.66
983.283	359.91
986.568	346.66
989.853	335.62
993.138	324.57
996.423	319.64
999.708	309.81
1002.992	311.24
1006.275	299.32
1009.559	297.24
1012.842	288.1
1016.125	278.95
1019.408	272.71
1022.69	268.42
1025.972	267.87
1029.254	258.99
1032.536	254.94
1035.817	245.96
1039.098	241.31
1042.379	237.13
1045.659	233.07
1048.939	230.77
1052.219	226.7
1055.498	222.44
1058.778	219.67
1062.057	214.49
1065.335	214.11
1068.614	209.51
1071.892	208.01
1075.17	203.62
1078.447	200.34
1081.724	199.48
1085.001	195.56
1088.278	194.81
1091.554	192.71
1094.83	191.14
1098.106	188.01
1101.382	186.02
1104.657	185.96
1107.932	184.56
1111.206	183.27
1114.481	181.7
1117.755	179.49
1121.029	178.62
1124.302	176.13
1127.575	173.96
1130.848	173.38
1134.121	170.66
1137.393	170.41
1140.665	167.86
1143.937	166.15
1147.208	164
1150.48	162.18
1153.75	161.56
1157.021	159.37
1160.291	159.2
1163.561	158.95
1166.831	157.27
1170.101	157.84
1173.37	155.97
1176.639	154.81
1179.907	154.89
1183.176	155.13
1186.444	155.42
1189.711	154.53
1192.979	156.08
1196.246	155.87
1199.513	154.64
1202.78	154.78
1206.046	154.65
1209.312	155.99
1212.578	157.26
1215.843	159.55
1219.108	160.07
1222.373	162.55
1225.638	164.63
1228.902	168.87
1232.166	174.79
1235.43	177.22
1238.693	183.25
1241.956	186.46
1245.219	191.41
1248.482	193.17
1251.744	192.03
1255.006	193.05
1258.268	188.5
1261.529	187.29
1264.79	181.41
1268.051	177.08
1271.312	175.66
1274.572	171.69
1277.832	167.32
1281.092	165.34
1284.351	161.7
1287.61	161.42
1290.869	160.65
1294.128	159.72
1297.386	158.99
1300.644	158.94
1303.902	157.92
1307.159	157.34
1310.416	158.09
1313.673	160.61
1316.93	161.71
1320.186	164.34
1323.442	165.9
1326.697	169.05
1329.953	172.22
1333.208	177.48
1336.463	184.32
1339.717	188.21
1342.972	197.07
1346.226	202.55
1349.479	205.4
1352.733	214.52
1355.986	219.75
1359.238	225.45
1362.491	227.56
1365.743	234.72
1368.995	236.34
1372.247	237.69
1375.498	237.14
1378.749	246.43
1382	245.82
1385.251	245.05
1388.501	243.6
1391.751	246.59
1395	246
1398.25	248.24
1401.499	246.89
1404.748	247.39
1407.996	241.17
1411.244	242.28
1414.492	237.62
1417.74	232.56
1420.987	226.99
1424.234	222.23
1427.481	215.41
1430.728	208.91
1433.974	202.28
1437.22	194.29
1440.465	188.17
1443.711	182.73
1446.956	176.79
1450.201	169.73
1453.445	162.23
1456.689	157.34
1459.933	152.33
1463.177	145.06
1466.42	141.7
1469.663	136.79
1472.906	133.73
1476.148	129.89
1479.391	126.91
1482.633	124.33
1485.874	122
1489.115	120.38
1492.356	118.01
1495.597	116.11
1498.838	114.59
1502.078	113.89
1505.318	113.55
1508.557	112.64
1511.797	110.68
1515.036	110.37
1518.274	109.62
1521.513	108.05
1524.751	107.65
1527.989	108.32
1531.227	107.98
1534.464	108.22
1537.701	106.59
1540.938	106.15
1544.174	105.46
1547.41	105.93
1550.646	105.2
1553.882	105.27
1557.117	104.36
1560.352	103.39
1563.587	102.11
1566.821	102.08
1570.055	101.38
1573.289	100.75
1576.523	100.85
1579.756	100.78
1582.989	100.1
1586.222	99.6
1589.454	98.71
1592.686	99.33
1595.918	99.4
1599.15	99.59
1602.381	99.39
1605.612	99.52
1608.843	99.96
1612.073	100.19
1615.303	100.41
1618.533	100.38
1621.762	100.97
1624.992	101.36
1628.221	100.82
1631.449	101.6
1634.678	101.29
1637.906	101.38
1641.134	101.71
1644.361	101.73
1647.588	101.48
1650.815	101.62
1654.042	101.43
1657.269	101.2
1660.495	102.04
1663.72	101.66
1666.946	101.39
1670.171	101.92
1673.396	103
1676.621	102.88
1679.845	103.56
1683.069	102.91
1686.293	102.33
1689.517	103.21
1692.74	103.43
1695.963	103.58
1699.185	104.46
1702.408	104.4
1705.63	104.68
1708.852	104.79
1712.073	104.27
1715.294	104.04
1718.515	105.3
1721.736	105.82
1724.956	105.71
1728.176	105.67
1731.396	106.06
1734.616	106.04
1737.835	106.66
1741.054	105.04
1744.272	105.46
1747.491	106.22
1750.709	106.55
1753.927	106.72
1757.144	106.76
1760.361	106.79
1763.578	107.64
1766.795	108.09
1770.011	108.49
1773.227	108.87
1776.443	111.32
1779.658	111.27
1782.874	111.57
1786.089	112.43
1789.303	112.73
1792.518	113.84
1795.732	114.49
1798.945	115.54
1802.159	115.59
1805.372	117.33
1808.585	118.06
1811.797	118.65
1815.01	119.17
1818.222	120.62
1821.434	121.34
1824.645	122.51
1827.856	124.25
1831.067	125.45
1834.278	126.2
1837.488	127.61
1840.698	128.05
1843.908	128.25
1847.117	130.12
1850.326	131.4
1853.535	132.1
1856.744	133.15
1859.952	134.54
1863.16	135.2
1866.368	135.36
1869.575	136.69
1872.782	136.64
1875.989	135.84
1879.196	136.54
1882.402	135.92
1885.608	136.94
1888.814	137.27
1892.019	139.02
1895.224	137.35
1898.429	138.07
1901.634	139.53
1904.838	139.5
1908.042	140.71
1911.246	141.8
1914.449	142.48
1917.652	143.08
1920.855	143.71
1924.058	142.1
1927.26	141.94
1930.462	143.19
1933.664	142.38
1936.865	141.92
1940.066	142.36
1943.267	140.83
1946.467	142.42
1949.668	142.02
1952.868	142.22
1956.067	141.45
1959.267	142.54
1962.466	143.19
1965.665	144
1968.863	145.24
1972.061	146.3
1975.259	148.23
1978.457	149.9
1981.654	150.88
1984.852	152.82
1988.048	154.16
1991.245	155.7
1994.441	159.41
1997.637	162.68
2000.833	165.18
2004.028	167.65
2007.223	172.44
2010.418	175.68
2013.613	183.14
2016.807	187.31
2020.001	190.72
2023.194	195.18
2026.388	203.35
2029.581	213.67
2032.774	219.6
2035.966	227.14
2039.158	233.13
2042.35	236.83
2045.542	241.02
2048.733	250.89
2051.924	252.66
2055.115	256.78
2058.306	260.38
2061.496	264.7
2064.686	262.76
2067.875	262.16
2071.065	263.09
2074.254	265.46
2077.442	272.58
2080.631	275.07
2083.819	274.07
2087.007	282.74
2090.195	288.17
2093.382	287.31
2096.569	287.2
2099.756	291.82
2102.942	296.93
2106.128	305.78
2109.314	306.18
2112.5	307.2
2115.685	305.09
2118.87	306.19
2122.055	305.74
2125.239	311.17
2128.424	318.51
2131.608	316.05
2134.791	317.17
2137.974	318.91
2141.157	320.52
2144.34	323.49
2147.523	326.27
2150.705	335.31
2153.887	331.54
2157.068	334.29
2160.25	338.21
2163.431	338.44
2166.611	345.95
2169.792	353.43
2172.972	357.55
2176.152	357.87
2179.331	366.5
2182.511	369.8
2185.69	373.78
2188.868	390.79
2192.047	398.32
2195.225	401.35
2198.403	407.27
2201.58	402.12
2204.758	414.68
2207.935	418.76
2211.111	426.65
2214.288	426.88
2217.464	431.31
2220.64	433.98
2223.815	434.13
2226.991	431.22
2230.166	435.19
2233.34	448.07
2236.515	458.72
2239.689	451.72
2242.863	462.57
2246.036	454.8
2249.209	470.22
2252.382	470.24
2255.555	486.65
2258.727	489.38
2261.9	503.11
2265.071	510.78
2268.243	509.75
2271.414	527.11
2274.585	538.93
2277.756	532.3
2280.926	562.05
2284.096	553.53
2287.266	555.1
2290.436	546.1
2293.605	561.43
2296.774	583.07
2299.942	580.11
2303.111	594.76
2306.279	607.93
2309.447	612.98
2312.614	613.57
2315.781	626.75
2318.948	638.41
2322.115	653.81
2325.281	686.61
2328.447	678.91
2331.613	676.6
2334.779	692.71
2337.944	699.54
2341.109	713.09
2344.274	714.99
2347.438	743.77
2350.602	751.42
2353.766	798.23
2356.929	800.07
2360.092	809.18
2363.255	814.54
2366.418	831.29
2369.58	845.66
2372.742	847.42
2375.904	837.84
2379.066	860.41
2382.227	919.77
2385.388	914.77
2388.548	870.37
2391.709	862.73
2394.869	897.08
2398.029	893.87
2401.188	896.71
2404.347	923.52
2407.506	953.03
2410.665	918.45
2413.823	924.29
2416.981	913.58
2420.139	862.96
2423.296	935.8
2426.453	996.19
2429.61	947.51
2432.767	1018.05
2435.923	1050.63
2439.079	1011.67
2442.235	1040
2445.391	1068.82
2448.546	1060.96
2451.701	1115.59
2454.855	1205.18
2458.009	1058.68
2461.163	1077.05
2464.317	1089.35
2467.471	1064.1
2470.624	1097.3
2473.777	1084.31
2476.929	1046.38
2480.082	1124.09
2483.234	1177.89
2486.385	1196.06
2489.537	1220.77
2492.688	1355.28
2495.839	1333.57
2498.989	1370.09
2502.14	1373.14
2505.29	1307.05
2508.439	1452.04
2511.589	1490.23
2514.738	1434.84
2517.887	1419.46
2521.035	1336.2
2524.183	1313.76
2527.331	1295.45
2530.479	1260.59
2533.627	1286.29
