Data from N_1_div_wi_4n_029_Splice17_04.txt Node
Date: Sat Feb 29 13:45:19 EST 2020
User: sa697716
Spectrometer: FLMS03696
Trigger mode: 0
Integration Time (sec): 3.180400E-1
Scans to average: 20
Electric dark correction enabled: true
Nonlinearity correction enabled: true
Boxcar width: 5
XAxis mode: Wavelengths
Number of Pixels in Spectrum: 2048
>>>>>Begin Spectral Data<<<<<
187.83	63.62
188.298	62.4
188.766	64.06
189.233	60.52
189.701	67.69
190.169	69.5
190.636	67.8
191.104	45.69
191.571	146.47
192.039	143.1
192.506	-13.48
192.974	1038.12
193.441	330.61
193.908	71.66
194.375	50.86
194.842	183.06
195.31	92.17
195.777	84.83
196.244	39.08
196.711	39.59
197.177	37.5
197.644	36.65
198.111	36.76
198.578	37.41
199.045	36.86
199.511	36.96
199.978	36.78
200.445	36.65
200.911	36.89
201.378	36.69
201.844	37
202.31	37.37
202.777	37.34
203.243	37.96
203.709	38.29
204.176	38.15
204.642	38.05
205.108	37.78
205.574	38.46
206.04	37.97
206.506	37.92
206.972	37.85
207.438	37.65
207.903	37.99
208.369	37.39
208.835	37.26
209.301	36.9
209.766	36.61
210.232	36.55
210.697	36.14
211.163	36.05
211.628	35.8
212.094	35.43
212.559	34.93
213.024	34.37
213.49	33.81
213.955	33.19
214.42	32.89
214.885	32.36
215.35	31.87
215.815	30.93
216.28	30.42
216.745	29.59
217.21	28.76
217.675	27.89
218.14	26.89
218.604	26.11
219.069	25.51
219.534	24.89
219.998	24.41
220.463	23.93
220.927	23.56
221.392	23.19
221.856	22.86
222.32	22.47
222.785	22.21
223.249	21.96
223.713	21.74
224.177	21.46
224.642	21.25
225.106	21.02
225.57	20.79
226.034	20.58
226.497	20.33
226.961	20.1
227.425	19.93
227.889	19.72
228.353	19.53
228.816	19.36
229.28	19.14
229.744	18.98
230.207	18.81
230.671	18.62
231.134	18.44
231.597	18.25
232.061	18.09
232.524	17.92
232.987	17.76
233.45	17.61
233.914	17.43
234.377	17.3
234.84	17.13
235.303	16.98
235.766	16.82
236.229	16.7
236.691	16.58
237.154	16.46
237.617	16.33
238.08	16.22
238.542	16.07
239.005	15.96
239.468	15.82
239.93	15.71
240.393	15.59
240.855	15.49
241.317	15.38
241.78	15.29
242.242	15.19
242.704	15.1
243.166	15.01
243.629	14.93
244.091	14.84
244.553	14.77
245.015	14.69
245.477	14.6
245.939	14.52
246.4	14.43
246.862	14.33
247.324	14.27
247.786	14.18
248.247	14.1
248.709	14.03
249.17	13.97
249.632	13.89
250.093	13.81
250.555	13.75
251.016	13.69
251.477	13.63
251.939	13.59
252.4	13.53
252.861	13.5
253.322	13.47
253.783	13.43
254.244	13.39
254.705	13.37
255.166	13.35
255.627	13.31
256.088	13.29
256.549	13.27
257.009	13.23
257.47	13.2
257.931	13.15
258.391	13.09
258.852	13.05
259.312	13.03
259.773	13
260.233	12.96
260.694	12.94
261.154	12.9
261.614	12.86
262.074	12.84
262.534	12.8
262.994	12.79
263.455	12.77
263.915	12.74
264.374	12.71
264.834	12.69
265.294	12.67
265.754	12.65
266.214	12.64
266.673	12.63
267.133	12.62
267.593	12.62
268.052	12.61
268.512	12.6
268.971	12.6
269.431	12.59
269.89	12.59
270.349	12.58
270.809	12.59
271.268	12.58
271.727	12.57
272.186	12.56
272.645	12.55
273.104	12.55
273.563	12.55
274.022	12.54
274.481	12.53
274.94	12.52
275.399	12.51
275.857	12.49
276.316	12.48
276.775	12.46
277.233	12.45
277.692	12.43
278.15	12.41
278.609	12.39
279.067	12.36
279.525	12.34
279.984	12.33
280.442	12.31
280.9	12.3
281.358	12.3
281.816	12.29
282.274	12.28
282.732	12.27
283.19	12.26
283.648	12.25
284.106	12.23
284.564	12.23
285.021	12.21
285.479	12.21
285.937	12.19
286.394	12.18
286.852	12.17
287.309	12.16
287.767	12.15
288.224	12.15
288.682	12.14
289.139	12.14
289.596	12.11
290.053	12.09
290.511	12.06
290.968	12.05
291.425	12.02
291.882	11.99
292.339	11.97
292.796	11.94
293.252	11.92
293.709	11.9
294.166	11.88
294.623	11.87
295.079	11.87
295.536	11.86
295.992	11.84
296.449	11.84
296.905	11.82
297.362	11.8
297.818	11.79
298.274	11.78
298.731	11.77
299.187	11.76
299.643	11.75
300.099	11.73
300.555	11.72
301.011	11.71
301.467	11.68
301.923	11.68
302.379	11.68
302.835	11.66
303.291	11.64
303.746	11.63
304.202	11.62
304.658	11.61
305.113	11.6
305.569	11.6
306.024	11.59
306.479	11.59
306.935	11.59
307.39	11.59
307.845	11.59
308.301	11.6
308.756	11.61
309.211	11.6
309.666	11.59
310.121	11.59
310.576	11.58
311.031	11.58
311.486	11.58
311.94	11.58
312.395	11.57
312.85	11.57
313.305	11.56
313.759	11.56
314.214	11.55
314.668	11.56
315.123	11.56
315.577	11.56
316.032	11.56
316.486	11.56
316.94	11.55
317.394	11.55
317.849	11.54
318.303	11.54
318.757	11.51
319.211	11.5
319.665	11.49
320.119	11.48
320.572	11.46
321.026	11.44
321.48	11.43
321.934	11.42
322.387	11.41
322.841	11.39
323.295	11.38
323.748	11.38
324.202	11.38
324.655	11.36
325.108	11.36
325.562	11.35
326.015	11.35
326.468	11.33
326.921	11.32
327.374	11.3
327.827	11.28
328.28	11.26
328.733	11.24
329.186	11.23
329.639	11.21
330.092	11.19
330.545	11.19
330.997	11.18
331.45	11.17
331.903	11.16
332.355	11.16
332.808	11.17
333.26	11.17
333.713	11.17
334.165	11.18
334.617	11.2
335.069	11.21
335.522	11.22
335.974	11.22
336.426	11.24
336.878	11.25
337.33	11.25
337.782	11.26
338.234	11.25
338.686	11.26
339.137	11.26
339.589	11.25
340.041	11.24
340.493	11.22
340.944	11.21
341.396	11.2
341.847	11.19
342.299	11.18
342.75	11.16
343.201	11.14
343.653	11.12
344.104	11.09
344.555	11.08
345.006	11.06
345.457	11.05
345.908	11.04
346.359	11.02
346.81	11
347.261	10.99
347.712	10.99
348.163	10.98
348.613	10.97
349.064	10.95
349.515	10.93
349.965	10.92
350.416	10.9
350.866	10.89
351.317	10.89
351.767	10.89
352.217	10.88
352.668	10.88
353.118	10.88
353.568	10.89
354.018	10.9
354.468	10.91
354.918	10.93
355.368	10.94
355.818	10.94
356.268	10.96
356.718	10.96
357.168	10.96
357.617	10.96
358.067	10.96
358.517	10.95
358.966	10.95
359.416	10.97
359.865	10.96
360.315	10.96
360.764	10.96
361.213	10.96
361.663	10.96
362.112	10.98
362.561	10.98
363.01	11
363.459	11.01
363.908	11.01
364.357	11.02
364.806	11.03
365.255	11.04
365.703	11.03
366.152	11.04
366.601	11.05
367.05	11.06
367.498	11.06
367.947	11.08
368.395	11.08
368.844	11.1
369.292	11.11
369.74	11.12
370.189	11.12
370.637	11.15
371.085	11.17
371.533	11.2
371.981	11.21
372.429	11.22
372.877	11.22
373.325	11.24
373.773	11.26
374.221	11.27
374.669	11.29
375.116	11.32
375.564	11.34
376.012	11.36
376.459	11.38
376.907	11.4
377.354	11.42
377.801	11.47
378.249	11.5
378.696	11.53
379.143	11.56
379.591	11.59
380.038	11.62
380.485	11.65
380.932	11.68
381.379	11.7
381.826	11.74
382.273	11.76
382.72	11.79
383.166	11.8
383.613	11.82
384.06	11.84
384.506	11.86
384.953	11.87
385.4	11.89
385.846	11.9
386.292	11.94
386.739	11.95
387.185	11.98
387.631	12
388.078	12.02
388.524	12.02
388.97	12.04
389.416	12.04
389.862	12.06
390.308	12.05
390.754	12.06
391.2	12.08
391.645	12.1
392.091	12.1
392.537	12.1
392.983	12.11
393.428	12.14
393.874	12.17
394.319	12.18
394.765	12.17
395.21	12.18
395.655	12.18
396.101	12.18
396.546	12.19
396.991	12.19
397.436	12.18
397.881	12.18
398.326	12.18
398.771	12.18
399.216	12.2
399.661	12.22
400.106	12.24
400.551	12.24
400.995	12.23
401.44	12.21
401.885	12.21
402.329	12.21
402.774	12.18
403.218	12.17
403.663	12.16
404.107	12.15
404.551	12.15
404.995	12.13
405.44	12.12
405.884	12.12
406.328	12.1
406.772	12.1
407.216	12.11
407.66	12.11
408.104	12.12
408.547	12.11
408.991	12.09
409.435	12.08
409.879	12.07
410.322	12.08
410.766	12.07
411.209	12.08
411.653	12.06
412.096	12.05
412.54	12.04
412.983	12.01
413.426	12
413.869	12
414.312	12
414.756	12
415.199	11.99
415.642	12.01
416.085	12.03
416.527	12.05
416.97	12.05
417.413	12.05
417.856	12.06
418.298	12.03
418.741	12.01
419.184	12.01
419.626	11.98
420.069	11.98
420.511	11.95
420.953	11.93
421.396	11.9
421.838	11.91
422.28	11.93
422.722	11.94
423.164	11.93
423.606	11.95
424.048	11.94
424.49	11.95
424.932	11.95
425.374	11.95
425.816	11.94
426.258	11.93
426.699	11.89
427.141	11.87
427.582	11.84
428.024	11.86
428.465	11.87
428.907	11.88
429.348	11.88
429.789	11.88
430.231	11.86
430.672	11.87
431.113	11.89
431.554	11.92
431.995	11.92
432.436	11.92
432.877	11.91
433.318	11.89
433.759	11.88
434.2	11.88
434.64	11.9
435.081	11.89
435.522	11.91
435.962	11.91
436.403	11.92
436.843	11.94
437.284	11.94
437.724	11.97
438.164	11.97
438.604	12
439.045	12.01
439.485	12
439.925	12.01
440.365	12
440.805	12
441.245	11.95
441.685	11.97
442.125	11.98
442.564	12.01
443.004	12
443.444	12
443.883	12
444.323	12
444.762	12.01
445.202	12.04
445.641	12.06
446.081	12.11
446.52	12.12
446.959	12.12
447.398	12.14
447.837	12.18
448.276	12.18
448.716	12.19
449.154	12.19
449.593	12.2
450.032	12.21
450.471	12.2
450.91	12.19
451.349	12.2
451.787	12.21
452.226	12.18
452.664	12.15
453.103	12.15
453.541	12.14
453.98	12.13
454.418	12.11
454.856	12.07
455.295	12.05
455.733	12.05
456.171	12.02
456.609	12.01
457.047	11.99
457.485	11.97
457.923	11.96
458.361	11.95
458.798	11.95
459.236	11.95
459.674	11.95
460.111	11.96
460.549	11.95
460.987	11.95
461.424	11.95
461.862	11.96
462.299	11.98
462.736	11.96
463.173	11.96
463.611	11.96
464.048	11.96
464.485	11.96
464.922	11.96
465.359	11.96
465.796	11.92
466.233	11.93
466.67	11.92
467.106	11.92
467.543	11.92
467.98	11.92
468.416	11.94
468.853	11.92
469.29	11.94
469.726	11.94
470.162	11.94
470.599	11.96
471.035	11.96
471.471	11.95
471.907	11.95
472.344	11.95
472.78	11.95
473.216	11.9
473.652	11.9
474.088	11.9
474.523	11.89
474.959	11.87
475.395	11.85
475.831	11.83
476.266	11.84
476.702	11.82
477.138	11.81
477.573	11.79
478.008	11.8
478.444	11.79
478.879	11.78
479.314	11.76
479.75	11.76
480.185	11.75
480.62	11.74
481.055	11.73
481.49	11.71
481.925	11.69
482.36	11.67
482.795	11.66
483.229	11.64
483.664	11.61
484.099	11.6
484.534	11.58
484.968	11.58
485.403	11.57
485.837	11.55
486.271	11.54
486.706	11.53
487.14	11.54
487.574	11.53
488.009	11.53
488.443	11.54
488.877	11.54
489.311	11.53
489.745	11.51
490.179	11.51
490.613	11.5
491.046	11.5
491.48	11.52
491.914	11.52
492.348	11.51
492.781	11.51
493.215	11.51
493.648	11.52
494.082	11.54
494.515	11.56
494.948	11.56
495.382	11.58
495.815	11.59
496.248	11.6
496.681	11.61
497.114	11.62
497.547	11.63
497.98	11.63
498.413	11.65
498.846	11.66
499.279	11.67
499.711	11.69
500.144	11.7
500.577	11.73
501.009	11.75
501.442	11.78
501.874	11.81
502.306	11.85
502.739	11.88
503.171	11.91
503.603	11.95
504.036	11.99
504.468	12.06
504.9	12.12
505.332	12.18
505.764	12.24
506.196	12.31
506.627	12.37
507.059	12.43
507.491	12.52
507.923	12.6
508.354	12.69
508.786	12.78
509.217	12.85
509.649	12.94
510.08	13.05
510.512	13.14
510.943	13.25
511.374	13.37
511.805	13.49
512.237	13.62
512.668	13.74
513.099	13.88
513.53	14.02
513.961	14.18
514.391	14.31
514.822	14.44
515.253	14.6
515.684	14.73
516.114	14.88
516.545	15.03
516.975	15.2
517.406	15.37
517.836	15.52
518.267	15.68
518.697	15.85
519.127	16.04
519.558	16.22
519.988	16.4
520.418	16.59
520.848	16.79
521.278	16.98
521.708	17.02
522.138	17.19
522.567	17.38
522.997	17.56
523.427	17.74
523.857	17.9
524.286	18.08
524.716	18.25
525.145	18.42
525.575	18.57
526.004	18.75
526.433	19.05
526.863	19.21
527.292	19.36
527.721	19.52
528.15	19.64
528.579	19.78
529.008	19.91
529.437	20.02
529.866	20.14
530.295	20.27
530.724	20.37
531.152	20.48
531.581	20.58
532.01	20.68
532.438	20.75
532.867	20.86
533.295	20.94
533.723	21.03
534.152	21.11
534.58	21.17
535.008	21.21
535.436	21.28
535.865	21.32
536.293	21.37
536.721	21.41
537.149	21.46
537.576	21.51
538.004	21.54
538.432	21.57
538.86	21.6
539.287	21.64
539.715	21.69
540.143	21.72
540.57	21.74
540.998	21.76
541.425	21.79
541.852	21.82
542.28	21.8
542.707	21.81
543.134	21.83
543.561	21.85
543.988	21.86
544.415	21.87
544.842	21.88
545.269	21.93
545.696	21.95
546.123	21.98
546.549	21.99
546.976	22.03
547.403	22.05
547.829	22.08
548.256	22.1
548.682	22.11
549.108	22.12
549.535	22.13
549.961	22.11
550.387	22.09
550.813	22.08
551.24	22.09
551.666	22.09
552.092	22.09
552.518	22.06
552.943	22.06
553.369	22.05
553.795	22.03
554.221	22
554.646	21.99
555.072	21.98
555.498	21.93
555.923	21.88
556.349	21.82
556.774	21.76
557.199	21.73
557.625	21.66
558.05	21.58
558.475	21.5
558.9	21.44
559.325	21.34
559.75	21.25
560.175	21.16
560.6	21.07
561.025	20.98
561.449	20.89
561.874	20.78
562.299	20.69
562.723	20.6
563.148	20.5
563.572	20.4
563.997	20.32
564.421	20.21
564.846	20.12
565.27	20
565.694	19.88
566.118	19.77
566.542	19.67
566.966	19.54
567.39	19.4
567.814	19.28
568.238	19.15
568.662	19.03
569.086	18.91
569.509	18.79
569.933	18.66
570.357	18.53
570.78	18.42
571.204	18.29
571.627	18.19
572.05	18.1
572.474	18
572.897	17.91
573.32	17.79
573.743	17.69
574.166	17.58
574.589	17.51
575.012	17.44
575.435	17.33
575.858	17.26
576.281	17.18
576.704	17.1
577.126	17.04
577.549	16.96
577.972	16.9
578.394	16.81
578.817	16.75
579.239	16.68
579.661	16.61
580.084	16.56
580.506	16.49
580.928	16.42
581.35	16.37
581.772	16.3
582.194	16.25
582.616	16.19
583.038	16.14
583.46	16.11
583.882	16.06
584.303	16.02
584.725	15.98
585.147	15.93
585.568	15.88
585.99	15.83
586.411	15.78
586.833	15.73
587.254	15.69
587.675	15.66
588.096	15.61
588.518	15.58
588.939	15.52
589.36	15.48
589.781	15.45
590.202	15.41
590.623	15.37
591.043	15.34
591.464	15.3
591.885	15.26
592.305	15.23
592.726	15.19
593.147	15.17
593.567	15.16
593.987	15.13
594.408	15.11
594.828	15.08
595.248	15.07
595.669	15.05
596.089	15.03
596.509	15
596.929	14.97
597.349	14.94
597.769	14.9
598.189	14.89
598.608	14.87
599.028	14.82
599.448	14.8
599.867	14.77
600.287	14.72
600.706	14.69
601.126	14.67
601.545	14.64
601.965	14.61
602.384	14.59
602.803	14.54
603.222	14.5
603.641	14.47
604.061	14.44
604.48	14.39
604.898	14.36
605.317	14.32
605.736	14.3
606.155	14.26
606.574	14.22
606.992	14.17
607.411	14.13
607.829	14.04
608.248	14
608.666	13.97
609.085	13.95
609.503	13.92
609.921	13.88
610.339	13.84
610.758	13.82
611.176	13.77
611.594	13.75
612.012	13.71
612.43	13.74
612.847	13.71
613.265	13.67
613.683	13.62
614.101	13.59
614.518	13.55
614.936	13.51
615.353	13.45
615.771	13.42
616.188	13.38
616.606	13.34
617.023	13.29
617.44	13.25
617.857	13.22
618.274	13.18
618.691	13.15
619.108	13.12
619.525	13.07
619.942	13.03
620.359	13.02
620.776	13.01
621.192	12.99
621.609	12.97
622.026	12.95
622.442	12.94
622.859	12.92
623.275	12.91
623.691	12.91
624.108	12.9
624.524	12.9
624.94	12.88
625.356	12.86
625.772	12.85
626.188	12.84
626.604	12.83
627.02	12.81
627.436	12.8
627.852	12.79
628.268	12.78
628.683	12.77
629.099	12.77
629.514	12.75
629.93	12.73
630.345	12.7
630.761	12.67
631.176	12.66
631.591	12.64
632.007	12.61
632.422	12.59
632.837	12.56
633.252	12.54
633.667	12.49
634.082	12.45
634.497	12.43
634.911	12.4
635.326	12.37
635.741	12.32
636.155	12.28
636.57	12.23
636.984	12.16
637.399	12.09
637.813	12.03
638.228	11.99
638.642	11.93
639.056	11.86
639.47	11.8
639.884	11.74
640.298	11.68
640.712	11.63
641.126	11.58
641.54	11.54
641.954	11.5
642.368	11.45
642.781	11.41
643.195	11.37
643.609	11.35
644.022	11.31
644.436	11.28
644.849	11.25
645.262	11.21
645.676	11.17
646.089	11.15
646.502	11.11
646.915	11.1
647.328	11.07
647.741	11.04
648.154	11.02
648.567	10.99
648.98	10.98
649.393	10.97
649.805	10.94
650.218	10.93
650.631	10.9
651.043	10.9
651.456	10.89
651.868	10.87
652.28	10.88
652.693	10.85
653.105	10.84
653.517	10.82
653.929	10.82
654.341	10.83
654.753	10.82
655.165	10.82
655.577	10.8
655.989	10.77
656.401	10.76
656.813	10.73
657.224	10.72
657.636	10.73
658.047	10.7
658.459	10.68
658.87	10.64
659.282	10.63
659.693	10.61
660.104	10.6
660.515	10.58
660.926	10.56
661.338	10.55
661.749	10.52
662.159	10.49
662.57	10.5
662.981	10.48
663.392	10.47
663.803	10.45
664.213	10.45
664.624	10.45
665.035	10.45
665.445	10.46
665.855	10.46
666.266	10.48
666.676	10.48
667.086	10.48
667.497	10.49
667.907	10.5
668.317	10.5
668.727	10.5
669.137	10.51
669.547	10.53
669.956	10.54
670.366	10.57
670.776	10.57
671.186	10.58
671.595	10.59
672.005	10.6
672.414	10.62
672.824	10.65
673.233	10.69
673.642	10.71
674.052	10.74
674.461	10.77
674.87	10.8
675.279	10.83
675.688	10.84
676.097	10.88
676.506	10.91
676.915	10.94
677.323	10.96
677.732	10.99
678.141	11.02
678.549	11.04
678.958	11.07
679.366	11.09
679.775	11.13
680.183	11.17
680.592	11.2
681	11.24
681.408	11.26
681.816	11.3
682.224	11.33
682.632	11.38
683.04	11.41
683.448	11.45
683.856	11.49
684.264	11.54
684.671	11.6
685.079	11.66
685.487	11.73
685.894	11.82
686.302	11.91
686.709	12
687.116	12.1
687.524	12.24
687.931	12.37
688.338	12.52
688.745	12.68
689.152	12.86
689.559	13.05
689.966	13.25
690.373	13.47
690.78	13.73
691.187	13.99
691.593	14.26
692	14.56
692.407	14.9
692.813	15.26
693.22	15.63
693.626	16.01
694.032	16.42
694.439	16.85
694.845	17.29
695.251	17.72
695.657	18.19
696.063	18.66
696.469	19.13
696.875	19.58
697.281	20.06
697.687	20.55
698.093	21.05
698.498	21.56
698.904	22.06
699.31	22.56
699.715	23.08
700.12	23.58
700.526	24.1
700.931	24.61
701.337	25.13
701.742	25.62
702.147	26.14
702.552	26.64
702.957	27.13
703.362	27.63
703.767	28.13
704.172	28.62
704.577	29.12
704.981	29.6
705.386	30.12
705.791	30.63
706.195	31.12
706.6	31.59
707.004	32.11
707.408	32.61
707.813	33.07
708.217	33.54
708.621	34.03
709.025	34.52
709.43	34.98
709.834	35.44
710.237	35.88
710.641	36.36
711.045	36.79
711.449	37.22
711.853	37.65
712.256	38.12
712.66	38.57
713.064	38.97
713.467	39.39
713.87	39.81
714.274	40.24
714.677	40.67
715.08	41.08
715.484	41.51
715.887	41.89
716.29	42.27
716.693	42.65
717.096	43.07
717.499	43.47
717.901	43.85
718.304	44.24
718.707	44.59
719.109	44.97
719.512	45.34
719.915	45.69
720.317	46.07
720.719	46.42
721.122	46.74
721.524	47.04
721.926	47.38
722.328	47.7
722.731	48.02
723.133	48.32
723.535	48.63
723.937	48.92
724.338	49.17
724.74	49.45
725.142	49.7
725.544	49.98
725.945	50.26
726.347	50.51
726.748	50.75
727.15	50.97
727.551	51.22
727.952	51.42
728.354	51.61
728.755	51.87
729.156	52.08
729.557	52.34
729.958	52.58
730.359	52.78
730.76	52.95
731.161	53.13
731.562	53.31
731.962	53.47
732.363	53.64
732.763	53.86
733.164	53.98
733.564	54.1
733.965	54.21
734.365	54.3
734.766	54.42
735.166	54.55
735.566	54.64
735.966	54.75
736.366	54.85
736.766	54.92
737.166	55.01
737.566	55.12
737.966	55.25
738.365	55.32
738.765	55.43
739.165	55.47
739.564	55.53
739.964	55.63
740.363	55.7
740.763	55.75
741.162	55.81
741.561	55.85
741.96	55.92
742.36	55.95
742.759	55.99
743.158	56.01
743.557	56.05
743.955	56.13
744.354	56.2
744.753	56.27
745.152	56.36
745.55	56.44
745.949	56.47
746.348	56.52
746.746	56.58
747.144	56.68
747.543	56.76
747.941	56.87
748.339	56.95
748.737	57.02
749.136	57.05
749.534	57.1
749.932	57.11
750.33	57.15
750.727	57.17
751.125	57.2
751.523	57.22
751.921	57.23
752.318	57.22
752.716	57.19
753.113	57.14
753.511	57.11
753.908	57.1
754.305	57.09
754.703	57.09
755.1	57.07
755.497	57.05
755.894	57.04
756.291	57.02
756.688	57
757.085	57.01
757.482	57.02
757.878	57.04
758.275	57.05
758.672	57.1
759.068	57.11
759.465	57.14
759.861	57.15
760.258	57.12
760.654	57.13
761.05	57.13
761.447	57.11
761.843	57.08
762.239	57.07
762.635	57.06
763.031	57.02
763.427	57
763.822	56.96
764.218	56.93
764.614	56.93
765.01	56.91
765.405	56.88
765.801	56.88
766.196	56.91
766.592	56.89
766.987	56.87
767.382	56.86
767.778	56.84
768.173	56.82
768.568	56.79
768.963	56.79
769.358	56.77
769.753	56.77
770.148	56.74
770.542	56.67
770.937	56.66
771.332	56.64
771.726	56.63
772.121	56.61
772.515	56.63
772.91	56.65
773.304	56.62
773.699	56.62
774.093	56.57
774.487	56.56
774.881	56.59
775.275	56.6
775.669	56.6
776.063	56.59
776.457	56.56
776.851	56.51
777.245	56.51
777.638	56.53
778.032	56.55
778.425	56.59
778.819	56.6
779.212	56.58
779.606	56.61
779.999	56.6
780.392	56.59
780.786	56.62
781.179	56.67
781.572	56.69
781.965	56.69
782.358	56.68
782.751	56.7
783.143	56.71
783.536	56.74
783.929	56.73
784.322	56.76
784.714	56.77
785.107	56.79
785.499	56.78
785.891	56.79
786.284	56.78
786.676	56.8
787.068	56.81
787.46	56.83
787.852	56.85
788.245	56.85
788.636	56.86
789.028	56.86
789.42	56.84
789.812	56.85
790.204	56.82
790.595	56.79
790.987	56.78
791.378	56.75
791.77	56.74
792.161	56.73
792.553	56.71
792.944	56.7
793.335	56.73
793.726	56.73
794.117	56.71
794.508	56.74
794.899	56.75
795.29	56.77
795.681	56.79
796.072	56.8
796.463	56.76
796.853	56.78
797.244	56.76
797.634	56.71
798.025	56.72
798.415	56.74
798.806	56.74
799.196	56.77
799.586	56.79
799.976	56.78
800.366	56.75
800.756	56.79
801.146	56.77
801.536	56.77
801.926	56.79
802.316	56.81
802.706	56.8
803.095	56.81
803.485	56.82
803.874	56.81
804.264	56.84
804.653	56.82
805.043	56.79
805.432	56.77
805.821	56.79
806.21	56.81
806.599	56.8
806.988	56.82
807.377	56.81
807.766	56.8
808.155	56.77
808.544	56.72
808.933	56.76
809.321	56.78
809.71	56.82
810.098	56.77
810.487	56.75
810.875	56.75
811.264	56.75
811.652	56.77
812.04	56.76
812.428	56.8
812.816	56.82
813.204	56.84
813.592	56.86
813.98	56.87
814.368	56.92
814.756	56.92
815.144	56.93
815.531	56.95
815.919	56.96
816.306	56.93
816.694	56.93
817.081	56.94
817.469	56.95
817.856	56.99
818.243	57
818.63	57.02
819.017	57.04
819.404	57.05
819.791	57.04
820.178	57.07
820.565	57.12
820.952	57.11
821.339	57.13
821.725	57.14
822.112	57.15
822.498	57.12
822.885	57.12
823.271	57.18
823.657	57.21
824.044	57.21
824.43	57.19
824.816	57.17
825.202	57.18
825.588	57.18
825.974	57.2
826.36	57.2
826.746	57.22
827.132	57.2
827.517	57.15
827.903	57.15
828.289	57.16
828.674	57.17
829.06	57.2
829.445	57.22
829.83	57.23
830.216	57.23
830.601	57.23
830.986	57.23
831.371	57.27
831.756	57.25
832.141	57.26
832.526	57.24
832.911	57.22
833.295	57.23
833.68	57.22
834.065	57.22
834.449	57.2
834.834	57.18
835.218	57.19
835.603	57.17
835.987	57.18
836.371	57.17
836.755	57.19
837.139	57.17
837.524	57.17
837.908	57.16
838.291	57.11
838.675	57.12
839.059	57.09
839.443	57.1
839.827	57.08
840.21	57.09
840.594	57.09
840.977	57.06
841.361	57.08
841.744	57.1
842.127	57.08
842.511	57.09
842.894	57.03
843.277	57.07
843.66	57.07
844.043	57.08
844.426	57.06
844.809	57.03
845.191	57.03
845.574	57.02
845.957	56.98
846.339	56.97
846.722	56.98
847.104	57.02
847.487	57
847.869	56.96
848.252	56.95
848.634	56.99
849.016	57.02
849.398	57.02
849.78	57.03
850.162	57.03
850.544	57.05
850.926	57.02
851.307	57.03
851.689	57
852.071	57
852.452	56.99
852.834	56.99
853.215	56.96
853.597	56.97
853.978	56.93
854.359	56.92
854.741	56.91
855.122	56.95
855.503	56.95
855.884	56.95
856.265	56.96
856.646	56.95
857.026	56.93
857.407	56.88
857.788	56.88
858.169	56.9
858.549	56.93
858.93	56.94
859.31	56.94
859.69	56.91
860.071	56.95
860.451	56.95
860.831	56.99
861.211	56.98
861.591	57.03
861.971	56.99
862.351	57
862.731	57
863.111	57.01
863.491	57.01
863.87	57.06
864.25	57.07
864.629	57.08
865.009	57.07
865.388	57.07
865.768	57.09
866.147	57.17
866.526	57.16
866.905	57.17
867.284	57.18
867.663	57.17
868.042	57.13
868.421	57.09
868.8	57.09
869.179	57.09
869.558	57.1
869.936	57.06
870.315	57.02
870.693	57.03
871.072	57
871.45	56.94
871.828	56.93
872.207	56.95
872.585	56.98
872.963	56.97
873.341	56.95
873.719	56.92
874.097	56.95
874.475	56.94
874.853	56.92
875.23	56.94
875.608	56.97
875.986	56.94
876.363	56.91
876.741	56.88
877.118	56.86
877.495	56.85
877.873	56.84
878.25	56.84
878.627	56.86
879.004	56.89
879.381	56.86
879.758	56.84
880.135	56.87
880.512	56.9
880.889	56.89
881.265	56.92
881.642	56.92
882.019	56.95
882.395	56.93
882.772	56.9
883.148	56.87
883.524	56.9
883.901	56.9
884.277	56.89
884.653	56.87
885.029	56.87
885.405	56.84
885.781	56.8
886.157	56.78
886.532	56.78
886.908	56.81
887.284	56.81
887.659	56.79
888.035	56.8
888.411	56.78
888.786	56.79
889.161	56.8
889.537	56.82
889.912	56.85
890.287	56.84
890.662	56.84
891.037	56.78
891.412	56.75
891.787	56.74
892.162	56.7
892.536	56.71
892.911	56.69
893.286	56.65
893.66	56.61
894.035	56.58
894.409	56.55
894.784	56.54
895.158	56.55
895.532	56.54
895.906	56.51
896.281	56.51
896.655	56.47
897.029	56.44
897.402	56.43
897.776	56.42
898.15	56.43
898.524	56.43
898.898	56.4
899.271	56.38
899.645	56.37
900.018	56.37
900.392	56.39
900.765	56.42
901.138	56.44
901.511	56.43
901.884	56.44
902.258	56.42
902.631	56.45
903.003	56.44
903.376	56.42
903.749	56.4
904.122	56.4
904.495	56.35
904.867	56.3
905.24	56.24
905.612	56.25
905.985	56.2
906.357	56.18
906.729	56.17
907.102	56.14
907.474	56.12
907.846	56.09
908.218	56.09
908.59	56.09
908.962	56.1
909.334	56.12
909.705	56.11
910.077	56.1
910.449	56.1
910.82	56.06
911.192	56.1
911.563	56.1
911.935	56.09
912.306	56.07
912.677	56.07
913.048	56.05
913.419	56.06
913.79	56.03
914.161	56.04
914.532	56.03
914.903	56
915.274	55.96
915.645	55.97
916.015	55.97
916.386	55.99
916.756	55.96
917.127	55.97
917.497	55.98
917.868	55.99
918.238	55.99
918.608	55.99
918.978	56.01
919.348	55.99
919.718	55.97
920.088	55.99
920.458	56.01
920.828	56.06
921.198	56.07
921.567	56.04
921.937	56.03
922.306	56.01
922.676	56.03
923.045	55.96
923.415	55.96
923.784	56.02
924.153	56.03
924.522	56.02
924.891	55.94
925.26	55.89
925.629	55.89
925.998	55.96
926.367	55.92
926.736	55.86
927.104	55.89
927.473	55.88
927.842	55.78
928.21	55.76
928.578	55.68
928.947	55.72
929.315	55.71
929.683	55.72
930.051	55.63
930.42	55.62
930.788	55.63
931.156	55.65
931.523	55.68
931.891	55.68
932.259	55.61
932.627	55.56
932.994	55.52
933.362	55.47
933.729	55.41
934.097	55.36
934.464	55.35
934.831	55.31
935.199	55.23
935.566	55.16
935.933	55.1
936.3	55.04
936.667	55.07
937.034	54.99
937.401	54.95
937.767	54.93
938.134	54.89
938.501	54.79
938.867	54.79
939.234	54.78
939.6	54.76
939.967	54.7
940.333	54.82
940.699	54.88
941.065	54.96
941.431	55.02
941.798	55.02
942.163	55.06
942.529	55.2
942.895	55.17
943.261	55.18
943.627	55.23
943.992	55.37
944.358	55.34
944.723	55.29
945.089	55.38
945.454	55.45
945.82	55.47
946.185	55.54
946.55	55.52
946.915	55.61
947.28	55.67
947.645	55.68
948.01	55.69
948.375	55.69
948.74	55.7
949.104	55.63
949.469	55.54
949.834	55.5
950.198	55.42
950.562	55.41
950.927	55.34
951.291	55.27
951.655	55.24
952.02	55.24
952.384	55.22
952.748	55.16
953.112	55.15
953.476	55.17
953.839	55.22
954.203	55.2
954.567	55.19
954.931	55.16
955.294	55.14
955.658	55.11
956.021	55.07
956.385	55.11
956.748	55.13
957.111	55.05
957.474	55.05
957.837	54.98
958.2	54.96
958.563	54.92
958.926	54.84
959.289	54.84
959.652	54.81
960.015	54.77
960.377	54.73
960.74	54.65
961.102	54.68
961.465	54.64
961.827	54.62
962.189	54.62
962.552	54.52
962.914	54.55
963.276	54.52
963.638	54.44
964	54.46
964.362	54.47
964.724	54.5
965.085	54.49
965.447	54.41
965.809	54.34
966.17	54.34
966.532	54.43
966.893	54.44
967.255	54.4
967.616	54.49
967.977	54.47
968.338	54.37
968.699	54.4
969.061	54.32
969.421	54.33
969.782	54.35
970.143	54.36
970.504	54.29
970.865	54.25
971.225	54.25
971.586	54.2
971.946	54.16
972.307	54.19
972.667	54.2
973.027	54.23
973.388	54.25
973.748	54.33
974.108	54.22
974.468	54.21
974.828	54.19
975.188	54.22
975.548	54.24
975.907	54.23
976.267	54.19
976.627	54.13
976.986	54.15
977.346	54.15
977.705	54.1
978.064	54.18
978.424	54.2
978.783	54.28
979.142	54.28
979.501	54.19
979.86	54.17
980.219	54.14
980.578	54.13
980.937	54.16
981.296	54.23
981.654	54.29
982.013	54.23
982.371	54.23
982.73	54.17
983.088	54.02
983.447	54.05
983.805	54.11
984.163	54.21
984.521	54.11
984.879	54.1
985.237	54.03
985.595	54.03
985.953	54.02
986.311	54.02
986.669	54.06
987.026	54.24
987.384	54.3
987.741	54.32
988.099	54.28
988.456	54.37
988.814	54.32
989.171	54.3
989.528	54.21
989.885	54.16
990.242	54.11
990.599	54.06
990.956	54.06
991.313	53.97
991.67	53.86
992.027	53.77
992.383	53.86
992.74	53.81
993.096	53.8
993.453	53.77
993.809	53.96
994.165	54.02
994.522	53.95
994.878	53.98
995.234	54
995.59	53.95
995.946	54.03
996.302	53.81
996.658	53.72
997.013	53.65
997.369	53.73
997.725	53.7
998.08	53.72
998.436	53.85
998.791	53.75
999.147	53.84
999.502	53.97
999.857	54
1000.212	54.1
1000.567	54.3
1000.922	54.34
1001.277	54.18
1001.632	54.13
1001.987	53.93
1002.342	54.03
1002.696	54.11
1003.051	54.02
1003.406	53.89
1003.76	53.82
1004.114	53.89
1004.469	53.82
1004.823	53.93
1005.177	54.02
1005.531	53.76
1005.885	53.99
1006.239	53.75
1006.593	53.53
1006.947	53.44
1007.301	53.54
1007.655	53.54
1008.008	53.46
1008.362	53.39
1008.715	53.17
1009.069	52.99
1009.422	53.11
1009.776	52.89
1010.129	52.86
1010.482	52.98
1010.835	53.09
1011.188	53.01
1011.541	52.64
1011.894	52.57
1012.247	52.38
1012.6	52.38
1012.952	52.49
1013.305	52.62
1013.657	52.67
1014.01	52.71
1014.362	52.6
1014.715	52.37
1015.067	52.64
1015.419	53.04
1015.771	53.38
1016.123	53.69
1016.475	53.85
1016.827	54.04
1017.179	54
1017.531	54.01
1017.883	53.92
1018.234	54.18
1018.586	54.5
1018.938	54.1
1019.289	53.97
1019.64	53.85
1019.992	53.94
1020.343	53.75
1020.694	53.63
1021.045	53.25
1021.396	53.33
1021.747	53.64
1022.098	53.83
1022.449	53.56
1022.8	53.77
1023.151	53.76
1023.501	53.55
1023.852	53.54
1024.202	53.65
1024.553	53.65
1024.903	54.19
1025.253	54.2
1025.604	54.04
1025.954	53.44
1026.304	53.78
1026.654	53.69
1027.004	53.79
1027.354	53.75
1027.703	53.61
1028.053	53.45
1028.403	53.65
1028.753	53.44
1029.102	53.55
1029.452	53.73
1029.801	54.08
1030.15	54.01
1030.499	54.11
897.758	499.54
901.051	505.35
904.343	514.15
907.636	503.38
910.928	495.37
914.22	504.23
917.511	494.18
920.803	469.05
924.094	449.93
927.384	456.53
930.675	441.35
933.965	437.76
937.255	438.95
940.544	417.01
943.834	401.72
947.123	395.25
950.411	375.92
953.7	370.35
956.988	361.02
960.276	347.57
963.563	341.57
966.851	324.42
970.138	319.11
973.424	297.74
976.711	296.12
979.997	284.88
983.283	278.68
986.568	269.84
989.853	262.37
993.138	253.72
996.423	251.45
999.708	243.69
1002.992	244.63
1006.275	239.29
1009.559	237.36
1012.842	229.34
1016.125	222.85
1019.408	219.37
1022.69	217.7
1025.972	216.38
1029.254	211.64
1032.536	206.91
1035.817	200.91
1039.098	197.74
1042.379	193.76
1045.659	192.1
1048.939	190.49
1052.219	188.72
1055.498	185.4
1058.778	182.46
1062.057	178.46
1065.335	177.88
1068.614	174.6
1071.892	173.01
1075.17	170.43
1078.447	168.84
1081.724	166.38
1085.001	163.5
1088.278	162.94
1091.554	162.36
1094.83	161.29
1098.106	158.51
1101.382	157.23
1104.657	157.27
1107.932	155.89
1111.206	155.99
1114.481	153.23
1117.755	152.93
1121.029	151.94
1124.302	149.7
1127.575	147.59
1130.848	146.64
1134.121	145.97
1137.393	145.55
1140.665	144.37
1143.937	143.28
1147.208	141.22
1150.48	140.59
1153.75	139.66
1157.021	139.09
1160.291	138.57
1163.561	138.17
1166.831	137.86
1170.101	137.8
1173.37	135.97
1176.639	134.94
1179.907	134.97
1183.176	134.35
1186.444	133.65
1189.711	132.96
1192.979	134.14
1196.246	134.29
1199.513	133.39
1202.78	132.99
1206.046	133.09
1209.312	134.59
1212.578	134.99
1215.843	136.39
1219.108	137.1
1222.373	140
1225.638	141.21
1228.902	143.63
1232.166	147.82
1235.43	149.89
1238.693	153.23
1241.956	155.9
1245.219	159.07
1248.482	160.31
1251.744	160.47
1255.006	161.42
1258.268	157.45
1261.529	157.14
1264.79	152.59
1268.051	149.47
1271.312	148.73
1274.572	146.01
1277.832	142.4
1281.092	141.39
1284.351	139.11
1287.61	138.88
1290.869	137.22
1294.128	137.01
1297.386	136.56
1300.644	136.59
1303.902	135.4
1307.159	135.3
1310.416	135.38
1313.673	138.01
1316.93	138.19
1320.186	139.71
1323.442	140.84
1326.697	144.26
1329.953	144.31
1333.208	147.83
1336.463	152.55
1339.717	155.76
1342.972	161.68
1346.226	166.16
1349.479	167.13
1352.733	173.66
1355.986	177.22
1359.238	180.54
1362.491	181.4
1365.743	188.63
1368.995	190.43
1372.247	190.46
1375.498	189.83
1378.749	195.1
1382	191.57
1385.251	191.97
1388.501	189.5
1391.751	191.74
1395	189.68
1398.25	191.01
1401.499	189.57
1404.748	188.32
1407.996	183.48
1411.244	183.2
1414.492	180.38
1417.74	176.67
1420.987	171.8
1424.234	169.15
1427.481	162.53
1430.728	159.58
1433.974	152.88
1437.22	148.74
1440.465	143.4
1443.711	139.56
1446.956	135.56
1450.201	129.52
1453.445	125.28
1456.689	122.34
1459.933	118.01
1463.177	113.03
1466.42	109.75
1469.663	106.99
1472.906	102.95
1476.148	101.9
1479.391	99.57
1482.633	97.98
1485.874	96.54
1489.115	95.79
1492.356	93.39
1495.597	92.94
1498.838	93.26
1502.078	93.09
1505.318	93
1508.557	92.78
1511.797	91.02
1515.036	91.26
1518.274	90.71
1521.513	89.91
1524.751	89.11
1527.989	90.37
1531.227	89.8
1534.464	89.32
1537.701	89.08
1540.938	88.75
1544.174	88.89
1547.41	89.29
1550.646	88.87
1553.882	89.1
1557.117	89.25
1560.352	89.86
1563.587	88.43
1566.821	88.29
1570.055	88.06
1573.289	88.01
1576.523	88.2
1579.756	87.67
1582.989	87.8
1586.222	88.28
1589.454	87.74
1592.686	87.65
1595.918	87.05
1599.15	87.5
1602.381	87.68
1605.612	88.23
1608.843	87.65
1612.073	88.65
1615.303	89.12
1618.533	88.62
1621.762	88.22
1624.992	89.15
1628.221	89.06
1631.449	89.37
1634.678	89.33
1637.906	89.62
1641.134	89.44
1644.361	89.84
1647.588	89.18
1650.815	89.13
1654.042	89.56
1657.269	89.55
1660.495	89.63
1663.72	89.75
1666.946	89.86
1670.171	90.22
1673.396	90.52
1676.621	90.44
1679.845	90.86
1683.069	90.67
1686.293	90.38
1689.517	90.34
1692.74	90.61
1695.963	90.67
1699.185	90.79
1702.408	91.19
1705.63	91.49
1708.852	92.08
1712.073	91.63
1715.294	91.54
1718.515	91.62
1721.736	92.51
1724.956	92.72
1728.176	92.56
1731.396	92.56
1734.616	92.54
1737.835	92.41
1741.054	92.34
1744.272	91.17
1747.491	91.8
1750.709	92.45
1753.927	92.58
1757.144	92.03
1760.361	91.99
1763.578	92.85
1766.795	93.61
1770.011	93.78
1773.227	94.1
1776.443	94.65
1779.658	95.19
1782.874	96.01
1786.089	95.21
1789.303	95.67
1792.518	96.9
1795.732	97.54
1798.945	97.83
1802.159	97.69
1805.372	98.96
1808.585	99.46
1811.797	99.42
1815.01	100.52
1818.222	100.72
1821.434	102.57
1824.645	102.77
1827.856	103.54
1831.067	103.62
1834.278	104.83
1837.488	105.45
1840.698	105.67
1843.908	106
1847.117	107.65
1850.326	108.35
1853.535	108.05
1856.744	108.26
1859.952	109.65
1863.16	109.33
1866.368	109.02
1869.575	108.87
1872.782	107.81
1875.989	108.27
1879.196	107.73
1882.402	105.66
1885.608	106.63
1888.814	106.33
1892.019	106.65
1895.224	104.87
1898.429	105.57
1901.634	106.55
1904.838	106.31
1908.042	107.52
1911.246	107.01
1914.449	107.38
1917.652	107.96
1920.855	107.38
1924.058	106.93
1927.26	106.66
1930.462	107.19
1933.664	107.16
1936.865	106.39
1940.066	105.2
1943.267	104.31
1946.467	105.31
1949.668	104.89
1952.868	105.81
1956.067	105.57
1959.267	105.69
1962.466	106.28
1965.665	106.91
1968.863	107.66
1972.061	107.51
1975.259	111.42
1978.457	111.81
1981.654	111.86
1984.852	113.32
1988.048	113.77
1991.245	115.54
1994.441	118.97
1997.637	121.02
2000.833	123.98
2004.028	123.62
2007.223	129.03
2010.418	129.48
2013.613	136.68
2016.807	140.15
2020.001	142.78
2023.194	147.9
2026.388	150.88
2029.581	158.13
2032.774	161.45
2035.966	166.5
2039.158	173
2042.35	175.35
2045.542	178.51
2048.733	184.83
2051.924	186.44
2055.115	189.45
2058.306	190.12
2061.496	196.44
2064.686	195.94
2067.875	195.88
2071.065	197.79
2074.254	197.53
2077.442	203.97
2080.631	205.68
2083.819	204.81
2087.007	209.04
2090.195	211.98
2093.382	212.59
2096.569	212.28
2099.756	216.02
2102.942	221.35
2106.128	224.18
2109.314	226.54
2112.5	224.43
2115.685	222.35
2118.87	223.5
2122.055	227.2
2125.239	231.48
2128.424	237.71
2131.608	236.55
2134.791	233.55
2137.974	236.9
2141.157	237.81
2144.34	240.77
2147.523	244.59
2150.705	252.84
2153.887	250.63
2157.068	251.8
2160.25	254.43
2163.431	251.01
2166.611	257.49
2169.792	262.99
2172.972	266.08
2176.152	267.57
2179.331	273.09
2182.511	272.97
2185.69	276.57
2188.868	287.36
2192.047	292.91
2195.225	296.93
2198.403	303.57
2201.58	297.77
2204.758	308.84
2207.935	308.38
2211.111	314.36
2214.288	316.51
2217.464	321.21
2220.64	322.48
2223.815	323.59
2226.991	318.6
2230.166	321.46
2233.34	330.96
2236.515	338.24
2239.689	337.66
2242.863	342.57
2246.036	340.69
2249.209	347.7
2252.382	346.55
2255.555	359.67
2258.727	360.7
2261.9	371.8
2265.071	376.44
2268.243	371.9
2271.414	385.43
2274.585	389.3
2277.756	389.4
2280.926	403.85
2284.096	402.42
2287.266	406.51
2290.436	395.93
2293.605	406.41
2296.774	421.36
2299.942	421.61
2303.111	434.5
2306.279	436.37
2309.447	439.25
2312.614	444.2
2315.781	452.82
2318.948	463.31
2322.115	470.06
2325.281	493.75
2328.447	487.42
2331.613	487.9
2334.779	496.52
2337.944	503.65
2341.109	518.87
2344.274	521.74
2347.438	535.66
2350.602	548.51
2353.766	576.05
2356.929	577.37
2360.092	592.87
2363.255	598.13
2366.418	607.82
2369.58	619.21
2372.742	616.5
2375.904	612.55
2379.066	629.07
2382.227	667.49
2385.388	657.6
2388.548	630.04
2391.709	622.09
2394.869	639.14
2398.029	643.22
2401.188	650.61
2404.347	668.97
2407.506	692.34
2410.665	664.8
2413.823	670.37
2416.981	664.99
2420.139	635.33
2423.296	682.77
2426.453	733.6
2429.61	698.76
2432.767	741.2
2435.923	757.07
2439.079	731.84
2442.235	753.1
2445.391	772.56
2448.546	764.36
2451.701	804.53
2454.855	859.4
2458.009	767.58
2461.163	777.28
2464.317	780.63
2467.471	767.31
2470.624	790.54
2473.777	774.82
2476.929	745.63
2480.082	794
2483.234	831.71
2486.385	846.44
2489.537	867.61
2492.688	945.76
2495.839	931.87
2498.989	958.97
2502.14	959.73
2505.29	921.58
2508.439	1034.87
2511.589	1067.77
2514.738	1044.65
2517.887	1034.99
2521.035	970.78
2524.183	953.56
2527.331	947.61
2530.479	925.59
2533.627	949.45
