Data from N_1_dec_ct_2n_033_Splice17_13.txt Node
Date: Sat Feb 29 13:47:20 EST 2020
User: sa697716
Spectrometer: FLMS03696
Trigger mode: 0
Integration Time (sec): 3.180400E-1
Scans to average: 20
Electric dark correction enabled: true
Nonlinearity correction enabled: true
Boxcar width: 5
XAxis mode: Wavelengths
Number of Pixels in Spectrum: 2048
>>>>>Begin Spectral Data<<<<<
187.83	65.45
188.298	60.42
188.766	60.94
189.233	57.41
189.701	69.08
190.169	77.52
190.636	93.01
191.104	123.68
191.571	584.03
192.039	419.1
192.506	-664.82
192.974	-3652.58
193.441	452.33
193.908	61.49
194.375	51.46
194.842	181.01
195.31	122.64
195.777	120.22
196.244	82.56
196.711	60.87
197.177	61.52
197.644	58.69
198.111	58.34
198.578	58.01
199.045	57.63
199.511	57.62
199.978	57.42
200.445	57.01
200.911	57.13
201.378	56.78
201.844	57.22
202.31	56.8
202.777	56.96
203.243	56.82
203.709	56.8
204.176	56.1
204.642	56.07
205.108	56.22
205.574	56.7
206.04	56.64
206.506	56.39
206.972	56.52
207.438	56.62
207.903	56.73
208.369	56.6
208.835	56.42
209.301	56.61
209.766	55.91
210.232	55.33
210.697	54.99
211.163	54.44
211.628	54.29
212.094	53.57
212.559	52.8
213.024	52.26
213.49	51.7
213.955	51.15
214.42	50.49
214.885	50.14
215.35	49.61
215.815	48.51
216.28	47.7
216.745	46.32
217.21	45.1
217.675	43.75
218.14	42.37
218.604	41.21
219.069	40.33
219.534	39.42
219.998	38.61
220.463	37.95
220.927	37.45
221.392	36.87
221.856	36.39
222.32	35.91
222.785	35.58
223.249	35.28
223.713	34.96
224.177	34.58
224.642	34.26
225.106	33.96
225.57	33.6
226.034	33.21
226.497	32.86
226.961	32.53
227.425	32.18
227.889	31.85
228.353	31.5
228.816	31.14
229.28	30.79
229.744	30.44
230.207	30.11
230.671	29.79
231.134	29.48
231.597	29.14
232.061	28.85
232.524	28.58
232.987	28.25
233.45	27.94
233.914	27.67
234.377	27.41
234.84	27.15
235.303	26.9
235.766	26.63
236.229	26.39
236.691	26.16
237.154	25.93
237.617	25.71
238.08	25.53
238.542	25.31
239.005	25.09
239.468	24.85
239.93	24.66
240.393	24.47
240.855	24.28
241.317	24.08
241.78	23.89
242.242	23.67
242.704	23.49
243.166	23.27
243.629	23.09
244.091	22.91
244.553	22.75
245.015	22.57
245.477	22.4
245.939	22.25
246.4	22.09
246.862	21.94
247.324	21.82
247.786	21.66
248.247	21.54
248.709	21.42
249.17	21.31
249.632	21.17
250.093	21.05
250.555	20.92
251.016	20.8
251.477	20.71
251.939	20.6
252.4	20.49
252.861	20.39
253.322	20.29
253.783	20.21
254.244	20.13
254.705	20.06
255.166	20.01
255.627	19.94
256.088	19.87
256.549	19.8
257.009	19.74
257.47	19.69
257.931	19.64
258.391	19.58
258.852	19.51
259.312	19.46
259.773	19.39
260.233	19.32
260.694	19.26
261.154	19.21
261.614	19.15
262.074	19.11
262.534	19.04
262.994	18.99
263.455	18.95
263.915	18.91
264.374	18.86
264.834	18.83
265.294	18.8
265.754	18.77
266.214	18.74
266.673	18.74
267.133	18.71
267.593	18.68
268.052	18.65
268.512	18.64
268.971	18.62
269.431	18.61
269.89	18.6
270.349	18.59
270.809	18.59
271.268	18.59
271.727	18.56
272.186	18.57
272.645	18.57
273.104	18.56
273.563	18.55
274.022	18.54
274.481	18.51
274.94	18.49
275.399	18.47
275.857	18.46
276.316	18.42
276.775	18.4
277.233	18.37
277.692	18.34
278.15	18.32
278.609	18.29
279.067	18.26
279.525	18.25
279.984	18.23
280.442	18.21
280.9	18.18
281.358	18.17
281.816	18.15
282.274	18.13
282.732	18.13
283.19	18.13
283.648	18.13
284.106	18.13
284.564	18.15
285.021	18.16
285.479	18.15
285.937	18.15
286.394	18.15
286.852	18.16
287.309	18.17
287.767	18.18
288.224	18.17
288.682	18.15
289.139	18.13
289.596	18.1
290.053	18.06
290.511	18.02
290.968	17.99
291.425	17.97
291.882	17.96
292.339	17.92
292.796	17.89
293.252	17.86
293.709	17.86
294.166	17.85
294.623	17.85
295.079	17.85
295.536	17.86
295.992	17.88
296.449	17.88
296.905	17.86
297.362	17.88
297.818	17.89
298.274	17.89
298.731	17.88
299.187	17.87
299.643	17.87
300.099	17.87
300.555	17.86
301.011	17.85
301.467	17.84
301.923	17.83
302.379	17.82
302.835	17.83
303.291	17.82
303.746	17.82
304.202	17.83
304.658	17.83
305.113	17.82
305.569	17.82
306.024	17.82
306.479	17.82
306.935	17.82
307.39	17.81
307.845	17.79
308.301	17.8
308.756	17.81
309.211	17.79
309.666	17.81
310.121	17.8
310.576	17.8
311.031	17.79
311.486	17.8
311.94	17.81
312.395	17.82
312.85	17.82
313.305	17.83
313.759	17.83
314.214	17.84
314.668	17.83
315.123	17.84
315.577	17.84
316.032	17.85
316.486	17.84
316.94	17.84
317.394	17.82
317.849	17.8
318.303	17.8
318.757	17.77
319.211	17.74
319.665	17.72
320.119	17.7
320.572	17.69
321.026	17.64
321.48	17.61
321.934	17.59
322.387	17.58
322.841	17.56
323.295	17.54
323.748	17.54
324.202	17.53
324.655	17.5
325.108	17.47
325.562	17.45
326.015	17.43
326.468	17.42
326.921	17.39
327.374	17.37
327.827	17.35
328.28	17.32
328.733	17.29
329.186	17.27
329.639	17.26
330.092	17.26
330.545	17.24
330.997	17.24
331.45	17.22
331.903	17.21
332.355	17.19
332.808	17.18
333.26	17.19
333.713	17.19
334.165	17.2
334.617	17.2
335.069	17.19
335.522	17.19
335.974	17.18
336.426	17.2
336.878	17.2
337.33	17.19
337.782	17.19
338.234	17.18
338.686	17.16
339.137	17.15
339.589	17.13
340.041	17.13
340.493	17.1
340.944	17.1
341.396	17.06
341.847	17.03
342.299	17
342.75	16.95
343.201	16.92
343.653	16.88
344.104	16.84
344.555	16.81
345.006	16.77
345.457	16.74
345.908	16.72
346.359	16.7
346.81	16.67
347.261	16.66
347.712	16.64
348.163	16.62
348.613	16.6
349.064	16.58
349.515	16.56
349.965	16.55
350.416	16.54
350.866	16.53
351.317	16.51
351.767	16.49
352.217	16.48
352.668	16.48
353.118	16.48
353.568	16.48
354.018	16.49
354.468	16.48
354.918	16.48
355.368	16.48
355.818	16.46
356.268	16.47
356.718	16.48
357.168	16.48
357.617	16.47
358.067	16.46
358.517	16.45
358.966	16.45
359.416	16.45
359.865	16.45
360.315	16.44
360.764	16.45
361.213	16.44
361.663	16.45
362.112	16.46
362.561	16.46
363.01	16.46
363.459	16.45
363.908	16.44
364.357	16.44
364.806	16.44
365.255	16.44
365.703	16.43
366.152	16.42
366.601	16.41
367.05	16.4
367.498	16.41
367.947	16.42
368.395	16.44
368.844	16.45
369.292	16.47
369.74	16.47
370.189	16.49
370.637	16.51
371.085	16.54
371.533	16.58
371.981	16.6
372.429	16.61
372.877	16.65
373.325	16.67
373.773	16.7
374.221	16.73
374.669	16.78
375.116	16.81
375.564	16.86
376.012	16.91
376.459	16.96
376.907	17.04
377.354	17.11
377.801	17.18
378.249	17.27
378.696	17.34
379.143	17.43
379.591	17.49
380.038	17.59
380.485	17.69
380.932	17.79
381.379	17.87
381.826	17.95
382.273	18.05
382.72	18.15
383.166	18.24
383.613	18.34
384.06	18.43
384.506	18.54
384.953	18.62
385.4	18.7
385.846	18.78
386.292	18.89
386.739	18.99
387.185	19.07
387.631	19.15
388.078	19.25
388.524	19.33
388.97	19.41
389.416	19.48
389.862	19.55
390.308	19.64
390.754	19.7
391.2	19.77
391.645	19.83
392.091	19.9
392.537	19.97
392.983	20.04
393.428	20.12
393.874	20.2
394.319	20.28
394.765	20.34
395.21	20.37
395.655	20.43
396.101	20.46
396.546	20.5
396.991	20.54
397.436	20.56
397.881	20.59
398.326	20.6
398.771	20.64
399.216	20.67
399.661	20.68
400.106	20.73
400.551	20.74
400.995	20.73
401.44	20.7
401.885	20.68
402.329	20.67
402.774	20.64
403.218	20.65
403.663	20.62
404.107	20.61
404.551	20.6
404.995	20.56
405.44	20.53
405.884	20.52
406.328	20.51
406.772	20.51
407.216	20.5
407.66	20.49
408.104	20.45
408.547	20.41
408.991	20.36
409.435	20.31
409.879	20.27
410.322	20.26
410.766	20.21
411.209	20.19
411.653	20.15
412.096	20.11
412.54	20.08
412.983	20.06
413.426	20.03
413.869	20.02
414.312	20.03
414.756	20.03
415.199	20.02
415.642	20.03
416.085	20.03
416.527	20.03
416.97	20.01
417.413	19.99
417.856	19.94
418.298	19.91
418.741	19.88
419.184	19.83
419.626	19.8
420.069	19.76
420.511	19.71
420.953	19.68
421.396	19.64
421.838	19.61
422.28	19.6
422.722	19.61
423.164	19.59
423.606	19.6
424.048	19.57
424.49	19.57
424.932	19.54
425.374	19.53
425.816	19.48
426.258	19.42
426.699	19.35
427.141	19.28
427.582	19.21
428.024	19.17
428.465	19.15
428.907	19.17
429.348	19.14
429.789	19.13
430.231	19.11
430.672	19.13
431.113	19.19
431.554	19.26
431.995	19.31
432.436	19.35
432.877	19.38
433.318	19.36
433.759	19.36
434.2	19.39
434.64	19.41
435.081	19.42
435.522	19.46
435.962	19.49
436.403	19.52
436.843	19.54
437.284	19.58
437.724	19.62
438.164	19.66
438.604	19.7
439.045	19.73
439.485	19.75
439.925	19.78
440.365	19.76
440.805	19.76
441.245	19.76
441.685	19.81
442.125	19.85
442.564	19.88
443.004	19.92
443.444	19.97
443.883	20
444.323	20.04
444.762	20.12
445.202	20.21
445.641	20.27
446.081	20.35
446.52	20.41
446.959	20.47
447.398	20.57
447.837	20.66
448.276	20.71
448.716	20.81
449.154	20.89
449.593	20.96
450.032	21.01
450.471	21.09
450.91	21.12
451.349	21.16
451.787	21.21
452.226	21.24
452.664	21.27
453.103	21.3
453.541	21.33
453.98	21.35
454.418	21.39
454.856	21.4
455.295	21.43
455.733	21.47
456.171	21.5
456.609	21.53
457.047	21.55
457.485	21.57
457.923	21.61
458.361	21.64
458.798	21.67
459.236	21.71
459.674	21.74
460.111	21.78
460.549	21.79
460.987	21.84
461.424	21.87
461.862	21.92
462.299	21.95
462.736	21.97
463.173	21.99
463.611	22
464.048	22.01
464.485	22.02
464.922	22.03
465.359	22.05
465.796	22.04
466.233	22.03
466.67	22.01
467.106	22.01
467.543	22.03
467.98	22.02
468.416	22.04
468.853	22.04
469.29	22.06
469.726	22.07
470.162	22.05
470.599	22.06
471.035	22.09
471.471	22.08
471.907	22.07
472.344	22.06
472.78	22.05
473.216	22.04
473.652	22.01
474.088	21.99
474.523	21.96
474.959	21.93
475.395	21.92
475.831	21.89
476.266	21.88
476.702	21.85
477.138	21.83
477.573	21.82
478.008	21.81
478.444	21.82
478.879	21.81
479.314	21.81
479.75	21.83
480.185	21.82
480.62	21.82
481.055	21.83
481.49	21.84
481.925	21.85
482.36	21.87
482.795	21.87
483.229	21.89
483.664	21.93
484.099	21.96
484.534	22.02
484.968	22.06
485.403	22.12
485.837	22.17
486.271	22.25
486.706	22.34
487.14	22.43
487.574	22.53
488.009	22.64
488.443	22.75
488.877	22.87
489.311	22.98
489.745	23.14
490.179	23.27
490.613	23.43
491.046	23.6
491.48	23.77
491.914	23.95
492.348	24.13
492.781	24.31
493.215	24.49
493.648	24.7
494.082	24.91
494.515	25.12
494.948	25.36
495.382	25.59
495.815	25.83
496.248	26.06
496.681	26.29
497.114	26.57
497.547	26.86
497.98	27.14
498.413	27.44
498.846	27.74
499.279	28.05
499.711	28.35
500.144	28.65
500.577	28.98
501.009	29.34
501.442	29.7
501.874	30.06
502.306	30.44
502.739	30.8
503.171	31.19
503.603	31.6
504.036	32.01
504.468	32.44
504.9	32.88
505.332	33.3
505.764	33.75
506.196	34.2
506.627	34.65
507.059	35.09
507.491	35.56
507.923	36.02
508.354	36.48
508.786	36.96
509.217	37.41
509.649	37.9
510.08	38.39
510.512	38.83
510.943	39.34
511.374	39.81
511.805	40.29
512.237	40.79
512.668	41.26
513.099	41.75
513.53	42.22
513.961	42.7
514.391	43.15
514.822	43.61
515.253	44.08
515.684	44.48
516.114	44.92
516.545	45.36
516.975	45.76
517.406	46.2
517.836	46.57
518.267	46.93
518.697	47.3
519.127	47.68
519.558	48.01
519.988	48.35
520.418	48.71
520.848	49.03
521.278	49.36
521.708	49.57
522.138	49.83
522.567	50.13
522.997	50.45
523.427	50.74
523.857	50.98
524.286	51.26
524.716	51.52
525.145	51.78
525.575	52.03
526.004	52.25
526.433	52.58
526.863	52.85
527.292	53.08
527.721	53.29
528.15	53.47
528.579	53.67
529.008	53.85
529.437	54.03
529.866	54.2
530.295	54.39
530.724	54.58
531.152	54.75
531.581	54.9
532.01	55.04
532.438	55.18
532.867	55.36
533.295	55.51
533.723	55.67
534.152	55.8
534.58	55.92
535.008	55.98
535.436	56.07
535.865	56.15
536.293	56.25
536.721	56.33
537.149	56.4
537.576	56.46
538.004	56.53
538.432	56.59
538.86	56.65
539.287	56.74
539.715	56.83
540.143	56.87
540.57	56.93
540.998	56.99
541.425	57.04
541.852	57.11
542.28	57.15
542.707	57.22
543.134	57.24
543.561	57.24
543.988	57.28
544.415	57.33
544.842	57.38
545.269	57.44
545.696	57.47
546.123	57.5
546.549	57.56
546.976	57.59
547.403	57.58
547.829	57.64
548.256	57.72
548.682	57.7
549.108	57.73
549.535	57.74
549.961	57.73
550.387	57.77
550.813	57.78
551.24	57.79
551.666	57.83
552.092	57.87
552.518	57.84
552.943	57.86
553.369	57.91
553.795	57.93
554.221	57.95
554.646	57.97
555.072	57.97
555.498	57.95
555.923	57.94
556.349	57.91
556.774	57.88
557.199	57.88
557.625	57.84
558.05	57.81
558.475	57.73
558.9	57.7
559.325	57.65
559.75	57.58
560.175	57.52
560.6	57.43
561.025	57.4
561.449	57.33
561.874	57.25
562.299	57.2
562.723	57.13
563.148	57.09
563.572	57.02
563.997	56.94
564.421	56.89
564.846	56.83
565.27	56.79
565.694	56.69
566.118	56.62
566.542	56.54
566.966	56.43
567.39	56.29
567.814	56.14
568.238	55.98
568.662	55.88
569.086	55.73
569.509	55.59
569.933	55.44
570.357	55.29
570.78	55.13
571.204	55
571.627	54.86
572.05	54.77
572.474	54.65
572.897	54.55
573.32	54.41
573.743	54.31
574.166	54.16
574.589	54.04
575.012	53.93
575.435	53.83
575.858	53.72
576.281	53.62
576.704	53.5
577.126	53.38
577.549	53.3
577.972	53.22
578.394	53.13
578.817	53.07
579.239	52.98
579.661	52.92
580.084	52.85
580.506	52.78
580.928	52.7
581.35	52.65
581.772	52.63
582.194	52.55
582.616	52.46
583.038	52.4
583.46	52.34
583.882	52.27
584.303	52.22
584.725	52.16
585.147	52.08
585.568	52.03
585.99	51.98
586.411	51.92
586.833	51.87
587.254	51.8
587.675	51.73
588.096	51.7
588.518	51.65
588.939	51.57
589.36	51.51
589.781	51.45
590.202	51.42
590.623	51.33
591.043	51.26
591.464	51.22
591.885	51.17
592.305	51.13
592.726	51.06
593.147	51.04
593.567	50.98
593.987	50.97
594.408	50.92
594.828	50.86
595.248	50.83
595.669	50.79
596.089	50.74
596.509	50.68
596.929	50.62
597.349	50.57
597.769	50.53
598.189	50.48
598.608	50.38
599.028	50.32
599.448	50.27
599.867	50.2
600.287	50.14
600.706	50.07
601.126	50.02
601.545	49.97
601.965	49.92
602.384	49.83
602.803	49.79
603.222	49.72
603.641	49.68
604.061	49.62
604.48	49.54
604.898	49.47
605.317	49.42
605.736	49.34
606.155	49.26
606.574	49.16
606.992	49.09
607.411	48.99
607.829	48.88
608.248	48.77
608.666	48.7
609.085	48.65
609.503	48.56
609.921	48.49
610.339	48.41
610.758	48.32
611.176	48.25
611.594	48.2
612.012	48.12
612.43	48.1
612.847	48.04
613.265	47.95
613.683	47.84
614.101	47.76
614.518	47.66
614.936	47.57
615.353	47.52
615.771	47.45
616.188	47.36
616.606	47.28
617.023	47.19
617.44	47.15
617.857	47.07
618.274	46.99
618.691	46.94
619.108	46.88
619.525	46.84
619.942	46.78
620.359	46.73
620.776	46.66
621.192	46.62
621.609	46.6
622.026	46.54
622.442	46.54
622.859	46.54
623.275	46.52
623.691	46.53
624.108	46.54
624.524	46.55
624.94	46.56
625.356	46.56
625.772	46.58
626.188	46.58
626.604	46.58
627.02	46.54
627.436	46.53
627.852	46.51
628.268	46.46
628.683	46.42
629.099	46.39
629.514	46.33
629.93	46.29
630.345	46.22
630.761	46.17
631.176	46.1
631.591	46.04
632.007	45.95
632.422	45.86
632.837	45.76
633.252	45.67
633.667	45.52
634.082	45.41
634.497	45.25
634.911	45.07
635.326	44.88
635.741	44.67
636.155	44.44
636.57	44.23
636.984	43.97
637.399	43.69
637.813	43.38
638.228	43.08
638.642	42.8
639.056	42.48
639.47	42.17
639.884	41.86
640.298	41.54
640.712	41.21
641.126	40.88
641.54	40.53
641.954	40.21
642.368	39.89
642.781	39.55
643.195	39.18
643.609	38.88
644.022	38.54
644.436	38.22
644.849	37.9
645.262	37.62
645.676	37.32
646.089	37.09
646.502	36.82
646.915	36.57
647.328	36.38
647.741	36.19
648.154	36
648.567	35.88
648.98	35.72
649.393	35.6
649.805	35.46
650.218	35.34
650.631	35.24
651.043	35.15
651.456	35.07
651.868	34.99
652.28	34.91
652.693	34.81
653.105	34.7
653.517	34.61
653.929	34.53
654.341	34.44
654.753	34.37
655.165	34.27
655.577	34.14
655.989	34.01
656.401	33.84
656.813	33.67
657.224	33.5
657.636	33.34
658.047	33.16
658.459	32.94
658.87	32.73
659.282	32.52
659.693	32.3
660.104	32.08
660.515	31.87
660.926	31.67
661.338	31.44
661.749	31.23
662.159	30.99
662.57	30.78
662.981	30.6
663.392	30.36
663.803	30.14
664.213	29.92
664.624	29.74
665.035	29.51
665.445	29.35
665.855	29.18
666.266	29.03
666.676	28.9
667.086	28.75
667.497	28.6
667.907	28.48
668.317	28.37
668.727	28.28
669.137	28.2
669.547	28.14
669.956	28.08
670.366	28.06
670.776	28.03
671.186	28
671.595	28
672.005	28.02
672.414	28.07
672.824	28.12
673.233	28.19
673.642	28.24
674.052	28.34
674.461	28.41
674.87	28.49
675.279	28.59
675.688	28.72
676.097	28.84
676.506	28.97
676.915	29.11
677.323	29.31
677.732	29.53
678.141	29.77
678.549	30.02
678.958	30.33
679.366	30.64
679.775	30.99
680.183	31.37
680.592	31.8
681	32.27
681.408	32.78
681.816	33.3
682.224	33.86
682.632	34.48
683.04	35.1
683.448	35.78
683.856	36.49
684.264	37.26
684.671	38.07
685.079	38.89
685.487	39.74
685.894	40.63
686.302	41.52
686.709	42.42
687.116	43.3
687.524	44.22
687.931	45.12
688.338	46.05
688.745	46.93
689.152	47.82
689.559	48.7
689.966	49.54
690.373	50.42
690.78	51.27
691.187	52.07
691.593	52.87
692	53.68
692.407	54.43
692.813	55.17
693.22	55.86
693.626	56.59
694.032	57.24
694.439	57.93
694.845	58.51
695.251	59.06
695.657	59.63
696.063	60.2
696.469	60.69
696.875	61.17
697.281	61.62
697.687	62.1
698.093	62.5
698.498	62.97
698.904	63.35
699.31	63.72
699.715	64.14
700.12	64.48
700.526	64.81
700.931	65.13
701.337	65.46
701.742	65.75
702.147	66.05
702.552	66.32
702.957	66.57
703.362	66.82
703.767	67.07
704.172	67.29
704.577	67.53
704.981	67.75
705.386	67.97
705.791	68.22
706.195	68.42
706.6	68.59
707.004	68.78
707.408	68.94
707.813	69.12
708.217	69.27
708.621	69.39
709.025	69.52
709.43	69.64
709.834	69.8
710.237	69.89
710.641	70.05
711.045	70.2
711.449	70.31
711.853	70.43
712.256	70.55
712.66	70.67
713.064	70.82
713.467	70.95
713.87	71.08
714.274	71.2
714.677	71.3
715.08	71.38
715.484	71.49
715.887	71.61
716.29	71.7
716.693	71.77
717.096	71.84
717.499	71.92
717.901	72
718.304	72.06
718.707	72.11
719.109	72.2
719.512	72.31
719.915	72.34
720.317	72.41
720.719	72.47
721.122	72.56
721.524	72.67
721.926	72.78
722.328	72.85
722.731	72.93
723.133	73.01
723.535	73.11
723.937	73.17
724.338	73.23
724.74	73.26
725.142	73.31
725.544	73.35
725.945	73.36
726.347	73.38
726.748	73.37
727.15	73.42
727.551	73.48
727.952	73.47
728.354	73.53
728.755	73.57
729.156	73.61
729.557	73.68
729.958	73.74
730.359	73.79
730.76	73.8
731.161	73.86
731.562	73.87
731.962	73.85
732.363	73.84
732.763	73.87
733.164	73.86
733.564	73.86
733.965	73.85
734.365	73.8
734.766	73.79
735.166	73.75
735.566	73.69
735.966	73.72
736.366	73.72
736.766	73.77
737.166	73.73
737.566	73.74
737.966	73.77
738.365	73.8
738.765	73.85
739.165	73.83
739.564	73.9
739.964	73.94
740.363	73.92
740.763	73.91
741.162	73.89
741.561	73.9
741.96	73.93
742.36	73.89
742.759	73.84
743.158	73.78
743.557	73.84
743.955	73.84
744.354	73.86
744.753	73.87
745.152	73.87
745.55	73.92
745.949	73.89
746.348	73.88
746.746	73.92
747.144	73.98
747.543	74.03
747.941	74.06
748.339	74.11
748.737	74.15
749.136	74.14
749.534	74.17
749.932	74.14
750.33	74.16
750.727	74.15
751.125	74.15
751.523	74.1
751.921	74.08
752.318	74.04
752.716	73.94
753.113	73.91
753.511	73.89
753.908	73.88
754.305	73.83
754.703	73.77
755.1	73.74
755.497	73.72
755.894	73.71
756.291	73.69
756.688	73.68
757.085	73.69
757.482	73.69
757.878	73.69
758.275	73.65
758.672	73.72
759.068	73.78
759.465	73.78
759.861	73.79
760.258	73.77
760.654	73.77
761.05	73.73
761.447	73.68
761.843	73.59
762.239	73.57
762.635	73.55
763.031	73.5
763.427	73.46
763.822	73.43
764.218	73.37
764.614	73.36
765.01	73.35
765.405	73.36
765.801	73.36
766.196	73.37
766.592	73.37
766.987	73.38
767.382	73.39
767.778	73.38
768.173	73.41
768.568	73.41
768.963	73.4
769.358	73.36
769.753	73.36
770.148	73.35
770.542	73.36
770.937	73.33
771.332	73.33
771.726	73.3
772.121	73.27
772.515	73.26
772.91	73.27
773.304	73.26
773.699	73.28
774.093	73.21
774.487	73.24
774.881	73.26
775.275	73.27
775.669	73.27
776.063	73.24
776.457	73.26
776.851	73.22
777.245	73.23
777.638	73.28
778.032	73.3
778.425	73.34
778.819	73.3
779.212	73.3
779.606	73.32
779.999	73.3
780.392	73.34
780.786	73.34
781.179	73.39
781.572	73.37
781.965	73.37
782.358	73.31
782.751	73.29
783.143	73.32
783.536	73.35
783.929	73.38
784.322	73.39
784.714	73.4
785.107	73.42
785.499	73.44
785.891	73.44
786.284	73.39
786.676	73.45
787.068	73.44
787.46	73.45
787.852	73.42
788.245	73.39
788.636	73.4
789.028	73.41
789.42	73.37
789.812	73.35
790.204	73.31
790.595	73.33
790.987	73.34
791.378	73.37
791.77	73.36
792.161	73.41
792.553	73.38
792.944	73.39
793.335	73.41
793.726	73.42
794.117	73.44
794.508	73.48
794.899	73.5
795.29	73.49
795.681	73.48
796.072	73.5
796.463	73.48
796.853	73.49
797.244	73.48
797.634	73.44
798.025	73.45
798.415	73.43
798.806	73.42
799.196	73.43
799.586	73.46
799.976	73.48
800.366	73.49
800.756	73.49
801.146	73.52
801.536	73.55
801.926	73.57
802.316	73.56
802.706	73.6
803.095	73.63
803.485	73.62
803.874	73.61
804.264	73.66
804.653	73.63
805.043	73.65
805.432	73.61
805.821	73.6
806.21	73.61
806.599	73.68
806.988	73.63
807.377	73.63
807.766	73.66
808.155	73.66
808.544	73.66
808.933	73.67
809.321	73.64
809.71	73.73
810.098	73.74
810.487	73.74
810.875	73.67
811.264	73.74
811.652	73.72
812.04	73.7
812.428	73.71
812.816	73.71
813.204	73.72
813.592	73.74
813.98	73.71
814.368	73.72
814.756	73.72
815.144	73.77
815.531	73.73
815.919	73.74
816.306	73.73
816.694	73.77
817.081	73.75
817.469	73.78
817.856	73.81
818.243	73.84
818.63	73.86
819.017	73.89
819.404	73.85
819.791	73.87
820.178	73.89
820.565	73.9
820.952	73.88
821.339	73.92
821.725	73.91
822.112	73.89
822.498	73.87
822.885	73.87
823.271	73.85
823.657	73.9
824.044	73.94
824.43	73.95
824.816	73.94
825.202	73.92
825.588	73.91
825.974	73.89
826.36	73.88
826.746	73.89
827.132	73.86
827.517	73.88
827.903	73.86
828.289	73.83
828.674	73.83
829.06	73.87
829.445	73.9
829.83	73.86
830.216	73.87
830.601	73.86
830.986	73.85
831.371	73.9
831.756	73.86
832.141	73.89
832.526	73.88
832.911	73.91
833.295	73.9
833.68	73.91
834.065	73.98
834.449	73.97
834.834	73.96
835.218	73.97
835.603	73.98
835.987	73.97
836.371	73.93
836.755	73.95
837.139	73.93
837.524	73.92
837.908	73.88
838.291	73.84
838.675	73.83
839.059	73.83
839.443	73.81
839.827	73.77
840.21	73.8
840.594	73.81
840.977	73.77
841.361	73.77
841.744	73.79
842.127	73.79
842.511	73.79
842.894	73.79
843.277	73.83
843.66	73.86
844.043	73.87
844.426	73.86
844.809	73.86
845.191	73.85
845.574	73.83
845.957	73.77
846.339	73.76
846.722	73.76
847.104	73.77
847.487	73.78
847.869	73.73
848.252	73.71
848.634	73.75
849.016	73.76
849.398	73.75
849.78	73.75
850.162	73.8
850.544	73.79
850.926	73.75
851.307	73.74
851.689	73.7
852.071	73.72
852.452	73.73
852.834	73.67
853.215	73.64
853.597	73.66
853.978	73.67
854.359	73.63
854.741	73.66
855.122	73.68
855.503	73.72
855.884	73.71
856.265	73.7
856.646	73.67
857.026	73.69
857.407	73.65
857.788	73.68
858.169	73.67
858.549	73.71
858.93	73.68
859.31	73.67
859.69	73.61
860.071	73.61
860.451	73.61
860.831	73.6
861.211	73.58
861.591	73.6
861.971	73.55
862.351	73.57
862.731	73.53
863.111	73.55
863.491	73.61
863.87	73.59
864.25	73.65
864.629	73.66
865.009	73.64
865.388	73.63
865.768	73.66
866.147	73.69
866.526	73.69
866.905	73.7
867.284	73.72
867.663	73.65
868.042	73.67
868.421	73.61
868.8	73.6
869.179	73.66
869.558	73.67
869.936	73.64
870.315	73.63
870.693	73.65
871.072	73.6
871.45	73.57
871.828	73.61
872.207	73.63
872.585	73.62
872.963	73.58
873.341	73.56
873.719	73.55
874.097	73.57
874.475	73.59
874.853	73.57
875.23	73.61
875.608	73.62
875.986	73.62
876.363	73.61
876.741	73.63
877.118	73.64
877.495	73.64
877.873	73.64
878.25	73.61
878.627	73.59
879.004	73.61
879.381	73.58
879.758	73.56
880.135	73.54
880.512	73.51
880.889	73.53
881.265	73.59
881.642	73.57
882.019	73.59
882.395	73.61
882.772	73.59
883.148	73.54
883.524	73.6
883.901	73.6
884.277	73.61
884.653	73.65
885.029	73.64
885.405	73.6
885.781	73.61
886.157	73.59
886.532	73.58
886.908	73.62
887.284	73.66
887.659	73.62
888.035	73.62
888.411	73.61
888.786	73.57
889.161	73.57
889.537	73.56
889.912	73.55
890.287	73.54
890.662	73.54
891.037	73.47
891.412	73.42
891.787	73.39
892.162	73.38
892.536	73.35
892.911	73.34
893.286	73.31
893.66	73.3
894.035	73.25
894.409	73.26
894.784	73.26
895.158	73.28
895.532	73.26
895.906	73.27
896.281	73.26
896.655	73.26
897.029	73.28
897.402	73.3
897.776	73.3
898.15	73.33
898.524	73.28
898.898	73.19
899.271	73.16
899.645	73.14
900.018	73.11
900.392	73.11
900.765	73.13
901.138	73.11
901.511	73.1
901.884	73.13
902.258	73.1
902.631	73.16
903.003	73.21
903.376	73.24
903.749	73.29
904.122	73.33
904.495	73.32
904.867	73.27
905.24	73.29
905.612	73.24
905.985	73.19
906.357	73.19
906.729	73.18
907.102	73.14
907.474	73.13
907.846	73.09
908.218	73.04
908.59	72.98
908.962	72.98
909.334	72.93
909.705	72.95
910.077	72.93
910.449	72.92
910.82	72.89
911.192	72.93
911.563	72.91
911.935	72.84
912.306	72.84
912.677	72.87
913.048	72.85
913.419	72.86
913.79	72.85
914.161	72.86
914.532	72.8
914.903	72.8
915.274	72.72
915.645	72.71
916.015	72.77
916.386	72.76
916.756	72.73
917.127	72.68
917.497	72.65
917.868	72.64
918.238	72.59
918.608	72.64
918.978	72.6
919.348	72.58
919.718	72.55
920.088	72.57
920.458	72.58
920.828	72.6
921.198	72.65
921.567	72.63
921.937	72.65
922.306	72.66
922.676	72.63
923.045	72.61
923.415	72.62
923.784	72.69
924.153	72.6
924.522	72.59
924.891	72.54
925.26	72.52
925.629	72.51
925.998	72.49
926.367	72.49
926.736	72.46
927.104	72.51
927.473	72.54
927.842	72.44
928.21	72.48
928.578	72.45
928.947	72.41
929.315	72.37
929.683	72.36
930.051	72.33
930.42	72.32
930.788	72.27
931.156	72.2
931.523	72.12
931.891	72.06
932.259	71.99
932.627	71.89
932.994	71.94
933.362	71.91
933.729	71.84
934.097	71.77
934.464	71.66
934.831	71.61
935.199	71.62
935.566	71.6
935.933	71.6
936.3	71.54
936.667	71.57
937.034	71.4
937.401	71.34
937.767	71.29
938.134	71.37
938.501	71.35
938.867	71.4
939.234	71.4
939.6	71.3
939.967	71.31
940.333	71.4
940.699	71.5
941.065	71.63
941.431	71.69
941.798	71.86
942.163	71.92
942.529	72.03
942.895	72.1
943.261	72.05
943.627	72.17
943.992	72.25
944.358	72.22
944.723	72.18
945.089	72.27
945.454	72.36
945.82	72.27
946.185	72.23
946.55	72.32
946.915	72.24
947.28	72.29
947.645	72.31
948.01	72.3
948.375	72.34
948.74	72.32
949.104	72.32
949.469	72.21
949.834	72.14
950.198	72.02
950.562	71.94
950.927	71.97
951.291	71.93
951.655	71.89
952.02	71.87
952.384	71.9
952.748	71.85
953.112	71.84
953.476	71.86
953.839	71.78
954.203	71.73
954.567	71.67
954.931	71.63
955.294	71.65
955.658	71.59
956.021	71.59
956.385	71.52
956.748	71.58
957.111	71.53
957.474	71.57
957.837	71.65
958.2	71.62
958.563	71.6
958.926	71.62
959.289	71.6
959.652	71.63
960.015	71.63
960.377	71.65
960.74	71.51
961.102	71.48
961.465	71.4
961.827	71.38
962.189	71.4
962.552	71.36
962.914	71.27
963.276	71.26
963.638	71.19
964	71.07
964.362	71.08
964.724	71.15
965.085	71.12
965.447	71.08
965.809	71.02
966.17	71.04
966.532	71.07
966.893	71.11
967.255	71.03
967.616	71.04
967.977	71.05
968.338	70.96
968.699	70.87
969.061	70.8
969.421	70.83
969.782	70.78
970.143	70.73
970.504	70.7
970.865	70.61
971.225	70.66
971.586	70.7
971.946	70.72
972.307	70.72
972.667	70.76
973.027	70.84
973.388	70.76
973.748	70.81
974.108	70.84
974.468	70.83
974.828	70.91
975.188	70.98
975.548	70.92
975.907	70.93
976.267	70.88
976.627	70.88
976.986	70.79
977.346	70.92
977.705	71.02
978.064	71.04
978.424	70.99
978.783	71.01
979.142	70.83
979.501	70.87
979.86	70.97
980.219	70.93
980.578	70.94
980.937	71.01
981.296	70.9
981.654	70.91
982.013	70.87
982.371	70.87
982.73	70.84
983.088	70.81
983.447	70.82
983.805	70.71
984.163	70.83
984.521	70.71
984.879	70.73
985.237	70.73
985.595	70.64
985.953	70.72
986.311	70.79
986.669	70.82
987.026	70.96
987.384	70.85
987.741	70.86
988.099	70.83
988.456	70.91
988.814	70.94
989.171	71.06
989.528	71.06
989.885	70.92
990.242	70.96
990.599	71
990.956	71.05
991.313	71.16
991.67	71.24
992.027	71.18
992.383	71.21
992.74	71.08
993.096	71
993.453	70.98
993.809	71.11
994.165	71.06
994.522	71.02
994.878	70.89
995.234	70.68
995.59	70.57
995.946	70.69
996.302	70.61
996.658	70.67
997.013	70.56
997.369	70.64
997.725	70.64
998.08	70.69
998.436	70.72
998.791	70.75
999.147	70.99
999.502	70.83
999.857	70.95
1000.212	70.93
1000.567	71.09
1000.922	71.2
1001.277	71.04
1001.632	70.97
1001.987	70.84
1002.342	70.79
1002.696	70.88
1003.051	70.73
1003.406	70.89
1003.76	70.74
1004.114	70.93
1004.469	70.74
1004.823	70.79
1005.177	70.98
1005.531	70.88
1005.885	71.04
1006.239	70.98
1006.593	70.7
1006.947	70.59
1007.301	70.67
1007.655	70.57
1008.008	70.37
1008.362	70.38
1008.715	70.14
1009.069	70
1009.422	70.08
1009.776	69.8
1010.129	69.77
1010.482	70.12
1010.835	70.52
1011.188	70.31
1011.541	70.35
1011.894	70.4
1012.247	70.34
1012.6	70.59
1012.952	70.59
1013.305	70.53
1013.657	70.58
1014.01	70.67
1014.362	70.72
1014.715	70.34
1015.067	70.41
1015.419	70.55
1015.771	70.75
1016.123	70.65
1016.475	70.78
1016.827	70.98
1017.179	71.01
1017.531	71.29
1017.883	71.55
1018.234	71.56
1018.586	71.94
1018.938	71.91
1019.289	71.58
1019.64	71.94
1019.992	72.34
1020.343	71.94
1020.694	71.82
1021.045	72
1021.396	71.83
1021.747	71.63
1022.098	71.43
1022.449	71.13
1022.8	71.3
1023.151	71.59
1023.501	71.19
1023.852	70.98
1024.202	70.85
1024.553	70.69
1024.903	70.62
1025.253	71.11
1025.604	71.16
1025.954	71.13
1026.304	71.63
1026.654	71.78
1027.004	71.84
1027.354	71.79
1027.703	71.47
1028.053	71.77
1028.403	71.83
1028.753	72.02
1029.102	71.46
1029.452	71.24
1029.801	71.03
1030.15	70.59
1030.499	70.28
897.758	511.03
901.051	524.11
904.343	529.46
907.636	524.39
910.928	514.62
914.22	525.79
917.511	516.92
920.803	495.12
924.094	476.12
927.384	483.93
930.675	469.29
933.965	465.94
937.255	465.07
940.544	445.91
943.834	422.32
947.123	419.2
950.411	397.66
953.7	390.31
956.988	379.79
960.276	363.64
963.563	360.91
966.851	342.87
970.138	336.81
973.424	314.16
976.711	312.61
979.997	304.7
983.283	297
986.568	288.22
989.853	281.3
993.138	271.36
996.423	269.43
999.708	260.56
1002.992	261.69
1006.275	256.55
1009.559	254.44
1012.842	246.18
1016.125	239.68
1019.408	236.25
1022.69	234.71
1025.972	234.11
1029.254	227.75
1032.536	223.46
1035.817	215.87
1039.098	213.79
1042.379	209.62
1045.659	207.31
1048.939	206.54
1052.219	203.71
1055.498	199.86
1058.778	197.1
1062.057	192.52
1065.335	192.98
1068.614	189.24
1071.892	187.95
1075.17	185.07
1078.447	182.37
1081.724	181.3
1085.001	177.11
1088.278	176.69
1091.554	176.49
1094.83	174.3
1098.106	172.76
1101.382	171.63
1104.657	171.83
1107.932	171.14
1111.206	169.34
1114.481	168.64
1117.755	166.81
1121.029	166.9
1124.302	164.79
1127.575	161.98
1130.848	162.24
1134.121	160.16
1137.393	159.98
1140.665	158.68
1143.937	157.32
1147.208	155.69
1150.48	153.62
1153.75	154.8
1157.021	153.63
1160.291	153.07
1163.561	153.68
1166.831	151.86
1170.101	152.16
1173.37	150.76
1176.639	149.73
1179.907	149.27
1183.176	149.79
1186.444	149.16
1189.711	147.19
1192.979	148.46
1196.246	148.81
1199.513	147.15
1202.78	148.38
1206.046	147.79
1209.312	148.6
1212.578	149.34
1215.843	151.28
1219.108	151.44
1222.373	154.7
1225.638	156.28
1228.902	158.93
1232.166	162.34
1235.43	165.47
1238.693	168.36
1241.956	171.65
1245.219	176.64
1248.482	177.46
1251.744	176.97
1255.006	177.9
1258.268	173.98
1261.529	173.52
1264.79	168.62
1268.051	166.26
1271.312	164.07
1274.572	162.04
1277.832	158.85
1281.092	155.64
1284.351	153.14
1287.61	153.08
1290.869	152.88
1294.128	152.1
1297.386	151.39
1300.644	151.04
1303.902	150.55
1307.159	150.25
1310.416	149.91
1313.673	152.03
1316.93	152.66
1320.186	154.89
1323.442	156.59
1326.697	158.6
1329.953	158.34
1333.208	163.46
1336.463	169.13
1339.717	171.6
1342.972	178.3
1346.226	182.31
1349.479	183.65
1352.733	191.19
1355.986	194.12
1359.238	197.42
1362.491	197.89
1365.743	206.87
1368.995	206.21
1372.247	204.48
1375.498	203.09
1378.749	209.15
1382	208.84
1385.251	207.24
1388.501	206.58
1391.751	208.63
1395	206.83
1398.25	209.02
1401.499	207.72
1404.748	207.05
1407.996	201.88
1411.244	202.9
1414.492	199.32
1417.74	192.98
1420.987	189.81
1424.234	185.42
1427.481	178.43
1430.728	174.14
1433.974	167.59
1437.22	163.22
1440.465	157.96
1443.711	154.92
1446.956	149.69
1450.201	144.03
1453.445	138.78
1456.689	135.36
1459.933	131.33
1463.177	126.96
1466.42	123.84
1469.663	120.79
1472.906	117.09
1476.148	115.31
1479.391	113.24
1482.633	112.03
1485.874	110.52
1489.115	109.98
1492.356	107.32
1495.597	106.61
1498.838	106.53
1502.078	106.56
1505.318	106.66
1508.557	105.93
1511.797	104.67
1515.036	104.85
1518.274	104.6
1521.513	103.9
1524.751	103.59
1527.989	105.31
1531.227	105.1
1534.464	104.95
1537.701	104.44
1540.938	104
1544.174	104.66
1547.41	104.94
1550.646	104.63
1553.882	105.07
1557.117	104.91
1560.352	104.87
1563.587	103.28
1566.821	103.38
1570.055	103.44
1573.289	102.88
1576.523	103.25
1579.756	102.9
1582.989	103.11
1586.222	103.21
1589.454	103.1
1592.686	103.05
1595.918	102.93
1599.15	103.7
1602.381	103.74
1605.612	103.38
1608.843	103.64
1612.073	104.28
1615.303	104.09
1618.533	104.09
1621.762	104.28
1624.992	103.97
1628.221	104.02
1631.449	104.7
1634.678	104.02
1637.906	103.92
1641.134	103.9
1644.361	104.28
1647.588	103.34
1650.815	103.54
1654.042	103.62
1657.269	103.18
1660.495	103.52
1663.72	103.75
1666.946	103.26
1670.171	104.13
1673.396	104.68
1676.621	105.25
1679.845	105.16
1683.069	105.16
1686.293	105.13
1689.517	105.33
1692.74	105.65
1695.963	105.66
1699.185	105.94
1702.408	106.57
1705.63	106.33
1708.852	106.57
1712.073	106.12
1715.294	106.13
1718.515	107.29
1721.736	107.46
1724.956	107.1
1728.176	106.89
1731.396	107.31
1734.616	107.2
1737.835	106.98
1741.054	106.86
1744.272	106.24
1747.491	106.61
1750.709	107.18
1753.927	106.61
1757.144	106.26
1760.361	106.36
1763.578	106.89
1766.795	107.35
1770.011	107.26
1773.227	107.63
1776.443	108.5
1779.658	109.07
1782.874	109.44
1786.089	109.07
1789.303	109.13
1792.518	110.4
1795.732	111.09
1798.945	111.93
1802.159	111.9
1805.372	113.21
1808.585	113.38
1811.797	113.58
1815.01	114.32
1818.222	115.01
1821.434	116
1824.645	116.69
1827.856	117.63
1831.067	117.96
1834.278	118.67
1837.488	119.11
1840.698	120.1
1843.908	120.64
1847.117	121.69
1850.326	122.08
1853.535	121.86
1856.744	123.03
1859.952	123.5
1863.16	122.74
1866.368	122.07
1869.575	122.26
1872.782	121.41
1875.989	119.39
1879.196	118.39
1882.402	116.15
1885.608	116.7
1888.814	115.54
1892.019	114.58
1895.224	112.04
1898.429	112.48
1901.634	112.96
1904.838	111.45
1908.042	111.86
1911.246	111.06
1914.449	111.27
1917.652	112.16
1920.855	111.92
1924.058	111.67
1927.26	110.93
1930.462	112.06
1933.664	111.77
1936.865	111.07
1940.066	110.59
1943.267	109.23
1946.467	111.02
1949.668	110.8
1952.868	111.79
1956.067	111.03
1959.267	111.85
1962.466	112.26
1965.665	113.92
1968.863	114.8
1972.061	115.79
1975.259	118.22
1978.457	119.52
1981.654	120.42
1984.852	121.23
1988.048	121.98
1991.245	124.54
1994.441	127.39
1997.637	130.79
2000.833	133.42
2004.028	134.32
2007.223	139.1
2010.418	142.01
2013.613	147.96
2016.807	152.18
2020.001	155.29
2023.194	159.04
2026.388	163.98
2029.581	170.74
2032.774	174.79
2035.966	179.43
2039.158	185.38
2042.35	186.87
2045.542	187.86
2048.733	195.32
2051.924	197.95
2055.115	201.44
2058.306	203.41
2061.496	206.34
2064.686	207.17
2067.875	207.22
2071.065	209.08
2074.254	209.45
2077.442	216.7
2080.631	220.74
2083.819	220.42
2087.007	223.88
2090.195	228.13
2093.382	228.47
2096.569	229.27
2099.756	233.71
2102.942	238.76
2106.128	243.19
2109.314	243.45
2112.5	242.58
2115.685	241.87
2118.87	242.08
2122.055	244.54
2125.239	248.08
2128.424	253.68
2131.608	251.5
2134.791	250.69
2137.974	251.24
2141.157	252.44
2144.34	255.79
2147.523	260.25
2150.705	267.17
2153.887	265.74
2157.068	268.22
2160.25	270.63
2163.431	268.41
2166.611	275.82
2169.792	281.22
2172.972	286.38
2176.152	287.44
2179.331	294.34
2182.511	292.32
2185.69	295.42
2188.868	304.94
2192.047	311.99
2195.225	316.98
2198.403	321.61
2201.58	316.87
2204.758	325.58
2207.935	325.89
2211.111	331.61
2214.288	332.82
2217.464	338.76
2220.64	340.07
2223.815	340.94
2226.991	333.71
2230.166	337.5
2233.34	348.23
2236.515	352.37
2239.689	350.21
2242.863	355.72
2246.036	352.42
2249.209	360.08
2252.382	360.94
2255.555	373.57
2258.727	377.31
2261.9	385.27
2265.071	389.62
2268.243	387.24
2271.414	403.08
2274.585	409.34
2277.756	411.84
2280.926	423.06
2284.096	423.21
2287.266	423.01
2290.436	415.18
2293.605	423.88
2296.774	446.12
2299.942	441.46
2303.111	455.59
2306.279	457.83
2309.447	458.08
2312.614	459.53
2315.781	474.19
2318.948	477.64
2322.115	487.13
2325.281	511.6
2328.447	508.94
2331.613	505.83
2334.779	516.77
2337.944	522.19
2341.109	535.45
2344.274	543.66
2347.438	559.25
2350.602	569.78
2353.766	606.58
2356.929	609.13
2360.092	617.83
2363.255	620.58
2366.418	632.04
2369.58	641.84
2372.742	638.88
2375.904	638.94
2379.066	653.22
2382.227	693.01
2385.388	688.4
2388.548	657.66
2391.709	649.91
2394.869	667.58
2398.029	672.89
2401.188	672.12
2404.347	695.9
2407.506	719.23
2410.665	690.06
2413.823	693.61
2416.981	686.21
2420.139	655.43
2423.296	703.5
2426.453	750.67
2429.61	720.77
2432.767	762.39
2435.923	789.89
2439.079	763.28
2442.235	784.69
2445.391	804.04
2448.546	792.66
2451.701	837.12
2454.855	892.9
2458.009	790.07
2461.163	806.39
2464.317	813.84
2467.471	794.24
2470.624	817.95
2473.777	803.82
2476.929	773.92
2480.082	827.35
2483.234	870.74
2486.385	874.53
2489.537	895.03
2492.688	991.16
2495.839	966.4
2498.989	991.78
2502.14	998.05
2505.29	955.76
2508.439	1068.73
2511.589	1102.95
2514.738	1060.42
2517.887	1055.39
2521.035	992.64
2524.183	980.55
2527.331	966.61
2530.479	947.04
2533.627	965.54
