Data from N_1_div_oh_2n_025_Splice17_16.txt Node
Date: Sat Feb 29 13:44:05 EST 2020
User: sa697716
Spectrometer: FLMS03696
Trigger mode: 0
Integration Time (sec): 3.180400E-1
Scans to average: 20
Electric dark correction enabled: true
Nonlinearity correction enabled: true
Boxcar width: 5
XAxis mode: Wavelengths
Number of Pixels in Spectrum: 2048
>>>>>Begin Spectral Data<<<<<
187.83	65.9
188.298	61.78
188.766	53.91
189.233	44.95
189.701	52.5
190.169	54.86
190.636	45.14
191.104	21.42
191.571	-100.81
192.039	88.03
192.506	-61.04
192.974	6298.59
193.441	-513.74
193.908	84.67
194.375	29.3
194.842	70.49
195.31	78.45
195.777	47.42
196.244	30.39
196.711	30.31
197.177	29.82
197.644	30.91
198.111	29.91
198.578	30.61
199.045	31.49
199.511	32.28
199.978	32.91
200.445	32.49
200.911	32.39
201.378	32.44
201.844	32.85
202.31	33.12
202.777	33.57
203.243	33.99
203.709	34.15
204.176	33.53
204.642	33.18
205.108	32.99
205.574	33.26
206.04	33.33
206.506	32.84
206.972	32.61
207.438	32.6
207.903	32.51
208.369	31.94
208.835	31.46
209.301	31.56
209.766	31.36
210.232	31
210.697	30.54
211.163	30.35
211.628	29.88
212.094	29.41
212.559	28.77
213.024	28.04
213.49	27.68
213.955	27.08
214.42	26.34
214.885	25.48
215.35	24.42
215.815	23.35
216.28	22.02
216.745	20.97
217.21	19.73
217.675	18.45
218.14	17.24
218.604	16.08
219.069	15.2
219.534	14.4
219.998	13.65
220.463	13.09
220.927	12.59
221.392	12.17
221.856	11.77
222.32	11.37
222.785	11.08
223.249	10.82
223.713	10.58
224.177	10.31
224.642	10.08
225.106	9.93
225.57	9.76
226.034	9.59
226.497	9.39
226.961	9.24
227.425	9.05
227.889	8.9
228.353	8.74
228.816	8.64
229.28	8.48
229.744	8.37
230.207	8.24
230.671	8.1
231.134	7.97
231.597	7.88
232.061	7.76
232.524	7.67
232.987	7.58
233.45	7.48
233.914	7.38
234.377	7.32
234.84	7.23
235.303	7.14
235.766	7.07
236.229	6.98
236.691	6.9
237.154	6.83
237.617	6.77
238.08	6.69
238.542	6.64
239.005	6.55
239.468	6.48
239.93	6.4
240.393	6.34
240.855	6.25
241.317	6.2
241.78	6.15
242.242	6.08
242.704	6.01
243.166	5.95
243.629	5.88
244.091	5.85
244.553	5.8
245.015	5.75
245.477	5.7
245.939	5.65
246.4	5.6
246.862	5.56
247.324	5.53
247.786	5.5
248.247	5.45
248.709	5.42
249.17	5.36
249.632	5.31
250.093	5.26
250.555	5.22
251.016	5.19
251.477	5.16
251.939	5.12
252.4	5.09
252.861	5.06
253.322	5.03
253.783	5
254.244	4.96
254.705	4.94
255.166	4.92
255.627	4.89
256.088	4.86
256.549	4.83
257.009	4.79
257.47	4.75
257.931	4.71
258.391	4.67
258.852	4.63
259.312	4.61
259.773	4.58
260.233	4.54
260.694	4.52
261.154	4.5
261.614	4.47
262.074	4.44
262.534	4.41
262.994	4.39
263.455	4.37
263.915	4.34
264.374	4.31
264.834	4.29
265.294	4.26
265.754	4.23
266.214	4.21
266.673	4.19
267.133	4.18
267.593	4.16
268.052	4.13
268.512	4.11
268.971	4.09
269.431	4.08
269.89	4.06
270.349	4.05
270.809	4.04
271.268	4.02
271.727	4
272.186	3.98
272.645	3.97
273.104	3.96
273.563	3.96
274.022	3.94
274.481	3.93
274.94	3.91
275.399	3.9
275.857	3.87
276.316	3.85
276.775	3.84
277.233	3.82
277.692	3.81
278.15	3.78
278.609	3.77
279.067	3.75
279.525	3.74
279.984	3.73
280.442	3.72
280.9	3.71
281.358	3.7
281.816	3.7
282.274	3.69
282.732	3.69
283.19	3.69
283.648	3.68
284.106	3.67
284.564	3.67
285.021	3.66
285.479	3.65
285.937	3.64
286.394	3.63
286.852	3.62
287.309	3.62
287.767	3.6
288.224	3.59
288.682	3.57
289.139	3.57
289.596	3.55
290.053	3.54
290.511	3.52
290.968	3.51
291.425	3.49
291.882	3.47
292.339	3.45
292.796	3.44
293.252	3.42
293.709	3.41
294.166	3.39
294.623	3.38
295.079	3.38
295.536	3.37
295.992	3.36
296.449	3.35
296.905	3.33
297.362	3.32
297.818	3.31
298.274	3.3
298.731	3.3
299.187	3.29
299.643	3.29
300.099	3.27
300.555	3.26
301.011	3.25
301.467	3.25
301.923	3.25
302.379	3.25
302.835	3.25
303.291	3.24
303.746	3.23
304.202	3.22
304.658	3.2
305.113	3.2
305.569	3.2
306.024	3.19
306.479	3.18
306.935	3.17
307.39	3.17
307.845	3.17
308.301	3.17
308.756	3.17
309.211	3.18
309.666	3.19
310.121	3.18
310.576	3.19
311.031	3.19
311.486	3.2
311.94	3.19
312.395	3.19
312.85	3.18
313.305	3.18
313.759	3.18
314.214	3.17
314.668	3.16
315.123	3.17
315.577	3.16
316.032	3.15
316.486	3.14
316.94	3.14
317.394	3.13
317.849	3.13
318.303	3.12
318.757	3.11
319.211	3.09
319.665	3.09
320.119	3.09
320.572	3.09
321.026	3.09
321.48	3.08
321.934	3.07
322.387	3.07
322.841	3.06
323.295	3.05
323.748	3.05
324.202	3.05
324.655	3.05
325.108	3.02
325.562	3.01
326.015	2.99
326.468	2.99
326.921	2.98
327.374	2.98
327.827	2.96
328.28	2.97
328.733	2.96
329.186	2.95
329.639	2.95
330.092	2.94
330.545	2.95
330.997	2.95
331.45	2.95
331.903	2.96
332.355	2.96
332.808	2.96
333.26	2.97
333.713	2.98
334.165	2.98
334.617	2.99
335.069	3
335.522	3.01
335.974	3.01
336.426	3.02
336.878	3.01
337.33	3.01
337.782	3.01
338.234	3
338.686	3
339.137	3.01
339.589	2.99
340.041	2.99
340.493	2.98
340.944	2.97
341.396	2.96
341.847	2.95
342.299	2.94
342.75	2.93
343.201	2.92
343.653	2.91
344.104	2.9
344.555	2.89
345.006	2.88
345.457	2.87
345.908	2.86
346.359	2.85
346.81	2.86
347.261	2.86
347.712	2.86
348.163	2.85
348.613	2.84
349.064	2.82
349.515	2.82
349.965	2.82
350.416	2.81
350.866	2.81
351.317	2.81
351.767	2.8
352.217	2.79
352.668	2.78
353.118	2.79
353.568	2.8
354.018	2.82
354.468	2.81
354.918	2.82
355.368	2.83
355.818	2.83
356.268	2.83
356.718	2.83
357.168	2.82
357.617	2.83
358.067	2.81
358.517	2.8
358.966	2.8
359.416	2.81
359.865	2.8
360.315	2.8
360.764	2.8
361.213	2.8
361.663	2.8
362.112	2.81
362.561	2.81
363.01	2.83
363.459	2.84
363.908	2.83
364.357	2.83
364.806	2.82
365.255	2.83
365.703	2.82
366.152	2.82
366.601	2.83
367.05	2.82
367.498	2.82
367.947	2.81
368.395	2.81
368.844	2.82
369.292	2.81
369.74	2.81
370.189	2.8
370.637	2.8
371.085	2.8
371.533	2.8
371.981	2.79
372.429	2.79
372.877	2.78
373.325	2.78
373.773	2.78
374.221	2.78
374.669	2.78
375.116	2.78
375.564	2.78
376.012	2.79
376.459	2.78
376.907	2.79
377.354	2.79
377.801	2.8
378.249	2.81
378.696	2.81
379.143	2.82
379.591	2.83
380.038	2.84
380.485	2.85
380.932	2.86
381.379	2.86
381.826	2.87
382.273	2.88
382.72	2.89
383.166	2.9
383.613	2.92
384.06	2.93
384.506	2.95
384.953	2.96
385.4	2.97
385.846	2.99
386.292	3.01
386.739	3.03
387.185	3.06
387.631	3.08
388.078	3.1
388.524	3.1
388.97	3.13
389.416	3.15
389.862	3.17
390.308	3.19
390.754	3.21
391.2	3.24
391.645	3.27
392.091	3.28
392.537	3.31
392.983	3.33
393.428	3.36
393.874	3.39
394.319	3.41
394.765	3.43
395.21	3.45
395.655	3.47
396.101	3.49
396.546	3.5
396.991	3.52
397.436	3.53
397.881	3.55
398.326	3.57
398.771	3.59
399.216	3.6
399.661	3.63
400.106	3.66
400.551	3.67
400.995	3.68
401.44	3.68
401.885	3.69
402.329	3.7
402.774	3.7
403.218	3.71
403.663	3.7
404.107	3.72
404.551	3.73
404.995	3.73
405.44	3.74
405.884	3.75
406.328	3.76
406.772	3.78
407.216	3.79
407.66	3.8
408.104	3.8
408.547	3.8
408.991	3.79
409.435	3.78
409.879	3.78
410.322	3.79
410.766	3.79
411.209	3.79
411.653	3.78
412.096	3.77
412.54	3.77
412.983	3.78
413.426	3.8
413.869	3.81
414.312	3.84
414.756	3.84
415.199	3.85
415.642	3.87
416.085	3.88
416.527	3.89
416.97	3.91
417.413	3.9
417.856	3.89
418.298	3.88
418.741	3.88
419.184	3.86
419.626	3.85
420.069	3.86
420.511	3.85
420.953	3.85
421.396	3.86
421.838	3.88
422.28	3.91
422.722	3.92
423.164	3.92
423.606	3.93
424.048	3.93
424.49	3.94
424.932	3.91
425.374	3.9
425.816	3.89
426.258	3.88
426.699	3.85
427.141	3.83
427.582	3.83
428.024	3.84
428.465	3.83
428.907	3.84
429.348	3.84
429.789	3.87
430.231	3.9
430.672	3.9
431.113	3.91
431.554	3.93
431.995	3.93
432.436	3.94
432.877	3.94
433.318	3.94
433.759	3.94
434.2	3.95
434.64	3.96
435.081	3.97
435.522	3.98
435.962	4.01
436.403	4.03
436.843	4.05
437.284	4.07
437.724	4.09
438.164	4.09
438.604	4.11
439.045	4.11
439.485	4.12
439.925	4.1
440.365	4.11
440.805	4.09
441.245	4.07
441.685	4.08
442.125	4.08
442.564	4.1
443.004	4.11
443.444	4.13
443.883	4.15
444.323	4.14
444.762	4.18
445.202	4.23
445.641	4.24
446.081	4.28
446.52	4.3
446.959	4.32
447.398	4.34
447.837	4.37
448.276	4.38
448.716	4.4
449.154	4.44
449.593	4.46
450.032	4.44
450.471	4.46
450.91	4.46
451.349	4.48
451.787	4.46
452.226	4.45
452.664	4.43
453.103	4.43
453.541	4.44
453.98	4.42
454.418	4.41
454.856	4.39
455.295	4.39
455.733	4.37
456.171	4.35
456.609	4.37
457.047	4.35
457.485	4.35
457.923	4.34
458.361	4.33
458.798	4.34
459.236	4.33
459.674	4.34
460.111	4.36
460.549	4.35
460.987	4.35
461.424	4.34
461.862	4.35
462.299	4.34
462.736	4.34
463.173	4.34
463.611	4.34
464.048	4.35
464.485	4.36
464.922	4.35
465.359	4.37
465.796	4.37
466.233	4.38
466.67	4.39
467.106	4.41
467.543	4.42
467.98	4.43
468.416	4.45
468.853	4.44
469.29	4.45
469.726	4.45
470.162	4.43
470.599	4.44
471.035	4.45
471.471	4.46
471.907	4.45
472.344	4.46
472.78	4.44
473.216	4.44
473.652	4.43
474.088	4.42
474.523	4.43
474.959	4.43
475.395	4.43
475.831	4.4
476.266	4.4
476.702	4.39
477.138	4.38
477.573	4.37
478.008	4.36
478.444	4.36
478.879	4.36
479.314	4.35
479.75	4.35
480.185	4.34
480.62	4.33
481.055	4.33
481.49	4.32
481.925	4.31
482.36	4.3
482.795	4.3
483.229	4.3
483.664	4.29
484.099	4.29
484.534	4.28
484.968	4.28
485.403	4.29
485.837	4.3
486.271	4.3
486.706	4.31
487.14	4.33
487.574	4.34
488.009	4.36
488.443	4.38
488.877	4.39
489.311	4.42
489.745	4.45
490.179	4.47
490.613	4.5
491.046	4.54
491.48	4.57
491.914	4.6
492.348	4.65
492.781	4.68
493.215	4.72
493.648	4.78
494.082	4.84
494.515	4.89
494.948	4.95
495.382	5
495.815	5.07
496.248	5.14
496.681	5.21
497.114	5.28
497.547	5.38
497.98	5.47
498.413	5.56
498.846	5.64
499.279	5.74
499.711	5.84
500.144	5.95
500.577	6.06
501.009	6.18
501.442	6.32
501.874	6.46
502.306	6.59
502.739	6.72
503.171	6.88
503.603	7.05
504.036	7.23
504.468	7.42
504.9	7.61
505.332	7.81
505.764	8
506.196	8.21
506.627	8.42
507.059	8.65
507.491	8.88
507.923	9.12
508.354	9.35
508.786	9.61
509.217	9.86
509.649	10.12
510.08	10.4
510.512	10.68
510.943	10.97
511.374	11.26
511.805	11.57
512.237	11.88
512.668	12.18
513.099	12.51
513.53	12.82
513.961	13.15
514.391	13.48
514.822	13.81
515.253	14.15
515.684	14.49
516.114	14.83
516.545	15.18
516.975	15.54
517.406	15.9
517.836	16.25
518.267	16.61
518.697	16.97
519.127	17.32
519.558	17.66
519.988	18
520.418	18.32
520.848	18.66
521.278	18.98
521.708	19.14
522.138	19.44
522.567	19.75
522.997	20.05
523.427	20.33
523.857	20.61
524.286	20.88
524.716	21.14
525.145	21.41
525.575	21.66
526.004	21.9
526.433	22.28
526.863	22.53
527.292	22.73
527.721	22.94
528.15	23.14
528.579	23.35
529.008	23.55
529.437	23.74
529.866	23.91
530.295	24.08
530.724	24.25
531.152	24.4
531.581	24.53
532.01	24.67
532.438	24.8
532.867	24.92
533.295	25.01
533.723	25.1
534.152	25.21
534.58	25.29
535.008	25.38
535.436	25.45
535.865	25.52
536.293	25.6
536.721	25.67
537.149	25.73
537.576	25.78
538.004	25.84
538.432	25.89
538.86	25.93
539.287	25.99
539.715	26.05
540.143	26.09
540.57	26.14
540.998	26.18
541.425	26.2
541.852	26.25
542.28	26.27
542.707	26.32
543.134	26.37
543.561	26.38
543.988	26.4
544.415	26.43
544.842	26.46
545.269	26.49
545.696	26.52
546.123	26.54
546.549	26.57
546.976	26.59
547.403	26.61
547.829	26.65
548.256	26.68
548.682	26.69
549.108	26.71
549.535	26.73
549.961	26.75
550.387	26.75
550.813	26.76
551.24	26.77
551.666	26.8
552.092	26.78
552.518	26.76
552.943	26.75
553.369	26.74
553.795	26.7
554.221	26.67
554.646	26.63
555.072	26.59
555.498	26.55
555.923	26.5
556.349	26.41
556.774	26.37
557.199	26.3
557.625	26.21
558.05	26.14
558.475	26.04
558.9	25.95
559.325	25.84
559.75	25.74
560.175	25.63
560.6	25.51
561.025	25.41
561.449	25.29
561.874	25.17
562.299	25.03
562.723	24.9
563.148	24.76
563.572	24.64
563.997	24.5
564.421	24.37
564.846	24.22
565.27	24.07
565.694	23.92
566.118	23.76
566.542	23.61
566.966	23.47
567.39	23.29
567.814	23.14
568.238	22.96
568.662	22.79
569.086	22.62
569.509	22.45
569.933	22.28
570.357	22.1
570.78	21.92
571.204	21.73
571.627	21.55
572.05	21.39
572.474	21.21
572.897	21.06
573.32	20.91
573.743	20.74
574.166	20.59
574.589	20.44
575.012	20.3
575.435	20.16
575.858	20.03
576.281	19.89
576.704	19.78
577.126	19.67
577.549	19.55
577.972	19.43
578.394	19.32
578.817	19.22
579.239	19.12
579.661	19.03
580.084	18.94
580.506	18.84
580.928	18.76
581.35	18.66
581.772	18.57
582.194	18.47
582.616	18.39
583.038	18.32
583.46	18.24
583.882	18.15
584.303	18.05
584.725	17.96
585.147	17.89
585.568	17.8
585.99	17.72
586.411	17.64
586.833	17.58
587.254	17.53
587.675	17.46
588.096	17.38
588.518	17.33
588.939	17.28
589.36	17.23
589.781	17.19
590.202	17.14
590.623	17.07
591.043	17.03
591.464	16.97
591.885	16.91
592.305	16.86
592.726	16.8
593.147	16.76
593.567	16.72
593.987	16.69
594.408	16.65
594.828	16.62
595.248	16.6
595.669	16.58
596.089	16.55
596.509	16.51
596.929	16.47
597.349	16.43
597.769	16.4
598.189	16.36
598.608	16.31
599.028	16.27
599.448	16.23
599.867	16.18
600.287	16.12
600.706	16.08
601.126	16.03
601.545	15.99
601.965	15.94
602.384	15.88
602.803	15.83
603.222	15.77
603.641	15.71
604.061	15.65
604.48	15.6
604.898	15.53
605.317	15.47
605.736	15.39
606.155	15.3
606.574	15.23
606.992	15.15
607.411	15.08
607.829	14.95
608.248	14.85
608.666	14.76
609.085	14.66
609.503	14.57
609.921	14.47
610.339	14.39
610.758	14.3
611.176	14.21
611.594	14.12
612.012	14.02
612.43	13.99
612.847	13.92
613.265	13.84
613.683	13.75
614.101	13.68
614.518	13.6
614.936	13.51
615.353	13.43
615.771	13.34
616.188	13.28
616.606	13.2
617.023	13.13
617.44	13.05
617.857	12.97
618.274	12.92
618.691	12.85
619.108	12.81
619.525	12.76
619.942	12.73
620.359	12.69
620.776	12.66
621.192	12.63
621.609	12.59
622.026	12.58
622.442	12.55
622.859	12.51
623.275	12.5
623.691	12.48
624.108	12.47
624.524	12.44
624.94	12.42
625.356	12.39
625.772	12.38
626.188	12.38
626.604	12.34
627.02	12.34
627.436	12.33
627.852	12.32
628.268	12.3
628.683	12.27
629.099	12.25
629.514	12.22
629.93	12.18
630.345	12.16
630.761	12.11
631.176	12.08
631.591	12.03
632.007	11.98
632.422	11.91
632.837	11.85
633.252	11.79
633.667	11.71
634.082	11.64
634.497	11.54
634.911	11.44
635.326	11.32
635.741	11.2
636.155	11.08
636.57	10.95
636.984	10.82
637.399	10.67
637.813	10.51
638.228	10.36
638.642	10.21
639.056	10.07
639.47	9.91
639.884	9.75
640.298	9.61
640.712	9.45
641.126	9.3
641.54	9.16
641.954	9.01
642.368	8.87
642.781	8.73
643.195	8.59
643.609	8.46
644.022	8.33
644.436	8.21
644.849	8.09
645.262	7.99
645.676	7.88
646.089	7.77
646.502	7.68
646.915	7.59
647.328	7.51
647.741	7.44
648.154	7.37
648.567	7.31
648.98	7.26
649.393	7.22
649.805	7.15
650.218	7.11
650.631	7.08
651.043	7.05
651.456	7.01
651.868	6.98
652.28	6.95
652.693	6.9
653.105	6.85
653.517	6.79
653.929	6.74
654.341	6.71
654.753	6.65
655.165	6.58
655.577	6.5
655.989	6.45
656.401	6.37
656.813	6.29
657.224	6.22
657.636	6.16
658.047	6.1
658.459	6.01
658.87	5.93
659.282	5.85
659.693	5.78
660.104	5.71
660.515	5.63
660.926	5.55
661.338	5.49
661.749	5.41
662.159	5.34
662.57	5.27
662.981	5.21
663.392	5.14
663.803	5.08
664.213	5.01
664.624	4.97
665.035	4.91
665.445	4.88
665.855	4.84
666.266	4.81
666.676	4.78
667.086	4.75
667.497	4.71
667.907	4.69
668.317	4.67
668.727	4.67
669.137	4.66
669.547	4.66
669.956	4.65
670.366	4.65
670.776	4.66
671.186	4.66
671.595	4.68
672.005	4.7
672.414	4.71
672.824	4.74
673.233	4.77
673.642	4.79
674.052	4.81
674.461	4.83
674.87	4.86
675.279	4.89
675.688	4.91
676.097	4.95
676.506	4.98
676.915	5.03
677.323	5.07
677.732	5.11
678.141	5.16
678.549	5.22
678.958	5.28
679.366	5.34
679.775	5.41
680.183	5.51
680.592	5.59
681	5.67
681.408	5.76
681.816	5.85
682.224	5.96
682.632	6.09
683.04	6.23
683.448	6.37
683.856	6.56
684.264	6.75
684.671	6.96
685.079	7.19
685.487	7.48
685.894	7.78
686.302	8.13
686.709	8.48
687.116	8.86
687.524	9.27
687.931	9.71
688.338	10.2
688.745	10.72
689.152	11.28
689.559	11.85
689.966	12.46
690.373	13.11
690.78	13.77
691.187	14.46
691.593	15.17
692	15.92
692.407	16.68
692.813	17.45
693.22	18.23
693.626	19.02
694.032	19.82
694.439	20.61
694.845	21.41
695.251	22.22
695.657	23.02
696.063	23.83
696.469	24.63
696.875	25.4
697.281	26.15
697.687	26.92
698.093	27.68
698.498	28.44
698.904	29.18
699.31	29.9
699.715	30.62
700.12	31.32
700.526	32.01
700.931	32.68
701.337	33.37
701.742	34.03
702.147	34.68
702.552	35.29
702.957	35.91
703.362	36.54
703.767	37.13
704.172	37.69
704.577	38.26
704.981	38.83
705.386	39.37
705.791	39.89
706.195	40.44
706.6	40.94
707.004	41.46
707.408	41.95
707.813	42.43
708.217	42.91
708.621	43.4
709.025	43.85
709.43	44.29
709.834	44.78
710.237	45.27
710.641	45.69
711.045	46.13
711.449	46.54
711.853	46.96
712.256	47.37
712.66	47.78
713.064	48.16
713.467	48.58
713.87	48.95
714.274	49.29
714.677	49.62
715.08	49.96
715.484	50.33
715.887	50.68
716.29	50.99
716.693	51.3
717.096	51.62
717.499	51.94
717.901	52.21
718.304	52.52
718.707	52.81
719.109	53.13
719.512	53.44
719.915	53.71
720.317	54.01
720.719	54.26
721.122	54.51
721.524	54.75
721.926	55
722.328	55.25
722.731	55.5
723.133	55.72
723.535	55.94
723.937	56.15
724.338	56.31
724.74	56.48
725.142	56.63
725.544	56.81
725.945	57.01
726.347	57.16
726.748	57.27
727.15	57.4
727.551	57.57
727.952	57.7
728.354	57.86
728.755	58.01
729.156	58.17
729.557	58.35
729.958	58.49
730.359	58.58
730.76	58.69
731.161	58.84
731.562	58.96
731.962	59.05
732.363	59.13
732.763	59.22
733.164	59.31
733.564	59.37
733.965	59.46
734.365	59.53
734.766	59.59
735.166	59.65
735.566	59.71
735.966	59.75
736.366	59.79
736.766	59.86
737.166	59.9
737.566	59.94
737.966	60.02
738.365	60.08
738.765	60.14
739.165	60.19
739.564	60.26
739.964	60.33
740.363	60.42
740.763	60.47
741.162	60.5
741.561	60.57
741.96	60.65
742.36	60.73
742.759	60.73
743.158	60.73
743.557	60.8
743.955	60.88
744.354	60.9
744.753	60.9
745.152	60.95
745.55	60.99
745.949	61.01
746.348	61.04
746.746	61.04
747.144	61.11
747.543	61.18
747.941	61.26
748.339	61.28
748.737	61.33
749.136	61.39
749.534	61.39
749.932	61.42
750.33	61.44
750.727	61.46
751.125	61.49
751.523	61.47
751.921	61.46
752.318	61.43
752.716	61.42
753.113	61.4
753.511	61.37
753.908	61.37
754.305	61.34
754.703	61.3
755.1	61.26
755.497	61.23
755.894	61.21
756.291	61.15
756.688	61.13
757.085	61.07
757.482	61.07
757.878	61.07
758.275	61.05
758.672	61.08
759.068	61.1
759.465	61.09
759.861	61.08
760.258	61.08
760.654	61.09
761.05	61.08
761.447	61.07
761.843	61.03
762.239	60.98
762.635	60.99
763.031	60.96
763.427	60.94
763.822	60.94
764.218	60.94
764.614	60.94
765.01	60.98
765.405	60.99
765.801	61.03
766.196	61.06
766.592	61.1
766.987	61.12
767.382	61.11
767.778	61.14
768.173	61.13
768.568	61.12
768.963	61.12
769.358	61.09
769.753	61.11
770.148	61.07
770.542	61.03
770.937	61.02
771.332	60.99
771.726	60.96
772.121	60.93
772.515	60.96
772.91	60.96
773.304	60.98
773.699	60.99
774.093	60.98
774.487	61.03
774.881	61.07
775.275	61.07
775.669	61.1
776.063	61.12
776.457	61.16
776.851	61.12
777.245	61.14
777.638	61.09
778.032	61.1
778.425	61.1
778.819	61.07
779.212	61.05
779.606	61.07
779.999	61.04
780.392	61.02
780.786	60.99
781.179	61.03
781.572	61.01
781.965	61.03
782.358	61
782.751	60.98
783.143	60.98
783.536	61.01
783.929	60.97
784.322	60.95
784.714	60.96
785.107	60.98
785.499	60.94
785.891	60.94
786.284	60.91
786.676	60.94
787.068	60.93
787.46	60.92
787.852	60.88
788.245	60.87
788.636	60.91
789.028	60.89
789.42	60.84
789.812	60.85
790.204	60.81
790.595	60.8
790.987	60.8
791.378	60.83
791.77	60.84
792.161	60.87
792.553	60.92
792.944	60.93
793.335	60.97
793.726	61
794.117	60.99
794.508	61.01
794.899	61.03
795.29	61.01
795.681	61.02
796.072	61.02
796.463	61
796.853	60.95
797.244	60.91
797.634	60.88
798.025	60.86
798.415	60.88
798.806	60.89
799.196	60.93
799.586	60.93
799.976	60.9
800.366	60.9
800.756	60.87
801.146	60.9
801.536	60.91
801.926	60.92
802.316	60.92
802.706	60.9
803.095	60.89
803.485	60.9
803.874	60.94
804.264	60.97
804.653	60.96
805.043	60.96
805.432	60.93
805.821	60.94
806.21	60.98
806.599	61.03
806.988	61.04
807.377	61.06
807.766	61.02
808.155	61.05
808.544	61.04
808.933	61.06
809.321	61.12
809.71	61.15
810.098	61.12
810.487	61.1
810.875	61.1
811.264	61.15
811.652	61.16
812.04	61.22
812.428	61.21
812.816	61.22
813.204	61.23
813.592	61.22
813.98	61.22
814.368	61.26
814.756	61.26
815.144	61.25
815.531	61.25
815.919	61.23
816.306	61.18
816.694	61.19
817.081	61.18
817.469	61.18
817.856	61.21
818.243	61.2
818.63	61.22
819.017	61.24
819.404	61.21
819.791	61.21
820.178	61.24
820.565	61.26
820.952	61.27
821.339	61.29
821.725	61.3
822.112	61.28
822.498	61.33
822.885	61.34
823.271	61.32
823.657	61.37
824.044	61.34
824.43	61.34
824.816	61.34
825.202	61.33
825.588	61.33
825.974	61.33
826.36	61.34
826.746	61.35
827.132	61.32
827.517	61.35
827.903	61.31
828.289	61.34
828.674	61.34
829.06	61.36
829.445	61.38
829.83	61.4
830.216	61.42
830.601	61.42
830.986	61.39
831.371	61.42
831.756	61.4
832.141	61.44
832.526	61.43
832.911	61.49
833.295	61.5
833.68	61.51
834.065	61.53
834.449	61.51
834.834	61.49
835.218	61.52
835.603	61.52
835.987	61.54
836.371	61.58
836.755	61.55
837.139	61.5
837.524	61.47
837.908	61.42
838.291	61.36
838.675	61.37
839.059	61.37
839.443	61.36
839.827	61.33
840.21	61.33
840.594	61.32
840.977	61.33
841.361	61.35
841.744	61.39
842.127	61.38
842.511	61.4
842.894	61.38
843.277	61.38
843.66	61.41
844.043	61.4
844.426	61.37
844.809	61.37
845.191	61.34
845.574	61.3
845.957	61.25
846.339	61.26
846.722	61.27
847.104	61.28
847.487	61.31
847.869	61.25
848.252	61.23
848.634	61.25
849.016	61.23
849.398	61.27
849.78	61.28
850.162	61.27
850.544	61.28
850.926	61.25
851.307	61.24
851.689	61.19
852.071	61.21
852.452	61.22
852.834	61.19
853.215	61.19
853.597	61.18
853.978	61.12
854.359	61.13
854.741	61.14
855.122	61.13
855.503	61.13
855.884	61.14
856.265	61.12
856.646	61.06
857.026	61.1
857.407	61.04
857.788	61.03
858.169	61.07
858.549	61.09
858.93	61.09
859.31	61.08
859.69	61.08
860.071	61.08
860.451	61.1
860.831	61.14
861.211	61.11
861.591	61.14
861.971	61.13
862.351	61.15
862.731	61.15
863.111	61.14
863.491	61.19
863.87	61.18
864.25	61.2
864.629	61.16
865.009	61.17
865.388	61.2
865.768	61.19
866.147	61.21
866.526	61.17
866.905	61.16
867.284	61.15
867.663	61.11
868.042	61.08
868.421	61.02
868.8	61.06
869.179	61.06
869.558	61.07
869.936	61.06
870.315	61.02
870.693	61.04
871.072	61
871.45	60.99
871.828	61.01
872.207	61.06
872.585	61.09
872.963	61.05
873.341	61.02
873.719	60.96
874.097	60.97
874.475	61
874.853	60.98
875.23	61.01
875.608	61.02
875.986	60.99
876.363	60.96
876.741	60.95
877.118	60.98
877.495	60.99
877.873	61
878.25	60.99
878.627	61.01
879.004	61.04
879.381	61.03
879.758	61
880.135	61.02
880.512	61.05
880.889	61.07
881.265	61.07
881.642	61.09
882.019	61.13
882.395	61.16
882.772	61.14
883.148	61.14
883.524	61.15
883.901	61.15
884.277	61.15
884.653	61.14
885.029	61.11
885.405	61.1
885.781	61.04
886.157	61.02
886.532	61
886.908	61.03
887.284	61
887.659	61.01
888.035	61.01
888.411	60.96
888.786	60.94
889.161	60.94
889.537	60.94
889.912	60.93
890.287	60.92
890.662	60.91
891.037	60.85
891.412	60.84
891.787	60.83
892.162	60.82
892.536	60.86
892.911	60.84
893.286	60.81
893.66	60.79
894.035	60.79
894.409	60.77
894.784	60.76
895.158	60.78
895.532	60.74
895.906	60.72
896.281	60.69
896.655	60.66
897.029	60.64
897.402	60.66
897.776	60.63
898.15	60.62
898.524	60.64
898.898	60.61
899.271	60.61
899.645	60.63
900.018	60.62
900.392	60.62
900.765	60.62
901.138	60.64
901.511	60.64
901.884	60.64
902.258	60.65
902.631	60.64
903.003	60.65
903.376	60.63
903.749	60.64
904.122	60.65
904.495	60.68
904.867	60.64
905.24	60.61
905.612	60.54
905.985	60.51
906.357	60.49
906.729	60.46
907.102	60.44
907.474	60.41
907.846	60.38
908.218	60.35
908.59	60.31
908.962	60.31
909.334	60.3
909.705	60.34
910.077	60.29
910.449	60.27
910.82	60.28
911.192	60.27
911.563	60.25
911.935	60.18
912.306	60.17
912.677	60.18
913.048	60.14
913.419	60.15
913.79	60.14
914.161	60.16
914.532	60.15
914.903	60.09
915.274	60.1
915.645	60.12
916.015	60.16
916.386	60.14
916.756	60.08
917.127	60.09
917.497	60.07
917.868	60.06
918.238	60.08
918.608	60.08
918.978	60.08
919.348	59.99
919.718	59.99
920.088	60
920.458	60.04
920.828	60.07
921.198	60.07
921.567	60.02
921.937	60.03
922.306	60.01
922.676	59.99
923.045	59.93
923.415	59.96
923.784	59.95
924.153	59.93
924.522	59.89
924.891	59.86
925.26	59.82
925.629	59.84
925.998	59.82
926.367	59.8
926.736	59.75
927.104	59.82
927.473	59.84
927.842	59.76
928.21	59.74
928.578	59.68
928.947	59.66
929.315	59.67
929.683	59.66
930.051	59.62
930.42	59.59
930.788	59.63
931.156	59.56
931.523	59.49
931.891	59.42
932.259	59.33
932.627	59.29
932.994	59.28
933.362	59.17
933.729	59.02
934.097	58.98
934.464	58.9
934.831	58.79
935.199	58.77
935.566	58.72
935.933	58.77
936.3	58.68
936.667	58.62
937.034	58.47
937.401	58.43
937.767	58.43
938.134	58.37
938.501	58.29
938.867	58.28
939.234	58.25
939.6	58.25
939.967	58.17
940.333	58.29
940.699	58.36
941.065	58.52
941.431	58.6
941.798	58.67
942.163	58.78
942.529	58.86
942.895	58.93
943.261	58.89
943.627	58.99
943.992	59.06
944.358	59.05
944.723	59.05
945.089	59.09
945.454	59.22
945.82	59.26
946.185	59.25
946.55	59.36
946.915	59.33
947.28	59.4
947.645	59.38
948.01	59.32
948.375	59.37
948.74	59.33
949.104	59.3
949.469	59.16
949.834	59.09
950.198	59
950.562	58.9
950.927	58.83
951.291	58.73
951.655	58.64
952.02	58.67
952.384	58.66
952.748	58.63
953.112	58.57
953.476	58.52
953.839	58.54
954.203	58.55
954.567	58.47
954.931	58.51
955.294	58.53
955.658	58.46
956.021	58.43
956.385	58.4
956.748	58.37
957.111	58.33
957.474	58.38
957.837	58.36
958.2	58.28
958.563	58.23
958.926	58.13
959.289	58.07
959.652	58.11
960.015	58
960.377	57.95
960.74	57.89
961.102	57.88
961.465	57.85
961.827	57.73
962.189	57.78
962.552	57.76
962.914	57.76
963.276	57.73
963.638	57.67
964	57.75
964.362	57.73
964.724	57.73
965.085	57.69
965.447	57.58
965.809	57.55
966.17	57.53
966.532	57.59
966.893	57.6
967.255	57.62
967.616	57.67
967.977	57.6
968.338	57.61
968.699	57.58
969.061	57.58
969.421	57.58
969.782	57.63
970.143	57.59
970.504	57.59
970.865	57.55
971.225	57.52
971.586	57.5
971.946	57.47
972.307	57.49
972.667	57.54
973.027	57.58
973.388	57.6
973.748	57.56
974.108	57.54
974.468	57.5
974.828	57.5
975.188	57.48
975.548	57.5
975.907	57.56
976.267	57.49
976.627	57.38
976.986	57.33
977.346	57.35
977.705	57.38
978.064	57.43
978.424	57.46
978.783	57.45
979.142	57.44
979.501	57.4
979.86	57.3
980.219	57.27
980.578	57.3
980.937	57.37
981.296	57.33
981.654	57.35
982.013	57.32
982.371	57.16
982.73	57.15
983.088	57.04
983.447	57.1
983.805	57.18
984.163	57.11
984.521	57.11
984.879	57.03
985.237	57.1
985.595	57.06
985.953	57.02
986.311	57.18
986.669	57.19
987.026	57.29
987.384	57.18
987.741	57.14
988.099	57.16
988.456	57.08
988.814	57.05
989.171	56.91
989.528	56.83
989.885	56.88
990.242	56.81
990.599	56.78
990.956	56.73
991.313	56.78
991.67	56.74
992.027	56.8
992.383	56.9
992.74	56.84
993.096	56.79
993.453	56.78
993.809	56.76
994.165	56.76
994.522	56.68
994.878	56.65
995.234	56.49
995.59	56.48
995.946	56.52
996.302	56.39
996.658	56.44
997.013	56.59
997.369	56.66
997.725	56.6
998.08	56.6
998.436	56.71
998.791	56.71
999.147	56.86
999.502	56.8
999.857	56.76
1000.212	56.77
1000.567	56.79
1000.922	56.78
1001.277	56.74
1001.632	56.83
1001.987	56.75
1002.342	56.84
1002.696	56.97
1003.051	56.77
1003.406	56.68
1003.76	56.61
1004.114	56.64
1004.469	56.56
1004.823	56.52
1005.177	56.59
1005.531	56.4
1005.885	56.43
1006.239	56.27
1006.593	56.04
1006.947	56.08
1007.301	56.3
1007.655	56.26
1008.008	56.26
1008.362	56.21
1008.715	56.2
1009.069	55.95
1009.422	55.9
1009.776	55.92
1010.129	55.81
1010.482	55.98
1010.835	56.08
1011.188	55.95
1011.541	55.76
1011.894	55.91
1012.247	55.69
1012.6	55.7
1012.952	55.88
1013.305	56.01
1013.657	55.89
1014.01	55.92
1014.362	55.88
1014.715	55.81
1015.067	55.9
1015.419	56.18
1015.771	56.01
1016.123	56.09
1016.475	56.11
1016.827	56.05
1017.179	55.92
1017.531	56.07
1017.883	56.22
1018.234	56.07
1018.586	56.05
1018.938	55.89
1019.289	55.55
1019.64	55.65
1019.992	55.87
1020.343	55.55
1020.694	55.52
1021.045	55.67
1021.396	55.39
1021.747	55.25
1022.098	55.54
1022.449	55.4
1022.8	55.4
1023.151	55.4
1023.501	55.18
1023.852	55.38
1024.202	55.73
1024.553	55.59
1024.903	55.55
1025.253	55.91
1025.604	55.92
1025.954	55.55
1026.304	56.33
1026.654	56.41
1027.004	56.65
1027.354	56.57
1027.703	56
1028.053	55.82
1028.403	55.89
1028.753	56.14
1029.102	56.08
1029.452	56.28
1029.801	56.68
1030.15	56.11
1030.499	56.17
897.758	498.08
901.051	494.9
904.343	512.46
907.636	507.72
910.928	496.79
914.22	503.81
917.511	491.42
920.803	472.85
924.094	455.36
927.384	458.89
930.675	448.84
933.965	441.89
937.255	448.27
940.544	422.06
943.834	401.74
947.123	397.31
950.411	377.56
953.7	372.31
956.988	359.75
960.276	343.74
963.563	339.33
966.851	319.12
970.138	315.04
973.424	293.35
976.711	291.46
979.997	280.78
983.283	275.86
986.568	267.46
989.853	260.39
993.138	252.5
996.423	248.35
999.708	240.35
1002.992	243.23
1006.275	236.31
1009.559	233.86
1012.842	227.79
1016.125	222.2
1019.408	217.31
1022.69	215.87
1025.972	214.4
1029.254	208.66
1032.536	206.02
1035.817	199.88
1039.098	198.01
1042.379	193.98
1045.659	192.62
1048.939	190.34
1052.219	188.1
1055.498	184.62
1058.778	182.31
1062.057	178.41
1065.335	178.08
1068.614	174.39
1071.892	172.88
1075.17	168.82
1078.447	167.13
1081.724	165.5
1085.001	162.35
1088.278	161.72
1091.554	161.88
1094.83	160.08
1098.106	157.56
1101.382	156.54
1104.657	157.03
1107.932	156.48
1111.206	155.41
1114.481	153.8
1117.755	152.11
1121.029	152
1124.302	150.16
1127.575	148.07
1130.848	148.2
1134.121	146.6
1137.393	146.27
1140.665	145.46
1143.937	143.58
1147.208	142.89
1150.48	141.55
1153.75	141.57
1157.021	139.2
1160.291	138.74
1163.561	138.1
1166.831	136.51
1170.101	137.49
1173.37	136.8
1176.639	134.41
1179.907	135.1
1183.176	134.4
1186.444	134.59
1189.711	133.44
1192.979	135.67
1196.246	134.98
1199.513	134.8
1202.78	135.58
1206.046	134.73
1209.312	134.93
1212.578	136.22
1215.843	136.86
1219.108	137.66
1222.373	140.16
1225.638	142.53
1228.902	144.14
1232.166	148.39
1235.43	149.26
1238.693	152.34
1241.956	155.82
1245.219	159.24
1248.482	160.85
1251.744	161.39
1255.006	161.72
1258.268	157.59
1261.529	156.83
1264.79	152.38
1268.051	149.8
1271.312	149.36
1274.572	146.67
1277.832	143.11
1281.092	141.63
1284.351	139.29
1287.61	139.5
1290.869	138.17
1294.128	137.88
1297.386	136.88
1300.644	137.48
1303.902	136.47
1307.159	135.74
1310.416	136.41
1313.673	138.67
1316.93	139.06
1320.186	140.74
1323.442	141.41
1326.697	144.67
1329.953	145.05
1333.208	148.66
1336.463	154
1339.717	156.89
1342.972	162.77
1346.226	168.03
1349.479	169.14
1352.733	176.18
1355.986	179.15
1359.238	182.99
1362.491	183.63
1365.743	190.53
1368.995	192.64
1372.247	190.22
1375.498	189.72
1378.749	196.01
1382	192.15
1385.251	191.49
1388.501	190.57
1391.751	192.35
1395	190.71
1398.25	191.63
1401.499	191.08
1404.748	189.98
1407.996	186.25
1411.244	185.94
1414.492	183.28
1417.74	177.59
1420.987	174.32
1424.234	170.87
1427.481	163.79
1430.728	159.56
1433.974	153.98
1437.22	148.46
1440.465	143.21
1443.711	139.84
1446.956	134.66
1450.201	129.31
1453.445	124.15
1456.689	120.27
1459.933	116.62
1463.177	112.05
1466.42	109.4
1469.663	107.16
1472.906	103.63
1476.148	101.25
1479.391	99.72
1482.633	98.9
1485.874	97.28
1489.115	97.26
1492.356	94.97
1495.597	93.58
1498.838	93.66
1502.078	93.18
1505.318	92.77
1508.557	92.62
1511.797	92.01
1515.036	91.58
1518.274	91
1521.513	90.39
1524.751	89.72
1527.989	90.68
1531.227	90.86
1534.464	90.79
1537.701	90.1
1540.938	89.62
1544.174	89.6
1547.41	90.13
1550.646	89.56
1553.882	89.85
1557.117	90.05
1560.352	90.41
1563.587	89.77
1566.821	89.43
1570.055	88.83
1573.289	89.15
1576.523	89.58
1579.756	89.07
1582.989	89.1
1586.222	89.63
1589.454	89.07
1592.686	88.54
1595.918	88.44
1599.15	88.38
1602.381	88.82
1605.612	89.52
1608.843	89.07
1612.073	89.41
1615.303	90.13
1618.533	89.55
1621.762	90.05
1624.992	90.49
1628.221	90.57
1631.449	90.93
1634.678	90.24
1637.906	90.53
1641.134	90.23
1644.361	90.72
1647.588	90.32
1650.815	90.22
1654.042	90.2
1657.269	89.71
1660.495	90.22
1663.72	90.71
1666.946	90.09
1670.171	91.29
1673.396	91.6
1676.621	92.01
1679.845	92.12
1683.069	92
1686.293	91.98
1689.517	92.44
1692.74	92.27
1695.963	92.4
1699.185	92.59
1702.408	93.12
1705.63	93.01
1708.852	93.19
1712.073	92.59
1715.294	92.6
1718.515	92.86
1721.736	93.26
1724.956	93.06
1728.176	93.23
1731.396	93.2
1734.616	93.04
1737.835	93.04
1741.054	93.22
1744.272	92.39
1747.491	92.88
1750.709	93.17
1753.927	93.41
1757.144	93.24
1760.361	93.71
1763.578	93.74
1766.795	94.67
1770.011	94.58
1773.227	95.08
1776.443	95.8
1779.658	96.19
1782.874	96.68
1786.089	96.74
1789.303	96.85
1792.518	97.73
1795.732	98.03
1798.945	99.5
1802.159	99.13
1805.372	100.54
1808.585	100.73
1811.797	101.04
1815.01	102.03
1818.222	102.57
1821.434	103.96
1824.645	104.23
1827.856	105.47
1831.067	105.81
1834.278	106.32
1837.488	106.78
1840.698	107.35
1843.908	107.83
1847.117	108.81
1850.326	108.83
1853.535	109.5
1856.744	110.1
1859.952	111.35
1863.16	110.77
1866.368	110.21
1869.575	110.56
1872.782	109.67
1875.989	108.21
1879.196	107.33
1882.402	105.8
1885.608	106.75
1888.814	105.73
1892.019	105.17
1895.224	103.39
1898.429	103.81
1901.634	104.45
1904.838	103.89
1908.042	104.39
1911.246	104.59
1914.449	105.29
1917.652	105.4
1920.855	105.25
1924.058	103.89
1927.26	103.65
1930.462	104.35
1933.664	104.12
1936.865	104.09
1940.066	102.75
1943.267	102.25
1946.467	103.63
1949.668	103.11
1952.868	103.4
1956.067	103.16
1959.267	104.06
1962.466	104.45
1965.665	105.43
1968.863	106.21
1972.061	106.58
1975.259	109.98
1978.457	110.45
1981.654	110.74
1984.852	112.07
1988.048	113.33
1991.245	115.57
1994.441	118.48
1997.637	120.7
2000.833	122.87
2004.028	123.38
2007.223	128.34
2010.418	129.84
2013.613	136.1
2016.807	140.12
2020.001	143.12
2023.194	147.36
2026.388	150.85
2029.581	156.76
2032.774	161.64
2035.966	166.55
2039.158	171.87
2042.35	172.8
2045.542	176.65
2048.733	183.33
2051.924	186.28
2055.115	187.54
2058.306	189.24
2061.496	194.25
2064.686	195.67
2067.875	193.09
2071.065	195.86
2074.254	196.53
2077.442	204.16
2080.631	204.36
2083.819	204.5
2087.007	207.85
2090.195	213.87
2093.382	212.21
2096.569	212.01
2099.756	218.3
2102.942	224.75
2106.128	228.21
2109.314	229.07
2112.5	227.19
2115.685	226.26
2118.87	227.7
2122.055	227.68
2125.239	231.54
2128.424	238.62
2131.608	236.81
2134.791	231.27
2137.974	233.48
2141.157	234.09
2144.34	236.77
2147.523	241.68
2150.705	248.92
2153.887	246.1
2157.068	250.35
2160.25	251.2
2163.431	250.5
2166.611	256.99
2169.792	263.35
2172.972	267.67
2176.152	268.84
2179.331	275.07
2182.511	274.15
2185.69	278.55
2188.868	289.46
2192.047	292.61
2195.225	298.57
2198.403	300.67
2201.58	294.84
2204.758	305.47
2207.935	306.12
2211.111	311.45
2214.288	311.94
2217.464	316.42
2220.64	317.62
2223.815	318.06
2226.991	315.5
2230.166	318.3
2233.34	330.65
2236.515	340.15
2239.689	337.12
2242.863	341.58
2246.036	340.43
2249.209	347.9
2252.382	350.08
2255.555	359.24
2258.727	361.56
2261.9	374.85
2265.071	378.46
2268.243	374.62
2271.414	384.9
2274.585	390.28
2277.756	393.32
2280.926	403.11
2284.096	404.29
2287.266	403.35
2290.436	397.91
2293.605	407.05
2296.774	419.11
2299.942	420.05
2303.111	433.27
2306.279	438.84
2309.447	443.06
2312.614	441.44
2315.781	453.19
2318.948	461.26
2322.115	468.46
2325.281	493.41
2328.447	488.81
2331.613	489.89
2334.779	498.23
2337.944	503.42
2341.109	515.95
2344.274	519.24
2347.438	538.64
2350.602	548.27
2353.766	577.29
2356.929	581.42
2360.092	585.99
2363.255	592.78
2366.418	601.25
2369.58	613.61
2372.742	608.92
2375.904	605.14
2379.066	622.54
2382.227	659.61
2385.388	662.13
2388.548	634.83
2391.709	624.81
2394.869	646.39
2398.029	645.43
2401.188	646.92
2404.347	662.25
2407.506	687.43
2410.665	661.98
2413.823	664.96
2416.981	659.61
2420.139	626.73
2423.296	668.42
2426.453	716.91
2429.61	687.95
2432.767	731.11
2435.923	756.66
2439.079	731.23
2442.235	753.12
2445.391	774.56
2448.546	770.38
2451.701	811.34
2454.855	863.81
2458.009	770.43
2461.163	779.2
2464.317	786.56
2467.471	772.5
2470.624	793.27
2473.777	778.94
2476.929	749.92
2480.082	792.06
2483.234	827.46
2486.385	838.49
2489.537	862
2492.688	947.1
2495.839	942.5
2498.989	966.77
2502.14	969.75
2505.29	928.31
2508.439	1046.33
2511.589	1079.07
2514.738	1051.42
2517.887	1042.68
2521.035	977.91
2524.183	961.81
2527.331	951.94
2530.479	922.61
2533.627	942.34
