Data from N_1_hir_il_4n_021_Splice17_05.txt Node
Date: Sat Feb 29 13:41:52 EST 2020
User: sa697716
Spectrometer: FLMS03696
Trigger mode: 0
Integration Time (sec): 3.180400E-1
Scans to average: 20
Electric dark correction enabled: true
Nonlinearity correction enabled: true
Boxcar width: 5
XAxis mode: Wavelengths
Number of Pixels in Spectrum: 2048
>>>>>Begin Spectral Data<<<<<
187.83	62.7
188.298	56.08
188.766	56.19
189.233	61.79
189.701	65.78
190.169	67.67
190.636	79.91
191.104	65.45
191.571	163.87
192.039	172.97
192.506	67.08
192.974	7090.35
193.441	-410.58
193.908	65.54
194.375	88.66
194.842	212.4
195.31	130.56
195.777	182.83
196.244	33.75
196.711	20.37
197.177	14.22
197.644	15.06
198.111	14.06
198.578	14.57
199.045	15.15
199.511	15.8
199.978	15.42
200.445	15.17
200.911	15.01
201.378	15.54
201.844	15.77
202.31	16.64
202.777	16.53
203.243	16.94
203.709	17.28
204.176	16.88
204.642	16.79
205.108	17.14
205.574	17.87
206.04	17.88
206.506	17.76
206.972	17.55
207.438	17.47
207.903	17.4
208.369	17.37
208.835	17.07
209.301	17.25
209.766	17.35
210.232	17.61
210.697	17.18
211.163	17.14
211.628	17.34
212.094	17.48
212.559	17.24
213.024	17.19
213.49	16.91
213.955	16.79
214.42	16.72
214.885	16.41
215.35	16.07
215.815	16.09
216.28	16.07
216.745	15.87
217.21	15.62
217.675	15.52
218.14	15.25
218.604	15.03
219.069	14.96
219.534	14.72
219.998	14.48
220.463	14.35
220.927	14.18
221.392	14
221.856	13.81
222.32	13.67
222.785	13.5
223.249	13.41
223.713	13.37
224.177	13.23
224.642	13.15
225.106	13.05
225.57	12.89
226.034	12.78
226.497	12.63
226.961	12.48
227.425	12.33
227.889	12.22
228.353	12.1
228.816	11.96
229.28	11.81
229.744	11.7
230.207	11.63
230.671	11.52
231.134	11.41
231.597	11.29
232.061	11.19
232.524	11.11
232.987	11.01
233.45	10.91
233.914	10.8
234.377	10.7
234.84	10.59
235.303	10.46
235.766	10.37
236.229	10.26
236.691	10.19
237.154	10.11
237.617	10.01
238.08	9.94
238.542	9.85
239.005	9.76
239.468	9.68
239.93	9.62
240.393	9.56
240.855	9.46
241.317	9.4
241.78	9.34
242.242	9.27
242.704	9.2
243.166	9.13
243.629	9.07
244.091	9.01
244.553	8.95
245.015	8.87
245.477	8.81
245.939	8.76
246.4	8.7
246.862	8.62
247.324	8.6
247.786	8.55
248.247	8.51
248.709	8.46
249.17	8.43
249.632	8.4
250.093	8.35
250.555	8.32
251.016	8.3
251.477	8.26
251.939	8.24
252.4	8.2
252.861	8.17
253.322	8.14
253.783	8.12
254.244	8.09
254.705	8.05
255.166	8.04
255.627	8
256.088	7.96
256.549	7.93
257.009	7.88
257.47	7.86
257.931	7.82
258.391	7.78
258.852	7.74
259.312	7.73
259.773	7.7
260.233	7.67
260.694	7.65
261.154	7.63
261.614	7.59
262.074	7.58
262.534	7.54
262.994	7.52
263.455	7.5
263.915	7.48
264.374	7.45
264.834	7.44
265.294	7.41
265.754	7.39
266.214	7.38
266.673	7.37
267.133	7.35
267.593	7.34
268.052	7.32
268.512	7.31
268.971	7.29
269.431	7.27
269.89	7.25
270.349	7.24
270.809	7.23
271.268	7.21
271.727	7.19
272.186	7.17
272.645	7.16
273.104	7.14
273.563	7.12
274.022	7.11
274.481	7.08
274.94	7.06
275.399	7.04
275.857	7.02
276.316	7
276.775	6.97
277.233	6.95
277.692	6.94
278.15	6.91
278.609	6.88
279.067	6.85
279.525	6.83
279.984	6.8
280.442	6.78
280.9	6.76
281.358	6.73
281.816	6.72
282.274	6.69
282.732	6.67
283.19	6.64
283.648	6.63
284.106	6.61
284.564	6.59
285.021	6.58
285.479	6.56
285.937	6.54
286.394	6.52
286.852	6.5
287.309	6.49
287.767	6.48
288.224	6.47
288.682	6.46
289.139	6.45
289.596	6.43
290.053	6.41
290.511	6.39
290.968	6.38
291.425	6.36
291.882	6.34
292.339	6.32
292.796	6.29
293.252	6.27
293.709	6.25
294.166	6.24
294.623	6.22
295.079	6.2
295.536	6.19
295.992	6.18
296.449	6.16
296.905	6.15
297.362	6.14
297.818	6.12
298.274	6.11
298.731	6.09
299.187	6.08
299.643	6.06
300.099	6.05
300.555	6.03
301.011	6.01
301.467	6
301.923	5.99
302.379	5.98
302.835	5.97
303.291	5.96
303.746	5.95
304.202	5.94
304.658	5.93
305.113	5.91
305.569	5.91
306.024	5.9
306.479	5.88
306.935	5.87
307.39	5.85
307.845	5.84
308.301	5.83
308.756	5.82
309.211	5.81
309.666	5.8
310.121	5.8
310.576	5.79
311.031	5.78
311.486	5.78
311.94	5.77
312.395	5.77
312.85	5.76
313.305	5.75
313.759	5.74
314.214	5.73
314.668	5.73
315.123	5.72
315.577	5.71
316.032	5.7
316.486	5.69
316.94	5.68
317.394	5.67
317.849	5.66
318.303	5.66
318.757	5.65
319.211	5.65
319.665	5.64
320.119	5.62
320.572	5.62
321.026	5.62
321.48	5.6
321.934	5.6
322.387	5.6
322.841	5.59
323.295	5.58
323.748	5.58
324.202	5.57
324.655	5.55
325.108	5.55
325.562	5.53
326.015	5.51
326.468	5.49
326.921	5.47
327.374	5.45
327.827	5.45
328.28	5.43
328.733	5.41
329.186	5.41
329.639	5.4
330.092	5.38
330.545	5.37
330.997	5.36
331.45	5.36
331.903	5.37
332.355	5.37
332.808	5.35
333.26	5.35
333.713	5.34
334.165	5.33
334.617	5.33
335.069	5.32
335.522	5.32
335.974	5.32
336.426	5.3
336.878	5.29
337.33	5.28
337.782	5.29
338.234	5.29
338.686	5.29
339.137	5.29
339.589	5.29
340.041	5.29
340.493	5.28
340.944	5.27
341.396	5.27
341.847	5.26
342.299	5.25
342.75	5.23
343.201	5.23
343.653	5.21
344.104	5.2
344.555	5.17
345.006	5.16
345.457	5.15
345.908	5.15
346.359	5.14
346.81	5.14
347.261	5.12
347.712	5.12
348.163	5.11
348.613	5.09
349.064	5.08
349.515	5.07
349.965	5.07
350.416	5.05
350.866	5.04
351.317	5.03
351.767	5.02
352.217	5
352.668	5
353.118	5
353.568	5
354.018	5.01
354.468	5
354.918	5
355.368	5
355.818	5
356.268	5
356.718	5.01
357.168	5.01
357.617	5
358.067	4.99
358.517	4.98
358.966	4.98
359.416	5
359.865	4.98
360.315	4.98
360.764	4.97
361.213	4.96
361.663	4.95
362.112	4.95
362.561	4.97
363.01	4.97
363.459	4.97
363.908	4.96
364.357	4.95
364.806	4.95
365.255	4.95
365.703	4.95
366.152	4.96
366.601	4.95
367.05	4.96
367.498	4.95
367.947	4.95
368.395	4.97
368.844	4.98
369.292	4.97
369.74	4.98
370.189	4.98
370.637	4.98
371.085	4.98
371.533	4.99
371.981	4.99
372.429	4.98
372.877	4.99
373.325	4.98
373.773	4.98
374.221	5
374.669	5
375.116	5.01
375.564	5.01
376.012	5.02
376.459	5.03
376.907	5.05
377.354	5.07
377.801	5.09
378.249	5.1
378.696	5.12
379.143	5.13
379.591	5.15
380.038	5.17
380.485	5.2
380.932	5.22
381.379	5.21
381.826	5.22
382.273	5.23
382.72	5.23
383.166	5.25
383.613	5.25
384.06	5.27
384.506	5.27
384.953	5.27
385.4	5.27
385.846	5.27
386.292	5.3
386.739	5.32
387.185	5.34
387.631	5.36
388.078	5.38
388.524	5.38
388.97	5.39
389.416	5.4
389.862	5.42
390.308	5.43
390.754	5.46
391.2	5.48
391.645	5.48
392.091	5.49
392.537	5.5
392.983	5.51
393.428	5.54
393.874	5.56
394.319	5.57
394.765	5.59
395.21	5.59
395.655	5.6
396.101	5.6
396.546	5.62
396.991	5.61
397.436	5.6
397.881	5.62
398.326	5.63
398.771	5.65
399.216	5.66
399.661	5.68
400.106	5.7
400.551	5.71
400.995	5.71
401.44	5.71
401.885	5.72
402.329	5.74
402.774	5.73
403.218	5.73
403.663	5.71
404.107	5.72
404.551	5.72
404.995	5.71
405.44	5.71
405.884	5.71
406.328	5.72
406.772	5.71
407.216	5.72
407.66	5.73
408.104	5.72
408.547	5.73
408.991	5.72
409.435	5.71
409.879	5.69
410.322	5.7
410.766	5.69
411.209	5.69
411.653	5.69
412.096	5.68
412.54	5.67
412.983	5.67
413.426	5.68
413.869	5.69
414.312	5.7
414.756	5.72
415.199	5.72
415.642	5.73
416.085	5.74
416.527	5.76
416.97	5.76
417.413	5.77
417.856	5.77
418.298	5.75
418.741	5.76
419.184	5.76
419.626	5.75
420.069	5.75
420.511	5.75
420.953	5.71
421.396	5.71
421.838	5.71
422.28	5.73
422.722	5.72
423.164	5.72
423.606	5.72
424.048	5.69
424.49	5.7
424.932	5.67
425.374	5.67
425.816	5.67
426.258	5.65
426.699	5.63
427.141	5.6
427.582	5.6
428.024	5.58
428.465	5.57
428.907	5.58
429.348	5.57
429.789	5.58
430.231	5.56
430.672	5.55
431.113	5.55
431.554	5.56
431.995	5.55
432.436	5.53
432.877	5.5
433.318	5.49
433.759	5.48
434.2	5.48
434.64	5.47
435.081	5.48
435.522	5.48
435.962	5.48
436.403	5.48
436.843	5.5
437.284	5.51
437.724	5.53
438.164	5.54
438.604	5.55
439.045	5.55
439.485	5.55
439.925	5.54
440.365	5.52
440.805	5.52
441.245	5.51
441.685	5.51
442.125	5.5
442.564	5.48
443.004	5.48
443.444	5.46
443.883	5.47
444.323	5.45
444.762	5.46
445.202	5.5
445.641	5.5
446.081	5.51
446.52	5.52
446.959	5.53
447.398	5.56
447.837	5.58
448.276	5.58
448.716	5.57
449.154	5.61
449.593	5.63
450.032	5.61
450.471	5.61
450.91	5.6
451.349	5.59
451.787	5.59
452.226	5.57
452.664	5.55
453.103	5.56
453.541	5.57
453.98	5.54
454.418	5.52
454.856	5.51
455.295	5.48
455.733	5.48
456.171	5.48
456.609	5.48
457.047	5.47
457.485	5.48
457.923	5.47
458.361	5.44
458.798	5.46
459.236	5.45
459.674	5.45
460.111	5.47
460.549	5.46
460.987	5.46
461.424	5.46
461.862	5.45
462.299	5.44
462.736	5.45
463.173	5.46
463.611	5.43
464.048	5.44
464.485	5.43
464.922	5.42
465.359	5.42
465.796	5.41
466.233	5.4
466.67	5.4
467.106	5.4
467.543	5.39
467.98	5.4
468.416	5.41
468.853	5.42
469.29	5.43
469.726	5.43
470.162	5.42
470.599	5.42
471.035	5.41
471.471	5.41
471.907	5.4
472.344	5.39
472.78	5.39
473.216	5.37
473.652	5.36
474.088	5.36
474.523	5.35
474.959	5.36
475.395	5.35
475.831	5.36
476.266	5.38
476.702	5.38
477.138	5.36
477.573	5.35
478.008	5.36
478.444	5.35
478.879	5.34
479.314	5.33
479.75	5.34
480.185	5.34
480.62	5.34
481.055	5.32
481.49	5.3
481.925	5.31
482.36	5.3
482.795	5.3
483.229	5.28
483.664	5.28
484.099	5.27
484.534	5.26
484.968	5.25
485.403	5.24
485.837	5.24
486.271	5.24
486.706	5.23
487.14	5.24
487.574	5.24
488.009	5.25
488.443	5.26
488.877	5.27
489.311	5.28
489.745	5.28
490.179	5.3
490.613	5.31
491.046	5.32
491.48	5.33
491.914	5.34
492.348	5.35
492.781	5.36
493.215	5.36
493.648	5.37
494.082	5.4
494.515	5.42
494.948	5.43
495.382	5.45
495.815	5.47
496.248	5.49
496.681	5.51
497.114	5.53
497.547	5.55
497.98	5.59
498.413	5.62
498.846	5.64
499.279	5.67
499.711	5.7
500.144	5.73
500.577	5.76
501.009	5.79
501.442	5.84
501.874	5.87
502.306	5.92
502.739	5.95
503.171	6.01
503.603	6.07
504.036	6.12
504.468	6.18
504.9	6.23
505.332	6.3
505.764	6.37
506.196	6.44
506.627	6.51
507.059	6.58
507.491	6.66
507.923	6.72
508.354	6.8
508.786	6.87
509.217	6.95
509.649	7.05
510.08	7.15
510.512	7.24
510.943	7.35
511.374	7.46
511.805	7.56
512.237	7.68
512.668	7.79
513.099	7.91
513.53	8.04
513.961	8.17
514.391	8.29
514.822	8.41
515.253	8.55
515.684	8.67
516.114	8.81
516.545	8.95
516.975	9.1
517.406	9.24
517.836	9.38
518.267	9.53
518.697	9.67
519.127	9.82
519.558	9.97
519.988	10.11
520.418	10.27
520.848	10.41
521.278	10.57
521.708	10.58
522.138	10.71
522.567	10.85
522.997	10.98
523.427	11.13
523.857	11.25
524.286	11.37
524.716	11.5
525.145	11.64
525.575	11.76
526.004	11.87
526.433	12.12
526.863	12.24
527.292	12.35
527.721	12.46
528.15	12.54
528.579	12.65
529.008	12.76
529.437	12.86
529.866	12.94
530.295	13.02
530.724	13.11
531.152	13.19
531.581	13.27
532.01	13.35
532.438	13.41
532.867	13.48
533.295	13.54
533.723	13.6
534.152	13.64
534.58	13.68
535.008	13.72
535.436	13.75
535.865	13.78
536.293	13.81
536.721	13.84
537.149	13.88
537.576	13.91
538.004	13.94
538.432	13.96
538.86	14
539.287	14.02
539.715	14.04
540.143	14.07
540.57	14.09
540.998	14.11
541.425	14.13
541.852	14.15
542.28	14.15
542.707	14.18
543.134	14.2
543.561	14.19
543.988	14.22
544.415	14.24
544.842	14.24
545.269	14.26
545.696	14.27
546.123	14.28
546.549	14.29
546.976	14.32
547.403	14.33
547.829	14.34
548.256	14.35
548.682	14.36
549.108	14.36
549.535	14.37
549.961	14.37
550.387	14.36
550.813	14.36
551.24	14.36
551.666	14.36
552.092	14.35
552.518	14.33
552.943	14.32
553.369	14.31
553.795	14.3
554.221	14.27
554.646	14.26
555.072	14.25
555.498	14.21
555.923	14.18
556.349	14.13
556.774	14.09
557.199	14.06
557.625	14.01
558.05	13.96
558.475	13.92
558.9	13.85
559.325	13.79
559.75	13.71
560.175	13.65
560.6	13.58
561.025	13.51
561.449	13.43
561.874	13.35
562.299	13.27
562.723	13.2
563.148	13.12
563.572	13.03
563.997	12.97
564.421	12.89
564.846	12.8
565.27	12.7
565.694	12.62
566.118	12.54
566.542	12.45
566.966	12.36
567.39	12.26
567.814	12.16
568.238	12.07
568.662	11.97
569.086	11.88
569.509	11.8
569.933	11.71
570.357	11.62
570.78	11.52
571.204	11.42
571.627	11.34
572.05	11.27
572.474	11.19
572.897	11.11
573.32	11.03
573.743	10.95
574.166	10.86
574.589	10.79
575.012	10.72
575.435	10.65
575.858	10.6
576.281	10.52
576.704	10.46
577.126	10.4
577.549	10.35
577.972	10.3
578.394	10.23
578.817	10.19
579.239	10.13
579.661	10.09
580.084	10.03
580.506	9.97
580.928	9.92
581.35	9.86
581.772	9.81
582.194	9.75
582.616	9.71
583.038	9.67
583.46	9.62
583.882	9.58
584.303	9.54
584.725	9.51
585.147	9.48
585.568	9.44
585.99	9.41
586.411	9.37
586.833	9.34
587.254	9.31
587.675	9.28
588.096	9.26
588.518	9.24
588.939	9.21
589.36	9.18
589.781	9.17
590.202	9.15
590.623	9.13
591.043	9.11
591.464	9.09
591.885	9.06
592.305	9.05
592.726	9.01
593.147	8.99
593.567	8.97
593.987	8.95
594.408	8.93
594.828	8.9
595.248	8.88
595.669	8.88
596.089	8.87
596.509	8.83
596.929	8.8
597.349	8.78
597.769	8.77
598.189	8.76
598.608	8.73
599.028	8.69
599.448	8.68
599.867	8.65
600.287	8.63
600.706	8.59
601.126	8.57
601.545	8.55
601.965	8.54
602.384	8.52
602.803	8.48
603.222	8.45
603.641	8.43
604.061	8.39
604.48	8.37
604.898	8.34
605.317	8.31
605.736	8.29
606.155	8.25
606.574	8.22
606.992	8.17
607.411	8.15
607.829	8.08
608.248	8.05
608.666	8.01
609.085	7.96
609.503	7.92
609.921	7.88
610.339	7.84
610.758	7.8
611.176	7.75
611.594	7.72
612.012	7.67
612.43	7.67
612.847	7.64
613.265	7.61
613.683	7.58
614.101	7.54
614.518	7.5
614.936	7.47
615.353	7.45
615.771	7.41
616.188	7.39
616.606	7.36
617.023	7.34
617.44	7.31
617.857	7.27
618.274	7.25
618.691	7.24
619.108	7.22
619.525	7.19
619.942	7.17
620.359	7.17
620.776	7.16
621.192	7.15
621.609	7.13
622.026	7.11
622.442	7.11
622.859	7.1
623.275	7.09
623.691	7.08
624.108	7.08
624.524	7.07
624.94	7.05
625.356	7.03
625.772	7.03
626.188	7.03
626.604	7.03
627.02	7.01
627.436	7
627.852	6.97
628.268	6.96
628.683	6.95
629.099	6.94
629.514	6.94
629.93	6.94
630.345	6.92
630.761	6.89
631.176	6.88
631.591	6.88
632.007	6.86
632.422	6.86
632.837	6.84
633.252	6.82
633.667	6.79
634.082	6.76
634.497	6.73
634.911	6.69
635.326	6.66
635.741	6.64
636.155	6.61
636.57	6.57
636.984	6.52
637.399	6.47
637.813	6.41
638.228	6.37
638.642	6.32
639.056	6.28
639.47	6.25
639.884	6.2
640.298	6.15
640.712	6.1
641.126	6.05
641.54	6.02
641.954	5.99
642.368	5.97
642.781	5.94
643.195	5.9
643.609	5.87
644.022	5.83
644.436	5.78
644.849	5.74
645.262	5.72
645.676	5.68
646.089	5.65
646.502	5.62
646.915	5.59
647.328	5.56
647.741	5.54
648.154	5.53
648.567	5.52
648.98	5.5
649.393	5.49
649.805	5.46
650.218	5.45
650.631	5.44
651.043	5.43
651.456	5.43
651.868	5.41
652.28	5.4
652.693	5.37
653.105	5.35
653.517	5.34
653.929	5.33
654.341	5.34
654.753	5.32
655.165	5.31
655.577	5.28
655.989	5.25
656.401	5.23
656.813	5.2
657.224	5.18
657.636	5.15
658.047	5.12
658.459	5.09
658.87	5.05
659.282	5.05
659.693	5.02
660.104	5
660.515	4.99
660.926	4.97
661.338	4.96
661.749	4.93
662.159	4.91
662.57	4.9
662.981	4.88
663.392	4.86
663.803	4.83
664.213	4.82
664.624	4.82
665.035	4.8
665.445	4.78
665.855	4.78
666.266	4.78
666.676	4.78
667.086	4.77
667.497	4.77
667.907	4.76
668.317	4.75
668.727	4.74
669.137	4.74
669.547	4.73
669.956	4.73
670.366	4.73
670.776	4.72
671.186	4.73
671.595	4.73
672.005	4.75
672.414	4.76
672.824	4.79
673.233	4.82
673.642	4.82
674.052	4.84
674.461	4.85
674.87	4.86
675.279	4.88
675.688	4.89
676.097	4.92
676.506	4.94
676.915	4.95
677.323	4.96
677.732	4.97
678.141	4.99
678.549	5.01
678.958	5.05
679.366	5.06
679.775	5.08
680.183	5.11
680.592	5.12
681	5.13
681.408	5.17
681.816	5.19
682.224	5.22
682.632	5.27
683.04	5.3
683.448	5.34
683.856	5.4
684.264	5.44
684.671	5.51
685.079	5.57
685.487	5.65
685.894	5.71
686.302	5.79
686.709	5.87
687.116	5.96
687.524	6.06
687.931	6.16
688.338	6.3
688.745	6.44
689.152	6.58
689.559	6.74
689.966	6.91
690.373	7.11
690.78	7.31
691.187	7.52
691.593	7.74
692	7.97
692.407	8.22
692.813	8.47
693.22	8.73
693.626	9.01
694.032	9.3
694.439	9.59
694.845	9.89
695.251	10.21
695.657	10.52
696.063	10.85
696.469	11.2
696.875	11.52
697.281	11.83
697.687	12.17
698.093	12.51
698.498	12.86
698.904	13.21
699.31	13.56
699.715	13.91
700.12	14.26
700.526	14.59
700.931	14.93
701.337	15.27
701.742	15.6
702.147	15.94
702.552	16.29
702.957	16.63
703.362	16.98
703.767	17.31
704.172	17.63
704.577	17.95
704.981	18.27
705.386	18.6
705.791	18.95
706.195	19.29
706.6	19.61
707.004	19.91
707.408	20.22
707.813	20.52
708.217	20.82
708.621	21.13
709.025	21.44
709.43	21.74
709.834	22.05
710.237	22.33
710.641	22.65
711.045	22.93
711.449	23.24
711.853	23.55
712.256	23.85
712.66	24.15
713.064	24.43
713.467	24.71
713.87	25
714.274	25.28
714.677	25.56
715.08	25.8
715.484	26.09
715.887	26.35
716.29	26.59
716.693	26.83
717.096	27.09
717.499	27.35
717.901	27.59
718.304	27.83
718.707	28.07
719.109	28.32
719.512	28.57
719.915	28.81
720.317	29.07
720.719	29.28
721.122	29.49
721.524	29.7
721.926	29.95
722.328	30.15
722.731	30.35
723.133	30.56
723.535	30.74
723.937	30.93
724.338	31.09
724.74	31.24
725.142	31.4
725.544	31.57
725.945	31.72
726.347	31.87
726.748	32
727.15	32.15
727.551	32.28
727.952	32.43
728.354	32.55
728.755	32.72
729.156	32.86
729.557	33.04
729.958	33.18
730.359	33.32
730.76	33.39
731.161	33.54
731.562	33.69
731.962	33.81
732.363	33.9
732.763	34
733.164	34.05
733.564	34.14
733.965	34.22
734.365	34.29
734.766	34.35
735.166	34.42
735.566	34.46
735.966	34.47
736.366	34.53
736.766	34.6
737.166	34.69
737.566	34.74
737.966	34.8
738.365	34.84
738.765	34.89
739.165	34.94
739.564	35.01
739.964	35.09
740.363	35.14
740.763	35.18
741.162	35.21
741.561	35.24
741.96	35.31
742.36	35.33
742.759	35.34
743.158	35.36
743.557	35.4
743.955	35.46
744.354	35.46
744.753	35.53
745.152	35.56
745.55	35.57
745.949	35.6
746.348	35.63
746.746	35.65
747.144	35.69
747.543	35.73
747.941	35.76
748.339	35.78
748.737	35.84
749.136	35.84
749.534	35.87
749.932	35.91
750.33	35.91
750.727	35.93
751.125	35.95
751.523	35.96
751.921	35.98
752.318	35.96
752.716	35.97
753.113	35.96
753.511	35.95
753.908	35.95
754.305	35.95
754.703	35.92
755.1	35.9
755.497	35.89
755.894	35.89
756.291	35.86
756.688	35.86
757.085	35.83
757.482	35.82
757.878	35.82
758.275	35.81
758.672	35.82
759.068	35.83
759.465	35.86
759.861	35.84
760.258	35.84
760.654	35.83
761.05	35.86
761.447	35.87
761.843	35.86
762.239	35.87
762.635	35.86
763.031	35.86
763.427	35.86
763.822	35.86
764.218	35.86
764.614	35.87
765.01	35.88
765.405	35.84
765.801	35.85
766.196	35.87
766.592	35.85
766.987	35.86
767.382	35.83
767.778	35.85
768.173	35.83
768.568	35.82
768.963	35.83
769.358	35.85
769.753	35.9
770.148	35.89
770.542	35.87
770.937	35.86
771.332	35.87
771.726	35.86
772.121	35.84
772.515	35.86
772.91	35.86
773.304	35.85
773.699	35.82
774.093	35.82
774.487	35.8
774.881	35.81
775.275	35.82
775.669	35.81
776.063	35.81
776.457	35.8
776.851	35.78
777.245	35.79
777.638	35.77
778.032	35.8
778.425	35.79
778.819	35.8
779.212	35.78
779.606	35.78
779.999	35.76
780.392	35.77
780.786	35.8
781.179	35.82
781.572	35.81
781.965	35.83
782.358	35.8
782.751	35.79
783.143	35.79
783.536	35.81
783.929	35.81
784.322	35.84
784.714	35.85
785.107	35.85
785.499	35.83
785.891	35.87
786.284	35.84
786.676	35.83
787.068	35.85
787.46	35.85
787.852	35.84
788.245	35.83
788.636	35.8
789.028	35.78
789.42	35.75
789.812	35.76
790.204	35.7
790.595	35.71
790.987	35.71
791.378	35.7
791.77	35.7
792.161	35.71
792.553	35.7
792.944	35.73
793.335	35.73
793.726	35.73
794.117	35.75
794.508	35.76
794.899	35.76
795.29	35.74
795.681	35.75
796.072	35.76
796.463	35.75
796.853	35.76
797.244	35.75
797.634	35.73
798.025	35.75
798.415	35.72
798.806	35.71
799.196	35.72
799.586	35.72
799.976	35.69
800.366	35.67
800.756	35.68
801.146	35.7
801.536	35.67
801.926	35.69
802.316	35.67
802.706	35.67
803.095	35.69
803.485	35.69
803.874	35.69
804.264	35.69
804.653	35.7
805.043	35.69
805.432	35.65
805.821	35.67
806.21	35.66
806.599	35.69
806.988	35.7
807.377	35.71
807.766	35.71
808.155	35.71
808.544	35.69
808.933	35.68
809.321	35.66
809.71	35.7
810.098	35.66
810.487	35.67
810.875	35.63
811.264	35.62
811.652	35.62
812.04	35.59
812.428	35.57
812.816	35.61
813.204	35.6
813.592	35.61
813.98	35.58
814.368	35.61
814.756	35.58
815.144	35.6
815.531	35.61
815.919	35.59
816.306	35.59
816.694	35.62
817.081	35.56
817.469	35.56
817.856	35.58
818.243	35.57
818.63	35.58
819.017	35.61
819.404	35.59
819.791	35.58
820.178	35.58
820.565	35.59
820.952	35.6
821.339	35.62
821.725	35.63
822.112	35.62
822.498	35.61
822.885	35.62
823.271	35.61
823.657	35.62
824.044	35.63
824.43	35.63
824.816	35.62
825.202	35.62
825.588	35.65
825.974	35.64
826.36	35.61
826.746	35.62
827.132	35.6
827.517	35.57
827.903	35.55
828.289	35.56
828.674	35.55
829.06	35.57
829.445	35.6
829.83	35.59
830.216	35.59
830.601	35.59
830.986	35.6
831.371	35.61
831.756	35.61
832.141	35.62
832.526	35.59
832.911	35.61
833.295	35.61
833.68	35.61
834.065	35.62
834.449	35.61
834.834	35.6
835.218	35.58
835.603	35.57
835.987	35.59
836.371	35.6
836.755	35.62
837.139	35.61
837.524	35.61
837.908	35.58
838.291	35.56
838.675	35.55
839.059	35.56
839.443	35.6
839.827	35.59
840.21	35.6
840.594	35.59
840.977	35.56
841.361	35.55
841.744	35.55
842.127	35.54
842.511	35.55
842.894	35.55
843.277	35.55
843.66	35.54
844.043	35.54
844.426	35.5
844.809	35.53
845.191	35.52
845.574	35.51
845.957	35.48
846.339	35.48
846.722	35.47
847.104	35.46
847.487	35.46
847.869	35.46
848.252	35.44
848.634	35.46
849.016	35.44
849.398	35.46
849.78	35.45
850.162	35.46
850.544	35.45
850.926	35.44
851.307	35.45
851.689	35.43
852.071	35.4
852.452	35.42
852.834	35.41
853.215	35.41
853.597	35.43
853.978	35.42
854.359	35.45
854.741	35.43
855.122	35.45
855.503	35.46
855.884	35.44
856.265	35.46
856.646	35.45
857.026	35.47
857.407	35.44
857.788	35.46
858.169	35.44
858.549	35.44
858.93	35.47
859.31	35.45
859.69	35.42
860.071	35.43
860.451	35.43
860.831	35.43
861.211	35.41
861.591	35.43
861.971	35.38
862.351	35.41
862.731	35.39
863.111	35.38
863.491	35.39
863.87	35.4
864.25	35.42
864.629	35.42
865.009	35.4
865.388	35.38
865.768	35.37
866.147	35.38
866.526	35.37
866.905	35.36
867.284	35.34
867.663	35.34
868.042	35.33
868.421	35.31
868.8	35.31
869.179	35.35
869.558	35.37
869.936	35.39
870.315	35.38
870.693	35.37
871.072	35.39
871.45	35.39
871.828	35.41
872.207	35.42
872.585	35.42
872.963	35.42
873.341	35.42
873.719	35.41
874.097	35.41
874.475	35.42
874.853	35.42
875.23	35.41
875.608	35.41
875.986	35.38
876.363	35.38
876.741	35.39
877.118	35.38
877.495	35.37
877.873	35.37
878.25	35.35
878.627	35.37
879.004	35.39
879.381	35.4
879.758	35.41
880.135	35.4
880.512	35.38
880.889	35.39
881.265	35.39
881.642	35.39
882.019	35.4
882.395	35.41
882.772	35.4
883.148	35.38
883.524	35.38
883.901	35.4
884.277	35.41
884.653	35.44
885.029	35.42
885.405	35.42
885.781	35.4
886.157	35.41
886.532	35.39
886.908	35.4
887.284	35.42
887.659	35.45
888.035	35.44
888.411	35.44
888.786	35.42
889.161	35.43
889.537	35.42
889.912	35.42
890.287	35.39
890.662	35.39
891.037	35.37
891.412	35.34
891.787	35.33
892.162	35.31
892.536	35.29
892.911	35.29
893.286	35.27
893.66	35.27
894.035	35.25
894.409	35.27
894.784	35.26
895.158	35.26
895.532	35.24
895.906	35.24
896.281	35.25
896.655	35.24
897.029	35.23
897.402	35.21
897.776	35.2
898.15	35.2
898.524	35.18
898.898	35.19
899.271	35.19
899.645	35.19
900.018	35.16
900.392	35.14
900.765	35.16
901.138	35.16
901.511	35.18
901.884	35.18
902.258	35.16
902.631	35.17
903.003	35.17
903.376	35.17
903.749	35.18
904.122	35.19
904.495	35.21
904.867	35.21
905.24	35.22
905.612	35.22
905.985	35.22
906.357	35.24
906.729	35.22
907.102	35.2
907.474	35.2
907.846	35.19
908.218	35.18
908.59	35.14
908.962	35.11
909.334	35.11
909.705	35.1
910.077	35.07
910.449	35.07
910.82	35.08
911.192	35.1
911.563	35.06
911.935	35.06
912.306	35.07
912.677	35.1
913.048	35.09
913.419	35.07
913.79	35.07
914.161	35.08
914.532	35.09
914.903	35.09
915.274	35.07
915.645	35.08
916.015	35.09
916.386	35.06
916.756	35.04
917.127	35.07
917.497	35.08
917.868	35.09
918.238	35.1
918.608	35.12
918.978	35.1
919.348	35.1
919.718	35.12
920.088	35.13
920.458	35.18
920.828	35.22
921.198	35.23
921.567	35.23
921.937	35.24
922.306	35.25
922.676	35.23
923.045	35.22
923.415	35.21
923.784	35.22
924.153	35.18
924.522	35.15
924.891	35.12
925.26	35.07
925.629	35.06
925.998	35.04
926.367	35.05
926.736	35.04
927.104	35.05
927.473	35.08
927.842	35.06
928.21	35.08
928.578	35.09
928.947	35.08
929.315	35.11
929.683	35.08
930.051	35.06
930.42	35.01
930.788	35
931.156	35.03
931.523	35.01
931.891	34.95
932.259	34.93
932.627	34.9
932.994	34.87
933.362	34.82
933.729	34.78
934.097	34.77
934.464	34.8
934.831	34.79
935.199	34.7
935.566	34.67
935.933	34.69
936.3	34.68
936.667	34.68
937.034	34.71
937.401	34.67
937.767	34.7
938.134	34.63
938.501	34.55
938.867	34.52
939.234	34.54
939.6	34.52
939.967	34.49
940.333	34.55
940.699	34.52
941.065	34.53
941.431	34.57
941.798	34.63
942.163	34.73
942.529	34.76
942.895	34.8
943.261	34.8
943.627	34.8
943.992	34.87
944.358	34.75
944.723	34.69
945.089	34.71
945.454	34.82
945.82	34.75
946.185	34.78
946.55	34.82
946.915	34.84
947.28	34.8
947.645	34.89
948.01	34.86
948.375	34.93
948.74	34.93
949.104	34.91
949.469	34.81
949.834	34.86
950.198	34.83
950.562	34.83
950.927	34.8
951.291	34.74
951.655	34.65
952.02	34.6
952.384	34.61
952.748	34.58
953.112	34.6
953.476	34.59
953.839	34.58
954.203	34.6
954.567	34.55
954.931	34.54
955.294	34.58
955.658	34.61
956.021	34.69
956.385	34.69
956.748	34.73
957.111	34.68
957.474	34.7
957.837	34.69
958.2	34.66
958.563	34.67
958.926	34.64
959.289	34.68
959.652	34.68
960.015	34.59
960.377	34.59
960.74	34.54
961.102	34.55
961.465	34.52
961.827	34.47
962.189	34.38
962.552	34.36
962.914	34.34
963.276	34.34
963.638	34.25
964	34.29
964.362	34.24
964.724	34.29
965.085	34.31
965.447	34.29
965.809	34.29
966.17	34.38
966.532	34.4
966.893	34.43
967.255	34.39
967.616	34.45
967.977	34.47
968.338	34.5
968.699	34.49
969.061	34.41
969.421	34.43
969.782	34.44
970.143	34.39
970.504	34.4
970.865	34.3
971.225	34.3
971.586	34.37
971.946	34.37
972.307	34.33
972.667	34.32
973.027	34.42
973.388	34.41
973.748	34.4
974.108	34.47
974.468	34.46
974.828	34.55
975.188	34.59
975.548	34.59
975.907	34.6
976.267	34.6
976.627	34.62
976.986	34.6
977.346	34.57
977.705	34.55
978.064	34.53
978.424	34.51
978.783	34.5
979.142	34.42
979.501	34.33
979.86	34.27
980.219	34.23
980.578	34.17
980.937	34.17
981.296	34.19
981.654	34.29
982.013	34.29
982.371	34.28
982.73	34.25
983.088	34.23
983.447	34.31
983.805	34.3
984.163	34.36
984.521	34.29
984.879	34.34
985.237	34.45
985.595	34.45
985.953	34.41
986.311	34.5
986.669	34.52
987.026	34.58
987.384	34.59
987.741	34.66
988.099	34.68
988.456	34.77
988.814	34.72
989.171	34.65
989.528	34.45
989.885	34.49
990.242	34.42
990.599	34.42
990.956	34.44
991.313	34.38
991.67	34.36
992.027	34.31
992.383	34.31
992.74	34.21
993.096	34.17
993.453	34.32
993.809	34.3
994.165	34.37
994.522	34.37
994.878	34.41
995.234	34.36
995.59	34.22
995.946	34.16
996.302	34.18
996.658	34.2
997.013	34.28
997.369	34.31
997.725	34.22
998.08	34.13
998.436	34.23
998.791	34.12
999.147	34.25
999.502	34.37
999.857	34.42
1000.212	34.37
1000.567	34.34
1000.922	34.22
1001.277	34.15
1001.632	34.32
1001.987	34.35
1002.342	34.22
1002.696	34.16
1003.051	33.92
1003.406	33.92
1003.76	33.86
1004.114	33.86
1004.469	33.86
1004.823	33.96
1005.177	34.05
1005.531	33.9
1005.885	33.78
1006.239	33.73
1006.593	33.74
1006.947	33.81
1007.301	33.75
1007.655	33.89
1008.008	33.76
1008.362	33.81
1008.715	33.63
1009.069	33.36
1009.422	33.35
1009.776	33.55
1010.129	33.5
1010.482	33.53
1010.835	33.41
1011.188	33.24
1011.541	33.01
1011.894	33.1
1012.247	32.95
1012.6	32.91
1012.952	32.91
1013.305	32.8
1013.657	32.73
1014.01	32.84
1014.362	32.83
1014.715	32.99
1015.067	33.14
1015.419	33.38
1015.771	33.47
1016.123	33.4
1016.475	33.58
1016.827	33.75
1017.179	33.73
1017.531	33.59
1017.883	33.58
1018.234	33.56
1018.586	33.5
1018.938	33.24
1019.289	32.99
1019.64	33.22
1019.992	33.7
1020.343	33.63
1020.694	33.35
1021.045	33.36
1021.396	33.41
1021.747	33.62
1022.098	33.48
1022.449	33.38
1022.8	33.43
1023.151	33.25
1023.501	32.79
1023.852	32.16
1024.202	31.83
1024.553	32.09
1024.903	32.43
1025.253	32.45
1025.604	32.39
1025.954	32.56
1026.304	32.8
1026.654	33.4
1027.004	33.78
1027.354	33.63
1027.703	33.79
1028.053	33.84
1028.403	33.94
1028.753	34.11
1029.102	33.84
1029.452	33.29
1029.801	33.08
1030.15	33
1030.499	32.47
897.758	523
901.051	527.02
904.343	534.71
907.636	528.17
910.928	518.54
914.22	524.64
917.511	510.13
920.803	490.61
924.094	471.76
927.384	475.04
930.675	455.97
933.965	451.34
937.255	453.04
940.544	431.42
943.834	411.16
947.123	405.57
950.411	385.49
953.7	379.18
956.988	366.84
960.276	350.71
963.563	346.18
966.851	330.7
970.138	323.54
973.424	301.44
976.711	296.16
979.997	287.14
983.283	279.97
986.568	270.94
989.853	262.83
993.138	253.45
996.423	249.42
999.708	241.13
1002.992	241.41
1006.275	235.2
1009.559	233.68
1012.842	227.12
1016.125	219.05
1019.408	215.25
1022.69	212.98
1025.972	211.29
1029.254	205.07
1032.536	202.16
1035.817	195.6
1039.098	192.46
1042.379	188.76
1045.659	186.02
1048.939	184.51
1052.219	181.81
1055.498	178.61
1058.778	175.7
1062.057	171.8
1065.335	171.8
1068.614	168.86
1071.892	166.53
1075.17	162.66
1078.447	160.65
1081.724	158.88
1085.001	155.35
1088.278	155.1
1091.554	154.32
1094.83	152.59
1098.106	150.55
1101.382	149.87
1104.657	148.39
1107.932	148.96
1111.206	148.74
1114.481	146.25
1117.755	145.07
1121.029	144.95
1124.302	142.76
1127.575	140.3
1130.848	140.29
1134.121	138.68
1137.393	137.35
1140.665	135.91
1143.937	133.67
1147.208	132.85
1150.48	131.91
1153.75	131.55
1157.021	129.94
1160.291	129.32
1163.561	129.27
1166.831	127.95
1170.101	127.71
1173.37	127.63
1176.639	126.59
1179.907	126.72
1183.176	125.75
1186.444	125.96
1189.711	124.59
1192.979	126.42
1196.246	126.39
1199.513	125.26
1202.78	126.04
1206.046	125.66
1209.312	126.42
1212.578	127.68
1215.843	129.37
1219.108	130.1
1222.373	132.58
1225.638	134.83
1228.902	136.9
1232.166	140.76
1235.43	143.34
1238.693	147.8
1241.956	151.09
1245.219	153.4
1248.482	154.02
1251.744	153.41
1255.006	154.95
1258.268	150.33
1261.529	149.46
1264.79	145.63
1268.051	141.9
1271.312	141.47
1274.572	137.96
1277.832	135.04
1281.092	134.39
1284.351	132.44
1287.61	132.21
1290.869	130.44
1294.128	130.23
1297.386	130.69
1300.644	129.49
1303.902	129.54
1307.159	129.13
1310.416	129.69
1313.673	131.52
1316.93	131.68
1320.186	133.72
1323.442	135.18
1326.697	139.08
1329.953	139.83
1333.208	143.11
1336.463	149.87
1339.717	152.74
1342.972	159.92
1346.226	164.25
1349.479	165.57
1352.733	173.39
1355.986	176.44
1359.238	180.6
1362.491	181.29
1365.743	189.86
1368.995	190.17
1372.247	189.9
1375.498	190.13
1378.749	195.66
1382	194.07
1385.251	194.47
1388.501	192.86
1391.751	196.53
1395	195.45
1398.25	196.57
1401.499	195.57
1404.748	195.85
1407.996	191.98
1411.244	192.08
1414.492	187.28
1417.74	184.27
1420.987	179.03
1424.234	176.14
1427.481	170.37
1430.728	164.16
1433.974	158.52
1437.22	152.12
1440.465	147.76
1443.711	143.17
1446.956	137.87
1450.201	133.76
1453.445	127.07
1456.689	124.25
1459.933	119.93
1463.177	114.66
1466.42	112.55
1469.663	109.5
1472.906	106.66
1476.148	103.52
1479.391	100.89
1482.633	99.87
1485.874	97.21
1489.115	96.6
1492.356	94.12
1495.597	93.15
1498.838	91.73
1502.078	91.26
1505.318	90.8
1508.557	90.33
1511.797	88.83
1515.036	88.81
1518.274	88.5
1521.513	87.38
1524.751	86.87
1527.989	87.54
1531.227	87.11
1534.464	86.85
1537.701	86.39
1540.938	85.99
1544.174	85.8
1547.41	86.05
1550.646	85.72
1553.882	85.33
1557.117	85.64
1560.352	85.13
1563.587	84.34
1566.821	84.27
1570.055	84.34
1573.289	83.9
1576.523	83.83
1579.756	82.61
1582.989	83.24
1586.222	83.28
1589.454	82.44
1592.686	82.19
1595.918	82.4
1599.15	82.26
1602.381	82.48
1605.612	82.2
1608.843	81.75
1612.073	82.47
1615.303	83.46
1618.533	82.18
1621.762	82.5
1624.992	83.07
1628.221	82.94
1631.449	83.82
1634.678	83.35
1637.906	83.26
1641.134	83.3
1644.361	83.86
1647.588	83.36
1650.815	83.39
1654.042	84.05
1657.269	83.54
1660.495	84.29
1663.72	84.37
1666.946	83.41
1670.171	84.4
1673.396	84.54
1676.621	84.83
1679.845	85.12
1683.069	85.04
1686.293	84.69
1689.517	84.56
1692.74	84.61
1695.963	84.58
1699.185	84.6
1702.408	85.48
1705.63	85.29
1708.852	85.94
1712.073	85.71
1715.294	85.54
1718.515	86.26
1721.736	86.9
1724.956	87.3
1728.176	87.33
1731.396	87.59
1734.616	87.83
1737.835	87.69
1741.054	87.68
1744.272	87.35
1747.491	87.42
1750.709	88.21
1753.927	88.24
1757.144	88.38
1760.361	88.36
1763.578	88.73
1766.795	89.5
1770.011	89.7
1773.227	90.38
1776.443	91.44
1779.658	91.27
1782.874	91.94
1786.089	91.59
1789.303	91.93
1792.518	93.32
1795.732	93.87
1798.945	95.22
1802.159	95.22
1805.372	96.47
1808.585	96.72
1811.797	97
1815.01	98.68
1818.222	99.67
1821.434	101.1
1824.645	101.29
1827.856	101.98
1831.067	102.48
1834.278	103.23
1837.488	103.94
1840.698	104.37
1843.908	104.74
1847.117	106.29
1850.326	106.46
1853.535	106.69
1856.744	107.99
1859.952	109.61
1863.16	109.48
1866.368	109.46
1869.575	110.65
1872.782	110.34
1875.989	109.92
1879.196	109.19
1882.402	107.42
1885.608	108.67
1888.814	108.99
1892.019	108.77
1895.224	107.48
1898.429	107.8
1901.634	109.21
1904.838	108.22
1908.042	108.39
1911.246	108.74
1914.449	110.13
1917.652	111.04
1920.855	109.67
1924.058	108.65
1927.26	108.2
1930.462	108.86
1933.664	108.37
1936.865	108.22
1940.066	107.71
1943.267	107.73
1946.467	107.77
1949.668	107.78
1952.868	107.4
1956.067	108.05
1959.267	109.95
1962.466	110.56
1965.665	110.99
1968.863	111.78
1972.061	112.05
1975.259	114.81
1978.457	114.77
1981.654	116.63
1984.852	117.27
1988.048	119.09
1991.245	120.23
1994.441	121.93
1997.637	124.26
2000.833	127.2
2004.028	128.31
2007.223	132.49
2010.418	134.16
2013.613	141.45
2016.807	144.49
2020.001	148.31
2023.194	153.18
2026.388	158.69
2029.581	166.25
2032.774	170.76
2035.966	176.84
2039.158	182.69
2042.35	185.53
2045.542	188.54
2048.733	195.99
2051.924	199.4
2055.115	200.63
2058.306	202.11
2061.496	205.73
2064.686	205.96
2067.875	205.97
2071.065	205.51
2074.254	207.93
2077.442	215.08
2080.631	216.2
2083.819	215.53
2087.007	219.81
2090.195	225.42
2093.382	224.35
2096.569	225.44
2099.756	229.34
2102.942	233.63
2106.128	239.9
2109.314	239.7
2112.5	237.45
2115.685	237
2118.87	237.76
2122.055	237.36
2125.239	241.01
2128.424	248.12
2131.608	246.28
2134.791	242.91
2137.974	245.6
2141.157	247.94
2144.34	250.09
2147.523	253.18
2150.705	260.88
2153.887	259.54
2157.068	262.2
2160.25	263.28
2163.431	262.69
2166.611	267.31
2169.792	274.9
2172.972	279.36
2176.152	278.41
2179.331	284.34
2182.511	285.81
2185.69	288.39
2188.868	301.72
2192.047	306
2195.225	312.2
2198.403	315.67
2201.58	312.92
2204.758	324.7
2207.935	323.93
2211.111	329.73
2214.288	332.32
2217.464	337.34
2220.64	340.55
2223.815	337.41
2226.991	334.13
2230.166	338.35
2233.34	348.23
2236.515	356.75
2239.689	352.57
2242.863	359.25
2246.036	357
2249.209	364.41
2252.382	365.05
2255.555	378.58
2258.727	380.6
2261.9	393.35
2265.071	396.78
2268.243	394.21
2271.414	406.58
2274.585	410.36
2277.756	412.74
2280.926	429.08
2284.096	426.11
2287.266	427.03
2290.436	416.57
2293.605	427.98
2296.774	443.26
2299.942	439.19
2303.111	452.45
2306.279	460.07
2309.447	464.31
2312.614	465.73
2315.781	474.03
2318.948	486.92
2322.115	495.5
2325.281	522.36
2328.447	518.22
2331.613	519.17
2334.779	534.87
2337.944	539.25
2341.109	548.61
2344.274	554.78
2347.438	575.08
2350.602	586.99
2353.766	621.06
2356.929	625.03
2360.092	625.91
2363.255	629.03
2366.418	639.86
2369.58	650.93
2372.742	648.69
2375.904	648.07
2379.066	665.45
2382.227	697.18
2385.388	692.12
2388.548	658.81
2391.709	650.91
2394.869	675.89
2398.029	682.72
2401.188	684.22
2404.347	699.92
2407.506	728.24
2410.665	702.88
2413.823	708.73
2416.981	706.75
2420.139	672.98
2423.296	727.18
2426.453	773.81
2429.61	737.19
2432.767	780.92
2435.923	807.55
2439.079	778.5
2442.235	801.32
2445.391	812.88
2448.546	802.7
2451.701	848.66
2454.855	905.85
2458.009	797.64
2461.163	812.88
2464.317	824.55
2467.471	809.19
2470.624	834.65
2473.777	828.65
2476.929	797.23
2480.082	855.98
2483.234	895.68
2486.385	901.05
2489.537	928.39
2492.688	1020.05
2495.839	1006.03
2498.989	1034.97
2502.14	1037.68
2505.29	985.74
2508.439	1103.76
2511.589	1132.91
2514.738	1100.41
2517.887	1092.51
2521.035	1036.74
2524.183	1010.32
2527.331	1005.08
2530.479	979.89
2533.627	1002.78
