Data from N_1_div_wi_4n_029_Splice17_18.txt Node
Date: Sat Feb 29 13:45:47 EST 2020
User: sa697716
Spectrometer: FLMS03696
Trigger mode: 0
Integration Time (sec): 3.180400E-1
Scans to average: 20
Electric dark correction enabled: true
Nonlinearity correction enabled: true
Boxcar width: 5
XAxis mode: Wavelengths
Number of Pixels in Spectrum: 2048
>>>>>Begin Spectral Data<<<<<
187.83	89.8
188.298	75.74
188.766	69.96
189.233	63.72
189.701	79.67
190.169	78.84
190.636	84.94
191.104	78.64
191.571	190.17
192.039	242.03
192.506	-289.51
192.974	2604.85
193.441	55.45
193.908	31.51
194.375	-43.91
194.842	123.56
195.31	75.01
195.777	37
196.244	31.5
196.711	35
197.177	35.08
197.644	36.69
198.111	36.67
198.578	35.87
199.045	36.18
199.511	36.33
199.978	36.92
200.445	37.02
200.911	37.72
201.378	38.14
201.844	38.8
202.31	39.24
202.777	39.71
203.243	40.23
203.709	40.85
204.176	40.68
204.642	40.94
205.108	40.15
205.574	40.33
206.04	40.07
206.506	39.43
206.972	39.45
207.438	39.56
207.903	39.64
208.369	39.24
208.835	39.09
209.301	39.65
209.766	39.49
210.232	40
210.697	39.71
211.163	39.65
211.628	39.5
212.094	39.01
212.559	38.63
213.024	38.17
213.49	37.91
213.955	37.56
214.42	36.76
214.885	36.32
215.35	35.75
215.815	35.22
216.28	34.86
216.745	34.48
217.21	33.87
217.675	33.31
218.14	32.59
218.604	31.91
219.069	31.51
219.534	31.18
219.998	30.81
220.463	30.45
220.927	30.19
221.392	29.84
221.856	29.52
222.32	29.21
222.785	28.92
223.249	28.67
223.713	28.47
224.177	28.19
224.642	27.92
225.106	27.66
225.57	27.4
226.034	27.12
226.497	26.86
226.961	26.57
227.425	26.33
227.889	26.08
228.353	25.83
228.816	25.58
229.28	25.3
229.744	25.07
230.207	24.86
230.671	24.6
231.134	24.37
231.597	24.13
232.061	23.93
232.524	23.73
232.987	23.53
233.45	23.32
233.914	23.12
234.377	22.93
234.84	22.73
235.303	22.52
235.766	22.35
236.229	22.2
236.691	22.03
237.154	21.85
237.617	21.67
238.08	21.52
238.542	21.35
239.005	21.19
239.468	21.04
239.93	20.91
240.393	20.75
240.855	20.6
241.317	20.43
241.78	20.32
242.242	20.2
242.704	20.08
243.166	19.93
243.629	19.81
244.091	19.7
244.553	19.59
245.015	19.48
245.477	19.4
245.939	19.3
246.4	19.21
246.862	19.1
247.324	19.01
247.786	18.92
248.247	18.86
248.709	18.76
249.17	18.66
249.632	18.57
250.093	18.48
250.555	18.38
251.016	18.31
251.477	18.24
251.939	18.18
252.4	18.1
252.861	18.04
253.322	17.97
253.783	17.94
254.244	17.92
254.705	17.87
255.166	17.83
255.627	17.8
256.088	17.76
256.549	17.73
257.009	17.67
257.47	17.63
257.931	17.57
258.391	17.53
258.852	17.48
259.312	17.43
259.773	17.4
260.233	17.36
260.694	17.32
261.154	17.29
261.614	17.26
262.074	17.24
262.534	17.21
262.994	17.2
263.455	17.17
263.915	17.16
264.374	17.13
264.834	17.12
265.294	17.1
265.754	17.09
266.214	17.07
266.673	17.06
267.133	17.04
267.593	17.03
268.052	17.02
268.512	17.01
268.971	17
269.431	17
269.89	16.99
270.349	16.99
270.809	16.99
271.268	16.98
271.727	16.98
272.186	16.98
272.645	16.96
273.104	16.96
273.563	16.95
274.022	16.93
274.481	16.92
274.94	16.9
275.399	16.89
275.857	16.88
276.316	16.86
276.775	16.83
277.233	16.81
277.692	16.79
278.15	16.76
278.609	16.73
279.067	16.69
279.525	16.66
279.984	16.64
280.442	16.61
280.9	16.58
281.358	16.53
281.816	16.51
282.274	16.48
282.732	16.45
283.19	16.43
283.648	16.42
284.106	16.41
284.564	16.4
285.021	16.37
285.479	16.36
285.937	16.33
286.394	16.32
286.852	16.31
287.309	16.3
287.767	16.29
288.224	16.28
288.682	16.25
289.139	16.23
289.596	16.19
290.053	16.16
290.511	16.13
290.968	16.11
291.425	16.08
291.882	16.04
292.339	16.01
292.796	15.98
293.252	15.95
293.709	15.93
294.166	15.92
294.623	15.9
295.079	15.88
295.536	15.86
295.992	15.83
296.449	15.81
296.905	15.79
297.362	15.78
297.818	15.76
298.274	15.74
298.731	15.72
299.187	15.69
299.643	15.67
300.099	15.64
300.555	15.61
301.011	15.61
301.467	15.6
301.923	15.58
302.379	15.56
302.835	15.54
303.291	15.52
303.746	15.51
304.202	15.5
304.658	15.48
305.113	15.47
305.569	15.46
306.024	15.45
306.479	15.42
306.935	15.41
307.39	15.41
307.845	15.39
308.301	15.39
308.756	15.37
309.211	15.36
309.666	15.34
310.121	15.33
310.576	15.31
311.031	15.31
311.486	15.31
311.94	15.29
312.395	15.28
312.85	15.27
313.305	15.26
313.759	15.26
314.214	15.24
314.668	15.24
315.123	15.25
315.577	15.25
316.032	15.23
316.486	15.22
316.94	15.21
317.394	15.18
317.849	15.17
318.303	15.15
318.757	15.12
319.211	15.09
319.665	15.07
320.119	15.04
320.572	15.02
321.026	14.98
321.48	14.98
321.934	14.96
322.387	14.95
322.841	14.93
323.295	14.93
323.748	14.91
324.202	14.91
324.655	14.89
325.108	14.88
325.562	14.87
326.015	14.86
326.468	14.83
326.921	14.81
327.374	14.78
327.827	14.75
328.28	14.73
328.733	14.71
329.186	14.69
329.639	14.69
330.092	14.68
330.545	14.67
330.997	14.66
331.45	14.67
331.903	14.65
332.355	14.65
332.808	14.67
333.26	14.67
333.713	14.68
334.165	14.67
334.617	14.68
335.069	14.68
335.522	14.68
335.974	14.67
336.426	14.66
336.878	14.67
337.33	14.67
337.782	14.66
338.234	14.65
338.686	14.64
339.137	14.65
339.589	14.63
340.041	14.62
340.493	14.59
340.944	14.59
341.396	14.58
341.847	14.55
342.299	14.52
342.75	14.49
343.201	14.46
343.653	14.43
344.104	14.39
344.555	14.36
345.006	14.33
345.457	14.32
345.908	14.29
346.359	14.28
346.81	14.28
347.261	14.28
347.712	14.26
348.163	14.25
348.613	14.22
349.064	14.21
349.515	14.21
349.965	14.21
350.416	14.19
350.866	14.2
351.317	14.19
351.767	14.17
352.217	14.16
352.668	14.18
353.118	14.17
353.568	14.18
354.018	14.19
354.468	14.18
354.918	14.18
355.368	14.18
355.818	14.15
356.268	14.16
356.718	14.16
357.168	14.15
357.617	14.13
358.067	14.12
358.517	14.12
358.966	14.13
359.416	14.13
359.865	14.14
360.315	14.13
360.764	14.15
361.213	14.15
361.663	14.15
362.112	14.17
362.561	14.18
363.01	14.2
363.459	14.2
363.908	14.21
364.357	14.21
364.806	14.21
365.255	14.22
365.703	14.23
366.152	14.24
366.601	14.24
367.05	14.24
367.498	14.25
367.947	14.26
368.395	14.28
368.844	14.29
369.292	14.29
369.74	14.3
370.189	14.32
370.637	14.31
371.085	14.32
371.533	14.34
371.981	14.35
372.429	14.36
372.877	14.38
373.325	14.4
373.773	14.41
374.221	14.45
374.669	14.47
375.116	14.48
375.564	14.52
376.012	14.54
376.459	14.57
376.907	14.61
377.354	14.64
377.801	14.68
378.249	14.72
378.696	14.75
379.143	14.77
379.591	14.81
380.038	14.85
380.485	14.88
380.932	14.91
381.379	14.94
381.826	14.97
382.273	14.99
382.72	15.01
383.166	15.04
383.613	15.06
384.06	15.09
384.506	15.11
384.953	15.12
385.4	15.15
385.846	15.16
386.292	15.2
386.739	15.21
387.185	15.23
387.631	15.26
388.078	15.28
388.524	15.28
388.97	15.3
389.416	15.31
389.862	15.32
390.308	15.33
390.754	15.35
391.2	15.35
391.645	15.37
392.091	15.39
392.537	15.39
392.983	15.41
393.428	15.44
393.874	15.45
394.319	15.46
394.765	15.45
395.21	15.44
395.655	15.45
396.101	15.44
396.546	15.45
396.991	15.44
397.436	15.43
397.881	15.42
398.326	15.41
398.771	15.43
399.216	15.44
399.661	15.47
400.106	15.49
400.551	15.49
400.995	15.46
401.44	15.44
401.885	15.42
402.329	15.43
402.774	15.4
403.218	15.4
403.663	15.37
404.107	15.38
404.551	15.36
404.995	15.37
405.44	15.35
405.884	15.35
406.328	15.33
406.772	15.35
407.216	15.35
407.66	15.35
408.104	15.34
408.547	15.33
408.991	15.29
409.435	15.28
409.879	15.26
410.322	15.26
410.766	15.27
411.209	15.27
411.653	15.25
412.096	15.23
412.54	15.22
412.983	15.2
413.426	15.22
413.869	15.22
414.312	15.22
414.756	15.23
415.199	15.21
415.642	15.21
416.085	15.22
416.527	15.25
416.97	15.27
417.413	15.25
417.856	15.23
418.298	15.18
418.741	15.16
419.184	15.17
419.626	15.12
420.069	15.1
420.511	15.08
420.953	15.06
421.396	15.03
421.838	15.02
422.28	15.03
422.722	15.05
423.164	15.05
423.606	15.06
424.048	15.03
424.49	15.06
424.932	15.07
425.374	15.06
425.816	15.04
426.258	15.02
426.699	14.98
427.141	14.94
427.582	14.91
428.024	14.91
428.465	14.9
428.907	14.93
429.348	14.92
429.789	14.93
430.231	14.92
430.672	14.95
431.113	14.95
431.554	14.97
431.995	15
432.436	15.02
432.877	15.01
433.318	15.01
433.759	14.99
434.2	14.97
434.64	14.94
435.081	14.94
435.522	14.93
435.962	14.94
436.403	14.96
436.843	14.97
437.284	14.99
437.724	15
438.164	15.01
438.604	15.04
439.045	15.02
439.485	15.03
439.925	15.05
440.365	15.03
440.805	15.02
441.245	15.02
441.685	15.02
442.125	15.02
442.564	15.03
443.004	15.04
443.444	15.03
443.883	15.05
444.323	15.06
444.762	15.08
445.202	15.13
445.641	15.16
446.081	15.2
446.52	15.19
446.959	15.23
447.398	15.25
447.837	15.28
448.276	15.28
448.716	15.3
449.154	15.31
449.593	15.32
450.032	15.31
450.471	15.32
450.91	15.29
451.349	15.31
451.787	15.28
452.226	15.26
452.664	15.23
453.103	15.23
453.541	15.22
453.98	15.21
454.418	15.19
454.856	15.17
455.295	15.15
455.733	15.15
456.171	15.12
456.609	15.13
457.047	15.11
457.485	15.11
457.923	15.11
458.361	15.09
458.798	15.1
459.236	15.1
459.674	15.1
460.111	15.08
460.549	15.06
460.987	15.06
461.424	15.04
461.862	15.05
462.299	15.03
462.736	15.02
463.173	15.01
463.611	14.99
464.048	14.98
464.485	14.95
464.922	14.96
465.359	14.97
465.796	14.97
466.233	14.99
466.67	14.98
467.106	14.97
467.543	14.98
467.98	15.01
468.416	15.03
468.853	15.03
469.29	15.06
469.726	15.06
470.162	15.05
470.599	15.04
471.035	15.06
471.471	15.05
471.907	15.06
472.344	15.05
472.78	15.02
473.216	15.01
473.652	14.99
474.088	15
474.523	15
474.959	14.97
475.395	14.96
475.831	14.94
476.266	14.93
476.702	14.91
477.138	14.89
477.573	14.87
478.008	14.85
478.444	14.84
478.879	14.81
479.314	14.78
479.75	14.79
480.185	14.78
480.62	14.76
481.055	14.76
481.49	14.74
481.925	14.74
482.36	14.72
482.795	14.69
483.229	14.67
483.664	14.65
484.099	14.65
484.534	14.62
484.968	14.59
485.403	14.57
485.837	14.54
486.271	14.54
486.706	14.54
487.14	14.55
487.574	14.56
488.009	14.57
488.443	14.56
488.877	14.55
489.311	14.55
489.745	14.55
490.179	14.57
490.613	14.58
491.046	14.59
491.48	14.59
491.914	14.59
492.348	14.6
492.781	14.6
493.215	14.61
493.648	14.63
494.082	14.66
494.515	14.67
494.948	14.68
495.382	14.69
495.815	14.69
496.248	14.7
496.681	14.7
497.114	14.7
497.547	14.73
497.98	14.75
498.413	14.77
498.846	14.79
499.279	14.81
499.711	14.81
500.144	14.83
500.577	14.85
501.009	14.86
501.442	14.9
501.874	14.94
502.306	14.97
502.739	14.99
503.171	15.03
503.603	15.07
504.036	15.12
504.468	15.19
504.9	15.27
505.332	15.35
505.764	15.43
506.196	15.49
506.627	15.57
507.059	15.65
507.491	15.75
507.923	15.84
508.354	15.94
508.786	16.04
509.217	16.13
509.649	16.24
510.08	16.36
510.512	16.49
510.943	16.64
511.374	16.79
511.805	16.93
512.237	17.07
512.668	17.21
513.099	17.38
513.53	17.54
513.961	17.73
514.391	17.89
514.822	18.05
515.253	18.22
515.684	18.37
516.114	18.54
516.545	18.71
516.975	18.91
517.406	19.1
517.836	19.29
518.267	19.48
518.697	19.67
519.127	19.86
519.558	20.06
519.988	20.27
520.418	20.47
520.848	20.68
521.278	20.9
521.708	20.98
522.138	21.16
522.567	21.36
522.997	21.56
523.427	21.74
523.857	21.93
524.286	22.11
524.716	22.29
525.145	22.5
525.575	22.68
526.004	22.85
526.433	23.15
526.863	23.32
527.292	23.48
527.721	23.63
528.15	23.81
528.579	23.97
529.008	24.1
529.437	24.25
529.866	24.34
530.295	24.47
530.724	24.61
531.152	24.74
531.581	24.87
532.01	24.96
532.438	25.05
532.867	25.14
533.295	25.23
533.723	25.35
534.152	25.43
534.58	25.52
535.008	25.57
535.436	25.63
535.865	25.68
536.293	25.73
536.721	25.81
537.149	25.88
537.576	25.94
538.004	25.99
538.432	26
538.86	26.03
539.287	26.09
539.715	26.13
540.143	26.17
540.57	26.21
540.998	26.24
541.425	26.27
541.852	26.29
542.28	26.29
542.707	26.32
543.134	26.35
543.561	26.34
543.988	26.35
544.415	26.37
544.842	26.37
545.269	26.4
545.696	26.41
546.123	26.42
546.549	26.44
546.976	26.49
547.403	26.51
547.829	26.53
548.256	26.56
548.682	26.58
549.108	26.59
549.535	26.6
549.961	26.59
550.387	26.59
550.813	26.59
551.24	26.6
551.666	26.59
552.092	26.59
552.518	26.57
552.943	26.56
553.369	26.55
553.795	26.52
554.221	26.49
554.646	26.48
555.072	26.44
555.498	26.38
555.923	26.34
556.349	26.26
556.774	26.19
557.199	26.14
557.625	26.06
558.05	25.97
558.475	25.89
558.9	25.8
559.325	25.72
559.75	25.62
560.175	25.53
560.6	25.41
561.025	25.33
561.449	25.23
561.874	25.12
562.299	25.03
562.723	24.93
563.148	24.8
563.572	24.7
563.997	24.57
564.421	24.47
564.846	24.35
565.27	24.22
565.694	24.09
566.118	23.95
566.542	23.82
566.966	23.68
567.39	23.55
567.814	23.43
568.238	23.29
568.662	23.16
569.086	23.03
569.509	22.91
569.933	22.78
570.357	22.63
570.78	22.5
571.204	22.37
571.627	22.25
572.05	22.14
572.474	22
572.897	21.87
573.32	21.76
573.743	21.64
574.166	21.52
574.589	21.4
575.012	21.32
575.435	21.2
575.858	21.1
576.281	21
576.704	20.91
577.126	20.82
577.549	20.74
577.972	20.67
578.394	20.57
578.817	20.49
579.239	20.44
579.661	20.38
580.084	20.31
580.506	20.24
580.928	20.17
581.35	20.11
581.772	20.06
582.194	19.98
582.616	19.92
583.038	19.88
583.46	19.8
583.882	19.74
584.303	19.69
584.725	19.65
585.147	19.58
585.568	19.51
585.99	19.47
586.411	19.41
586.833	19.37
587.254	19.32
587.675	19.26
588.096	19.24
588.518	19.19
588.939	19.14
589.36	19.1
589.781	19.08
590.202	19.07
590.623	19.01
591.043	18.98
591.464	18.95
591.885	18.93
592.305	18.92
592.726	18.87
593.147	18.84
593.567	18.8
593.987	18.79
594.408	18.75
594.828	18.71
595.248	18.71
595.669	18.69
596.089	18.66
596.509	18.61
596.929	18.55
597.349	18.53
597.769	18.49
598.189	18.47
598.608	18.43
599.028	18.4
599.448	18.38
599.867	18.33
600.287	18.29
600.706	18.24
601.126	18.21
601.545	18.19
601.965	18.14
602.384	18.12
602.803	18.06
603.222	18.03
603.641	17.98
604.061	17.94
604.48	17.91
604.898	17.86
605.317	17.82
605.736	17.79
606.155	17.74
606.574	17.69
606.992	17.64
607.411	17.6
607.829	17.51
608.248	17.47
608.666	17.41
609.085	17.36
609.503	17.29
609.921	17.24
610.339	17.18
610.758	17.13
611.176	17.08
611.594	17.03
612.012	16.98
612.43	16.97
612.847	16.92
613.265	16.89
613.683	16.85
614.101	16.79
614.518	16.74
614.936	16.71
615.353	16.67
615.771	16.64
616.188	16.61
616.606	16.57
617.023	16.53
617.44	16.5
617.857	16.46
618.274	16.42
618.691	16.42
619.108	16.38
619.525	16.36
619.942	16.33
620.359	16.31
620.776	16.28
621.192	16.26
621.609	16.23
622.026	16.19
622.442	16.17
622.859	16.16
623.275	16.13
623.691	16.12
624.108	16.09
624.524	16.07
624.94	16.05
625.356	16.05
625.772	16.05
626.188	16.05
626.604	16.02
627.02	16.01
627.436	16
627.852	15.99
628.268	15.98
628.683	15.96
629.099	15.95
629.514	15.93
629.93	15.88
630.345	15.83
630.761	15.81
631.176	15.79
631.591	15.77
632.007	15.72
632.422	15.69
632.837	15.66
633.252	15.62
633.667	15.57
634.082	15.53
634.497	15.47
634.911	15.41
635.326	15.35
635.741	15.28
636.155	15.21
636.57	15.14
636.984	15.05
637.399	14.96
637.813	14.88
638.228	14.81
638.642	14.74
639.056	14.68
639.47	14.62
639.884	14.56
640.298	14.51
640.712	14.43
641.126	14.37
641.54	14.31
641.954	14.28
642.368	14.23
642.781	14.17
643.195	14.1
643.609	14.06
644.022	14
644.436	13.95
644.849	13.92
645.262	13.89
645.676	13.84
646.089	13.81
646.502	13.75
646.915	13.71
647.328	13.69
647.741	13.66
648.154	13.64
648.567	13.62
648.98	13.61
649.393	13.58
649.805	13.56
650.218	13.55
650.631	13.54
651.043	13.54
651.456	13.52
651.868	13.51
652.28	13.5
652.693	13.48
653.105	13.46
653.517	13.44
653.929	13.43
654.341	13.42
654.753	13.4
655.165	13.39
655.577	13.36
655.989	13.34
656.401	13.3
656.813	13.29
657.224	13.27
657.636	13.26
658.047	13.23
658.459	13.21
658.87	13.19
659.282	13.18
659.693	13.15
660.104	13.14
660.515	13.12
660.926	13.13
661.338	13.1
661.749	13.06
662.159	13.04
662.57	13.02
662.981	13
663.392	12.97
663.803	12.95
664.213	12.94
664.624	12.93
665.035	12.92
665.445	12.91
665.855	12.9
666.266	12.91
666.676	12.91
667.086	12.92
667.497	12.92
667.907	12.93
668.317	12.94
668.727	12.95
669.137	12.95
669.547	12.97
669.956	12.97
670.366	12.98
670.776	12.99
671.186	13.01
671.595	13.01
672.005	13.03
672.414	13.04
672.824	13.05
673.233	13.06
673.642	13.08
674.052	13.1
674.461	13.12
674.87	13.14
675.279	13.16
675.688	13.17
676.097	13.21
676.506	13.22
676.915	13.24
677.323	13.28
677.732	13.33
678.141	13.36
678.549	13.4
678.958	13.44
679.366	13.47
679.775	13.51
680.183	13.55
680.592	13.6
681	13.63
681.408	13.67
681.816	13.69
682.224	13.72
682.632	13.77
683.04	13.8
683.448	13.84
683.856	13.9
684.264	13.96
684.671	14.03
685.079	14.12
685.487	14.22
685.894	14.33
686.302	14.46
686.709	14.58
687.116	14.7
687.524	14.86
687.931	15.02
688.338	15.21
688.745	15.42
689.152	15.64
689.559	15.86
689.966	16.14
690.373	16.43
690.78	16.73
691.187	17.06
691.593	17.4
692	17.78
692.407	18.18
692.813	18.58
693.22	19.01
693.626	19.44
694.032	19.89
694.439	20.34
694.845	20.81
695.251	21.3
695.657	21.81
696.063	22.33
696.469	22.83
696.875	23.36
697.281	23.91
697.687	24.47
698.093	25.03
698.498	25.58
698.904	26.14
699.31	26.7
699.715	27.26
700.12	27.84
700.526	28.4
700.931	28.97
701.337	29.52
701.742	30.06
702.147	30.61
702.552	31.15
702.957	31.69
703.362	32.27
703.767	32.8
704.172	33.34
704.577	33.85
704.981	34.38
705.386	34.91
705.791	35.42
706.195	35.93
706.6	36.43
707.004	36.92
707.408	37.42
707.813	37.9
708.217	38.37
708.621	38.87
709.025	39.37
709.43	39.82
709.834	40.32
710.237	40.77
710.641	41.29
711.045	41.75
711.449	42.23
711.853	42.66
712.256	43.11
712.66	43.57
713.064	44.01
713.467	44.43
713.87	44.88
714.274	45.32
714.677	45.75
715.08	46.13
715.484	46.55
715.887	46.98
716.29	47.38
716.693	47.75
717.096	48.15
717.499	48.52
717.901	48.9
718.304	49.25
718.707	49.61
719.109	49.99
719.512	50.38
719.915	50.71
720.317	51.08
720.719	51.43
721.122	51.78
721.524	52.12
721.926	52.46
722.328	52.78
722.731	53.09
723.133	53.37
723.535	53.68
723.937	53.94
724.338	54.24
724.74	54.46
725.142	54.68
725.544	54.94
725.945	55.18
726.347	55.4
726.748	55.6
727.15	55.81
727.551	56.05
727.952	56.23
728.354	56.46
728.755	56.65
729.156	56.85
729.557	57.09
729.958	57.27
730.359	57.46
730.76	57.63
731.161	57.83
731.562	58.02
731.962	58.18
732.363	58.36
732.763	58.51
733.164	58.63
733.564	58.75
733.965	58.89
734.365	59.01
734.766	59.12
735.166	59.19
735.566	59.3
735.966	59.38
736.366	59.44
736.766	59.51
737.166	59.54
737.566	59.6
737.966	59.69
738.365	59.75
738.765	59.84
739.165	59.9
739.564	60.02
739.964	60.07
740.363	60.16
740.763	60.23
741.162	60.27
741.561	60.4
741.96	60.47
742.36	60.56
742.759	60.62
743.158	60.65
743.557	60.68
743.955	60.74
744.354	60.79
744.753	60.86
745.152	60.88
745.55	60.96
745.949	60.98
746.348	61.05
746.746	61.07
747.144	61.15
747.543	61.2
747.941	61.27
748.339	61.29
748.737	61.37
749.136	61.38
749.534	61.48
749.932	61.51
750.33	61.55
750.727	61.59
751.125	61.62
751.523	61.6
751.921	61.61
752.318	61.62
752.716	61.62
753.113	61.6
753.511	61.59
753.908	61.56
754.305	61.5
754.703	61.46
755.1	61.42
755.497	61.42
755.894	61.44
756.291	61.42
756.688	61.39
757.085	61.41
757.482	61.44
757.878	61.43
758.275	61.46
758.672	61.53
759.068	61.55
759.465	61.56
759.861	61.55
760.258	61.55
760.654	61.58
761.05	61.59
761.447	61.59
761.843	61.54
762.239	61.5
762.635	61.46
763.031	61.44
763.427	61.41
763.822	61.39
764.218	61.37
764.614	61.32
765.01	61.27
765.405	61.24
765.801	61.21
766.196	61.2
766.592	61.23
766.987	61.2
767.382	61.19
767.778	61.19
768.173	61.2
768.568	61.19
768.963	61.17
769.358	61.18
769.753	61.17
770.148	61.17
770.542	61.14
770.937	61.11
771.332	61.15
771.726	61.13
772.121	61.1
772.515	61.08
772.91	61.06
773.304	61.1
773.699	61.08
774.093	61.05
774.487	61.06
774.881	61.07
775.275	61.09
775.669	61.09
776.063	61.05
776.457	61.05
776.851	61.02
777.245	61.04
777.638	61.01
778.032	61.02
778.425	61.03
778.819	61.04
779.212	61.05
779.606	61.03
779.999	60.99
780.392	61.02
780.786	61.03
781.179	61.05
781.572	61.02
781.965	61.05
782.358	61.03
782.751	61.04
783.143	61.03
783.536	61.06
783.929	61.09
784.322	61.11
784.714	61.1
785.107	61.12
785.499	61.12
785.891	61.17
786.284	61.14
786.676	61.17
787.068	61.17
787.46	61.16
787.852	61.14
788.245	61.13
788.636	61.12
789.028	61.12
789.42	61.08
789.812	61.09
790.204	61.05
790.595	61.05
790.987	61.03
791.378	61.04
791.77	61.07
792.161	61.1
792.553	61.09
792.944	61.11
793.335	61.1
793.726	61.11
794.117	61.08
794.508	61.09
794.899	61.1
795.29	61.12
795.681	61.11
796.072	61.1
796.463	61.04
796.853	61.03
797.244	61
797.634	61
798.025	61.02
798.415	61.01
798.806	61.03
799.196	61.01
799.586	61
799.976	60.99
800.366	60.98
800.756	61.01
801.146	61
801.536	61.02
801.926	61.02
802.316	61.04
802.706	61.07
803.095	61.08
803.485	61.09
803.874	61.1
804.264	61.16
804.653	61.13
805.043	61.11
805.432	61.1
805.821	61.07
806.21	61.11
806.599	61.11
806.988	61.12
807.377	61.09
807.766	61.1
808.155	61.12
808.544	61.06
808.933	61.12
809.321	61.16
809.71	61.2
810.098	61.24
810.487	61.24
810.875	61.21
811.264	61.23
811.652	61.27
812.04	61.28
812.428	61.3
812.816	61.34
813.204	61.35
813.592	61.35
813.98	61.34
814.368	61.33
814.756	61.31
815.144	61.37
815.531	61.34
815.919	61.33
816.306	61.33
816.694	61.33
817.081	61.32
817.469	61.34
817.856	61.4
818.243	61.43
818.63	61.5
819.017	61.52
819.404	61.47
819.791	61.49
820.178	61.51
820.565	61.53
820.952	61.51
821.339	61.55
821.725	61.55
822.112	61.53
822.498	61.53
822.885	61.52
823.271	61.54
823.657	61.58
824.044	61.59
824.43	61.61
824.816	61.61
825.202	61.61
825.588	61.58
825.974	61.57
826.36	61.56
826.746	61.59
827.132	61.59
827.517	61.59
827.903	61.56
828.289	61.56
828.674	61.52
829.06	61.55
829.445	61.6
829.83	61.62
830.216	61.62
830.601	61.59
830.986	61.54
831.371	61.54
831.756	61.53
832.141	61.53
832.526	61.54
832.911	61.56
833.295	61.55
833.68	61.51
834.065	61.52
834.449	61.53
834.834	61.53
835.218	61.55
835.603	61.56
835.987	61.55
836.371	61.59
836.755	61.58
837.139	61.58
837.524	61.56
837.908	61.55
838.291	61.51
838.675	61.52
839.059	61.52
839.443	61.5
839.827	61.46
840.21	61.48
840.594	61.47
840.977	61.44
841.361	61.44
841.744	61.46
842.127	61.49
842.511	61.5
842.894	61.49
843.277	61.49
843.66	61.51
844.043	61.51
844.426	61.48
844.809	61.46
845.191	61.46
845.574	61.42
845.957	61.37
846.339	61.32
846.722	61.32
847.104	61.3
847.487	61.31
847.869	61.31
848.252	61.26
848.634	61.29
849.016	61.29
849.398	61.32
849.78	61.35
850.162	61.36
850.544	61.39
850.926	61.36
851.307	61.38
851.689	61.34
852.071	61.37
852.452	61.41
852.834	61.4
853.215	61.39
853.597	61.38
853.978	61.35
854.359	61.35
854.741	61.31
855.122	61.33
855.503	61.34
855.884	61.36
856.265	61.31
856.646	61.29
857.026	61.29
857.407	61.27
857.788	61.32
858.169	61.33
858.549	61.36
858.93	61.38
859.31	61.34
859.69	61.3
860.071	61.3
860.451	61.31
860.831	61.34
861.211	61.32
861.591	61.32
861.971	61.26
862.351	61.27
862.731	61.25
863.111	61.27
863.491	61.31
863.87	61.32
864.25	61.36
864.629	61.34
865.009	61.33
865.388	61.32
865.768	61.31
866.147	61.33
866.526	61.31
866.905	61.3
867.284	61.27
867.663	61.25
868.042	61.25
868.421	61.21
868.8	61.21
869.179	61.21
869.558	61.2
869.936	61.18
870.315	61.16
870.693	61.18
871.072	61.2
871.45	61.18
871.828	61.19
872.207	61.21
872.585	61.23
872.963	61.22
873.341	61.25
873.719	61.25
874.097	61.29
874.475	61.29
874.853	61.28
875.23	61.28
875.608	61.32
875.986	61.32
876.363	61.28
876.741	61.26
877.118	61.26
877.495	61.22
877.873	61.21
878.25	61.17
878.627	61.15
879.004	61.14
879.381	61.13
879.758	61.08
880.135	61.07
880.512	61.06
880.889	61.09
881.265	61.1
881.642	61.09
882.019	61.14
882.395	61.16
882.772	61.16
883.148	61.15
883.524	61.17
883.901	61.17
884.277	61.14
884.653	61.17
885.029	61.14
885.405	61.1
885.781	61.07
886.157	61.02
886.532	60.98
886.908	61.03
887.284	61.04
887.659	61.03
888.035	61.04
888.411	61.03
888.786	61
889.161	61.02
889.537	61.04
889.912	61.04
890.287	61.03
890.662	61.06
891.037	61
891.412	60.97
891.787	60.95
892.162	60.93
892.536	60.96
892.911	60.95
893.286	60.9
893.66	60.9
894.035	60.89
894.409	60.87
894.784	60.88
895.158	60.89
895.532	60.87
895.906	60.83
896.281	60.81
896.655	60.77
897.029	60.76
897.402	60.77
897.776	60.76
898.15	60.73
898.524	60.72
898.898	60.67
899.271	60.65
899.645	60.67
900.018	60.65
900.392	60.68
900.765	60.68
901.138	60.67
901.511	60.67
901.884	60.65
902.258	60.68
902.631	60.72
903.003	60.74
903.376	60.74
903.749	60.72
904.122	60.76
904.495	60.74
904.867	60.73
905.24	60.72
905.612	60.67
905.985	60.65
906.357	60.6
906.729	60.56
907.102	60.54
907.474	60.5
907.846	60.5
908.218	60.45
908.59	60.38
908.962	60.37
909.334	60.36
909.705	60.35
910.077	60.34
910.449	60.39
910.82	60.35
911.192	60.32
911.563	60.32
911.935	60.25
912.306	60.26
912.677	60.3
913.048	60.29
913.419	60.25
913.79	60.22
914.161	60.21
914.532	60.14
914.903	60.14
915.274	60.12
915.645	60.13
916.015	60.17
916.386	60.14
916.756	60.08
917.127	60.08
917.497	60.09
917.868	60.1
918.238	60.1
918.608	60.1
918.978	60.07
919.348	60.05
919.718	60.04
920.088	60.05
920.458	60.13
920.828	60.14
921.198	60.14
921.567	60.14
921.937	60.15
922.306	60.13
922.676	60.17
923.045	60.14
923.415	60.18
923.784	60.14
924.153	60.13
924.522	60.03
924.891	60.04
925.26	60.01
925.629	60.01
925.998	60
926.367	59.98
926.736	59.95
927.104	59.97
927.473	59.95
927.842	59.92
928.21	59.91
928.578	59.9
928.947	59.86
929.315	59.84
929.683	59.81
930.051	59.77
930.42	59.79
930.788	59.73
931.156	59.67
931.523	59.62
931.891	59.57
932.259	59.47
932.627	59.37
932.994	59.32
933.362	59.27
933.729	59.18
934.097	59.14
934.464	59.09
934.831	59.03
935.199	58.97
935.566	58.87
935.933	58.89
936.3	58.8
936.667	58.79
937.034	58.75
937.401	58.67
937.767	58.62
938.134	58.5
938.501	58.36
938.867	58.36
939.234	58.39
939.6	58.42
939.967	58.42
940.333	58.6
940.699	58.7
941.065	58.8
941.431	58.9
941.798	59
942.163	59.17
942.529	59.28
942.895	59.32
943.261	59.39
943.627	59.47
943.992	59.49
944.358	59.47
944.723	59.34
945.089	59.37
945.454	59.4
945.82	59.39
946.185	59.44
946.55	59.56
946.915	59.61
947.28	59.58
947.645	59.58
948.01	59.57
948.375	59.55
948.74	59.59
949.104	59.64
949.469	59.58
949.834	59.57
950.198	59.38
950.562	59.25
950.927	59.18
951.291	59.1
951.655	59.06
952.02	59.05
952.384	59.05
952.748	59.09
953.112	58.96
953.476	58.91
953.839	58.84
954.203	58.82
954.567	58.76
954.931	58.75
955.294	58.76
955.658	58.72
956.021	58.66
956.385	58.63
956.748	58.59
957.111	58.59
957.474	58.58
957.837	58.63
958.2	58.6
958.563	58.6
958.926	58.5
959.289	58.45
959.652	58.4
960.015	58.35
960.377	58.29
960.74	58.23
961.102	58.18
961.465	58.19
961.827	58
962.189	58
962.552	58
962.914	58.02
963.276	58.02
963.638	58.02
964	58.04
964.362	58.07
964.724	58.13
965.085	58.16
965.447	58.11
965.809	58.16
966.17	58.17
966.532	58.09
966.893	58.01
967.255	58.01
967.616	57.96
967.977	57.9
968.338	57.85
968.699	57.72
969.061	57.58
969.421	57.62
969.782	57.65
970.143	57.61
970.504	57.62
970.865	57.62
971.225	57.61
971.586	57.63
971.946	57.68
972.307	57.74
972.667	57.84
973.027	57.96
973.388	57.82
973.748	57.83
974.108	57.83
974.468	57.86
974.828	57.92
975.188	57.96
975.548	57.92
975.907	57.95
976.267	57.85
976.627	57.76
976.986	57.72
977.346	57.86
977.705	57.88
978.064	57.9
978.424	57.84
978.783	57.83
979.142	57.77
979.501	57.73
979.86	57.75
980.219	57.67
980.578	57.68
980.937	57.72
981.296	57.65
981.654	57.71
982.013	57.75
982.371	57.78
982.73	57.73
983.088	57.67
983.447	57.74
983.805	57.76
984.163	57.83
984.521	57.66
984.879	57.7
985.237	57.73
985.595	57.65
985.953	57.56
986.311	57.64
986.669	57.67
987.026	57.71
987.384	57.67
987.741	57.63
988.099	57.61
988.456	57.8
988.814	57.78
989.171	57.67
989.528	57.55
989.885	57.59
990.242	57.48
990.599	57.5
990.956	57.48
991.313	57.48
991.67	57.43
992.027	57.43
992.383	57.38
992.74	57.3
993.096	57.31
993.453	57.47
993.809	57.59
994.165	57.66
994.522	57.57
994.878	57.57
995.234	57.55
995.59	57.43
995.946	57.44
996.302	57.33
996.658	57.31
997.013	57.36
997.369	57.23
997.725	57.07
998.08	57.09
998.436	57.17
998.791	57.22
999.147	57.28
999.502	57.36
999.857	57.3
1000.212	57.47
1000.567	57.5
1000.922	57.47
1001.277	57.53
1001.632	57.55
1001.987	57.51
1002.342	57.52
1002.696	57.5
1003.051	57.25
1003.406	57.29
1003.76	57.21
1004.114	57.18
1004.469	57.08
1004.823	57.11
1005.177	57.14
1005.531	56.97
1005.885	56.89
1006.239	56.88
1006.593	56.77
1006.947	56.89
1007.301	56.87
1007.655	56.84
1008.008	56.71
1008.362	56.7
1008.715	56.57
1009.069	56.39
1009.422	56.21
1009.776	56.13
1010.129	55.95
1010.482	56
1010.835	56.08
1011.188	56.03
1011.541	55.97
1011.894	55.96
1012.247	55.93
1012.6	55.89
1012.952	55.92
1013.305	56.19
1013.657	56.2
1014.01	56.45
1014.362	56.55
1014.715	56.35
1015.067	56.29
1015.419	56.43
1015.771	56.4
1016.123	56.52
1016.475	56.68
1016.827	56.82
1017.179	56.91
1017.531	56.86
1017.883	56.75
1018.234	56.75
1018.586	56.8
1018.938	56.72
1019.289	56.63
1019.64	56.95
1019.992	56.86
1020.343	56.8
1020.694	56.71
1021.045	56.63
1021.396	56.68
1021.747	56.45
1022.098	56.3
1022.449	56.13
1022.8	56.18
1023.151	56.17
1023.501	56.17
1023.852	56.39
1024.202	56.37
1024.553	56.38
1024.903	56.53
1025.253	56.72
1025.604	56.78
1025.954	56.57
1026.304	57.07
1026.654	57.19
1027.004	57.24
1027.354	56.74
1027.703	56.57
1028.053	56.24
1028.403	56.25
1028.753	56.22
1029.102	55.88
1029.452	55.83
1029.801	55.91
1030.15	55.54
1030.499	55.4
897.758	503.61
901.051	507.43
904.343	515
907.636	506.18
910.928	495.04
914.22	506.26
917.511	494.22
920.803	469.43
924.094	453.25
927.384	458.32
930.675	441.1
933.965	436.87
937.255	441.31
940.544	420.62
943.834	399.72
947.123	396.02
950.411	374.39
953.7	369.31
956.988	360.53
960.276	341.91
963.563	336.62
966.851	319.68
970.138	315.43
973.424	291.63
976.711	289.33
979.997	282.01
983.283	276.22
986.568	266.79
989.853	260.61
993.138	251.32
996.423	250.36
999.708	243.32
1002.992	244.95
1006.275	238.28
1009.559	236.35
1012.842	230.44
1016.125	223.28
1019.408	219.3
1022.69	217.89
1025.972	216.84
1029.254	210.81
1032.536	206.83
1035.817	200.22
1039.098	197.84
1042.379	193.72
1045.659	191.9
1048.939	188.91
1052.219	187.3
1055.498	183.97
1058.778	181.25
1062.057	177.46
1065.335	178.24
1068.614	174.63
1071.892	172.96
1075.17	169.72
1078.447	168.13
1081.724	166.74
1085.001	164.49
1088.278	163.48
1091.554	163.14
1094.83	161.5
1098.106	159.01
1101.382	157.66
1104.657	157.89
1107.932	157.43
1111.206	157.1
1114.481	155.1
1117.755	153.91
1121.029	153.14
1124.302	151.18
1127.575	148.54
1130.848	148.31
1134.121	147.32
1137.393	146.77
1140.665	145.34
1143.937	143.38
1147.208	141.45
1150.48	140.29
1153.75	139.75
1157.021	139.34
1160.291	138.61
1163.561	138.82
1166.831	138.2
1170.101	138.23
1173.37	136.31
1176.639	134.94
1179.907	135.4
1183.176	135.11
1186.444	134.66
1189.711	134.04
1192.979	134.51
1196.246	134.92
1199.513	134.25
1202.78	134.52
1206.046	134.01
1209.312	135.09
1212.578	136.33
1215.843	137.18
1219.108	138.15
1222.373	141.07
1225.638	142.34
1228.902	144.74
1232.166	147.97
1235.43	150.48
1238.693	153.77
1241.956	156.37
1245.219	160.69
1248.482	161.33
1251.744	161.85
1255.006	162.26
1258.268	157.49
1261.529	156.64
1264.79	153.24
1268.051	151.04
1271.312	148.64
1274.572	145.6
1277.832	142.45
1281.092	140.86
1284.351	138.48
1287.61	138.15
1290.869	137.25
1294.128	137.62
1297.386	136.75
1300.644	135.88
1303.902	134.76
1307.159	135.02
1310.416	135.19
1313.673	137.36
1316.93	137.62
1320.186	139.46
1323.442	140.58
1326.697	143.09
1329.953	143.55
1333.208	147.59
1336.463	153.12
1339.717	155.91
1342.972	162.21
1346.226	166.65
1349.479	168.17
1352.733	175.17
1355.986	178.85
1359.238	182.77
1362.491	183.63
1365.743	189.44
1368.995	191.9
1372.247	191.25
1375.498	191.55
1378.749	195.82
1382	193.9
1385.251	193.53
1388.501	191.61
1391.751	193.51
1395	191.18
1398.25	192.31
1401.499	191.75
1404.748	189.87
1407.996	184.44
1411.244	183.46
1414.492	181.16
1417.74	175.72
1420.987	171.13
1424.234	168.56
1427.481	161.63
1430.728	157.81
1433.974	152.6
1437.22	147.98
1440.465	142.96
1443.711	139.38
1446.956	135.51
1450.201	129.86
1453.445	124.99
1456.689	122
1459.933	117.73
1463.177	112.34
1466.42	110.28
1469.663	107.27
1472.906	104.2
1476.148	102.38
1479.391	100.18
1482.633	98.75
1485.874	97.55
1489.115	97.18
1492.356	94.95
1495.597	93.97
1498.838	94.59
1502.078	93.91
1505.318	93.61
1508.557	93.2
1511.797	92.11
1515.036	92.45
1518.274	92.07
1521.513	91.25
1524.751	90.23
1527.989	91.12
1531.227	90.94
1534.464	90.52
1537.701	90.29
1540.938	90.09
1544.174	89.86
1547.41	90.36
1550.646	89.63
1553.882	89.49
1557.117	89.64
1560.352	90.07
1563.587	88.95
1566.821	88.85
1570.055	88.74
1573.289	88.66
1576.523	88.85
1579.756	88.73
1582.989	88.41
1586.222	89.08
1589.454	88.28
1592.686	88.35
1595.918	88.1
1599.15	88.46
1602.381	88.74
1605.612	89
1608.843	88.4
1612.073	89
1615.303	89.44
1618.533	88.96
1621.762	89.33
1624.992	89.94
1628.221	89.54
1631.449	89.93
1634.678	89.52
1637.906	89.78
1641.134	89.68
1644.361	90.09
1647.588	89.75
1650.815	89.49
1654.042	89.89
1657.269	89.61
1660.495	90.25
1663.72	90.35
1666.946	90.39
1670.171	91.21
1673.396	91.53
1676.621	91.72
1679.845	91.98
1683.069	91.99
1686.293	91.57
1689.517	91.96
1692.74	91.72
1695.963	91.8
1699.185	92.36
1702.408	92.37
1705.63	92.47
1708.852	92.78
1712.073	92.59
1715.294	92.45
1718.515	92.75
1721.736	93.48
1724.956	92.92
1728.176	92.87
1731.396	93.12
1734.616	92.72
1737.835	92.92
1741.054	92.99
1744.272	91.69
1747.491	92.34
1750.709	92.69
1753.927	92.57
1757.144	92.92
1760.361	93.57
1763.578	93.79
1766.795	94.28
1770.011	94.3
1773.227	94.7
1776.443	95.16
1779.658	95.78
1782.874	95.98
1786.089	95.6
1789.303	95.97
1792.518	96.42
1795.732	97
1798.945	97.85
1802.159	97.37
1805.372	98.71
1808.585	98.83
1811.797	99.47
1815.01	100.83
1818.222	101.08
1821.434	102.76
1824.645	102.6
1827.856	103.7
1831.067	104.08
1834.278	104.7
1837.488	105.85
1840.698	106.54
1843.908	107.2
1847.117	107.82
1850.326	108.39
1853.535	108.34
1856.744	109.51
1859.952	110.68
1863.16	110.37
1866.368	109.61
1869.575	110.48
1872.782	109.65
1875.989	107.99
1879.196	107.3
1882.402	105.64
1885.608	106
1888.814	105.81
1892.019	105.93
1895.224	104.23
1898.429	104.51
1901.634	105.75
1904.838	105.71
1908.042	105.95
1911.246	106.6
1914.449	107.45
1917.652	107.77
1920.855	107.64
1924.058	107.43
1927.26	106.19
1930.462	106.99
1933.664	107.03
1936.865	106.36
1940.066	104.57
1943.267	103.79
1946.467	104.86
1949.668	104.44
1952.868	105.36
1956.067	105.33
1959.267	105.17
1962.466	105.82
1965.665	106.79
1968.863	107.8
1972.061	107.4
1975.259	110.53
1978.457	111.89
1981.654	111.96
1984.852	113.34
1988.048	114.22
1991.245	116.28
1994.441	119.06
1997.637	120.86
2000.833	123.61
2004.028	123.26
2007.223	128.34
2010.418	129.88
2013.613	136.89
2016.807	141.23
2020.001	143.03
2023.194	147.42
2026.388	150.33
2029.581	158.14
2032.774	163.49
2035.966	167.44
2039.158	173.69
2042.35	176.46
2045.542	179.81
2048.733	183.27
2051.924	184.36
2055.115	188.11
2058.306	189.63
2061.496	194.41
2064.686	195.03
2067.875	191.77
2071.065	194.6
2074.254	195.25
2077.442	200.96
2080.631	200.92
2083.819	202.06
2087.007	208.67
2090.195	210.59
2093.382	210.21
2096.569	210.44
2099.756	212.19
2102.942	219.2
2106.128	223.77
2109.314	225.18
2112.5	224.16
2115.685	224.47
2118.87	225.34
2122.055	226.24
2125.239	231.07
2128.424	238.31
2131.608	236.83
2134.791	235.44
2137.974	238.33
2141.157	238.76
2144.34	241.8
2147.523	243.43
2150.705	251.25
2153.887	249.08
2157.068	250.73
2160.25	255.7
2163.431	251.78
2166.611	255.16
2169.792	262.69
2172.972	266.27
2176.152	266.04
2179.331	272.04
2182.511	273.5
2185.69	276.52
2188.868	288.06
2192.047	290.45
2195.225	293.14
2198.403	298.76
2201.58	298.43
2204.758	306.58
2207.935	306.36
2211.111	311.95
2214.288	312.65
2217.464	317.12
2220.64	320.04
2223.815	318.93
2226.991	317.92
2230.166	320.36
2233.34	330.64
2236.515	336.75
2239.689	333.61
2242.863	337.39
2246.036	336.83
2249.209	344.99
2252.382	345.2
2255.555	355.98
2258.727	359.17
2261.9	370.09
2265.071	373.28
2268.243	368.64
2271.414	384.1
2274.585	392
2277.756	395.91
2280.926	409.54
2284.096	405.34
2287.266	408.86
2290.436	400.2
2293.605	410.94
2296.774	425.91
2299.942	426.1
2303.111	442.31
2306.279	444.74
2309.447	445.92
2312.614	446.27
2315.781	457.73
2318.948	472.26
2322.115	480.19
2325.281	502.31
2328.447	498.54
2331.613	496.95
2334.779	506.09
2337.944	512.51
2341.109	524.1
2344.274	527.01
2347.438	545.47
2350.602	553.78
2353.766	580.6
2356.929	582.54
2360.092	591.49
2363.255	591.3
2366.418	605.28
2369.58	620.43
2372.742	609.77
2375.904	606.51
2379.066	624.72
2382.227	656.02
2385.388	652.86
2388.548	626.26
2391.709	622.43
2394.869	642.78
2398.029	649.77
2401.188	653.32
2404.347	667.54
2407.506	698.72
2410.665	673.33
2413.823	678.36
2416.981	676.11
2420.139	641.81
2423.296	693.16
2426.453	732.12
2429.61	702.77
2432.767	743.18
2435.923	765.38
2439.079	739.26
2442.235	757.22
2445.391	779.5
2448.546	767.04
2451.701	809.75
2454.855	865.47
2458.009	759.15
2461.163	774.56
2464.317	775.18
2467.471	763.86
2470.624	786.56
2473.777	776.42
2476.929	750.73
2480.082	797.66
2483.234	838.51
2486.385	848.87
2489.537	870.28
2492.688	963.21
2495.839	947.68
2498.989	979.26
2502.14	979.44
2505.29	935.83
2508.439	1039.19
2511.589	1069.58
2514.738	1038.18
2517.887	1031.09
2521.035	969.38
2524.183	950.48
2527.331	941.93
2530.479	922.45
2533.627	943.41
