Data from N_1_dec_ct_2n_033_Splice17_17.txt Node
Date: Sat Feb 29 13:47:29 EST 2020
User: sa697716
Spectrometer: FLMS03696
Trigger mode: 0
Integration Time (sec): 3.180400E-1
Scans to average: 20
Electric dark correction enabled: true
Nonlinearity correction enabled: true
Boxcar width: 5
XAxis mode: Wavelengths
Number of Pixels in Spectrum: 2048
>>>>>Begin Spectral Data<<<<<
187.83	78.73
188.298	77.49
188.766	70.5
189.233	67.81
189.701	74.13
190.169	78.81
190.636	87.04
191.104	83.78
191.571	217.58
192.039	141.56
192.506	114.81
192.974	6087.26
193.441	-415.67
193.908	123.13
194.375	59.46
194.842	102.24
195.31	74.65
195.777	70.92
196.244	40.63
196.711	52.66
197.177	54.17
197.644	54.78
198.111	54.75
198.578	55.46
199.045	55.06
199.511	56.36
199.978	56.78
200.445	56.59
200.911	56.55
201.378	56.94
201.844	57.32
202.31	57.65
202.777	57.62
203.243	57.68
203.709	57.82
204.176	57.79
204.642	57.24
205.108	56.8
205.574	57.05
206.04	57.29
206.506	57.08
206.972	56.52
207.438	56.14
207.903	56.3
208.369	55.47
208.835	55.08
209.301	54.83
209.766	54.72
210.232	54.66
210.697	54.36
211.163	53.84
211.628	53.4
212.094	53.17
212.559	52.85
213.024	52.41
213.49	52.26
213.955	51.77
214.42	51.22
214.885	50.59
215.35	50.06
215.815	49.03
216.28	48.01
216.745	46.83
217.21	45.64
217.675	44.4
218.14	43.21
218.604	42.12
219.069	41.29
219.534	40.44
219.998	39.78
220.463	39.11
220.927	38.63
221.392	38.07
221.856	37.66
222.32	37.2
222.785	36.79
223.249	36.38
223.713	36.08
224.177	35.72
224.642	35.39
225.106	35.01
225.57	34.66
226.034	34.31
226.497	34.02
226.961	33.63
227.425	33.29
227.889	32.95
228.353	32.6
228.816	32.25
229.28	31.88
229.744	31.55
230.207	31.24
230.671	30.88
231.134	30.51
231.597	30.17
232.061	29.89
232.524	29.6
232.987	29.3
233.45	29.01
233.914	28.7
234.377	28.43
234.84	28.17
235.303	27.87
235.766	27.62
236.229	27.39
236.691	27.13
237.154	26.85
237.617	26.59
238.08	26.35
238.542	26.13
239.005	25.92
239.468	25.65
239.93	25.42
240.393	25.22
240.855	25
241.317	24.79
241.78	24.6
242.242	24.4
242.704	24.21
243.166	24.01
243.629	23.81
244.091	23.62
244.553	23.47
245.015	23.32
245.477	23.16
245.939	23
246.4	22.81
246.862	22.66
247.324	22.51
247.786	22.35
248.247	22.23
248.709	22.1
249.17	21.96
249.632	21.81
250.093	21.65
250.555	21.52
251.016	21.4
251.477	21.28
251.939	21.18
252.4	21.07
252.861	20.98
253.322	20.88
253.783	20.78
254.244	20.7
254.705	20.64
255.166	20.59
255.627	20.5
256.088	20.42
256.549	20.36
257.009	20.27
257.47	20.23
257.931	20.15
258.391	20.07
258.852	20.01
259.312	19.95
259.773	19.88
260.233	19.8
260.694	19.75
261.154	19.69
261.614	19.63
262.074	19.6
262.534	19.52
262.994	19.48
263.455	19.45
263.915	19.4
264.374	19.36
264.834	19.34
265.294	19.3
265.754	19.27
266.214	19.24
266.673	19.22
267.133	19.19
267.593	19.18
268.052	19.15
268.512	19.12
268.971	19.11
269.431	19.1
269.89	19.08
270.349	19.07
270.809	19.07
271.268	19.06
271.727	19.05
272.186	19.03
272.645	19
273.104	18.99
273.563	18.99
274.022	18.96
274.481	18.93
274.94	18.91
275.399	18.89
275.857	18.86
276.316	18.83
276.775	18.8
277.233	18.77
277.692	18.75
278.15	18.72
278.609	18.69
279.067	18.66
279.525	18.63
279.984	18.6
280.442	18.58
280.9	18.55
281.358	18.53
281.816	18.52
282.274	18.5
282.732	18.48
283.19	18.48
283.648	18.48
284.106	18.47
284.564	18.48
285.021	18.48
285.479	18.49
285.937	18.5
286.394	18.5
286.852	18.51
287.309	18.52
287.767	18.52
288.224	18.5
288.682	18.48
289.139	18.47
289.596	18.45
290.053	18.41
290.511	18.39
290.968	18.35
291.425	18.32
291.882	18.3
292.339	18.27
292.796	18.25
293.252	18.25
293.709	18.22
294.166	18.2
294.623	18.19
295.079	18.19
295.536	18.17
295.992	18.16
296.449	18.17
296.905	18.15
297.362	18.15
297.818	18.14
298.274	18.14
298.731	18.13
299.187	18.13
299.643	18.12
300.099	18.1
300.555	18.09
301.011	18.09
301.467	18.07
301.923	18.06
302.379	18.05
302.835	18.03
303.291	18.01
303.746	18
304.202	17.99
304.658	17.98
305.113	17.97
305.569	17.97
306.024	17.96
306.479	17.96
306.935	17.95
307.39	17.95
307.845	17.95
308.301	17.95
308.756	17.96
309.211	17.96
309.666	17.97
310.121	17.97
310.576	17.99
311.031	17.99
311.486	18
311.94	18
312.395	18.01
312.85	18.02
313.305	18.03
313.759	18.03
314.214	18.03
314.668	18.02
315.123	18.02
315.577	18.01
316.032	18
316.486	18
316.94	17.98
317.394	17.95
317.849	17.94
318.303	17.92
318.757	17.9
319.211	17.87
319.665	17.86
320.119	17.84
320.572	17.82
321.026	17.78
321.48	17.75
321.934	17.74
322.387	17.72
322.841	17.71
323.295	17.68
323.748	17.65
324.202	17.64
324.655	17.61
325.108	17.58
325.562	17.53
326.015	17.51
326.468	17.49
326.921	17.46
327.374	17.45
327.827	17.41
328.28	17.4
328.733	17.38
329.186	17.37
329.639	17.34
330.092	17.33
330.545	17.34
330.997	17.33
331.45	17.31
331.903	17.3
332.355	17.3
332.808	17.28
333.26	17.29
333.713	17.29
334.165	17.29
334.617	17.28
335.069	17.29
335.522	17.29
335.974	17.31
336.426	17.32
336.878	17.33
337.33	17.32
337.782	17.35
338.234	17.34
338.686	17.33
339.137	17.32
339.589	17.32
340.041	17.31
340.493	17.28
340.944	17.26
341.396	17.23
341.847	17.19
342.299	17.14
342.75	17.06
343.201	17.01
343.653	16.98
344.104	16.94
344.555	16.9
345.006	16.86
345.457	16.83
345.908	16.79
346.359	16.78
346.81	16.75
347.261	16.74
347.712	16.74
348.163	16.72
348.613	16.7
349.064	16.68
349.515	16.66
349.965	16.64
350.416	16.64
350.866	16.64
351.317	16.61
351.767	16.6
352.217	16.58
352.668	16.58
353.118	16.58
353.568	16.59
354.018	16.59
354.468	16.59
354.918	16.59
355.368	16.58
355.818	16.57
356.268	16.58
356.718	16.57
357.168	16.56
357.617	16.56
358.067	16.55
358.517	16.54
358.966	16.53
359.416	16.53
359.865	16.53
360.315	16.53
360.764	16.52
361.213	16.51
361.663	16.52
362.112	16.53
362.561	16.53
363.01	16.52
363.459	16.53
363.908	16.52
364.357	16.52
364.806	16.52
365.255	16.51
365.703	16.51
366.152	16.53
366.601	16.52
367.05	16.52
367.498	16.54
367.947	16.55
368.395	16.58
368.844	16.59
369.292	16.59
369.74	16.6
370.189	16.63
370.637	16.65
371.085	16.66
371.533	16.7
371.981	16.72
372.429	16.74
372.877	16.76
373.325	16.78
373.773	16.82
374.221	16.87
374.669	16.91
375.116	16.94
375.564	16.97
376.012	17.01
376.459	17.06
376.907	17.14
377.354	17.18
377.801	17.26
378.249	17.34
378.696	17.42
379.143	17.49
379.591	17.56
380.038	17.65
380.485	17.75
380.932	17.83
381.379	17.9
381.826	17.97
382.273	18.06
382.72	18.14
383.166	18.22
383.613	18.3
384.06	18.38
384.506	18.46
384.953	18.55
385.4	18.63
385.846	18.72
386.292	18.82
386.739	18.91
387.185	19.01
387.631	19.09
388.078	19.18
388.524	19.25
388.97	19.32
389.416	19.38
389.862	19.44
390.308	19.5
390.754	19.57
391.2	19.63
391.645	19.7
392.091	19.76
392.537	19.82
392.983	19.88
393.428	19.96
393.874	20.03
394.319	20.08
394.765	20.13
395.21	20.16
395.655	20.19
396.101	20.22
396.546	20.25
396.991	20.27
397.436	20.27
397.881	20.28
398.326	20.31
398.771	20.35
399.216	20.39
399.661	20.39
400.106	20.42
400.551	20.43
400.995	20.41
401.44	20.38
401.885	20.36
402.329	20.35
402.774	20.34
403.218	20.32
403.663	20.29
404.107	20.28
404.551	20.29
404.995	20.27
405.44	20.25
405.884	20.25
406.328	20.23
406.772	20.2
407.216	20.2
407.66	20.18
408.104	20.17
408.547	20.15
408.991	20.1
409.435	20.06
409.879	20.02
410.322	20.01
410.766	19.97
411.209	19.97
411.653	19.97
412.096	19.93
412.54	19.9
412.983	19.85
413.426	19.84
413.869	19.84
414.312	19.84
414.756	19.83
415.199	19.83
415.642	19.84
416.085	19.85
416.527	19.83
416.97	19.82
417.413	19.8
417.856	19.76
418.298	19.71
418.741	19.67
419.184	19.64
419.626	19.6
420.069	19.56
420.511	19.52
420.953	19.47
421.396	19.42
421.838	19.43
422.28	19.46
422.722	19.49
423.164	19.48
423.606	19.49
424.048	19.46
424.49	19.45
424.932	19.45
425.374	19.41
425.816	19.38
426.258	19.34
426.699	19.25
427.141	19.17
427.582	19.1
428.024	19.08
428.465	19.09
428.907	19.1
429.348	19.08
429.789	19.06
430.231	19.06
430.672	19.06
431.113	19.12
431.554	19.18
431.995	19.22
432.436	19.27
432.877	19.28
433.318	19.25
433.759	19.27
434.2	19.28
434.64	19.3
435.081	19.33
435.522	19.37
435.962	19.36
436.403	19.41
436.843	19.45
437.284	19.49
437.724	19.52
438.164	19.55
438.604	19.58
439.045	19.63
439.485	19.68
439.925	19.69
440.365	19.69
440.805	19.71
441.245	19.7
441.685	19.73
442.125	19.77
442.564	19.84
443.004	19.89
443.444	19.93
443.883	19.98
444.323	20.01
444.762	20.1
445.202	20.23
445.641	20.32
446.081	20.44
446.52	20.51
446.959	20.61
447.398	20.7
447.837	20.82
448.276	20.87
448.716	20.96
449.154	21.07
449.593	21.11
450.032	21.15
450.471	21.18
450.91	21.22
451.349	21.27
451.787	21.3
452.226	21.3
452.664	21.3
453.103	21.33
453.541	21.36
453.98	21.38
454.418	21.43
454.856	21.47
455.295	21.5
455.733	21.53
456.171	21.54
456.609	21.55
457.047	21.59
457.485	21.64
457.923	21.69
458.361	21.7
458.798	21.73
459.236	21.76
459.674	21.78
460.111	21.8
460.549	21.81
460.987	21.84
461.424	21.88
461.862	21.9
462.299	21.89
462.736	21.9
463.173	21.92
463.611	21.95
464.048	21.96
464.485	21.96
464.922	21.98
465.359	22
465.796	21.97
466.233	21.96
466.67	21.97
467.106	21.97
467.543	21.98
467.98	22
468.416	21.99
468.853	21.99
469.29	21.99
469.726	21.98
470.162	21.98
470.599	21.99
471.035	22.03
471.471	22
471.907	21.99
472.344	21.98
472.78	21.95
473.216	21.95
473.652	21.93
474.088	21.91
474.523	21.89
474.959	21.87
475.395	21.87
475.831	21.87
476.266	21.87
476.702	21.88
477.138	21.87
477.573	21.86
478.008	21.84
478.444	21.84
478.879	21.86
479.314	21.85
479.75	21.86
480.185	21.86
480.62	21.84
481.055	21.87
481.49	21.86
481.925	21.86
482.36	21.88
482.795	21.89
483.229	21.93
483.664	21.93
484.099	21.98
484.534	22.02
484.968	22.07
485.403	22.11
485.837	22.17
486.271	22.22
486.706	22.3
487.14	22.4
487.574	22.48
488.009	22.58
488.443	22.69
488.877	22.8
489.311	22.91
489.745	23.03
490.179	23.17
490.613	23.31
491.046	23.46
491.48	23.64
491.914	23.79
492.348	23.96
492.781	24.13
493.215	24.32
493.648	24.52
494.082	24.72
494.515	24.95
494.948	25.17
495.382	25.41
495.815	25.66
496.248	25.89
496.681	26.14
497.114	26.39
497.547	26.67
497.98	26.94
498.413	27.21
498.846	27.52
499.279	27.8
499.711	28.1
500.144	28.4
500.577	28.71
501.009	29.03
501.442	29.39
501.874	29.74
502.306	30.1
502.739	30.45
503.171	30.83
503.603	31.23
504.036	31.61
504.468	32.03
504.9	32.46
505.332	32.87
505.764	33.32
506.196	33.77
506.627	34.23
507.059	34.68
507.491	35.13
507.923	35.58
508.354	36.02
508.786	36.48
509.217	36.94
509.649	37.4
510.08	37.9
510.512	38.36
510.943	38.82
511.374	39.28
511.805	39.76
512.237	40.25
512.668	40.73
513.099	41.24
513.53	41.72
513.961	42.22
514.391	42.69
514.822	43.15
515.253	43.61
515.684	44.05
516.114	44.51
516.545	44.92
516.975	45.35
517.406	45.76
517.836	46.14
518.267	46.54
518.697	46.9
519.127	47.28
519.558	47.63
519.988	47.98
520.418	48.34
520.848	48.66
521.278	49.02
521.708	49.23
522.138	49.54
522.567	49.88
522.997	50.17
523.427	50.48
523.857	50.74
524.286	51.01
524.716	51.27
525.145	51.53
525.575	51.81
526.004	52.06
526.433	52.41
526.863	52.65
527.292	52.86
527.721	53.08
528.15	53.28
528.579	53.51
529.008	53.7
529.437	53.92
529.866	54.11
530.295	54.27
530.724	54.44
531.152	54.62
531.581	54.77
532.01	54.91
532.438	55.08
532.867	55.21
533.295	55.34
533.723	55.5
534.152	55.6
534.58	55.72
535.008	55.82
535.436	55.91
535.865	55.98
536.293	56.09
536.721	56.19
537.149	56.25
537.576	56.32
538.004	56.37
538.432	56.42
538.86	56.52
539.287	56.58
539.715	56.67
540.143	56.71
540.57	56.76
540.998	56.82
541.425	56.89
541.852	56.96
542.28	57.02
542.707	57.1
543.134	57.17
543.561	57.17
543.988	57.21
544.415	57.23
544.842	57.29
545.269	57.34
545.696	57.37
546.123	57.4
546.549	57.45
546.976	57.5
547.403	57.53
547.829	57.58
548.256	57.63
548.682	57.65
549.108	57.7
549.535	57.76
549.961	57.8
550.387	57.82
550.813	57.83
551.24	57.82
551.666	57.85
552.092	57.88
552.518	57.84
552.943	57.87
553.369	57.9
553.795	57.92
554.221	57.91
554.646	57.91
555.072	57.93
555.498	57.93
555.923	57.91
556.349	57.85
556.774	57.81
557.199	57.81
557.625	57.75
558.05	57.69
558.475	57.61
558.9	57.56
559.325	57.51
559.75	57.44
560.175	57.36
560.6	57.31
561.025	57.26
561.449	57.21
561.874	57.14
562.299	57.08
562.723	57.01
563.148	56.95
563.572	56.87
563.997	56.79
564.421	56.68
564.846	56.63
565.27	56.55
565.694	56.46
566.118	56.35
566.542	56.25
566.966	56.13
567.39	56.02
567.814	55.89
568.238	55.74
568.662	55.61
569.086	55.49
569.509	55.35
569.933	55.2
570.357	55.03
570.78	54.88
571.204	54.72
571.627	54.57
572.05	54.43
572.474	54.31
572.897	54.2
573.32	54.06
573.743	53.93
574.166	53.78
574.589	53.65
575.012	53.56
575.435	53.48
575.858	53.38
576.281	53.27
576.704	53.16
577.126	53.05
577.549	52.97
577.972	52.9
578.394	52.8
578.817	52.71
579.239	52.66
579.661	52.57
580.084	52.49
580.506	52.4
580.928	52.32
581.35	52.25
581.772	52.22
582.194	52.11
582.616	52.04
583.038	51.98
583.46	51.93
583.882	51.83
584.303	51.75
584.725	51.69
585.147	51.62
585.568	51.54
585.99	51.46
586.411	51.38
586.833	51.31
587.254	51.24
587.675	51.19
588.096	51.15
588.518	51.07
588.939	51.02
589.36	50.92
589.781	50.87
590.202	50.83
590.623	50.79
591.043	50.71
591.464	50.67
591.885	50.61
592.305	50.53
592.726	50.45
593.147	50.42
593.567	50.35
593.987	50.32
594.408	50.25
594.828	50.19
595.248	50.16
595.669	50.12
596.089	50.08
596.509	50.02
596.929	49.96
597.349	49.9
597.769	49.84
598.189	49.81
598.608	49.73
599.028	49.69
599.448	49.63
599.867	49.56
600.287	49.51
600.706	49.42
601.126	49.35
601.545	49.3
601.965	49.26
602.384	49.21
602.803	49.14
603.222	49.08
603.641	49.02
604.061	48.96
604.48	48.87
604.898	48.79
605.317	48.75
605.736	48.67
606.155	48.58
606.574	48.5
606.992	48.39
607.411	48.34
607.829	48.22
608.248	48.14
608.666	48.06
609.085	48
609.503	47.93
609.921	47.84
610.339	47.77
610.758	47.7
611.176	47.63
611.594	47.58
612.012	47.47
612.43	47.43
612.847	47.35
613.265	47.28
613.683	47.17
614.101	47.05
614.518	46.96
614.936	46.87
615.353	46.79
615.771	46.69
616.188	46.58
616.606	46.48
617.023	46.39
617.44	46.31
617.857	46.22
618.274	46.18
618.691	46.13
619.108	46.07
619.525	46
619.942	45.95
620.359	45.9
620.776	45.88
621.192	45.85
621.609	45.82
622.026	45.8
622.442	45.77
622.859	45.74
623.275	45.75
623.691	45.73
624.108	45.74
624.524	45.73
624.94	45.71
625.356	45.69
625.772	45.7
626.188	45.71
626.604	45.71
627.02	45.71
627.436	45.7
627.852	45.68
628.268	45.67
628.683	45.63
629.099	45.61
629.514	45.58
629.93	45.53
630.345	45.47
630.761	45.4
631.176	45.33
631.591	45.24
632.007	45.15
632.422	45.05
632.837	44.94
633.252	44.82
633.667	44.67
634.082	44.54
634.497	44.38
634.911	44.2
635.326	43.99
635.741	43.79
636.155	43.56
636.57	43.31
636.984	43.03
637.399	42.76
637.813	42.49
638.228	42.17
638.642	41.85
639.056	41.53
639.47	41.2
639.884	40.88
640.298	40.52
640.712	40.17
641.126	39.83
641.54	39.49
641.954	39.15
642.368	38.8
642.781	38.47
643.195	38.11
643.609	37.79
644.022	37.48
644.436	37.18
644.849	36.87
645.262	36.56
645.676	36.26
646.089	36
646.502	35.72
646.915	35.5
647.328	35.27
647.741	35.08
648.154	34.89
648.567	34.72
648.98	34.55
649.393	34.43
649.805	34.31
650.218	34.21
650.631	34.1
651.043	34.02
651.456	33.94
651.868	33.88
652.28	33.8
652.693	33.72
653.105	33.63
653.517	33.56
653.929	33.49
654.341	33.4
654.753	33.3
655.165	33.2
655.577	33.07
655.989	32.92
656.401	32.74
656.813	32.57
657.224	32.42
657.636	32.24
658.047	32.05
658.459	31.84
658.87	31.62
659.282	31.42
659.693	31.2
660.104	30.99
660.515	30.76
660.926	30.56
661.338	30.32
661.749	30.08
662.159	29.84
662.57	29.62
662.981	29.4
663.392	29.18
663.803	28.97
664.213	28.75
664.624	28.53
665.035	28.35
665.445	28.17
665.855	28.01
666.266	27.85
666.676	27.7
667.086	27.57
667.497	27.44
667.907	27.34
668.317	27.22
668.727	27.12
669.137	27.06
669.547	27
669.956	26.94
670.366	26.92
670.776	26.88
671.186	26.88
671.595	26.86
672.005	26.88
672.414	26.89
672.824	26.92
673.233	26.97
673.642	27.01
674.052	27.09
674.461	27.16
674.87	27.23
675.279	27.34
675.688	27.43
676.097	27.55
676.506	27.69
676.915	27.85
677.323	28.04
677.732	28.24
678.141	28.45
678.549	28.68
678.958	28.98
679.366	29.3
679.775	29.64
680.183	30.04
680.592	30.48
681	30.91
681.408	31.38
681.816	31.89
682.224	32.44
682.632	33.08
683.04	33.73
683.448	34.4
683.856	35.11
684.264	35.86
684.671	36.65
685.079	37.45
685.487	38.32
685.894	39.23
686.302	40.15
686.709	41.08
687.116	42
687.524	42.93
687.931	43.85
688.338	44.79
688.745	45.75
689.152	46.69
689.559	47.64
689.966	48.54
690.373	49.47
690.78	50.35
691.187	51.21
691.593	52.05
692	52.9
692.407	53.74
692.813	54.54
693.22	55.28
693.626	56.03
694.032	56.74
694.439	57.43
694.845	58.03
695.251	58.69
695.657	59.29
696.063	59.89
696.469	60.44
696.875	60.95
697.281	61.43
697.687	61.95
698.093	62.4
698.498	62.86
698.904	63.3
699.31	63.72
699.715	64.13
700.12	64.5
700.526	64.88
700.931	65.22
701.337	65.58
701.742	65.94
702.147	66.26
702.552	66.58
702.957	66.89
703.362	67.18
703.767	67.46
704.172	67.74
704.577	68
704.981	68.26
705.386	68.51
705.791	68.74
706.195	68.92
706.6	69.11
707.004	69.28
707.408	69.45
707.813	69.62
708.217	69.79
708.621	69.93
709.025	70.1
709.43	70.22
709.834	70.39
710.237	70.52
710.641	70.69
711.045	70.83
711.449	71
711.853	71.17
712.256	71.34
712.66	71.47
713.064	71.58
713.467	71.71
713.87	71.86
714.274	71.99
714.677	72.11
715.08	72.19
715.484	72.34
715.887	72.46
716.29	72.52
716.693	72.6
717.096	72.73
717.499	72.85
717.901	72.9
718.304	73
718.707	73.07
719.109	73.19
719.512	73.34
719.915	73.41
720.317	73.48
720.719	73.56
721.122	73.65
721.524	73.74
721.926	73.84
722.328	73.96
722.731	74.04
723.133	74.12
723.535	74.21
723.937	74.28
724.338	74.33
724.74	74.4
725.142	74.46
725.544	74.5
725.945	74.51
726.347	74.56
726.748	74.59
727.15	74.61
727.551	74.65
727.952	74.66
728.354	74.66
728.755	74.69
729.156	74.7
729.557	74.78
729.958	74.84
730.359	74.89
730.76	74.85
731.161	74.89
731.562	74.94
731.962	74.94
732.363	74.94
732.763	75
733.164	75.01
733.564	75.05
733.965	74.99
734.365	74.95
734.766	74.95
735.166	74.95
735.566	74.93
735.966	74.9
736.366	74.9
736.766	74.89
737.166	74.88
737.566	74.92
737.966	74.9
738.365	74.9
738.765	74.92
739.165	74.88
739.564	74.93
739.964	74.92
740.363	74.94
740.763	74.96
741.162	74.96
741.561	74.96
741.96	74.97
742.36	75
742.759	74.99
743.158	74.98
743.557	75.05
743.955	75.08
744.354	75.12
744.753	75.15
745.152	75.15
745.55	75.17
745.949	75.18
746.348	75.16
746.746	75.14
747.144	75.2
747.543	75.25
747.941	75.25
748.339	75.29
748.737	75.32
749.136	75.35
749.534	75.41
749.932	75.38
750.33	75.36
750.727	75.38
751.125	75.38
751.523	75.34
751.921	75.34
752.318	75.3
752.716	75.25
753.113	75.2
753.511	75.15
753.908	75.08
754.305	75.04
754.703	75.03
755.1	74.96
755.497	74.97
755.894	74.96
756.291	74.93
756.688	74.92
757.085	74.9
757.482	74.9
757.878	74.94
758.275	74.92
758.672	74.99
759.068	74.99
759.465	75.04
759.861	75.01
760.258	75
760.654	75
761.05	74.99
761.447	74.95
761.843	74.9
762.239	74.84
762.635	74.86
763.031	74.8
763.427	74.73
763.822	74.7
764.218	74.67
764.614	74.62
765.01	74.56
765.405	74.53
765.801	74.54
766.196	74.56
766.592	74.55
766.987	74.52
767.382	74.53
767.778	74.52
768.173	74.51
768.568	74.46
768.963	74.47
769.358	74.47
769.753	74.52
770.148	74.49
770.542	74.44
770.937	74.43
771.332	74.43
771.726	74.41
772.121	74.39
772.515	74.4
772.91	74.42
773.304	74.41
773.699	74.42
774.093	74.37
774.487	74.38
774.881	74.43
775.275	74.42
775.669	74.4
776.063	74.35
776.457	74.37
776.851	74.32
777.245	74.34
777.638	74.34
778.032	74.37
778.425	74.39
778.819	74.42
779.212	74.39
779.606	74.39
779.999	74.42
780.392	74.44
780.786	74.43
781.179	74.5
781.572	74.49
781.965	74.52
782.358	74.46
782.751	74.44
783.143	74.44
783.536	74.51
783.929	74.56
784.322	74.53
784.714	74.52
785.107	74.56
785.499	74.56
785.891	74.6
786.284	74.56
786.676	74.61
787.068	74.64
787.46	74.6
787.852	74.55
788.245	74.52
788.636	74.55
789.028	74.53
789.42	74.51
789.812	74.48
790.204	74.42
790.595	74.46
790.987	74.45
791.378	74.44
791.77	74.49
792.161	74.53
792.553	74.54
792.944	74.55
793.335	74.6
793.726	74.58
794.117	74.59
794.508	74.63
794.899	74.6
795.29	74.61
795.681	74.62
796.072	74.61
796.463	74.62
796.853	74.59
797.244	74.58
797.634	74.59
798.025	74.68
798.415	74.68
798.806	74.69
799.196	74.73
799.586	74.72
799.976	74.75
800.366	74.76
800.756	74.74
801.146	74.74
801.536	74.76
801.926	74.75
802.316	74.71
802.706	74.75
803.095	74.75
803.485	74.71
803.874	74.77
804.264	74.79
804.653	74.78
805.043	74.76
805.432	74.75
805.821	74.74
806.21	74.81
806.599	74.88
806.988	74.82
807.377	74.84
807.766	74.85
808.155	74.83
808.544	74.81
808.933	74.81
809.321	74.85
809.71	74.91
810.098	74.88
810.487	74.88
810.875	74.79
811.264	74.86
811.652	74.85
812.04	74.87
812.428	74.88
812.816	74.91
813.204	74.94
813.592	74.92
813.98	74.91
814.368	74.91
814.756	74.94
815.144	74.99
815.531	74.98
815.919	74.98
816.306	74.98
816.694	74.98
817.081	74.89
817.469	74.9
817.856	74.96
818.243	74.96
818.63	75
819.017	74.97
819.404	74.94
819.791	74.94
820.178	74.96
820.565	75
820.952	74.99
821.339	75.06
821.725	75.1
822.112	75.09
822.498	75.06
822.885	75.09
823.271	75.12
823.657	75.15
824.044	75.16
824.43	75.17
824.816	75.16
825.202	75.18
825.588	75.18
825.974	75.13
826.36	75.07
826.746	75.14
827.132	75.11
827.517	75.09
827.903	75.07
828.289	75.06
828.674	75.04
829.06	75.05
829.445	75.06
829.83	75.05
830.216	75.08
830.601	75.12
830.986	75.12
831.371	75.17
831.756	75.14
832.141	75.16
832.526	75.21
832.911	75.22
833.295	75.22
833.68	75.18
834.065	75.25
834.449	75.23
834.834	75.2
835.218	75.16
835.603	75.14
835.987	75.14
836.371	75.15
836.755	75.11
837.139	75.11
837.524	75.1
837.908	75.1
838.291	75.08
838.675	75.13
839.059	75.11
839.443	75.12
839.827	75.1
840.21	75.1
840.594	75.08
840.977	75.06
841.361	75.06
841.744	75.03
842.127	75.01
842.511	74.97
842.894	74.92
843.277	74.95
843.66	74.95
844.043	74.96
844.426	74.96
844.809	74.95
845.191	74.95
845.574	74.92
845.957	74.89
846.339	74.88
846.722	74.88
847.104	74.88
847.487	74.88
847.869	74.87
848.252	74.84
848.634	74.84
849.016	74.86
849.398	74.86
849.78	74.88
850.162	74.93
850.544	74.96
850.926	74.94
851.307	74.96
851.689	74.91
852.071	74.9
852.452	74.94
852.834	74.93
853.215	74.92
853.597	74.94
853.978	74.91
854.359	74.88
854.741	74.89
855.122	74.9
855.503	74.89
855.884	74.89
856.265	74.88
856.646	74.83
857.026	74.83
857.407	74.79
857.788	74.8
858.169	74.83
858.549	74.85
858.93	74.85
859.31	74.81
859.69	74.78
860.071	74.81
860.451	74.82
860.831	74.82
861.211	74.81
861.591	74.81
861.971	74.77
862.351	74.78
862.731	74.72
863.111	74.7
863.491	74.73
863.87	74.75
864.25	74.76
864.629	74.75
865.009	74.75
865.388	74.74
865.768	74.76
866.147	74.79
866.526	74.76
866.905	74.78
867.284	74.78
867.663	74.78
868.042	74.78
868.421	74.76
868.8	74.77
869.179	74.77
869.558	74.78
869.936	74.76
870.315	74.7
870.693	74.74
871.072	74.74
871.45	74.73
871.828	74.71
872.207	74.73
872.585	74.72
872.963	74.69
873.341	74.7
873.719	74.68
874.097	74.68
874.475	74.72
874.853	74.69
875.23	74.71
875.608	74.7
875.986	74.7
876.363	74.67
876.741	74.66
877.118	74.65
877.495	74.66
877.873	74.65
878.25	74.66
878.627	74.64
879.004	74.64
879.381	74.62
879.758	74.64
880.135	74.66
880.512	74.72
880.889	74.75
881.265	74.8
881.642	74.8
882.019	74.84
882.395	74.82
882.772	74.84
883.148	74.82
883.524	74.86
883.901	74.84
884.277	74.79
884.653	74.77
885.029	74.74
885.405	74.7
885.781	74.69
886.157	74.68
886.532	74.69
886.908	74.72
887.284	74.75
887.659	74.72
888.035	74.7
888.411	74.7
888.786	74.7
889.161	74.7
889.537	74.7
889.912	74.67
890.287	74.64
890.662	74.62
891.037	74.54
891.412	74.49
891.787	74.46
892.162	74.45
892.536	74.42
892.911	74.37
893.286	74.32
893.66	74.29
894.035	74.24
894.409	74.23
894.784	74.23
895.158	74.23
895.532	74.2
895.906	74.18
896.281	74.14
896.655	74.15
897.029	74.14
897.402	74.15
897.776	74.17
898.15	74.21
898.524	74.17
898.898	74.13
899.271	74.11
899.645	74.11
900.018	74.1
900.392	74.14
900.765	74.13
901.138	74.15
901.511	74.13
901.884	74.15
902.258	74.14
902.631	74.17
903.003	74.2
903.376	74.2
903.749	74.24
904.122	74.27
904.495	74.24
904.867	74.23
905.24	74.22
905.612	74.22
905.985	74.16
906.357	74.16
906.729	74.13
907.102	74.12
907.474	74.13
907.846	74.09
908.218	74.04
908.59	74.04
908.962	74.05
909.334	74.05
909.705	74.03
910.077	73.99
910.449	73.99
910.82	73.96
911.192	73.92
911.563	73.85
911.935	73.82
912.306	73.86
912.677	73.89
913.048	73.85
913.419	73.8
913.79	73.79
914.161	73.85
914.532	73.84
914.903	73.85
915.274	73.84
915.645	73.92
916.015	73.92
916.386	73.86
916.756	73.78
917.127	73.77
917.497	73.8
917.868	73.81
918.238	73.78
918.608	73.74
918.978	73.75
919.348	73.74
919.718	73.68
920.088	73.75
920.458	73.77
920.828	73.79
921.198	73.83
921.567	73.78
921.937	73.76
922.306	73.71
922.676	73.74
923.045	73.7
923.415	73.68
923.784	73.71
924.153	73.65
924.522	73.66
924.891	73.64
925.26	73.56
925.629	73.55
925.998	73.56
926.367	73.6
926.736	73.54
927.104	73.55
927.473	73.56
927.842	73.56
928.21	73.56
928.578	73.49
928.947	73.49
929.315	73.54
929.683	73.62
930.051	73.58
930.42	73.57
930.788	73.58
931.156	73.55
931.523	73.54
931.891	73.45
932.259	73.39
932.627	73.36
932.994	73.31
933.362	73.28
933.729	73.11
934.097	73.1
934.464	73.06
934.831	72.99
935.199	72.94
935.566	72.82
935.933	72.84
936.3	72.77
936.667	72.7
937.034	72.63
937.401	72.53
937.767	72.51
938.134	72.39
938.501	72.35
938.867	72.37
939.234	72.31
939.6	72.33
939.967	72.32
940.333	72.4
940.699	72.48
941.065	72.6
941.431	72.67
941.798	72.88
942.163	72.97
942.529	73.03
942.895	73.04
943.261	73.16
943.627	73.32
943.992	73.28
944.358	73.33
944.723	73.37
945.089	73.39
945.454	73.39
945.82	73.33
946.185	73.41
946.55	73.5
946.915	73.54
947.28	73.51
947.645	73.44
948.01	73.51
948.375	73.52
948.74	73.41
949.104	73.49
949.469	73.39
949.834	73.29
950.198	73.23
950.562	73.12
950.927	73.02
951.291	72.98
951.655	72.94
952.02	73
952.384	73.02
952.748	73.02
953.112	72.9
953.476	73.01
953.839	73.04
954.203	73.01
954.567	72.91
954.931	73
955.294	73.01
955.658	72.95
956.021	72.88
956.385	72.79
956.748	72.83
957.111	72.78
957.474	72.75
957.837	72.8
958.2	72.76
958.563	72.77
958.926	72.64
959.289	72.63
959.652	72.66
960.015	72.6
960.377	72.58
960.74	72.51
961.102	72.51
961.465	72.42
961.827	72.26
962.189	72.25
962.552	72.15
962.914	72.19
963.276	72.16
963.638	72.09
964	72.03
964.362	72.01
964.724	72.02
965.085	71.99
965.447	71.95
965.809	71.95
966.17	71.96
966.532	72.04
966.893	72.06
967.255	72.01
967.616	72.11
967.977	72.14
968.338	72.12
968.699	72.1
969.061	72.13
969.421	72.16
969.782	72.15
970.143	72.1
970.504	72.05
970.865	71.9
971.225	71.88
971.586	71.85
971.946	71.85
972.307	71.8
972.667	71.81
973.027	71.75
973.388	71.68
973.748	71.69
974.108	71.63
974.468	71.68
974.828	71.81
975.188	71.81
975.548	71.83
975.907	71.8
976.267	71.87
976.627	71.85
976.986	71.95
977.346	72.01
977.705	72.06
978.064	72.13
978.424	72.09
978.783	72.06
979.142	72.11
979.501	72.08
979.86	72.11
980.219	72.01
980.578	72
980.937	71.93
981.296	71.92
981.654	72.03
982.013	72.03
982.371	72.05
982.73	71.92
983.088	71.91
983.447	71.94
983.805	71.84
984.163	71.95
984.521	71.83
984.879	71.77
985.237	71.82
985.595	71.65
985.953	71.58
986.311	71.59
986.669	71.71
987.026	71.77
987.384	71.72
987.741	71.83
988.099	71.73
988.456	71.81
988.814	71.8
989.171	71.77
989.528	71.8
989.885	71.81
990.242	71.86
990.599	71.85
990.956	71.82
991.313	71.84
991.67	71.83
992.027	71.76
992.383	71.88
992.74	72.01
993.096	71.94
993.453	71.91
993.809	71.9
994.165	71.84
994.522	71.82
994.878	71.69
995.234	71.6
995.59	71.42
995.946	71.62
996.302	71.4
996.658	71.38
997.013	71.51
997.369	71.58
997.725	71.73
998.08	71.73
998.436	71.83
998.791	71.86
999.147	71.98
999.502	72.03
999.857	72
1000.212	72.05
1000.567	71.95
1000.922	71.93
1001.277	71.78
1001.632	71.73
1001.987	71.81
1002.342	71.89
1002.696	72.05
1003.051	71.9
1003.406	71.97
1003.76	71.89
1004.114	72.02
1004.469	72.09
1004.823	72.01
1005.177	72.33
1005.531	72.24
1005.885	72.24
1006.239	71.9
1006.593	71.6
1006.947	71.71
1007.301	71.84
1007.655	71.91
1008.008	71.83
1008.362	71.78
1008.715	71.79
1009.069	71.44
1009.422	71.39
1009.776	71.21
1010.129	71.32
1010.482	71.55
1010.835	71.58
1011.188	71.31
1011.541	70.96
1011.894	70.88
1012.247	71.01
1012.6	71.04
1012.952	71.11
1013.305	71.21
1013.657	71.4
1014.01	71.45
1014.362	71.66
1014.715	71.61
1015.067	71.84
1015.419	72.24
1015.771	72.57
1016.123	72.22
1016.475	72.25
1016.827	72.37
1017.179	72.39
1017.531	72.26
1017.883	72.54
1018.234	72.46
1018.586	72.57
1018.938	72.27
1019.289	72.24
1019.64	72.22
1019.992	72.58
1020.343	72.58
1020.694	72.59
1021.045	72.53
1021.396	72.62
1021.747	72.41
1022.098	72.35
1022.449	72.11
1022.8	72.3
1023.151	72.21
1023.501	72.15
1023.852	72.14
1024.202	71.79
1024.553	71.48
1024.903	71.34
1025.253	71.51
1025.604	71.34
1025.954	70.9
1026.304	71.29
1026.654	71.47
1027.004	71.67
1027.354	71.65
1027.703	71.58
1028.053	71.55
1028.403	71.78
1028.753	72.05
1029.102	71.78
1029.452	71.91
1029.801	72.17
1030.15	71.94
1030.499	71.75
897.758	517.69
901.051	530.96
904.343	532.71
907.636	527.36
910.928	516.22
914.22	527.1
917.511	513.24
920.803	493.12
924.094	474.59
927.384	478.67
930.675	465.32
933.965	461.51
937.255	458.68
940.544	441.35
943.834	419.92
947.123	417.2
950.411	395.77
953.7	389.46
956.988	381.04
960.276	362.68
963.563	359.29
966.851	343.08
970.138	336.75
973.424	314.72
976.711	312.08
979.997	304.38
983.283	297.33
986.568	288.12
989.853	281.67
993.138	270.06
996.423	270.24
999.708	260.53
1002.992	261.88
1006.275	257.08
1009.559	254.31
1012.842	247.62
1016.125	240.31
1019.408	235.91
1022.69	234.9
1025.972	233.12
1029.254	227.53
1032.536	223.17
1035.817	216.58
1039.098	213.7
1042.379	209.01
1045.659	207.43
1048.939	205.7
1052.219	202.97
1055.498	200.1
1058.778	196.82
1062.057	193.41
1065.335	194.08
1068.614	189.78
1071.892	188.39
1075.17	186.09
1078.447	183.95
1081.724	182.84
1085.001	178.38
1088.278	178.51
1091.554	177.83
1094.83	176.58
1098.106	174.16
1101.382	172.32
1104.657	172.79
1107.932	172.2
1111.206	170.44
1114.481	169.03
1117.755	167.25
1121.029	167.91
1124.302	165.43
1127.575	162.16
1130.848	161.61
1134.121	160.19
1137.393	160.39
1140.665	159.16
1143.937	157.5
1147.208	155.38
1150.48	153.93
1153.75	155.07
1157.021	153.43
1160.291	152.73
1163.561	153.89
1166.831	152.23
1170.101	152.33
1173.37	150.6
1176.639	149.4
1179.907	149.47
1183.176	149.91
1186.444	149.56
1189.711	147.41
1192.979	149.24
1196.246	149.03
1199.513	147.73
1202.78	148.45
1206.046	148.1
1209.312	148.9
1212.578	149.63
1215.843	151.45
1219.108	151.56
1222.373	154.22
1225.638	155.68
1228.902	157.81
1232.166	162.5
1235.43	165.29
1238.693	168.32
1241.956	172.02
1245.219	176.64
1248.482	178.09
1251.744	177.15
1255.006	179.19
1258.268	173.98
1261.529	173.88
1264.79	169.3
1268.051	166.33
1271.312	164.06
1274.572	162.12
1277.832	158.5
1281.092	155.66
1284.351	152.85
1287.61	153.07
1290.869	152.01
1294.128	152.35
1297.386	151.77
1300.644	151.44
1303.902	150.85
1307.159	150.66
1310.416	150.61
1313.673	152.9
1316.93	153.78
1320.186	155.86
1323.442	157.24
1326.697	159.61
1329.953	159.41
1333.208	163.85
1336.463	169.12
1339.717	171.42
1342.972	178.48
1346.226	182.32
1349.479	183.08
1352.733	191.19
1355.986	193.86
1359.238	197.65
1362.491	198.14
1365.743	206.85
1368.995	207.07
1372.247	206.04
1375.498	205.15
1378.749	210.01
1382	209.53
1385.251	207.58
1388.501	206.68
1391.751	208.85
1395	207.71
1398.25	209.51
1401.499	207.94
1404.748	206.95
1407.996	202.19
1411.244	201.72
1414.492	198.33
1417.74	193.28
1420.987	189.58
1424.234	184.6
1427.481	177.87
1430.728	172.83
1433.974	167.22
1437.22	162.2
1440.465	157.34
1443.711	153.51
1446.956	149.29
1450.201	143.7
1453.445	138.17
1456.689	134.86
1459.933	131.33
1463.177	126.71
1466.42	124.4
1469.663	120.64
1472.906	117.73
1476.148	115.67
1479.391	113.78
1482.633	112.37
1485.874	110.9
1489.115	110.18
1492.356	107.64
1495.597	106.76
1498.838	107.31
1502.078	106.61
1505.318	106.99
1508.557	105.88
1511.797	104.47
1515.036	104.48
1518.274	104.43
1521.513	103.81
1524.751	103.64
1527.989	105.49
1531.227	105.24
1534.464	104.74
1537.701	104.08
1540.938	103.81
1544.174	104.54
1547.41	104.85
1550.646	104.83
1553.882	104.77
1557.117	104.74
1560.352	104.35
1563.587	103.08
1566.821	103.31
1570.055	103.01
1573.289	102.58
1576.523	102.87
1579.756	102.62
1582.989	103
1586.222	102.83
1589.454	102.92
1592.686	103.03
1595.918	103.16
1599.15	103.68
1602.381	103.44
1605.612	103.54
1608.843	103.95
1612.073	104.17
1615.303	103.9
1618.533	103.82
1621.762	103.92
1624.992	103.67
1628.221	103.36
1631.449	103.86
1634.678	103.43
1637.906	103.36
1641.134	103.27
1644.361	103.72
1647.588	103.16
1650.815	103.31
1654.042	103.58
1657.269	103.06
1660.495	103.65
1663.72	103.85
1666.946	103.48
1670.171	104
1673.396	104.85
1676.621	105.46
1679.845	105.41
1683.069	105.16
1686.293	105.44
1689.517	105.16
1692.74	105.66
1695.963	105.76
1699.185	105.95
1702.408	106.27
1705.63	106.35
1708.852	106.51
1712.073	105.77
1715.294	105.59
1718.515	107.14
1721.736	106.89
1724.956	106.87
1728.176	106.81
1731.396	107.12
1734.616	107.11
1737.835	107.21
1741.054	106.67
1744.272	106.3
1747.491	106.63
1750.709	107.41
1753.927	106.79
1757.144	106.33
1760.361	106.68
1763.578	107
1766.795	107.57
1770.011	107.5
1773.227	107.97
1776.443	109.34
1779.658	109.37
1782.874	110.21
1786.089	109.53
1789.303	109.56
1792.518	111.1
1795.732	111.51
1798.945	112.37
1802.159	112.14
1805.372	113.61
1808.585	113.59
1811.797	113.51
1815.01	114.64
1818.222	114.83
1821.434	116.31
1824.645	117.07
1827.856	118.01
1831.067	118.39
1834.278	119.17
1837.488	119.67
1840.698	120.55
1843.908	120.84
1847.117	121.98
1850.326	121.91
1853.535	122.55
1856.744	123.62
1859.952	123.71
1863.16	123.04
1866.368	122.27
1869.575	122.43
1872.782	121.13
1875.989	119.95
1879.196	118.68
1882.402	116.82
1885.608	117.36
1888.814	115.55
1892.019	114.49
1895.224	112.31
1898.429	112.98
1901.634	113.52
1904.838	112.21
1908.042	113.13
1911.246	111.45
1914.449	112.54
1917.652	112.13
1920.855	112.41
1924.058	111.74
1927.26	110.76
1930.462	112.21
1933.664	111.36
1936.865	110.39
1940.066	109.69
1943.267	107.92
1946.467	110.09
1949.668	109.41
1952.868	111.37
1956.067	110.36
1959.267	111.81
1962.466	112.17
1965.665	113.23
1968.863	114.82
1972.061	115.69
1975.259	118.56
1978.457	119.86
1981.654	120.37
1984.852	121.57
1988.048	121.87
1991.245	124.37
1994.441	126.92
1997.637	130.05
2000.833	132.57
2004.028	132.72
2007.223	138.25
2010.418	140.81
2013.613	146.83
2016.807	150.83
2020.001	154.96
2023.194	158.52
2026.388	162.91
2029.581	170.36
2032.774	175.04
2035.966	179.86
2039.158	186.48
2042.35	186.64
2045.542	188.87
2048.733	196.83
2051.924	197.99
2055.115	199.62
2058.306	202.36
2061.496	205.74
2064.686	206.59
2067.875	205.88
2071.065	208.3
2074.254	207.78
2077.442	215.81
2080.631	217.82
2083.819	217.34
2087.007	223.83
2090.195	227.72
2093.382	228.43
2096.569	229.66
2099.756	231.77
2102.942	237.36
2106.128	241.52
2109.314	242.47
2112.5	242.63
2115.685	241.39
2118.87	241.95
2122.055	243.97
2125.239	247.92
2128.424	252.67
2131.608	249.9
2134.791	249.28
2137.974	250.34
2141.157	251.2
2144.34	254.65
2147.523	259.07
2150.705	266.61
2153.887	264.75
2157.068	265.45
2160.25	268.83
2163.431	267.65
2166.611	276.18
2169.792	282.44
2172.972	286.87
2176.152	286.31
2179.331	293.49
2182.511	291.59
2185.69	295.3
2188.868	305.87
2192.047	311.93
2195.225	316.22
2198.403	321.11
2201.58	314.23
2204.758	324.32
2207.935	323.83
2211.111	330.86
2214.288	332.17
2217.464	336.73
2220.64	338.93
2223.815	340.1
2226.991	333.71
2230.166	338.09
2233.34	347.47
2236.515	353.53
2239.689	350.61
2242.863	356.65
2246.036	354.73
2249.209	362.6
2252.382	362.16
2255.555	374.94
2258.727	378.11
2261.9	389.46
2265.071	394.47
2268.243	389.04
2271.414	404.96
2274.585	410.7
2277.756	416.97
2280.926	424.49
2284.096	423.61
2287.266	427.27
2290.436	417.19
2293.605	424.72
2296.774	444.67
2299.942	440.2
2303.111	457.52
2306.279	461.32
2309.447	460.81
2312.614	456.91
2315.781	476.42
2318.948	481.72
2322.115	488.98
2325.281	511.54
2328.447	511.21
2331.613	507.13
2334.779	518.39
2337.944	523.31
2341.109	535.29
2344.274	543.97
2347.438	564.63
2350.602	573.25
2353.766	607.54
2356.929	611.05
2360.092	623.78
2363.255	624.79
2366.418	636.03
2369.58	647.44
2372.742	640.58
2375.904	639.4
2379.066	655.47
2382.227	687
2385.388	685.65
2388.548	654.94
2391.709	646.81
2394.869	667.06
2398.029	668.99
2401.188	669.21
2404.347	692.16
2407.506	720.29
2410.665	687.66
2413.823	692.45
2416.981	689.62
2420.139	653.59
2423.296	705.42
2426.453	752.99
2429.61	717.28
2432.767	762.14
2435.923	792.29
2439.079	759.56
2442.235	782.74
2445.391	803.32
2448.546	791.73
2451.701	834.87
2454.855	894.18
2458.009	787.51
2461.163	802.37
2464.317	808.23
2467.471	793.25
2470.624	812.05
2473.777	801.58
2476.929	766.76
2480.082	829
2483.234	869
2486.385	872.69
2489.537	894.5
2492.688	992.13
2495.839	972.87
2498.989	1003.22
2502.14	1004.28
2505.29	963.78
2508.439	1077.65
2511.589	1115.9
2514.738	1067.44
2517.887	1065.09
2521.035	1005.33
2524.183	987.6
2527.331	973.86
2530.479	950.56
2533.627	968.98
