Data from N_1_dec_nc_4n_037_Splice17_01.txt Node
Date: Sat Feb 29 13:48:29 EST 2020
User: sa697716
Spectrometer: FLMS03696
Trigger mode: 0
Integration Time (sec): 3.180400E-1
Scans to average: 20
Electric dark correction enabled: true
Nonlinearity correction enabled: true
Boxcar width: 5
XAxis mode: Wavelengths
Number of Pixels in Spectrum: 2048
>>>>>Begin Spectral Data<<<<<
187.83	49.44
188.298	46.12
188.766	50.18
189.233	47.76
189.701	54.1
190.169	60.94
190.636	55.66
191.104	38.21
191.571	136.21
192.039	131.96
192.506	52.79
192.974	4580.63
193.441	-130.59
193.908	98.8
194.375	136.98
194.842	160.28
195.31	111.67
195.777	111.69
196.244	76.55
196.711	76
197.177	72.58
197.644	71.69
198.111	70.59
198.578	71.63
199.045	71.5
199.511	71.98
199.978	72.15
200.445	71.27
200.911	71.18
201.378	70.69
201.844	71.04
202.31	71.4
202.777	71.13
203.243	71.33
203.709	70.64
204.176	69.8
204.642	69.06
205.108	68.42
205.574	68.54
206.04	67.6
206.506	66.78
206.972	65.52
207.438	64.62
207.903	63.72
208.369	62.07
208.835	61.21
209.301	60.31
209.766	59.04
210.232	57.47
210.697	56.31
211.163	55.13
211.628	54.07
212.094	52.57
212.559	51.03
213.024	49.57
213.49	48.75
213.955	47.04
214.42	45.27
214.885	43.07
215.35	41.2
215.815	38.18
216.28	35.24
216.745	32.07
217.21	28.78
217.675	25.64
218.14	22.83
218.604	20.24
219.069	18.22
219.534	16.32
219.998	14.78
220.463	13.48
220.927	12.46
221.392	11.55
221.856	10.72
222.32	10.06
222.785	9.49
223.249	9.04
223.713	8.63
224.177	8.19
224.642	7.89
225.106	7.6
225.57	7.3
226.034	7.04
226.497	6.77
226.961	6.53
227.425	6.31
227.889	6.11
228.353	5.9
228.816	5.72
229.28	5.54
229.744	5.4
230.207	5.28
230.671	5.15
231.134	5.03
231.597	4.93
232.061	4.83
232.524	4.74
232.987	4.65
233.45	4.56
233.914	4.49
234.377	4.43
234.84	4.34
235.303	4.27
235.766	4.22
236.229	4.16
236.691	4.12
237.154	4.09
237.617	4.04
238.08	4
238.542	3.96
239.005	3.91
239.468	3.85
239.93	3.82
240.393	3.79
240.855	3.73
241.317	3.69
241.78	3.64
242.242	3.58
242.704	3.55
243.166	3.51
243.629	3.47
244.091	3.43
244.553	3.4
245.015	3.38
245.477	3.32
245.939	3.28
246.4	3.24
246.862	3.21
247.324	3.2
247.786	3.16
248.247	3.12
248.709	3.09
249.17	3.07
249.632	3.04
250.093	2.98
250.555	2.97
251.016	2.95
251.477	2.92
251.939	2.89
252.4	2.86
252.861	2.83
253.322	2.8
253.783	2.79
254.244	2.75
254.705	2.72
255.166	2.72
255.627	2.7
256.088	2.67
256.549	2.65
257.009	2.63
257.47	2.61
257.931	2.59
258.391	2.56
258.852	2.52
259.312	2.5
259.773	2.48
260.233	2.44
260.694	2.41
261.154	2.39
261.614	2.36
262.074	2.34
262.534	2.3
262.994	2.28
263.455	2.27
263.915	2.24
264.374	2.22
264.834	2.2
265.294	2.18
265.754	2.16
266.214	2.14
266.673	2.13
267.133	2.11
267.593	2.1
268.052	2.08
268.512	2.07
268.971	2.06
269.431	2.05
269.89	2.04
270.349	2.03
270.809	2.02
271.268	2.02
271.727	2.02
272.186	2
272.645	2
273.104	2
273.563	2
274.022	1.99
274.481	1.99
274.94	1.99
275.399	1.99
275.857	1.99
276.316	1.98
276.775	1.98
277.233	1.98
277.692	1.98
278.15	1.98
278.609	1.97
279.067	1.97
279.525	1.96
279.984	1.96
280.442	1.97
280.9	1.97
281.358	1.97
281.816	1.97
282.274	1.96
282.732	1.96
283.19	1.97
283.648	1.98
284.106	1.98
284.564	1.99
285.021	1.98
285.479	1.98
285.937	1.97
286.394	1.97
286.852	1.97
287.309	1.97
287.767	1.96
288.224	1.95
288.682	1.94
289.139	1.95
289.596	1.93
290.053	1.92
290.511	1.91
290.968	1.9
291.425	1.89
291.882	1.88
292.339	1.86
292.796	1.85
293.252	1.84
293.709	1.83
294.166	1.82
294.623	1.81
295.079	1.81
295.536	1.8
295.992	1.79
296.449	1.79
296.905	1.78
297.362	1.77
297.818	1.76
298.274	1.76
298.731	1.76
299.187	1.76
299.643	1.76
300.099	1.76
300.555	1.75
301.011	1.75
301.467	1.75
301.923	1.75
302.379	1.75
302.835	1.76
303.291	1.76
303.746	1.76
304.202	1.75
304.658	1.75
305.113	1.75
305.569	1.76
306.024	1.76
306.479	1.76
306.935	1.77
307.39	1.77
307.845	1.78
308.301	1.78
308.756	1.79
309.211	1.81
309.666	1.81
310.121	1.81
310.576	1.82
311.031	1.81
311.486	1.82
311.94	1.82
312.395	1.83
312.85	1.82
313.305	1.82
313.759	1.82
314.214	1.81
314.668	1.81
315.123	1.82
315.577	1.82
316.032	1.83
316.486	1.82
316.94	1.83
317.394	1.82
317.849	1.81
318.303	1.82
318.757	1.81
319.211	1.8
319.665	1.79
320.119	1.79
320.572	1.79
321.026	1.78
321.48	1.78
321.934	1.77
322.387	1.76
322.841	1.76
323.295	1.76
323.748	1.76
324.202	1.76
324.655	1.76
325.108	1.75
325.562	1.74
326.015	1.74
326.468	1.73
326.921	1.72
327.374	1.73
327.827	1.73
328.28	1.73
328.733	1.72
329.186	1.72
329.639	1.72
330.092	1.73
330.545	1.74
330.997	1.74
331.45	1.76
331.903	1.76
332.355	1.76
332.808	1.77
333.26	1.78
333.713	1.79
334.165	1.8
334.617	1.81
335.069	1.82
335.522	1.82
335.974	1.82
336.426	1.82
336.878	1.82
337.33	1.83
337.782	1.83
338.234	1.83
338.686	1.83
339.137	1.83
339.589	1.82
340.041	1.82
340.493	1.8
340.944	1.8
341.396	1.8
341.847	1.79
342.299	1.76
342.75	1.75
343.201	1.74
343.653	1.73
344.104	1.72
344.555	1.71
345.006	1.7
345.457	1.71
345.908	1.71
346.359	1.7
346.81	1.71
347.261	1.72
347.712	1.72
348.163	1.73
348.613	1.72
349.064	1.71
349.515	1.7
349.965	1.7
350.416	1.69
350.866	1.68
351.317	1.68
351.767	1.67
352.217	1.66
352.668	1.66
353.118	1.67
353.568	1.68
354.018	1.69
354.468	1.69
354.918	1.7
355.368	1.71
355.818	1.71
356.268	1.71
356.718	1.72
357.168	1.73
357.617	1.73
358.067	1.73
358.517	1.72
358.966	1.73
359.416	1.74
359.865	1.73
360.315	1.73
360.764	1.73
361.213	1.72
361.663	1.73
362.112	1.73
362.561	1.73
363.01	1.73
363.459	1.73
363.908	1.73
364.357	1.72
364.806	1.73
365.255	1.74
365.703	1.75
366.152	1.76
366.601	1.76
367.05	1.77
367.498	1.79
367.947	1.78
368.395	1.8
368.844	1.8
369.292	1.8
369.74	1.8
370.189	1.81
370.637	1.81
371.085	1.81
371.533	1.81
371.981	1.81
372.429	1.81
372.877	1.82
373.325	1.81
373.773	1.82
374.221	1.83
374.669	1.83
375.116	1.82
375.564	1.82
376.012	1.83
376.459	1.85
376.907	1.84
377.354	1.84
377.801	1.85
378.249	1.87
378.696	1.88
379.143	1.89
379.591	1.89
380.038	1.91
380.485	1.92
380.932	1.93
381.379	1.92
381.826	1.93
382.273	1.94
382.72	1.95
383.166	1.96
383.613	1.97
384.06	1.99
384.506	2.01
384.953	2.04
385.4	2.06
385.846	2.08
386.292	2.12
386.739	2.16
387.185	2.21
387.631	2.25
388.078	2.29
388.524	2.3
388.97	2.33
389.416	2.36
389.862	2.41
390.308	2.46
390.754	2.54
391.2	2.63
391.645	2.72
392.091	2.77
392.537	2.83
392.983	2.91
393.428	3.05
393.874	3.21
394.319	3.4
394.765	3.58
395.21	3.76
395.655	3.97
396.101	4.19
396.546	4.44
396.991	4.74
397.436	5.05
397.881	5.41
398.326	5.75
398.771	6.07
399.216	6.4
399.661	6.72
400.106	7.03
400.551	7.3
400.995	7.56
401.44	7.8
401.885	8.05
402.329	8.32
402.774	8.58
403.218	8.87
403.663	9.19
404.107	9.54
404.551	9.91
404.995	10.27
405.44	10.6
405.884	10.95
406.328	11.35
406.772	11.8
407.216	12.26
407.66	12.73
408.104	13.14
408.547	13.52
408.991	13.84
409.435	14.21
409.879	14.6
410.322	15.08
410.766	15.58
411.209	16.06
411.653	16.49
412.096	16.89
412.54	17.25
412.983	17.65
413.426	18.08
413.869	18.53
414.312	18.95
414.756	19.36
415.199	19.71
415.642	20.02
416.085	20.29
416.527	20.55
416.97	20.72
417.413	20.83
417.856	20.86
418.298	20.89
418.741	20.94
419.184	21.02
419.626	21.14
420.069	21.3
420.511	21.45
420.953	21.6
421.396	21.79
421.838	22.08
422.28	22.42
422.722	22.82
423.164	23.16
423.606	23.48
424.048	23.7
424.49	23.86
424.932	23.79
425.374	23.53
425.816	23.12
426.258	22.63
426.699	22.25
427.141	22.17
427.582	22.36
428.024	22.75
428.465	23.17
428.907	23.59
429.348	23.93
429.789	24.39
430.231	25.14
430.672	26.21
431.113	27.46
431.554	28.7
431.995	29.67
432.436	30.37
432.877	30.85
433.318	31.25
433.759	31.71
434.2	32.25
434.64	32.96
435.081	33.65
435.522	34.23
435.962	34.72
436.403	35.13
436.843	35.45
437.284	35.81
437.724	36.24
438.164	36.74
438.604	37.3
439.045	37.93
439.485	38.49
439.925	38.93
440.365	39.32
440.805	39.62
441.245	39.84
441.685	40.08
442.125	40.38
442.564	40.74
443.004	41.12
443.444	41.53
443.883	41.98
444.323	42.45
444.762	42.93
445.202	43.49
445.641	44.1
446.081	44.85
446.52	45.63
446.959	46.34
447.398	46.93
447.837	47.36
448.276	47.54
448.716	47.66
449.154	47.77
449.593	47.89
450.032	47.93
450.471	47.88
450.91	47.72
451.349	47.57
451.787	47.42
452.226	47.29
452.664	47.28
453.103	47.29
453.541	47.32
453.98	47.23
454.418	47.09
454.856	46.89
455.295	46.74
455.733	46.58
456.171	46.43
456.609	46.37
457.047	46.3
457.485	46.24
457.923	46.29
458.361	46.39
458.798	46.6
459.236	46.79
459.674	46.97
460.111	47.12
460.549	47.31
460.987	47.56
461.424	47.7
461.862	47.87
462.299	48.02
462.736	48.2
463.173	48.41
463.611	48.68
464.048	49.06
464.485	49.52
464.922	50.09
465.359	50.58
465.796	50.97
466.233	51.45
466.67	51.97
467.106	52.63
467.543	53.34
467.98	54.04
468.416	54.66
468.853	55.17
469.29	55.7
469.726	56.16
470.162	56.77
470.599	57.4
471.035	57.94
471.471	58.33
471.907	58.55
472.344	58.68
472.78	58.8
473.216	58.96
473.652	59.12
474.088	59.22
474.523	59.27
474.959	59.22
475.395	59.18
475.831	59.1
476.266	59.09
476.702	59.08
477.138	59.01
477.573	58.89
478.008	58.63
478.444	58.35
478.879	58.02
479.314	57.65
479.75	57.22
480.185	56.71
480.62	56.15
481.055	55.34
481.49	54.26
481.925	53.11
482.36	51.97
482.795	51.02
483.229	50.27
483.664	49.68
484.099	49.14
484.534	48.66
484.968	48.28
485.403	48.06
485.837	48.05
486.271	48.3
486.706	48.58
487.14	48.82
487.574	48.9
488.009	48.86
488.443	48.79
488.877	48.73
489.311	48.69
489.745	48.66
490.179	48.64
490.613	48.63
491.046	48.63
491.48	48.69
491.914	48.81
492.348	49.01
492.781	49.21
493.215	49.37
493.648	49.49
494.082	49.57
494.515	49.66
494.948	49.72
495.382	49.77
495.815	49.78
496.248	49.77
496.681	49.73
497.114	49.68
497.547	49.63
497.98	49.65
498.413	49.79
498.846	49.98
499.279	50.14
499.711	50.27
500.144	50.42
500.577	50.69
501.009	51.09
501.442	51.58
501.874	52.1
502.306	52.62
502.739	53.05
503.171	53.45
503.603	53.82
504.036	54.19
504.468	54.65
504.9	55.16
505.332	55.6
505.764	55.97
506.196	56.31
506.627	56.69
507.059	57.1
507.491	57.6
507.923	58.09
508.354	58.55
508.786	59.01
509.217	59.38
509.649	59.74
510.08	60.11
510.512	60.54
510.943	61
511.374	61.42
511.805	61.71
512.237	61.82
512.668	61.81
513.099	61.89
513.53	62.01
513.961	62.22
514.391	62.45
514.822	62.82
515.253	63.22
515.684	63.67
516.114	64.2
516.545	64.82
516.975	65.69
517.406	66.74
517.836	67.71
518.267	68.62
518.697	69.47
519.127	70.34
519.558	71.15
519.988	71.9
520.418	72.62
520.848	73.26
521.278	73.88
521.708	74.15
522.138	74.36
522.567	74.53
522.997	74.78
523.427	75.13
523.857	75.47
524.286	75.89
524.716	76.32
525.145	76.66
525.575	77.04
526.004	77.47
526.433	78.19
526.863	78.96
527.292	79.73
527.721	80.35
528.15	80.76
528.579	81.03
529.008	81.19
529.437	81.28
529.866	81.38
530.295	81.48
530.724	81.63
531.152	81.77
531.581	81.87
532.01	81.92
532.438	81.99
532.867	82.18
533.295	82.4
533.723	82.6
534.152	82.77
534.58	82.91
535.008	82.93
535.436	82.81
535.865	82.59
536.293	82.36
536.721	82.24
537.149	82.22
537.576	82.24
538.004	82.28
538.432	82.31
538.86	82.35
539.287	82.46
539.715	82.69
540.143	82.99
540.57	83.37
540.998	83.83
541.425	84.2
541.852	84.57
542.28	84.9
542.707	85.24
543.134	85.51
543.561	85.74
543.988	85.96
544.415	86.19
544.842	86.43
545.269	86.7
545.696	86.9
546.123	87.16
546.549	87.4
546.976	87.61
547.403	87.79
547.829	88.08
548.256	88.35
548.682	88.52
549.108	88.7
549.535	88.88
549.961	89.01
550.387	89.15
550.813	89.31
551.24	89.43
551.666	89.51
552.092	89.53
552.518	89.45
552.943	89.39
553.369	89.36
553.795	89.24
554.221	89
554.646	88.68
555.072	88.33
555.498	87.89
555.923	87.53
556.349	87.22
556.774	87
557.199	86.79
557.625	86.54
558.05	86.28
558.475	86.03
558.9	85.83
559.325	85.68
559.75	85.48
560.175	85.28
560.6	84.98
561.025	84.57
561.449	84.06
561.874	83.52
562.299	83.03
562.723	82.57
563.148	82.09
563.572	81.61
563.997	81.06
564.421	80.47
564.846	79.88
565.27	79.32
565.694	78.77
566.118	78.22
566.542	77.64
566.966	77.04
567.39	76.44
567.814	75.92
568.238	75.42
568.662	75.05
569.086	74.73
569.509	74.47
569.933	74.17
570.357	73.92
570.78	73.66
571.204	73.46
571.627	73.29
572.05	73.15
572.474	72.96
572.897	72.77
573.32	72.52
573.743	72.26
574.166	71.94
574.589	71.68
575.012	71.51
575.435	71.4
575.858	71.35
576.281	71.33
576.704	71.28
577.126	71.23
577.549	71.24
577.972	71.3
578.394	71.35
578.817	71.47
579.239	71.6
579.661	71.68
580.084	71.75
580.506	71.74
580.928	71.67
581.35	71.6
581.772	71.46
582.194	71.27
582.616	71.13
583.038	71.01
583.46	70.85
583.882	70.59
584.303	70.21
584.725	69.68
585.147	69.09
585.568	68.57
585.99	68.14
586.411	67.86
586.833	67.6
587.254	67.31
587.675	67.03
588.096	66.78
588.518	66.61
588.939	66.54
589.36	66.62
589.781	66.77
590.202	66.9
590.623	66.9
591.043	66.79
591.464	66.65
591.885	66.51
592.305	66.34
592.726	66.15
593.147	65.96
593.567	65.72
593.987	65.48
594.408	65.23
594.828	64.96
595.248	64.71
595.669	64.43
596.089	64.15
596.509	63.78
596.929	63.43
597.349	63.04
597.769	62.64
598.189	62.29
598.608	61.97
599.028	61.67
599.448	61.4
599.867	61.16
600.287	60.95
600.706	60.7
601.126	60.5
601.545	60.29
601.965	60.12
602.384	59.96
602.803	59.78
603.222	59.58
603.641	59.37
604.061	59.12
604.48	58.81
604.898	58.5
605.317	58.23
605.736	57.92
606.155	57.62
606.574	57.32
606.992	57.03
607.411	56.76
607.829	56.45
608.248	56.16
608.666	55.89
609.085	55.63
609.503	55.35
609.921	55.08
610.339	54.87
610.758	54.66
611.176	54.42
611.594	54.13
612.012	53.8
612.43	53.51
612.847	53.21
613.265	52.95
613.683	52.76
614.101	52.57
614.518	52.42
614.936	52.23
615.353	52.05
615.771	51.94
616.188	51.87
616.606	51.83
617.023	51.77
617.44	51.7
617.857	51.56
618.274	51.4
618.691	51.24
619.108	51.03
619.525	50.82
619.942	50.6
620.359	50.32
620.776	50.02
621.192	49.71
621.609	49.44
622.026	49.19
622.442	49
622.859	48.79
623.275	48.59
623.691	48.35
624.108	48.15
624.524	47.95
624.94	47.79
625.356	47.63
625.772	47.49
626.188	47.35
626.604	47.19
627.02	47.03
627.436	46.87
627.852	46.72
628.268	46.64
628.683	46.59
629.099	46.53
629.514	46.46
629.93	46.4
630.345	46.37
630.761	46.34
631.176	46.32
631.591	46.26
632.007	46.22
632.422	46.19
632.837	46.14
633.252	46.06
633.667	46
634.082	45.97
634.497	45.93
634.911	45.82
635.326	45.68
635.741	45.53
636.155	45.37
636.57	45.2
636.984	45
637.399	44.78
637.813	44.55
638.228	44.32
638.642	44.1
639.056	43.84
639.47	43.62
639.884	43.44
640.298	43.25
640.712	43.05
641.126	42.85
641.54	42.67
641.954	42.48
642.368	42.28
642.781	42.06
643.195	41.8
643.609	41.57
644.022	41.36
644.436	41.12
644.849	40.85
645.262	40.58
645.676	40.33
646.089	40.11
646.502	39.93
646.915	39.78
647.328	39.62
647.741	39.49
648.154	39.39
648.567	39.28
648.98	39.2
649.393	39.14
649.805	39.13
650.218	39.1
650.631	38.99
651.043	38.8
651.456	38.43
651.868	37.93
652.28	37.37
652.693	36.85
653.105	36.43
653.517	36.11
653.929	35.85
654.341	35.65
654.753	35.48
655.165	35.36
655.577	35.3
655.989	35.45
656.401	35.7
656.813	36.02
657.224	36.31
657.636	36.53
658.047	36.63
658.459	36.66
658.87	36.61
659.282	36.52
659.693	36.42
660.104	36.32
660.515	36.16
660.926	36.09
661.338	35.96
661.749	35.8
662.159	35.64
662.57	35.48
662.981	35.31
663.392	35.14
663.803	35.04
664.213	34.9
664.624	34.81
665.035	34.69
665.445	34.53
665.855	34.39
666.266	34.25
666.676	34.09
667.086	33.93
667.497	33.76
667.907	33.62
668.317	33.46
668.727	33.32
669.137	33.16
669.547	33.04
669.956	32.9
670.366	32.79
670.776	32.66
671.186	32.55
671.595	32.46
672.005	32.4
672.414	32.34
672.824	32.26
673.233	32.2
673.642	32.11
674.052	32.04
674.461	32
674.87	31.95
675.279	31.93
675.688	31.88
676.097	31.86
676.506	31.82
676.915	31.81
677.323	31.82
677.732	31.82
678.141	31.83
678.549	31.84
678.958	31.84
679.366	31.86
679.775	31.86
680.183	31.87
680.592	31.86
681	31.87
681.408	31.87
681.816	31.83
682.224	31.64
682.632	31.33
683.04	30.89
683.448	30.43
683.856	30.01
684.264	29.69
684.671	29.42
685.079	29.15
685.487	28.94
685.894	28.81
686.302	28.74
686.709	28.87
687.116	29.22
687.524	29.75
687.931	30.39
688.338	31.03
688.745	31.64
689.152	32.27
689.559	32.9
689.966	33.52
690.373	34.11
690.78	34.73
691.187	35.33
691.593	35.9
692	36.45
692.407	37.03
692.813	37.57
693.22	38.11
693.626	38.64
694.032	39.17
694.439	39.7
694.845	40.19
695.251	40.65
695.657	41.12
696.063	41.57
696.469	41.99
696.875	42.35
697.281	42.69
697.687	43.04
698.093	43.4
698.498	43.76
698.904	44.12
699.31	44.52
699.715	44.9
700.12	45.32
700.526	45.78
700.931	46.22
701.337	46.68
701.742	47.1
702.147	47.52
702.552	47.94
702.957	48.36
703.362	48.76
703.767	49.13
704.172	49.49
704.577	49.8
704.981	50.1
705.386	50.42
705.791	50.73
706.195	51.05
706.6	51.37
707.004	51.67
707.408	51.93
707.813	52.22
708.217	52.48
708.621	52.72
709.025	52.99
709.43	53.23
709.834	53.47
710.237	53.66
710.641	53.88
711.045	54.04
711.449	54.22
711.853	54.37
712.256	54.48
712.66	54.49
713.064	54.44
713.467	54.3
713.87	54.09
714.274	53.82
714.677	53.48
715.08	53.1
715.484	52.79
715.887	52.47
716.29	52.22
716.693	52.03
717.096	52.08
717.499	52.28
717.901	52.58
718.304	52.93
718.707	53.36
719.109	53.82
719.512	54.26
719.915	54.61
720.317	54.95
720.719	55.22
721.122	55.43
721.524	55.52
721.926	55.57
722.328	55.57
722.731	55.56
723.133	55.52
723.535	55.54
723.937	55.56
724.338	55.6
724.74	55.64
725.142	55.65
725.544	55.72
725.945	55.83
726.347	55.88
726.748	55.93
727.15	56.01
727.551	56.13
727.952	56.26
728.354	56.46
728.755	56.67
729.156	56.92
729.557	57.26
729.958	57.56
730.359	57.8
730.76	58.02
731.161	58.25
731.562	58.43
731.962	58.6
732.363	58.69
732.763	58.79
733.164	58.85
733.564	58.89
733.965	58.87
734.365	58.78
734.766	58.7
735.166	58.61
735.566	58.52
735.966	58.47
736.366	58.4
736.766	58.33
737.166	58.26
737.566	58.18
737.966	58.09
738.365	58.05
738.765	58.03
739.165	58.03
739.564	58.07
739.964	58.08
740.363	58.07
740.763	58.05
741.162	58.06
741.561	58.08
741.96	58.14
742.36	58.17
742.759	58.15
743.158	58.16
743.557	58.13
743.955	58.1
744.354	58.05
744.753	58
745.152	57.95
745.55	57.91
745.949	57.83
746.348	57.73
746.746	57.63
747.144	57.58
747.543	57.46
747.941	57.4
748.339	57.35
748.737	57.3
749.136	57.25
749.534	57.2
749.932	57.13
750.33	57.1
750.727	57.03
751.125	56.95
751.523	56.88
751.921	56.82
752.318	56.72
752.716	56.58
753.113	56.48
753.511	56.37
753.908	56.23
754.305	56.06
754.703	55.72
755.1	55.08
755.497	53.95
755.894	52.24
756.291	50.15
756.688	47.91
757.085	45.74
757.482	43.74
757.878	41.92
758.275	40.12
758.672	38.34
759.068	36.63
759.465	35.3
759.861	34.6
760.258	34.55
760.654	35.05
761.05	35.87
761.447	36.75
761.843	37.57
762.239	38.37
762.635	39.33
763.031	40.45
763.427	41.72
763.822	43.05
764.218	44.35
764.614	45.61
765.01	46.76
765.405	47.79
765.801	48.77
766.196	49.62
766.592	50.36
766.987	50.92
767.382	51.34
767.778	51.66
768.173	51.87
768.568	52.04
768.963	52.15
769.358	52.24
769.753	52.31
770.148	52.33
770.542	52.3
770.937	52.23
771.332	52.18
771.726	52.14
772.121	52.09
772.515	52.06
772.91	52
773.304	51.94
773.699	51.81
774.093	51.66
774.487	51.55
774.881	51.47
775.275	51.39
775.669	51.29
776.063	51.18
776.457	51.05
776.851	50.88
777.245	50.78
777.638	50.67
778.032	50.64
778.425	50.58
778.819	50.5
779.212	50.35
779.606	50.22
779.999	50.13
780.392	50.03
780.786	49.94
781.179	49.89
781.572	49.78
781.965	49.66
782.358	49.51
782.751	49.4
783.143	49.27
783.536	49.23
783.929	49.17
784.322	49.05
784.714	48.9
785.107	48.74
785.499	48.6
785.891	48.43
786.284	48.26
786.676	48.13
787.068	47.96
787.46	47.77
787.852	47.54
788.245	47.31
788.636	47.1
789.028	46.91
789.42	46.75
789.812	46.52
790.204	46.29
790.595	46.12
790.987	45.91
791.378	45.72
791.77	45.58
792.161	45.43
792.553	45.28
792.944	45.2
793.335	45.14
793.726	45.02
794.117	44.94
794.508	44.92
794.899	44.81
795.29	44.67
795.681	44.55
796.072	44.41
796.463	44.28
796.853	44.15
797.244	43.99
797.634	43.79
798.025	43.64
798.415	43.48
798.806	43.3
799.196	43.13
799.586	42.98
799.976	42.84
800.366	42.68
800.756	42.52
801.146	42.34
801.536	42.15
801.926	41.98
802.316	41.84
802.706	41.67
803.095	41.5
803.485	41.35
803.874	41.19
804.264	41.02
804.653	40.83
805.043	40.63
805.432	40.43
805.821	40.25
806.21	40.08
806.599	39.92
806.988	39.75
807.377	39.55
807.766	39.35
808.155	39.13
808.544	38.91
808.933	38.71
809.321	38.5
809.71	38.29
810.098	38.01
810.487	37.72
810.875	37.41
811.264	37.05
811.652	36.71
812.04	36.38
812.428	36.03
812.816	35.68
813.204	35.37
813.592	35.09
813.98	34.79
814.368	34.54
814.756	34.28
815.144	34.08
815.531	33.89
815.919	33.75
816.306	33.62
816.694	33.56
817.081	33.49
817.469	33.4
817.856	33.31
818.243	33.18
818.63	33.04
819.017	32.89
819.404	32.69
819.791	32.59
820.178	32.48
820.565	32.38
820.952	32.26
821.339	32.16
821.725	32.07
822.112	31.95
822.498	31.9
822.885	31.89
823.271	31.88
823.657	31.84
824.044	31.74
824.43	31.63
824.816	31.51
825.202	31.36
825.588	31.23
825.974	31.09
826.36	30.95
826.746	30.79
827.132	30.61
827.517	30.46
827.903	30.37
828.289	30.26
828.674	30.15
829.06	30.07
829.445	29.98
829.83	29.88
830.216	29.78
830.601	29.69
830.986	29.65
831.371	29.64
831.756	29.59
832.141	29.53
832.526	29.48
832.911	29.46
833.295	29.4
833.68	29.36
834.065	29.29
834.449	29.24
834.834	29.2
835.218	29.11
835.603	29.02
835.987	28.96
836.371	28.92
836.755	28.85
837.139	28.77
837.524	28.7
837.908	28.63
838.291	28.59
838.675	28.53
839.059	28.48
839.443	28.43
839.827	28.37
840.21	28.31
840.594	28.25
840.977	28.18
841.361	28.1
841.744	28.06
842.127	27.99
842.511	27.94
842.894	27.88
843.277	27.83
843.66	27.78
844.043	27.72
844.426	27.67
844.809	27.61
845.191	27.54
845.574	27.46
845.957	27.35
846.339	27.28
846.722	27.21
847.104	27.15
847.487	27.08
847.869	27.01
848.252	26.96
848.634	26.9
849.016	26.84
849.398	26.77
849.78	26.71
850.162	26.63
850.544	26.51
850.926	26.39
851.307	26.31
851.689	26.26
852.071	26.18
852.452	26.12
852.834	26.07
853.215	26.04
853.597	25.99
853.978	25.98
854.359	26.01
854.741	26.04
855.122	26.08
855.503	26.07
855.884	26.06
856.265	26.07
856.646	26.01
857.026	25.99
857.407	25.95
857.788	25.95
858.169	25.91
858.549	25.88
858.93	25.84
859.31	25.8
859.69	25.76
860.071	25.73
860.451	25.66
860.831	25.66
861.211	25.59
861.591	25.53
861.971	25.44
862.351	25.37
862.731	25.28
863.111	25.22
863.491	25.16
863.87	25.1
864.25	25.04
864.629	24.99
865.009	24.91
865.388	24.87
865.768	24.85
866.147	24.85
866.526	24.87
866.905	24.89
867.284	24.89
867.663	24.89
868.042	24.86
868.421	24.83
868.8	24.83
869.179	24.83
869.558	24.83
869.936	24.8
870.315	24.79
870.693	24.77
871.072	24.73
871.45	24.71
871.828	24.68
872.207	24.68
872.585	24.71
872.963	24.68
873.341	24.66
873.719	24.64
874.097	24.63
874.475	24.6
874.853	24.58
875.23	24.56
875.608	24.53
875.986	24.51
876.363	24.47
876.741	24.43
877.118	24.39
877.495	24.38
877.873	24.35
878.25	24.32
878.627	24.31
879.004	24.28
879.381	24.26
879.758	24.22
880.135	24.19
880.512	24.17
880.889	24.15
881.265	24.14
881.642	24.11
882.019	24.1
882.395	24.05
882.772	24
883.148	23.95
883.524	23.91
883.901	23.91
884.277	23.9
884.653	23.88
885.029	23.84
885.405	23.82
885.781	23.79
886.157	23.77
886.532	23.76
886.908	23.77
887.284	23.79
887.659	23.78
888.035	23.76
888.411	23.72
888.786	23.69
889.161	23.67
889.537	23.64
889.912	23.6
890.287	23.56
890.662	23.51
891.037	23.44
891.412	23.38
891.787	23.34
892.162	23.27
892.536	23.22
892.911	23.17
893.286	23.11
893.66	23.07
894.035	22.99
894.409	22.94
894.784	22.9
895.158	22.86
895.532	22.8
895.906	22.73
896.281	22.7
896.655	22.64
897.029	22.6
897.402	22.55
897.776	22.49
898.15	22.49
898.524	22.46
898.898	22.43
899.271	22.43
899.645	22.42
900.018	22.44
900.392	22.45
900.765	22.49
901.138	22.52
901.511	22.53
901.884	22.56
902.258	22.6
902.631	22.62
903.003	22.64
903.376	22.63
903.749	22.65
904.122	22.64
904.495	22.63
904.867	22.56
905.24	22.54
905.612	22.54
905.985	22.52
906.357	22.47
906.729	22.43
907.102	22.4
907.474	22.39
907.846	22.34
908.218	22.31
908.59	22.29
908.962	22.3
909.334	22.3
909.705	22.3
910.077	22.26
910.449	22.28
910.82	22.27
911.192	22.29
911.563	22.25
911.935	22.24
912.306	22.23
912.677	22.22
913.048	22.2
913.419	22.19
913.79	22.15
914.161	22.15
914.532	22.14
914.903	22.13
915.274	22.1
915.645	22.12
916.015	22.18
916.386	22.2
916.756	22.19
917.127	22.23
917.497	22.25
917.868	22.28
918.238	22.29
918.608	22.31
918.978	22.33
919.348	22.35
919.718	22.36
920.088	22.31
920.458	22.32
920.828	22.34
921.198	22.34
921.567	22.31
921.937	22.29
922.306	22.3
922.676	22.29
923.045	22.25
923.415	22.25
923.784	22.24
924.153	22.24
924.522	22.23
924.891	22.2
925.26	22.17
925.629	22.14
925.998	22.13
926.367	22.09
926.736	22.04
927.104	22.02
927.473	21.98
927.842	21.91
928.21	21.85
928.578	21.74
928.947	21.68
929.315	21.62
929.683	21.56
930.051	21.5
930.42	21.43
930.788	21.38
931.156	21.31
931.523	21.22
931.891	21.15
932.259	21.12
932.627	21.08
932.994	21.09
933.362	21.05
933.729	21.02
934.097	21
934.464	20.97
934.831	20.99
935.199	21
935.566	21.1
935.933	21.19
936.3	21.24
936.667	21.34
937.034	21.42
937.401	21.53
937.767	21.69
938.134	21.77
938.501	21.92
938.867	22.02
939.234	22.25
939.6	22.33
939.967	22.44
940.333	22.59
940.699	22.68
941.065	22.78
941.431	22.79
941.798	22.83
942.163	22.99
942.529	23.02
942.895	23.1
943.261	23.06
943.627	23.09
943.992	23.1
944.358	23.12
944.723	23.11
945.089	23.09
945.454	23.16
945.82	23.1
946.185	23.02
946.55	23.06
946.915	23.02
947.28	22.93
947.645	22.88
948.01	22.81
948.375	22.72
948.74	22.67
949.104	22.62
949.469	22.53
949.834	22.47
950.198	22.38
950.562	22.31
950.927	22.28
951.291	22.26
951.655	22.19
952.02	22.16
952.384	22.1
952.748	22.1
953.112	22.04
953.476	22.01
953.839	22.06
954.203	22.02
954.567	21.98
954.931	21.9
955.294	21.86
955.658	21.81
956.021	21.81
956.385	21.86
956.748	21.87
957.111	21.89
957.474	21.9
957.837	21.87
958.2	21.88
958.563	21.9
958.926	21.92
959.289	21.92
959.652	21.98
960.015	21.97
960.377	21.93
960.74	21.91
961.102	21.85
961.465	21.86
961.827	21.81
962.189	21.78
962.552	21.77
962.914	21.71
963.276	21.74
963.638	21.69
964	21.7
964.362	21.7
964.724	21.75
965.085	21.82
965.447	21.76
965.809	21.77
966.17	21.83
966.532	21.86
966.893	21.99
967.255	21.97
967.616	22.06
967.977	22.09
968.338	22.08
968.699	22.04
969.061	22
969.421	22.04
969.782	22.12
970.143	22.16
970.504	22.12
970.865	22.04
971.225	22.08
971.586	22.09
971.946	22.07
972.307	22.1
972.667	22.11
973.027	22.13
973.388	22.11
973.748	22.06
974.108	21.98
974.468	22.03
974.828	22.07
975.188	22.08
975.548	22.05
975.907	22.1
976.267	22.16
976.627	22.14
976.986	22.18
977.346	22.19
977.705	22.27
978.064	22.42
978.424	22.44
978.783	22.46
979.142	22.52
979.501	22.55
979.86	22.56
980.219	22.49
980.578	22.6
980.937	22.58
981.296	22.65
981.654	22.63
982.013	22.57
982.371	22.52
982.73	22.54
983.088	22.48
983.447	22.49
983.805	22.53
984.163	22.58
984.521	22.49
984.879	22.6
985.237	22.67
985.595	22.73
985.953	22.82
986.311	22.91
986.669	22.98
987.026	22.95
987.384	22.98
987.741	22.98
988.099	22.98
988.456	23.17
988.814	23.14
989.171	23.21
989.528	23.2
989.885	23.13
990.242	23.18
990.599	23.19
990.956	23.23
991.313	23.26
991.67	23.32
992.027	23.45
992.383	23.41
992.74	23.41
993.096	23.45
993.453	23.55
993.809	23.61
994.165	23.7
994.522	23.79
994.878	23.92
995.234	23.96
995.59	23.79
995.946	23.75
996.302	23.68
996.658	23.85
997.013	23.82
997.369	23.91
997.725	24.01
998.08	24.05
998.436	24
998.791	24.1
999.147	24.29
999.502	24.57
999.857	24.84
1000.212	24.95
1000.567	24.93
1000.922	25.07
1001.277	25.06
1001.632	25.14
1001.987	25.09
1002.342	25.31
1002.696	25.14
1003.051	24.88
1003.406	24.8
1003.76	24.67
1004.114	24.83
1004.469	24.92
1004.823	24.95
1005.177	25.04
1005.531	25.13
1005.885	25.21
1006.239	25.07
1006.593	25.3
1006.947	25.64
1007.301	25.94
1007.655	26.05
1008.008	26.03
1008.362	26.08
1008.715	25.98
1009.069	25.94
1009.422	25.82
1009.776	25.98
1010.129	26.19
1010.482	26.34
1010.835	26.34
1011.188	26.19
1011.541	26.14
1011.894	26.27
1012.247	26.34
1012.6	26.63
1012.952	26.82
1013.305	26.91
1013.657	27.06
1014.01	27.29
1014.362	27.39
1014.715	27.59
1015.067	27.87
1015.419	28.29
1015.771	28.67
1016.123	28.7
1016.475	28.89
1016.827	29.05
1017.179	29.28
1017.531	29.23
1017.883	29.3
1018.234	29.33
1018.586	29.33
1018.938	29.33
1019.289	29.02
1019.64	29.03
1019.992	29.37
1020.343	29.31
1020.694	29.17
1021.045	29.16
1021.396	29.44
1021.747	29.47
1022.098	29.89
1022.449	30.2
1022.8	30.4
1023.151	30.81
1023.501	30.84
1023.852	30.94
1024.202	31.34
1024.553	31.71
1024.903	32.37
1025.253	32.6
1025.604	33.05
1025.954	32.73
1026.304	33.07
1026.654	33.27
1027.004	33.58
1027.354	33.63
1027.703	33.92
1028.053	34.03
1028.403	34.54
1028.753	34.77
1029.102	35.15
1029.452	35.44
1029.801	36.27
1030.15	36.31
1030.499	36.69
897.758	544.25
901.051	554.72
904.343	560.16
907.636	548.95
910.928	539.99
914.22	548.26
917.511	536.69
920.803	515.29
924.094	495.1
927.384	496.89
930.675	482.58
933.965	479.45
937.255	478.66
940.544	457.21
943.834	439.99
947.123	434.03
950.411	413.09
953.7	405.95
956.988	392.83
960.276	374.83
963.563	371.7
966.851	352.81
970.138	345.85
973.424	321.5
976.711	318.82
979.997	308.27
983.283	299.43
986.568	289.81
989.853	281.14
993.138	271.66
996.423	269.56
999.708	259.61
1002.992	260.29
1006.275	254.86
1009.559	252.09
1012.842	243.79
1016.125	237.39
1019.408	233.59
1022.69	232.43
1025.972	231.04
1029.254	225.33
1032.536	220.75
1035.817	212.87
1039.098	210.11
1042.379	205.55
1045.659	203.66
1048.939	201.42
1052.219	197.42
1055.498	194.07
1058.778	189.43
1062.057	186.01
1065.335	185.56
1068.614	181.8
1071.892	180.54
1075.17	177.31
1078.447	174.96
1081.724	173.39
1085.001	170.31
1088.278	169.84
1091.554	169.03
1094.83	167.69
1098.106	165.81
1101.382	164.42
1104.657	164.3
1107.932	163.59
1111.206	161.6
1114.481	160.27
1117.755	158.18
1121.029	158.16
1124.302	155.58
1127.575	153.22
1130.848	153.4
1134.121	150.64
1137.393	150.21
1140.665	149.33
1143.937	147.49
1147.208	146.27
1150.48	144.39
1153.75	144.38
1157.021	143.06
1160.291	142.62
1163.561	142.84
1166.831	141.31
1170.101	141.65
1173.37	140.78
1176.639	139.43
1179.907	139.66
1183.176	139.87
1186.444	139.39
1189.711	138.35
1192.979	139.87
1196.246	139.64
1199.513	138.86
1202.78	139.73
1206.046	139.23
1209.312	139.29
1212.578	139.95
1215.843	141.68
1219.108	141.56
1222.373	144.02
1225.638	146.57
1228.902	148.09
1232.166	152.74
1235.43	155.03
1238.693	158.59
1241.956	162.93
1245.219	167.31
1248.482	169.01
1251.744	168.44
1255.006	169.97
1258.268	164.86
1261.529	163.93
1264.79	160.68
1268.051	157.21
1271.312	155.27
1274.572	151.94
1277.832	148.02
1281.092	145.97
1284.351	143.16
1287.61	143.08
1290.869	141.07
1294.128	141.91
1297.386	141.56
1300.644	141.01
1303.902	140.43
1307.159	140.48
1310.416	141.16
1313.673	143.32
1316.93	143.69
1320.186	145.8
1323.442	147.51
1326.697	151.04
1329.953	151.24
1333.208	156.31
1336.463	161.55
1339.717	164.62
1342.972	171.11
1346.226	176.44
1349.479	177.37
1352.733	185.95
1355.986	189.61
1359.238	193.13
1362.491	196.13
1365.743	204.58
1368.995	203.09
1372.247	203.2
1375.498	202.38
1378.749	209.09
1382	207.24
1385.251	206.53
1388.501	205.44
1391.751	207.91
1395	206.1
1398.25	206.59
1401.499	205.84
1404.748	206.5
1407.996	201.37
1411.244	201.63
1414.492	198.53
1417.74	192.43
1420.987	188.91
1424.234	185.13
1427.481	178.98
1430.728	174.22
1433.974	167.88
1437.22	162.91
1440.465	156.91
1443.711	152.64
1446.956	147.72
1450.201	142.46
1453.445	137.59
1456.689	133.88
1459.933	129.47
1463.177	123.7
1466.42	121.22
1469.663	117.67
1472.906	113.44
1476.148	111.48
1479.391	109.79
1482.633	108.5
1485.874	105.66
1489.115	104.54
1492.356	102.68
1495.597	101.5
1498.838	101.5
1502.078	100.95
1505.318	100.95
1508.557	100.17
1511.797	98.71
1515.036	98.35
1518.274	98.33
1521.513	97.62
1524.751	97.07
1527.989	97.64
1531.227	97.36
1534.464	96.75
1537.701	96.04
1540.938	96
1544.174	96.11
1547.41	96.29
1550.646	95.76
1553.882	95.53
1557.117	95.13
1560.352	95.19
1563.587	94.03
1566.821	94.08
1570.055	93.79
1573.289	93.66
1576.523	93.51
1579.756	93
1582.989	93.26
1586.222	93.15
1589.454	92.85
1592.686	93.08
1595.918	92.5
1599.15	92.77
1602.381	92.75
1605.612	92.78
1608.843	92.39
1612.073	93.11
1615.303	93.58
1618.533	93.01
1621.762	93.13
1624.992	93.3
1628.221	93.11
1631.449	93.82
1634.678	93.3
1637.906	93.37
1641.134	93.22
1644.361	93.82
1647.588	93.09
1650.815	93
1654.042	93.59
1657.269	93.21
1660.495	93.38
1663.72	93.97
1666.946	93.58
1670.171	94.33
1673.396	94.85
1676.621	95.87
1679.845	95.61
1683.069	95.74
1686.293	95.7
1689.517	95.42
1692.74	95.94
1695.963	95.9
1699.185	96.01
1702.408	96.65
1705.63	96.73
1708.852	97.11
1712.073	96.1
1715.294	96.3
1718.515	97.13
1721.736	97.44
1724.956	97.81
1728.176	97.74
1731.396	98.07
1734.616	98.1
1737.835	97.81
1741.054	97.88
1744.272	97.64
1747.491	98.32
1750.709	98.85
1753.927	98.7
1757.144	98.82
1760.361	98.98
1763.578	99.18
1766.795	99.81
1770.011	99.71
1773.227	100.34
1776.443	101.19
1779.658	101.24
1782.874	102.16
1786.089	102.07
1789.303	102.07
1792.518	103.22
1795.732	104.37
1798.945	105.3
1802.159	105.43
1805.372	107.17
1808.585	107.57
1811.797	107.88
1815.01	108.79
1818.222	108.92
1821.434	110.29
1824.645	110.86
1827.856	111.84
1831.067	112.08
1834.278	113.55
1837.488	114.54
1840.698	114.88
1843.908	115.31
1847.117	117.16
1850.326	118.09
1853.535	118.62
1856.744	119.32
1859.952	120.62
1863.16	120.22
1866.368	119.59
1869.575	120.14
1872.782	119.27
1875.989	118.95
1879.196	118.24
1882.402	116.54
1885.608	116.89
1888.814	115.87
1892.019	116.49
1895.224	114.45
1898.429	114.68
1901.634	115.41
1904.838	114.43
1908.042	114.6
1911.246	114.03
1914.449	114.52
1917.652	114.49
1920.855	114.58
1924.058	114.38
1927.26	113.61
1930.462	115.12
1933.664	114.54
1936.865	114
1940.066	113.98
1943.267	113.6
1946.467	114.93
1949.668	114.67
1952.868	115.64
1956.067	115.47
1959.267	116.51
1962.466	116.55
1965.665	117.12
1968.863	118.68
1972.061	120.02
1975.259	122.04
1978.457	122.8
1981.654	123.32
1984.852	124.47
1988.048	125.44
1991.245	127.59
1994.441	129.58
1997.637	133.34
2000.833	135.71
2004.028	136.86
2007.223	141.68
2010.418	143.96
2013.613	151.02
2016.807	155.17
2020.001	158.47
2023.194	163.18
2026.388	167.72
2029.581	176.38
2032.774	180.65
2035.966	186.95
2039.158	192.75
2042.35	193.21
2045.542	197.84
2048.733	206.32
2051.924	208.4
2055.115	210.05
2058.306	211.87
2061.496	215.46
2064.686	215.4
2067.875	213.98
2071.065	216.99
2074.254	217.45
2077.442	226.01
2080.631	227.08
2083.819	225.56
2087.007	229.44
2090.195	237.53
2093.382	237.66
2096.569	239.26
2099.756	242.73
2102.942	248.3
2106.128	251.5
2109.314	253.2
2112.5	251.91
2115.685	250.63
2118.87	250.62
2122.055	254.26
2125.239	256.23
2128.424	262.34
2131.608	259.45
2134.791	257.72
2137.974	260.23
2141.157	261.43
2144.34	263.85
2147.523	268.63
2150.705	275.2
2153.887	273.78
2157.068	275.08
2160.25	279.29
2163.431	276.83
2166.611	284.09
2169.792	291.2
2172.972	294.72
2176.152	298.42
2179.331	303.56
2182.511	302.02
2185.69	305.83
2188.868	317.33
2192.047	323.43
2195.225	326.89
2198.403	335.06
2201.58	329.44
2204.758	341.53
2207.935	343.6
2211.111	346.65
2214.288	349.83
2217.464	355.44
2220.64	357.72
2223.815	359.13
2226.991	355.58
2230.166	358.44
2233.34	367.39
2236.515	377.94
2239.689	373.68
2242.863	378.62
2246.036	375.89
2249.209	384.58
2252.382	385.55
2255.555	400.04
2258.727	402.96
2261.9	413.15
2265.071	418.77
2268.243	412.46
2271.414	425.21
2274.585	431.83
2277.756	435.75
2280.926	446.48
2284.096	446.31
2287.266	448.15
2290.436	439.62
2293.605	447.66
2296.774	465.57
2299.942	466.94
2303.111	486.89
2306.279	492.4
2309.447	494.35
2312.614	493.79
2315.781	509.21
2318.948	519.84
2322.115	529.76
2325.281	555.95
2328.447	552.9
2331.613	552.41
2334.779	559.17
2337.944	564.94
2341.109	581.3
2344.274	586.63
2347.438	601.89
2350.602	617
2353.766	649.36
2356.929	650.94
2360.092	660
2363.255	664.15
2366.418	677.18
2369.58	689.76
2372.742	683.97
2375.904	679.62
2379.066	699.85
2382.227	744.86
2385.388	738.49
2388.548	702.82
2391.709	701.08
2394.869	723.9
2398.029	720.74
2401.188	722.88
2404.347	748.41
2407.506	774.78
2410.665	741.34
2413.823	742.55
2416.981	739.39
2420.139	703.6
2423.296	757.41
2426.453	801
2429.61	766.25
2432.767	823.87
2435.923	846.8
2439.079	815.85
2442.235	835.82
2445.391	859.8
2448.546	852.05
2451.701	898.06
2454.855	957.23
2458.009	852.28
2461.163	871.26
2464.317	876.36
2467.471	853.9
2470.624	880.16
2473.777	862.98
2476.929	835.66
2480.082	891.68
2483.234	932.82
2486.385	944
2489.537	967.83
2492.688	1060.6
2495.839	1042.69
2498.989	1073.03
2502.14	1080.1
2505.29	1034.41
2508.439	1145.86
2511.589	1177.09
2514.738	1146.62
2517.887	1141.06
2521.035	1067.43
2524.183	1059.91
2527.331	1051.99
2530.479	1023.49
2533.627	1045.59
