Data from N_1_dec_on_6n_017_Splice17_15.txt Node
Date: Sat Feb 29 13:40:34 EST 2020
User: sa697716
Spectrometer: FLMS03696
Trigger mode: 0
Integration Time (sec): 3.180400E-1
Scans to average: 20
Electric dark correction enabled: true
Nonlinearity correction enabled: true
Boxcar width: 5
XAxis mode: Wavelengths
Number of Pixels in Spectrum: 2048
>>>>>Begin Spectral Data<<<<<
187.83	88.11
188.298	107.91
188.766	99.95
189.233	89.36
189.701	85.33
190.169	86.67
190.636	81.97
191.104	69.63
191.571	186.84
192.039	119.56
192.506	253.21
192.974	3645.08
193.441	-570.05
193.908	131.49
194.375	64.49
194.842	99.68
195.31	84.85
195.777	36.95
196.244	9.3
196.711	19.78
197.177	18.45
197.644	20.23
198.111	20.64
198.578	21.16
199.045	21.8
199.511	22.49
199.978	23.11
200.445	23
200.911	23.56
201.378	23.9
201.844	24.82
202.31	25.59
202.777	25.84
203.243	26.52
203.709	27.08
204.176	27.02
204.642	27.04
205.108	26.85
205.574	27.65
206.04	27.8
206.506	27.39
206.972	26.99
207.438	26.73
207.903	26.61
208.369	26.24
208.835	26.15
209.301	26.13
209.766	26.03
210.232	25.78
210.697	25.19
211.163	24.76
211.628	24.96
212.094	24.33
212.559	24.1
213.024	23.57
213.49	23.12
213.955	22.73
214.42	21.99
214.885	21.31
215.35	20.74
215.815	19.93
216.28	19.33
216.745	18.45
217.21	17.92
217.675	17.04
218.14	16.35
218.604	15.73
219.069	15.14
219.534	14.62
219.998	14.28
220.463	13.93
220.927	13.59
221.392	13.19
221.856	12.92
222.32	12.63
222.785	12.44
223.249	12.24
223.713	12.08
224.177	11.88
224.642	11.75
225.106	11.57
225.57	11.39
226.034	11.24
226.497	11.13
226.961	10.97
227.425	10.83
227.889	10.69
228.353	10.56
228.816	10.45
229.28	10.31
229.744	10.21
230.207	10.13
230.671	10.03
231.134	9.92
231.597	9.8
232.061	9.71
232.524	9.64
232.987	9.55
233.45	9.47
233.914	9.38
234.377	9.3
234.84	9.21
235.303	9.12
235.766	9.02
236.229	8.96
236.691	8.91
237.154	8.83
237.617	8.76
238.08	8.69
238.542	8.6
239.005	8.52
239.468	8.42
239.93	8.36
240.393	8.29
240.855	8.24
241.317	8.17
241.78	8.1
242.242	8.04
242.704	7.97
243.166	7.91
243.629	7.86
244.091	7.81
244.553	7.76
245.015	7.71
245.477	7.64
245.939	7.58
246.4	7.52
246.862	7.46
247.324	7.41
247.786	7.35
248.247	7.3
248.709	7.26
249.17	7.21
249.632	7.15
250.093	7.1
250.555	7.06
251.016	7.02
251.477	6.98
251.939	6.94
252.4	6.89
252.861	6.85
253.322	6.8
253.783	6.76
254.244	6.72
254.705	6.69
255.166	6.67
255.627	6.64
256.088	6.59
256.549	6.56
257.009	6.53
257.47	6.51
257.931	6.47
258.391	6.44
258.852	6.4
259.312	6.37
259.773	6.34
260.233	6.3
260.694	6.26
261.154	6.23
261.614	6.2
262.074	6.17
262.534	6.13
262.994	6.09
263.455	6.07
263.915	6.03
264.374	6
264.834	5.97
265.294	5.94
265.754	5.91
266.214	5.88
266.673	5.86
267.133	5.82
267.593	5.8
268.052	5.77
268.512	5.74
268.971	5.72
269.431	5.7
269.89	5.68
270.349	5.66
270.809	5.65
271.268	5.63
271.727	5.61
272.186	5.6
272.645	5.58
273.104	5.57
273.563	5.55
274.022	5.54
274.481	5.53
274.94	5.5
275.399	5.48
275.857	5.46
276.316	5.44
276.775	5.41
277.233	5.39
277.692	5.37
278.15	5.35
278.609	5.32
279.067	5.3
279.525	5.27
279.984	5.25
280.442	5.24
280.9	5.22
281.358	5.2
281.816	5.18
282.274	5.17
282.732	5.15
283.19	5.15
283.648	5.15
284.106	5.14
284.564	5.14
285.021	5.13
285.479	5.13
285.937	5.13
286.394	5.14
286.852	5.15
287.309	5.16
287.767	5.17
288.224	5.16
288.682	5.15
289.139	5.15
289.596	5.13
290.053	5.11
290.511	5.09
290.968	5.07
291.425	5.05
291.882	5.02
292.339	5
292.796	4.98
293.252	4.96
293.709	4.95
294.166	4.93
294.623	4.91
295.079	4.9
295.536	4.9
295.992	4.88
296.449	4.86
296.905	4.85
297.362	4.84
297.818	4.83
298.274	4.81
298.731	4.81
299.187	4.8
299.643	4.79
300.099	4.78
300.555	4.76
301.011	4.75
301.467	4.75
301.923	4.74
302.379	4.72
302.835	4.72
303.291	4.71
303.746	4.69
304.202	4.68
304.658	4.67
305.113	4.66
305.569	4.66
306.024	4.65
306.479	4.63
306.935	4.63
307.39	4.63
307.845	4.62
308.301	4.62
308.756	4.63
309.211	4.62
309.666	4.63
310.121	4.62
310.576	4.63
311.031	4.62
311.486	4.64
311.94	4.63
312.395	4.62
312.85	4.63
313.305	4.63
313.759	4.63
314.214	4.63
314.668	4.62
315.123	4.62
315.577	4.62
316.032	4.61
316.486	4.6
316.94	4.61
317.394	4.6
317.849	4.59
318.303	4.58
318.757	4.57
319.211	4.56
319.665	4.56
320.119	4.56
320.572	4.56
321.026	4.55
321.48	4.54
321.934	4.54
322.387	4.54
322.841	4.53
323.295	4.53
323.748	4.51
324.202	4.5
324.655	4.48
325.108	4.46
325.562	4.44
326.015	4.42
326.468	4.41
326.921	4.39
327.374	4.37
327.827	4.36
328.28	4.34
328.733	4.33
329.186	4.33
329.639	4.32
330.092	4.32
330.545	4.32
330.997	4.33
331.45	4.32
331.903	4.32
332.355	4.32
332.808	4.32
333.26	4.32
333.713	4.32
334.165	4.32
334.617	4.33
335.069	4.33
335.522	4.33
335.974	4.32
336.426	4.33
336.878	4.33
337.33	4.32
337.782	4.32
338.234	4.32
338.686	4.32
339.137	4.33
339.589	4.32
340.041	4.32
340.493	4.31
340.944	4.3
341.396	4.29
341.847	4.29
342.299	4.28
342.75	4.27
343.201	4.25
343.653	4.24
344.104	4.23
344.555	4.22
345.006	4.2
345.457	4.2
345.908	4.19
346.359	4.18
346.81	4.19
347.261	4.17
347.712	4.17
348.163	4.17
348.613	4.16
349.064	4.15
349.515	4.14
349.965	4.15
350.416	4.14
350.866	4.14
351.317	4.14
351.767	4.13
352.217	4.13
352.668	4.14
353.118	4.14
353.568	4.15
354.018	4.17
354.468	4.17
354.918	4.19
355.368	4.19
355.818	4.2
356.268	4.22
356.718	4.23
357.168	4.23
357.617	4.24
358.067	4.25
358.517	4.26
358.966	4.26
359.416	4.28
359.865	4.28
360.315	4.31
360.764	4.32
361.213	4.33
361.663	4.34
362.112	4.36
362.561	4.38
363.01	4.4
363.459	4.42
363.908	4.43
364.357	4.45
364.806	4.46
365.255	4.48
365.703	4.49
366.152	4.5
366.601	4.53
367.05	4.55
367.498	4.56
367.947	4.57
368.395	4.59
368.844	4.62
369.292	4.63
369.74	4.66
370.189	4.67
370.637	4.7
371.085	4.72
371.533	4.73
371.981	4.75
372.429	4.77
372.877	4.78
373.325	4.8
373.773	4.82
374.221	4.83
374.669	4.84
375.116	4.85
375.564	4.87
376.012	4.89
376.459	4.9
376.907	4.92
377.354	4.95
377.801	4.96
378.249	4.98
378.696	4.99
379.143	5.01
379.591	5.03
380.038	5.06
380.485	5.07
380.932	5.09
381.379	5.09
381.826	5.1
382.273	5.11
382.72	5.12
383.166	5.14
383.613	5.15
384.06	5.16
384.506	5.16
384.953	5.16
385.4	5.17
385.846	5.15
386.292	5.17
386.739	5.16
387.185	5.18
387.631	5.18
388.078	5.18
388.524	5.16
388.97	5.16
389.416	5.16
389.862	5.16
390.308	5.16
390.754	5.18
391.2	5.18
391.645	5.19
392.091	5.19
392.537	5.2
392.983	5.2
393.428	5.21
393.874	5.23
394.319	5.23
394.765	5.22
395.21	5.21
395.655	5.2
396.101	5.2
396.546	5.19
396.991	5.18
397.436	5.17
397.881	5.19
398.326	5.19
398.771	5.18
399.216	5.19
399.661	5.2
400.106	5.21
400.551	5.21
400.995	5.2
401.44	5.18
401.885	5.18
402.329	5.17
402.774	5.14
403.218	5.13
403.663	5.09
404.107	5.08
404.551	5.07
404.995	5.04
405.44	5.02
405.884	5.01
406.328	5
406.772	4.99
407.216	4.98
407.66	4.97
408.104	4.97
408.547	4.98
408.991	4.96
409.435	4.94
409.879	4.95
410.322	4.96
410.766	4.96
411.209	4.95
411.653	4.94
412.096	4.94
412.54	4.94
412.983	4.93
413.426	4.94
413.869	4.94
414.312	4.96
414.756	4.96
415.199	4.97
415.642	4.98
416.085	4.99
416.527	5.01
416.97	5.02
417.413	5.02
417.856	5
418.298	4.99
418.741	4.98
419.184	4.97
419.626	4.96
420.069	4.94
420.511	4.92
420.953	4.91
421.396	4.9
421.838	4.91
422.28	4.92
422.722	4.92
423.164	4.92
423.606	4.92
424.048	4.9
424.49	4.91
424.932	4.9
425.374	4.91
425.816	4.9
426.258	4.89
426.699	4.85
427.141	4.83
427.582	4.83
428.024	4.84
428.465	4.84
428.907	4.85
429.348	4.84
429.789	4.84
430.231	4.84
430.672	4.84
431.113	4.85
431.554	4.87
431.995	4.89
432.436	4.88
432.877	4.87
433.318	4.87
433.759	4.87
434.2	4.88
434.64	4.89
435.081	4.87
435.522	4.89
435.962	4.89
436.403	4.91
436.843	4.91
437.284	4.95
437.724	4.98
438.164	5
438.604	5.02
439.045	5.03
439.485	5.05
439.925	5.07
440.365	5.06
440.805	5.06
441.245	5.05
441.685	5.07
442.125	5.07
442.564	5.08
443.004	5.09
443.444	5.09
443.883	5.12
444.323	5.11
444.762	5.14
445.202	5.18
445.641	5.21
446.081	5.24
446.52	5.23
446.959	5.24
447.398	5.29
447.837	5.31
448.276	5.33
448.716	5.33
449.154	5.37
449.593	5.39
450.032	5.38
450.471	5.39
450.91	5.42
451.349	5.44
451.787	5.44
452.226	5.39
452.664	5.37
453.103	5.36
453.541	5.36
453.98	5.34
454.418	5.32
454.856	5.31
455.295	5.3
455.733	5.29
456.171	5.27
456.609	5.27
457.047	5.27
457.485	5.28
457.923	5.29
458.361	5.28
458.798	5.29
459.236	5.29
459.674	5.3
460.111	5.29
460.549	5.28
460.987	5.29
461.424	5.29
461.862	5.31
462.299	5.31
462.736	5.31
463.173	5.3
463.611	5.3
464.048	5.31
464.485	5.3
464.922	5.31
465.359	5.32
465.796	5.32
466.233	5.34
466.67	5.33
467.106	5.33
467.543	5.33
467.98	5.34
468.416	5.35
468.853	5.34
469.29	5.35
469.726	5.34
470.162	5.32
470.599	5.31
471.035	5.31
471.471	5.3
471.907	5.29
472.344	5.29
472.78	5.29
473.216	5.28
473.652	5.28
474.088	5.28
474.523	5.28
474.959	5.26
475.395	5.25
475.831	5.24
476.266	5.23
476.702	5.22
477.138	5.22
477.573	5.21
478.008	5.19
478.444	5.18
478.879	5.16
479.314	5.17
479.75	5.19
480.185	5.17
480.62	5.17
481.055	5.17
481.49	5.16
481.925	5.16
482.36	5.16
482.795	5.16
483.229	5.16
483.664	5.16
484.099	5.14
484.534	5.14
484.968	5.14
485.403	5.15
485.837	5.15
486.271	5.14
486.706	5.13
487.14	5.14
487.574	5.15
488.009	5.16
488.443	5.17
488.877	5.19
489.311	5.19
489.745	5.21
490.179	5.22
490.613	5.23
491.046	5.26
491.48	5.3
491.914	5.32
492.348	5.34
492.781	5.36
493.215	5.38
493.648	5.41
494.082	5.45
494.515	5.46
494.948	5.5
495.382	5.53
495.815	5.57
496.248	5.61
496.681	5.65
497.114	5.68
497.547	5.73
497.98	5.78
498.413	5.84
498.846	5.9
499.279	5.97
499.711	6.02
500.144	6.08
500.577	6.14
501.009	6.21
501.442	6.28
501.874	6.37
502.306	6.45
502.739	6.53
503.171	6.62
503.603	6.72
504.036	6.82
504.468	6.94
504.9	7.06
505.332	7.2
505.764	7.33
506.196	7.47
506.627	7.61
507.059	7.75
507.491	7.91
507.923	8.07
508.354	8.22
508.786	8.4
509.217	8.57
509.649	8.75
510.08	8.93
510.512	9.12
510.943	9.31
511.374	9.52
511.805	9.73
512.237	9.95
512.668	10.16
513.099	10.39
513.53	10.63
513.961	10.86
514.391	11.09
514.822	11.32
515.253	11.56
515.684	11.83
516.114	12.08
516.545	12.34
516.975	12.6
517.406	12.87
517.836	13.13
518.267	13.42
518.697	13.7
519.127	13.99
519.558	14.27
519.988	14.57
520.418	14.83
520.848	15.11
521.278	15.38
521.708	15.55
522.138	15.8
522.567	16.05
522.997	16.29
523.427	16.53
523.857	16.77
524.286	17.02
524.716	17.25
525.145	17.48
525.575	17.69
526.004	17.92
526.433	18.23
526.863	18.44
527.292	18.65
527.721	18.85
528.15	19.02
528.579	19.2
529.008	19.34
529.437	19.51
529.866	19.66
530.295	19.82
530.724	19.96
531.152	20.1
531.581	20.23
532.01	20.35
532.438	20.45
532.867	20.56
533.295	20.66
533.723	20.77
534.152	20.85
534.58	20.93
535.008	21
535.436	21.05
535.865	21.1
536.293	21.17
536.721	21.23
537.149	21.28
537.576	21.34
538.004	21.4
538.432	21.43
538.86	21.48
539.287	21.52
539.715	21.58
540.143	21.63
540.57	21.67
540.998	21.72
541.425	21.76
541.852	21.8
542.28	21.82
542.707	21.84
543.134	21.86
543.561	21.88
543.988	21.91
544.415	21.92
544.842	21.95
545.269	21.97
545.696	21.98
546.123	22.01
546.549	22.04
546.976	22.06
547.403	22.07
547.829	22.1
548.256	22.11
548.682	22.13
549.108	22.15
549.535	22.14
549.961	22.14
550.387	22.14
550.813	22.11
551.24	22.11
551.666	22.11
552.092	22.1
552.518	22.09
552.943	22.09
553.369	22.06
553.795	22.04
554.221	22.02
554.646	21.96
555.072	21.92
555.498	21.88
555.923	21.81
556.349	21.75
556.774	21.69
557.199	21.63
557.625	21.54
558.05	21.46
558.475	21.35
558.9	21.26
559.325	21.18
559.75	21.08
560.175	20.97
560.6	20.86
561.025	20.73
561.449	20.62
561.874	20.5
562.299	20.38
562.723	20.25
563.148	20.11
563.572	19.97
563.997	19.84
564.421	19.69
564.846	19.55
565.27	19.39
565.694	19.24
566.118	19.07
566.542	18.92
566.966	18.76
567.39	18.59
567.814	18.43
568.238	18.27
568.662	18.09
569.086	17.93
569.509	17.77
569.933	17.61
570.357	17.44
570.78	17.27
571.204	17.09
571.627	16.92
572.05	16.77
572.474	16.63
572.897	16.48
573.32	16.34
573.743	16.2
574.166	16.06
574.589	15.93
575.012	15.82
575.435	15.7
575.858	15.59
576.281	15.46
576.704	15.35
577.126	15.23
577.549	15.15
577.972	15.04
578.394	14.93
578.817	14.84
579.239	14.75
579.661	14.65
580.084	14.56
580.506	14.48
580.928	14.4
581.35	14.31
581.772	14.24
582.194	14.15
582.616	14.09
583.038	14.02
583.46	13.94
583.882	13.86
584.303	13.79
584.725	13.71
585.147	13.63
585.568	13.58
585.99	13.53
586.411	13.45
586.833	13.41
587.254	13.35
587.675	13.28
588.096	13.23
588.518	13.17
588.939	13.11
589.36	13.07
589.781	13.02
590.202	12.99
590.623	12.94
591.043	12.91
591.464	12.86
591.885	12.81
592.305	12.78
592.726	12.74
593.147	12.71
593.567	12.66
593.987	12.63
594.408	12.6
594.828	12.56
595.248	12.53
595.669	12.49
596.089	12.46
596.509	12.41
596.929	12.38
597.349	12.35
597.769	12.31
598.189	12.29
598.608	12.25
599.028	12.22
599.448	12.19
599.867	12.14
600.287	12.1
600.706	12.05
601.126	12.03
601.545	11.98
601.965	11.93
602.384	11.9
602.803	11.86
603.222	11.81
603.641	11.76
604.061	11.69
604.48	11.66
604.898	11.59
605.317	11.54
605.736	11.48
606.155	11.42
606.574	11.36
606.992	11.28
607.411	11.22
607.829	11.12
608.248	11.06
608.666	11
609.085	10.93
609.503	10.86
609.921	10.81
610.339	10.77
610.758	10.71
611.176	10.65
611.594	10.6
612.012	10.53
612.43	10.51
612.847	10.44
613.265	10.39
613.683	10.33
614.101	10.26
614.518	10.18
614.936	10.11
615.353	10.05
615.771	9.97
616.188	9.92
616.606	9.88
617.023	9.83
617.44	9.78
617.857	9.73
618.274	9.69
618.691	9.65
619.108	9.62
619.525	9.58
619.942	9.55
620.359	9.54
620.776	9.5
621.192	9.48
621.609	9.45
622.026	9.43
622.442	9.41
622.859	9.38
623.275	9.38
623.691	9.37
624.108	9.37
624.524	9.37
624.94	9.34
625.356	9.33
625.772	9.32
626.188	9.33
626.604	9.32
627.02	9.32
627.436	9.33
627.852	9.32
628.268	9.3
628.683	9.26
629.099	9.25
629.514	9.24
629.93	9.22
630.345	9.19
630.761	9.14
631.176	9.12
631.591	9.08
632.007	9.04
632.422	8.99
632.837	8.95
633.252	8.92
633.667	8.86
634.082	8.8
634.497	8.72
634.911	8.67
635.326	8.6
635.741	8.52
636.155	8.45
636.57	8.37
636.984	8.27
637.399	8.16
637.813	8.07
638.228	7.98
638.642	7.9
639.056	7.81
639.47	7.71
639.884	7.61
640.298	7.52
640.712	7.42
641.126	7.33
641.54	7.24
641.954	7.18
642.368	7.09
642.781	7.02
643.195	6.93
643.609	6.86
644.022	6.79
644.436	6.73
644.849	6.66
645.262	6.6
645.676	6.54
646.089	6.49
646.502	6.42
646.915	6.38
647.328	6.34
647.741	6.3
648.154	6.27
648.567	6.24
648.98	6.2
649.393	6.18
649.805	6.15
650.218	6.12
650.631	6.1
651.043	6.07
651.456	6.07
651.868	6.04
652.28	6.03
652.693	6
653.105	5.98
653.517	5.96
653.929	5.93
654.341	5.92
654.753	5.9
655.165	5.87
655.577	5.85
655.989	5.81
656.401	5.77
656.813	5.73
657.224	5.7
657.636	5.68
658.047	5.65
658.459	5.61
658.87	5.56
659.282	5.53
659.693	5.5
660.104	5.46
660.515	5.43
660.926	5.42
661.338	5.38
661.749	5.34
662.159	5.29
662.57	5.27
662.981	5.26
663.392	5.22
663.803	5.19
664.213	5.17
664.624	5.16
665.035	5.15
665.445	5.13
665.855	5.13
666.266	5.14
666.676	5.14
667.086	5.13
667.497	5.12
667.907	5.13
668.317	5.13
668.727	5.14
669.137	5.16
669.547	5.18
669.956	5.18
670.366	5.2
670.776	5.21
671.186	5.24
671.595	5.26
672.005	5.3
672.414	5.33
672.824	5.37
673.233	5.41
673.642	5.43
674.052	5.45
674.461	5.5
674.87	5.54
675.279	5.56
675.688	5.59
676.097	5.63
676.506	5.67
676.915	5.71
677.323	5.76
677.732	5.8
678.141	5.85
678.549	5.91
678.958	5.95
679.366	5.99
679.775	6.06
680.183	6.13
680.592	6.19
681	6.24
681.408	6.3
681.816	6.35
682.224	6.43
682.632	6.51
683.04	6.58
683.448	6.67
683.856	6.78
684.264	6.88
684.671	6.98
685.079	7.11
685.487	7.26
685.894	7.42
686.302	7.6
686.709	7.78
687.116	7.99
687.524	8.22
687.931	8.48
688.338	8.75
688.745	9.05
689.152	9.39
689.559	9.74
689.966	10.11
690.373	10.52
690.78	10.94
691.187	11.38
691.593	11.83
692	12.31
692.407	12.81
692.813	13.34
693.22	13.89
693.626	14.43
694.032	15.01
694.439	15.6
694.845	16.2
695.251	16.82
695.657	17.44
696.063	18.06
696.469	18.71
696.875	19.34
697.281	19.97
697.687	20.61
698.093	21.26
698.498	21.92
698.904	22.57
699.31	23.2
699.715	23.85
700.12	24.47
700.526	25.13
700.931	25.74
701.337	26.38
701.742	26.99
702.147	27.6
702.552	28.21
702.957	28.79
703.362	29.38
703.767	29.95
704.172	30.51
704.577	31.1
704.981	31.64
705.386	32.21
705.791	32.76
706.195	33.31
706.6	33.83
707.004	34.34
707.408	34.86
707.813	35.38
708.217	35.92
708.621	36.43
709.025	36.93
709.43	37.43
709.834	37.92
710.237	38.38
710.641	38.87
711.045	39.34
711.449	39.81
711.853	40.26
712.256	40.71
712.66	41.13
713.064	41.55
713.467	41.99
713.87	42.4
714.274	42.81
714.677	43.24
715.08	43.64
715.484	44.05
715.887	44.45
716.29	44.86
716.693	45.25
717.096	45.64
717.499	46.02
717.901	46.39
718.304	46.76
718.707	47.13
719.109	47.46
719.512	47.83
719.915	48.16
720.317	48.49
720.719	48.8
721.122	49.09
721.524	49.42
721.926	49.73
722.328	50.01
722.731	50.32
723.133	50.59
723.535	50.9
723.937	51.16
724.338	51.45
724.74	51.71
725.142	51.96
725.544	52.22
725.945	52.43
726.347	52.68
726.748	52.9
727.15	53.1
727.551	53.32
727.952	53.49
728.354	53.7
728.755	53.87
729.156	54.07
729.557	54.23
729.958	54.41
730.359	54.6
730.76	54.76
731.161	54.92
731.562	55.08
731.962	55.21
732.363	55.36
732.763	55.52
733.164	55.6
733.564	55.71
733.965	55.81
734.365	55.9
734.766	56.01
735.166	56.09
735.566	56.17
735.966	56.23
736.366	56.3
736.766	56.34
737.166	56.42
737.566	56.51
737.966	56.6
738.365	56.71
738.765	56.78
739.165	56.79
739.564	56.84
739.964	56.91
740.363	56.96
740.763	57.02
741.162	57.1
741.561	57.14
741.96	57.24
742.36	57.27
742.759	57.3
743.158	57.3
743.557	57.39
743.955	57.49
744.354	57.51
744.753	57.59
745.152	57.62
745.55	57.66
745.949	57.68
746.348	57.7
746.746	57.72
747.144	57.74
747.543	57.84
747.941	57.9
748.339	57.89
748.737	57.95
749.136	57.96
749.534	58.02
749.932	58.09
750.33	58.1
750.727	58.15
751.125	58.2
751.523	58.24
751.921	58.25
752.318	58.26
752.716	58.25
753.113	58.25
753.511	58.24
753.908	58.19
754.305	58.15
754.703	58.13
755.1	58.1
755.497	58.1
755.894	58.09
756.291	58.06
756.688	58.05
757.085	58.1
757.482	58.1
757.878	58.17
758.275	58.17
758.672	58.19
759.068	58.25
759.465	58.26
759.861	58.26
760.258	58.25
760.654	58.27
761.05	58.26
761.447	58.21
761.843	58.19
762.239	58.11
762.635	58.13
763.031	58.14
763.427	58.1
763.822	58.07
764.218	58.04
764.614	58.04
765.01	58.01
765.405	58.02
765.801	58.02
766.196	58.01
766.592	58.03
766.987	58.03
767.382	58.02
767.778	58.02
768.173	58.03
768.568	58
768.963	57.97
769.358	57.97
769.753	57.95
770.148	57.94
770.542	57.91
770.937	57.89
771.332	57.88
771.726	57.83
772.121	57.8
772.515	57.8
772.91	57.79
773.304	57.77
773.699	57.75
774.093	57.7
774.487	57.7
774.881	57.74
775.275	57.74
775.669	57.71
776.063	57.71
776.457	57.68
776.851	57.62
777.245	57.64
777.638	57.64
778.032	57.64
778.425	57.68
778.819	57.68
779.212	57.63
779.606	57.68
779.999	57.67
780.392	57.7
780.786	57.72
781.179	57.74
781.572	57.71
781.965	57.75
782.358	57.73
782.751	57.76
783.143	57.77
783.536	57.81
783.929	57.8
784.322	57.86
784.714	57.86
785.107	57.88
785.499	57.91
785.891	57.95
786.284	57.91
786.676	57.94
787.068	57.89
787.46	57.88
787.852	57.87
788.245	57.85
788.636	57.81
789.028	57.81
789.42	57.78
789.812	57.8
790.204	57.76
790.595	57.79
790.987	57.76
791.378	57.79
791.77	57.83
792.161	57.86
792.553	57.9
792.944	57.92
793.335	57.94
793.726	57.92
794.117	57.91
794.508	57.95
794.899	57.93
795.29	57.92
795.681	57.91
796.072	57.85
796.463	57.83
796.853	57.81
797.244	57.77
797.634	57.74
798.025	57.78
798.415	57.79
798.806	57.77
799.196	57.79
799.586	57.81
799.976	57.82
800.366	57.86
800.756	57.85
801.146	57.82
801.536	57.79
801.926	57.81
802.316	57.81
802.706	57.81
803.095	57.84
803.485	57.85
803.874	57.87
804.264	57.91
804.653	57.87
805.043	57.89
805.432	57.89
805.821	57.88
806.21	57.89
806.599	57.92
806.988	57.94
807.377	57.9
807.766	57.91
808.155	57.9
808.544	57.86
808.933	57.88
809.321	57.91
809.71	57.97
810.098	58
810.487	58.02
810.875	57.97
811.264	57.96
811.652	58
812.04	57.97
812.428	57.98
812.816	58.01
813.204	58.02
813.592	58
813.98	57.99
814.368	58
814.756	58
815.144	58.03
815.531	58.05
815.919	58.05
816.306	58.08
816.694	58.11
817.081	58.11
817.469	58.12
817.856	58.15
818.243	58.15
818.63	58.19
819.017	58.24
819.404	58.23
819.791	58.25
820.178	58.29
820.565	58.3
820.952	58.32
821.339	58.37
821.725	58.39
822.112	58.39
822.498	58.44
822.885	58.45
823.271	58.47
823.657	58.48
824.044	58.48
824.43	58.48
824.816	58.49
825.202	58.47
825.588	58.47
825.974	58.47
826.36	58.49
826.746	58.47
827.132	58.41
827.517	58.39
827.903	58.41
828.289	58.43
828.674	58.42
829.06	58.44
829.445	58.46
829.83	58.46
830.216	58.47
830.601	58.46
830.986	58.48
831.371	58.55
831.756	58.53
832.141	58.55
832.526	58.54
832.911	58.59
833.295	58.6
833.68	58.6
834.065	58.62
834.449	58.62
834.834	58.58
835.218	58.59
835.603	58.58
835.987	58.59
836.371	58.59
836.755	58.6
837.139	58.57
837.524	58.55
837.908	58.51
838.291	58.48
838.675	58.5
839.059	58.53
839.443	58.52
839.827	58.5
840.21	58.52
840.594	58.5
840.977	58.46
841.361	58.47
841.744	58.48
842.127	58.51
842.511	58.49
842.894	58.45
843.277	58.45
843.66	58.44
844.043	58.45
844.426	58.43
844.809	58.4
845.191	58.42
845.574	58.39
845.957	58.34
846.339	58.28
846.722	58.29
847.104	58.27
847.487	58.29
847.869	58.31
848.252	58.3
848.634	58.34
849.016	58.36
849.398	58.34
849.78	58.37
850.162	58.39
850.544	58.45
850.926	58.47
851.307	58.52
851.689	58.48
852.071	58.46
852.452	58.48
852.834	58.44
853.215	58.43
853.597	58.47
853.978	58.44
854.359	58.42
854.741	58.4
855.122	58.4
855.503	58.37
855.884	58.37
856.265	58.39
856.646	58.34
857.026	58.36
857.407	58.34
857.788	58.35
858.169	58.35
858.549	58.4
858.93	58.39
859.31	58.35
859.69	58.36
860.071	58.36
860.451	58.36
860.831	58.37
861.211	58.35
861.591	58.37
861.971	58.34
862.351	58.39
862.731	58.36
863.111	58.35
863.491	58.4
863.87	58.41
864.25	58.41
864.629	58.41
865.009	58.41
865.388	58.4
865.768	58.39
866.147	58.4
866.526	58.37
866.905	58.38
867.284	58.39
867.663	58.38
868.042	58.38
868.421	58.38
868.8	58.37
869.179	58.4
869.558	58.41
869.936	58.43
870.315	58.4
870.693	58.42
871.072	58.39
871.45	58.39
871.828	58.39
872.207	58.41
872.585	58.42
872.963	58.39
873.341	58.36
873.719	58.36
874.097	58.33
874.475	58.35
874.853	58.34
875.23	58.33
875.608	58.33
875.986	58.34
876.363	58.33
876.741	58.3
877.118	58.31
877.495	58.31
877.873	58.28
878.25	58.29
878.627	58.29
879.004	58.31
879.381	58.33
879.758	58.3
880.135	58.28
880.512	58.25
880.889	58.28
881.265	58.32
881.642	58.34
882.019	58.37
882.395	58.35
882.772	58.35
883.148	58.31
883.524	58.32
883.901	58.32
884.277	58.33
884.653	58.37
885.029	58.36
885.405	58.35
885.781	58.35
886.157	58.36
886.532	58.36
886.908	58.37
887.284	58.39
887.659	58.41
888.035	58.42
888.411	58.39
888.786	58.35
889.161	58.34
889.537	58.36
889.912	58.32
890.287	58.31
890.662	58.32
891.037	58.29
891.412	58.27
891.787	58.27
892.162	58.24
892.536	58.26
892.911	58.26
893.286	58.26
893.66	58.22
894.035	58.22
894.409	58.2
894.784	58.2
895.158	58.21
895.532	58.2
895.906	58.16
896.281	58.18
896.655	58.16
897.029	58.14
897.402	58.14
897.776	58.12
898.15	58.13
898.524	58.13
898.898	58.11
899.271	58.11
899.645	58.12
900.018	58.12
900.392	58.09
900.765	58.1
901.138	58.12
901.511	58.1
901.884	58.09
902.258	58.07
902.631	58.06
903.003	58.05
903.376	58.03
903.749	58.02
904.122	58.01
904.495	58
904.867	57.98
905.24	57.94
905.612	57.92
905.985	57.86
906.357	57.84
906.729	57.81
907.102	57.79
907.474	57.78
907.846	57.76
908.218	57.74
908.59	57.7
908.962	57.66
909.334	57.67
909.705	57.64
910.077	57.67
910.449	57.7
910.82	57.69
911.192	57.68
911.563	57.63
911.935	57.6
912.306	57.59
912.677	57.58
913.048	57.6
913.419	57.56
913.79	57.57
914.161	57.55
914.532	57.53
914.903	57.5
915.274	57.48
915.645	57.51
916.015	57.51
916.386	57.49
916.756	57.48
917.127	57.47
917.497	57.47
917.868	57.48
918.238	57.47
918.608	57.45
918.978	57.41
919.348	57.35
919.718	57.34
920.088	57.34
920.458	57.4
920.828	57.41
921.198	57.39
921.567	57.37
921.937	57.32
922.306	57.34
922.676	57.33
923.045	57.36
923.415	57.39
923.784	57.39
924.153	57.37
924.522	57.34
924.891	57.31
925.26	57.28
925.629	57.29
925.998	57.28
926.367	57.23
926.736	57.2
927.104	57.21
927.473	57.22
927.842	57.21
928.21	57.22
928.578	57.19
928.947	57.17
929.315	57.13
929.683	57.14
930.051	57.13
930.42	57.14
930.788	57.14
931.156	57.09
931.523	57.06
931.891	56.98
932.259	56.91
932.627	56.85
932.994	56.87
933.362	56.89
933.729	56.84
934.097	56.82
934.464	56.75
934.831	56.74
935.199	56.66
935.566	56.59
935.933	56.56
936.3	56.47
936.667	56.47
937.034	56.33
937.401	56.21
937.767	56.12
938.134	56.07
938.501	55.97
938.867	55.92
939.234	55.98
939.6	55.99
939.967	55.98
940.333	56.09
940.699	56.13
941.065	56.22
941.431	56.37
941.798	56.46
942.163	56.5
942.529	56.58
942.895	56.6
943.261	56.64
943.627	56.72
943.992	56.75
944.358	56.69
944.723	56.62
945.089	56.57
945.454	56.52
945.82	56.46
946.185	56.5
946.55	56.61
946.915	56.6
947.28	56.56
947.645	56.51
948.01	56.5
948.375	56.5
948.74	56.45
949.104	56.52
949.469	56.44
949.834	56.39
950.198	56.36
950.562	56.28
950.927	56.28
951.291	56.21
951.655	56.18
952.02	56.16
952.384	56.27
952.748	56.32
953.112	56.26
953.476	56.34
953.839	56.35
954.203	56.27
954.567	56.31
954.931	56.22
955.294	56.27
955.658	56.21
956.021	56.21
956.385	56.13
956.748	56.17
957.111	56.1
957.474	56.05
957.837	56.05
958.2	55.99
958.563	55.92
958.926	55.92
959.289	55.92
959.652	55.97
960.015	55.93
960.377	55.82
960.74	55.78
961.102	55.77
961.465	55.74
961.827	55.66
962.189	55.67
962.552	55.61
962.914	55.59
963.276	55.56
963.638	55.46
964	55.47
964.362	55.54
964.724	55.45
965.085	55.47
965.447	55.45
965.809	55.45
966.17	55.49
966.532	55.5
966.893	55.54
967.255	55.49
967.616	55.52
967.977	55.52
968.338	55.42
968.699	55.38
969.061	55.29
969.421	55.26
969.782	55.24
970.143	55.15
970.504	55.11
970.865	55.03
971.225	54.99
971.586	55.01
971.946	54.95
972.307	55
972.667	55.13
973.027	55.16
973.388	55.12
973.748	55.2
974.108	55.26
974.468	55.29
974.828	55.25
975.188	55.23
975.548	55.18
975.907	55.19
976.267	55.22
976.627	55.14
976.986	55.21
977.346	55.24
977.705	55.21
978.064	55.24
978.424	55.24
978.783	55.32
979.142	55.41
979.501	55.43
979.86	55.46
980.219	55.36
980.578	55.34
980.937	55.28
981.296	55.27
981.654	55.35
982.013	55.24
982.371	55.2
982.73	55.15
983.088	55.05
983.447	55.05
983.805	54.97
984.163	55.02
984.521	54.96
984.879	54.95
985.237	54.96
985.595	54.87
985.953	54.92
986.311	54.96
986.669	55.02
987.026	55.05
987.384	54.99
987.741	54.99
988.099	55
988.456	55.06
988.814	55.04
989.171	54.99
989.528	54.96
989.885	54.92
990.242	54.92
990.599	54.89
990.956	54.86
991.313	54.88
991.67	54.86
992.027	54.76
992.383	54.74
992.74	54.7
993.096	54.67
993.453	54.68
993.809	54.63
994.165	54.61
994.522	54.5
994.878	54.47
995.234	54.56
995.59	54.48
995.946	54.5
996.302	54.33
996.658	54.31
997.013	54.32
997.369	54.31
997.725	54.38
998.08	54.42
998.436	54.46
998.791	54.45
999.147	54.37
999.502	54.5
999.857	54.59
1000.212	54.73
1000.567	54.63
1000.922	54.57
1001.277	54.56
1001.632	54.48
1001.987	54.33
1002.342	54.34
1002.696	54.33
1003.051	54.19
1003.406	54
1003.76	53.96
1004.114	54.01
1004.469	54.11
1004.823	54.25
1005.177	54.32
1005.531	54.32
1005.885	54.36
1006.239	54.21
1006.593	54.14
1006.947	54.04
1007.301	54.14
1007.655	53.93
1008.008	53.68
1008.362	53.59
1008.715	53.55
1009.069	53.23
1009.422	53.02
1009.776	52.94
1010.129	53
1010.482	53
1010.835	53.11
1011.188	53.05
1011.541	52.94
1011.894	53.18
1012.247	53.07
1012.6	52.95
1012.952	53.09
1013.305	53.1
1013.657	53.06
1014.01	53.17
1014.362	53.24
1014.715	53.21
1015.067	53.27
1015.419	53.45
1015.771	53.49
1016.123	53.52
1016.475	53.5
1016.827	53.65
1017.179	53.75
1017.531	53.74
1017.883	53.75
1018.234	53.78
1018.586	53.7
1018.938	53.55
1019.289	53.15
1019.64	52.92
1019.992	52.95
1020.343	52.86
1020.694	52.37
1021.045	52.37
1021.396	52.54
1021.747	52.32
1022.098	52.16
1022.449	52.21
1022.8	52.13
1023.151	52.4
1023.501	52.42
1023.852	52.31
1024.202	51.92
1024.553	52.13
1024.903	52.04
1025.253	51.86
1025.604	51.93
1025.954	51.77
1026.304	52.12
1026.654	52.11
1027.004	51.97
1027.354	51.99
1027.703	52.07
1028.053	52.55
1028.403	52.58
1028.753	52.61
1029.102	52.28
1029.452	51.89
1029.801	51.74
1030.15	51.24
1030.499	51.26
897.758	563.22
901.051	574.88
904.343	579.28
907.636	569.97
910.928	562.47
914.22	570.11
917.511	556.3
920.803	538.2
924.094	514.57
927.384	516.17
930.675	503.35
933.965	496.47
937.255	497.21
940.544	476.98
943.834	456.22
947.123	448.51
950.411	426.85
953.7	420.76
956.988	403.5
960.276	388.64
963.563	382.49
966.851	363.07
970.138	358.53
973.424	333.64
976.711	328.01
979.997	318.54
983.283	311.59
986.568	300.93
989.853	292.86
993.138	284
996.423	279.09
999.708	271.9
1002.992	272.59
1006.275	263.58
1009.559	261.46
1012.842	253.25
1016.125	245.19
1019.408	240.29
1022.69	238.45
1025.972	237.78
1029.254	230.74
1032.536	228.1
1035.817	219.23
1039.098	217.14
1042.379	213.8
1045.659	210.76
1048.939	210.42
1052.219	206.32
1055.498	203.06
1058.778	200.22
1062.057	195.54
1065.335	196.17
1068.614	191.53
1071.892	190.38
1075.17	186.57
1078.447	183.71
1081.724	182.08
1085.001	178.48
1088.278	177.81
1091.554	176.94
1094.83	176.61
1098.106	172.84
1101.382	171.86
1104.657	171.7
1107.932	171.2
1111.206	169.92
1114.481	168.19
1117.755	167.35
1121.029	167.11
1124.302	165.48
1127.575	162.59
1130.848	161.06
1134.121	160.01
1137.393	159
1140.665	157.64
1143.937	155.53
1147.208	154.37
1150.48	153
1153.75	151.88
1157.021	149.66
1160.291	149.59
1163.561	149.44
1166.831	148.5
1170.101	148.42
1173.37	147.5
1176.639	145.89
1179.907	146.58
1183.176	145.35
1186.444	145.71
1189.711	144.75
1192.979	147.32
1196.246	146.53
1199.513	145.25
1202.78	145.4
1206.046	145.49
1209.312	146
1212.578	147.69
1215.843	149.02
1219.108	150.42
1222.373	152.24
1225.638	154.54
1228.902	156.37
1232.166	160.98
1235.43	164.53
1238.693	169.1
1241.956	172.37
1245.219	176.73
1248.482	177.54
1251.744	176.83
1255.006	178.2
1258.268	174.07
1261.529	172.84
1264.79	168.55
1268.051	164.16
1271.312	163.35
1274.572	159.27
1277.832	156.32
1281.092	154.56
1284.351	151.74
1287.61	151.76
1290.869	150.11
1294.128	149.81
1297.386	149.54
1300.644	148.82
1303.902	148.97
1307.159	147.9
1310.416	148.98
1313.673	150.75
1316.93	150.78
1320.186	153.47
1323.442	154.97
1326.697	157.75
1329.953	158.75
1333.208	163.08
1336.463	168.29
1339.717	171.72
1342.972	179.12
1346.226	183.24
1349.479	183.81
1352.733	192.24
1355.986	195.77
1359.238	199.67
1362.491	201.65
1365.743	208.42
1368.995	209.21
1372.247	210.5
1375.498	209.23
1378.749	216.09
1382	214.71
1385.251	214.21
1388.501	213.61
1391.751	215.34
1395	214.08
1398.25	215.5
1401.499	215.92
1404.748	215.74
1407.996	210.1
1411.244	211.07
1414.492	206.14
1417.74	200.4
1420.987	196.05
1424.234	191.77
1427.481	184.67
1430.728	179.19
1433.974	173.2
1437.22	166.85
1440.465	161.54
1443.711	157.03
1446.956	152.64
1450.201	146.68
1453.445	141.64
1456.689	138.07
1459.933	132.66
1463.177	127.76
1466.42	124.71
1469.663	121.38
1472.906	118.05
1476.148	115.33
1479.391	112.87
1482.633	110.69
1485.874	109.32
1489.115	108.19
1492.356	105.77
1495.597	105.16
1498.838	104.76
1502.078	104.4
1505.318	104.06
1508.557	103.05
1511.797	101.43
1515.036	101.58
1518.274	100.95
1521.513	99.51
1524.751	99.02
1527.989	100.17
1531.227	99.97
1534.464	99.43
1537.701	98.97
1540.938	98.57
1544.174	98.38
1547.41	99.38
1550.646	98.93
1553.882	99.15
1557.117	99.26
1560.352	99.34
1563.587	97.94
1566.821	98.08
1570.055	97.41
1573.289	97.35
1576.523	97.49
1579.756	97.28
1582.989	96.96
1586.222	97.14
1589.454	96.29
1592.686	96.8
1595.918	96.39
1599.15	96.92
1602.381	96.91
1605.612	97.42
1608.843	97.06
1612.073	97.7
1615.303	98.34
1618.533	97.78
1621.762	97.6
1624.992	97.9
1628.221	97.28
1631.449	98.08
1634.678	97.59
1637.906	97.62
1641.134	97.64
1644.361	98.07
1647.588	97.52
1650.815	97.38
1654.042	97.65
1657.269	97.5
1660.495	98.54
1663.72	98.26
1666.946	97.67
1670.171	98.37
1673.396	99.1
1676.621	99.25
1679.845	99.68
1683.069	99.44
1686.293	99.17
1689.517	99.29
1692.74	99.41
1695.963	99.84
1699.185	100.52
1702.408	101.46
1705.63	101.38
1708.852	101.64
1712.073	100.98
1715.294	100.54
1718.515	101.46
1721.736	101.93
1724.956	101.73
1728.176	101.74
1731.396	101.69
1734.616	101.79
1737.835	101.35
1741.054	101.29
1744.272	100.35
1747.491	101.43
1750.709	101.57
1753.927	101.56
1757.144	101.36
1760.361	101.96
1763.578	102.53
1766.795	102.92
1770.011	102.85
1773.227	103.63
1776.443	104.26
1779.658	104.82
1782.874	105.67
1786.089	105.82
1789.303	105.8
1792.518	107.25
1795.732	107.76
1798.945	108.94
1802.159	108.73
1805.372	110.49
1808.585	110.83
1811.797	111.34
1815.01	112.05
1818.222	111.92
1821.434	113.91
1824.645	114.36
1827.856	115.51
1831.067	115.81
1834.278	116.35
1837.488	117.68
1840.698	117.74
1843.908	118.1
1847.117	119.18
1850.326	120.27
1853.535	119.83
1856.744	120.4
1859.952	121.77
1863.16	121.75
1866.368	121.57
1869.575	122.57
1872.782	120.91
1875.989	119.79
1879.196	119.64
1882.402	118.44
1885.608	119.42
1888.814	120.04
1892.019	118.88
1895.224	117.06
1898.429	117.07
1901.634	118.07
1904.838	117
1908.042	117.58
1911.246	118.24
1914.449	118.35
1917.652	118.61
1920.855	118.05
1924.058	117.16
1927.26	117.69
1930.462	118.57
1933.664	118.55
1936.865	118.22
1940.066	117.08
1943.267	117.19
1946.467	117.86
1949.668	117.92
1952.868	118.99
1956.067	118.37
1959.267	119.38
1962.466	119.85
1965.665	120.11
1968.863	121.64
1972.061	121.39
1975.259	125.11
1978.457	125.67
1981.654	126.66
1984.852	127.57
1988.048	128.31
1991.245	131.15
1994.441	133.81
1997.637	136.77
2000.833	140.21
2004.028	141.22
2007.223	146.83
2010.418	149.16
2013.613	155.23
2016.807	159.66
2020.001	162.29
2023.194	168.15
2026.388	173.33
2029.581	181.31
2032.774	185.42
2035.966	190.65
2039.158	196.3
2042.35	198.01
2045.542	201.02
2048.733	210.25
2051.924	211.68
2055.115	215.81
2058.306	216.98
2061.496	221.12
2064.686	220.77
2067.875	220.19
2071.065	221.31
2074.254	221.9
2077.442	230.41
2080.631	232.95
2083.819	232.95
2087.007	237.62
2090.195	241.58
2093.382	241.07
2096.569	240.49
2099.756	244.74
2102.942	250.56
2106.128	257.98
2109.314	257.44
2112.5	256.59
2115.685	254.94
2118.87	254.56
2122.055	255.95
2125.239	260.68
2128.424	266.88
2131.608	265.93
2134.791	263.18
2137.974	267.3
2141.157	268.16
2144.34	273.01
2147.523	275.23
2150.705	282.54
2153.887	280.3
2157.068	283.19
2160.25	286.65
2163.431	285.16
2166.611	290.55
2169.792	298.75
2172.972	300.61
2176.152	302.18
2179.331	308.38
2182.511	308.34
2185.69	312.42
2188.868	325.74
2192.047	332.24
2195.225	335.11
2198.403	341.93
2201.58	335.49
2204.758	347.12
2207.935	348.81
2211.111	350.64
2214.288	353.49
2217.464	361.25
2220.64	363.04
2223.815	363.1
2226.991	357.21
2230.166	360.33
2233.34	370.25
2236.515	382.22
2239.689	379.95
2242.863	387.49
2246.036	384.89
2249.209	398.09
2252.382	395.07
2255.555	407.3
2258.727	409.27
2261.9	424.68
2265.071	432.01
2268.243	427.72
2271.414	440.32
2274.585	447.12
2277.756	446.95
2280.926	465.49
2284.096	458.53
2287.266	460.4
2290.436	454.32
2293.605	466.41
2296.774	483.12
2299.942	480.84
2303.111	494.05
2306.279	500.18
2309.447	503.96
2312.614	506.4
2315.781	518.15
2318.948	529.39
2322.115	540.62
2325.281	567.3
2328.447	561.57
2331.613	560.58
2334.779	572.33
2337.944	580.25
2341.109	594.91
2344.274	597.48
2347.438	617.88
2350.602	628.22
2353.766	658.87
2356.929	663.82
2360.092	669.97
2363.255	673.86
2366.418	687.04
2369.58	699.32
2372.742	696.47
2375.904	692.22
2379.066	711.85
2382.227	749.32
2385.388	748.63
2388.548	716.94
2391.709	707.73
2394.869	729.17
2398.029	733.71
2401.188	728.88
2404.347	748.78
2407.506	775.39
2410.665	752.32
2413.823	755.15
2416.981	752.97
2420.139	715.97
2423.296	771.72
2426.453	820.46
2429.61	786.44
2432.767	836.27
2435.923	872.15
2439.079	833.38
2442.235	857.38
2445.391	869.64
2448.546	865.28
2451.701	909.17
2454.855	971.52
2458.009	855.41
2461.163	874.5
2464.317	875.84
2467.471	860.25
2470.624	885.77
2473.777	881.37
2476.929	852.5
2480.082	915.8
2483.234	955.65
2486.385	964.92
2489.537	991.05
2492.688	1095.94
2495.839	1080.3
2498.989	1118.79
2502.14	1120.73
2505.29	1070.59
2508.439	1194.9
2511.589	1224.22
2514.738	1187.96
2517.887	1177.35
2521.035	1115.2
2524.183	1089.25
2527.331	1080.95
2530.479	1053.3
2533.627	1077.52
