Data from N_1_hir_wi_4n_041_Splice17_01.txt Node
Date: Sat Feb 29 13:50:07 EST 2020
User: sa697716
Spectrometer: FLMS03696
Trigger mode: 0
Integration Time (sec): 3.180400E-1
Scans to average: 20
Electric dark correction enabled: true
Nonlinearity correction enabled: true
Boxcar width: 5
XAxis mode: Wavelengths
Number of Pixels in Spectrum: 2048
>>>>>Begin Spectral Data<<<<<
187.83	110.73
188.298	116.17
188.766	112.99
189.233	105.35
189.701	110.93
190.169	112.76
190.636	133.32
191.104	139.17
191.571	440.74
192.039	326.89
192.506	-238.21
192.974	362.22
193.441	127.11
193.908	84.63
194.375	31.2
194.842	155.61
195.31	108.87
195.777	141.26
196.244	68.24
196.711	65.11
197.177	64.09
197.644	63.55
198.111	64.2
198.578	64.02
199.045	64.32
199.511	64.11
199.978	64.49
200.445	64.65
200.911	64.63
201.378	64.51
201.844	64.45
202.31	64.45
202.777	64.84
203.243	64.86
203.709	64.92
204.176	64.09
204.642	63.9
205.108	63.03
205.574	62.53
206.04	61.88
206.506	61.23
206.972	60.9
207.438	60.3
207.903	59.27
208.369	57.67
208.835	56.91
209.301	56.18
209.766	54.99
210.232	54.06
210.697	52.97
211.163	51.94
211.628	50.74
212.094	49.28
212.559	48.03
213.024	46.81
213.49	45.49
213.955	44.17
214.42	42.6
214.885	40.95
215.35	38.71
215.815	36.16
216.28	33.47
216.745	30.72
217.21	27.94
217.675	25.15
218.14	22.5
218.604	20.22
219.069	18.29
219.534	16.75
219.998	15.31
220.463	14.21
220.927	13.25
221.392	12.42
221.856	11.69
222.32	11.07
222.785	10.59
223.249	10.15
223.713	9.79
224.177	9.42
224.642	9.08
225.106	8.78
225.57	8.49
226.034	8.26
226.497	8.01
226.961	7.79
227.425	7.55
227.889	7.32
228.353	7.14
228.816	6.98
229.28	6.8
229.744	6.67
230.207	6.56
230.671	6.47
231.134	6.33
231.597	6.23
232.061	6.12
232.524	6.04
232.987	5.95
233.45	5.87
233.914	5.79
234.377	5.71
234.84	5.62
235.303	5.55
235.766	5.47
236.229	5.42
236.691	5.37
237.154	5.32
237.617	5.27
238.08	5.24
238.542	5.19
239.005	5.14
239.468	5.09
239.93	5.05
240.393	5.01
240.855	4.95
241.317	4.9
241.78	4.86
242.242	4.81
242.704	4.76
243.166	4.71
243.629	4.66
244.091	4.64
244.553	4.6
245.015	4.56
245.477	4.52
245.939	4.49
246.4	4.45
246.862	4.42
247.324	4.4
247.786	4.37
248.247	4.33
248.709	4.3
249.17	4.27
249.632	4.24
250.093	4.2
250.555	4.18
251.016	4.17
251.477	4.14
251.939	4.11
252.4	4.08
252.861	4.05
253.322	4.03
253.783	4.02
254.244	4
254.705	3.97
255.166	3.96
255.627	3.93
256.088	3.89
256.549	3.87
257.009	3.84
257.47	3.81
257.931	3.79
258.391	3.76
258.852	3.71
259.312	3.7
259.773	3.68
260.233	3.64
260.694	3.63
261.154	3.6
261.614	3.57
262.074	3.55
262.534	3.53
262.994	3.51
263.455	3.49
263.915	3.47
264.374	3.45
264.834	3.42
265.294	3.4
265.754	3.38
266.214	3.37
266.673	3.36
267.133	3.35
267.593	3.34
268.052	3.32
268.512	3.31
268.971	3.31
269.431	3.29
269.89	3.29
270.349	3.28
270.809	3.28
271.268	3.27
271.727	3.26
272.186	3.26
272.645	3.25
273.104	3.25
273.563	3.24
274.022	3.24
274.481	3.23
274.94	3.22
275.399	3.23
275.857	3.22
276.316	3.22
276.775	3.21
277.233	3.2
277.692	3.2
278.15	3.19
278.609	3.18
279.067	3.17
279.525	3.17
279.984	3.17
280.442	3.16
280.9	3.17
281.358	3.16
281.816	3.16
282.274	3.16
282.732	3.16
283.19	3.16
283.648	3.17
284.106	3.16
284.564	3.16
285.021	3.17
285.479	3.16
285.937	3.15
286.394	3.15
286.852	3.15
287.309	3.15
287.767	3.15
288.224	3.14
288.682	3.14
289.139	3.14
289.596	3.13
290.053	3.11
290.511	3.1
290.968	3.1
291.425	3.09
291.882	3.08
292.339	3.07
292.796	3.05
293.252	3.04
293.709	3.03
294.166	3.02
294.623	3.02
295.079	3.02
295.536	3.01
295.992	3.01
296.449	3
296.905	2.99
297.362	2.98
297.818	2.98
298.274	2.97
298.731	2.96
299.187	2.96
299.643	2.96
300.099	2.96
300.555	2.95
301.011	2.95
301.467	2.95
301.923	2.95
302.379	2.96
302.835	2.96
303.291	2.97
303.746	2.98
304.202	2.97
304.658	2.98
305.113	2.98
305.569	2.99
306.024	2.99
306.479	2.99
306.935	2.99
307.39	2.99
307.845	2.99
308.301	2.99
308.756	3
309.211	3
309.666	3
310.121	2.99
310.576	2.99
311.031	2.99
311.486	3
311.94	3
312.395	3.01
312.85	3
313.305	3
313.759	3
314.214	3.01
314.668	3.01
315.123	3.02
315.577	3.02
316.032	3.02
316.486	3.01
316.94	3.01
317.394	3
317.849	3
318.303	2.99
318.757	2.98
319.211	2.97
319.665	2.96
320.119	2.96
320.572	2.96
321.026	2.95
321.48	2.95
321.934	2.95
322.387	2.95
322.841	2.94
323.295	2.94
323.748	2.94
324.202	2.94
324.655	2.94
325.108	2.93
325.562	2.92
326.015	2.91
326.468	2.91
326.921	2.9
327.374	2.9
327.827	2.9
328.28	2.9
328.733	2.89
329.186	2.89
329.639	2.88
330.092	2.88
330.545	2.88
330.997	2.89
331.45	2.89
331.903	2.89
332.355	2.89
332.808	2.89
333.26	2.9
333.713	2.92
334.165	2.91
334.617	2.93
335.069	2.93
335.522	2.94
335.974	2.94
336.426	2.94
336.878	2.95
337.33	2.95
337.782	2.96
338.234	2.96
338.686	2.96
339.137	2.96
339.589	2.95
340.041	2.95
340.493	2.93
340.944	2.92
341.396	2.91
341.847	2.9
342.299	2.88
342.75	2.87
343.201	2.84
343.653	2.83
344.104	2.82
344.555	2.81
345.006	2.8
345.457	2.8
345.908	2.8
346.359	2.8
346.81	2.8
347.261	2.79
347.712	2.8
348.163	2.8
348.613	2.79
349.064	2.79
349.515	2.79
349.965	2.78
350.416	2.78
350.866	2.79
351.317	2.78
351.767	2.78
352.217	2.78
352.668	2.77
353.118	2.77
353.568	2.77
354.018	2.79
354.468	2.79
354.918	2.8
355.368	2.8
355.818	2.79
356.268	2.8
356.718	2.8
357.168	2.79
357.617	2.79
358.067	2.79
358.517	2.78
358.966	2.78
359.416	2.78
359.865	2.77
360.315	2.76
360.764	2.77
361.213	2.76
361.663	2.77
362.112	2.78
362.561	2.78
363.01	2.8
363.459	2.79
363.908	2.79
364.357	2.79
364.806	2.79
365.255	2.79
365.703	2.79
366.152	2.79
366.601	2.8
367.05	2.8
367.498	2.79
367.947	2.78
368.395	2.8
368.844	2.8
369.292	2.79
369.74	2.8
370.189	2.8
370.637	2.8
371.085	2.81
371.533	2.8
371.981	2.8
372.429	2.79
372.877	2.79
373.325	2.78
373.773	2.78
374.221	2.78
374.669	2.77
375.116	2.76
375.564	2.75
376.012	2.75
376.459	2.76
376.907	2.77
377.354	2.77
377.801	2.78
378.249	2.79
378.696	2.8
379.143	2.8
379.591	2.8
380.038	2.82
380.485	2.84
380.932	2.84
381.379	2.83
381.826	2.84
382.273	2.85
382.72	2.86
383.166	2.86
383.613	2.88
384.06	2.9
384.506	2.93
384.953	2.96
385.4	2.99
385.846	3.03
386.292	3.09
386.739	3.14
387.185	3.22
387.631	3.27
388.078	3.32
388.524	3.36
388.97	3.41
389.416	3.45
389.862	3.51
390.308	3.59
390.754	3.7
391.2	3.8
391.645	3.89
392.091	3.95
392.537	4.04
392.983	4.17
393.428	4.34
393.874	4.56
394.319	4.81
394.765	5.07
395.21	5.34
395.655	5.61
396.101	5.92
396.546	6.27
396.991	6.66
397.436	7.07
397.881	7.5
398.326	7.93
398.771	8.33
399.216	8.72
399.661	9.09
400.106	9.43
400.551	9.74
400.995	10.02
401.44	10.25
401.885	10.49
402.329	10.74
402.774	11.01
403.218	11.3
403.663	11.62
404.107	11.98
404.551	12.34
404.995	12.7
405.44	13.02
405.884	13.37
406.328	13.77
406.772	14.22
407.216	14.7
407.66	15.13
408.104	15.54
408.547	15.9
408.991	16.2
409.435	16.54
409.879	16.92
410.322	17.37
410.766	17.84
411.209	18.29
411.653	18.67
412.096	19.02
412.54	19.36
412.983	19.71
413.426	20.09
413.869	20.49
414.312	20.87
414.756	21.22
415.199	21.52
415.642	21.79
416.085	22.02
416.527	22.24
416.97	22.4
417.413	22.49
417.856	22.49
418.298	22.48
418.741	22.5
419.184	22.56
419.626	22.65
420.069	22.78
420.511	22.93
420.953	23.07
421.396	23.26
421.838	23.48
422.28	23.81
422.722	24.15
423.164	24.47
423.606	24.79
424.048	25.01
424.49	25.13
424.932	25.05
425.374	24.74
425.816	24.3
426.258	23.77
426.699	23.39
427.141	23.25
427.582	23.44
428.024	23.79
428.465	24.13
428.907	24.5
429.348	24.87
429.789	25.32
430.231	26.05
430.672	27.08
431.113	28.29
431.554	29.49
431.995	30.46
432.436	31.14
432.877	31.61
433.318	32.02
433.759	32.44
434.2	32.93
434.64	33.59
435.081	34.22
435.522	34.79
435.962	35.25
436.403	35.62
436.843	35.92
437.284	36.23
437.724	36.64
438.164	37.11
438.604	37.64
439.045	38.24
439.485	38.75
439.925	39.24
440.365	39.6
440.805	39.86
441.245	40.03
441.685	40.23
442.125	40.49
442.564	40.79
443.004	41.12
443.444	41.47
443.883	41.85
444.323	42.26
444.762	42.64
445.202	43.09
445.641	43.62
446.081	44.32
446.52	45.01
446.959	45.65
447.398	46.17
447.837	46.53
448.276	46.66
448.716	46.72
449.154	46.8
449.593	46.86
450.032	46.87
450.471	46.78
450.91	46.59
451.349	46.41
451.787	46.2
452.226	46.07
452.664	45.97
453.103	45.98
453.541	45.98
453.98	45.85
454.418	45.69
454.856	45.47
455.295	45.27
455.733	45.09
456.171	44.92
456.609	44.81
457.047	44.7
457.485	44.67
457.923	44.68
458.361	44.74
458.798	44.9
459.236	45.05
459.674	45.21
460.111	45.37
460.549	45.51
460.987	45.69
461.424	45.86
461.862	46.05
462.299	46.17
462.736	46.33
463.173	46.53
463.611	46.78
464.048	47.14
464.485	47.58
464.922	48.1
465.359	48.61
465.796	49.04
466.233	49.43
466.67	49.87
467.106	50.45
467.543	51.13
467.98	51.77
468.416	52.34
468.853	52.76
469.29	53.22
469.726	53.64
470.162	54.18
470.599	54.7
471.035	55.23
471.471	55.6
471.907	55.77
472.344	55.86
472.78	55.96
473.216	56.1
473.652	56.28
474.088	56.41
474.523	56.49
474.959	56.46
475.395	56.48
475.831	56.45
476.266	56.45
476.702	56.49
477.138	56.49
477.573	56.4
478.008	56.25
478.444	56.02
478.879	55.76
479.314	55.42
479.75	55.05
480.185	54.6
480.62	54.07
481.055	53.32
481.49	52.3
481.925	51.12
482.36	50.01
482.795	49.04
483.229	48.28
483.664	47.68
484.099	47.2
484.534	46.76
484.968	46.41
485.403	46.24
485.837	46.3
486.271	46.58
486.706	46.99
487.14	47.29
487.574	47.41
488.009	47.45
488.443	47.4
488.877	47.35
489.311	47.33
489.745	47.31
490.179	47.29
490.613	47.29
491.046	47.3
491.48	47.31
491.914	47.41
492.348	47.61
492.781	47.8
493.215	47.97
493.648	48.05
494.082	48.09
494.515	48.08
494.948	48.06
495.382	48.03
495.815	47.95
496.248	47.86
496.681	47.72
497.114	47.54
497.547	47.38
497.98	47.27
498.413	47.3
498.846	47.4
499.279	47.51
499.711	47.55
500.144	47.6
500.577	47.76
501.009	48.04
501.442	48.47
501.874	48.93
502.306	49.36
502.739	49.7
503.171	49.95
503.603	50.16
504.036	50.38
504.468	50.7
504.9	51.06
505.332	51.36
505.764	51.58
506.196	51.74
506.627	51.94
507.059	52.17
507.491	52.48
507.923	52.8
508.354	53.09
508.786	53.34
509.217	53.5
509.649	53.61
510.08	53.72
510.512	53.86
510.943	54.04
511.374	54.15
511.805	54.16
512.237	53.94
512.668	53.61
513.099	53.33
513.53	53.11
513.961	52.96
514.391	52.87
514.822	52.9
515.253	53.03
515.684	53.15
516.114	53.4
516.545	53.72
516.975	54.37
517.406	55.13
517.836	55.88
518.267	56.57
518.697	57.22
519.127	57.88
519.558	58.5
519.988	59.05
520.418	59.57
520.848	60.03
521.278	60.43
521.708	60.51
522.138	60.49
522.567	60.41
522.997	60.37
523.427	60.46
523.857	60.59
524.286	60.76
524.716	60.94
525.145	61.13
525.575	61.24
526.004	61.48
526.433	61.97
526.863	62.57
527.292	63.19
527.721	63.71
528.15	63.98
528.579	64.09
529.008	64.07
529.437	64
529.866	63.89
530.295	63.89
530.724	63.88
531.152	63.86
531.581	63.85
532.01	63.79
532.438	63.74
532.867	63.8
533.295	63.87
533.723	64
534.152	64.07
534.58	64.13
535.008	64.04
535.436	63.84
535.865	63.55
536.293	63.21
536.721	62.96
537.149	62.81
537.576	62.77
538.004	62.75
538.432	62.69
538.86	62.66
539.287	62.68
539.715	62.82
540.143	63.03
540.57	63.29
540.998	63.64
541.425	63.98
541.852	64.29
542.28	64.51
542.707	64.72
543.134	64.89
543.561	65.03
543.988	65.16
544.415	65.28
544.842	65.42
545.269	65.58
545.696	65.69
546.123	65.81
546.549	65.92
546.976	66.04
547.403	66.16
547.829	66.33
548.256	66.49
548.682	66.61
549.108	66.7
549.535	66.79
549.961	66.88
550.387	66.95
550.813	67.04
551.24	67.12
551.666	67.19
552.092	67.14
552.518	67.03
552.943	66.97
553.369	66.87
553.795	66.71
554.221	66.48
554.646	66.18
555.072	65.82
555.498	65.45
555.923	65.14
556.349	64.81
556.774	64.66
557.199	64.51
557.625	64.3
558.05	64.07
558.475	63.9
558.9	63.8
559.325	63.69
559.75	63.6
560.175	63.48
560.6	63.25
561.025	62.94
561.449	62.52
561.874	62.13
562.299	61.8
562.723	61.52
563.148	61.2
563.572	60.89
563.997	60.54
564.421	60.13
564.846	59.76
565.27	59.42
565.694	59.12
566.118	58.79
566.542	58.44
566.966	58.07
567.39	57.7
567.814	57.38
568.238	57.08
568.662	56.9
569.086	56.78
569.509	56.67
569.933	56.51
570.357	56.37
570.78	56.25
571.204	56.17
571.627	56.09
572.05	56.01
572.474	55.91
572.897	55.75
573.32	55.53
573.743	55.3
574.166	55.04
574.589	54.81
575.012	54.68
575.435	54.57
575.858	54.51
576.281	54.45
576.704	54.38
577.126	54.34
577.549	54.36
577.972	54.43
578.394	54.49
578.817	54.58
579.239	54.74
579.661	54.82
580.084	54.87
580.506	54.89
580.928	54.88
581.35	54.81
581.772	54.7
582.194	54.58
582.616	54.43
583.038	54.3
583.46	54.16
583.882	53.9
584.303	53.53
584.725	53.08
585.147	52.55
585.568	52.08
585.99	51.72
586.411	51.44
586.833	51.18
587.254	50.95
587.675	50.72
588.096	50.51
588.518	50.35
588.939	50.3
589.36	50.4
589.781	50.56
590.202	50.68
590.623	50.7
591.043	50.65
591.464	50.54
591.885	50.42
592.305	50.3
592.726	50.18
593.147	50.06
593.567	49.91
593.987	49.74
594.408	49.56
594.828	49.38
595.248	49.24
595.669	49.07
596.089	48.9
596.509	48.69
596.929	48.44
597.349	48.15
597.769	47.85
598.189	47.61
598.608	47.39
599.028	47.21
599.448	47.04
599.867	46.89
600.287	46.77
600.706	46.61
601.126	46.47
601.545	46.36
601.965	46.27
602.384	46.18
602.803	46.07
603.222	45.93
603.641	45.78
604.061	45.59
604.48	45.36
604.898	45.12
605.317	44.89
605.736	44.66
606.155	44.4
606.574	44.15
606.992	43.93
607.411	43.72
607.829	43.46
608.248	43.23
608.666	43.02
609.085	42.82
609.503	42.57
609.921	42.37
610.339	42.19
610.758	42.05
611.176	41.85
611.594	41.62
612.012	41.35
612.43	41.14
612.847	40.9
613.265	40.71
613.683	40.54
614.101	40.42
614.518	40.3
614.936	40.17
615.353	40.04
615.771	39.97
616.188	39.95
616.606	39.93
617.023	39.92
617.44	39.89
617.857	39.81
618.274	39.71
618.691	39.61
619.108	39.47
619.525	39.31
619.942	39.11
620.359	38.9
620.776	38.64
621.192	38.41
621.609	38.16
622.026	37.95
622.442	37.78
622.859	37.59
623.275	37.41
623.691	37.24
624.108	37.06
624.524	36.92
624.94	36.79
625.356	36.64
625.772	36.54
626.188	36.44
626.604	36.31
627.02	36.16
627.436	36.04
627.852	35.93
628.268	35.87
628.683	35.8
629.099	35.76
629.514	35.68
629.93	35.67
630.345	35.64
630.761	35.62
631.176	35.61
631.591	35.59
632.007	35.56
632.422	35.56
632.837	35.52
633.252	35.51
633.667	35.48
634.082	35.48
634.497	35.46
634.911	35.43
635.326	35.37
635.741	35.31
636.155	35.24
636.57	35.17
636.984	35.04
637.399	34.92
637.813	34.8
638.228	34.67
638.642	34.56
639.056	34.42
639.47	34.32
639.884	34.21
640.298	34.14
640.712	34.05
641.126	33.96
641.54	33.89
641.954	33.81
642.368	33.71
642.781	33.62
643.195	33.48
643.609	33.39
644.022	33.27
644.436	33.14
644.849	32.97
645.262	32.8
645.676	32.63
646.089	32.51
646.502	32.41
646.915	32.33
647.328	32.25
647.741	32.2
648.154	32.14
648.567	32.07
648.98	32.04
649.393	32.03
649.805	32.04
650.218	32.06
650.631	32.02
651.043	31.91
651.456	31.63
651.868	31.25
652.28	30.83
652.693	30.43
653.105	30.13
653.517	29.88
653.929	29.73
654.341	29.59
654.753	29.49
655.165	29.44
655.577	29.44
655.989	29.6
656.401	29.87
656.813	30.2
657.224	30.51
657.636	30.76
658.047	30.93
658.459	31.01
658.87	31.06
659.282	31.09
659.693	31.1
660.104	31.09
660.515	31.05
660.926	31.05
661.338	31
661.749	30.95
662.159	30.89
662.57	30.81
662.981	30.74
663.392	30.66
663.803	30.61
664.213	30.54
664.624	30.5
665.035	30.45
665.445	30.4
665.855	30.33
666.266	30.25
666.676	30.17
667.086	30.1
667.497	30.02
667.907	29.91
668.317	29.83
668.727	29.75
669.137	29.67
669.547	29.58
669.956	29.5
670.366	29.45
670.776	29.37
671.186	29.32
671.595	29.27
672.005	29.24
672.414	29.22
672.824	29.17
673.233	29.14
673.642	29.11
674.052	29.08
674.461	29.06
674.87	29.04
675.279	29.03
675.688	29.02
676.097	29
676.506	28.99
676.915	28.98
677.323	28.99
677.732	29
678.141	29.01
678.549	29.01
678.958	29.02
679.366	29.01
679.775	29.01
680.183	28.99
680.592	28.97
681	28.94
681.408	28.92
681.816	28.84
682.224	28.67
682.632	28.34
683.04	27.88
683.448	27.39
683.856	26.96
684.264	26.6
684.671	26.23
685.079	25.9
685.487	25.61
685.894	25.35
686.302	25.17
686.709	25.13
687.116	25.28
687.524	25.61
687.931	25.96
688.338	26.31
688.745	26.64
689.152	27
689.559	27.33
689.966	27.65
690.373	27.97
690.78	28.27
691.187	28.55
691.593	28.79
692	29.05
692.407	29.31
692.813	29.57
693.22	29.79
693.626	30
694.032	30.24
694.439	30.47
694.845	30.67
695.251	30.85
695.657	31.05
696.063	31.22
696.469	31.38
696.875	31.49
697.281	31.6
697.687	31.76
698.093	31.9
698.498	32.01
698.904	32.15
699.31	32.29
699.715	32.49
700.12	32.67
700.526	32.92
700.931	33.15
701.337	33.42
701.742	33.66
702.147	33.9
702.552	34.16
702.957	34.43
703.362	34.69
703.767	34.97
704.172	35.2
704.577	35.42
704.981	35.61
705.386	35.82
705.791	36.04
706.195	36.25
706.6	36.45
707.004	36.63
707.408	36.83
707.813	37.02
708.217	37.16
708.621	37.33
709.025	37.51
709.43	37.7
709.834	37.89
710.237	38.01
710.641	38.16
711.045	38.31
711.449	38.45
711.853	38.56
712.256	38.65
712.66	38.69
713.064	38.65
713.467	38.58
713.87	38.43
714.274	38.24
714.677	38.04
715.08	37.81
715.484	37.6
715.887	37.4
716.29	37.23
716.693	37.14
717.096	37.21
717.499	37.4
717.901	37.65
718.304	37.99
718.707	38.33
719.109	38.72
719.512	39.04
719.915	39.35
720.317	39.65
720.719	39.9
721.122	40.12
721.524	40.26
721.926	40.33
722.328	40.4
722.731	40.43
723.133	40.48
723.535	40.55
723.937	40.67
724.338	40.74
724.74	40.81
725.142	40.87
725.544	40.96
725.945	41.02
726.347	41.1
726.748	41.16
727.15	41.27
727.551	41.37
727.952	41.48
728.354	41.65
728.755	41.86
729.156	42.12
729.557	42.42
729.958	42.68
730.359	42.92
730.76	43.12
731.161	43.34
731.562	43.5
731.962	43.66
732.363	43.78
732.763	43.89
733.164	43.95
733.564	44.02
733.965	43.99
734.365	43.96
734.766	43.92
735.166	43.91
735.566	43.9
735.966	43.86
736.366	43.85
736.766	43.8
737.166	43.76
737.566	43.72
737.966	43.66
738.365	43.67
738.765	43.69
739.165	43.71
739.564	43.75
739.964	43.73
740.363	43.77
740.763	43.77
741.162	43.79
741.561	43.84
741.96	43.9
742.36	43.93
742.759	43.93
743.158	43.9
743.557	43.94
743.955	43.93
744.354	43.96
744.753	43.95
745.152	43.92
745.55	43.89
745.949	43.83
746.348	43.78
746.746	43.7
747.144	43.67
747.543	43.63
747.941	43.56
748.339	43.51
748.737	43.45
749.136	43.39
749.534	43.34
749.932	43.3
750.33	43.25
750.727	43.21
751.125	43.18
751.523	43.1
751.921	43.08
752.318	43.01
752.716	42.95
753.113	42.87
753.511	42.79
753.908	42.67
754.305	42.57
754.703	42.33
755.1	41.82
755.497	40.98
755.894	39.75
756.291	38.2
756.688	36.51
757.085	34.86
757.482	33.35
757.878	31.97
758.275	30.63
758.672	29.28
759.068	28.03
759.465	27.05
759.861	26.48
760.258	26.4
760.654	26.74
761.05	27.32
761.447	28
761.843	28.63
762.239	29.24
762.635	29.97
763.031	30.81
763.427	31.78
763.822	32.78
764.218	33.8
764.614	34.76
765.01	35.68
765.405	36.52
765.801	37.24
766.196	37.88
766.592	38.46
766.987	38.93
767.382	39.28
767.778	39.53
768.173	39.73
768.568	39.86
768.963	39.98
769.358	40.03
769.753	40.07
770.148	40.1
770.542	40.1
770.937	40.03
771.332	40
771.726	39.95
772.121	39.89
772.515	39.86
772.91	39.83
773.304	39.73
773.699	39.66
774.093	39.57
774.487	39.51
774.881	39.5
775.275	39.49
775.669	39.43
776.063	39.35
776.457	39.25
776.851	39.15
777.245	39.08
777.638	39.01
778.032	38.99
778.425	38.94
778.819	38.87
779.212	38.74
779.606	38.62
779.999	38.5
780.392	38.45
780.786	38.4
781.179	38.35
781.572	38.26
781.965	38.21
782.358	38.07
782.751	37.95
783.143	37.87
783.536	37.81
783.929	37.75
784.322	37.71
784.714	37.59
785.107	37.52
785.499	37.39
785.891	37.29
786.284	37.13
786.676	37.02
787.068	36.9
787.46	36.74
787.852	36.61
788.245	36.46
788.636	36.28
789.028	36.13
789.42	35.95
789.812	35.81
790.204	35.6
790.595	35.5
790.987	35.37
791.378	35.25
791.77	35.16
792.161	35.07
792.553	34.94
792.944	34.89
793.335	34.82
793.726	34.74
794.117	34.69
794.508	34.66
794.899	34.6
795.29	34.5
795.681	34.41
796.072	34.3
796.463	34.17
796.853	34.06
797.244	33.9
797.634	33.76
798.025	33.66
798.415	33.5
798.806	33.34
799.196	33.19
799.586	33.08
799.976	32.95
800.366	32.81
800.756	32.68
801.146	32.55
801.536	32.44
801.926	32.32
802.316	32.21
802.706	32.12
803.095	32.02
803.485	31.9
803.874	31.78
804.264	31.7
804.653	31.58
805.043	31.45
805.432	31.31
805.821	31.15
806.21	31.05
806.599	30.91
806.988	30.75
807.377	30.6
807.766	30.45
808.155	30.29
808.544	30.09
808.933	29.9
809.321	29.72
809.71	29.54
810.098	29.34
810.487	29.09
810.875	28.83
811.264	28.6
811.652	28.36
812.04	28.09
812.428	27.83
812.816	27.58
813.204	27.37
813.592	27.16
813.98	26.95
814.368	26.77
814.756	26.59
815.144	26.43
815.531	26.27
815.919	26.14
816.306	26.03
816.694	25.96
817.081	25.91
817.469	25.85
817.856	25.76
818.243	25.65
818.63	25.55
819.017	25.42
819.404	25.27
819.791	25.19
820.178	25.08
820.565	24.99
820.952	24.88
821.339	24.78
821.725	24.67
822.112	24.6
822.498	24.54
822.885	24.51
823.271	24.5
823.657	24.47
824.044	24.4
824.43	24.34
824.816	24.24
825.202	24.15
825.588	24.08
825.974	23.98
826.36	23.89
826.746	23.83
827.132	23.72
827.517	23.61
827.903	23.54
828.289	23.46
828.674	23.37
829.06	23.31
829.445	23.24
829.83	23.15
830.216	23.09
830.601	23.03
830.986	22.98
831.371	22.94
831.756	22.9
832.141	22.85
832.526	22.79
832.911	22.78
833.295	22.75
833.68	22.73
834.065	22.7
834.449	22.65
834.834	22.61
835.218	22.54
835.603	22.5
835.987	22.46
836.371	22.42
836.755	22.38
837.139	22.31
837.524	22.25
837.908	22.18
838.291	22.12
838.675	22.07
839.059	22.04
839.443	22
839.827	21.95
840.21	21.91
840.594	21.87
840.977	21.84
841.361	21.79
841.744	21.77
842.127	21.73
842.511	21.7
842.894	21.67
843.277	21.6
843.66	21.55
844.043	21.51
844.426	21.45
844.809	21.4
845.191	21.33
845.574	21.27
845.957	21.18
846.339	21.11
846.722	21.05
847.104	21
847.487	20.96
847.869	20.9
848.252	20.86
848.634	20.82
849.016	20.78
849.398	20.73
849.78	20.66
850.162	20.6
850.544	20.55
850.926	20.46
851.307	20.39
851.689	20.32
852.071	20.28
852.452	20.23
852.834	20.18
853.215	20.16
853.597	20.12
853.978	20.13
854.359	20.11
854.741	20.12
855.122	20.13
855.503	20.12
855.884	20.13
856.265	20.13
856.646	20.1
857.026	20.07
857.407	20.02
857.788	20.02
858.169	19.99
858.549	19.98
858.93	19.93
859.31	19.92
859.69	19.91
860.071	19.89
860.451	19.84
860.831	19.8
861.211	19.76
861.591	19.72
861.971	19.65
862.351	19.58
862.731	19.51
863.111	19.47
863.491	19.42
863.87	19.37
864.25	19.32
864.629	19.26
865.009	19.22
865.388	19.19
865.768	19.18
866.147	19.16
866.526	19.19
866.905	19.21
867.284	19.23
867.663	19.22
868.042	19.19
868.421	19.16
868.8	19.16
869.179	19.17
869.558	19.16
869.936	19.13
870.315	19.12
870.693	19.1
871.072	19.07
871.45	19.03
871.828	19.01
872.207	19.02
872.585	19
872.963	18.97
873.341	18.93
873.719	18.93
874.097	18.93
874.475	18.92
874.853	18.89
875.23	18.86
875.608	18.85
875.986	18.84
876.363	18.8
876.741	18.78
877.118	18.79
877.495	18.8
877.873	18.74
878.25	18.72
878.627	18.69
879.004	18.67
879.381	18.67
879.758	18.65
880.135	18.63
880.512	18.62
880.889	18.62
881.265	18.6
881.642	18.56
882.019	18.57
882.395	18.53
882.772	18.53
883.148	18.51
883.524	18.49
883.901	18.48
884.277	18.45
884.653	18.45
885.029	18.43
885.405	18.39
885.781	18.37
886.157	18.36
886.532	18.35
886.908	18.33
887.284	18.32
887.659	18.3
888.035	18.26
888.411	18.23
888.786	18.2
889.161	18.17
889.537	18.17
889.912	18.15
890.287	18.09
890.662	18.05
891.037	18
891.412	17.97
891.787	17.94
892.162	17.9
892.536	17.87
892.911	17.84
893.286	17.79
893.66	17.75
894.035	17.7
894.409	17.67
894.784	17.64
895.158	17.61
895.532	17.56
895.906	17.51
896.281	17.48
896.655	17.44
897.029	17.38
897.402	17.36
897.776	17.33
898.15	17.31
898.524	17.29
898.898	17.28
899.271	17.26
899.645	17.28
900.018	17.26
900.392	17.3
900.765	17.34
901.138	17.34
901.511	17.37
901.884	17.39
902.258	17.41
902.631	17.43
903.003	17.45
903.376	17.46
903.749	17.45
904.122	17.46
904.495	17.41
904.867	17.36
905.24	17.34
905.612	17.3
905.985	17.27
906.357	17.23
906.729	17.19
907.102	17.18
907.474	17.17
907.846	17.14
908.218	17.13
908.59	17.11
908.962	17.12
909.334	17.14
909.705	17.17
910.077	17.15
910.449	17.17
910.82	17.16
911.192	17.15
911.563	17.14
911.935	17.15
912.306	17.15
912.677	17.18
913.048	17.16
913.419	17.11
913.79	17.08
914.161	17.07
914.532	17.05
914.903	17.04
915.274	17.04
915.645	17.05
916.015	17.05
916.386	17.05
916.756	17.02
917.127	17.05
917.497	17.11
917.868	17.14
918.238	17.13
918.608	17.15
918.978	17.15
919.348	17.13
919.718	17.11
920.088	17.11
920.458	17.12
920.828	17.15
921.198	17.12
921.567	17.08
921.937	17.07
922.306	17.1
922.676	17.08
923.045	17.07
923.415	17.06
923.784	17.06
924.153	17.07
924.522	17.06
924.891	17.04
925.26	17.03
925.629	17.02
925.998	16.98
926.367	16.92
926.736	16.91
927.104	16.91
927.473	16.86
927.842	16.81
928.21	16.75
928.578	16.69
928.947	16.63
929.315	16.59
929.683	16.58
930.051	16.56
930.42	16.51
930.788	16.46
931.156	16.38
931.523	16.35
931.891	16.35
932.259	16.3
932.627	16.24
932.994	16.23
933.362	16.18
933.729	16.13
934.097	16.12
934.464	16.14
934.831	16.18
935.199	16.23
935.566	16.33
935.933	16.37
936.3	16.46
936.667	16.58
937.034	16.67
937.401	16.71
937.767	16.84
938.134	16.94
938.501	17.06
938.867	17.12
939.234	17.26
939.6	17.24
939.967	17.31
940.333	17.43
940.699	17.49
941.065	17.54
941.431	17.66
941.798	17.71
942.163	17.81
942.529	17.89
942.895	17.98
943.261	17.99
943.627	18.05
943.992	18.06
944.358	17.99
944.723	17.9
945.089	17.92
945.454	17.92
945.82	17.9
946.185	17.81
946.55	17.75
946.915	17.66
947.28	17.63
947.645	17.62
948.01	17.57
948.375	17.57
948.74	17.63
949.104	17.66
949.469	17.6
949.834	17.56
950.198	17.55
950.562	17.55
950.927	17.54
951.291	17.52
951.655	17.47
952.02	17.4
952.384	17.39
952.748	17.35
953.112	17.25
953.476	17.18
953.839	17.13
954.203	17.09
954.567	17.01
954.931	16.98
955.294	16.95
955.658	16.95
956.021	16.97
956.385	16.98
956.748	17
957.111	17
957.474	17.04
957.837	17.02
958.2	16.97
958.563	16.94
958.926	16.93
959.289	16.9
959.652	16.91
960.015	16.91
960.377	16.87
960.74	16.81
961.102	16.76
961.465	16.76
961.827	16.78
962.189	16.84
962.552	16.86
962.914	16.87
963.276	16.84
963.638	16.79
964	16.8
964.362	16.84
964.724	16.89
965.085	16.93
965.447	16.93
965.809	16.91
966.17	16.91
966.532	16.96
966.893	16.96
967.255	16.98
967.616	17.03
967.977	17.06
968.338	16.99
968.699	16.96
969.061	16.93
969.421	16.92
969.782	16.98
970.143	16.96
970.504	16.92
970.865	16.9
971.225	16.94
971.586	16.99
971.946	16.96
972.307	16.95
972.667	16.97
973.027	17.04
973.388	17.02
973.748	16.99
974.108	17.02
974.468	17.04
974.828	17.07
975.188	17.07
975.548	17.04
975.907	17.08
976.267	17.17
976.627	17.18
976.986	17.19
977.346	17.26
977.705	17.28
978.064	17.35
978.424	17.39
978.783	17.49
979.142	17.51
979.501	17.54
979.86	17.48
980.219	17.41
980.578	17.44
980.937	17.46
981.296	17.46
981.654	17.5
982.013	17.43
982.371	17.42
982.73	17.38
983.088	17.41
983.447	17.4
983.805	17.46
984.163	17.56
984.521	17.56
984.879	17.63
985.237	17.73
985.595	17.72
985.953	17.79
986.311	17.84
986.669	17.89
987.026	17.81
987.384	17.84
987.741	17.93
988.099	18
988.456	18.07
988.814	18.02
989.171	18
989.528	17.94
989.885	17.93
990.242	18
990.599	18
990.956	18.16
991.313	18.07
991.67	18.08
992.027	18.18
992.383	18.2
992.74	18.19
993.096	18.22
993.453	18.41
993.809	18.41
994.165	18.48
994.522	18.44
994.878	18.43
995.234	18.59
995.59	18.58
995.946	18.54
996.302	18.58
996.658	18.65
997.013	18.74
997.369	18.73
997.725	18.84
998.08	18.75
998.436	18.91
998.791	18.9
999.147	19
999.502	19.09
999.857	19.18
1000.212	19.19
1000.567	19.36
1000.922	19.31
1001.277	19.32
1001.632	19.44
1001.987	19.51
1002.342	19.5
1002.696	19.56
1003.051	19.54
1003.406	19.49
1003.76	19.45
1004.114	19.51
1004.469	19.49
1004.823	19.6
1005.177	19.85
1005.531	19.83
1005.885	20.02
1006.239	20.1
1006.593	20.39
1006.947	20.51
1007.301	20.69
1007.655	20.87
1008.008	21.05
1008.362	21.12
1008.715	21.27
1009.069	21.12
1009.422	21.36
1009.776	21.43
1010.129	21.48
1010.482	21.42
1010.835	21.52
1011.188	21.55
1011.541	21.47
1011.894	21.47
1012.247	21.55
1012.6	21.46
1012.952	21.61
1013.305	21.35
1013.657	21.28
1014.01	21.66
1014.362	21.77
1014.715	21.79
1015.067	21.91
1015.419	22.17
1015.771	22.39
1016.123	22.46
1016.475	22.86
1016.827	23.07
1017.179	23.34
1017.531	23.55
1017.883	23.47
1018.234	23.56
1018.586	23.64
1018.938	23.69
1019.289	23.54
1019.64	23.93
1019.992	24.18
1020.343	24.37
1020.694	24.37
1021.045	24.66
1021.396	24.76
1021.747	24.92
1022.098	25.45
1022.449	25.71
1022.8	26.09
1023.151	26.37
1023.501	26.17
1023.852	26.33
1024.202	26.45
1024.553	26.7
1024.903	26.84
1025.253	26.85
1025.604	27.11
1025.954	26.98
1026.304	27.37
1026.654	27.62
1027.004	27.86
1027.354	28.03
1027.703	28.07
1028.053	27.81
1028.403	28.07
1028.753	28.26
1029.102	28.7
1029.452	28.71
1029.801	28.82
1030.15	28.74
1030.499	28.61
897.758	598.49
901.051	607.44
904.343	612.26
907.636	599.15
910.928	590.73
914.22	597.84
917.511	582.13
920.803	559.42
924.094	537.82
927.384	544.12
930.675	525.46
933.965	521.01
937.255	524.59
940.544	501.7
943.834	480.49
947.123	472.42
950.411	448.65
953.7	441.21
956.988	424.66
960.276	403.29
963.563	399.52
966.851	380.15
970.138	372.04
973.424	344.36
976.711	339.52
979.997	328.46
983.283	320.56
986.568	310.34
989.853	302.79
993.138	292.81
996.423	289.83
999.708	279.31
1002.992	279.5
1006.275	274.18
1009.559	271.09
1012.842	263.63
1016.125	256.42
1019.408	251.68
1022.69	250.73
1025.972	246.85
1029.254	240.62
1032.536	236.94
1035.817	228.6
1039.098	226.26
1042.379	220.21
1045.659	216.2
1048.939	214.34
1052.219	210.78
1055.498	207.15
1058.778	202.17
1062.057	198.44
1065.335	197.45
1068.614	194.44
1071.892	192.1
1075.17	187.68
1078.447	184.87
1081.724	183.75
1085.001	179.79
1088.278	179.28
1091.554	178.48
1094.83	177.92
1098.106	175.09
1101.382	173.99
1104.657	173.03
1107.932	172.67
1111.206	171.54
1114.481	170.41
1117.755	169.22
1121.029	168.6
1124.302	165.74
1127.575	162.47
1130.848	161.43
1134.121	159.75
1137.393	159.19
1140.665	157.4
1143.937	155.35
1147.208	154.31
1150.48	152.44
1153.75	151.31
1157.021	150.46
1160.291	149.9
1163.561	150.59
1166.831	148.15
1170.101	147.76
1173.37	147.51
1176.639	146.2
1179.907	146.94
1183.176	145.95
1186.444	145.28
1189.711	144.73
1192.979	145.92
1196.246	145.97
1199.513	144.71
1202.78	146.5
1206.046	146.32
1209.312	146.43
1212.578	147.39
1215.843	148.14
1219.108	149.23
1222.373	152.68
1225.638	155.15
1228.902	158.13
1232.166	162.42
1235.43	165.11
1238.693	169.45
1241.956	173.37
1245.219	177.47
1248.482	178.81
1251.744	179.07
1255.006	179.28
1258.268	175.29
1261.529	173.54
1264.79	169.27
1268.051	166.07
1271.312	164.83
1274.572	161.01
1277.832	156.97
1281.092	154.9
1284.351	152.1
1287.61	151.73
1290.869	151.2
1294.128	150.19
1297.386	149.79
1300.644	148.08
1303.902	147.21
1307.159	147.08
1310.416	147.59
1313.673	150.22
1316.93	150.54
1320.186	153.42
1323.442	155.29
1326.697	158.74
1329.953	159.05
1333.208	164.85
1336.463	172.27
1339.717	176.03
1342.972	182.97
1346.226	188.47
1349.479	190.02
1352.733	199.64
1355.986	202.94
1359.238	207.43
1362.491	208.21
1365.743	218.01
1368.995	218.27
1372.247	217.57
1375.498	215.88
1378.749	224.67
1382	224.85
1385.251	224.13
1388.501	222
1391.751	224.58
1395	223.26
1398.25	225.31
1401.499	224.5
1404.748	223.67
1407.996	219.38
1411.244	221.59
1414.492	215.35
1417.74	208.1
1420.987	203.6
1424.234	200.74
1427.481	192.79
1430.728	188.15
1433.974	180.52
1437.22	175.85
1440.465	169.82
1443.711	165
1446.956	159.55
1450.201	153.52
1453.445	146.79
1456.689	142.96
1459.933	138.11
1463.177	132.87
1466.42	130.13
1469.663	126.53
1472.906	121.76
1476.148	118.39
1479.391	116.07
1482.633	114.24
1485.874	111.85
1489.115	111.31
1492.356	108.96
1495.597	107.59
1498.838	106.88
1502.078	105.73
1505.318	105.55
1508.557	105.09
1511.797	103.83
1515.036	103.09
1518.274	102.71
1521.513	101.76
1524.751	101.03
1527.989	101.95
1531.227	101.27
1534.464	101.2
1537.701	99.7
1540.938	99.42
1544.174	99.34
1547.41	99.01
1550.646	98.56
1553.882	98.27
1557.117	98.01
1560.352	98.07
1563.587	96.3
1566.821	96.37
1570.055	96.26
1573.289	96.28
1576.523	96.29
1579.756	95.32
1582.989	96.32
1586.222	96.09
1589.454	95.43
1592.686	95.89
1595.918	95.31
1599.15	95.73
1602.381	95.88
1605.612	95.39
1608.843	95.46
1612.073	96.17
1615.303	96.58
1618.533	95.89
1621.762	96.42
1624.992	96.82
1628.221	96.24
1631.449	96.99
1634.678	96.64
1637.906	96.9
1641.134	96.85
1644.361	96.98
1647.588	96.34
1650.815	96.42
1654.042	96.99
1657.269	96.28
1660.495	96.8
1663.72	96.72
1666.946	96.87
1670.171	97.57
1673.396	97.77
1676.621	98.55
1679.845	98.72
1683.069	98.28
1686.293	98.69
1689.517	98.45
1692.74	99.11
1695.963	98.98
1699.185	99.5
1702.408	99.34
1705.63	99.45
1708.852	100.02
1712.073	99.17
1715.294	99.28
1718.515	100.54
1721.736	100.17
1724.956	100.84
1728.176	100.81
1731.396	101.43
1734.616	101.22
1737.835	101.41
1741.054	101.56
1744.272	100.65
1747.491	101.31
1750.709	101.95
1753.927	101.89
1757.144	101.61
1760.361	101.26
1763.578	102.16
1766.795	102.23
1770.011	102.84
1773.227	103.62
1776.443	104.08
1779.658	104.86
1782.874	105.4
1786.089	105.86
1789.303	105.84
1792.518	108.35
1795.732	108.93
1798.945	109.61
1802.159	110
1805.372	111.6
1808.585	111.89
1811.797	113.05
1815.01	113.35
1818.222	114.67
1821.434	115.5
1824.645	116.28
1827.856	117.03
1831.067	118.38
1834.278	119.3
1837.488	120.11
1840.698	121.23
1843.908	121.85
1847.117	123.2
1850.326	124.63
1853.535	124.79
1856.744	125.72
1859.952	127.88
1863.16	127.3
1866.368	126.43
1869.575	127.68
1872.782	127.7
1875.989	127.03
1879.196	126.41
1882.402	124.5
1885.608	125.75
1888.814	125.25
1892.019	126.73
1895.224	124.26
1898.429	125.66
1901.634	127.09
1904.838	126.69
1908.042	127.46
1911.246	126.65
1914.449	127.71
1917.652	128.43
1920.855	128.36
1924.058	127.76
1927.26	126.04
1930.462	127.64
1933.664	127.36
1936.865	126.98
1940.066	125.93
1943.267	124.94
1946.467	125.97
1949.668	126.28
1952.868	126.7
1956.067	126.06
1959.267	127.41
1962.466	128.32
1965.665	128.77
1968.863	129.12
1972.061	129.08
1975.259	132.17
1978.457	132.54
1981.654	134.24
1984.852	134.47
1988.048	135.93
1991.245	138.76
1994.441	140.99
1997.637	144.19
2000.833	147.21
2004.028	148.49
2007.223	154.4
2010.418	156.65
2013.613	163.8
2016.807	167.55
2020.001	172.79
2023.194	177.45
2026.388	182.2
2029.581	192.02
2032.774	197.71
2035.966	203.73
2039.158	210.3
2042.35	212.06
2045.542	216.35
2048.733	226.41
2051.924	228.5
2055.115	230.37
2058.306	233.01
2061.496	238.16
2064.686	237.07
2067.875	234.63
2071.065	237.14
2074.254	238.57
2077.442	245.75
2080.631	248.22
2083.819	247.53
2087.007	252.61
2090.195	256.62
2093.382	258.5
2096.569	258.14
2099.756	262.19
2102.942	269.19
2106.128	274.12
2109.314	274.22
2112.5	275.39
2115.685	273.62
2118.87	274.15
2122.055	276.79
2125.239	281.6
2128.424	288.48
2131.608	285.04
2134.791	285.73
2137.974	285.92
2141.157	288.15
2144.34	290.85
2147.523	295.73
2150.705	303
2153.887	299.54
2157.068	302.09
2160.25	307.18
2163.431	302.37
2166.611	311.83
2169.792	316.48
2172.972	322.69
2176.152	321.73
2179.331	330.53
2182.511	329.18
2185.69	333.56
2188.868	348.72
2192.047	353.93
2195.225	357.39
2198.403	363.66
2201.58	357.32
2204.758	371.06
2207.935	372.44
2211.111	382.95
2214.288	382.83
2217.464	388.47
2220.64	390.97
2223.815	390.39
2226.991	386.18
2230.166	390.15
2233.34	404.97
2236.515	417.74
2239.689	412.3
2242.863	416.67
2246.036	411.68
2249.209	424.24
2252.382	424.52
2255.555	439.76
2258.727	443.49
2261.9	459.21
2265.071	464.2
2268.243	457.27
2271.414	470.6
2274.585	476.87
2277.756	480.59
2280.926	496.83
2284.096	492.94
2287.266	496.53
2290.436	485.95
2293.605	495.31
2296.774	512.55
2299.942	513.34
2303.111	531.04
2306.279	535.35
2309.447	540.42
2312.614	540.84
2315.781	556.03
2318.948	565.59
2322.115	574.21
2325.281	603.29
2328.447	602.33
2331.613	599.76
2334.779	608.37
2337.944	619.08
2341.109	638.32
2344.274	643.2
2347.438	661.86
2350.602	670.21
2353.766	713.4
2356.929	717.07
2360.092	726.02
2363.255	726.88
2366.418	743.37
2369.58	759.69
2372.742	749.08
2375.904	741.92
2379.066	763.91
2382.227	809.02
2385.388	809.57
2388.548	764.52
2391.709	756.52
2394.869	777.22
2398.029	782.23
2401.188	778.52
2404.347	803.26
2407.506	831.86
2410.665	804.34
2413.823	803.94
2416.981	802.25
2420.139	762.03
2423.296	823.64
2426.453	870.72
2429.61	840.38
2432.767	894.57
2435.923	929.84
2439.079	887.81
2442.235	911.32
2445.391	937.23
2448.546	928.36
2451.701	984.35
2454.855	1047.85
2458.009	931.74
2461.163	953.55
2464.317	957
2467.471	937.67
2470.624	969.34
2473.777	954.12
2476.929	924.24
2480.082	978.29
2483.234	1029.33
2486.385	1041.28
2489.537	1071.31
2492.688	1169.11
2495.839	1151.23
2498.989	1184.72
2502.14	1189.43
2505.29	1137.25
2508.439	1273.38
2511.589	1306.74
2514.738	1261.62
2517.887	1253.26
2521.035	1168.65
2524.183	1152.42
2527.331	1145.95
2530.479	1118.1
2533.627	1143.94
