Data from N_1_dec_ct_2n_033_Splice17_02.txt Node
Date: Sat Feb 29 13:46:57 EST 2020
User: sa697716
Spectrometer: FLMS03696
Trigger mode: 0
Integration Time (sec): 3.180400E-1
Scans to average: 20
Electric dark correction enabled: true
Nonlinearity correction enabled: true
Boxcar width: 5
XAxis mode: Wavelengths
Number of Pixels in Spectrum: 2048
>>>>>Begin Spectral Data<<<<<
187.83	76.97
188.298	78.24
188.766	71.53
189.233	69.92
189.701	77.13
190.169	81.05
190.636	78.52
191.104	55.27
191.571	-116.96
192.039	-12.51
192.506	287.58
192.974	4351.65
193.441	-94.6
193.908	49.12
194.375	29.66
194.842	100.46
195.31	94.37
195.777	44.87
196.244	50.39
196.711	55.95
197.177	55.77
197.644	56.2
198.111	56.83
198.578	57.94
199.045	59.11
199.511	58.88
199.978	58.86
200.445	58.6
200.911	58.95
201.378	58.81
201.844	58.7
202.31	58.91
202.777	59.26
203.243	59.33
203.709	58.96
204.176	58.5
204.642	58.54
205.108	58.75
205.574	59.32
206.04	59.27
206.506	59.16
206.972	59.25
207.438	59.14
207.903	58.76
208.369	58.37
208.835	58.53
209.301	58.61
209.766	58.3
210.232	57.92
210.697	57.03
211.163	56.32
211.628	55.88
212.094	55.41
212.559	54.7
213.024	54.19
213.49	53.42
213.955	52.78
214.42	51.59
214.885	50.94
215.35	50.18
215.815	48.99
216.28	48.21
216.745	46.83
217.21	45.22
217.675	44.12
218.14	42.9
218.604	41.8
219.069	40.9
219.534	40.16
219.998	39.37
220.463	38.61
220.927	38.12
221.392	37.52
221.856	37.03
222.32	36.65
222.785	36.19
223.249	35.79
223.713	35.44
224.177	35.07
224.642	34.65
225.106	34.28
225.57	33.9
226.034	33.56
226.497	33.2
226.961	32.84
227.425	32.49
227.889	32.16
228.353	31.85
228.816	31.5
229.28	31.14
229.744	30.83
230.207	30.51
230.671	30.21
231.134	29.86
231.597	29.56
232.061	29.29
232.524	29
232.987	28.66
233.45	28.33
233.914	28.05
234.377	27.78
234.84	27.52
235.303	27.26
235.766	26.96
236.229	26.71
236.691	26.44
237.154	26.19
237.617	25.93
238.08	25.73
238.542	25.51
239.005	25.27
239.468	25.02
239.93	24.8
240.393	24.59
240.855	24.42
241.317	24.23
241.78	24.06
242.242	23.85
242.704	23.68
243.166	23.5
243.629	23.35
244.091	23.18
244.553	23.03
245.015	22.88
245.477	22.73
245.939	22.58
246.4	22.4
246.862	22.27
247.324	22.14
247.786	22.01
248.247	21.88
248.709	21.74
249.17	21.62
249.632	21.48
250.093	21.34
250.555	21.23
251.016	21.12
251.477	21.01
251.939	20.89
252.4	20.78
252.861	20.67
253.322	20.58
253.783	20.49
254.244	20.43
254.705	20.36
255.166	20.31
255.627	20.25
256.088	20.17
256.549	20.12
257.009	20.06
257.47	20
257.931	19.95
258.391	19.88
258.852	19.81
259.312	19.75
259.773	19.69
260.233	19.63
260.694	19.57
261.154	19.52
261.614	19.47
262.074	19.42
262.534	19.37
262.994	19.33
263.455	19.3
263.915	19.27
264.374	19.22
264.834	19.2
265.294	19.17
265.754	19.14
266.214	19.12
266.673	19.1
267.133	19.09
267.593	19.08
268.052	19.06
268.512	19.04
268.971	19.03
269.431	19.02
269.89	19.01
270.349	19
270.809	18.99
271.268	18.98
271.727	18.97
272.186	18.95
272.645	18.94
273.104	18.94
273.563	18.94
274.022	18.93
274.481	18.91
274.94	18.89
275.399	18.88
275.857	18.86
276.316	18.84
276.775	18.82
277.233	18.81
277.692	18.79
278.15	18.75
278.609	18.73
279.067	18.69
279.525	18.67
279.984	18.64
280.442	18.61
280.9	18.58
281.358	18.56
281.816	18.54
282.274	18.52
282.732	18.5
283.19	18.49
283.648	18.49
284.106	18.49
284.564	18.49
285.021	18.49
285.479	18.49
285.937	18.51
286.394	18.5
286.852	18.48
287.309	18.49
287.767	18.5
288.224	18.5
288.682	18.49
289.139	18.49
289.596	18.47
290.053	18.45
290.511	18.43
290.968	18.4
291.425	18.38
291.882	18.38
292.339	18.36
292.796	18.33
293.252	18.32
293.709	18.3
294.166	18.29
294.623	18.29
295.079	18.29
295.536	18.3
295.992	18.29
296.449	18.31
296.905	18.3
297.362	18.32
297.818	18.32
298.274	18.33
298.731	18.32
299.187	18.31
299.643	18.31
300.099	18.32
300.555	18.3
301.011	18.29
301.467	18.27
301.923	18.27
302.379	18.27
302.835	18.27
303.291	18.25
303.746	18.25
304.202	18.26
304.658	18.25
305.113	18.24
305.569	18.24
306.024	18.24
306.479	18.22
306.935	18.23
307.39	18.22
307.845	18.21
308.301	18.22
308.756	18.21
309.211	18.23
309.666	18.23
310.121	18.24
310.576	18.25
311.031	18.27
311.486	18.29
311.94	18.3
312.395	18.3
312.85	18.31
313.305	18.32
313.759	18.33
314.214	18.33
314.668	18.33
315.123	18.33
315.577	18.33
316.032	18.32
316.486	18.31
316.94	18.29
317.394	18.28
317.849	18.26
318.303	18.24
318.757	18.22
319.211	18.2
319.665	18.18
320.119	18.16
320.572	18.13
321.026	18.09
321.48	18.08
321.934	18.07
322.387	18.04
322.841	18.02
323.295	18
323.748	17.99
324.202	17.95
324.655	17.93
325.108	17.9
325.562	17.87
326.015	17.86
326.468	17.82
326.921	17.79
327.374	17.77
327.827	17.75
328.28	17.73
328.733	17.69
329.186	17.68
329.639	17.65
330.092	17.63
330.545	17.62
330.997	17.61
331.45	17.61
331.903	17.59
332.355	17.58
332.808	17.58
333.26	17.58
333.713	17.59
334.165	17.59
334.617	17.61
335.069	17.62
335.522	17.63
335.974	17.64
336.426	17.65
336.878	17.64
337.33	17.65
337.782	17.64
338.234	17.63
338.686	17.63
339.137	17.64
339.589	17.61
340.041	17.6
340.493	17.58
340.944	17.54
341.396	17.52
341.847	17.5
342.299	17.47
342.75	17.42
343.201	17.38
343.653	17.33
344.104	17.27
344.555	17.25
345.006	17.21
345.457	17.18
345.908	17.16
346.359	17.13
346.81	17.11
347.261	17.09
347.712	17.08
348.163	17.06
348.613	17.05
349.064	17.03
349.515	17.01
349.965	16.99
350.416	16.98
350.866	16.96
351.317	16.93
351.767	16.92
352.217	16.9
352.668	16.9
353.118	16.91
353.568	16.91
354.018	16.92
354.468	16.92
354.918	16.9
355.368	16.91
355.818	16.91
356.268	16.92
356.718	16.92
357.168	16.92
357.617	16.91
358.067	16.88
358.517	16.88
358.966	16.87
359.416	16.88
359.865	16.9
360.315	16.88
360.764	16.89
361.213	16.87
361.663	16.87
362.112	16.87
362.561	16.86
363.01	16.88
363.459	16.88
363.908	16.87
364.357	16.86
364.806	16.85
365.255	16.84
365.703	16.84
366.152	16.84
366.601	16.83
367.05	16.85
367.498	16.86
367.947	16.86
368.395	16.87
368.844	16.88
369.292	16.88
369.74	16.89
370.189	16.91
370.637	16.93
371.085	16.94
371.533	16.97
371.981	17
372.429	17.02
372.877	17.05
373.325	17.08
373.773	17.11
374.221	17.15
374.669	17.2
375.116	17.24
375.564	17.29
376.012	17.35
376.459	17.41
376.907	17.48
377.354	17.55
377.801	17.62
378.249	17.7
378.696	17.79
379.143	17.87
379.591	17.95
380.038	18.03
380.485	18.14
380.932	18.23
381.379	18.32
381.826	18.41
382.273	18.52
382.72	18.63
383.166	18.74
383.613	18.83
384.06	18.95
384.506	19.05
384.953	19.14
385.4	19.23
385.846	19.33
386.292	19.44
386.739	19.53
387.185	19.63
387.631	19.72
388.078	19.8
388.524	19.91
388.97	19.98
389.416	20.06
389.862	20.15
390.308	20.23
390.754	20.31
391.2	20.39
391.645	20.47
392.091	20.52
392.537	20.6
392.983	20.68
393.428	20.75
393.874	20.83
394.319	20.89
394.765	20.93
395.21	20.97
395.655	21.02
396.101	21.04
396.546	21.08
396.991	21.12
397.436	21.11
397.881	21.13
398.326	21.14
398.771	21.19
399.216	21.23
399.661	21.26
400.106	21.3
400.551	21.31
400.995	21.29
401.44	21.27
401.885	21.26
402.329	21.27
402.774	21.25
403.218	21.24
403.663	21.2
404.107	21.17
404.551	21.16
404.995	21.12
405.44	21.11
405.884	21.1
406.328	21.09
406.772	21.07
407.216	21.06
407.66	21.06
408.104	21.02
408.547	21.01
408.991	20.98
409.435	20.93
409.879	20.89
410.322	20.86
410.766	20.83
411.209	20.79
411.653	20.75
412.096	20.71
412.54	20.66
412.983	20.63
413.426	20.61
413.869	20.6
414.312	20.59
414.756	20.6
415.199	20.59
415.642	20.58
416.085	20.57
416.527	20.61
416.97	20.6
417.413	20.57
417.856	20.52
418.298	20.46
418.741	20.42
419.184	20.38
419.626	20.33
420.069	20.29
420.511	20.24
420.953	20.2
421.396	20.15
421.838	20.13
422.28	20.13
422.722	20.13
423.164	20.11
423.606	20.11
424.048	20.07
424.49	20.07
424.932	20.05
425.374	20.03
425.816	20
426.258	19.95
426.699	19.87
427.141	19.81
427.582	19.76
428.024	19.74
428.465	19.72
428.907	19.72
429.348	19.7
429.789	19.7
430.231	19.69
430.672	19.67
431.113	19.7
431.554	19.74
431.995	19.77
432.436	19.78
432.877	19.78
433.318	19.77
433.759	19.78
434.2	19.77
434.64	19.78
435.081	19.78
435.522	19.84
435.962	19.86
436.403	19.9
436.843	19.92
437.284	19.96
437.724	19.99
438.164	20
438.604	20.03
439.045	20.06
439.485	20.09
439.925	20.12
440.365	20.12
440.805	20.13
441.245	20.13
441.685	20.18
442.125	20.22
442.564	20.27
443.004	20.33
443.444	20.37
443.883	20.41
444.323	20.46
444.762	20.53
445.202	20.62
445.641	20.67
446.081	20.76
446.52	20.8
446.959	20.85
447.398	20.91
447.837	21.01
448.276	21.06
448.716	21.15
449.154	21.22
449.593	21.27
450.032	21.33
450.471	21.38
450.91	21.42
451.349	21.46
451.787	21.51
452.226	21.54
452.664	21.54
453.103	21.57
453.541	21.6
453.98	21.63
454.418	21.67
454.856	21.68
455.295	21.68
455.733	21.71
456.171	21.73
456.609	21.77
457.047	21.8
457.485	21.85
457.923	21.88
458.361	21.92
458.798	21.96
459.236	22.01
459.674	22.06
460.111	22.12
460.549	22.15
460.987	22.18
461.424	22.2
461.862	22.22
462.299	22.23
462.736	22.26
463.173	22.3
463.611	22.31
464.048	22.32
464.485	22.31
464.922	22.31
465.359	22.35
465.796	22.36
466.233	22.37
466.67	22.4
467.106	22.42
467.543	22.41
467.98	22.38
468.416	22.4
468.853	22.4
469.29	22.43
469.726	22.44
470.162	22.42
470.599	22.41
471.035	22.4
471.471	22.39
471.907	22.38
472.344	22.38
472.78	22.37
473.216	22.32
473.652	22.28
474.088	22.25
474.523	22.23
474.959	22.22
475.395	22.21
475.831	22.2
476.266	22.21
476.702	22.18
477.138	22.15
477.573	22.13
478.008	22.12
478.444	22.13
478.879	22.12
479.314	22.12
479.75	22.12
480.185	22.11
480.62	22.11
481.055	22.11
481.49	22.12
481.925	22.12
482.36	22.15
482.795	22.17
483.229	22.18
483.664	22.23
484.099	22.26
484.534	22.32
484.968	22.39
485.403	22.46
485.837	22.52
486.271	22.59
486.706	22.68
487.14	22.78
487.574	22.87
488.009	22.99
488.443	23.09
488.877	23.21
489.311	23.31
489.745	23.45
490.179	23.58
490.613	23.73
491.046	23.9
491.48	24.08
491.914	24.25
492.348	24.44
492.781	24.63
493.215	24.84
493.648	25.06
494.082	25.3
494.515	25.53
494.948	25.76
495.382	26
495.815	26.26
496.248	26.52
496.681	26.79
497.114	27.07
497.547	27.35
497.98	27.64
498.413	27.94
498.846	28.22
499.279	28.55
499.711	28.86
500.144	29.19
500.577	29.51
501.009	29.85
501.442	30.22
501.874	30.58
502.306	30.95
502.739	31.32
503.171	31.7
503.603	32.14
504.036	32.54
504.468	32.97
504.9	33.4
505.332	33.84
505.764	34.27
506.196	34.7
506.627	35.17
507.059	35.62
507.491	36.1
507.923	36.58
508.354	37.02
508.786	37.48
509.217	37.94
509.649	38.43
510.08	38.92
510.512	39.4
510.943	39.89
511.374	40.35
511.805	40.83
512.237	41.32
512.668	41.79
513.099	42.28
513.53	42.77
513.961	43.21
514.391	43.65
514.822	44.09
515.253	44.53
515.684	44.94
516.114	45.38
516.545	45.77
516.975	46.19
517.406	46.59
517.836	46.96
518.267	47.34
518.697	47.73
519.127	48.11
519.558	48.45
519.988	48.81
520.418	49.14
520.848	49.46
521.278	49.81
521.708	50.01
522.138	50.27
522.567	50.58
522.997	50.86
523.427	51.15
523.857	51.39
524.286	51.65
524.716	51.92
525.145	52.19
525.575	52.44
526.004	52.66
526.433	52.96
526.863	53.21
527.292	53.42
527.721	53.64
528.15	53.82
528.579	54.06
529.008	54.24
529.437	54.42
529.866	54.59
530.295	54.75
530.724	54.92
531.152	55.1
531.581	55.25
532.01	55.37
532.438	55.51
532.867	55.66
533.295	55.77
533.723	55.92
534.152	55.99
534.58	56.09
535.008	56.19
535.436	56.29
535.865	56.37
536.293	56.49
536.721	56.61
537.149	56.7
537.576	56.8
538.004	56.87
538.432	56.95
538.86	57.06
539.287	57.14
539.715	57.22
540.143	57.28
540.57	57.35
540.998	57.41
541.425	57.46
541.852	57.51
542.28	57.53
542.707	57.59
543.134	57.63
543.561	57.69
543.988	57.73
544.415	57.77
544.842	57.8
545.269	57.85
545.696	57.87
546.123	57.91
546.549	57.97
546.976	58.01
547.403	58.03
547.829	58.08
548.256	58.1
548.682	58.12
549.108	58.13
549.535	58.17
549.961	58.17
550.387	58.18
550.813	58.2
551.24	58.19
551.666	58.23
552.092	58.26
552.518	58.25
552.943	58.28
553.369	58.3
553.795	58.36
554.221	58.38
554.646	58.42
555.072	58.43
555.498	58.43
555.923	58.44
556.349	58.42
556.774	58.41
557.199	58.41
557.625	58.37
558.05	58.32
558.475	58.28
558.9	58.26
559.325	58.21
559.75	58.19
560.175	58.11
560.6	58.05
561.025	57.99
561.449	57.93
561.874	57.88
562.299	57.8
562.723	57.74
563.148	57.68
563.572	57.6
563.997	57.52
564.421	57.43
564.846	57.33
565.27	57.27
565.694	57.15
566.118	57.04
566.542	56.93
566.966	56.86
567.39	56.77
567.814	56.67
568.238	56.52
568.662	56.42
569.086	56.3
569.509	56.2
569.933	56.05
570.357	55.96
570.78	55.87
571.204	55.74
571.627	55.58
572.05	55.45
572.474	55.31
572.897	55.2
573.32	55.05
573.743	54.95
574.166	54.83
574.589	54.73
575.012	54.61
575.435	54.48
575.858	54.38
576.281	54.31
576.704	54.21
577.126	54.12
577.549	54.05
577.972	53.99
578.394	53.88
578.817	53.82
579.239	53.76
579.661	53.68
580.084	53.59
580.506	53.51
580.928	53.45
581.35	53.39
581.772	53.35
582.194	53.27
582.616	53.21
583.038	53.16
583.46	53.09
583.882	52.99
584.303	52.95
584.725	52.93
585.147	52.88
585.568	52.8
585.99	52.75
586.411	52.67
586.833	52.59
587.254	52.55
587.675	52.51
588.096	52.49
588.518	52.46
588.939	52.39
589.36	52.33
589.781	52.28
590.202	52.24
590.623	52.18
591.043	52.13
591.464	52.11
591.885	52.03
592.305	51.97
592.726	51.91
593.147	51.88
593.567	51.83
593.987	51.78
594.408	51.73
594.828	51.66
595.248	51.63
595.669	51.58
596.089	51.53
596.509	51.46
596.929	51.41
597.349	51.35
597.769	51.29
598.189	51.23
598.608	51.19
599.028	51.15
599.448	51.1
599.867	51.03
600.287	50.98
600.706	50.91
601.126	50.88
601.545	50.82
601.965	50.75
602.384	50.7
602.803	50.65
603.222	50.58
603.641	50.52
604.061	50.5
604.48	50.42
604.898	50.34
605.317	50.28
605.736	50.21
606.155	50.13
606.574	50.07
606.992	49.99
607.411	49.91
607.829	49.8
608.248	49.71
608.666	49.61
609.085	49.54
609.503	49.46
609.921	49.38
610.339	49.3
610.758	49.23
611.176	49.16
611.594	49.06
612.012	49.01
612.43	48.96
612.847	48.89
613.265	48.83
613.683	48.76
614.101	48.66
614.518	48.58
614.936	48.51
615.353	48.45
615.771	48.37
616.188	48.31
616.606	48.21
617.023	48.15
617.44	48.08
617.857	47.97
618.274	47.94
618.691	47.89
619.108	47.84
619.525	47.78
619.942	47.73
620.359	47.68
620.776	47.67
621.192	47.65
621.609	47.63
622.026	47.6
622.442	47.61
622.859	47.56
623.275	47.58
623.691	47.58
624.108	47.59
624.524	47.6
624.94	47.59
625.356	47.57
625.772	47.56
626.188	47.57
626.604	47.56
627.02	47.55
627.436	47.55
627.852	47.5
628.268	47.48
628.683	47.44
629.099	47.43
629.514	47.41
629.93	47.36
630.345	47.32
630.761	47.24
631.176	47.18
631.591	47.11
632.007	47.04
632.422	46.99
632.837	46.91
633.252	46.79
633.667	46.65
634.082	46.5
634.497	46.36
634.911	46.18
635.326	46
635.741	45.79
636.155	45.55
636.57	45.33
636.984	45.03
637.399	44.72
637.813	44.45
638.228	44.16
638.642	43.88
639.056	43.55
639.47	43.23
639.884	42.92
640.298	42.6
640.712	42.29
641.126	41.94
641.54	41.63
641.954	41.31
642.368	40.98
642.781	40.63
643.195	40.3
643.609	39.98
644.022	39.65
644.436	39.34
644.849	39.04
645.262	38.73
645.676	38.45
646.089	38.19
646.502	37.94
646.915	37.71
647.328	37.49
647.741	37.26
648.154	37.1
648.567	36.94
648.98	36.78
649.393	36.64
649.805	36.52
650.218	36.4
650.631	36.27
651.043	36.18
651.456	36.08
651.868	36.01
652.28	35.94
652.693	35.82
653.105	35.73
653.517	35.65
653.929	35.57
654.341	35.48
654.753	35.4
655.165	35.31
655.577	35.19
655.989	35.05
656.401	34.9
656.813	34.74
657.224	34.6
657.636	34.43
658.047	34.23
658.459	34.04
658.87	33.83
659.282	33.62
659.693	33.38
660.104	33.16
660.515	32.92
660.926	32.68
661.338	32.46
661.749	32.22
662.159	31.99
662.57	31.77
662.981	31.53
663.392	31.31
663.803	31.08
664.213	30.88
664.624	30.69
665.035	30.51
665.445	30.35
665.855	30.17
666.266	30.02
666.676	29.87
667.086	29.74
667.497	29.61
667.907	29.49
668.317	29.39
668.727	29.3
669.137	29.23
669.547	29.15
669.956	29.09
670.366	29.05
670.776	29
671.186	28.99
671.595	28.98
672.005	28.98
672.414	28.99
672.824	29.03
673.233	29.07
673.642	29.08
674.052	29.15
674.461	29.22
674.87	29.31
675.279	29.42
675.688	29.52
676.097	29.65
676.506	29.81
676.915	29.99
677.323	30.18
677.732	30.42
678.141	30.7
678.549	30.96
678.958	31.29
679.366	31.62
679.775	31.98
680.183	32.38
680.592	32.82
681	33.28
681.408	33.77
681.816	34.31
682.224	34.89
682.632	35.52
683.04	36.17
683.448	36.83
683.856	37.55
684.264	38.31
684.671	39.13
685.079	39.95
685.487	40.8
685.894	41.7
686.302	42.59
686.709	43.46
687.116	44.36
687.524	45.27
687.931	46.19
688.338	47.1
688.745	48
689.152	48.9
689.559	49.76
689.966	50.61
690.373	51.44
690.78	52.25
691.187	53.01
691.593	53.75
692	54.5
692.407	55.22
692.813	55.94
693.22	56.6
693.626	57.27
694.032	57.91
694.439	58.52
694.845	59.1
695.251	59.71
695.657	60.28
696.063	60.84
696.469	61.35
696.875	61.8
697.281	62.23
697.687	62.69
698.093	63.09
698.498	63.48
698.904	63.89
699.31	64.25
699.715	64.59
700.12	64.91
700.526	65.23
700.931	65.52
701.337	65.81
701.742	66.07
702.147	66.31
702.552	66.56
702.957	66.81
703.362	67.05
703.767	67.27
704.172	67.47
704.577	67.67
704.981	67.88
705.386	68.04
705.791	68.26
706.195	68.43
706.6	68.62
707.004	68.82
707.408	68.98
707.813	69.14
708.217	69.29
708.621	69.45
709.025	69.6
709.43	69.74
709.834	69.92
710.237	70.03
710.641	70.17
711.045	70.3
711.449	70.4
711.853	70.51
712.256	70.6
712.66	70.69
713.064	70.79
713.467	70.87
713.87	70.97
714.274	71.06
714.677	71.18
715.08	71.3
715.484	71.42
715.887	71.54
716.29	71.64
716.693	71.75
717.096	71.88
717.499	71.95
717.901	72.07
718.304	72.14
718.707	72.2
719.109	72.26
719.512	72.33
719.915	72.37
720.317	72.44
720.719	72.48
721.122	72.5
721.524	72.54
721.926	72.6
722.328	72.64
722.731	72.72
723.133	72.77
723.535	72.85
723.937	72.9
724.338	72.93
724.74	72.95
725.142	72.96
725.544	73.01
725.945	73.09
726.347	73.19
726.748	73.19
727.15	73.21
727.551	73.26
727.952	73.27
728.354	73.3
728.755	73.37
729.156	73.45
729.557	73.56
729.958	73.62
730.359	73.63
730.76	73.57
731.161	73.61
731.562	73.63
731.962	73.65
732.363	73.64
732.763	73.68
733.164	73.66
733.564	73.63
733.965	73.62
734.365	73.57
734.766	73.59
735.166	73.63
735.566	73.64
735.966	73.63
736.366	73.61
736.766	73.64
737.166	73.63
737.566	73.64
737.966	73.67
738.365	73.66
738.765	73.73
739.165	73.69
739.564	73.7
739.964	73.67
740.363	73.68
740.763	73.7
741.162	73.67
741.561	73.69
741.96	73.72
742.36	73.72
742.759	73.69
743.158	73.67
743.557	73.68
743.955	73.71
744.354	73.78
744.753	73.81
745.152	73.8
745.55	73.84
745.949	73.86
746.348	73.83
746.746	73.81
747.144	73.88
747.543	73.85
747.941	73.92
748.339	73.95
748.737	73.95
749.136	73.93
749.534	73.95
749.932	73.94
750.33	73.94
750.727	73.93
751.125	73.92
751.523	73.87
751.921	73.91
752.318	73.84
752.716	73.78
753.113	73.79
753.511	73.77
753.908	73.74
754.305	73.71
754.703	73.68
755.1	73.68
755.497	73.67
755.894	73.7
756.291	73.68
756.688	73.67
757.085	73.67
757.482	73.62
757.878	73.62
758.275	73.59
758.672	73.63
759.068	73.63
759.465	73.62
759.861	73.62
760.258	73.58
760.654	73.55
761.05	73.53
761.447	73.5
761.843	73.49
762.239	73.49
762.635	73.5
763.031	73.43
763.427	73.39
763.822	73.34
764.218	73.29
764.614	73.29
765.01	73.26
765.405	73.25
765.801	73.18
766.196	73.17
766.592	73.14
766.987	73.13
767.382	73.15
767.778	73.17
768.173	73.16
768.568	73.15
768.963	73.15
769.358	73.14
769.753	73.13
770.148	73.18
770.542	73.14
770.937	73.12
771.332	73.11
771.726	73.11
772.121	73.05
772.515	73.09
772.91	73.12
773.304	73.1
773.699	73.1
774.093	73.09
774.487	73.09
774.881	73.12
775.275	73.15
775.669	73.15
776.063	73.14
776.457	73.13
776.851	73.11
777.245	73.12
777.638	73.09
778.032	73.09
778.425	73.09
778.819	73.06
779.212	73.04
779.606	73.01
779.999	73.02
780.392	73.03
780.786	73.02
781.179	73.05
781.572	73.02
781.965	73.07
782.358	73.05
782.751	73.08
783.143	73.1
783.536	73.17
783.929	73.21
784.322	73.2
784.714	73.22
785.107	73.27
785.499	73.26
785.891	73.29
786.284	73.25
786.676	73.31
787.068	73.28
787.46	73.26
787.852	73.22
788.245	73.22
788.636	73.25
789.028	73.23
789.42	73.18
789.812	73.17
790.204	73.15
790.595	73.16
790.987	73.15
791.378	73.16
791.77	73.22
792.161	73.2
792.553	73.16
792.944	73.15
793.335	73.16
793.726	73.2
794.117	73.2
794.508	73.21
794.899	73.23
795.29	73.24
795.681	73.25
796.072	73.21
796.463	73.21
796.853	73.22
797.244	73.19
797.634	73.16
798.025	73.15
798.415	73.15
798.806	73.15
799.196	73.17
799.586	73.2
799.976	73.21
800.366	73.24
800.756	73.26
801.146	73.28
801.536	73.3
801.926	73.33
802.316	73.37
802.706	73.38
803.095	73.36
803.485	73.38
803.874	73.35
804.264	73.38
804.653	73.33
805.043	73.34
805.432	73.27
805.821	73.3
806.21	73.34
806.599	73.32
806.988	73.33
807.377	73.38
807.766	73.36
808.155	73.41
808.544	73.37
808.933	73.42
809.321	73.41
809.71	73.49
810.098	73.47
810.487	73.47
810.875	73.45
811.264	73.46
811.652	73.47
812.04	73.47
812.428	73.42
812.816	73.49
813.204	73.47
813.592	73.47
813.98	73.44
814.368	73.47
814.756	73.45
815.144	73.5
815.531	73.48
815.919	73.48
816.306	73.52
816.694	73.51
817.081	73.44
817.469	73.49
817.856	73.54
818.243	73.55
818.63	73.55
819.017	73.58
819.404	73.54
819.791	73.56
820.178	73.57
820.565	73.57
820.952	73.61
821.339	73.65
821.725	73.65
822.112	73.62
822.498	73.63
822.885	73.65
823.271	73.65
823.657	73.67
824.044	73.66
824.43	73.68
824.816	73.7
825.202	73.69
825.588	73.72
825.974	73.7
826.36	73.73
826.746	73.76
827.132	73.72
827.517	73.74
827.903	73.76
828.289	73.76
828.674	73.74
829.06	73.73
829.445	73.75
829.83	73.72
830.216	73.76
830.601	73.75
830.986	73.72
831.371	73.76
831.756	73.69
832.141	73.67
832.526	73.69
832.911	73.7
833.295	73.7
833.68	73.69
834.065	73.72
834.449	73.68
834.834	73.67
835.218	73.66
835.603	73.65
835.987	73.69
836.371	73.71
836.755	73.67
837.139	73.62
837.524	73.6
837.908	73.57
838.291	73.55
838.675	73.59
839.059	73.59
839.443	73.64
839.827	73.62
840.21	73.63
840.594	73.62
840.977	73.6
841.361	73.65
841.744	73.65
842.127	73.62
842.511	73.59
842.894	73.51
843.277	73.49
843.66	73.44
844.043	73.45
844.426	73.46
844.809	73.46
845.191	73.48
845.574	73.44
845.957	73.42
846.339	73.45
846.722	73.47
847.104	73.52
847.487	73.57
847.869	73.59
848.252	73.58
848.634	73.59
849.016	73.6
849.398	73.58
849.78	73.62
850.162	73.62
850.544	73.64
850.926	73.62
851.307	73.61
851.689	73.56
852.071	73.55
852.452	73.55
852.834	73.5
853.215	73.48
853.597	73.5
853.978	73.45
854.359	73.45
854.741	73.47
855.122	73.46
855.503	73.48
855.884	73.46
856.265	73.43
856.646	73.42
857.026	73.44
857.407	73.41
857.788	73.42
858.169	73.44
858.549	73.47
858.93	73.47
859.31	73.46
859.69	73.44
860.071	73.46
860.451	73.46
860.831	73.47
861.211	73.48
861.591	73.51
861.971	73.48
862.351	73.49
862.731	73.44
863.111	73.39
863.491	73.4
863.87	73.41
864.25	73.41
864.629	73.41
865.009	73.39
865.388	73.39
865.768	73.38
866.147	73.38
866.526	73.36
866.905	73.38
867.284	73.39
867.663	73.41
868.042	73.38
868.421	73.35
868.8	73.37
869.179	73.4
869.558	73.36
869.936	73.33
870.315	73.32
870.693	73.31
871.072	73.28
871.45	73.26
871.828	73.24
872.207	73.25
872.585	73.28
872.963	73.24
873.341	73.2
873.719	73.19
874.097	73.22
874.475	73.21
874.853	73.2
875.23	73.24
875.608	73.3
875.986	73.31
876.363	73.3
876.741	73.33
877.118	73.33
877.495	73.34
877.873	73.35
878.25	73.32
878.627	73.35
879.004	73.37
879.381	73.37
879.758	73.31
880.135	73.3
880.512	73.32
880.889	73.3
881.265	73.31
881.642	73.31
882.019	73.36
882.395	73.41
882.772	73.43
883.148	73.42
883.524	73.45
883.901	73.46
884.277	73.47
884.653	73.48
885.029	73.47
885.405	73.48
885.781	73.48
886.157	73.43
886.532	73.42
886.908	73.44
887.284	73.47
887.659	73.42
888.035	73.42
888.411	73.4
888.786	73.35
889.161	73.35
889.537	73.35
889.912	73.33
890.287	73.31
890.662	73.28
891.037	73.23
891.412	73.16
891.787	73.15
892.162	73.13
892.536	73.11
892.911	73.09
893.286	73.03
893.66	73
894.035	73
894.409	72.99
894.784	73
895.158	73
895.532	73.01
895.906	73
896.281	72.96
896.655	72.95
897.029	72.95
897.402	72.96
897.776	72.97
898.15	72.95
898.524	72.94
898.898	72.88
899.271	72.84
899.645	72.83
900.018	72.79
900.392	72.83
900.765	72.82
901.138	72.84
901.511	72.83
901.884	72.82
902.258	72.8
902.631	72.82
903.003	72.85
903.376	72.87
903.749	72.87
904.122	72.91
904.495	72.9
904.867	72.89
905.24	72.89
905.612	72.88
905.985	72.85
906.357	72.87
906.729	72.83
907.102	72.78
907.474	72.78
907.846	72.76
908.218	72.72
908.59	72.68
908.962	72.68
909.334	72.64
909.705	72.63
910.077	72.63
910.449	72.64
910.82	72.62
911.192	72.65
911.563	72.6
911.935	72.55
912.306	72.52
912.677	72.56
913.048	72.48
913.419	72.48
913.79	72.47
914.161	72.44
914.532	72.43
914.903	72.42
915.274	72.4
915.645	72.42
916.015	72.46
916.386	72.48
916.756	72.43
917.127	72.49
917.497	72.49
917.868	72.47
918.238	72.52
918.608	72.47
918.978	72.46
919.348	72.41
919.718	72.38
920.088	72.4
920.458	72.43
920.828	72.45
921.198	72.44
921.567	72.4
921.937	72.42
922.306	72.34
922.676	72.36
923.045	72.33
923.415	72.39
923.784	72.41
924.153	72.39
924.522	72.35
924.891	72.34
925.26	72.32
925.629	72.35
925.998	72.32
926.367	72.31
926.736	72.27
927.104	72.23
927.473	72.22
927.842	72.16
928.21	72.14
928.578	72.12
928.947	72.08
929.315	72.05
929.683	72.05
930.051	72
930.42	72.05
930.788	72.06
931.156	72.07
931.523	72.05
931.891	72.01
932.259	71.92
932.627	71.89
932.994	71.86
933.362	71.81
933.729	71.72
934.097	71.68
934.464	71.61
934.831	71.55
935.199	71.51
935.566	71.41
935.933	71.42
936.3	71.41
936.667	71.37
937.034	71.36
937.401	71.31
937.767	71.22
938.134	71.22
938.501	71.12
938.867	71.17
939.234	71.14
939.6	71.13
939.967	71.13
940.333	71.2
940.699	71.28
941.065	71.31
941.431	71.47
941.798	71.66
942.163	71.78
942.529	71.93
942.895	71.99
943.261	72.09
943.627	72.27
943.992	72.31
944.358	72.32
944.723	72.36
945.089	72.43
945.454	72.41
945.82	72.35
946.185	72.4
946.55	72.53
946.915	72.55
947.28	72.5
947.645	72.48
948.01	72.45
948.375	72.47
948.74	72.41
949.104	72.41
949.469	72.36
949.834	72.32
950.198	72.18
950.562	72.03
950.927	71.96
951.291	71.88
951.655	71.81
952.02	71.82
952.384	71.8
952.748	71.82
953.112	71.75
953.476	71.75
953.839	71.79
954.203	71.76
954.567	71.7
954.931	71.62
955.294	71.64
955.658	71.56
956.021	71.46
956.385	71.48
956.748	71.5
957.111	71.47
957.474	71.44
957.837	71.4
958.2	71.39
958.563	71.34
958.926	71.31
959.289	71.38
959.652	71.36
960.015	71.31
960.377	71.23
960.74	71.09
961.102	71.08
961.465	71.19
961.827	71.12
962.189	71.04
962.552	70.96
962.914	70.95
963.276	70.85
963.638	70.86
964	70.93
964.362	70.92
964.724	70.94
965.085	70.94
965.447	70.7
965.809	70.66
966.17	70.74
966.532	70.81
966.893	70.8
967.255	70.76
967.616	70.82
967.977	70.81
968.338	70.75
968.699	70.74
969.061	70.73
969.421	70.83
969.782	70.89
970.143	70.84
970.504	70.78
970.865	70.72
971.225	70.73
971.586	70.66
971.946	70.62
972.307	70.65
972.667	70.69
973.027	70.67
973.388	70.64
973.748	70.63
974.108	70.63
974.468	70.7
974.828	70.86
975.188	70.86
975.548	70.87
975.907	70.91
976.267	70.93
976.627	70.88
976.986	70.91
977.346	70.86
977.705	70.87
978.064	70.83
978.424	70.83
978.783	70.71
979.142	70.78
979.501	70.71
979.86	70.7
980.219	70.56
980.578	70.52
980.937	70.5
981.296	70.57
981.654	70.63
982.013	70.66
982.371	70.65
982.73	70.69
983.088	70.68
983.447	70.71
983.805	70.66
984.163	70.81
984.521	70.79
984.879	70.76
985.237	70.78
985.595	70.77
985.953	70.77
986.311	70.69
986.669	70.69
987.026	70.67
987.384	70.69
987.741	70.79
988.099	70.79
988.456	70.87
988.814	70.96
989.171	70.91
989.528	70.87
989.885	70.88
990.242	71.02
990.599	70.96
990.956	70.9
991.313	71.01
991.67	70.88
992.027	70.71
992.383	70.75
992.74	70.79
993.096	70.77
993.453	70.67
993.809	70.75
994.165	70.57
994.522	70.57
994.878	70.58
995.234	70.43
995.59	70.45
995.946	70.66
996.302	70.45
996.658	70.3
997.013	70.27
997.369	70.41
997.725	70.43
998.08	70.51
998.436	70.58
998.791	70.63
999.147	70.68
999.502	70.74
999.857	70.72
1000.212	70.8
1000.567	70.99
1000.922	71.04
1001.277	70.92
1001.632	70.8
1001.987	70.83
1002.342	70.93
1002.696	70.9
1003.051	70.79
1003.406	70.72
1003.76	70.63
1004.114	70.8
1004.469	70.72
1004.823	70.82
1005.177	70.97
1005.531	71
1005.885	71.22
1006.239	71.17
1006.593	71.05
1006.947	71.08
1007.301	71.28
1007.655	71.43
1008.008	71.35
1008.362	71.25
1008.715	71.01
1009.069	70.76
1009.422	70.5
1009.776	70.23
1010.129	69.92
1010.482	70.22
1010.835	70.56
1011.188	70.28
1011.541	70.04
1011.894	69.91
1012.247	69.86
1012.6	69.98
1012.952	70.22
1013.305	70.48
1013.657	70.67
1014.01	71.15
1014.362	71.22
1014.715	70.86
1015.067	71.16
1015.419	71.49
1015.771	71.74
1016.123	71.81
1016.475	71.98
1016.827	72.23
1017.179	72.18
1017.531	72.08
1017.883	72.09
1018.234	71.96
1018.586	72
1018.938	71.75
1019.289	71.42
1019.64	71.57
1019.992	71.57
1020.343	71.3
1020.694	70.87
1021.045	71.07
1021.396	71.09
1021.747	70.82
1022.098	70.81
1022.449	70.83
1022.8	70.86
1023.151	70.94
1023.501	70.79
1023.852	70.91
1024.202	71.08
1024.553	71.11
1024.903	70.74
1025.253	71.05
1025.604	71.13
1025.954	71.02
1026.304	71.34
1026.654	71.6
1027.004	71.79
1027.354	71.61
1027.703	71.61
1028.053	71.44
1028.403	71.5
1028.753	72.01
1029.102	71.75
1029.452	71.77
1029.801	71.82
1030.15	71.6
1030.499	71.5
897.758	513.45
901.051	522.38
904.343	529.5
907.636	518.73
910.928	508.67
914.22	519.34
917.511	509.32
920.803	486.95
924.094	469.64
927.384	475.48
930.675	462.7
933.965	455.8
937.255	458.27
940.544	437.25
943.834	419.5
947.123	415.82
950.411	393.55
953.7	386.27
956.988	380.21
960.276	361.67
963.563	358.07
966.851	341.12
970.138	336.3
973.424	312.26
976.711	309.37
979.997	301.62
983.283	294.49
986.568	285.61
989.853	278.37
993.138	267.91
996.423	265.41
999.708	256.35
1002.992	257.05
1006.275	251.97
1009.559	249.28
1012.842	243.27
1016.125	236.08
1019.408	232.73
1022.69	231.54
1025.972	230.14
1029.254	224.32
1032.536	220.43
1035.817	213.47
1039.098	211.78
1042.379	207.74
1045.659	205.97
1048.939	203.88
1052.219	200.56
1055.498	197.68
1058.778	194.92
1062.057	191.37
1065.335	191.69
1068.614	188.29
1071.892	186.83
1075.17	183.39
1078.447	180.32
1081.724	179.91
1085.001	176.4
1088.278	175.81
1091.554	175.98
1094.83	174.45
1098.106	172.37
1101.382	171.06
1104.657	170.76
1107.932	170.39
1111.206	169.89
1114.481	169.13
1117.755	167.34
1121.029	167.2
1124.302	165.21
1127.575	161.58
1130.848	161.25
1134.121	159.13
1137.393	158.88
1140.665	158.53
1143.937	157.38
1147.208	154.33
1150.48	152.62
1153.75	151.99
1157.021	151.04
1160.291	150.95
1163.561	151.19
1166.831	149.89
1170.101	150.25
1173.37	148.9
1176.639	147.24
1179.907	146.78
1183.176	147.53
1186.444	147.26
1189.711	146.02
1192.979	147.43
1196.246	147.17
1199.513	146.67
1202.78	147.92
1206.046	147.24
1209.312	147.63
1212.578	148.83
1215.843	150.18
1219.108	151
1222.373	153.59
1225.638	155.55
1228.902	157.97
1232.166	161.41
1235.43	163.51
1238.693	165.64
1241.956	169.77
1245.219	174.78
1248.482	174.93
1251.744	175.15
1255.006	175.09
1258.268	171.6
1261.529	170.85
1264.79	166.73
1268.051	163.65
1271.312	161.64
1274.572	159.84
1277.832	156.65
1281.092	154.17
1284.351	151.67
1287.61	151.65
1290.869	151.17
1294.128	150.42
1297.386	150.4
1300.644	149.27
1303.902	149.83
1307.159	150.03
1310.416	149.77
1313.673	151.6
1316.93	152.07
1320.186	154.25
1323.442	154.91
1326.697	157.88
1329.953	158.14
1333.208	160.89
1336.463	167.8
1339.717	169.93
1342.972	175.48
1346.226	180.56
1349.479	181.25
1352.733	188.56
1355.986	192.7
1359.238	196.72
1362.491	197.2
1365.743	204.11
1368.995	206.47
1372.247	204.9
1375.498	204.09
1378.749	210.63
1382	208.72
1385.251	208.21
1388.501	206.41
1391.751	207.19
1395	206.57
1398.25	208.11
1401.499	207.47
1404.748	206.85
1407.996	201.13
1411.244	201.57
1414.492	197.7
1417.74	191.32
1420.987	187.77
1424.234	184.05
1427.481	178.66
1430.728	173.52
1433.974	167.83
1437.22	162.3
1440.465	156.22
1443.711	152.29
1446.956	148.06
1450.201	142.22
1453.445	137.16
1456.689	133.81
1459.933	129.26
1463.177	123.52
1466.42	121.34
1469.663	118.06
1472.906	114.84
1476.148	113.64
1479.391	112.24
1482.633	110.7
1485.874	109.24
1489.115	108.78
1492.356	106.11
1495.597	105.6
1498.838	106.16
1502.078	105.69
1505.318	105.67
1508.557	105.12
1511.797	103.61
1515.036	103.8
1518.274	103.06
1521.513	102.89
1524.751	102.54
1527.989	103.7
1531.227	103.9
1534.464	103.56
1537.701	103.17
1540.938	102.86
1544.174	102.86
1547.41	103.6
1550.646	102.91
1553.882	103.36
1557.117	102.91
1560.352	102.86
1563.587	101.94
1566.821	101.76
1570.055	101.7
1573.289	101.4
1576.523	101.46
1579.756	101.54
1582.989	101.27
1586.222	101.64
1589.454	101.8
1592.686	101.62
1595.918	101.49
1599.15	101.82
1602.381	101.95
1605.612	101.75
1608.843	101.45
1612.073	102.09
1615.303	102.26
1618.533	102.42
1621.762	102.2
1624.992	101.78
1628.221	101.83
1631.449	102.38
1634.678	102.21
1637.906	102.45
1641.134	102.24
1644.361	102.78
1647.588	102.19
1650.815	101.98
1654.042	102.19
1657.269	102.08
1660.495	102.63
1663.72	102.94
1666.946	102.73
1670.171	103.3
1673.396	103.55
1676.621	104.17
1679.845	104.77
1683.069	104.7
1686.293	104.42
1689.517	104.33
1692.74	104.49
1695.963	104.66
1699.185	105.07
1702.408	104.99
1705.63	105.22
1708.852	105.36
1712.073	104.53
1715.294	104.02
1718.515	105.28
1721.736	105.76
1724.956	105.99
1728.176	105.79
1731.396	106.12
1734.616	105.5
1737.835	105.78
1741.054	105.18
1744.272	104.72
1747.491	105.67
1750.709	106.11
1753.927	105.43
1757.144	105.5
1760.361	105.33
1763.578	105.86
1766.795	106.24
1770.011	106.45
1773.227	107.05
1776.443	108
1779.658	108.5
1782.874	108.86
1786.089	108.49
1789.303	108.67
1792.518	109.33
1795.732	109.89
1798.945	110.87
1802.159	110.58
1805.372	111.93
1808.585	112.37
1811.797	113.05
1815.01	113.69
1818.222	114.13
1821.434	115.77
1824.645	115.82
1827.856	117.19
1831.067	117.57
1834.278	118.33
1837.488	119.4
1840.698	119.91
1843.908	120
1847.117	120.83
1850.326	121.33
1853.535	122.16
1856.744	121.47
1859.952	123.28
1863.16	122.58
1866.368	122
1869.575	122.12
1872.782	120.8
1875.989	119.3
1879.196	118.94
1882.402	116.24
1885.608	116.59
1888.814	114.49
1892.019	115.63
1895.224	112.49
1898.429	112.9
1901.634	113.08
1904.838	111.8
1908.042	111.79
1911.246	111.38
1914.449	110.76
1917.652	111.14
1920.855	111.4
1924.058	110.87
1927.26	109.29
1930.462	110.34
1933.664	109.13
1936.865	109.01
1940.066	107.89
1943.267	107.94
1946.467	109.48
1949.668	109.09
1952.868	110.45
1956.067	109.63
1959.267	110.97
1962.466	111.17
1965.665	113.02
1968.863	114.59
1972.061	115.42
1975.259	118.41
1978.457	118.69
1981.654	119.5
1984.852	120.76
1988.048	121.57
1991.245	123.97
1994.441	126.21
1997.637	129.35
2000.833	131.96
2004.028	132.08
2007.223	136.57
2010.418	138.25
2013.613	145.34
2016.807	149.04
2020.001	151.24
2023.194	156.24
2026.388	160.8
2029.581	168.03
2032.774	171.87
2035.966	177.58
2039.158	184.32
2042.35	186.06
2045.542	189.04
2048.733	194.5
2051.924	196.6
2055.115	200.63
2058.306	201.83
2061.496	204.93
2064.686	206.45
2067.875	206.56
2071.065	207.25
2074.254	208.42
2077.442	214.31
2080.631	217.41
2083.819	217.89
2087.007	222.05
2090.195	226.79
2093.382	225.92
2096.569	226.59
2099.756	229.92
2102.942	234.55
2106.128	238.69
2109.314	238.88
2112.5	239.49
2115.685	238.69
2118.87	239.93
2122.055	242.03
2125.239	245.25
2128.424	253.24
2131.608	251.18
2134.791	249.24
2137.974	251.59
2141.157	253.23
2144.34	256.58
2147.523	258.38
2150.705	264.44
2153.887	262.14
2157.068	264.99
2160.25	269.49
2163.431	266.44
2166.611	272.63
2169.792	277.59
2172.972	283.11
2176.152	282.92
2179.331	289.03
2182.511	289.17
2185.69	292.55
2188.868	303.29
2192.047	309.21
2195.225	311.97
2198.403	316.34
2201.58	312.07
2204.758	325.05
2207.935	323.83
2211.111	329.5
2214.288	330.8
2217.464	337.66
2220.64	338.75
2223.815	338.81
2226.991	333.44
2230.166	335.8
2233.34	347.63
2236.515	355.45
2239.689	348.59
2242.863	354.36
2246.036	353.51
2249.209	359.41
2252.382	360.96
2255.555	374.1
2258.727	377.32
2261.9	388.47
2265.071	393.77
2268.243	387.73
2271.414	399.98
2274.585	409.34
2277.756	410.22
2280.926	420.79
2284.096	424.18
2287.266	421.9
2290.436	411.1
2293.605	421.51
2296.774	439.69
2299.942	436.74
2303.111	452.97
2306.279	456.39
2309.447	459.26
2312.614	459.72
2315.781	473
2318.948	479.35
2322.115	489.24
2325.281	517.52
2328.447	513.97
2331.613	512.39
2334.779	525.06
2337.944	525.7
2341.109	539.9
2344.274	542.32
2347.438	562.49
2350.602	569.79
2353.766	601.98
2356.929	604.45
2360.092	612.77
2363.255	613.74
2366.418	619.77
2369.58	633.65
2372.742	636.8
2375.904	635.81
2379.066	654.62
2382.227	685.06
2385.388	685.62
2388.548	652.21
2391.709	646.83
2394.869	663.3
2398.029	670.35
2401.188	672
2404.347	692.95
2407.506	714.75
2410.665	683.81
2413.823	685.5
2416.981	684.9
2420.139	653.62
2423.296	709.59
2426.453	750.78
2429.61	723.17
2432.767	764.18
2435.923	790.12
2439.079	758.19
2442.235	776.09
2445.391	799.55
2448.546	792.31
2451.701	839.38
2454.855	892.23
2458.009	791.11
2461.163	812.04
2464.317	807.16
2467.471	789.62
2470.624	813.54
2473.777	799.97
2476.929	773.8
2480.082	821.4
2483.234	859.41
2486.385	867.93
2489.537	889.7
2492.688	967.06
2495.839	953.26
2498.989	986.2
2502.14	991.96
2505.29	949.25
2508.439	1061.06
2511.589	1096.22
2514.738	1066.03
2517.887	1062.04
2521.035	993.19
2524.183	977.52
2527.331	972.45
2530.479	943.77
2533.627	968.81
