Data from N_1_dec_on_6n_017_Splice17_09.txt Node
Date: Sat Feb 29 13:40:22 EST 2020
User: sa697716
Spectrometer: FLMS03696
Trigger mode: 0
Integration Time (sec): 3.180400E-1
Scans to average: 20
Electric dark correction enabled: true
Nonlinearity correction enabled: true
Boxcar width: 5
XAxis mode: Wavelengths
Number of Pixels in Spectrum: 2048
>>>>>Begin Spectral Data<<<<<
187.83	98.29
188.298	99.27
188.766	78.02
189.233	83.49
189.701	88.58
190.169	93.34
190.636	92.31
191.104	75.08
191.571	69.48
192.039	201.55
192.506	-145.9
192.974	2641.93
193.441	288.1
193.908	22.82
194.375	-15.45
194.842	33.59
195.31	103.83
195.777	103.68
196.244	35.83
196.711	24.97
197.177	22.4
197.644	22.6
198.111	21.84
198.578	22.93
199.045	22.96
199.511	24.11
199.978	24.44
200.445	23.73
200.911	24.13
201.378	24.33
201.844	24.87
202.31	25.63
202.777	26.3
203.243	26.92
203.709	27.07
204.176	26.96
204.642	26.79
205.108	26.66
205.574	27.33
206.04	27.3
206.506	27.48
206.972	27.33
207.438	27.07
207.903	26.81
208.369	26.06
208.835	26.1
209.301	26
209.766	25.83
210.232	25.95
210.697	25.82
211.163	25.57
211.628	24.84
212.094	24.83
212.559	24.58
213.024	23.85
213.49	23.9
213.955	23.32
214.42	22.65
214.885	21.98
215.35	21.51
215.815	20.39
216.28	19.79
216.745	18.97
217.21	17.96
217.675	17.13
218.14	16.33
218.604	15.43
219.069	14.86
219.534	14.4
219.998	13.86
220.463	13.43
220.927	13.16
221.392	12.8
221.856	12.58
222.32	12.36
222.785	12.14
223.249	12.01
223.713	11.92
224.177	11.75
224.642	11.6
225.106	11.48
225.57	11.35
226.034	11.22
226.497	11.09
226.961	10.96
227.425	10.83
227.889	10.72
228.353	10.59
228.816	10.46
229.28	10.32
229.744	10.22
230.207	10.12
230.671	10
231.134	9.89
231.597	9.79
232.061	9.68
232.524	9.61
232.987	9.51
233.45	9.42
233.914	9.32
234.377	9.27
234.84	9.17
235.303	9.09
235.766	9.01
236.229	8.94
236.691	8.87
237.154	8.8
237.617	8.71
238.08	8.64
238.542	8.58
239.005	8.53
239.468	8.42
239.93	8.36
240.393	8.3
240.855	8.22
241.317	8.16
241.78	8.09
242.242	8.02
242.704	7.95
243.166	7.88
243.629	7.81
244.091	7.74
244.553	7.7
245.015	7.65
245.477	7.59
245.939	7.54
246.4	7.48
246.862	7.42
247.324	7.39
247.786	7.36
248.247	7.31
248.709	7.26
249.17	7.22
249.632	7.16
250.093	7.1
250.555	7.05
251.016	7.02
251.477	6.97
251.939	6.93
252.4	6.89
252.861	6.84
253.322	6.8
253.783	6.76
254.244	6.72
254.705	6.69
255.166	6.67
255.627	6.64
256.088	6.58
256.549	6.56
257.009	6.53
257.47	6.5
257.931	6.47
258.391	6.43
258.852	6.39
259.312	6.36
259.773	6.32
260.233	6.29
260.694	6.26
261.154	6.22
261.614	6.19
262.074	6.15
262.534	6.1
262.994	6.06
263.455	6.04
263.915	6
264.374	5.97
264.834	5.94
265.294	5.9
265.754	5.87
266.214	5.84
266.673	5.82
267.133	5.8
267.593	5.78
268.052	5.75
268.512	5.72
268.971	5.7
269.431	5.67
269.89	5.65
270.349	5.63
270.809	5.61
271.268	5.59
271.727	5.57
272.186	5.55
272.645	5.52
273.104	5.51
273.563	5.5
274.022	5.48
274.481	5.47
274.94	5.45
275.399	5.44
275.857	5.41
276.316	5.39
276.775	5.36
277.233	5.34
277.692	5.32
278.15	5.29
278.609	5.27
279.067	5.24
279.525	5.21
279.984	5.2
280.442	5.17
280.9	5.16
281.358	5.15
281.816	5.14
282.274	5.12
282.732	5.11
283.19	5.11
283.648	5.11
284.106	5.1
284.564	5.1
285.021	5.1
285.479	5.11
285.937	5.1
286.394	5.1
286.852	5.11
287.309	5.11
287.767	5.11
288.224	5.1
288.682	5.1
289.139	5.11
289.596	5.09
290.053	5.08
290.511	5.05
290.968	5.04
291.425	5.01
291.882	4.99
292.339	4.96
292.796	4.94
293.252	4.92
293.709	4.9
294.166	4.87
294.623	4.86
295.079	4.85
295.536	4.84
295.992	4.82
296.449	4.82
296.905	4.8
297.362	4.79
297.818	4.78
298.274	4.77
298.731	4.76
299.187	4.75
299.643	4.74
300.099	4.73
300.555	4.71
301.011	4.7
301.467	4.69
301.923	4.69
302.379	4.68
302.835	4.67
303.291	4.66
303.746	4.65
304.202	4.64
304.658	4.63
305.113	4.63
305.569	4.63
306.024	4.62
306.479	4.61
306.935	4.61
307.39	4.59
307.845	4.59
308.301	4.59
308.756	4.6
309.211	4.59
309.666	4.59
310.121	4.59
310.576	4.59
311.031	4.58
311.486	4.58
311.94	4.58
312.395	4.59
312.85	4.59
313.305	4.6
313.759	4.59
314.214	4.59
314.668	4.58
315.123	4.58
315.577	4.58
316.032	4.57
316.486	4.57
316.94	4.56
317.394	4.55
317.849	4.55
318.303	4.53
318.757	4.53
319.211	4.51
319.665	4.52
320.119	4.51
320.572	4.5
321.026	4.51
321.48	4.5
321.934	4.49
322.387	4.48
322.841	4.47
323.295	4.46
323.748	4.44
324.202	4.44
324.655	4.42
325.108	4.4
325.562	4.39
326.015	4.37
326.468	4.36
326.921	4.34
327.374	4.35
327.827	4.35
328.28	4.34
328.733	4.34
329.186	4.33
329.639	4.32
330.092	4.31
330.545	4.32
330.997	4.31
331.45	4.3
331.903	4.3
332.355	4.29
332.808	4.28
333.26	4.28
333.713	4.28
334.165	4.28
334.617	4.3
335.069	4.29
335.522	4.29
335.974	4.29
336.426	4.3
336.878	4.3
337.33	4.3
337.782	4.3
338.234	4.3
338.686	4.3
339.137	4.31
339.589	4.3
340.041	4.3
340.493	4.28
340.944	4.28
341.396	4.28
341.847	4.28
342.299	4.26
342.75	4.25
343.201	4.24
343.653	4.22
344.104	4.22
344.555	4.2
345.006	4.19
345.457	4.18
345.908	4.17
346.359	4.17
346.81	4.15
347.261	4.15
347.712	4.15
348.163	4.14
348.613	4.14
349.064	4.13
349.515	4.12
349.965	4.13
350.416	4.12
350.866	4.12
351.317	4.11
351.767	4.11
352.217	4.1
352.668	4.1
353.118	4.1
353.568	4.1
354.018	4.11
354.468	4.11
354.918	4.12
355.368	4.13
355.818	4.13
356.268	4.14
356.718	4.15
357.168	4.16
357.617	4.17
358.067	4.18
358.517	4.19
358.966	4.2
359.416	4.22
359.865	4.23
360.315	4.25
360.764	4.27
361.213	4.29
361.663	4.3
362.112	4.33
362.561	4.35
363.01	4.38
363.459	4.39
363.908	4.41
364.357	4.43
364.806	4.45
365.255	4.47
365.703	4.48
366.152	4.5
366.601	4.52
367.05	4.54
367.498	4.55
367.947	4.56
368.395	4.58
368.844	4.59
369.292	4.62
369.74	4.64
370.189	4.65
370.637	4.67
371.085	4.69
371.533	4.7
371.981	4.72
372.429	4.73
372.877	4.75
373.325	4.77
373.773	4.78
374.221	4.8
374.669	4.82
375.116	4.83
375.564	4.85
376.012	4.86
376.459	4.88
376.907	4.9
377.354	4.91
377.801	4.92
378.249	4.94
378.696	4.96
379.143	4.97
379.591	4.99
380.038	5.01
380.485	5.03
380.932	5.03
381.379	5.03
381.826	5.04
382.273	5.05
382.72	5.07
383.166	5.07
383.613	5.08
384.06	5.09
384.506	5.1
384.953	5.1
385.4	5.09
385.846	5.1
386.292	5.12
386.739	5.13
387.185	5.15
387.631	5.15
388.078	5.16
388.524	5.15
388.97	5.15
389.416	5.15
389.862	5.15
390.308	5.16
390.754	5.17
391.2	5.19
391.645	5.19
392.091	5.18
392.537	5.18
392.983	5.18
393.428	5.19
393.874	5.21
394.319	5.21
394.765	5.21
395.21	5.2
395.655	5.2
396.101	5.18
396.546	5.19
396.991	5.18
397.436	5.18
397.881	5.18
398.326	5.19
398.771	5.18
399.216	5.18
399.661	5.19
400.106	5.2
400.551	5.18
400.995	5.16
401.44	5.14
401.885	5.14
402.329	5.13
402.774	5.11
403.218	5.07
403.663	5.05
404.107	5.04
404.551	5.03
404.995	5
405.44	5
405.884	5
406.328	4.99
406.772	4.98
407.216	4.97
407.66	4.97
408.104	4.96
408.547	4.96
408.991	4.95
409.435	4.93
409.879	4.92
410.322	4.92
410.766	4.91
411.209	4.91
411.653	4.89
412.096	4.89
412.54	4.88
412.983	4.88
413.426	4.89
413.869	4.9
414.312	4.91
414.756	4.92
415.199	4.92
415.642	4.93
416.085	4.94
416.527	4.95
416.97	4.97
417.413	4.96
417.856	4.95
418.298	4.92
418.741	4.93
419.184	4.91
419.626	4.9
420.069	4.9
420.511	4.88
420.953	4.86
421.396	4.86
421.838	4.87
422.28	4.89
422.722	4.92
423.164	4.93
423.606	4.93
424.048	4.94
424.49	4.94
424.932	4.94
425.374	4.93
425.816	4.91
426.258	4.9
426.699	4.86
427.141	4.83
427.582	4.82
428.024	4.8
428.465	4.8
428.907	4.8
429.348	4.79
429.789	4.79
430.231	4.8
430.672	4.82
431.113	4.83
431.554	4.86
431.995	4.87
432.436	4.88
432.877	4.88
433.318	4.89
433.759	4.91
434.2	4.91
434.64	4.93
435.081	4.92
435.522	4.92
435.962	4.94
436.403	4.94
436.843	4.94
437.284	4.95
437.724	4.97
438.164	4.98
438.604	4.98
439.045	4.99
439.485	4.99
439.925	5.01
440.365	5.01
440.805	5
441.245	5
441.685	5.02
442.125	5.03
442.564	5.04
443.004	5.05
443.444	5.06
443.883	5.09
444.323	5.08
444.762	5.09
445.202	5.13
445.641	5.15
446.081	5.19
446.52	5.19
446.959	5.2
447.398	5.22
447.837	5.24
448.276	5.24
448.716	5.26
449.154	5.29
449.593	5.33
450.032	5.34
450.471	5.38
450.91	5.38
451.349	5.4
451.787	5.4
452.226	5.38
452.664	5.37
453.103	5.39
453.541	5.37
453.98	5.38
454.418	5.36
454.856	5.33
455.295	5.3
455.733	5.29
456.171	5.27
456.609	5.28
457.047	5.27
457.485	5.28
457.923	5.26
458.361	5.27
458.798	5.27
459.236	5.27
459.674	5.27
460.111	5.28
460.549	5.29
460.987	5.29
461.424	5.29
461.862	5.31
462.299	5.3
462.736	5.31
463.173	5.3
463.611	5.31
464.048	5.32
464.485	5.32
464.922	5.31
465.359	5.3
465.796	5.32
466.233	5.32
466.67	5.31
467.106	5.3
467.543	5.31
467.98	5.31
468.416	5.3
468.853	5.3
469.29	5.3
469.726	5.31
470.162	5.33
470.599	5.32
471.035	5.32
471.471	5.32
471.907	5.33
472.344	5.3
472.78	5.3
473.216	5.29
473.652	5.28
474.088	5.3
474.523	5.28
474.959	5.26
475.395	5.24
475.831	5.25
476.266	5.24
476.702	5.22
477.138	5.22
477.573	5.21
478.008	5.2
478.444	5.18
478.879	5.17
479.314	5.17
479.75	5.18
480.185	5.18
480.62	5.17
481.055	5.16
481.49	5.14
481.925	5.14
482.36	5.14
482.795	5.14
483.229	5.14
483.664	5.12
484.099	5.12
484.534	5.1
484.968	5.11
485.403	5.1
485.837	5.11
486.271	5.12
486.706	5.13
487.14	5.14
487.574	5.15
488.009	5.16
488.443	5.18
488.877	5.19
489.311	5.19
489.745	5.21
490.179	5.23
490.613	5.24
491.046	5.26
491.48	5.29
491.914	5.31
492.348	5.32
492.781	5.34
493.215	5.36
493.648	5.4
494.082	5.44
494.515	5.46
494.948	5.49
495.382	5.53
495.815	5.57
496.248	5.61
496.681	5.64
497.114	5.69
497.547	5.74
497.98	5.79
498.413	5.84
498.846	5.9
499.279	5.96
499.711	6.01
500.144	6.06
500.577	6.15
501.009	6.21
501.442	6.29
501.874	6.37
502.306	6.45
502.739	6.53
503.171	6.62
503.603	6.72
504.036	6.83
504.468	6.95
504.9	7.06
505.332	7.17
505.764	7.3
506.196	7.44
506.627	7.58
507.059	7.72
507.491	7.88
507.923	8.04
508.354	8.2
508.786	8.37
509.217	8.54
509.649	8.72
510.08	8.92
510.512	9.11
510.943	9.31
511.374	9.52
511.805	9.73
512.237	9.95
512.668	10.16
513.099	10.39
513.53	10.61
513.961	10.87
514.391	11.1
514.822	11.35
515.253	11.59
515.684	11.83
516.114	12.11
516.545	12.37
516.975	12.65
517.406	12.92
517.836	13.19
518.267	13.46
518.697	13.74
519.127	14.03
519.558	14.3
519.988	14.56
520.418	14.83
520.848	15.1
521.278	15.38
521.708	15.53
522.138	15.78
522.567	16.03
522.997	16.28
523.427	16.52
523.857	16.76
524.286	17.01
524.716	17.24
525.145	17.48
525.575	17.69
526.004	17.9
526.433	18.22
526.863	18.43
527.292	18.65
527.721	18.84
528.15	19.01
528.579	19.19
529.008	19.37
529.437	19.53
529.866	19.68
530.295	19.82
530.724	19.98
531.152	20.12
531.581	20.25
532.01	20.35
532.438	20.47
532.867	20.58
533.295	20.69
533.723	20.77
534.152	20.87
534.58	20.95
535.008	21.02
535.436	21.07
535.865	21.12
536.293	21.19
536.721	21.25
537.149	21.3
537.576	21.36
538.004	21.4
538.432	21.43
538.86	21.48
539.287	21.52
539.715	21.58
540.143	21.6
540.57	21.64
540.998	21.68
541.425	21.73
541.852	21.77
542.28	21.78
542.707	21.82
543.134	21.84
543.561	21.86
543.988	21.89
544.415	21.89
544.842	21.94
545.269	21.98
545.696	21.99
546.123	22.01
546.549	22.04
546.976	22.07
547.403	22.1
547.829	22.15
548.256	22.19
548.682	22.2
549.108	22.24
549.535	22.25
549.961	22.25
550.387	22.24
550.813	22.22
551.24	22.21
551.666	22.19
552.092	22.19
552.518	22.15
552.943	22.11
553.369	22.09
553.795	22.05
554.221	22.02
554.646	21.96
555.072	21.95
555.498	21.92
555.923	21.88
556.349	21.8
556.774	21.72
557.199	21.67
557.625	21.59
558.05	21.5
558.475	21.41
558.9	21.33
559.325	21.25
559.75	21.12
560.175	21.01
560.6	20.92
561.025	20.81
561.449	20.69
561.874	20.54
562.299	20.43
562.723	20.3
563.148	20.15
563.572	20
563.997	19.87
564.421	19.72
564.846	19.57
565.27	19.39
565.694	19.24
566.118	19.11
566.542	18.97
566.966	18.81
567.39	18.65
567.814	18.49
568.238	18.31
568.662	18.14
569.086	17.99
569.509	17.82
569.933	17.66
570.357	17.48
570.78	17.31
571.204	17.14
571.627	16.98
572.05	16.83
572.474	16.69
572.897	16.55
573.32	16.41
573.743	16.26
574.166	16.13
574.589	15.99
575.012	15.88
575.435	15.75
575.858	15.63
576.281	15.52
576.704	15.41
577.126	15.3
577.549	15.2
577.972	15.09
578.394	14.99
578.817	14.9
579.239	14.81
579.661	14.71
580.084	14.62
580.506	14.53
580.928	14.45
581.35	14.36
581.772	14.28
582.194	14.21
582.616	14.14
583.038	14.07
583.46	14.01
583.882	13.94
584.303	13.87
584.725	13.82
585.147	13.74
585.568	13.66
585.99	13.6
586.411	13.53
586.833	13.49
587.254	13.44
587.675	13.38
588.096	13.32
588.518	13.27
588.939	13.22
589.36	13.17
589.781	13.13
590.202	13.1
590.623	13.04
591.043	13
591.464	12.94
591.885	12.88
592.305	12.85
592.726	12.8
593.147	12.78
593.567	12.73
593.987	12.71
594.408	12.69
594.828	12.65
595.248	12.62
595.669	12.59
596.089	12.57
596.509	12.52
596.929	12.48
597.349	12.45
597.769	12.39
598.189	12.37
598.608	12.32
599.028	12.26
599.448	12.22
599.867	12.18
600.287	12.13
600.706	12.09
601.126	12.05
601.545	12.01
601.965	11.97
602.384	11.94
602.803	11.88
603.222	11.82
603.641	11.78
604.061	11.74
604.48	11.68
604.898	11.62
605.317	11.56
605.736	11.51
606.155	11.45
606.574	11.4
606.992	11.32
607.411	11.28
607.829	11.18
608.248	11.12
608.666	11.05
609.085	11
609.503	10.93
609.921	10.87
610.339	10.82
610.758	10.75
611.176	10.68
611.594	10.63
612.012	10.55
612.43	10.55
612.847	10.49
613.265	10.44
613.683	10.37
614.101	10.32
614.518	10.27
614.936	10.19
615.353	10.14
615.771	10.09
616.188	10.04
616.606	10
617.023	9.93
617.44	9.89
617.857	9.83
618.274	9.78
618.691	9.74
619.108	9.71
619.525	9.69
619.942	9.65
620.359	9.63
620.776	9.59
621.192	9.56
621.609	9.55
622.026	9.52
622.442	9.5
622.859	9.48
623.275	9.47
623.691	9.44
624.108	9.44
624.524	9.44
624.94	9.42
625.356	9.4
625.772	9.39
626.188	9.38
626.604	9.37
627.02	9.37
627.436	9.37
627.852	9.36
628.268	9.35
628.683	9.32
629.099	9.32
629.514	9.29
629.93	9.28
630.345	9.26
630.761	9.22
631.176	9.19
631.591	9.16
632.007	9.12
632.422	9.08
632.837	9.04
633.252	9
633.667	8.93
634.082	8.88
634.497	8.81
634.911	8.74
635.326	8.67
635.741	8.59
636.155	8.5
636.57	8.42
636.984	8.32
637.399	8.23
637.813	8.11
638.228	8.01
638.642	7.93
639.056	7.84
639.47	7.75
639.884	7.65
640.298	7.56
640.712	7.47
641.126	7.37
641.54	7.29
641.954	7.21
642.368	7.14
642.781	7.06
643.195	6.96
643.609	6.88
644.022	6.8
644.436	6.73
644.849	6.67
645.262	6.61
645.676	6.54
646.089	6.48
646.502	6.42
646.915	6.37
647.328	6.33
647.741	6.3
648.154	6.27
648.567	6.25
648.98	6.23
649.393	6.2
649.805	6.17
650.218	6.15
650.631	6.12
651.043	6.09
651.456	6.08
651.868	6.06
652.28	6.03
652.693	6
653.105	5.98
653.517	5.96
653.929	5.94
654.341	5.93
654.753	5.92
655.165	5.91
655.577	5.88
655.989	5.86
656.401	5.82
656.813	5.79
657.224	5.77
657.636	5.73
658.047	5.69
658.459	5.65
658.87	5.59
659.282	5.56
659.693	5.51
660.104	5.49
660.515	5.46
660.926	5.43
661.338	5.4
661.749	5.35
662.159	5.32
662.57	5.29
662.981	5.27
663.392	5.25
663.803	5.23
664.213	5.22
664.624	5.21
665.035	5.18
665.445	5.17
665.855	5.17
666.266	5.18
666.676	5.19
667.086	5.18
667.497	5.18
667.907	5.17
668.317	5.17
668.727	5.17
669.137	5.17
669.547	5.2
669.956	5.21
670.366	5.23
670.776	5.24
671.186	5.27
671.595	5.3
672.005	5.33
672.414	5.37
672.824	5.4
673.233	5.44
673.642	5.46
674.052	5.48
674.461	5.52
674.87	5.55
675.279	5.59
675.688	5.62
676.097	5.65
676.506	5.69
676.915	5.73
677.323	5.78
677.732	5.83
678.141	5.89
678.549	5.95
678.958	6.01
679.366	6.05
679.775	6.11
680.183	6.18
680.592	6.24
681	6.29
681.408	6.36
681.816	6.41
682.224	6.49
682.632	6.55
683.04	6.62
683.448	6.7
683.856	6.8
684.264	6.9
684.671	7.02
685.079	7.15
685.487	7.31
685.894	7.47
686.302	7.65
686.709	7.82
687.116	8.04
687.524	8.26
687.931	8.52
688.338	8.81
688.745	9.12
689.152	9.44
689.559	9.8
689.966	10.17
690.373	10.6
690.78	11.02
691.187	11.48
691.593	11.94
692	12.44
692.407	12.94
692.813	13.47
693.22	14.02
693.626	14.57
694.032	15.17
694.439	15.77
694.845	16.37
695.251	16.99
695.657	17.62
696.063	18.29
696.469	18.93
696.875	19.56
697.281	20.18
697.687	20.84
698.093	21.48
698.498	22.1
698.904	22.74
699.31	23.37
699.715	24
700.12	24.63
700.526	25.24
700.931	25.87
701.337	26.48
701.742	27.08
702.147	27.66
702.552	28.26
702.957	28.86
703.362	29.45
703.767	30.02
704.172	30.59
704.577	31.16
704.981	31.71
705.386	32.26
705.791	32.83
706.195	33.39
706.6	33.93
707.004	34.46
707.408	34.97
707.813	35.47
708.217	35.99
708.621	36.5
709.025	37.01
709.43	37.46
709.834	37.97
710.237	38.42
710.641	38.91
711.045	39.4
711.449	39.86
711.853	40.3
712.256	40.74
712.66	41.15
713.064	41.57
713.467	41.97
713.87	42.4
714.274	42.81
714.677	43.25
715.08	43.62
715.484	43.98
715.887	44.39
716.29	44.81
716.693	45.18
717.096	45.57
717.499	45.96
717.901	46.32
718.304	46.69
718.707	47.04
719.109	47.37
719.512	47.78
719.915	48.12
720.317	48.44
720.719	48.73
721.122	49.07
721.524	49.4
721.926	49.68
722.328	50.01
722.731	50.3
723.133	50.6
723.535	50.89
723.937	51.15
724.338	51.42
724.74	51.7
725.142	51.95
725.544	52.17
725.945	52.43
726.347	52.7
726.748	52.89
727.15	53.09
727.551	53.3
727.952	53.48
728.354	53.65
728.755	53.83
729.156	54.03
729.557	54.21
729.958	54.4
730.359	54.51
730.76	54.63
731.161	54.8
731.562	54.99
731.962	55.13
732.363	55.29
732.763	55.43
733.164	55.54
733.564	55.65
733.965	55.75
734.365	55.83
734.766	55.96
735.166	56.04
735.566	56.09
735.966	56.15
736.366	56.23
736.766	56.29
737.166	56.35
737.566	56.41
737.966	56.5
738.365	56.59
738.765	56.71
739.165	56.74
739.564	56.83
739.964	56.9
740.363	56.97
740.763	56.99
741.162	57.02
741.561	57.08
741.96	57.13
742.36	57.16
742.759	57.17
743.158	57.17
743.557	57.24
743.955	57.32
744.354	57.4
744.753	57.47
745.152	57.51
745.55	57.58
745.949	57.62
746.348	57.68
746.746	57.71
747.144	57.8
747.543	57.85
747.941	57.88
748.339	57.9
748.737	57.93
749.136	57.91
749.534	57.98
749.932	57.97
750.33	57.99
750.727	58.01
751.125	58.05
751.523	58.02
751.921	58.04
752.318	58.05
752.716	58.04
753.113	58.04
753.511	58.04
753.908	58.04
754.305	58.06
754.703	58.05
755.1	58.03
755.497	58.04
755.894	58.05
756.291	58.04
756.688	58.06
757.085	58.08
757.482	58.07
757.878	58.09
758.275	58.12
758.672	58.15
759.068	58.19
759.465	58.22
759.861	58.21
760.258	58.21
760.654	58.24
761.05	58.22
761.447	58.18
761.843	58.18
762.239	58.17
762.635	58.12
763.031	58.1
763.427	58.05
763.822	57.98
764.218	57.99
764.614	57.97
765.01	57.95
765.405	57.9
765.801	57.89
766.196	57.84
766.592	57.83
766.987	57.83
767.382	57.8
767.778	57.84
768.173	57.83
768.568	57.78
768.963	57.79
769.358	57.78
769.753	57.81
770.148	57.82
770.542	57.84
770.937	57.81
771.332	57.8
771.726	57.81
772.121	57.77
772.515	57.78
772.91	57.79
773.304	57.77
773.699	57.73
774.093	57.72
774.487	57.71
774.881	57.74
775.275	57.75
775.669	57.75
776.063	57.7
776.457	57.67
776.851	57.6
777.245	57.58
777.638	57.57
778.032	57.6
778.425	57.59
778.819	57.58
779.212	57.51
779.606	57.5
779.999	57.48
780.392	57.54
780.786	57.56
781.179	57.62
781.572	57.63
781.965	57.64
782.358	57.6
782.751	57.6
783.143	57.63
783.536	57.7
783.929	57.77
784.322	57.8
784.714	57.8
785.107	57.82
785.499	57.83
785.891	57.85
786.284	57.85
786.676	57.92
787.068	57.93
787.46	57.93
787.852	57.9
788.245	57.85
788.636	57.82
789.028	57.8
789.42	57.77
789.812	57.78
790.204	57.72
790.595	57.74
790.987	57.67
791.378	57.66
791.77	57.69
792.161	57.68
792.553	57.66
792.944	57.71
793.335	57.74
793.726	57.75
794.117	57.72
794.508	57.77
794.899	57.75
795.29	57.76
795.681	57.78
796.072	57.74
796.463	57.74
796.853	57.76
797.244	57.73
797.634	57.67
798.025	57.68
798.415	57.69
798.806	57.72
799.196	57.71
799.586	57.74
799.976	57.77
800.366	57.79
800.756	57.79
801.146	57.78
801.536	57.76
801.926	57.82
802.316	57.81
802.706	57.8
803.095	57.79
803.485	57.79
803.874	57.79
804.264	57.8
804.653	57.77
805.043	57.76
805.432	57.71
805.821	57.74
806.21	57.73
806.599	57.78
806.988	57.8
807.377	57.8
807.766	57.79
808.155	57.8
808.544	57.73
808.933	57.72
809.321	57.74
809.71	57.83
810.098	57.82
810.487	57.83
810.875	57.83
811.264	57.86
811.652	57.86
812.04	57.9
812.428	57.92
812.816	57.96
813.204	57.99
813.592	57.98
813.98	57.97
814.368	57.98
814.756	58
815.144	57.98
815.531	57.98
815.919	57.97
816.306	57.97
816.694	58.01
817.081	58.02
817.469	58.04
817.856	58.09
818.243	58.11
818.63	58.15
819.017	58.15
819.404	58.17
819.791	58.15
820.178	58.17
820.565	58.18
820.952	58.17
821.339	58.19
821.725	58.22
822.112	58.24
822.498	58.24
822.885	58.25
823.271	58.26
823.657	58.29
824.044	58.32
824.43	58.34
824.816	58.33
825.202	58.33
825.588	58.35
825.974	58.35
826.36	58.33
826.746	58.35
827.132	58.34
827.517	58.32
827.903	58.3
828.289	58.3
828.674	58.28
829.06	58.33
829.445	58.37
829.83	58.35
830.216	58.34
830.601	58.36
830.986	58.34
831.371	58.38
831.756	58.37
832.141	58.42
832.526	58.42
832.911	58.47
833.295	58.45
833.68	58.43
834.065	58.46
834.449	58.44
834.834	58.45
835.218	58.44
835.603	58.43
835.987	58.45
836.371	58.44
836.755	58.42
837.139	58.4
837.524	58.34
837.908	58.3
838.291	58.28
838.675	58.28
839.059	58.28
839.443	58.28
839.827	58.29
840.21	58.31
840.594	58.3
840.977	58.31
841.361	58.35
841.744	58.38
842.127	58.44
842.511	58.45
842.894	58.47
843.277	58.47
843.66	58.5
844.043	58.46
844.426	58.41
844.809	58.39
845.191	58.37
845.574	58.34
845.957	58.31
846.339	58.25
846.722	58.25
847.104	58.25
847.487	58.26
847.869	58.22
848.252	58.25
848.634	58.26
849.016	58.27
849.398	58.28
849.78	58.27
850.162	58.31
850.544	58.35
850.926	58.35
851.307	58.32
851.689	58.27
852.071	58.27
852.452	58.27
852.834	58.27
853.215	58.28
853.597	58.3
853.978	58.28
854.359	58.25
854.741	58.26
855.122	58.25
855.503	58.3
855.884	58.29
856.265	58.32
856.646	58.3
857.026	58.32
857.407	58.29
857.788	58.29
858.169	58.31
858.549	58.35
858.93	58.33
859.31	58.34
859.69	58.3
860.071	58.29
860.451	58.28
860.831	58.28
861.211	58.27
861.591	58.29
861.971	58.28
862.351	58.29
862.731	58.27
863.111	58.26
863.491	58.24
863.87	58.25
864.25	58.3
864.629	58.3
865.009	58.3
865.388	58.34
865.768	58.33
866.147	58.34
866.526	58.32
866.905	58.35
867.284	58.36
867.663	58.36
868.042	58.38
868.421	58.35
868.8	58.35
869.179	58.38
869.558	58.32
869.936	58.35
870.315	58.36
870.693	58.37
871.072	58.33
871.45	58.31
871.828	58.31
872.207	58.33
872.585	58.33
872.963	58.31
873.341	58.31
873.719	58.32
874.097	58.28
874.475	58.25
874.853	58.23
875.23	58.25
875.608	58.24
875.986	58.24
876.363	58.22
876.741	58.21
877.118	58.23
877.495	58.18
877.873	58.21
878.25	58.22
878.627	58.24
879.004	58.25
879.381	58.23
879.758	58.25
880.135	58.26
880.512	58.24
880.889	58.25
881.265	58.23
881.642	58.24
882.019	58.25
882.395	58.28
882.772	58.26
883.148	58.3
883.524	58.32
883.901	58.31
884.277	58.3
884.653	58.33
885.029	58.31
885.405	58.32
885.781	58.3
886.157	58.31
886.532	58.29
886.908	58.33
887.284	58.33
887.659	58.35
888.035	58.35
888.411	58.35
888.786	58.33
889.161	58.36
889.537	58.37
889.912	58.37
890.287	58.33
890.662	58.31
891.037	58.26
891.412	58.23
891.787	58.22
892.162	58.21
892.536	58.21
892.911	58.2
893.286	58.18
893.66	58.16
894.035	58.18
894.409	58.2
894.784	58.22
895.158	58.24
895.532	58.22
895.906	58.17
896.281	58.16
896.655	58.16
897.029	58.14
897.402	58.14
897.776	58.14
898.15	58.13
898.524	58.12
898.898	58.08
899.271	58.06
899.645	58.06
900.018	58.08
900.392	58.07
900.765	58.08
901.138	58.12
901.511	58.08
901.884	58.08
902.258	58.03
902.631	57.99
903.003	57.99
903.376	57.97
903.749	58.01
904.122	58
904.495	58
904.867	57.94
905.24	57.88
905.612	57.88
905.985	57.86
906.357	57.84
906.729	57.8
907.102	57.79
907.474	57.78
907.846	57.74
908.218	57.68
908.59	57.59
908.962	57.61
909.334	57.61
909.705	57.58
910.077	57.54
910.449	57.55
910.82	57.56
911.192	57.54
911.563	57.52
911.935	57.49
912.306	57.53
912.677	57.58
913.048	57.54
913.419	57.57
913.79	57.56
914.161	57.55
914.532	57.54
914.903	57.52
915.274	57.52
915.645	57.51
916.015	57.53
916.386	57.47
916.756	57.43
917.127	57.41
917.497	57.37
917.868	57.36
918.238	57.38
918.608	57.37
918.978	57.32
919.348	57.3
919.718	57.28
920.088	57.24
920.458	57.29
920.828	57.34
921.198	57.39
921.567	57.38
921.937	57.38
922.306	57.34
922.676	57.37
923.045	57.4
923.415	57.43
923.784	57.45
924.153	57.47
924.522	57.44
924.891	57.36
925.26	57.29
925.629	57.23
925.998	57.21
926.367	57.22
926.736	57.18
927.104	57.16
927.473	57.11
927.842	57.09
928.21	57.05
928.578	57.04
928.947	57.03
929.315	57.06
929.683	57.13
930.051	57.12
930.42	57.11
930.788	57.12
931.156	57.14
931.523	57.17
931.891	57.13
932.259	57.07
932.627	57.01
932.994	57.02
933.362	56.92
933.729	56.83
934.097	56.74
934.464	56.66
934.831	56.59
935.199	56.51
935.566	56.41
935.933	56.36
936.3	56.3
936.667	56.26
937.034	56.17
937.401	56.11
937.767	56.04
938.134	56.03
938.501	56.01
938.867	56
939.234	55.95
939.6	55.93
939.967	55.87
940.333	55.94
940.699	55.96
941.065	55.97
941.431	56.11
941.798	56.19
942.163	56.31
942.529	56.32
942.895	56.23
943.261	56.32
943.627	56.38
943.992	56.46
944.358	56.44
944.723	56.42
945.089	56.42
945.454	56.43
945.82	56.43
946.185	56.43
946.55	56.5
946.915	56.52
947.28	56.48
947.645	56.43
948.01	56.42
948.375	56.48
948.74	56.51
949.104	56.54
949.469	56.43
949.834	56.36
950.198	56.25
950.562	56.21
950.927	56.18
951.291	56.11
951.655	56.07
952.02	56.03
952.384	56
952.748	56.02
953.112	55.99
953.476	56.05
953.839	56.04
954.203	56.05
954.567	56.02
954.931	56.02
955.294	56.1
955.658	56.13
956.021	56.12
956.385	56.11
956.748	56.03
957.111	55.97
957.474	55.95
957.837	55.97
958.2	55.91
958.563	55.92
958.926	55.87
959.289	55.84
959.652	55.82
960.015	55.81
960.377	55.76
960.74	55.71
961.102	55.73
961.465	55.75
961.827	55.67
962.189	55.65
962.552	55.55
962.914	55.54
963.276	55.48
963.638	55.47
964	55.41
964.362	55.37
964.724	55.39
965.085	55.31
965.447	55.17
965.809	55.12
966.17	55.14
966.532	55.17
966.893	55.14
967.255	55.15
967.616	55.13
967.977	55.19
968.338	55.18
968.699	55.11
969.061	55.12
969.421	55.17
969.782	55.21
970.143	55.23
970.504	55.25
970.865	55.2
971.225	55.12
971.586	55.14
971.946	55.03
972.307	55.02
972.667	55.1
973.027	55.18
973.388	55.11
973.748	55.07
974.108	55.02
974.468	54.97
974.828	55.01
975.188	55.07
975.548	55.01
975.907	55.09
976.267	55.08
976.627	55.07
976.986	54.99
977.346	55.09
977.705	55.09
978.064	55.14
978.424	55.18
978.783	55.18
979.142	55.2
979.501	55.2
979.86	55.2
980.219	55.1
980.578	55.05
980.937	55.07
981.296	55.03
981.654	55.05
982.013	54.99
982.371	54.94
982.73	54.96
983.088	54.89
983.447	54.86
983.805	54.82
984.163	54.89
984.521	54.8
984.879	54.7
985.237	54.7
985.595	54.75
985.953	54.67
986.311	54.68
986.669	54.64
987.026	54.67
987.384	54.65
987.741	54.63
988.099	54.65
988.456	54.72
988.814	54.81
989.171	54.74
989.528	54.66
989.885	54.65
990.242	54.71
990.599	54.63
990.956	54.55
991.313	54.62
991.67	54.67
992.027	54.56
992.383	54.55
992.74	54.46
993.096	54.38
993.453	54.38
993.809	54.47
994.165	54.37
994.522	54.41
994.878	54.45
995.234	54.44
995.59	54.24
995.946	54.4
996.302	54.36
996.658	54.41
997.013	54.54
997.369	54.46
997.725	54.59
998.08	54.65
998.436	54.66
998.791	54.56
999.147	54.54
999.502	54.65
999.857	54.45
1000.212	54.45
1000.567	54.32
1000.922	54.29
1001.277	54.33
1001.632	54.29
1001.987	54.17
1002.342	54.11
1002.696	54.13
1003.051	53.9
1003.406	53.89
1003.76	53.88
1004.114	53.94
1004.469	53.97
1004.823	53.92
1005.177	54.02
1005.531	53.79
1005.885	53.94
1006.239	53.91
1006.593	53.89
1006.947	53.96
1007.301	53.97
1007.655	54.02
1008.008	53.77
1008.362	53.7
1008.715	53.6
1009.069	53.34
1009.422	53.31
1009.776	53.1
1010.129	52.94
1010.482	53.07
1010.835	53.25
1011.188	53.05
1011.541	52.79
1011.894	52.83
1012.247	52.8
1012.6	52.81
1012.952	52.9
1013.305	52.82
1013.657	53.02
1014.01	53.14
1014.362	53.11
1014.715	52.76
1015.067	52.7
1015.419	53.03
1015.771	53.18
1016.123	53.17
1016.475	53.36
1016.827	53.51
1017.179	53.56
1017.531	53.04
1017.883	52.96
1018.234	52.88
1018.586	52.74
1018.938	52.71
1019.289	52.58
1019.64	52.88
1019.992	53.01
1020.343	52.55
1020.694	52.29
1021.045	52.14
1021.396	52.45
1021.747	52.53
1022.098	52.38
1022.449	52.6
1022.8	52.67
1023.151	52.58
1023.501	52.2
1023.852	52.11
1024.202	52.23
1024.553	51.99
1024.903	51.87
1025.253	51.8
1025.604	51.84
1025.954	51.55
1026.304	51.94
1026.654	52.29
1027.004	52.55
1027.354	52.43
1027.703	52.1
1028.053	51.78
1028.403	52.11
1028.753	52.33
1029.102	52.1
1029.452	51.65
1029.801	51.77
1030.15	51.3
1030.499	50.9
897.758	580.27
901.051	586.25
904.343	592.6
907.636	583.64
910.928	574.83
914.22	583.38
917.511	569.46
920.803	546.7
924.094	523.16
927.384	525.96
930.675	511.32
933.965	505.81
937.255	507.6
940.544	485.33
943.834	465.34
947.123	458.38
950.411	437.16
953.7	428.14
956.988	416.67
960.276	399.99
963.563	395.62
966.851	373.85
970.138	368.08
973.424	343.57
976.711	337.12
979.997	327.51
983.283	319.28
986.568	308.12
989.853	301.28
993.138	289.39
996.423	284.99
999.708	275.35
1002.992	277.08
1006.275	267.94
1009.559	265.71
1012.842	258.71
1016.125	250.03
1019.408	245.68
1022.69	243.51
1025.972	242.36
1029.254	236.14
1032.536	232.83
1035.817	224.64
1039.098	221.63
1042.379	218.33
1045.659	215.08
1048.939	213.85
1052.219	209.18
1055.498	205.68
1058.778	202.76
1062.057	198.85
1065.335	198.88
1068.614	194.22
1071.892	193.75
1075.17	189.57
1078.447	186.57
1081.724	184.91
1085.001	181.29
1088.278	182.18
1091.554	180.75
1094.83	180.33
1098.106	176.45
1101.382	175.06
1104.657	174.96
1107.932	173.69
1111.206	173.12
1114.481	171.6
1117.755	171.08
1121.029	170.47
1124.302	167.64
1127.575	165.59
1130.848	164.04
1134.121	162.41
1137.393	161.83
1140.665	160.39
1143.937	158.82
1147.208	157.41
1150.48	155.53
1153.75	154.56
1157.021	153.05
1160.291	152.52
1163.561	152.47
1166.831	150.33
1170.101	150.66
1173.37	150.47
1176.639	149.14
1179.907	148.83
1183.176	148.08
1186.444	148.43
1189.711	147.2
1192.979	149
1196.246	148.46
1199.513	147.29
1202.78	148.21
1206.046	147.8
1209.312	147.28
1212.578	148.9
1215.843	150.87
1219.108	151.67
1222.373	153.63
1225.638	156.04
1228.902	158.27
1232.166	163.11
1235.43	166.11
1238.693	170.89
1241.956	174.2
1245.219	178.89
1248.482	179.19
1251.744	178.34
1255.006	180.11
1258.268	176.56
1261.529	174.88
1264.79	170.95
1268.051	167.27
1271.312	165.47
1274.572	162.04
1277.832	158.11
1281.092	156.96
1284.351	154.6
1287.61	154.44
1290.869	153.05
1294.128	152.42
1297.386	152
1300.644	151.02
1303.902	150.83
1307.159	151.22
1310.416	151.37
1313.673	154.01
1316.93	154.35
1320.186	156.38
1323.442	157.73
1326.697	160.76
1329.953	161.57
1333.208	166.77
1336.463	172.42
1339.717	175.56
1342.972	182.6
1346.226	188.35
1349.479	189.4
1352.733	196.63
1355.986	200.66
1359.238	205.52
1362.491	206.65
1365.743	214.56
1368.995	215.49
1372.247	216.69
1375.498	215.15
1378.749	222.4
1382	220.27
1385.251	219.3
1388.501	218.53
1391.751	221.94
1395	220.11
1398.25	221.27
1401.499	220.53
1404.748	219.38
1407.996	213.84
1411.244	214.98
1414.492	209.89
1417.74	203.12
1420.987	199.45
1424.234	195.3
1427.481	188.16
1430.728	182.68
1433.974	176.74
1437.22	170.72
1440.465	165.52
1443.711	160.29
1446.956	155.7
1450.201	149.62
1453.445	144.52
1456.689	140.87
1459.933	134.78
1463.177	129.22
1466.42	126.67
1469.663	123.16
1472.906	119.69
1476.148	116.73
1479.391	114.48
1482.633	112.3
1485.874	110.86
1489.115	109.78
1492.356	107.52
1495.597	106.89
1498.838	106.11
1502.078	105.43
1505.318	105.26
1508.557	104.07
1511.797	102.72
1515.036	102.84
1518.274	102.38
1521.513	101.13
1524.751	100.51
1527.989	101.54
1531.227	101.66
1534.464	101.5
1537.701	100.73
1540.938	100.34
1544.174	100.53
1547.41	101.32
1550.646	100.78
1553.882	101.07
1557.117	100.86
1560.352	101
1563.587	99.62
1566.821	99.68
1570.055	99.17
1573.289	99.6
1576.523	99.52
1579.756	99.47
1582.989	99.02
1586.222	98.97
1589.454	98.42
1592.686	98.77
1595.918	98.4
1599.15	98.73
1602.381	98.91
1605.612	99.13
1608.843	98.63
1612.073	99.42
1615.303	99.52
1618.533	99.3
1621.762	99.67
1624.992	99.22
1628.221	98.86
1631.449	100.01
1634.678	99.01
1637.906	99
1641.134	99
1644.361	99.27
1647.588	99.12
1650.815	99.27
1654.042	99.19
1657.269	99.15
1660.495	100.51
1663.72	100.03
1666.946	99.69
1670.171	100.92
1673.396	101.68
1676.621	101.93
1679.845	102.2
1683.069	101.6
1686.293	101.2
1689.517	101.36
1692.74	101.21
1695.963	101.45
1699.185	102.21
1702.408	102.25
1705.63	102.37
1708.852	102.2
1712.073	102.07
1715.294	101.74
1718.515	102.62
1721.736	103.26
1724.956	103.07
1728.176	103.06
1731.396	103.47
1734.616	103.19
1737.835	103.13
1741.054	102.8
1744.272	102.58
1747.491	102.65
1750.709	103.3
1753.927	103.14
1757.144	103.02
1760.361	103.97
1763.578	104.21
1766.795	104.33
1770.011	105
1773.227	105.56
1776.443	106.6
1779.658	106.61
1782.874	107.31
1786.089	107.43
1789.303	107.88
1792.518	108.57
1795.732	109.2
1798.945	110.81
1802.159	110.54
1805.372	111.86
1808.585	112.36
1811.797	112.42
1815.01	113.81
1818.222	114.53
1821.434	115.64
1824.645	115.87
1827.856	118.18
1831.067	118.03
1834.278	118.65
1837.488	119.84
1840.698	120.07
1843.908	120.4
1847.117	122.28
1850.326	122.45
1853.535	122.46
1856.744	123.68
1859.952	125.62
1863.16	124.99
1866.368	124.74
1869.575	125.28
1872.782	123.87
1875.989	123.32
1879.196	122.79
1882.402	120.81
1885.608	121.6
1888.814	121.88
1892.019	121.04
1895.224	118.52
1898.429	118.76
1901.634	120.12
1904.838	119.1
1908.042	120.27
1911.246	120.24
1914.449	120.99
1917.652	121.63
1920.855	121.83
1924.058	120.57
1927.26	120.56
1930.462	121.56
1933.664	121.85
1936.865	121.51
1940.066	120.34
1943.267	119.1
1946.467	120.72
1949.668	120.61
1952.868	121.76
1956.067	121.14
1959.267	122.81
1962.466	123.44
1965.665	124.18
1968.863	125.6
1972.061	125.16
1975.259	129.54
1978.457	130.34
1981.654	130.77
1984.852	131.71
1988.048	132.31
1991.245	134.93
1994.441	137.42
1997.637	139.98
2000.833	143.28
2004.028	143.56
2007.223	149.92
2010.418	152.07
2013.613	159.24
2016.807	163.14
2020.001	166.91
2023.194	171.45
2026.388	177.28
2029.581	185.07
2032.774	189.99
2035.966	195.41
2039.158	201.4
2042.35	202.97
2045.542	205.75
2048.733	214.8
2051.924	216.98
2055.115	218.44
2058.306	221.29
2061.496	224.56
2064.686	224.76
2067.875	224.38
2071.065	226.07
2074.254	227.62
2077.442	235.27
2080.631	238.18
2083.819	238.1
2087.007	242.6
2090.195	247.99
2093.382	248.65
2096.569	248.23
2099.756	253.54
2102.942	259.69
2106.128	266.11
2109.314	267.41
2112.5	267.07
2115.685	264.93
2118.87	265.07
2122.055	266.19
2125.239	272
2128.424	278.87
2131.608	276.54
2134.791	273.54
2137.974	276.36
2141.157	277.3
2144.34	280
2147.523	282.12
2150.705	289.64
2153.887	287.54
2157.068	291.86
2160.25	294.99
2163.431	291.88
2166.611	297.32
2169.792	305.94
2172.972	309.11
2176.152	309.15
2179.331	316.75
2182.511	317.93
2185.69	321.47
2188.868	336.65
2192.047	340.57
2195.225	343.54
2198.403	348.65
2201.58	345.77
2204.758	358.46
2207.935	359.24
2211.111	363.22
2214.288	364.04
2217.464	371.63
2220.64	372.74
2223.815	370.62
2226.991	369.07
2230.166	372.25
2233.34	385.13
2236.515	394.42
2239.689	390.02
2242.863	396.7
2246.036	395.88
2249.209	406.5
2252.382	404.16
2255.555	418.79
2258.727	420.54
2261.9	433.21
2265.071	440.82
2268.243	434.28
2271.414	450.47
2274.585	455.43
2277.756	456.49
2280.926	474.36
2284.096	471.84
2287.266	472.77
2290.436	466.54
2293.605	478.8
2296.774	495.56
2299.942	493.48
2303.111	507.64
2306.279	513.14
2309.447	517.02
2312.614	517.38
2315.781	528.92
2318.948	539.92
2322.115	552.42
2325.281	580.31
2328.447	572.96
2331.613	573.81
2334.779	583.93
2337.944	595.73
2341.109	607.3
2344.274	612.91
2347.438	637.2
2350.602	649.67
2353.766	680.86
2356.929	684.06
2360.092	692.43
2363.255	699.04
2366.418	711.86
2369.58	723.72
2372.742	720.79
2375.904	719.48
2379.066	738.2
2382.227	775.84
2385.388	769.73
2388.548	734.87
2391.709	726.1
2394.869	750.06
2398.029	752.34
2401.188	749.9
2404.347	769.33
2407.506	794.96
2410.665	771.49
2413.823	775.61
2416.981	773.1
2420.139	735.79
2423.296	797.34
2426.453	847.75
2429.61	808.76
2432.767	865
2435.923	897.29
2439.079	867.29
2442.235	889.35
2445.391	904.37
2448.546	896.58
2451.701	941.76
2454.855	1009.6
2458.009	890.82
2461.163	906.65
2464.317	905.96
2467.471	885.46
2470.624	914.7
2473.777	903.29
2476.929	876.06
2480.082	935.97
2483.234	978.98
2486.385	990.28
2489.537	1017.84
2492.688	1118.08
2495.839	1109.68
2498.989	1146.72
2502.14	1146.71
2505.29	1095.65
2508.439	1225.54
2511.589	1251.73
2514.738	1214.1
2517.887	1207.84
2521.035	1138.26
2524.183	1111.48
2527.331	1104.49
2530.479	1071.18
2533.627	1098.12
