Data from N_1_div_wi_4n_029_Splice17_20.txt Node
Date: Sat Feb 29 13:45:51 EST 2020
User: sa697716
Spectrometer: FLMS03696
Trigger mode: 0
Integration Time (sec): 3.180400E-1
Scans to average: 20
Electric dark correction enabled: true
Nonlinearity correction enabled: true
Boxcar width: 5
XAxis mode: Wavelengths
Number of Pixels in Spectrum: 2048
>>>>>Begin Spectral Data<<<<<
187.83	89.8
188.298	75.74
188.766	69.96
189.233	63.72
189.701	79.67
190.169	78.84
190.636	84.94
191.104	78.64
191.571	190.17
192.039	242.03
192.506	-289.51
192.974	2604.85
193.441	55.45
193.908	31.51
194.375	-43.91
194.842	123.56
195.31	75.01
195.777	37
196.244	31.5
196.711	35
197.177	35.08
197.644	36.69
198.111	36.67
198.578	35.87
199.045	36.18
199.511	36.33
199.978	36.92
200.445	37.02
200.911	37.72
201.378	38.14
201.844	38.8
202.31	39.24
202.777	39.71
203.243	40.23
203.709	40.85
204.176	40.68
204.642	40.94
205.108	40.15
205.574	40.33
206.04	40.07
206.506	39.43
206.972	39.45
207.438	39.56
207.903	39.64
208.369	39.24
208.835	39.09
209.301	39.65
209.766	39.49
210.232	40
210.697	39.71
211.163	39.65
211.628	39.5
212.094	39.01
212.559	38.63
213.024	38.17
213.49	37.91
213.955	37.56
214.42	36.76
214.885	36.32
215.35	35.75
215.815	35.22
216.28	34.86
216.745	34.48
217.21	33.87
217.675	33.31
218.14	32.59
218.604	31.91
219.069	31.51
219.534	31.18
219.998	30.81
220.463	30.45
220.927	30.19
221.392	29.84
221.856	29.52
222.32	29.21
222.785	28.92
223.249	28.67
223.713	28.47
224.177	28.19
224.642	27.92
225.106	27.66
225.57	27.4
226.034	27.12
226.497	26.86
226.961	26.57
227.425	26.33
227.889	26.08
228.353	25.83
228.816	25.58
229.28	25.3
229.744	25.07
230.207	24.86
230.671	24.6
231.134	24.37
231.597	24.13
232.061	23.93
232.524	23.73
232.987	23.53
233.45	23.32
233.914	23.12
234.377	22.93
234.84	22.73
235.303	22.52
235.766	22.35
236.229	22.2
236.691	22.03
237.154	21.85
237.617	21.67
238.08	21.52
238.542	21.35
239.005	21.19
239.468	21.04
239.93	20.91
240.393	20.75
240.855	20.6
241.317	20.43
241.78	20.32
242.242	20.2
242.704	20.08
243.166	19.93
243.629	19.81
244.091	19.7
244.553	19.59
245.015	19.48
245.477	19.4
245.939	19.3
246.4	19.21
246.862	19.1
247.324	19.01
247.786	18.92
248.247	18.86
248.709	18.76
249.17	18.66
249.632	18.57
250.093	18.48
250.555	18.38
251.016	18.31
251.477	18.24
251.939	18.18
252.4	18.1
252.861	18.04
253.322	17.97
253.783	17.94
254.244	17.92
254.705	17.87
255.166	17.83
255.627	17.8
256.088	17.76
256.549	17.73
257.009	17.67
257.47	17.63
257.931	17.57
258.391	17.53
258.852	17.48
259.312	17.43
259.773	17.4
260.233	17.36
260.694	17.32
261.154	17.29
261.614	17.26
262.074	17.24
262.534	17.21
262.994	17.2
263.455	17.17
263.915	17.16
264.374	17.13
264.834	17.12
265.294	17.1
265.754	17.09
266.214	17.07
266.673	17.06
267.133	17.04
267.593	17.03
268.052	17.02
268.512	17.01
268.971	17
269.431	17
269.89	16.99
270.349	16.99
270.809	16.99
271.268	16.98
271.727	16.98
272.186	16.98
272.645	16.96
273.104	16.96
273.563	16.95
274.022	16.93
274.481	16.92
274.94	16.9
275.399	16.89
275.857	16.88
276.316	16.86
276.775	16.83
277.233	16.81
277.692	16.79
278.15	16.76
278.609	16.73
279.067	16.69
279.525	16.66
279.984	16.64
280.442	16.61
280.9	16.58
281.358	16.53
281.816	16.51
282.274	16.48
282.732	16.45
283.19	16.43
283.648	16.42
284.106	16.41
284.564	16.4
285.021	16.37
285.479	16.36
285.937	16.33
286.394	16.32
286.852	16.31
287.309	16.3
287.767	16.29
288.224	16.28
288.682	16.25
289.139	16.23
289.596	16.19
290.053	16.16
290.511	16.13
290.968	16.11
291.425	16.08
291.882	16.04
292.339	16.01
292.796	15.98
293.252	15.95
293.709	15.93
294.166	15.92
294.623	15.9
295.079	15.88
295.536	15.86
295.992	15.83
296.449	15.81
296.905	15.79
297.362	15.78
297.818	15.76
298.274	15.74
298.731	15.72
299.187	15.69
299.643	15.67
300.099	15.64
300.555	15.61
301.011	15.61
301.467	15.6
301.923	15.58
302.379	15.56
302.835	15.54
303.291	15.52
303.746	15.51
304.202	15.5
304.658	15.48
305.113	15.47
305.569	15.46
306.024	15.45
306.479	15.42
306.935	15.41
307.39	15.41
307.845	15.39
308.301	15.39
308.756	15.37
309.211	15.36
309.666	15.34
310.121	15.33
310.576	15.31
311.031	15.31
311.486	15.31
311.94	15.29
312.395	15.28
312.85	15.27
313.305	15.26
313.759	15.26
314.214	15.24
314.668	15.24
315.123	15.25
315.577	15.25
316.032	15.23
316.486	15.22
316.94	15.21
317.394	15.18
317.849	15.17
318.303	15.15
318.757	15.12
319.211	15.09
319.665	15.07
320.119	15.04
320.572	15.02
321.026	14.98
321.48	14.98
321.934	14.96
322.387	14.95
322.841	14.93
323.295	14.93
323.748	14.91
324.202	14.91
324.655	14.89
325.108	14.88
325.562	14.87
326.015	14.86
326.468	14.83
326.921	14.81
327.374	14.78
327.827	14.75
328.28	14.73
328.733	14.71
329.186	14.69
329.639	14.69
330.092	14.68
330.545	14.67
330.997	14.66
331.45	14.67
331.903	14.65
332.355	14.65
332.808	14.67
333.26	14.67
333.713	14.68
334.165	14.67
334.617	14.68
335.069	14.68
335.522	14.68
335.974	14.67
336.426	14.66
336.878	14.67
337.33	14.67
337.782	14.66
338.234	14.65
338.686	14.64
339.137	14.65
339.589	14.63
340.041	14.62
340.493	14.59
340.944	14.59
341.396	14.58
341.847	14.55
342.299	14.52
342.75	14.49
343.201	14.46
343.653	14.43
344.104	14.39
344.555	14.36
345.006	14.33
345.457	14.32
345.908	14.29
346.359	14.28
346.81	14.28
347.261	14.28
347.712	14.26
348.163	14.25
348.613	14.22
349.064	14.21
349.515	14.21
349.965	14.21
350.416	14.19
350.866	14.2
351.317	14.19
351.767	14.17
352.217	14.16
352.668	14.18
353.118	14.17
353.568	14.18
354.018	14.19
354.468	14.18
354.918	14.18
355.368	14.18
355.818	14.15
356.268	14.16
356.718	14.16
357.168	14.15
357.617	14.13
358.067	14.12
358.517	14.12
358.966	14.13
359.416	14.13
359.865	14.14
360.315	14.13
360.764	14.15
361.213	14.15
361.663	14.15
362.112	14.17
362.561	14.18
363.01	14.2
363.459	14.2
363.908	14.21
364.357	14.21
364.806	14.21
365.255	14.22
365.703	14.23
366.152	14.24
366.601	14.24
367.05	14.24
367.498	14.25
367.947	14.26
368.395	14.28
368.844	14.29
369.292	14.29
369.74	14.3
370.189	14.32
370.637	14.31
371.085	14.32
371.533	14.34
371.981	14.35
372.429	14.36
372.877	14.38
373.325	14.4
373.773	14.41
374.221	14.45
374.669	14.47
375.116	14.48
375.564	14.52
376.012	14.54
376.459	14.57
376.907	14.61
377.354	14.64
377.801	14.68
378.249	14.72
378.696	14.75
379.143	14.77
379.591	14.81
380.038	14.85
380.485	14.88
380.932	14.91
381.379	14.94
381.826	14.97
382.273	14.99
382.72	15.01
383.166	15.04
383.613	15.06
384.06	15.09
384.506	15.11
384.953	15.12
385.4	15.15
385.846	15.16
386.292	15.2
386.739	15.21
387.185	15.23
387.631	15.26
388.078	15.28
388.524	15.28
388.97	15.3
389.416	15.31
389.862	15.32
390.308	15.33
390.754	15.35
391.2	15.35
391.645	15.37
392.091	15.39
392.537	15.39
392.983	15.41
393.428	15.44
393.874	15.45
394.319	15.46
394.765	15.45
395.21	15.44
395.655	15.45
396.101	15.44
396.546	15.45
396.991	15.44
397.436	15.43
397.881	15.42
398.326	15.41
398.771	15.43
399.216	15.44
399.661	15.47
400.106	15.49
400.551	15.49
400.995	15.46
401.44	15.44
401.885	15.42
402.329	15.43
402.774	15.4
403.218	15.4
403.663	15.37
404.107	15.38
404.551	15.36
404.995	15.37
405.44	15.35
405.884	15.35
406.328	15.33
406.772	15.35
407.216	15.35
407.66	15.35
408.104	15.34
408.547	15.33
408.991	15.29
409.435	15.28
409.879	15.26
410.322	15.26
410.766	15.27
411.209	15.27
411.653	15.25
412.096	15.23
412.54	15.22
412.983	15.2
413.426	15.22
413.869	15.22
414.312	15.22
414.756	15.23
415.199	15.21
415.642	15.21
416.085	15.22
416.527	15.25
416.97	15.27
417.413	15.25
417.856	15.23
418.298	15.18
418.741	15.16
419.184	15.17
419.626	15.12
420.069	15.1
420.511	15.08
420.953	15.06
421.396	15.03
421.838	15.02
422.28	15.03
422.722	15.05
423.164	15.05
423.606	15.06
424.048	15.03
424.49	15.06
424.932	15.07
425.374	15.06
425.816	15.04
426.258	15.02
426.699	14.98
427.141	14.94
427.582	14.91
428.024	14.91
428.465	14.9
428.907	14.93
429.348	14.92
429.789	14.93
430.231	14.92
430.672	14.95
431.113	14.95
431.554	14.97
431.995	15
432.436	15.02
432.877	15.01
433.318	15.01
433.759	14.99
434.2	14.97
434.64	14.94
435.081	14.94
435.522	14.93
435.962	14.94
436.403	14.96
436.843	14.97
437.284	14.99
437.724	15
438.164	15.01
438.604	15.04
439.045	15.02
439.485	15.03
439.925	15.05
440.365	15.03
440.805	15.02
441.245	15.02
441.685	15.02
442.125	15.02
442.564	15.03
443.004	15.04
443.444	15.03
443.883	15.05
444.323	15.06
444.762	15.08
445.202	15.13
445.641	15.16
446.081	15.2
446.52	15.19
446.959	15.23
447.398	15.25
447.837	15.28
448.276	15.28
448.716	15.3
449.154	15.31
449.593	15.32
450.032	15.31
450.471	15.32
450.91	15.29
451.349	15.31
451.787	15.28
452.226	15.26
452.664	15.23
453.103	15.23
453.541	15.22
453.98	15.21
454.418	15.19
454.856	15.17
455.295	15.15
455.733	15.15
456.171	15.12
456.609	15.13
457.047	15.11
457.485	15.11
457.923	15.11
458.361	15.09
458.798	15.1
459.236	15.1
459.674	15.1
460.111	15.08
460.549	15.06
460.987	15.06
461.424	15.04
461.862	15.05
462.299	15.03
462.736	15.02
463.173	15.01
463.611	14.99
464.048	14.98
464.485	14.95
464.922	14.96
465.359	14.97
465.796	14.97
466.233	14.99
466.67	14.98
467.106	14.97
467.543	14.98
467.98	15.01
468.416	15.03
468.853	15.03
469.29	15.06
469.726	15.06
470.162	15.05
470.599	15.04
471.035	15.06
471.471	15.05
471.907	15.06
472.344	15.05
472.78	15.02
473.216	15.01
473.652	14.99
474.088	15
474.523	15
474.959	14.97
475.395	14.96
475.831	14.94
476.266	14.93
476.702	14.91
477.138	14.89
477.573	14.87
478.008	14.85
478.444	14.84
478.879	14.81
479.314	14.78
479.75	14.79
480.185	14.78
480.62	14.76
481.055	14.76
481.49	14.74
481.925	14.74
482.36	14.72
482.795	14.69
483.229	14.67
483.664	14.65
484.099	14.65
484.534	14.62
484.968	14.59
485.403	14.57
485.837	14.54
486.271	14.54
486.706	14.54
487.14	14.55
487.574	14.56
488.009	14.57
488.443	14.56
488.877	14.55
489.311	14.55
489.745	14.55
490.179	14.57
490.613	14.58
491.046	14.59
491.48	14.59
491.914	14.59
492.348	14.6
492.781	14.6
493.215	14.61
493.648	14.63
494.082	14.66
494.515	14.67
494.948	14.68
495.382	14.69
495.815	14.69
496.248	14.7
496.681	14.7
497.114	14.7
497.547	14.73
497.98	14.75
498.413	14.77
498.846	14.79
499.279	14.81
499.711	14.81
500.144	14.83
500.577	14.85
501.009	14.86
501.442	14.9
501.874	14.94
502.306	14.97
502.739	14.99
503.171	15.03
503.603	15.07
504.036	15.12
504.468	15.19
504.9	15.27
505.332	15.35
505.764	15.43
506.196	15.49
506.627	15.57
507.059	15.65
507.491	15.75
507.923	15.84
508.354	15.94
508.786	16.04
509.217	16.13
509.649	16.24
510.08	16.36
510.512	16.49
510.943	16.64
511.374	16.79
511.805	16.93
512.237	17.07
512.668	17.21
513.099	17.38
513.53	17.54
513.961	17.73
514.391	17.89
514.822	18.05
515.253	18.22
515.684	18.37
516.114	18.54
516.545	18.71
516.975	18.91
517.406	19.1
517.836	19.29
518.267	19.48
518.697	19.67
519.127	19.86
519.558	20.06
519.988	20.27
520.418	20.47
520.848	20.68
521.278	20.9
521.708	20.98
522.138	21.16
522.567	21.36
522.997	21.56
523.427	21.74
523.857	21.93
524.286	22.11
524.716	22.29
525.145	22.5
525.575	22.68
526.004	22.85
526.433	23.15
526.863	23.32
527.292	23.48
527.721	23.63
528.15	23.81
528.579	23.97
529.008	24.1
529.437	24.25
529.866	24.34
530.295	24.47
530.724	24.61
531.152	24.74
531.581	24.87
532.01	24.96
532.438	25.05
532.867	25.14
533.295	25.23
533.723	25.35
534.152	25.43
534.58	25.52
535.008	25.57
535.436	25.63
535.865	25.68
536.293	25.73
536.721	25.81
537.149	25.88
537.576	25.94
538.004	25.99
538.432	26
538.86	26.03
539.287	26.09
539.715	26.13
540.143	26.17
540.57	26.21
540.998	26.24
541.425	26.27
541.852	26.29
542.28	26.29
542.707	26.32
543.134	26.35
543.561	26.34
543.988	26.35
544.415	26.37
544.842	26.37
545.269	26.4
545.696	26.41
546.123	26.42
546.549	26.44
546.976	26.49
547.403	26.51
547.829	26.53
548.256	26.56
548.682	26.58
549.108	26.59
549.535	26.6
549.961	26.59
550.387	26.59
550.813	26.59
551.24	26.6
551.666	26.59
552.092	26.59
552.518	26.57
552.943	26.56
553.369	26.55
553.795	26.52
554.221	26.49
554.646	26.48
555.072	26.44
555.498	26.38
555.923	26.34
556.349	26.26
556.774	26.19
557.199	26.14
557.625	26.06
558.05	25.97
558.475	25.89
558.9	25.8
559.325	25.72
559.75	25.62
560.175	25.53
560.6	25.41
561.025	25.33
561.449	25.23
561.874	25.12
562.299	25.03
562.723	24.93
563.148	24.8
563.572	24.7
563.997	24.57
564.421	24.47
564.846	24.35
565.27	24.22
565.694	24.09
566.118	23.95
566.542	23.82
566.966	23.68
567.39	23.55
567.814	23.43
568.238	23.29
568.662	23.16
569.086	23.03
569.509	22.91
569.933	22.78
570.357	22.63
570.78	22.5
571.204	22.37
571.627	22.25
572.05	22.14
572.474	22
572.897	21.87
573.32	21.76
573.743	21.64
574.166	21.52
574.589	21.4
575.012	21.32
575.435	21.2
575.858	21.1
576.281	21
576.704	20.91
577.126	20.82
577.549	20.74
577.972	20.67
578.394	20.57
578.817	20.49
579.239	20.44
579.661	20.38
580.084	20.31
580.506	20.24
580.928	20.17
581.35	20.11
581.772	20.06
582.194	19.98
582.616	19.92
583.038	19.88
583.46	19.8
583.882	19.74
584.303	19.69
584.725	19.65
585.147	19.58
585.568	19.51
585.99	19.47
586.411	19.41
586.833	19.37
587.254	19.32
587.675	19.26
588.096	19.24
588.518	19.19
588.939	19.14
589.36	19.1
589.781	19.08
590.202	19.07
590.623	19.01
591.043	18.98
591.464	18.95
591.885	18.93
592.305	18.92
592.726	18.87
593.147	18.84
593.567	18.8
593.987	18.79
594.408	18.75
594.828	18.71
595.248	18.71
595.669	18.69
596.089	18.66
596.509	18.61
596.929	18.55
597.349	18.53
597.769	18.49
598.189	18.47
598.608	18.43
599.028	18.4
599.448	18.38
599.867	18.33
600.287	18.29
600.706	18.24
601.126	18.21
601.545	18.19
601.965	18.14
602.384	18.12
602.803	18.06
603.222	18.03
603.641	17.98
604.061	17.94
604.48	17.91
604.898	17.86
605.317	17.82
605.736	17.79
606.155	17.74
606.574	17.69
606.992	17.64
607.411	17.6
607.829	17.51
608.248	17.47
608.666	17.41
609.085	17.36
609.503	17.29
609.921	17.24
610.339	17.18
610.758	17.13
611.176	17.08
611.594	17.03
612.012	16.98
612.43	16.97
612.847	16.92
613.265	16.89
613.683	16.85
614.101	16.79
614.518	16.74
614.936	16.71
615.353	16.67
615.771	16.64
616.188	16.61
616.606	16.57
617.023	16.53
617.44	16.5
617.857	16.46
618.274	16.42
618.691	16.42
619.108	16.38
619.525	16.36
619.942	16.33
620.359	16.31
620.776	16.28
621.192	16.26
621.609	16.23
622.026	16.19
622.442	16.17
622.859	16.16
623.275	16.13
623.691	16.12
624.108	16.09
624.524	16.07
624.94	16.05
625.356	16.05
625.772	16.05
626.188	16.05
626.604	16.02
627.02	16.01
627.436	16
627.852	15.99
628.268	15.98
628.683	15.96
629.099	15.95
629.514	15.93
629.93	15.88
630.345	15.83
630.761	15.81
631.176	15.79
631.591	15.77
632.007	15.72
632.422	15.69
632.837	15.66
633.252	15.62
633.667	15.57
634.082	15.53
634.497	15.47
634.911	15.41
635.326	15.35
635.741	15.28
636.155	15.21
636.57	15.14
636.984	15.05
637.399	14.96
637.813	14.88
638.228	14.81
638.642	14.74
639.056	14.68
639.47	14.62
639.884	14.56
640.298	14.51
640.712	14.43
641.126	14.37
641.54	14.31
641.954	14.28
642.368	14.23
642.781	14.17
643.195	14.1
643.609	14.06
644.022	14
644.436	13.95
644.849	13.92
645.262	13.89
645.676	13.84
646.089	13.81
646.502	13.75
646.915	13.71
647.328	13.69
647.741	13.66
648.154	13.64
648.567	13.62
648.98	13.61
649.393	13.58
649.805	13.56
650.218	13.55
650.631	13.54
651.043	13.54
651.456	13.52
651.868	13.51
652.28	13.5
652.693	13.48
653.105	13.46
653.517	13.44
653.929	13.43
654.341	13.42
654.753	13.4
655.165	13.39
655.577	13.36
655.989	13.34
656.401	13.3
656.813	13.29
657.224	13.27
657.636	13.26
658.047	13.23
658.459	13.21
658.87	13.19
659.282	13.18
659.693	13.15
660.104	13.14
660.515	13.12
660.926	13.13
661.338	13.1
661.749	13.06
662.159	13.04
662.57	13.02
662.981	13
663.392	12.97
663.803	12.95
664.213	12.94
664.624	12.93
665.035	12.92
665.445	12.91
665.855	12.9
666.266	12.91
666.676	12.91
667.086	12.92
667.497	12.92
667.907	12.93
668.317	12.94
668.727	12.95
669.137	12.95
669.547	12.97
669.956	12.97
670.366	12.98
670.776	12.99
671.186	13.01
671.595	13.01
672.005	13.03
672.414	13.04
672.824	13.05
673.233	13.06
673.642	13.08
674.052	13.1
674.461	13.12
674.87	13.14
675.279	13.16
675.688	13.17
676.097	13.21
676.506	13.22
676.915	13.24
677.323	13.28
677.732	13.33
678.141	13.36
678.549	13.4
678.958	13.44
679.366	13.47
679.775	13.51
680.183	13.55
680.592	13.6
681	13.63
681.408	13.67
681.816	13.69
682.224	13.72
682.632	13.77
683.04	13.8
683.448	13.84
683.856	13.9
684.264	13.96
684.671	14.03
685.079	14.12
685.487	14.22
685.894	14.33
686.302	14.46
686.709	14.58
687.116	14.7
687.524	14.86
687.931	15.02
688.338	15.21
688.745	15.42
689.152	15.64
689.559	15.86
689.966	16.14
690.373	16.43
690.78	16.73
691.187	17.06
691.593	17.4
692	17.78
692.407	18.18
692.813	18.58
693.22	19.01
693.626	19.44
694.032	19.89
694.439	20.34
694.845	20.81
695.251	21.3
695.657	21.81
696.063	22.33
696.469	22.83
696.875	23.36
697.281	23.91
697.687	24.47
698.093	25.03
698.498	25.58
698.904	26.14
699.31	26.7
699.715	27.26
700.12	27.84
700.526	28.4
700.931	28.97
701.337	29.52
701.742	30.06
702.147	30.61
702.552	31.15
702.957	31.69
703.362	32.27
703.767	32.8
704.172	33.34
704.577	33.85
704.981	34.38
705.386	34.91
705.791	35.42
706.195	35.93
706.6	36.43
707.004	36.92
707.408	37.42
707.813	37.9
708.217	38.37
708.621	38.87
709.025	39.37
709.43	39.82
709.834	40.32
710.237	40.77
710.641	41.29
711.045	41.75
711.449	42.23
711.853	42.66
712.256	43.11
712.66	43.57
713.064	44.01
713.467	44.43
713.87	44.88
714.274	45.32
714.677	45.75
715.08	46.13
715.484	46.55
715.887	46.98
716.29	47.38
716.693	47.75
717.096	48.15
717.499	48.52
717.901	48.9
718.304	49.25
718.707	49.61
719.109	49.99
719.512	50.38
719.915	50.71
720.317	51.08
720.719	51.43
721.122	51.78
721.524	52.12
721.926	52.46
722.328	52.78
722.731	53.09
723.133	53.37
723.535	53.68
723.937	53.94
724.338	54.24
724.74	54.46
725.142	54.68
725.544	54.94
725.945	55.18
726.347	55.4
726.748	55.6
727.15	55.81
727.551	56.05
727.952	56.23
728.354	56.46
728.755	56.65
729.156	56.85
729.557	57.09
729.958	57.27
730.359	57.46
730.76	57.63
731.161	57.83
731.562	58.02
731.962	58.18
732.363	58.36
732.763	58.51
733.164	58.63
733.564	58.75
733.965	58.89
734.365	59.01
734.766	59.12
735.166	59.19
735.566	59.3
735.966	59.38
736.366	59.44
736.766	59.51
737.166	59.54
737.566	59.6
737.966	59.69
738.365	59.75
738.765	59.84
739.165	59.9
739.564	60.02
739.964	60.07
740.363	60.16
740.763	60.23
741.162	60.27
741.561	60.4
741.96	60.47
742.36	60.56
742.759	60.62
743.158	60.65
743.557	60.68
743.955	60.74
744.354	60.79
744.753	60.86
745.152	60.88
745.55	60.96
745.949	60.98
746.348	61.05
746.746	61.07
747.144	61.15
747.543	61.2
747.941	61.27
748.339	61.29
748.737	61.37
749.136	61.38
749.534	61.48
749.932	61.51
750.33	61.55
750.727	61.59
751.125	61.62
751.523	61.6
751.921	61.61
752.318	61.62
752.716	61.62
753.113	61.6
753.511	61.59
753.908	61.56
754.305	61.5
754.703	61.46
755.1	61.42
755.497	61.42
755.894	61.44
756.291	61.42
756.688	61.39
757.085	61.41
757.482	61.44
757.878	61.43
758.275	61.46
758.672	61.53
759.068	61.55
759.465	61.56
759.861	61.55
760.258	61.55
760.654	61.58
761.05	61.59
761.447	61.59
761.843	61.54
762.239	61.5
762.635	61.46
763.031	61.44
763.427	61.41
763.822	61.39
764.218	61.37
764.614	61.32
765.01	61.27
765.405	61.24
765.801	61.21
766.196	61.2
766.592	61.23
766.987	61.2
767.382	61.19
767.778	61.19
768.173	61.2
768.568	61.19
768.963	61.17
769.358	61.18
769.753	61.17
770.148	61.17
770.542	61.14
770.937	61.11
771.332	61.15
771.726	61.13
772.121	61.1
772.515	61.08
772.91	61.06
773.304	61.1
773.699	61.08
774.093	61.05
774.487	61.06
774.881	61.07
775.275	61.09
775.669	61.09
776.063	61.05
776.457	61.05
776.851	61.02
777.245	61.04
777.638	61.01
778.032	61.02
778.425	61.03
778.819	61.04
779.212	61.05
779.606	61.03
779.999	60.99
780.392	61.02
780.786	61.03
781.179	61.05
781.572	61.02
781.965	61.05
782.358	61.03
782.751	61.04
783.143	61.03
783.536	61.06
783.929	61.09
784.322	61.11
784.714	61.1
785.107	61.12
785.499	61.12
785.891	61.17
786.284	61.14
786.676	61.17
787.068	61.17
787.46	61.16
787.852	61.14
788.245	61.13
788.636	61.12
789.028	61.12
789.42	61.08
789.812	61.09
790.204	61.05
790.595	61.05
790.987	61.03
791.378	61.04
791.77	61.07
792.161	61.1
792.553	61.09
792.944	61.11
793.335	61.1
793.726	61.11
794.117	61.08
794.508	61.09
794.899	61.1
795.29	61.12
795.681	61.11
796.072	61.1
796.463	61.04
796.853	61.03
797.244	61
797.634	61
798.025	61.02
798.415	61.01
798.806	61.03
799.196	61.01
799.586	61
799.976	60.99
800.366	60.98
800.756	61.01
801.146	61
801.536	61.02
801.926	61.02
802.316	61.04
802.706	61.07
803.095	61.08
803.485	61.09
803.874	61.1
804.264	61.16
804.653	61.13
805.043	61.11
805.432	61.1
805.821	61.07
806.21	61.11
806.599	61.11
806.988	61.12
807.377	61.09
807.766	61.1
808.155	61.12
808.544	61.06
808.933	61.12
809.321	61.16
809.71	61.2
810.098	61.24
810.487	61.24
810.875	61.21
811.264	61.23
811.652	61.27
812.04	61.28
812.428	61.3
812.816	61.34
813.204	61.35
813.592	61.35
813.98	61.34
814.368	61.33
814.756	61.31
815.144	61.37
815.531	61.34
815.919	61.33
816.306	61.33
816.694	61.33
817.081	61.32
817.469	61.34
817.856	61.4
818.243	61.43
818.63	61.5
819.017	61.52
819.404	61.47
819.791	61.49
820.178	61.51
820.565	61.53
820.952	61.51
821.339	61.55
821.725	61.55
822.112	61.53
822.498	61.53
822.885	61.52
823.271	61.54
823.657	61.58
824.044	61.59
824.43	61.61
824.816	61.61
825.202	61.61
825.588	61.58
825.974	61.57
826.36	61.56
826.746	61.59
827.132	61.59
827.517	61.59
827.903	61.56
828.289	61.56
828.674	61.52
829.06	61.55
829.445	61.6
829.83	61.62
830.216	61.62
830.601	61.59
830.986	61.54
831.371	61.54
831.756	61.53
832.141	61.53
832.526	61.54
832.911	61.56
833.295	61.55
833.68	61.51
834.065	61.52
834.449	61.53
834.834	61.53
835.218	61.55
835.603	61.56
835.987	61.55
836.371	61.59
836.755	61.58
837.139	61.58
837.524	61.56
837.908	61.55
838.291	61.51
838.675	61.52
839.059	61.52
839.443	61.5
839.827	61.46
840.21	61.48
840.594	61.47
840.977	61.44
841.361	61.44
841.744	61.46
842.127	61.49
842.511	61.5
842.894	61.49
843.277	61.49
843.66	61.51
844.043	61.51
844.426	61.48
844.809	61.46
845.191	61.46
845.574	61.42
845.957	61.37
846.339	61.32
846.722	61.32
847.104	61.3
847.487	61.31
847.869	61.31
848.252	61.26
848.634	61.29
849.016	61.29
849.398	61.32
849.78	61.35
850.162	61.36
850.544	61.39
850.926	61.36
851.307	61.38
851.689	61.34
852.071	61.37
852.452	61.41
852.834	61.4
853.215	61.39
853.597	61.38
853.978	61.35
854.359	61.35
854.741	61.31
855.122	61.33
855.503	61.34
855.884	61.36
856.265	61.31
856.646	61.29
857.026	61.29
857.407	61.27
857.788	61.32
858.169	61.33
858.549	61.36
858.93	61.38
859.31	61.34
859.69	61.3
860.071	61.3
860.451	61.31
860.831	61.34
861.211	61.32
861.591	61.32
861.971	61.26
862.351	61.27
862.731	61.25
863.111	61.27
863.491	61.31
863.87	61.32
864.25	61.36
864.629	61.34
865.009	61.33
865.388	61.32
865.768	61.31
866.147	61.33
866.526	61.31
866.905	61.3
867.284	61.27
867.663	61.25
868.042	61.25
868.421	61.21
868.8	61.21
869.179	61.21
869.558	61.2
869.936	61.18
870.315	61.16
870.693	61.18
871.072	61.2
871.45	61.18
871.828	61.19
872.207	61.21
872.585	61.23
872.963	61.22
873.341	61.25
873.719	61.25
874.097	61.29
874.475	61.29
874.853	61.28
875.23	61.28
875.608	61.32
875.986	61.32
876.363	61.28
876.741	61.26
877.118	61.26
877.495	61.22
877.873	61.21
878.25	61.17
878.627	61.15
879.004	61.14
879.381	61.13
879.758	61.08
880.135	61.07
880.512	61.06
880.889	61.09
881.265	61.1
881.642	61.09
882.019	61.14
882.395	61.16
882.772	61.16
883.148	61.15
883.524	61.17
883.901	61.17
884.277	61.14
884.653	61.17
885.029	61.14
885.405	61.1
885.781	61.07
886.157	61.02
886.532	60.98
886.908	61.03
887.284	61.04
887.659	61.03
888.035	61.04
888.411	61.03
888.786	61
889.161	61.02
889.537	61.04
889.912	61.04
890.287	61.03
890.662	61.06
891.037	61
891.412	60.97
891.787	60.95
892.162	60.93
892.536	60.96
892.911	60.95
893.286	60.9
893.66	60.9
894.035	60.89
894.409	60.87
894.784	60.88
895.158	60.89
895.532	60.87
895.906	60.83
896.281	60.81
896.655	60.77
897.029	60.76
897.402	60.77
897.776	60.76
898.15	60.73
898.524	60.72
898.898	60.67
899.271	60.65
899.645	60.67
900.018	60.65
900.392	60.68
900.765	60.68
901.138	60.67
901.511	60.67
901.884	60.65
902.258	60.68
902.631	60.72
903.003	60.74
903.376	60.74
903.749	60.72
904.122	60.76
904.495	60.74
904.867	60.73
905.24	60.72
905.612	60.67
905.985	60.65
906.357	60.6
906.729	60.56
907.102	60.54
907.474	60.5
907.846	60.5
908.218	60.45
908.59	60.38
908.962	60.37
909.334	60.36
909.705	60.35
910.077	60.34
910.449	60.39
910.82	60.35
911.192	60.32
911.563	60.32
911.935	60.25
912.306	60.26
912.677	60.3
913.048	60.29
913.419	60.25
913.79	60.22
914.161	60.21
914.532	60.14
914.903	60.14
915.274	60.12
915.645	60.13
916.015	60.17
916.386	60.14
916.756	60.08
917.127	60.08
917.497	60.09
917.868	60.1
918.238	60.1
918.608	60.1
918.978	60.07
919.348	60.05
919.718	60.04
920.088	60.05
920.458	60.13
920.828	60.14
921.198	60.14
921.567	60.14
921.937	60.15
922.306	60.13
922.676	60.17
923.045	60.14
923.415	60.18
923.784	60.14
924.153	60.13
924.522	60.03
924.891	60.04
925.26	60.01
925.629	60.01
925.998	60
926.367	59.98
926.736	59.95
927.104	59.97
927.473	59.95
927.842	59.92
928.21	59.91
928.578	59.9
928.947	59.86
929.315	59.84
929.683	59.81
930.051	59.77
930.42	59.79
930.788	59.73
931.156	59.67
931.523	59.62
931.891	59.57
932.259	59.47
932.627	59.37
932.994	59.32
933.362	59.27
933.729	59.18
934.097	59.14
934.464	59.09
934.831	59.03
935.199	58.97
935.566	58.87
935.933	58.89
936.3	58.8
936.667	58.79
937.034	58.75
937.401	58.67
937.767	58.62
938.134	58.5
938.501	58.36
938.867	58.36
939.234	58.39
939.6	58.42
939.967	58.42
940.333	58.6
940.699	58.7
941.065	58.8
941.431	58.9
941.798	59
942.163	59.17
942.529	59.28
942.895	59.32
943.261	59.39
943.627	59.47
943.992	59.49
944.358	59.47
944.723	59.34
945.089	59.37
945.454	59.4
945.82	59.39
946.185	59.44
946.55	59.56
946.915	59.61
947.28	59.58
947.645	59.58
948.01	59.57
948.375	59.55
948.74	59.59
949.104	59.64
949.469	59.58
949.834	59.57
950.198	59.38
950.562	59.25
950.927	59.18
951.291	59.1
951.655	59.06
952.02	59.05
952.384	59.05
952.748	59.09
953.112	58.96
953.476	58.91
953.839	58.84
954.203	58.82
954.567	58.76
954.931	58.75
955.294	58.76
955.658	58.72
956.021	58.66
956.385	58.63
956.748	58.59
957.111	58.59
957.474	58.58
957.837	58.63
958.2	58.6
958.563	58.6
958.926	58.5
959.289	58.45
959.652	58.4
960.015	58.35
960.377	58.29
960.74	58.23
961.102	58.18
961.465	58.19
961.827	58
962.189	58
962.552	58
962.914	58.02
963.276	58.02
963.638	58.02
964	58.04
964.362	58.07
964.724	58.13
965.085	58.16
965.447	58.11
965.809	58.16
966.17	58.17
966.532	58.09
966.893	58.01
967.255	58.01
967.616	57.96
967.977	57.9
968.338	57.85
968.699	57.72
969.061	57.58
969.421	57.62
969.782	57.65
970.143	57.61
970.504	57.62
970.865	57.62
971.225	57.61
971.586	57.63
971.946	57.68
972.307	57.74
972.667	57.84
973.027	57.96
973.388	57.82
973.748	57.83
974.108	57.83
974.468	57.86
974.828	57.92
975.188	57.96
975.548	57.92
975.907	57.95
976.267	57.85
976.627	57.76
976.986	57.72
977.346	57.86
977.705	57.88
978.064	57.9
978.424	57.84
978.783	57.83
979.142	57.77
979.501	57.73
979.86	57.75
980.219	57.67
980.578	57.68
980.937	57.72
981.296	57.65
981.654	57.71
982.013	57.75
982.371	57.78
982.73	57.73
983.088	57.67
983.447	57.74
983.805	57.76
984.163	57.83
984.521	57.66
984.879	57.7
985.237	57.73
985.595	57.65
985.953	57.56
986.311	57.64
986.669	57.67
987.026	57.71
987.384	57.67
987.741	57.63
988.099	57.61
988.456	57.8
988.814	57.78
989.171	57.67
989.528	57.55
989.885	57.59
990.242	57.48
990.599	57.5
990.956	57.48
991.313	57.48
991.67	57.43
992.027	57.43
992.383	57.38
992.74	57.3
993.096	57.31
993.453	57.47
993.809	57.59
994.165	57.66
994.522	57.57
994.878	57.57
995.234	57.55
995.59	57.43
995.946	57.44
996.302	57.33
996.658	57.31
997.013	57.36
997.369	57.23
997.725	57.07
998.08	57.09
998.436	57.17
998.791	57.22
999.147	57.28
999.502	57.36
999.857	57.3
1000.212	57.47
1000.567	57.5
1000.922	57.47
1001.277	57.53
1001.632	57.55
1001.987	57.51
1002.342	57.52
1002.696	57.5
1003.051	57.25
1003.406	57.29
1003.76	57.21
1004.114	57.18
1004.469	57.08
1004.823	57.11
1005.177	57.14
1005.531	56.97
1005.885	56.89
1006.239	56.88
1006.593	56.77
1006.947	56.89
1007.301	56.87
1007.655	56.84
1008.008	56.71
1008.362	56.7
1008.715	56.57
1009.069	56.39
1009.422	56.21
1009.776	56.13
1010.129	55.95
1010.482	56
1010.835	56.08
1011.188	56.03
1011.541	55.97
1011.894	55.96
1012.247	55.93
1012.6	55.89
1012.952	55.92
1013.305	56.19
1013.657	56.2
1014.01	56.45
1014.362	56.55
1014.715	56.35
1015.067	56.29
1015.419	56.43
1015.771	56.4
1016.123	56.52
1016.475	56.68
1016.827	56.82
1017.179	56.91
1017.531	56.86
1017.883	56.75
1018.234	56.75
1018.586	56.8
1018.938	56.72
1019.289	56.63
1019.64	56.95
1019.992	56.86
1020.343	56.8
1020.694	56.71
1021.045	56.63
1021.396	56.68
1021.747	56.45
1022.098	56.3
1022.449	56.13
1022.8	56.18
1023.151	56.17
1023.501	56.17
1023.852	56.39
1024.202	56.37
1024.553	56.38
1024.903	56.53
1025.253	56.72
1025.604	56.78
1025.954	56.57
1026.304	57.07
1026.654	57.19
1027.004	57.24
1027.354	56.74
1027.703	56.57
1028.053	56.24
1028.403	56.25
1028.753	56.22
1029.102	55.88
1029.452	55.83
1029.801	55.91
1030.15	55.54
1030.499	55.4
897.758	505.76
901.051	506.03
904.343	516
907.636	508.37
910.928	499.26
914.22	505.87
917.511	493.91
920.803	470.27
924.094	454.41
927.384	460.65
930.675	444.34
933.965	439.57
937.255	442.35
940.544	420.55
943.834	401.19
947.123	396.69
950.411	378.13
953.7	371.96
956.988	361.34
960.276	343.65
963.563	338.42
966.851	322.75
970.138	317.61
973.424	295.96
976.711	292.73
979.997	283.4
983.283	277.36
986.568	268.1
989.853	262.06
993.138	253.12
996.423	251.6
999.708	244.6
1002.992	244.68
1006.275	238.86
1009.559	236.12
1012.842	231.01
1016.125	224.09
1019.408	219.48
1022.69	218.68
1025.972	217.67
1029.254	212.12
1032.536	207.53
1035.817	200.95
1039.098	198.91
1042.379	194.57
1045.659	193.38
1048.939	190.9
1052.219	189.65
1055.498	186.06
1058.778	183.05
1062.057	178.38
1065.335	179.03
1068.614	175.39
1071.892	173.85
1075.17	170.8
1078.447	168.95
1081.724	168.1
1085.001	165.01
1088.278	163.96
1091.554	163.55
1094.83	161.87
1098.106	160.44
1101.382	159.15
1104.657	159.44
1107.932	158.95
1111.206	158.19
1114.481	156.43
1117.755	155.05
1121.029	154.72
1124.302	152.24
1127.575	150.23
1130.848	150.11
1134.121	147.84
1137.393	147.54
1140.665	146.54
1143.937	144.85
1147.208	143.27
1150.48	141.86
1153.75	140.73
1157.021	139.97
1160.291	139.67
1163.561	139.42
1166.831	138.5
1170.101	138.94
1173.37	137.08
1176.639	135.41
1179.907	135.27
1183.176	134.77
1186.444	134.97
1189.711	134.28
1192.979	134.96
1196.246	135.27
1199.513	134.76
1202.78	134.77
1206.046	135.01
1209.312	135.44
1212.578	136.72
1215.843	138.03
1219.108	139.39
1222.373	141.6
1225.638	143.41
1228.902	145.84
1232.166	148.9
1235.43	151.24
1238.693	154.66
1241.956	157.37
1245.219	161.72
1248.482	161.9
1251.744	162.43
1255.006	162.79
1258.268	158.71
1261.529	157.77
1264.79	153.55
1268.051	151.62
1271.312	150.2
1274.572	147.89
1277.832	143.72
1281.092	142.78
1284.351	140.66
1287.61	140.22
1290.869	138.72
1294.128	138.76
1297.386	138.2
1300.644	137.98
1303.902	136.93
1307.159	136.41
1310.416	136.39
1313.673	138.88
1316.93	139.12
1320.186	140.69
1323.442	141.9
1326.697	144.85
1329.953	144.83
1333.208	148.76
1336.463	154.1
1339.717	156.85
1342.972	161.88
1346.226	166.35
1349.479	168.08
1352.733	174.29
1355.986	178.53
1359.238	182.41
1362.491	182.85
1365.743	190.65
1368.995	191.17
1372.247	191.05
1375.498	190.72
1378.749	197
1382	194.95
1385.251	194.03
1388.501	191.85
1391.751	193.78
1395	191.58
1398.25	193.27
1401.499	191.14
1404.748	191.29
1407.996	185.12
1411.244	184.85
1414.492	182.01
1417.74	176.39
1420.987	172.82
1424.234	169.97
1427.481	163.07
1430.728	158.92
1433.974	153.42
1437.22	149.08
1440.465	143.55
1443.711	140.29
1446.956	135.24
1450.201	130.47
1453.445	125.49
1456.689	122.25
1459.933	118.6
1463.177	113
1466.42	111.48
1469.663	107.89
1472.906	104.61
1476.148	102.85
1479.391	100.85
1482.633	100.03
1485.874	98.3
1489.115	98.06
1492.356	95.52
1495.597	94.64
1498.838	95.28
1502.078	94.32
1505.318	94.44
1508.557	94.01
1511.797	92.81
1515.036	92.57
1518.274	92.53
1521.513	92.03
1524.751	90.93
1527.989	91.78
1531.227	91.35
1534.464	91
1537.701	90.85
1540.938	90.55
1544.174	90.78
1547.41	91.01
1550.646	90.66
1553.882	90.17
1557.117	90.04
1560.352	90.47
1563.587	89.57
1566.821	89.47
1570.055	89.38
1573.289	89.19
1576.523	89.28
1579.756	88.57
1582.989	88.77
1586.222	88.95
1589.454	88.94
1592.686	88.78
1595.918	88.63
1599.15	89.04
1602.381	89.15
1605.612	89.23
1608.843	88.62
1612.073	89.59
1615.303	90.09
1618.533	89.28
1621.762	90.13
1624.992	89.84
1628.221	89.73
1631.449	90.2
1634.678	89.81
1637.906	90.35
1641.134	90.18
1644.361	90.69
1647.588	90.03
1650.815	89.89
1654.042	90.38
1657.269	90.2
1660.495	91.07
1663.72	90.99
1666.946	90.86
1670.171	91.61
1673.396	92.02
1676.621	92.42
1679.845	92.92
1683.069	92.49
1686.293	92.26
1689.517	92.83
1692.74	92.46
1695.963	92.52
1699.185	92.94
1702.408	93.28
1705.63	93.18
1708.852	93.3
1712.073	92.97
1715.294	92.5
1718.515	93.25
1721.736	93.92
1724.956	93.68
1728.176	93.65
1731.396	93.82
1734.616	93.8
1737.835	93.77
1741.054	94.17
1744.272	92.95
1747.491	93.25
1750.709	93.75
1753.927	93.83
1757.144	93.96
1760.361	94.35
1763.578	94.67
1766.795	95.26
1770.011	94.97
1773.227	95.3
1776.443	95.58
1779.658	96.36
1782.874	96.71
1786.089	96.42
1789.303	96.58
1792.518	97.57
1795.732	97.96
1798.945	98.54
1802.159	98.5
1805.372	100.16
1808.585	100.53
1811.797	100.76
1815.01	101.74
1818.222	102.58
1821.434	103.77
1824.645	103.95
1827.856	104.84
1831.067	104.76
1834.278	106.21
1837.488	106.76
1840.698	107.36
1843.908	107.8
1847.117	109.2
1850.326	109.59
1853.535	109.71
1856.744	110.97
1859.952	112.1
1863.16	111.67
1866.368	111.98
1869.575	111.25
1872.782	110.15
1875.989	109.02
1879.196	108.46
1882.402	106.3
1885.608	107.14
1888.814	106.47
1892.019	106.22
1895.224	104.45
1898.429	104.52
1901.634	104.99
1904.838	105.54
1908.042	106.65
1911.246	106.47
1914.449	106.93
1917.652	107.51
1920.855	107.39
1924.058	106.76
1927.26	105.87
1930.462	107.05
1933.664	106.67
1936.865	106.41
1940.066	104.85
1943.267	103.56
1946.467	104.85
1949.668	104.83
1952.868	105.93
1956.067	105.56
1959.267	105.91
1962.466	106.36
1965.665	107.06
1968.863	108.69
1972.061	108.23
1975.259	111.79
1978.457	112.71
1981.654	114.1
1984.852	114.72
1988.048	115.7
1991.245	117.47
1994.441	120.48
1997.637	123.39
2000.833	124.86
2004.028	125.42
2007.223	129.8
2010.418	131.09
2013.613	138.64
2016.807	141.58
2020.001	144.48
2023.194	147.73
2026.388	152.45
2029.581	159.71
2032.774	164.26
2035.966	169.79
2039.158	174.87
2042.35	178.43
2045.542	181.62
2048.733	186.07
2051.924	187.07
2055.115	190.38
2058.306	193.14
2061.496	196.68
2064.686	198.67
2067.875	195.53
2071.065	197.78
2074.254	198.96
2077.442	203.64
2080.631	204.52
2083.819	205.04
2087.007	212.01
2090.195	214.43
2093.382	214.63
2096.569	214.5
2099.756	215.09
2102.942	221.68
2106.128	226.55
2109.314	226.07
2112.5	226.94
2115.685	225.85
2118.87	226.56
2122.055	226.65
2125.239	230.81
2128.424	236.59
2131.608	235.02
2134.791	234.58
2137.974	237.03
2141.157	237.95
2144.34	241.26
2147.523	244.09
2150.705	251.7
2153.887	250.13
2157.068	251.85
2160.25	256.72
2163.431	253.37
2166.611	259.91
2169.792	265.5
2172.972	267.86
2176.152	268.72
2179.331	275.49
2182.511	274.66
2185.69	278.86
2188.868	288.16
2192.047	292.25
2195.225	294.55
2198.403	300.77
2201.58	297.65
2204.758	307.36
2207.935	307.24
2211.111	312.23
2214.288	312.34
2217.464	317.92
2220.64	320.34
2223.815	321.56
2226.991	317.59
2230.166	321.13
2233.34	331.19
2236.515	336.05
2239.689	333.4
2242.863	338.53
2246.036	338.09
2249.209	345.66
2252.382	344.15
2255.555	355.01
2258.727	358.28
2261.9	370.23
2265.071	373.63
2268.243	369.03
2271.414	383.08
2274.585	391.13
2277.756	395.67
2280.926	406.55
2284.096	405.18
2287.266	410.9
2290.436	399.73
2293.605	409.59
2296.774	424.51
2299.942	422.55
2303.111	439.74
2306.279	444.61
2309.447	442.89
2312.614	445.57
2315.781	458.46
2318.948	467.85
2322.115	475
2325.281	499.4
2328.447	495.15
2331.613	498.16
2334.779	508.92
2337.944	512.84
2341.109	524.21
2344.274	531.86
2347.438	547.74
2350.602	555.04
2353.766	584.9
2356.929	588.03
2360.092	597.38
2363.255	600.91
2366.418	608.08
2369.58	621.76
2372.742	615.29
2375.904	612.23
2379.066	628.59
2382.227	657.87
2385.388	657.46
2388.548	631.95
2391.709	627.01
2394.869	644.79
2398.029	647.28
2401.188	652.51
2404.347	669.38
2407.506	698.18
2410.665	672.42
2413.823	675.34
2416.981	675.06
2420.139	640.41
2423.296	688.58
2426.453	730.14
2429.61	703.99
2432.767	747.38
2435.923	768.08
2439.079	745.22
2442.235	759.69
2445.391	778.61
2448.546	772.54
2451.701	816.99
2454.855	874.24
2458.009	768.61
2461.163	780.02
2464.317	782.86
2467.471	774.5
2470.624	795.42
2473.777	781.44
2476.929	755.76
2480.082	811.4
2483.234	845.26
2486.385	856.8
2489.537	877.16
2492.688	968.08
2495.839	961.93
2498.989	983.57
2502.14	978.47
2505.29	938.09
2508.439	1044.68
2511.589	1076.82
2514.738	1034.76
2517.887	1033.45
2521.035	970.38
2524.183	952.15
2527.331	946.46
2530.479	916.74
2533.627	943.67
