Data from N_1_hir_wi_4n_041_Splice17_04.txt Node
Date: Sat Feb 29 13:50:13 EST 2020
User: sa697716
Spectrometer: FLMS03696
Trigger mode: 0
Integration Time (sec): 3.180400E-1
Scans to average: 20
Electric dark correction enabled: true
Nonlinearity correction enabled: true
Boxcar width: 5
XAxis mode: Wavelengths
Number of Pixels in Spectrum: 2048
>>>>>Begin Spectral Data<<<<<
187.83	58.36
188.298	65.11
188.766	62.23
189.233	54.68
189.701	60.84
190.169	72.51
190.636	75.08
191.104	62.33
191.571	79.28
192.039	166.71
192.506	-98.42
192.974	-1071.81
193.441	23.65
193.908	57.23
194.375	-19.39
194.842	89.85
195.31	107.48
195.777	142.19
196.244	87.29
196.711	77.29
197.177	76.43
197.644	75.4
198.111	76.01
198.578	76.19
199.045	76.66
199.511	77.34
199.978	77.21
200.445	76.8
200.911	76.53
201.378	76.56
201.844	76.99
202.31	77.13
202.777	77.42
203.243	77.65
203.709	77.14
204.176	76.34
204.642	75.62
205.108	74.73
205.574	74.83
206.04	74.49
206.506	73.59
206.972	73.05
207.438	72.32
207.903	71.3
208.369	69.6
208.835	69.31
209.301	68.74
209.766	67.19
210.232	66
210.697	64.64
211.163	63.31
211.628	62.02
212.094	60.83
212.559	59.54
213.024	58.34
213.49	57.02
213.955	55.21
214.42	53.49
214.885	51.91
215.35	50
215.815	47.05
216.28	44.3
216.745	41.24
217.21	37.76
217.675	34.62
218.14	31.7
218.604	29.17
219.069	27.01
219.534	25.19
219.998	23.59
220.463	22.23
220.927	21.17
221.392	20.14
221.856	19.31
222.32	18.65
222.785	18.03
223.249	17.53
223.713	17.11
224.177	16.68
224.642	16.31
225.106	15.96
225.57	15.65
226.034	15.37
226.497	15.07
226.961	14.78
227.425	14.43
227.889	14.18
228.353	13.89
228.816	13.63
229.28	13.36
229.744	13.12
230.207	12.93
230.671	12.71
231.134	12.49
231.597	12.31
232.061	12.14
232.524	12.02
232.987	11.86
233.45	11.7
233.914	11.59
234.377	11.47
234.84	11.35
235.303	11.2
235.766	11.07
236.229	10.96
236.691	10.85
237.154	10.73
237.617	10.62
238.08	10.54
238.542	10.44
239.005	10.34
239.468	10.23
239.93	10.13
240.393	10.05
240.855	9.96
241.317	9.87
241.78	9.82
242.242	9.74
242.704	9.66
243.166	9.56
243.629	9.5
244.091	9.43
244.553	9.38
245.015	9.31
245.477	9.24
245.939	9.18
246.4	9.13
246.862	9.06
247.324	9.02
247.786	8.96
248.247	8.9
248.709	8.85
249.17	8.8
249.632	8.75
250.093	8.7
250.555	8.65
251.016	8.61
251.477	8.56
251.939	8.51
252.4	8.46
252.861	8.43
253.322	8.39
253.783	8.35
254.244	8.29
254.705	8.26
255.166	8.23
255.627	8.2
256.088	8.15
256.549	8.12
257.009	8.08
257.47	8.04
257.931	7.99
258.391	7.94
258.852	7.9
259.312	7.87
259.773	7.83
260.233	7.78
260.694	7.74
261.154	7.7
261.614	7.66
262.074	7.62
262.534	7.58
262.994	7.54
263.455	7.51
263.915	7.48
264.374	7.44
264.834	7.4
265.294	7.38
265.754	7.35
266.214	7.33
266.673	7.31
267.133	7.29
267.593	7.28
268.052	7.27
268.512	7.24
268.971	7.22
269.431	7.22
269.89	7.2
270.349	7.19
270.809	7.17
271.268	7.16
271.727	7.15
272.186	7.13
272.645	7.11
273.104	7.1
273.563	7.1
274.022	7.09
274.481	7.08
274.94	7.06
275.399	7.05
275.857	7.04
276.316	7.03
276.775	7
277.233	6.99
277.692	6.98
278.15	6.96
278.609	6.93
279.067	6.91
279.525	6.9
279.984	6.89
280.442	6.88
280.9	6.87
281.358	6.85
281.816	6.86
282.274	6.84
282.732	6.84
283.19	6.84
283.648	6.85
284.106	6.83
284.564	6.83
285.021	6.82
285.479	6.82
285.937	6.8
286.394	6.79
286.852	6.78
287.309	6.78
287.767	6.78
288.224	6.76
288.682	6.75
289.139	6.75
289.596	6.74
290.053	6.72
290.511	6.7
290.968	6.69
291.425	6.68
291.882	6.66
292.339	6.64
292.796	6.61
293.252	6.6
293.709	6.58
294.166	6.57
294.623	6.56
295.079	6.55
295.536	6.54
295.992	6.52
296.449	6.51
296.905	6.51
297.362	6.49
297.818	6.49
298.274	6.48
298.731	6.47
299.187	6.47
299.643	6.47
300.099	6.46
300.555	6.45
301.011	6.46
301.467	6.46
301.923	6.45
302.379	6.46
302.835	6.46
303.291	6.45
303.746	6.44
304.202	6.43
304.658	6.42
305.113	6.42
305.569	6.42
306.024	6.42
306.479	6.42
306.935	6.41
307.39	6.42
307.845	6.42
308.301	6.41
308.756	6.42
309.211	6.43
309.666	6.43
310.121	6.44
310.576	6.44
311.031	6.44
311.486	6.45
311.94	6.45
312.395	6.45
312.85	6.46
313.305	6.46
313.759	6.47
314.214	6.46
314.668	6.45
315.123	6.45
315.577	6.46
316.032	6.45
316.486	6.44
316.94	6.43
317.394	6.41
317.849	6.4
318.303	6.39
318.757	6.38
319.211	6.37
319.665	6.37
320.119	6.36
320.572	6.35
321.026	6.35
321.48	6.34
321.934	6.34
322.387	6.34
322.841	6.34
323.295	6.34
323.748	6.33
324.202	6.33
324.655	6.33
325.108	6.3
325.562	6.28
326.015	6.28
326.468	6.27
326.921	6.26
327.374	6.25
327.827	6.24
328.28	6.22
328.733	6.21
329.186	6.21
329.639	6.2
330.092	6.21
330.545	6.22
330.997	6.21
331.45	6.22
331.903	6.22
332.355	6.22
332.808	6.21
333.26	6.22
333.713	6.23
334.165	6.24
334.617	6.24
335.069	6.23
335.522	6.23
335.974	6.22
336.426	6.21
336.878	6.2
337.33	6.19
337.782	6.2
338.234	6.19
338.686	6.18
339.137	6.18
339.589	6.17
340.041	6.17
340.493	6.16
340.944	6.15
341.396	6.15
341.847	6.14
342.299	6.13
342.75	6.11
343.201	6.09
343.653	6.07
344.104	6.05
344.555	6.03
345.006	6
345.457	5.99
345.908	5.97
346.359	5.96
346.81	5.95
347.261	5.92
347.712	5.92
348.163	5.92
348.613	5.91
349.064	5.89
349.515	5.88
349.965	5.87
350.416	5.86
350.866	5.86
351.317	5.85
351.767	5.84
352.217	5.84
352.668	5.83
353.118	5.83
353.568	5.82
354.018	5.83
354.468	5.83
354.918	5.84
355.368	5.84
355.818	5.83
356.268	5.84
356.718	5.85
357.168	5.84
357.617	5.83
358.067	5.82
358.517	5.82
358.966	5.81
359.416	5.81
359.865	5.81
360.315	5.81
360.764	5.81
361.213	5.8
361.663	5.8
362.112	5.8
362.561	5.8
363.01	5.82
363.459	5.81
363.908	5.8
364.357	5.81
364.806	5.8
365.255	5.8
365.703	5.78
366.152	5.79
366.601	5.79
367.05	5.79
367.498	5.78
367.947	5.77
368.395	5.78
368.844	5.79
369.292	5.77
369.74	5.78
370.189	5.77
370.637	5.78
371.085	5.78
371.533	5.76
371.981	5.77
372.429	5.77
372.877	5.76
373.325	5.76
373.773	5.76
374.221	5.77
374.669	5.77
375.116	5.78
375.564	5.78
376.012	5.78
376.459	5.79
376.907	5.8
377.354	5.79
377.801	5.81
378.249	5.82
378.696	5.83
379.143	5.84
379.591	5.85
380.038	5.87
380.485	5.89
380.932	5.9
381.379	5.91
381.826	5.92
382.273	5.94
382.72	5.96
383.166	5.96
383.613	5.97
384.06	5.98
384.506	5.99
384.953	6.01
385.4	6.01
385.846	6.01
386.292	6.03
386.739	6.04
387.185	6.07
387.631	6.08
388.078	6.1
388.524	6.1
388.97	6.13
389.416	6.13
389.862	6.15
390.308	6.17
390.754	6.2
391.2	6.21
391.645	6.23
392.091	6.23
392.537	6.24
392.983	6.26
393.428	6.29
393.874	6.3
394.319	6.32
394.765	6.33
395.21	6.34
395.655	6.35
396.101	6.36
396.546	6.38
396.991	6.4
397.436	6.41
397.881	6.42
398.326	6.45
398.771	6.47
399.216	6.49
399.661	6.52
400.106	6.55
400.551	6.55
400.995	6.55
401.44	6.55
401.885	6.56
402.329	6.56
402.774	6.57
403.218	6.57
403.663	6.57
404.107	6.58
404.551	6.58
404.995	6.57
405.44	6.57
405.884	6.58
406.328	6.59
406.772	6.6
407.216	6.6
407.66	6.61
408.104	6.61
408.547	6.63
408.991	6.63
409.435	6.63
409.879	6.63
410.322	6.65
410.766	6.66
411.209	6.67
411.653	6.67
412.096	6.68
412.54	6.68
412.983	6.68
413.426	6.71
413.869	6.72
414.312	6.73
414.756	6.76
415.199	6.76
415.642	6.79
416.085	6.81
416.527	6.83
416.97	6.84
417.413	6.84
417.856	6.83
418.298	6.81
418.741	6.81
419.184	6.81
419.626	6.79
420.069	6.78
420.511	6.77
420.953	6.78
421.396	6.78
421.838	6.78
422.28	6.79
422.722	6.81
423.164	6.83
423.606	6.83
424.048	6.81
424.49	6.82
424.932	6.84
425.374	6.83
425.816	6.79
426.258	6.78
426.699	6.75
427.141	6.73
427.582	6.71
428.024	6.7
428.465	6.69
428.907	6.69
429.348	6.67
429.789	6.66
430.231	6.66
430.672	6.67
431.113	6.68
431.554	6.69
431.995	6.7
432.436	6.7
432.877	6.69
433.318	6.7
433.759	6.7
434.2	6.71
434.64	6.72
435.081	6.71
435.522	6.74
435.962	6.73
436.403	6.76
436.843	6.77
437.284	6.79
437.724	6.8
438.164	6.8
438.604	6.82
439.045	6.83
439.485	6.83
439.925	6.83
440.365	6.8
440.805	6.81
441.245	6.78
441.685	6.77
442.125	6.76
442.564	6.75
443.004	6.75
443.444	6.73
443.883	6.72
444.323	6.7
444.762	6.71
445.202	6.73
445.641	6.71
446.081	6.73
446.52	6.72
446.959	6.72
447.398	6.74
447.837	6.75
448.276	6.75
448.716	6.76
449.154	6.78
449.593	6.75
450.032	6.73
450.471	6.73
450.91	6.68
451.349	6.67
451.787	6.64
452.226	6.6
452.664	6.56
453.103	6.54
453.541	6.51
453.98	6.49
454.418	6.47
454.856	6.43
455.295	6.41
455.733	6.39
456.171	6.38
456.609	6.37
457.047	6.35
457.485	6.32
457.923	6.32
458.361	6.3
458.798	6.3
459.236	6.31
459.674	6.31
460.111	6.3
460.549	6.3
460.987	6.3
461.424	6.3
461.862	6.32
462.299	6.32
462.736	6.32
463.173	6.32
463.611	6.32
464.048	6.32
464.485	6.32
464.922	6.32
465.359	6.33
465.796	6.31
466.233	6.31
466.67	6.32
467.106	6.32
467.543	6.32
467.98	6.33
468.416	6.34
468.853	6.34
469.29	6.34
469.726	6.34
470.162	6.32
470.599	6.33
471.035	6.33
471.471	6.3
471.907	6.29
472.344	6.29
472.78	6.27
473.216	6.25
473.652	6.23
474.088	6.23
474.523	6.21
474.959	6.2
475.395	6.17
475.831	6.16
476.266	6.16
476.702	6.14
477.138	6.11
477.573	6.09
478.008	6.08
478.444	6.07
478.879	6.04
479.314	6.03
479.75	6.01
480.185	6
480.62	5.98
481.055	5.96
481.49	5.94
481.925	5.92
482.36	5.89
482.795	5.86
483.229	5.83
483.664	5.82
484.099	5.8
484.534	5.78
484.968	5.77
485.403	5.77
485.837	5.75
486.271	5.74
486.706	5.71
487.14	5.73
487.574	5.73
488.009	5.75
488.443	5.74
488.877	5.73
489.311	5.73
489.745	5.73
490.179	5.73
490.613	5.73
491.046	5.75
491.48	5.76
491.914	5.76
492.348	5.76
492.781	5.75
493.215	5.76
493.648	5.77
494.082	5.79
494.515	5.78
494.948	5.8
495.382	5.8
495.815	5.81
496.248	5.83
496.681	5.82
497.114	5.84
497.547	5.85
497.98	5.86
498.413	5.87
498.846	5.87
499.279	5.89
499.711	5.9
500.144	5.92
500.577	5.93
501.009	5.95
501.442	6
501.874	6.02
502.306	6.05
502.739	6.06
503.171	6.09
503.603	6.14
504.036	6.18
504.468	6.23
504.9	6.28
505.332	6.33
505.764	6.39
506.196	6.44
506.627	6.5
507.059	6.57
507.491	6.65
507.923	6.73
508.354	6.8
508.786	6.87
509.217	6.94
509.649	7.02
510.08	7.1
510.512	7.18
510.943	7.27
511.374	7.37
511.805	7.46
512.237	7.56
512.668	7.64
513.099	7.76
513.53	7.89
513.961	8.02
514.391	8.14
514.822	8.27
515.253	8.41
515.684	8.53
516.114	8.68
516.545	8.84
516.975	8.99
517.406	9.15
517.836	9.31
518.267	9.47
518.697	9.64
519.127	9.82
519.558	9.99
519.988	10.16
520.418	10.32
520.848	10.5
521.278	10.66
521.708	10.7
522.138	10.86
522.567	11.01
522.997	11.16
523.427	11.31
523.857	11.47
524.286	11.63
524.716	11.79
525.145	11.97
525.575	12.11
526.004	12.26
526.433	12.54
526.863	12.69
527.292	12.85
527.721	12.99
528.15	13.11
528.579	13.23
529.008	13.33
529.437	13.44
529.866	13.54
530.295	13.65
530.724	13.75
531.152	13.85
531.581	13.94
532.01	14.02
532.438	14.11
532.867	14.18
533.295	14.26
533.723	14.34
534.152	14.42
534.58	14.47
535.008	14.52
535.436	14.58
535.865	14.61
536.293	14.67
536.721	14.71
537.149	14.75
537.576	14.8
538.004	14.83
538.432	14.85
538.86	14.87
539.287	14.92
539.715	14.95
540.143	14.97
540.57	15.03
540.998	15.06
541.425	15.09
541.852	15.12
542.28	15.14
542.707	15.17
543.134	15.2
543.561	15.22
543.988	15.24
544.415	15.26
544.842	15.3
545.269	15.31
545.696	15.32
546.123	15.34
546.549	15.35
546.976	15.37
547.403	15.38
547.829	15.4
548.256	15.43
548.682	15.43
549.108	15.44
549.535	15.44
549.961	15.44
550.387	15.46
550.813	15.45
551.24	15.44
551.666	15.45
552.092	15.47
552.518	15.46
552.943	15.46
553.369	15.45
553.795	15.42
554.221	15.39
554.646	15.36
555.072	15.33
555.498	15.3
555.923	15.25
556.349	15.18
556.774	15.12
557.199	15.06
557.625	14.98
558.05	14.91
558.475	14.86
558.9	14.79
559.325	14.71
559.75	14.64
560.175	14.56
560.6	14.48
561.025	14.37
561.449	14.27
561.874	14.18
562.299	14.08
562.723	13.99
563.148	13.88
563.572	13.78
563.997	13.68
564.421	13.56
564.846	13.44
565.27	13.33
565.694	13.23
566.118	13.12
566.542	13.01
566.966	12.88
567.39	12.75
567.814	12.62
568.238	12.51
568.662	12.39
569.086	12.28
569.509	12.17
569.933	12.06
570.357	11.95
570.78	11.83
571.204	11.71
571.627	11.62
572.05	11.52
572.474	11.43
572.897	11.32
573.32	11.21
573.743	11.12
574.166	11.03
574.589	10.94
575.012	10.86
575.435	10.78
575.858	10.71
576.281	10.62
576.704	10.56
577.126	10.49
577.549	10.44
577.972	10.38
578.394	10.31
578.817	10.25
579.239	10.21
579.661	10.15
580.084	10.1
580.506	10.05
580.928	10
581.35	9.93
581.772	9.89
582.194	9.83
582.616	9.79
583.038	9.75
583.46	9.71
583.882	9.66
584.303	9.62
584.725	9.59
585.147	9.54
585.568	9.51
585.99	9.47
586.411	9.43
586.833	9.4
587.254	9.36
587.675	9.33
588.096	9.29
588.518	9.27
588.939	9.23
589.36	9.19
589.781	9.17
590.202	9.14
590.623	9.12
591.043	9.09
591.464	9.06
591.885	9.02
592.305	9.01
592.726	8.97
593.147	8.94
593.567	8.93
593.987	8.92
594.408	8.89
594.828	8.87
595.248	8.85
595.669	8.84
596.089	8.82
596.509	8.78
596.929	8.75
597.349	8.73
597.769	8.71
598.189	8.68
598.608	8.65
599.028	8.63
599.448	8.61
599.867	8.58
600.287	8.54
600.706	8.51
601.126	8.49
601.545	8.48
601.965	8.45
602.384	8.42
602.803	8.39
603.222	8.35
603.641	8.3
604.061	8.26
604.48	8.23
604.898	8.2
605.317	8.18
605.736	8.15
606.155	8.1
606.574	8.07
606.992	8.03
607.411	8
607.829	7.93
608.248	7.9
608.666	7.86
609.085	7.83
609.503	7.79
609.921	7.74
610.339	7.71
610.758	7.68
611.176	7.65
611.594	7.61
612.012	7.57
612.43	7.57
612.847	7.53
613.265	7.5
613.683	7.45
614.101	7.42
614.518	7.38
614.936	7.35
615.353	7.31
615.771	7.27
616.188	7.25
616.606	7.23
617.023	7.21
617.44	7.18
617.857	7.16
618.274	7.15
618.691	7.13
619.108	7.12
619.525	7.08
619.942	7.06
620.359	7.06
620.776	7.04
621.192	7.02
621.609	7
622.026	6.99
622.442	6.98
622.859	6.96
623.275	6.96
623.691	6.95
624.108	6.96
624.524	6.95
624.94	6.94
625.356	6.92
625.772	6.91
626.188	6.91
626.604	6.9
627.02	6.89
627.436	6.88
627.852	6.87
628.268	6.88
628.683	6.86
629.099	6.86
629.514	6.86
629.93	6.85
630.345	6.84
630.761	6.83
631.176	6.82
631.591	6.81
632.007	6.78
632.422	6.77
632.837	6.74
633.252	6.72
633.667	6.68
634.082	6.65
634.497	6.62
634.911	6.6
635.326	6.57
635.741	6.55
636.155	6.52
636.57	6.5
636.984	6.46
637.399	6.42
637.813	6.38
638.228	6.34
638.642	6.31
639.056	6.28
639.47	6.24
639.884	6.2
640.298	6.16
640.712	6.12
641.126	6.08
641.54	6.05
641.954	6.03
642.368	5.99
642.781	5.97
643.195	5.94
643.609	5.9
644.022	5.88
644.436	5.85
644.849	5.82
645.262	5.81
645.676	5.79
646.089	5.76
646.502	5.73
646.915	5.72
647.328	5.7
647.741	5.69
648.154	5.69
648.567	5.68
648.98	5.67
649.393	5.66
649.805	5.64
650.218	5.63
650.631	5.62
651.043	5.61
651.456	5.62
651.868	5.61
652.28	5.6
652.693	5.57
653.105	5.56
653.517	5.55
653.929	5.54
654.341	5.54
654.753	5.53
655.165	5.53
655.577	5.52
655.989	5.51
656.401	5.48
656.813	5.47
657.224	5.48
657.636	5.47
658.047	5.47
658.459	5.46
658.87	5.45
659.282	5.45
659.693	5.43
660.104	5.42
660.515	5.41
660.926	5.42
661.338	5.41
661.749	5.38
662.159	5.36
662.57	5.35
662.981	5.35
663.392	5.33
663.803	5.33
664.213	5.32
664.624	5.33
665.035	5.32
665.445	5.32
665.855	5.33
666.266	5.34
666.676	5.35
667.086	5.34
667.497	5.33
667.907	5.34
668.317	5.33
668.727	5.35
669.137	5.34
669.547	5.36
669.956	5.36
670.366	5.36
670.776	5.38
671.186	5.39
671.595	5.41
672.005	5.44
672.414	5.44
672.824	5.46
673.233	5.48
673.642	5.49
674.052	5.5
674.461	5.52
674.87	5.55
675.279	5.57
675.688	5.57
676.097	5.59
676.506	5.61
676.915	5.64
677.323	5.66
677.732	5.68
678.141	5.71
678.549	5.75
678.958	5.76
679.366	5.76
679.775	5.79
680.183	5.82
680.592	5.84
681	5.85
681.408	5.87
681.816	5.88
682.224	5.91
682.632	5.93
683.04	5.93
683.448	5.96
683.856	5.99
684.264	6.02
684.671	6.05
685.079	6.08
685.487	6.14
685.894	6.19
686.302	6.25
686.709	6.3
687.116	6.37
687.524	6.46
687.931	6.56
688.338	6.68
688.745	6.79
689.152	6.92
689.559	7.07
689.966	7.21
690.373	7.39
690.78	7.59
691.187	7.8
691.593	8.03
692	8.27
692.407	8.52
692.813	8.81
693.22	9.12
693.626	9.42
694.032	9.76
694.439	10.13
694.845	10.5
695.251	10.86
695.657	11.22
696.063	11.61
696.469	12.02
696.875	12.44
697.281	12.83
697.687	13.27
698.093	13.72
698.498	14.16
698.904	14.6
699.31	15.03
699.715	15.5
700.12	15.97
700.526	16.44
700.931	16.91
701.337	17.39
701.742	17.87
702.147	18.33
702.552	18.81
702.957	19.28
703.362	19.74
703.767	20.23
704.172	20.69
704.577	21.17
704.981	21.65
705.386	22.11
705.791	22.58
706.195	23.05
706.6	23.51
707.004	23.95
707.408	24.42
707.813	24.88
708.217	25.32
708.621	25.79
709.025	26.26
709.43	26.71
709.834	27.2
710.237	27.65
710.641	28.13
711.045	28.59
711.449	29.08
711.853	29.54
712.256	30.02
712.66	30.48
713.064	30.91
713.467	31.32
713.87	31.76
714.274	32.19
714.677	32.63
715.08	33.02
715.484	33.44
715.887	33.84
716.29	34.25
716.693	34.65
717.096	35.09
717.499	35.51
717.901	35.95
718.304	36.36
718.707	36.74
719.109	37.11
719.512	37.55
719.915	37.94
720.317	38.34
720.719	38.69
721.122	39.06
721.524	39.41
721.926	39.76
722.328	40.09
722.731	40.4
723.133	40.75
723.535	41.12
723.937	41.4
724.338	41.72
724.74	42.02
725.142	42.31
725.544	42.62
725.945	42.91
726.347	43.19
726.748	43.44
727.15	43.74
727.551	43.99
727.952	44.22
728.354	44.48
728.755	44.73
729.156	44.94
729.557	45.21
729.958	45.44
730.359	45.64
730.76	45.83
731.161	46.05
731.562	46.23
731.962	46.43
732.363	46.59
732.763	46.77
733.164	46.91
733.564	47.08
733.965	47.19
734.365	47.32
734.766	47.45
735.166	47.59
735.566	47.72
735.966	47.82
736.366	47.93
736.766	48.06
737.166	48.16
737.566	48.29
737.966	48.38
738.365	48.52
738.765	48.6
739.165	48.7
739.564	48.76
739.964	48.83
740.363	48.94
740.763	49.04
741.162	49.12
741.561	49.24
741.96	49.3
742.36	49.38
742.759	49.43
743.158	49.48
743.557	49.54
743.955	49.64
744.354	49.74
744.753	49.83
745.152	49.88
745.55	49.94
745.949	49.99
746.348	50.04
746.746	50.08
747.144	50.15
747.543	50.23
747.941	50.3
748.339	50.34
748.737	50.4
749.136	50.43
749.534	50.46
749.932	50.46
750.33	50.5
750.727	50.57
751.125	50.62
751.523	50.65
751.921	50.7
752.318	50.71
752.716	50.75
753.113	50.74
753.511	50.73
753.908	50.73
754.305	50.76
754.703	50.74
755.1	50.69
755.497	50.7
755.894	50.66
756.291	50.59
756.688	50.56
757.085	50.48
757.482	50.45
757.878	50.44
758.275	50.39
758.672	50.37
759.068	50.36
759.465	50.34
759.861	50.29
760.258	50.25
760.654	50.25
761.05	50.27
761.447	50.27
761.843	50.27
762.239	50.27
762.635	50.29
763.031	50.32
763.427	50.36
763.822	50.38
764.218	50.42
764.614	50.48
765.01	50.53
765.405	50.53
765.801	50.6
766.196	50.63
766.592	50.65
766.987	50.68
767.382	50.67
767.778	50.69
768.173	50.74
768.568	50.75
768.963	50.77
769.358	50.77
769.753	50.81
770.148	50.81
770.542	50.8
770.937	50.83
771.332	50.85
771.726	50.85
772.121	50.85
772.515	50.85
772.91	50.83
773.304	50.84
773.699	50.85
774.093	50.81
774.487	50.81
774.881	50.83
775.275	50.85
775.669	50.87
776.063	50.88
776.457	50.85
776.851	50.82
777.245	50.84
777.638	50.83
778.032	50.84
778.425	50.87
778.819	50.87
779.212	50.85
779.606	50.83
779.999	50.78
780.392	50.79
780.786	50.81
781.179	50.85
781.572	50.87
781.965	50.88
782.358	50.85
782.751	50.82
783.143	50.85
783.536	50.88
783.929	50.9
784.322	50.93
784.714	50.95
785.107	50.97
785.499	50.95
785.891	50.95
786.284	50.91
786.676	50.96
787.068	50.94
787.46	50.9
787.852	50.9
788.245	50.86
788.636	50.84
789.028	50.81
789.42	50.78
789.812	50.77
790.204	50.72
790.595	50.76
790.987	50.75
791.378	50.77
791.77	50.82
792.161	50.81
792.553	50.84
792.944	50.83
793.335	50.86
793.726	50.83
794.117	50.81
794.508	50.82
794.899	50.8
795.29	50.78
795.681	50.78
796.072	50.76
796.463	50.72
796.853	50.7
797.244	50.71
797.634	50.71
798.025	50.75
798.415	50.73
798.806	50.77
799.196	50.77
799.586	50.76
799.976	50.78
800.366	50.78
800.756	50.79
801.146	50.8
801.536	50.77
801.926	50.73
802.316	50.72
802.706	50.75
803.095	50.73
803.485	50.76
803.874	50.75
804.264	50.74
804.653	50.69
805.043	50.68
805.432	50.67
805.821	50.64
806.21	50.68
806.599	50.7
806.988	50.68
807.377	50.68
807.766	50.63
808.155	50.66
808.544	50.63
808.933	50.63
809.321	50.62
809.71	50.61
810.098	50.6
810.487	50.55
810.875	50.5
811.264	50.49
811.652	50.45
812.04	50.43
812.428	50.39
812.816	50.38
813.204	50.38
813.592	50.37
813.98	50.35
814.368	50.37
814.756	50.36
815.144	50.4
815.531	50.38
815.919	50.35
816.306	50.37
816.694	50.4
817.081	50.37
817.469	50.39
817.856	50.4
818.243	50.39
818.63	50.41
819.017	50.42
819.404	50.38
819.791	50.37
820.178	50.4
820.565	50.4
820.952	50.38
821.339	50.43
821.725	50.42
822.112	50.43
822.498	50.45
822.885	50.44
823.271	50.45
823.657	50.44
824.044	50.47
824.43	50.48
824.816	50.45
825.202	50.41
825.588	50.43
825.974	50.44
826.36	50.4
826.746	50.44
827.132	50.4
827.517	50.38
827.903	50.38
828.289	50.38
828.674	50.39
829.06	50.43
829.445	50.49
829.83	50.44
830.216	50.43
830.601	50.42
830.986	50.38
831.371	50.42
831.756	50.41
832.141	50.45
832.526	50.43
832.911	50.42
833.295	50.38
833.68	50.34
834.065	50.37
834.449	50.34
834.834	50.34
835.218	50.31
835.603	50.29
835.987	50.29
836.371	50.27
836.755	50.27
837.139	50.26
837.524	50.25
837.908	50.22
838.291	50.18
838.675	50.22
839.059	50.23
839.443	50.24
839.827	50.24
840.21	50.26
840.594	50.26
840.977	50.28
841.361	50.27
841.744	50.31
842.127	50.34
842.511	50.35
842.894	50.29
843.277	50.29
843.66	50.29
844.043	50.28
844.426	50.28
844.809	50.26
845.191	50.21
845.574	50.19
845.957	50.13
846.339	50.13
846.722	50.13
847.104	50.16
847.487	50.17
847.869	50.17
848.252	50.15
848.634	50.14
849.016	50.15
849.398	50.17
849.78	50.17
850.162	50.18
850.544	50.2
850.926	50.18
851.307	50.18
851.689	50.15
852.071	50.17
852.452	50.19
852.834	50.16
853.215	50.14
853.597	50.14
853.978	50.13
854.359	50.12
854.741	50.1
855.122	50.07
855.503	50.07
855.884	50.08
856.265	50.05
856.646	50.01
857.026	50.03
857.407	50.01
857.788	50
858.169	50
858.549	50.03
858.93	50.05
859.31	50.06
859.69	50.05
860.071	50.04
860.451	50.02
860.831	50.04
861.211	50.03
861.591	50.07
861.971	50.05
862.351	50.06
862.731	50.02
863.111	50
863.491	50.02
863.87	50.03
864.25	50.04
864.629	50.05
865.009	50.05
865.388	50.04
865.768	50.05
866.147	50.06
866.526	50.03
866.905	50.07
867.284	50.06
867.663	50.05
868.042	50.01
868.421	49.99
868.8	49.98
869.179	49.99
869.558	49.99
869.936	49.97
870.315	49.98
870.693	50
871.072	49.97
871.45	49.96
871.828	49.95
872.207	49.98
872.585	49.95
872.963	49.93
873.341	49.92
873.719	49.92
874.097	49.93
874.475	49.92
874.853	49.89
875.23	49.9
875.608	49.9
875.986	49.89
876.363	49.9
876.741	49.93
877.118	49.93
877.495	49.93
877.873	49.92
878.25	49.91
878.627	49.92
879.004	49.93
879.381	49.95
879.758	49.93
880.135	49.94
880.512	49.93
880.889	49.94
881.265	49.97
881.642	49.97
882.019	49.95
882.395	49.94
882.772	49.9
883.148	49.92
883.524	49.91
883.901	49.92
884.277	49.93
884.653	49.92
885.029	49.89
885.405	49.86
885.781	49.82
886.157	49.84
886.532	49.83
886.908	49.85
887.284	49.85
887.659	49.85
888.035	49.85
888.411	49.82
888.786	49.83
889.161	49.83
889.537	49.84
889.912	49.84
890.287	49.84
890.662	49.82
891.037	49.79
891.412	49.75
891.787	49.74
892.162	49.73
892.536	49.73
892.911	49.7
893.286	49.68
893.66	49.69
894.035	49.72
894.409	49.73
894.784	49.72
895.158	49.72
895.532	49.7
895.906	49.69
896.281	49.66
896.655	49.64
897.029	49.64
897.402	49.66
897.776	49.62
898.15	49.6
898.524	49.54
898.898	49.51
899.271	49.51
899.645	49.55
900.018	49.55
900.392	49.57
900.765	49.63
901.138	49.62
901.511	49.61
901.884	49.61
902.258	49.62
902.631	49.64
903.003	49.67
903.376	49.69
903.749	49.7
904.122	49.69
904.495	49.68
904.867	49.59
905.24	49.57
905.612	49.53
905.985	49.49
906.357	49.44
906.729	49.43
907.102	49.43
907.474	49.42
907.846	49.4
908.218	49.38
908.59	49.37
908.962	49.37
909.334	49.36
909.705	49.38
910.077	49.41
910.449	49.46
910.82	49.43
911.192	49.42
911.563	49.39
911.935	49.37
912.306	49.38
912.677	49.39
913.048	49.39
913.419	49.41
913.79	49.38
914.161	49.38
914.532	49.36
914.903	49.37
915.274	49.36
915.645	49.37
916.015	49.38
916.386	49.37
916.756	49.35
917.127	49.4
917.497	49.41
917.868	49.42
918.238	49.42
918.608	49.43
918.978	49.41
919.348	49.41
919.718	49.39
920.088	49.41
920.458	49.45
920.828	49.47
921.198	49.47
921.567	49.43
921.937	49.49
922.306	49.48
922.676	49.47
923.045	49.48
923.415	49.51
923.784	49.54
924.153	49.55
924.522	49.5
924.891	49.48
925.26	49.45
925.629	49.48
925.998	49.45
926.367	49.44
926.736	49.48
927.104	49.49
927.473	49.48
927.842	49.43
928.21	49.44
928.578	49.43
928.947	49.43
929.315	49.42
929.683	49.37
930.051	49.34
930.42	49.36
930.788	49.33
931.156	49.33
931.523	49.33
931.891	49.3
932.259	49.21
932.627	49.17
932.994	49.15
933.362	49.11
933.729	49.1
934.097	49.07
934.464	49
934.831	48.99
935.199	48.96
935.566	48.91
935.933	48.96
936.3	48.98
936.667	49.04
937.034	49.09
937.401	49.15
937.767	49.21
938.134	49.26
938.501	49.29
938.867	49.37
939.234	49.48
939.6	49.49
939.967	49.53
940.333	49.65
940.699	49.69
941.065	49.73
941.431	49.77
941.798	49.88
942.163	49.99
942.529	50.05
942.895	50.08
943.261	50.04
943.627	50.14
943.992	50.24
944.358	50.19
944.723	50.25
945.089	50.27
945.454	50.35
945.82	50.21
946.185	50.16
946.55	50.27
946.915	50.24
947.28	50.18
947.645	50.18
948.01	50.16
948.375	50.27
948.74	50.17
949.104	50.14
949.469	50
949.834	49.98
950.198	49.95
950.562	49.84
950.927	49.75
951.291	49.73
951.655	49.69
952.02	49.56
952.384	49.52
952.748	49.56
953.112	49.53
953.476	49.52
953.839	49.49
954.203	49.47
954.567	49.47
954.931	49.48
955.294	49.47
955.658	49.39
956.021	49.37
956.385	49.31
956.748	49.26
957.111	49.21
957.474	49.26
957.837	49.29
958.2	49.21
958.563	49.16
958.926	49.11
959.289	49.11
959.652	49.14
960.015	49.17
960.377	49.16
960.74	49.14
961.102	49.1
961.465	49.09
961.827	49.03
962.189	49.03
962.552	48.99
962.914	48.95
963.276	48.9
963.638	48.85
964	48.82
964.362	48.78
964.724	48.78
965.085	48.8
965.447	48.71
965.809	48.61
966.17	48.63
966.532	48.64
966.893	48.69
967.255	48.68
967.616	48.69
967.977	48.66
968.338	48.6
968.699	48.61
969.061	48.54
969.421	48.55
969.782	48.7
970.143	48.68
970.504	48.66
970.865	48.63
971.225	48.65
971.586	48.71
971.946	48.7
972.307	48.69
972.667	48.65
973.027	48.72
973.388	48.67
973.748	48.63
974.108	48.6
974.468	48.72
974.828	48.73
975.188	48.7
975.548	48.63
975.907	48.65
976.267	48.76
976.627	48.76
976.986	48.74
977.346	48.84
977.705	48.87
978.064	48.94
978.424	48.87
978.783	48.9
979.142	48.94
979.501	48.96
979.86	48.95
980.219	48.84
980.578	48.86
980.937	48.9
981.296	48.88
981.654	48.89
982.013	48.85
982.371	48.81
982.73	48.74
983.088	48.73
983.447	48.84
983.805	48.85
984.163	48.82
984.521	48.85
984.879	48.85
985.237	48.86
985.595	48.96
985.953	49.03
986.311	49.09
986.669	49.18
987.026	49.19
987.384	49.12
987.741	49.27
988.099	49.39
988.456	49.44
988.814	49.47
989.171	49.5
989.528	49.4
989.885	49.41
990.242	49.43
990.599	49.45
990.956	49.5
991.313	49.5
991.67	49.48
992.027	49.5
992.383	49.6
992.74	49.63
993.096	49.64
993.453	49.69
993.809	49.76
994.165	49.89
994.522	49.83
994.878	49.81
995.234	49.85
995.59	49.83
995.946	49.9
996.302	49.76
996.658	49.79
997.013	49.79
997.369	49.84
997.725	49.83
998.08	49.76
998.436	49.88
998.791	49.94
999.147	49.89
999.502	49.97
999.857	49.95
1000.212	50.05
1000.567	50.12
1000.922	50.26
1001.277	50.23
1001.632	50.22
1001.987	50.23
1002.342	50.24
1002.696	50.34
1003.051	50.36
1003.406	50.22
1003.76	50.22
1004.114	50.41
1004.469	50.37
1004.823	50.36
1005.177	50.52
1005.531	50.58
1005.885	50.74
1006.239	50.88
1006.593	50.99
1006.947	51.13
1007.301	51.38
1007.655	51.54
1008.008	51.34
1008.362	51.52
1008.715	51.68
1009.069	51.52
1009.422	51.49
1009.776	51.36
1010.129	51.26
1010.482	51.38
1010.835	51.61
1011.188	51.47
1011.541	51.28
1011.894	51.45
1012.247	51.45
1012.6	51.4
1012.952	51.51
1013.305	51.74
1013.657	51.9
1014.01	52.12
1014.362	51.96
1014.715	51.87
1015.067	52.04
1015.419	52.46
1015.771	52.69
1016.123	52.55
1016.475	52.69
1016.827	52.93
1017.179	52.91
1017.531	53.13
1017.883	53.42
1018.234	53.66
1018.586	53.85
1018.938	53.76
1019.289	53.75
1019.64	53.87
1019.992	54.17
1020.343	54.12
1020.694	54.15
1021.045	54.25
1021.396	54.19
1021.747	54.18
1022.098	54.38
1022.449	54.5
1022.8	54.98
1023.151	54.91
1023.501	54.83
1023.852	54.97
1024.202	55.1
1024.553	55.1
1024.903	55.45
1025.253	55.85
1025.604	55.94
1025.954	55.92
1026.304	56.51
1026.654	56.77
1027.004	57.02
1027.354	57.14
1027.703	57.28
1028.053	57.57
1028.403	58.12
1028.753	58.2
1029.102	58.29
1029.452	58.56
1029.801	58.9
1030.15	58.57
1030.499	58.54
897.758	593.84
901.051	601.36
904.343	608.53
907.636	599.42
910.928	592
914.22	598.76
917.511	585.28
920.803	562.96
924.094	541.43
927.384	545.58
930.675	528.09
933.965	524.09
937.255	528.14
940.544	504.06
943.834	480.93
947.123	471.21
950.411	448.12
953.7	441.29
956.988	424.93
960.276	403.51
963.563	400.43
966.851	380.31
970.138	372.61
973.424	345.69
976.711	341.33
979.997	330.11
983.283	323.22
986.568	312.71
989.853	303.52
993.138	293.47
996.423	290.78
999.708	279.81
1002.992	279.99
1006.275	274.06
1009.559	271.33
1012.842	263.16
1016.125	255.8
1019.408	250.39
1022.69	249.72
1025.972	246.8
1029.254	240.57
1032.536	236.01
1035.817	227.81
1039.098	225.36
1042.379	220.6
1045.659	216.31
1048.939	214.97
1052.219	210.18
1055.498	208.16
1058.778	202.66
1062.057	198.28
1065.335	197.55
1068.614	193.66
1071.892	191.8
1075.17	188.65
1078.447	185.22
1081.724	184.08
1085.001	180.04
1088.278	180.51
1091.554	178.02
1094.83	178
1098.106	175.53
1101.382	174.07
1104.657	174.38
1107.932	173.17
1111.206	171.91
1114.481	169.81
1117.755	168.35
1121.029	168.03
1124.302	165.04
1127.575	161.82
1130.848	160.55
1134.121	159.26
1137.393	158.86
1140.665	156.94
1143.937	155.34
1147.208	153.53
1150.48	152.51
1153.75	151.72
1157.021	150.15
1160.291	149.54
1163.561	151.21
1166.831	149.12
1170.101	148.74
1173.37	148.12
1176.639	146.76
1179.907	146.91
1183.176	146.86
1186.444	145.85
1189.711	145.25
1192.979	147.34
1196.246	146.9
1199.513	145.22
1202.78	146.86
1206.046	146.6
1209.312	146.57
1212.578	147.53
1215.843	149.06
1219.108	149.85
1222.373	153.28
1225.638	155.93
1228.902	158.24
1232.166	163
1235.43	165.81
1238.693	170.14
1241.956	173.99
1245.219	178.86
1248.482	180.4
1251.744	180.33
1255.006	180.71
1258.268	176.41
1261.529	174.39
1264.79	170.14
1268.051	166.87
1271.312	165.28
1274.572	161.56
1277.832	157.47
1281.092	154.52
1284.351	151.5
1287.61	151.47
1290.869	150.09
1294.128	149.6
1297.386	149.09
1300.644	148.15
1303.902	146.96
1307.159	147.15
1310.416	147.16
1313.673	149.81
1316.93	151.48
1320.186	153.94
1323.442	155.87
1326.697	158.98
1329.953	159.68
1333.208	164.93
1336.463	171.55
1339.717	176.11
1342.972	183.28
1346.226	189.16
1349.479	190.53
1352.733	198.85
1355.986	203.05
1359.238	207.14
1362.491	208.72
1365.743	218.29
1368.995	219.17
1372.247	219.36
1375.498	217.69
1378.749	225.78
1382	224.18
1385.251	224.11
1388.501	222.45
1391.751	224.44
1395	223.83
1398.25	225.76
1401.499	224.32
1404.748	224.7
1407.996	218.72
1411.244	220.85
1414.492	215.34
1417.74	209.94
1420.987	205.22
1424.234	202.29
1427.481	194.77
1430.728	189.12
1433.974	181.75
1437.22	177
1440.465	170.53
1443.711	166.26
1446.956	161.09
1450.201	154.64
1453.445	147.65
1456.689	143.61
1459.933	138.74
1463.177	133.2
1466.42	130.78
1469.663	127.19
1472.906	122.37
1476.148	119.3
1479.391	116.83
1482.633	114.71
1485.874	112.4
1489.115	111.92
1492.356	109.51
1495.597	107.97
1498.838	107.33
1502.078	106.14
1505.318	106
1508.557	105.35
1511.797	104.31
1515.036	103.45
1518.274	102.96
1521.513	102.1
1524.751	101.32
1527.989	102.17
1531.227	101.76
1534.464	101.55
1537.701	100.34
1540.938	99.97
1544.174	100.13
1547.41	99.59
1550.646	99.45
1553.882	99.32
1557.117	98.88
1560.352	99.07
1563.587	97.47
1566.821	97.4
1570.055	96.88
1573.289	96.74
1576.523	96.97
1579.756	95.87
1582.989	96.6
1586.222	96.4
1589.454	95.99
1592.686	96.29
1595.918	95.75
1599.15	96.03
1602.381	96.47
1605.612	96.47
1608.843	96.4
1612.073	97.05
1615.303	97.71
1618.533	97.02
1621.762	97.23
1624.992	97.08
1628.221	96.88
1631.449	97.64
1634.678	97.39
1637.906	96.96
1641.134	96.98
1644.361	97.22
1647.588	96.61
1650.815	96.48
1654.042	97.15
1657.269	96.54
1660.495	97.25
1663.72	97.09
1666.946	97.02
1670.171	97.77
1673.396	98.35
1676.621	98.95
1679.845	99.25
1683.069	98.55
1686.293	98.85
1689.517	98.63
1692.74	99.37
1695.963	99.19
1699.185	99.64
1702.408	99.62
1705.63	99.82
1708.852	100.56
1712.073	99.8
1715.294	99.72
1718.515	100.97
1721.736	100.92
1724.956	101.72
1728.176	101.56
1731.396	102.28
1734.616	102.02
1737.835	102.28
1741.054	102.29
1744.272	101.31
1747.491	102.02
1750.709	102.84
1753.927	102.87
1757.144	102.84
1760.361	102.41
1763.578	103.52
1766.795	103.72
1770.011	104.53
1773.227	105.03
1776.443	105.49
1779.658	106.21
1782.874	106.84
1786.089	107.1
1789.303	107.28
1792.518	108.97
1795.732	109.54
1798.945	110.07
1802.159	110.55
1805.372	111.94
1808.585	112.36
1811.797	113.11
1815.01	114
1818.222	114.86
1821.434	115.46
1824.645	116.49
1827.856	117.6
1831.067	118.86
1834.278	119.52
1837.488	120.63
1840.698	121.65
1843.908	122.26
1847.117	124.14
1850.326	125.21
1853.535	125.07
1856.744	126.36
1859.952	128.18
1863.16	127.85
1866.368	127.12
1869.575	128.51
1872.782	127.65
1875.989	126.89
1879.196	126.41
1882.402	124
1885.608	125.17
1888.814	125.18
1892.019	126.44
1895.224	123.82
1898.429	125.26
1901.634	126.64
1904.838	126.59
1908.042	127.23
1911.246	126.64
1914.449	127.69
1917.652	129.56
1920.855	129.18
1924.058	128.76
1927.26	127.54
1930.462	128.73
1933.664	128.12
1936.865	127.67
1940.066	126.65
1943.267	125.96
1946.467	127.3
1949.668	127.3
1952.868	126.82
1956.067	126.53
1959.267	127.92
1962.466	128.7
1965.665	129.8
1968.863	130.1
1972.061	130.21
1975.259	133.37
1978.457	134.33
1981.654	135.27
1984.852	136.02
1988.048	137.63
1991.245	139.18
1994.441	141.34
1997.637	144.49
2000.833	147.68
2004.028	149.13
2007.223	154.53
2010.418	155.86
2013.613	162.34
2016.807	166.27
2020.001	170.97
2023.194	176.36
2026.388	181.7
2029.581	190.73
2032.774	196.03
2035.966	201.53
2039.158	208.44
2042.35	210.66
2045.542	215.26
2048.733	226.44
2051.924	227.46
2055.115	229.74
2058.306	231.4
2061.496	237.51
2064.686	238.16
2067.875	234.58
2071.065	237.49
2074.254	238.89
2077.442	246.14
2080.631	249.23
2083.819	247.28
2087.007	254.91
2090.195	259
2093.382	259.28
2096.569	259.09
2099.756	263.48
2102.942	271.91
2106.128	275.52
2109.314	277.27
2112.5	278.3
2115.685	275.65
2118.87	276.9
2122.055	277.48
2125.239	283.05
2128.424	290.97
2131.608	288.23
2134.791	286.02
2137.974	286.02
2141.157	289.3
2144.34	289.63
2147.523	295.59
2150.705	303.09
2153.887	299.52
2157.068	302.93
2160.25	305.91
2163.431	302.11
2166.611	310.46
2169.792	315.7
2172.972	322.92
2176.152	322.36
2179.331	330.22
2182.511	329.06
2185.69	333.46
2188.868	347.93
2192.047	353.16
2195.225	359.03
2198.403	366.35
2201.58	359.94
2204.758	373.15
2207.935	372.49
2211.111	382.31
2214.288	384.07
2217.464	388.25
2220.64	390.87
2223.815	391.72
2226.991	388.52
2230.166	391.64
2233.34	401.98
2236.515	416.39
2239.689	410.57
2242.863	418.52
2246.036	415.24
2249.209	426.75
2252.382	425.29
2255.555	440.39
2258.727	443.25
2261.9	456.8
2265.071	461.88
2268.243	459.41
2271.414	472.8
2274.585	482.21
2277.756	483.87
2280.926	498.76
2284.096	493.73
2287.266	499.55
2290.436	491.51
2293.605	501.52
2296.774	519.05
2299.942	518.37
2303.111	534.94
2306.279	538.62
2309.447	541.28
2312.614	542.06
2315.781	556.9
2318.948	569.17
2322.115	578.28
2325.281	603.49
2328.447	602.77
2331.613	603.99
2334.779	613.46
2337.944	623.71
2341.109	640.37
2344.274	648.12
2347.438	666.89
2350.602	676
2353.766	717.86
2356.929	720.88
2360.092	730.34
2363.255	732.37
2366.418	745.38
2369.58	760.58
2372.742	751.92
2375.904	745.67
2379.066	766.29
2382.227	814.47
2385.388	811.03
2388.548	771.13
2391.709	763.95
2394.869	789.34
2398.029	793.57
2401.188	791.68
2404.347	813.44
2407.506	843.75
2410.665	816.34
2413.823	814.97
2416.981	809.61
2420.139	770.39
2423.296	830.05
2426.453	876.41
2429.61	846.95
2432.767	894.85
2435.923	928.31
2439.079	894.9
2442.235	915.06
2445.391	936.82
2448.546	931.64
2451.701	985.8
2454.855	1051.88
2458.009	929.88
2461.163	960.63
2464.317	955.61
2467.471	939.69
2470.624	975.51
2473.777	954.63
2476.929	923.68
2480.082	983.94
2483.234	1033.07
2486.385	1043.97
2489.537	1073.8
2492.688	1174.21
2495.839	1156.88
2498.989	1190.92
2502.14	1197.98
2505.29	1141.87
2508.439	1281.17
2511.589	1318.97
2514.738	1275.34
2517.887	1265.06
2521.035	1189.21
2524.183	1165.04
2527.331	1162.92
2530.479	1125
2533.627	1156.63
