Data from N_1_div_oh_2n_025_Splice17_13.txt Node
Date: Sat Feb 29 13:43:59 EST 2020
User: sa697716
Spectrometer: FLMS03696
Trigger mode: 0
Integration Time (sec): 3.180400E-1
Scans to average: 20
Electric dark correction enabled: true
Nonlinearity correction enabled: true
Boxcar width: 5
XAxis mode: Wavelengths
Number of Pixels in Spectrum: 2048
>>>>>Begin Spectral Data<<<<<
187.83	51.94
188.298	39.36
188.766	36.1
189.233	33.17
189.701	35.48
190.169	40.67
190.636	47.51
191.104	23.34
191.571	2.07
192.039	132.89
192.506	-113.83
192.974	-3796.43
193.441	951.75
193.908	-49.23
194.375	-84.96
194.842	-51.19
195.31	-2.41
195.777	15.88
196.244	9.95
196.711	25.5
197.177	25.96
197.644	26.5
198.111	26.7
198.578	27.45
199.045	27.85
199.511	27.76
199.978	27.82
200.445	27.7
200.911	27.99
201.378	28.21
201.844	28.8
202.31	29.2
202.777	29.55
203.243	30.44
203.709	30.66
204.176	30.11
204.642	29.79
205.108	29.4
205.574	29.86
206.04	29.52
206.506	29.35
206.972	28.77
207.438	28.58
207.903	28.43
208.369	27.53
208.835	27.35
209.301	27.32
209.766	27.18
210.232	27.29
210.697	26.85
211.163	26.69
211.628	26.31
212.094	25.99
212.559	25.65
213.024	24.91
213.49	24.81
213.955	24.08
214.42	23.35
214.885	22.52
215.35	21.85
215.815	20.79
216.28	19.5
216.745	18.54
217.21	17.37
217.675	16.19
218.14	15.2
218.604	14.13
219.069	13.37
219.534	12.7
219.998	12.12
220.463	11.57
220.927	11.17
221.392	10.84
221.856	10.46
222.32	10.18
222.785	9.91
223.249	9.72
223.713	9.49
224.177	9.28
224.642	9.08
225.106	8.94
225.57	8.77
226.034	8.6
226.497	8.45
226.961	8.3
227.425	8.15
227.889	8.01
228.353	7.83
228.816	7.73
229.28	7.59
229.744	7.49
230.207	7.39
230.671	7.29
231.134	7.2
231.597	7.1
232.061	7.02
232.524	6.95
232.987	6.87
233.45	6.81
233.914	6.74
234.377	6.69
234.84	6.62
235.303	6.53
235.766	6.47
236.229	6.38
236.691	6.31
237.154	6.24
237.617	6.18
238.08	6.13
238.542	6.07
239.005	6
239.468	5.92
239.93	5.88
240.393	5.82
240.855	5.75
241.317	5.72
241.78	5.68
242.242	5.64
242.704	5.61
243.166	5.55
243.629	5.51
244.091	5.47
244.553	5.45
245.015	5.4
245.477	5.35
245.939	5.32
246.4	5.28
246.862	5.24
247.324	5.22
247.786	5.18
248.247	5.15
248.709	5.11
249.17	5.08
249.632	5.03
250.093	4.99
250.555	4.95
251.016	4.92
251.477	4.89
251.939	4.85
252.4	4.81
252.861	4.78
253.322	4.74
253.783	4.71
254.244	4.68
254.705	4.65
255.166	4.64
255.627	4.62
256.088	4.59
256.549	4.56
257.009	4.53
257.47	4.5
257.931	4.45
258.391	4.43
258.852	4.39
259.312	4.36
259.773	4.33
260.233	4.29
260.694	4.25
261.154	4.22
261.614	4.18
262.074	4.15
262.534	4.12
262.994	4.1
263.455	4.08
263.915	4.05
264.374	4.02
264.834	4
265.294	3.98
265.754	3.96
266.214	3.94
266.673	3.92
267.133	3.9
267.593	3.89
268.052	3.85
268.512	3.83
268.971	3.81
269.431	3.79
269.89	3.77
270.349	3.75
270.809	3.74
271.268	3.73
271.727	3.71
272.186	3.7
272.645	3.68
273.104	3.67
273.563	3.66
274.022	3.65
274.481	3.64
274.94	3.62
275.399	3.61
275.857	3.59
276.316	3.57
276.775	3.56
277.233	3.54
277.692	3.54
278.15	3.52
278.609	3.51
279.067	3.49
279.525	3.48
279.984	3.48
280.442	3.47
280.9	3.47
281.358	3.46
281.816	3.45
282.274	3.44
282.732	3.44
283.19	3.44
283.648	3.43
284.106	3.42
284.564	3.42
285.021	3.41
285.479	3.41
285.937	3.4
286.394	3.39
286.852	3.39
287.309	3.38
287.767	3.37
288.224	3.36
288.682	3.35
289.139	3.34
289.596	3.32
290.053	3.29
290.511	3.28
290.968	3.27
291.425	3.26
291.882	3.24
292.339	3.23
292.796	3.22
293.252	3.21
293.709	3.19
294.166	3.18
294.623	3.17
295.079	3.17
295.536	3.16
295.992	3.15
296.449	3.15
296.905	3.14
297.362	3.13
297.818	3.12
298.274	3.11
298.731	3.11
299.187	3.11
299.643	3.1
300.099	3.1
300.555	3.09
301.011	3.09
301.467	3.07
301.923	3.07
302.379	3.07
302.835	3.08
303.291	3.08
303.746	3.07
304.202	3.06
304.658	3.05
305.113	3.05
305.569	3.05
306.024	3.04
306.479	3.05
306.935	3.04
307.39	3.04
307.845	3.03
308.301	3.03
308.756	3.03
309.211	3.04
309.666	3.05
310.121	3.05
310.576	3.05
311.031	3.05
311.486	3.05
311.94	3.04
312.395	3.05
312.85	3.05
313.305	3.05
313.759	3.04
314.214	3.03
314.668	3.02
315.123	3.03
315.577	3.03
316.032	3.02
316.486	3.01
316.94	3
317.394	3.01
317.849	3
318.303	2.99
318.757	2.99
319.211	2.97
319.665	2.97
320.119	2.97
320.572	2.96
321.026	2.95
321.48	2.94
321.934	2.94
322.387	2.92
322.841	2.92
323.295	2.91
323.748	2.91
324.202	2.91
324.655	2.91
325.108	2.9
325.562	2.9
326.015	2.89
326.468	2.89
326.921	2.88
327.374	2.88
327.827	2.87
328.28	2.87
328.733	2.87
329.186	2.87
329.639	2.86
330.092	2.86
330.545	2.86
330.997	2.87
331.45	2.88
331.903	2.88
332.355	2.89
332.808	2.89
333.26	2.89
333.713	2.89
334.165	2.9
334.617	2.91
335.069	2.9
335.522	2.9
335.974	2.9
336.426	2.9
336.878	2.89
337.33	2.89
337.782	2.89
338.234	2.9
338.686	2.89
339.137	2.89
339.589	2.89
340.041	2.89
340.493	2.87
340.944	2.87
341.396	2.87
341.847	2.86
342.299	2.85
342.75	2.84
343.201	2.81
343.653	2.8
344.104	2.79
344.555	2.78
345.006	2.77
345.457	2.77
345.908	2.76
346.359	2.76
346.81	2.76
347.261	2.75
347.712	2.75
348.163	2.75
348.613	2.76
349.064	2.74
349.515	2.73
349.965	2.72
350.416	2.71
350.866	2.71
351.317	2.69
351.767	2.69
352.217	2.69
352.668	2.69
353.118	2.7
353.568	2.7
354.018	2.71
354.468	2.71
354.918	2.72
355.368	2.73
355.818	2.72
356.268	2.73
356.718	2.73
357.168	2.71
357.617	2.7
358.067	2.69
358.517	2.69
358.966	2.68
359.416	2.68
359.865	2.67
360.315	2.67
360.764	2.68
361.213	2.67
361.663	2.67
362.112	2.68
362.561	2.69
363.01	2.69
363.459	2.69
363.908	2.69
364.357	2.69
364.806	2.69
365.255	2.7
365.703	2.69
366.152	2.69
366.601	2.69
367.05	2.69
367.498	2.69
367.947	2.68
368.395	2.69
368.844	2.69
369.292	2.68
369.74	2.68
370.189	2.67
370.637	2.66
371.085	2.66
371.533	2.66
371.981	2.66
372.429	2.65
372.877	2.65
373.325	2.65
373.773	2.64
374.221	2.64
374.669	2.64
375.116	2.65
375.564	2.66
376.012	2.66
376.459	2.66
376.907	2.66
377.354	2.66
377.801	2.67
378.249	2.68
378.696	2.7
379.143	2.71
379.591	2.72
380.038	2.73
380.485	2.74
380.932	2.75
381.379	2.75
381.826	2.76
382.273	2.77
382.72	2.78
383.166	2.79
383.613	2.8
384.06	2.82
384.506	2.83
384.953	2.84
385.4	2.85
385.846	2.86
386.292	2.88
386.739	2.9
387.185	2.93
387.631	2.94
388.078	2.97
388.524	2.97
388.97	2.99
389.416	3
389.862	3.01
390.308	3.03
390.754	3.05
391.2	3.08
391.645	3.1
392.091	3.11
392.537	3.13
392.983	3.15
393.428	3.17
393.874	3.19
394.319	3.22
394.765	3.24
395.21	3.26
395.655	3.29
396.101	3.3
396.546	3.33
396.991	3.35
397.436	3.35
397.881	3.37
398.326	3.4
398.771	3.43
399.216	3.46
399.661	3.49
400.106	3.5
400.551	3.5
400.995	3.5
401.44	3.49
401.885	3.5
402.329	3.52
402.774	3.51
403.218	3.5
403.663	3.48
404.107	3.49
404.551	3.49
404.995	3.5
405.44	3.49
405.884	3.51
406.328	3.52
406.772	3.52
407.216	3.52
407.66	3.53
408.104	3.54
408.547	3.56
408.991	3.55
409.435	3.55
409.879	3.55
410.322	3.57
410.766	3.58
411.209	3.58
411.653	3.59
412.096	3.59
412.54	3.58
412.983	3.59
413.426	3.61
413.869	3.63
414.312	3.64
414.756	3.66
415.199	3.66
415.642	3.68
416.085	3.69
416.527	3.69
416.97	3.72
417.413	3.72
417.856	3.71
418.298	3.7
418.741	3.71
419.184	3.7
419.626	3.69
420.069	3.7
420.511	3.67
420.953	3.67
421.396	3.69
421.838	3.7
422.28	3.71
422.722	3.72
423.164	3.71
423.606	3.71
424.048	3.71
424.49	3.73
424.932	3.72
425.374	3.74
425.816	3.74
426.258	3.73
426.699	3.7
427.141	3.71
427.582	3.71
428.024	3.73
428.465	3.74
428.907	3.75
429.348	3.75
429.789	3.76
430.231	3.77
430.672	3.8
431.113	3.81
431.554	3.84
431.995	3.85
432.436	3.87
432.877	3.87
433.318	3.86
433.759	3.87
434.2	3.88
434.64	3.89
435.081	3.88
435.522	3.89
435.962	3.9
436.403	3.91
436.843	3.92
437.284	3.92
437.724	3.96
438.164	3.99
438.604	4.03
439.045	4.04
439.485	4.06
439.925	4.07
440.365	4.08
440.805	4.08
441.245	4.08
441.685	4.1
442.125	4.11
442.564	4.1
443.004	4.09
443.444	4.08
443.883	4.11
444.323	4.1
444.762	4.15
445.202	4.2
445.641	4.23
446.081	4.27
446.52	4.26
446.959	4.28
447.398	4.32
447.837	4.37
448.276	4.39
448.716	4.39
449.154	4.42
449.593	4.43
450.032	4.44
450.471	4.46
450.91	4.45
451.349	4.48
451.787	4.49
452.226	4.47
452.664	4.46
453.103	4.46
453.541	4.48
453.98	4.48
454.418	4.46
454.856	4.45
455.295	4.44
455.733	4.46
456.171	4.47
456.609	4.48
457.047	4.49
457.485	4.5
457.923	4.51
458.361	4.51
458.798	4.51
459.236	4.51
459.674	4.5
460.111	4.52
460.549	4.5
460.987	4.49
461.424	4.47
461.862	4.47
462.299	4.48
462.736	4.47
463.173	4.46
463.611	4.45
464.048	4.46
464.485	4.46
464.922	4.46
465.359	4.47
465.796	4.46
466.233	4.48
466.67	4.5
467.106	4.49
467.543	4.51
467.98	4.53
468.416	4.55
468.853	4.54
469.29	4.56
469.726	4.56
470.162	4.55
470.599	4.57
471.035	4.58
471.471	4.56
471.907	4.56
472.344	4.55
472.78	4.54
473.216	4.52
473.652	4.52
474.088	4.53
474.523	4.52
474.959	4.53
475.395	4.51
475.831	4.5
476.266	4.5
476.702	4.5
477.138	4.49
477.573	4.48
478.008	4.48
478.444	4.48
478.879	4.47
479.314	4.46
479.75	4.46
480.185	4.45
480.62	4.46
481.055	4.47
481.49	4.46
481.925	4.46
482.36	4.46
482.795	4.46
483.229	4.46
483.664	4.45
484.099	4.45
484.534	4.44
484.968	4.46
485.403	4.45
485.837	4.45
486.271	4.45
486.706	4.46
487.14	4.49
487.574	4.5
488.009	4.52
488.443	4.53
488.877	4.55
489.311	4.58
489.745	4.6
490.179	4.62
490.613	4.65
491.046	4.68
491.48	4.72
491.914	4.74
492.348	4.78
492.781	4.82
493.215	4.85
493.648	4.9
494.082	4.96
494.515	5.01
494.948	5.06
495.382	5.12
495.815	5.18
496.248	5.25
496.681	5.32
497.114	5.4
497.547	5.47
497.98	5.57
498.413	5.66
498.846	5.74
499.279	5.85
499.711	5.94
500.144	6.05
500.577	6.15
501.009	6.26
501.442	6.38
501.874	6.49
502.306	6.62
502.739	6.75
503.171	6.9
503.603	7.06
504.036	7.21
504.468	7.39
504.9	7.56
505.332	7.75
505.764	7.95
506.196	8.15
506.627	8.35
507.059	8.56
507.491	8.78
507.923	9
508.354	9.23
508.786	9.47
509.217	9.7
509.649	9.96
510.08	10.22
510.512	10.46
510.943	10.72
511.374	11
511.805	11.28
512.237	11.56
512.668	11.84
513.099	12.14
513.53	12.44
513.961	12.75
514.391	13.03
514.822	13.33
515.253	13.65
515.684	13.97
516.114	14.29
516.545	14.61
516.975	14.95
517.406	15.27
517.836	15.58
518.267	15.89
518.697	16.22
519.127	16.55
519.558	16.87
519.988	17.19
520.418	17.49
520.848	17.79
521.278	18.09
521.708	18.24
522.138	18.52
522.567	18.8
522.997	19.06
523.427	19.32
523.857	19.59
524.286	19.84
524.716	20.08
525.145	20.33
525.575	20.57
526.004	20.8
526.433	21.14
526.863	21.37
527.292	21.58
527.721	21.79
528.15	21.96
528.579	22.15
529.008	22.33
529.437	22.49
529.866	22.64
530.295	22.79
530.724	22.94
531.152	23.1
531.581	23.23
532.01	23.37
532.438	23.47
532.867	23.6
533.295	23.7
533.723	23.82
534.152	23.91
534.58	23.99
535.008	24.06
535.436	24.12
535.865	24.18
536.293	24.26
536.721	24.3
537.149	24.37
537.576	24.43
538.004	24.47
538.432	24.49
538.86	24.54
539.287	24.6
539.715	24.66
540.143	24.7
540.57	24.75
540.998	24.79
541.425	24.83
541.852	24.86
542.28	24.9
542.707	24.96
543.134	24.99
543.561	25.01
543.988	25.05
544.415	25.06
544.842	25.08
545.269	25.1
545.696	25.13
546.123	25.16
546.549	25.18
546.976	25.21
547.403	25.22
547.829	25.25
548.256	25.28
548.682	25.27
549.108	25.3
549.535	25.31
549.961	25.32
550.387	25.31
550.813	25.29
551.24	25.31
551.666	25.29
552.092	25.28
552.518	25.26
552.943	25.24
553.369	25.22
553.795	25.18
554.221	25.16
554.646	25.14
555.072	25.12
555.498	25.09
555.923	25.03
556.349	24.96
556.774	24.9
557.199	24.85
557.625	24.78
558.05	24.7
558.475	24.63
558.9	24.55
559.325	24.45
559.75	24.36
560.175	24.25
560.6	24.15
561.025	24.06
561.449	23.95
561.874	23.84
562.299	23.75
562.723	23.64
563.148	23.52
563.572	23.4
563.997	23.29
564.421	23.16
564.846	23.03
565.27	22.89
565.694	22.77
566.118	22.63
566.542	22.49
566.966	22.34
567.39	22.18
567.814	22.02
568.238	21.83
568.662	21.66
569.086	21.51
569.509	21.35
569.933	21.19
570.357	21.01
570.78	20.85
571.204	20.68
571.627	20.52
572.05	20.37
572.474	20.24
572.897	20.11
573.32	19.95
573.743	19.79
574.166	19.64
574.589	19.51
575.012	19.38
575.435	19.24
575.858	19.13
576.281	19.02
576.704	18.89
577.126	18.76
577.549	18.66
577.972	18.56
578.394	18.46
578.817	18.36
579.239	18.27
579.661	18.18
580.084	18.1
580.506	18
580.928	17.92
581.35	17.84
581.772	17.78
582.194	17.69
582.616	17.62
583.038	17.54
583.46	17.47
583.882	17.4
584.303	17.31
584.725	17.23
585.147	17.14
585.568	17.05
585.99	16.98
586.411	16.91
586.833	16.85
587.254	16.78
587.675	16.72
588.096	16.65
588.518	16.58
588.939	16.54
589.36	16.5
589.781	16.45
590.202	16.42
590.623	16.37
591.043	16.3
591.464	16.26
591.885	16.22
592.305	16.18
592.726	16.14
593.147	16.12
593.567	16.09
593.987	16.06
594.408	16.04
594.828	15.99
595.248	15.99
595.669	15.97
596.089	15.92
596.509	15.88
596.929	15.85
597.349	15.81
597.769	15.77
598.189	15.73
598.608	15.68
599.028	15.64
599.448	15.59
599.867	15.53
600.287	15.48
600.706	15.44
601.126	15.4
601.545	15.34
601.965	15.31
602.384	15.24
602.803	15.17
603.222	15.12
603.641	15.08
604.061	15.01
604.48	14.95
604.898	14.88
605.317	14.82
605.736	14.75
606.155	14.68
606.574	14.59
606.992	14.52
607.411	14.45
607.829	14.33
608.248	14.25
608.666	14.17
609.085	14.1
609.503	14.02
609.921	13.94
610.339	13.86
610.758	13.78
611.176	13.72
611.594	13.65
612.012	13.55
612.43	13.52
612.847	13.44
613.265	13.36
613.683	13.27
614.101	13.19
614.518	13.12
614.936	13.05
615.353	12.98
615.771	12.91
616.188	12.83
616.606	12.77
617.023	12.7
617.44	12.63
617.857	12.57
618.274	12.52
618.691	12.47
619.108	12.43
619.525	12.38
619.942	12.33
620.359	12.28
620.776	12.26
621.192	12.21
621.609	12.18
622.026	12.16
622.442	12.14
622.859	12.11
623.275	12.1
623.691	12.09
624.108	12.08
624.524	12.07
624.94	12.06
625.356	12.04
625.772	12.05
626.188	12.05
626.604	12.03
627.02	12.01
627.436	12
627.852	11.99
628.268	11.96
628.683	11.93
629.099	11.91
629.514	11.88
629.93	11.84
630.345	11.82
630.761	11.78
631.176	11.74
631.591	11.71
632.007	11.67
632.422	11.62
632.837	11.55
633.252	11.49
633.667	11.41
634.082	11.34
634.497	11.26
634.911	11.15
635.326	11.04
635.741	10.93
636.155	10.81
636.57	10.68
636.984	10.54
637.399	10.41
637.813	10.26
638.228	10.13
638.642	10.01
639.056	9.87
639.47	9.73
639.884	9.6
640.298	9.46
640.712	9.34
641.126	9.2
641.54	9.08
641.954	8.95
642.368	8.82
642.781	8.69
643.195	8.55
643.609	8.43
644.022	8.31
644.436	8.19
644.849	8.07
645.262	7.95
645.676	7.84
646.089	7.74
646.502	7.64
646.915	7.55
647.328	7.48
647.741	7.41
648.154	7.35
648.567	7.29
648.98	7.24
649.393	7.2
649.805	7.15
650.218	7.12
650.631	7.08
651.043	7.06
651.456	7.02
651.868	6.98
652.28	6.94
652.693	6.89
653.105	6.84
653.517	6.8
653.929	6.77
654.341	6.73
654.753	6.68
655.165	6.64
655.577	6.57
655.989	6.51
656.401	6.44
656.813	6.36
657.224	6.3
657.636	6.24
658.047	6.16
658.459	6.05
658.87	5.97
659.282	5.91
659.693	5.82
660.104	5.74
660.515	5.67
660.926	5.61
661.338	5.55
661.749	5.46
662.159	5.39
662.57	5.34
662.981	5.28
663.392	5.21
663.803	5.14
664.213	5.1
664.624	5.06
665.035	5
665.445	4.98
665.855	4.92
666.266	4.9
666.676	4.87
667.086	4.83
667.497	4.82
667.907	4.79
668.317	4.77
668.727	4.75
669.137	4.73
669.547	4.73
669.956	4.71
670.366	4.72
670.776	4.71
671.186	4.71
671.595	4.73
672.005	4.75
672.414	4.76
672.824	4.78
673.233	4.81
673.642	4.83
674.052	4.84
674.461	4.87
674.87	4.9
675.279	4.94
675.688	4.95
676.097	4.98
676.506	5.01
676.915	5.05
677.323	5.09
677.732	5.12
678.141	5.17
678.549	5.23
678.958	5.3
679.366	5.35
679.775	5.42
680.183	5.5
680.592	5.57
681	5.64
681.408	5.72
681.816	5.82
682.224	5.93
682.632	6.05
683.04	6.17
683.448	6.31
683.856	6.48
684.264	6.65
684.671	6.85
685.079	7.08
685.487	7.34
685.894	7.63
686.302	7.93
686.709	8.26
687.116	8.61
687.524	9.02
687.931	9.42
688.338	9.87
688.745	10.36
689.152	10.87
689.559	11.39
689.966	11.94
690.373	12.53
690.78	13.12
691.187	13.74
691.593	14.39
692	15.05
692.407	15.72
692.813	16.4
693.22	17.07
693.626	17.76
694.032	18.47
694.439	19.21
694.845	19.91
695.251	20.62
695.657	21.33
696.063	22.02
696.469	22.73
696.875	23.41
697.281	24.08
697.687	24.8
698.093	25.49
698.498	26.15
698.904	26.79
699.31	27.42
699.715	28.09
700.12	28.71
700.526	29.34
700.931	29.93
701.337	30.54
701.742	31.11
702.147	31.67
702.552	32.22
702.957	32.76
703.362	33.31
703.767	33.83
704.172	34.33
704.577	34.82
704.981	35.33
705.386	35.82
705.791	36.31
706.195	36.8
706.6	37.24
707.004	37.69
707.408	38.14
707.813	38.56
708.217	38.97
708.621	39.41
709.025	39.82
709.43	40.19
709.834	40.59
710.237	40.96
710.641	41.35
711.045	41.72
711.449	42.09
711.853	42.46
712.256	42.83
712.66	43.2
713.064	43.53
713.467	43.87
713.87	44.23
714.274	44.56
714.677	44.88
715.08	45.17
715.484	45.5
715.887	45.81
716.29	46.1
716.693	46.37
717.096	46.65
717.499	46.94
717.901	47.2
718.304	47.46
718.707	47.71
719.109	47.97
719.512	48.26
719.915	48.5
720.317	48.74
720.719	48.96
721.122	49.21
721.524	49.48
721.926	49.71
722.328	49.94
722.731	50.18
723.133	50.38
723.535	50.59
723.937	50.79
724.338	50.96
724.74	51.12
725.142	51.29
725.544	51.46
725.945	51.58
726.347	51.73
726.748	51.87
727.15	51.98
727.551	52.14
727.952	52.26
728.354	52.39
728.755	52.55
729.156	52.7
729.557	52.82
729.958	52.93
730.359	53.05
730.76	53.14
731.161	53.27
731.562	53.37
731.962	53.44
732.363	53.54
732.763	53.63
733.164	53.67
733.564	53.75
733.965	53.82
734.365	53.89
734.766	53.95
735.166	53.99
735.566	54.01
735.966	54.06
736.366	54.1
736.766	54.17
737.166	54.22
737.566	54.28
737.966	54.33
738.365	54.38
738.765	54.42
739.165	54.44
739.564	54.51
739.964	54.56
740.363	54.64
740.763	54.71
741.162	54.71
741.561	54.78
741.96	54.84
742.36	54.88
742.759	54.88
743.158	54.89
743.557	54.9
743.955	54.94
744.354	54.99
744.753	54.98
745.152	55.01
745.55	55.06
745.949	55.05
746.348	55.05
746.746	55.09
747.144	55.14
747.543	55.17
747.941	55.26
748.339	55.33
748.737	55.36
749.136	55.42
749.534	55.46
749.932	55.46
750.33	55.47
750.727	55.51
751.125	55.52
751.523	55.54
751.921	55.56
752.318	55.53
752.716	55.47
753.113	55.44
753.511	55.39
753.908	55.34
754.305	55.34
754.703	55.32
755.1	55.27
755.497	55.25
755.894	55.25
756.291	55.24
756.688	55.21
757.085	55.22
757.482	55.25
757.878	55.3
758.275	55.31
758.672	55.33
759.068	55.34
759.465	55.36
759.861	55.35
760.258	55.33
760.654	55.35
761.05	55.37
761.447	55.38
761.843	55.33
762.239	55.27
762.635	55.24
763.031	55.25
763.427	55.2
763.822	55.19
764.218	55.19
764.614	55.14
765.01	55.11
765.405	55.11
765.801	55.07
766.196	55.07
766.592	55.08
766.987	55.07
767.382	55.03
767.778	55.08
768.173	55.07
768.568	55.03
768.963	55.04
769.358	55.04
769.753	55.03
770.148	55.03
770.542	55.04
770.937	55.03
771.332	55.04
771.726	55.03
772.121	54.98
772.515	54.96
772.91	54.98
773.304	54.99
773.699	55.01
774.093	54.97
774.487	54.98
774.881	54.99
775.275	55.02
775.669	55.03
776.063	55.04
776.457	55.03
776.851	55.03
777.245	55.03
777.638	55.06
778.032	55.06
778.425	55.08
778.819	55.1
779.212	55.05
779.606	55.03
779.999	55.02
780.392	55.04
780.786	55.07
781.179	55.08
781.572	55.08
781.965	55.07
782.358	55.02
782.751	55.02
783.143	55.01
783.536	55.07
783.929	55.08
784.322	55.06
784.714	55.04
785.107	55.03
785.499	55.03
785.891	55.01
786.284	54.99
786.676	55.05
787.068	55.05
787.46	55.05
787.852	55.02
788.245	55.03
788.636	55.03
789.028	55.04
789.42	55.01
789.812	55
790.204	54.99
790.595	54.99
790.987	54.94
791.378	54.94
791.77	54.93
792.161	54.96
792.553	54.95
792.944	55
793.335	55.03
793.726	55.04
794.117	55.02
794.508	55.02
794.899	55.02
795.29	55.04
795.681	55.05
796.072	55.06
796.463	55.04
796.853	55
797.244	54.94
797.634	54.92
798.025	54.95
798.415	54.97
798.806	54.99
799.196	55.04
799.586	55.06
799.976	55.09
800.366	55.09
800.756	55.09
801.146	55.12
801.536	55.16
801.926	55.18
802.316	55.16
802.706	55.17
803.095	55.19
803.485	55.2
803.874	55.16
804.264	55.19
804.653	55.15
805.043	55.16
805.432	55.15
805.821	55.15
806.21	55.17
806.599	55.22
806.988	55.22
807.377	55.22
807.766	55.21
808.155	55.23
808.544	55.18
808.933	55.23
809.321	55.25
809.71	55.29
810.098	55.3
810.487	55.29
810.875	55.27
811.264	55.28
811.652	55.3
812.04	55.24
812.428	55.24
812.816	55.26
813.204	55.23
813.592	55.23
813.98	55.22
814.368	55.22
814.756	55.22
815.144	55.23
815.531	55.23
815.919	55.23
816.306	55.28
816.694	55.31
817.081	55.3
817.469	55.33
817.856	55.36
818.243	55.36
818.63	55.4
819.017	55.4
819.404	55.38
819.791	55.4
820.178	55.41
820.565	55.43
820.952	55.41
821.339	55.47
821.725	55.5
822.112	55.5
822.498	55.52
822.885	55.5
823.271	55.5
823.657	55.53
824.044	55.53
824.43	55.54
824.816	55.54
825.202	55.55
825.588	55.55
825.974	55.54
826.36	55.51
826.746	55.51
827.132	55.5
827.517	55.5
827.903	55.47
828.289	55.46
828.674	55.43
829.06	55.45
829.445	55.46
829.83	55.43
830.216	55.42
830.601	55.46
830.986	55.45
831.371	55.5
831.756	55.48
832.141	55.51
832.526	55.52
832.911	55.57
833.295	55.55
833.68	55.55
834.065	55.56
834.449	55.57
834.834	55.53
835.218	55.55
835.603	55.54
835.987	55.53
836.371	55.56
836.755	55.56
837.139	55.54
837.524	55.53
837.908	55.5
838.291	55.48
838.675	55.5
839.059	55.54
839.443	55.56
839.827	55.54
840.21	55.57
840.594	55.55
840.977	55.55
841.361	55.56
841.744	55.58
842.127	55.6
842.511	55.58
842.894	55.55
843.277	55.51
843.66	55.49
844.043	55.51
844.426	55.52
844.809	55.5
845.191	55.49
845.574	55.48
845.957	55.43
846.339	55.41
846.722	55.44
847.104	55.42
847.487	55.42
847.869	55.39
848.252	55.36
848.634	55.35
849.016	55.36
849.398	55.34
849.78	55.35
850.162	55.38
850.544	55.37
850.926	55.36
851.307	55.37
851.689	55.35
852.071	55.35
852.452	55.36
852.834	55.34
853.215	55.35
853.597	55.35
853.978	55.33
854.359	55.3
854.741	55.29
855.122	55.31
855.503	55.29
855.884	55.28
856.265	55.27
856.646	55.26
857.026	55.26
857.407	55.22
857.788	55.23
858.169	55.23
858.549	55.24
858.93	55.27
859.31	55.27
859.69	55.3
860.071	55.33
860.451	55.34
860.831	55.33
861.211	55.31
861.591	55.31
861.971	55.31
862.351	55.33
862.731	55.33
863.111	55.31
863.491	55.32
863.87	55.27
864.25	55.29
864.629	55.31
865.009	55.29
865.388	55.28
865.768	55.27
866.147	55.25
866.526	55.23
866.905	55.24
867.284	55.25
867.663	55.24
868.042	55.25
868.421	55.23
868.8	55.23
869.179	55.24
869.558	55.25
869.936	55.25
870.315	55.25
870.693	55.25
871.072	55.23
871.45	55.19
871.828	55.18
872.207	55.17
872.585	55.13
872.963	55.1
873.341	55.08
873.719	55.09
874.097	55.1
874.475	55.1
874.853	55.1
875.23	55.11
875.608	55.14
875.986	55.14
876.363	55.15
876.741	55.17
877.118	55.2
877.495	55.19
877.873	55.18
878.25	55.14
878.627	55.16
879.004	55.18
879.381	55.16
879.758	55.15
880.135	55.16
880.512	55.18
880.889	55.21
881.265	55.23
881.642	55.27
882.019	55.29
882.395	55.31
882.772	55.31
883.148	55.28
883.524	55.29
883.901	55.27
884.277	55.26
884.653	55.26
885.029	55.25
885.405	55.24
885.781	55.2
886.157	55.21
886.532	55.19
886.908	55.17
887.284	55.21
887.659	55.23
888.035	55.25
888.411	55.23
888.786	55.19
889.161	55.19
889.537	55.19
889.912	55.22
890.287	55.21
890.662	55.18
891.037	55.17
891.412	55.13
891.787	55.08
892.162	55.03
892.536	55.03
892.911	55.03
893.286	54.98
893.66	54.93
894.035	54.87
894.409	54.86
894.784	54.88
895.158	54.88
895.532	54.86
895.906	54.86
896.281	54.85
896.655	54.85
897.029	54.85
897.402	54.87
897.776	54.88
898.15	54.9
898.524	54.9
898.898	54.85
899.271	54.83
899.645	54.82
900.018	54.81
900.392	54.82
900.765	54.81
901.138	54.82
901.511	54.79
901.884	54.76
902.258	54.75
902.631	54.74
903.003	54.77
903.376	54.77
903.749	54.79
904.122	54.8
904.495	54.79
904.867	54.73
905.24	54.71
905.612	54.72
905.985	54.7
906.357	54.67
906.729	54.64
907.102	54.62
907.474	54.62
907.846	54.59
908.218	54.56
908.59	54.51
908.962	54.54
909.334	54.51
909.705	54.49
910.077	54.47
910.449	54.49
910.82	54.47
911.192	54.47
911.563	54.4
911.935	54.36
912.306	54.36
912.677	54.38
913.048	54.33
913.419	54.31
913.79	54.32
914.161	54.32
914.532	54.29
914.903	54.29
915.274	54.3
915.645	54.35
916.015	54.4
916.386	54.42
916.756	54.39
917.127	54.43
917.497	54.43
917.868	54.38
918.238	54.4
918.608	54.41
918.978	54.39
919.348	54.35
919.718	54.3
920.088	54.3
920.458	54.31
920.828	54.35
921.198	54.37
921.567	54.38
921.937	54.41
922.306	54.41
922.676	54.39
923.045	54.36
923.415	54.35
923.784	54.39
924.153	54.38
924.522	54.34
924.891	54.29
925.26	54.23
925.629	54.22
925.998	54.19
926.367	54.16
926.736	54.15
927.104	54.2
927.473	54.19
927.842	54.13
928.21	54.13
928.578	54.09
928.947	54.11
929.315	54.09
929.683	54.1
930.051	54.11
930.42	54.15
930.788	54.15
931.156	54.09
931.523	54.1
931.891	54.12
932.259	54.03
932.627	54.01
932.994	53.97
933.362	53.94
933.729	53.83
934.097	53.71
934.464	53.65
934.831	53.58
935.199	53.55
935.566	53.45
935.933	53.34
936.3	53.28
936.667	53.21
937.034	53.14
937.401	53.05
937.767	53.09
938.134	53.04
938.501	52.89
938.867	52.85
939.234	52.84
939.6	52.81
939.967	52.9
940.333	53.01
940.699	53.08
941.065	53.08
941.431	53.18
941.798	53.14
942.163	53.3
942.529	53.45
942.895	53.52
943.261	53.48
943.627	53.54
943.992	53.53
944.358	53.5
944.723	53.47
945.089	53.58
945.454	53.57
945.82	53.57
946.185	53.63
946.55	53.68
946.915	53.69
947.28	53.75
947.645	53.74
948.01	53.76
948.375	53.81
948.74	53.77
949.104	53.73
949.469	53.68
949.834	53.68
950.198	53.57
950.562	53.52
950.927	53.48
951.291	53.45
951.655	53.43
952.02	53.34
952.384	53.31
952.748	53.32
953.112	53.26
953.476	53.33
953.839	53.29
954.203	53.26
954.567	53.2
954.931	53.19
955.294	53.11
955.658	53.04
956.021	53.03
956.385	53.06
956.748	53.03
957.111	53.02
957.474	52.96
957.837	53
958.2	52.95
958.563	52.99
958.926	52.97
959.289	52.99
959.652	53.01
960.015	53.05
960.377	52.99
960.74	52.96
961.102	53
961.465	52.97
961.827	52.84
962.189	52.86
962.552	52.79
962.914	52.76
963.276	52.76
963.638	52.65
964	52.58
964.362	52.58
964.724	52.55
965.085	52.49
965.447	52.45
965.809	52.46
966.17	52.44
966.532	52.49
966.893	52.49
967.255	52.44
967.616	52.56
967.977	52.57
968.338	52.5
968.699	52.53
969.061	52.47
969.421	52.44
969.782	52.52
970.143	52.51
970.504	52.39
970.865	52.31
971.225	52.3
971.586	52.35
971.946	52.36
972.307	52.41
972.667	52.41
973.027	52.48
973.388	52.5
973.748	52.48
974.108	52.46
974.468	52.54
974.828	52.67
975.188	52.71
975.548	52.65
975.907	52.62
976.267	52.59
976.627	52.58
976.986	52.59
977.346	52.6
977.705	52.59
978.064	52.52
978.424	52.49
978.783	52.41
979.142	52.37
979.501	52.29
979.86	52.3
980.219	52.21
980.578	52.17
980.937	52.12
981.296	52.15
981.654	52.15
982.013	52.15
982.371	52.1
982.73	52.07
983.088	52
983.447	52.09
983.805	52.02
984.163	52.13
984.521	52.1
984.879	52.1
985.237	52.04
985.595	52.01
985.953	52.1
986.311	52.13
986.669	52.18
987.026	52.21
987.384	52.16
987.741	52.23
988.099	52.24
988.456	52.24
988.814	52.23
989.171	52.26
989.528	52.23
989.885	52.18
990.242	52.24
990.599	52.28
990.956	52.4
991.313	52.33
991.67	52.32
992.027	52.25
992.383	52.28
992.74	52.26
993.096	52.19
993.453	52.16
993.809	52.2
994.165	52.04
994.522	51.89
994.878	51.62
995.234	51.7
995.59	51.64
995.946	51.61
996.302	51.55
996.658	51.49
997.013	51.55
997.369	51.58
997.725	51.57
998.08	51.61
998.436	51.64
998.791	51.75
999.147	51.66
999.502	51.56
999.857	51.55
1000.212	51.47
1000.567	51.6
1000.922	51.46
1001.277	51.44
1001.632	51.58
1001.987	51.67
1002.342	51.88
1002.696	51.96
1003.051	51.85
1003.406	51.98
1003.76	52.05
1004.114	52.14
1004.469	51.98
1004.823	52
1005.177	52.15
1005.531	51.94
1005.885	51.93
1006.239	51.72
1006.593	51.65
1006.947	51.72
1007.301	51.68
1007.655	51.58
1008.008	51.49
1008.362	51.46
1008.715	51.39
1009.069	51.04
1009.422	51.01
1009.776	51.01
1010.129	50.9
1010.482	51.01
1010.835	51.29
1011.188	51.13
1011.541	50.85
1011.894	50.73
1012.247	50.66
1012.6	50.79
1012.952	50.86
1013.305	50.81
1013.657	50.63
1014.01	50.78
1014.362	50.73
1014.715	50.34
1015.067	50.53
1015.419	51.03
1015.771	51.25
1016.123	51.37
1016.475	51.53
1016.827	51.58
1017.179	51.79
1017.531	51.81
1017.883	51.84
1018.234	51.66
1018.586	51.73
1018.938	51.43
1019.289	50.95
1019.64	51.11
1019.992	50.94
1020.343	50.55
1020.694	50.61
1021.045	50.46
1021.396	50.46
1021.747	50.36
1022.098	50.3
1022.449	50.27
1022.8	50.36
1023.151	50.38
1023.501	50.29
1023.852	50.38
1024.202	50.29
1024.553	49.91
1024.903	49.87
1025.253	49.49
1025.604	49.23
1025.954	49.23
1026.304	49.6
1026.654	49.85
1027.004	49.89
1027.354	49.53
1027.703	49.35
1028.053	49.09
1028.403	49.54
1028.753	49.56
1029.102	50.01
1029.452	50.26
1029.801	50.35
1030.15	49.91
1030.499	49.64
897.758	501.83
901.051	506.48
904.343	516.9
907.636	510.3
910.928	497.89
914.22	506.14
917.511	494.82
920.803	475.79
924.094	458.17
927.384	460.8
930.675	450.73
933.965	445.22
937.255	444.51
940.544	422.76
943.834	402.4
947.123	399.27
950.411	379.47
953.7	374.87
956.988	363.28
960.276	347.49
963.563	343.61
966.851	323.47
970.138	319.07
973.424	298.43
976.711	296.67
979.997	287.97
983.283	281.93
986.568	273.65
989.853	264.83
993.138	255.44
996.423	252.07
999.708	243.2
1002.992	245.74
1006.275	238.06
1009.559	236.57
1012.842	229.14
1016.125	223.29
1019.408	218.5
1022.69	215.78
1025.972	215.72
1029.254	209.51
1032.536	206.64
1035.817	200.63
1039.098	198.48
1042.379	194.74
1045.659	193.03
1048.939	191.03
1052.219	187.68
1055.498	185.18
1058.778	183.81
1062.057	179.72
1065.335	179.89
1068.614	175.68
1071.892	174.01
1075.17	170.38
1078.447	168.54
1081.724	166.72
1085.001	163.92
1088.278	163.81
1091.554	162.98
1094.83	160.92
1098.106	158.37
1101.382	157.28
1104.657	157.72
1107.932	156.96
1111.206	156.26
1114.481	154.5
1117.755	153.5
1121.029	152.91
1124.302	150.4
1127.575	148.38
1130.848	148.55
1134.121	147.13
1137.393	146.54
1140.665	145.58
1143.937	144.1
1147.208	143.49
1150.48	142.55
1153.75	141.67
1157.021	139.83
1160.291	140.01
1163.561	140.18
1166.831	137.92
1170.101	138.36
1173.37	138.34
1176.639	136.2
1179.907	136.67
1183.176	135.3
1186.444	135.75
1189.711	134.72
1192.979	136.55
1196.246	135.63
1199.513	134.84
1202.78	135.94
1206.046	135.31
1209.312	135.15
1212.578	136.56
1215.843	137.3
1219.108	138.14
1222.373	140.35
1225.638	142.99
1228.902	144.82
1232.166	149.63
1235.43	150.6
1238.693	154.54
1241.956	157.69
1245.219	160.76
1248.482	162.28
1251.744	162.62
1255.006	162.82
1258.268	158.92
1261.529	157.67
1264.79	153.67
1268.051	150.49
1271.312	150.28
1274.572	147.41
1277.832	143.76
1281.092	143.11
1284.351	140.76
1287.61	140.84
1290.869	139.96
1294.128	139.56
1297.386	139.27
1300.644	139.1
1303.902	138.16
1307.159	137.44
1310.416	137.8
1313.673	140.43
1316.93	140.26
1320.186	141.99
1323.442	142.75
1326.697	145.96
1329.953	145.7
1333.208	149.45
1336.463	155.56
1339.717	158.45
1342.972	163.27
1346.226	168.58
1349.479	169.81
1352.733	176.72
1355.986	178.83
1359.238	182.78
1362.491	183.63
1365.743	191.05
1368.995	191.85
1372.247	190.58
1375.498	190.4
1378.749	197.95
1382	193.26
1385.251	192.36
1388.501	190.85
1391.751	193.58
1395	192.4
1398.25	192.75
1401.499	192.41
1404.748	190.93
1407.996	186.47
1411.244	185.9
1414.492	183
1417.74	179.01
1420.987	175.48
1424.234	172.13
1427.481	164.97
1430.728	160.43
1433.974	155.56
1437.22	149.76
1440.465	144.77
1443.711	140.41
1446.956	136.06
1450.201	130.99
1453.445	125.45
1456.689	121.73
1459.933	117.71
1463.177	113.6
1466.42	111.16
1469.663	108.31
1472.906	105.15
1476.148	102.74
1479.391	100.96
1482.633	99.7
1485.874	98.1
1489.115	97.62
1492.356	95.41
1495.597	94.34
1498.838	94.3
1502.078	93.71
1505.318	93.34
1508.557	93.15
1511.797	92.5
1515.036	92.3
1518.274	91.72
1521.513	90.91
1524.751	90.33
1527.989	91.17
1531.227	91.23
1534.464	90.89
1537.701	90.31
1540.938	89.95
1544.174	89.83
1547.41	90.16
1550.646	89.72
1553.882	90.25
1557.117	89.98
1560.352	90.47
1563.587	89.63
1566.821	89.56
1570.055	88.91
1573.289	89.45
1576.523	89.63
1579.756	89.19
1582.989	89.27
1586.222	89.64
1589.454	89.34
1592.686	89.15
1595.918	89.17
1599.15	89.42
1602.381	89.35
1605.612	90.08
1608.843	89.53
1612.073	89.97
1615.303	90.63
1618.533	89.98
1621.762	90.75
1624.992	90.53
1628.221	90.56
1631.449	90.64
1634.678	90.12
1637.906	90.74
1641.134	90.43
1644.361	90.79
1647.588	90.1
1650.815	90.01
1654.042	90.55
1657.269	89.98
1660.495	90.6
1663.72	90.89
1666.946	90.69
1670.171	91.65
1673.396	91.77
1676.621	92.2
1679.845	92.6
1683.069	92.48
1686.293	92.22
1689.517	92.64
1692.74	92.4
1695.963	92.4
1699.185	92.92
1702.408	93.25
1705.63	93.14
1708.852	93.38
1712.073	93.14
1715.294	92.64
1718.515	93.53
1721.736	93.99
1724.956	93.55
1728.176	93.66
1731.396	93.75
1734.616	93.41
1737.835	93.31
1741.054	93.48
1744.272	92.66
1747.491	92.94
1750.709	93.36
1753.927	93.21
1757.144	93.23
1760.361	93.44
1763.578	93.56
1766.795	94.42
1770.011	94.93
1773.227	94.78
1776.443	95.4
1779.658	95.97
1782.874	96.76
1786.089	96.57
1789.303	96.74
1792.518	97.65
1795.732	98.09
1798.945	99.35
1802.159	99.17
1805.372	100.05
1808.585	101.23
1811.797	101.51
1815.01	102.18
1818.222	102.18
1821.434	104.02
1824.645	104.43
1827.856	105.76
1831.067	105.89
1834.278	106.78
1837.488	107.27
1840.698	107.77
1843.908	107.79
1847.117	109.11
1850.326	109.64
1853.535	110.35
1856.744	110.44
1859.952	111.64
1863.16	110.77
1866.368	110.55
1869.575	110.86
1872.782	109.71
1875.989	108.66
1879.196	107.84
1882.402	106
1885.608	106.73
1888.814	105.86
1892.019	105.82
1895.224	103.96
1898.429	104.4
1901.634	104.78
1904.838	104.14
1908.042	105.12
1911.246	105
1914.449	106.04
1917.652	106.27
1920.855	106.34
1924.058	104.61
1927.26	104.34
1930.462	104.76
1933.664	104.5
1936.865	104.55
1940.066	103.27
1943.267	102.22
1946.467	103.62
1949.668	103.26
1952.868	103.56
1956.067	102.75
1959.267	104.57
1962.466	104.69
1965.665	105.99
1968.863	106.93
1972.061	107.93
1975.259	111.15
1978.457	111.53
1981.654	111.95
1984.852	112.91
1988.048	114.18
1991.245	117.2
1994.441	118.99
1997.637	121.98
2000.833	124.49
2004.028	124.82
2007.223	128.32
2010.418	130.3
2013.613	136.66
2016.807	140.62
2020.001	143.33
2023.194	147.43
2026.388	151.12
2029.581	157.87
2032.774	161.66
2035.966	165.99
2039.158	171.54
2042.35	174.29
2045.542	176.83
2048.733	184.41
2051.924	187.27
2055.115	189.79
2058.306	191.95
2061.496	194.76
2064.686	196.83
2067.875	195.52
2071.065	197.57
2074.254	198.5
2077.442	205.62
2080.631	206.24
2083.819	206.08
2087.007	209.89
2090.195	215.21
2093.382	214.1
2096.569	214.76
2099.756	219.32
2102.942	224.47
2106.128	228.7
2109.314	230.24
2112.5	228.68
2115.685	229.02
2118.87	230.01
2122.055	229.49
2125.239	233.09
2128.424	240.06
2131.608	237.35
2134.791	234.04
2137.974	235.8
2141.157	236.87
2144.34	238.56
2147.523	241.33
2150.705	247.41
2153.887	246.42
2157.068	249.72
2160.25	251.76
2163.431	250.28
2166.611	258.16
2169.792	264.26
2172.972	267.49
2176.152	268.8
2179.331	276
2182.511	277.23
2185.69	281.38
2188.868	290.72
2192.047	294.17
2195.225	299.23
2198.403	302.22
2201.58	295.19
2204.758	305.61
2207.935	308.58
2211.111	314.67
2214.288	313.97
2217.464	318.59
2220.64	319.16
2223.815	320.68
2226.991	316.88
2230.166	320.2
2233.34	331.92
2236.515	342.01
2239.689	340.45
2242.863	341.47
2246.036	338.93
2249.209	347.51
2252.382	347.9
2255.555	359.73
2258.727	361.1
2261.9	375.87
2265.071	380.19
2268.243	377.77
2271.414	386.13
2274.585	389.74
2277.756	395.04
2280.926	405.82
2284.096	407.27
2287.266	407.59
2290.436	398.38
2293.605	408.82
2296.774	422.17
2299.942	418.05
2303.111	431.01
2306.279	438.35
2309.447	440.41
2312.614	442.76
2315.781	455.81
2318.948	462.42
2322.115	471.39
2325.281	496.2
2328.447	494.17
2331.613	493.01
2334.779	506.11
2337.944	508.93
2341.109	521.44
2344.274	527.83
2347.438	543.8
2350.602	553.33
2353.766	583.9
2356.929	587.21
2360.092	591.63
2363.255	592.29
2366.418	604.05
2369.58	615.98
2372.742	613.88
2375.904	612.38
2379.066	626.96
2382.227	665.75
2385.388	663.42
2388.548	635.94
2391.709	624.7
2394.869	649.6
2398.029	651.16
2401.188	654.51
2404.347	670.95
2407.506	695.26
2410.665	669.57
2413.823	670.06
2416.981	662.83
2420.139	635.25
2423.296	675.41
2426.453	727.05
2429.61	694.19
2432.767	736.59
2435.923	757.3
2439.079	731.67
2442.235	750.7
2445.391	771.37
2448.546	767.66
2451.701	808.78
2454.855	855.57
2458.009	766.58
2461.163	775.94
2464.317	783.43
2467.471	770.55
2470.624	794.92
2473.777	781.71
2476.929	755.92
2480.082	802.19
2483.234	841.65
2486.385	846.98
2489.537	870.52
2492.688	962.41
2495.839	947.54
2498.989	974.46
2502.14	979.42
2505.29	933.05
2508.439	1042.08
2511.589	1074.71
2514.738	1038.92
2517.887	1031.36
2521.035	978.84
2524.183	957.54
2527.331	938.93
2530.479	915.44
2533.627	936.01
