Data from N_1_dec_nc_4n_037_Splice17_06.txt Node
Date: Sat Feb 29 13:48:39 EST 2020
User: sa697716
Spectrometer: FLMS03696
Trigger mode: 0
Integration Time (sec): 3.180400E-1
Scans to average: 20
Electric dark correction enabled: true
Nonlinearity correction enabled: true
Boxcar width: 5
XAxis mode: Wavelengths
Number of Pixels in Spectrum: 2048
>>>>>Begin Spectral Data<<<<<
187.83	112.18
188.298	108.95
188.766	110.55
189.233	107.62
189.701	94.53
190.169	94.89
190.636	84.2
191.104	65.68
191.571	133.62
192.039	120.7
192.506	25.46
192.974	1767.95
193.441	218.38
193.908	83.28
194.375	69.32
194.842	13.91
195.31	38.23
195.777	5.84
196.244	52.59
196.711	73.9
197.177	74.46
197.644	76.34
198.111	76.53
198.578	77.7
199.045	77.59
199.511	77.86
199.978	78.26
200.445	77.83
200.911	77.73
201.378	77.39
201.844	77.78
202.31	78.01
202.777	77.7
203.243	77.82
203.709	77.02
204.176	76.51
204.642	76.17
205.108	74.93
205.574	75.04
206.04	74.32
206.506	73.99
206.972	73.07
207.438	72.1
207.903	71.02
208.369	69.29
208.835	68.5
209.301	67.4
209.766	65.71
210.232	64.48
210.697	62.71
211.163	61.17
211.628	59.85
212.094	58.31
212.559	56.9
213.024	55.61
213.49	54.5
213.955	53.14
214.42	51.72
214.885	49.63
215.35	47.41
215.815	44.42
216.28	41.24
216.745	37.7
217.21	34.05
217.675	30.64
218.14	27.55
218.604	24.55
219.069	22.11
219.534	19.97
219.998	18.41
220.463	17.05
220.927	15.83
221.392	14.85
221.856	13.94
222.32	13.19
222.785	12.61
223.249	12.06
223.713	11.62
224.177	11.15
224.642	10.76
225.106	10.37
225.57	10.02
226.034	9.75
226.497	9.47
226.961	9.18
227.425	8.94
227.889	8.69
228.353	8.43
228.816	8.24
229.28	8.03
229.744	7.87
230.207	7.71
230.671	7.53
231.134	7.37
231.597	7.2
232.061	7.07
232.524	6.96
232.987	6.82
233.45	6.72
233.914	6.6
234.377	6.48
234.84	6.39
235.303	6.3
235.766	6.22
236.229	6.14
236.691	6.09
237.154	6.04
237.617	5.96
238.08	5.89
238.542	5.83
239.005	5.77
239.468	5.71
239.93	5.65
240.393	5.58
240.855	5.5
241.317	5.44
241.78	5.39
242.242	5.31
242.704	5.26
243.166	5.22
243.629	5.15
244.091	5.11
244.553	5.05
245.015	4.99
245.477	4.94
245.939	4.9
246.4	4.83
246.862	4.78
247.324	4.75
247.786	4.68
248.247	4.62
248.709	4.58
249.17	4.53
249.632	4.49
250.093	4.44
250.555	4.4
251.016	4.36
251.477	4.32
251.939	4.27
252.4	4.24
252.861	4.21
253.322	4.17
253.783	4.14
254.244	4.1
254.705	4.07
255.166	4.06
255.627	4.02
256.088	3.99
256.549	3.96
257.009	3.93
257.47	3.89
257.931	3.85
258.391	3.82
258.852	3.78
259.312	3.74
259.773	3.7
260.233	3.65
260.694	3.62
261.154	3.58
261.614	3.55
262.074	3.52
262.534	3.48
262.994	3.45
263.455	3.42
263.915	3.39
264.374	3.35
264.834	3.33
265.294	3.29
265.754	3.27
266.214	3.24
266.673	3.22
267.133	3.2
267.593	3.18
268.052	3.16
268.512	3.13
268.971	3.12
269.431	3.11
269.89	3.09
270.349	3.08
270.809	3.07
271.268	3.06
271.727	3.04
272.186	3.03
272.645	3.01
273.104	3.01
273.563	3
274.022	2.99
274.481	2.99
274.94	2.97
275.399	2.97
275.857	2.96
276.316	2.95
276.775	2.94
277.233	2.93
277.692	2.93
278.15	2.92
278.609	2.91
279.067	2.9
279.525	2.89
279.984	2.89
280.442	2.89
280.9	2.89
281.358	2.89
281.816	2.88
282.274	2.88
282.732	2.88
283.19	2.89
283.648	2.89
284.106	2.89
284.564	2.9
285.021	2.9
285.479	2.89
285.937	2.88
286.394	2.88
286.852	2.89
287.309	2.88
287.767	2.87
288.224	2.86
288.682	2.84
289.139	2.83
289.596	2.81
290.053	2.79
290.511	2.76
290.968	2.75
291.425	2.73
291.882	2.71
292.339	2.69
292.796	2.67
293.252	2.65
293.709	2.64
294.166	2.62
294.623	2.62
295.079	2.62
295.536	2.61
295.992	2.6
296.449	2.59
296.905	2.58
297.362	2.57
297.818	2.56
298.274	2.55
298.731	2.55
299.187	2.54
299.643	2.53
300.099	2.53
300.555	2.52
301.011	2.51
301.467	2.5
301.923	2.5
302.379	2.5
302.835	2.5
303.291	2.49
303.746	2.48
304.202	2.49
304.658	2.49
305.113	2.48
305.569	2.49
306.024	2.49
306.479	2.49
306.935	2.5
307.39	2.5
307.845	2.51
308.301	2.5
308.756	2.51
309.211	2.52
309.666	2.51
310.121	2.51
310.576	2.51
311.031	2.52
311.486	2.53
311.94	2.53
312.395	2.53
312.85	2.54
313.305	2.55
313.759	2.55
314.214	2.55
314.668	2.56
315.123	2.56
315.577	2.56
316.032	2.55
316.486	2.54
316.94	2.54
317.394	2.53
317.849	2.52
318.303	2.51
318.757	2.5
319.211	2.48
319.665	2.46
320.119	2.46
320.572	2.46
321.026	2.45
321.48	2.44
321.934	2.44
322.387	2.43
322.841	2.42
323.295	2.41
323.748	2.41
324.202	2.41
324.655	2.42
325.108	2.4
325.562	2.39
326.015	2.38
326.468	2.37
326.921	2.37
327.374	2.37
327.827	2.38
328.28	2.37
328.733	2.37
329.186	2.37
329.639	2.36
330.092	2.36
330.545	2.36
330.997	2.37
331.45	2.38
331.903	2.39
332.355	2.39
332.808	2.4
333.26	2.4
333.713	2.42
334.165	2.43
334.617	2.45
335.069	2.46
335.522	2.46
335.974	2.47
336.426	2.48
336.878	2.48
337.33	2.48
337.782	2.49
338.234	2.5
338.686	2.49
339.137	2.49
339.589	2.48
340.041	2.47
340.493	2.46
340.944	2.44
341.396	2.43
341.847	2.42
342.299	2.41
342.75	2.38
343.201	2.37
343.653	2.35
344.104	2.33
344.555	2.32
345.006	2.32
345.457	2.31
345.908	2.3
346.359	2.3
346.81	2.3
347.261	2.3
347.712	2.3
348.163	2.3
348.613	2.29
349.064	2.28
349.515	2.28
349.965	2.27
350.416	2.28
350.866	2.28
351.317	2.27
351.767	2.27
352.217	2.27
352.668	2.27
353.118	2.28
353.568	2.28
354.018	2.29
354.468	2.29
354.918	2.32
355.368	2.32
355.818	2.3
356.268	2.31
356.718	2.31
357.168	2.31
357.617	2.32
358.067	2.31
358.517	2.31
358.966	2.31
359.416	2.32
359.865	2.31
360.315	2.32
360.764	2.33
361.213	2.33
361.663	2.33
362.112	2.34
362.561	2.34
363.01	2.35
363.459	2.34
363.908	2.34
364.357	2.34
364.806	2.33
365.255	2.33
365.703	2.33
366.152	2.33
366.601	2.34
367.05	2.35
367.498	2.36
367.947	2.36
368.395	2.38
368.844	2.39
369.292	2.4
369.74	2.42
370.189	2.41
370.637	2.42
371.085	2.43
371.533	2.42
371.981	2.43
372.429	2.42
372.877	2.43
373.325	2.44
373.773	2.43
374.221	2.44
374.669	2.45
375.116	2.46
375.564	2.46
376.012	2.46
376.459	2.48
376.907	2.48
377.354	2.5
377.801	2.5
378.249	2.5
378.696	2.53
379.143	2.54
379.591	2.55
380.038	2.57
380.485	2.6
380.932	2.61
381.379	2.61
381.826	2.63
382.273	2.63
382.72	2.65
383.166	2.66
383.613	2.66
384.06	2.67
384.506	2.68
384.953	2.69
385.4	2.69
385.846	2.71
386.292	2.73
386.739	2.75
387.185	2.78
387.631	2.8
388.078	2.83
388.524	2.83
388.97	2.84
389.416	2.85
389.862	2.87
390.308	2.88
390.754	2.9
391.2	2.92
391.645	2.94
392.091	2.95
392.537	2.96
392.983	2.98
393.428	3.01
393.874	3.04
394.319	3.06
394.765	3.08
395.21	3.09
395.655	3.11
396.101	3.12
396.546	3.12
396.991	3.13
397.436	3.13
397.881	3.15
398.326	3.17
398.771	3.16
399.216	3.18
399.661	3.21
400.106	3.23
400.551	3.22
400.995	3.22
401.44	3.21
401.885	3.22
402.329	3.22
402.774	3.21
403.218	3.21
403.663	3.2
404.107	3.21
404.551	3.2
404.995	3.18
405.44	3.19
405.884	3.2
406.328	3.2
406.772	3.2
407.216	3.21
407.66	3.22
408.104	3.22
408.547	3.23
408.991	3.22
409.435	3.21
409.879	3.23
410.322	3.24
410.766	3.24
411.209	3.26
411.653	3.26
412.096	3.25
412.54	3.25
412.983	3.26
413.426	3.28
413.869	3.3
414.312	3.32
414.756	3.34
415.199	3.34
415.642	3.37
416.085	3.39
416.527	3.39
416.97	3.4
417.413	3.41
417.856	3.4
418.298	3.37
418.741	3.37
419.184	3.35
419.626	3.34
420.069	3.33
420.511	3.32
420.953	3.3
421.396	3.3
421.838	3.33
422.28	3.35
422.722	3.36
423.164	3.37
423.606	3.39
424.048	3.38
424.49	3.39
424.932	3.38
425.374	3.39
425.816	3.38
426.258	3.36
426.699	3.32
427.141	3.31
427.582	3.32
428.024	3.34
428.465	3.35
428.907	3.37
429.348	3.36
429.789	3.38
430.231	3.38
430.672	3.41
431.113	3.45
431.554	3.48
431.995	3.49
432.436	3.49
432.877	3.47
433.318	3.47
433.759	3.48
434.2	3.52
434.64	3.53
435.081	3.53
435.522	3.56
435.962	3.58
436.403	3.59
436.843	3.6
437.284	3.64
437.724	3.67
438.164	3.67
438.604	3.68
439.045	3.68
439.485	3.7
439.925	3.73
440.365	3.7
440.805	3.69
441.245	3.67
441.685	3.7
442.125	3.69
442.564	3.71
443.004	3.72
443.444	3.74
443.883	3.75
444.323	3.75
444.762	3.75
445.202	3.79
445.641	3.82
446.081	3.86
446.52	3.85
446.959	3.87
447.398	3.9
447.837	3.94
448.276	3.94
448.716	3.95
449.154	3.97
449.593	3.99
450.032	4
450.471	4.01
450.91	4.01
451.349	4.01
451.787	4
452.226	3.97
452.664	3.94
453.103	3.93
453.541	3.92
453.98	3.9
454.418	3.86
454.856	3.82
455.295	3.8
455.733	3.78
456.171	3.77
456.609	3.77
457.047	3.76
457.485	3.76
457.923	3.75
458.361	3.74
458.798	3.75
459.236	3.76
459.674	3.75
460.111	3.75
460.549	3.75
460.987	3.75
461.424	3.75
461.862	3.75
462.299	3.74
462.736	3.74
463.173	3.75
463.611	3.74
464.048	3.75
464.485	3.77
464.922	3.77
465.359	3.79
465.796	3.79
466.233	3.8
466.67	3.81
467.106	3.83
467.543	3.84
467.98	3.86
468.416	3.88
468.853	3.88
469.29	3.88
469.726	3.9
470.162	3.88
470.599	3.87
471.035	3.86
471.471	3.85
471.907	3.82
472.344	3.81
472.78	3.79
473.216	3.77
473.652	3.75
474.088	3.76
474.523	3.75
474.959	3.73
475.395	3.72
475.831	3.72
476.266	3.72
476.702	3.72
477.138	3.72
477.573	3.71
478.008	3.7
478.444	3.7
478.879	3.68
479.314	3.67
479.75	3.68
480.185	3.66
480.62	3.65
481.055	3.64
481.49	3.62
481.925	3.59
482.36	3.58
482.795	3.56
483.229	3.54
483.664	3.52
484.099	3.51
484.534	3.51
484.968	3.52
485.403	3.52
485.837	3.52
486.271	3.52
486.706	3.52
487.14	3.53
487.574	3.55
488.009	3.56
488.443	3.58
488.877	3.6
489.311	3.61
489.745	3.62
490.179	3.64
490.613	3.67
491.046	3.7
491.48	3.73
491.914	3.76
492.348	3.8
492.781	3.83
493.215	3.87
493.648	3.92
494.082	3.97
494.515	4.02
494.948	4.08
495.382	4.14
495.815	4.19
496.248	4.26
496.681	4.32
497.114	4.39
497.547	4.48
497.98	4.55
498.413	4.62
498.846	4.7
499.279	4.79
499.711	4.88
500.144	4.97
500.577	5.08
501.009	5.19
501.442	5.31
501.874	5.43
502.306	5.55
502.739	5.68
503.171	5.82
503.603	5.98
504.036	6.13
504.468	6.3
504.9	6.48
505.332	6.67
505.764	6.85
506.196	7.04
506.627	7.24
507.059	7.45
507.491	7.67
507.923	7.89
508.354	8.12
508.786	8.36
509.217	8.59
509.649	8.84
510.08	9.1
510.512	9.36
510.943	9.64
511.374	9.92
511.805	10.21
512.237	10.5
512.668	10.79
513.099	11.1
513.53	11.42
513.961	11.76
514.391	12.07
514.822	12.4
515.253	12.74
515.684	13.07
516.114	13.4
516.545	13.75
516.975	14.1
517.406	14.46
517.836	14.8
518.267	15.13
518.697	15.47
519.127	15.82
519.558	16.17
519.988	16.5
520.418	16.83
520.848	17.15
521.278	17.48
521.708	17.66
522.138	17.95
522.567	18.28
522.997	18.59
523.427	18.88
523.857	19.17
524.286	19.44
524.716	19.7
525.145	19.97
525.575	20.24
526.004	20.51
526.433	20.9
526.863	21.15
527.292	21.36
527.721	21.57
528.15	21.78
528.579	22
529.008	22.19
529.437	22.39
529.866	22.56
530.295	22.73
530.724	22.89
531.152	23.03
531.581	23.19
532.01	23.33
532.438	23.45
532.867	23.59
533.295	23.69
533.723	23.82
534.152	23.95
534.58	24.04
535.008	24.11
535.436	24.18
535.865	24.26
536.293	24.34
536.721	24.42
537.149	24.5
537.576	24.57
538.004	24.62
538.432	24.66
538.86	24.7
539.287	24.75
539.715	24.81
540.143	24.86
540.57	24.91
540.998	24.95
541.425	24.98
541.852	25.02
542.28	25.03
542.707	25.08
543.134	25.13
543.561	25.13
543.988	25.18
544.415	25.21
544.842	25.25
545.269	25.27
545.696	25.29
546.123	25.32
546.549	25.34
546.976	25.38
547.403	25.38
547.829	25.4
548.256	25.43
548.682	25.45
549.108	25.46
549.535	25.46
549.961	25.47
550.387	25.47
550.813	25.44
551.24	25.44
551.666	25.46
552.092	25.47
552.518	25.45
552.943	25.44
553.369	25.41
553.795	25.39
554.221	25.37
554.646	25.32
555.072	25.3
555.498	25.27
555.923	25.21
556.349	25.14
556.774	25.06
557.199	24.99
557.625	24.91
558.05	24.83
558.475	24.73
558.9	24.64
559.325	24.56
559.75	24.44
560.175	24.33
560.6	24.21
561.025	24.1
561.449	23.98
561.874	23.84
562.299	23.7
562.723	23.54
563.148	23.4
563.572	23.26
563.997	23.11
564.421	22.94
564.846	22.79
565.27	22.63
565.694	22.45
566.118	22.28
566.542	22.11
566.966	21.93
567.39	21.74
567.814	21.56
568.238	21.36
568.662	21.18
569.086	20.99
569.509	20.81
569.933	20.62
570.357	20.41
570.78	20.23
571.204	20.05
571.627	19.87
572.05	19.71
572.474	19.56
572.897	19.38
573.32	19.22
573.743	19.06
574.166	18.9
574.589	18.76
575.012	18.63
575.435	18.47
575.858	18.33
576.281	18.21
576.704	18.09
577.126	17.94
577.549	17.83
577.972	17.7
578.394	17.59
578.817	17.47
579.239	17.36
579.661	17.27
580.084	17.17
580.506	17.07
580.928	16.96
581.35	16.84
581.772	16.75
582.194	16.64
582.616	16.57
583.038	16.49
583.46	16.41
583.882	16.33
584.303	16.22
584.725	16.13
585.147	16.03
585.568	15.95
585.99	15.89
586.411	15.83
586.833	15.76
587.254	15.69
587.675	15.62
588.096	15.54
588.518	15.46
588.939	15.42
589.36	15.38
589.781	15.34
590.202	15.28
590.623	15.21
591.043	15.14
591.464	15.09
591.885	15.03
592.305	14.98
592.726	14.95
593.147	14.91
593.567	14.86
593.987	14.81
594.408	14.74
594.828	14.69
595.248	14.65
595.669	14.63
596.089	14.59
596.509	14.53
596.929	14.47
597.349	14.41
597.769	14.36
598.189	14.32
598.608	14.28
599.028	14.26
599.448	14.22
599.867	14.17
600.287	14.12
600.706	14.07
601.126	14.03
601.545	13.99
601.965	13.93
602.384	13.88
602.803	13.82
603.222	13.74
603.641	13.67
604.061	13.6
604.48	13.54
604.898	13.47
605.317	13.39
605.736	13.31
606.155	13.22
606.574	13.13
606.992	13.04
607.411	12.97
607.829	12.84
608.248	12.75
608.666	12.66
609.085	12.56
609.503	12.46
609.921	12.37
610.339	12.3
610.758	12.22
611.176	12.14
611.594	12.05
612.012	11.96
612.43	11.93
612.847	11.85
613.265	11.77
613.683	11.69
614.101	11.61
614.518	11.54
614.936	11.45
615.353	11.37
615.771	11.31
616.188	11.25
616.606	11.17
617.023	11.1
617.44	11.04
617.857	10.98
618.274	10.92
618.691	10.88
619.108	10.83
619.525	10.79
619.942	10.74
620.359	10.7
620.776	10.67
621.192	10.64
621.609	10.6
622.026	10.57
622.442	10.54
622.859	10.51
623.275	10.49
623.691	10.48
624.108	10.45
624.524	10.43
624.94	10.41
625.356	10.4
625.772	10.39
626.188	10.39
626.604	10.37
627.02	10.36
627.436	10.35
627.852	10.33
628.268	10.3
628.683	10.28
629.099	10.27
629.514	10.24
629.93	10.22
630.345	10.17
630.761	10.13
631.176	10.11
631.591	10.06
632.007	10.01
632.422	9.97
632.837	9.92
633.252	9.86
633.667	9.79
634.082	9.72
634.497	9.64
634.911	9.55
635.326	9.45
635.741	9.35
636.155	9.26
636.57	9.15
636.984	9.02
637.399	8.88
637.813	8.74
638.228	8.59
638.642	8.47
639.056	8.34
639.47	8.2
639.884	8.06
640.298	7.93
640.712	7.78
641.126	7.66
641.54	7.53
641.954	7.42
642.368	7.31
642.781	7.2
643.195	7.07
643.609	6.95
644.022	6.85
644.436	6.75
644.849	6.65
645.262	6.56
645.676	6.47
646.089	6.37
646.502	6.29
646.915	6.21
647.328	6.14
647.741	6.07
648.154	6
648.567	5.94
648.98	5.89
649.393	5.85
649.805	5.8
650.218	5.77
650.631	5.73
651.043	5.7
651.456	5.67
651.868	5.64
652.28	5.62
652.693	5.59
653.105	5.55
653.517	5.52
653.929	5.48
654.341	5.45
654.753	5.39
655.165	5.34
655.577	5.27
655.989	5.2
656.401	5.14
656.813	5.06
657.224	5
657.636	4.95
658.047	4.87
658.459	4.79
658.87	4.71
659.282	4.66
659.693	4.6
660.104	4.53
660.515	4.47
660.926	4.41
661.338	4.35
661.749	4.28
662.159	4.21
662.57	4.16
662.981	4.11
663.392	4.05
663.803	4
664.213	3.95
664.624	3.93
665.035	3.89
665.445	3.86
665.855	3.84
666.266	3.83
666.676	3.8
667.086	3.79
667.497	3.77
667.907	3.76
668.317	3.75
668.727	3.73
669.137	3.73
669.547	3.75
669.956	3.74
670.366	3.74
670.776	3.75
671.186	3.76
671.595	3.76
672.005	3.79
672.414	3.82
672.824	3.87
673.233	3.91
673.642	3.93
674.052	3.95
674.461	4
674.87	4.04
675.279	4.07
675.688	4.11
676.097	4.16
676.506	4.2
676.915	4.24
677.323	4.28
677.732	4.32
678.141	4.37
678.549	4.42
678.958	4.48
679.366	4.53
679.775	4.6
680.183	4.66
680.592	4.74
681	4.82
681.408	4.91
681.816	4.98
682.224	5.09
682.632	5.21
683.04	5.33
683.448	5.46
683.856	5.62
684.264	5.79
684.671	5.99
685.079	6.2
685.487	6.43
685.894	6.68
686.302	6.98
686.709	7.28
687.116	7.62
687.524	7.98
687.931	8.36
688.338	8.79
688.745	9.23
689.152	9.71
689.559	10.21
689.966	10.74
690.373	11.31
690.78	11.89
691.187	12.47
691.593	13.07
692	13.7
692.407	14.35
692.813	15.01
693.22	15.69
693.626	16.38
694.032	17.07
694.439	17.75
694.845	18.45
695.251	19.17
695.657	19.88
696.063	20.6
696.469	21.32
696.875	22.01
697.281	22.68
697.687	23.39
698.093	24.07
698.498	24.76
698.904	25.44
699.31	26.09
699.715	26.74
700.12	27.37
700.526	27.99
700.931	28.59
701.337	29.2
701.742	29.8
702.147	30.36
702.552	30.9
702.957	31.43
703.362	31.99
703.767	32.54
704.172	33.06
704.577	33.59
704.981	34.11
705.386	34.62
705.791	35.13
706.195	35.6
706.6	36.08
707.004	36.58
707.408	37.03
707.813	37.44
708.217	37.86
708.621	38.28
709.025	38.69
709.43	39.08
709.834	39.49
710.237	39.86
710.641	40.3
711.045	40.69
711.449	41.03
711.853	41.42
712.256	41.81
712.66	42.18
713.064	42.53
713.467	42.87
713.87	43.24
714.274	43.59
714.677	43.92
715.08	44.2
715.484	44.56
715.887	44.91
716.29	45.22
716.693	45.52
717.096	45.83
717.499	46.11
717.901	46.39
718.304	46.66
718.707	46.93
719.109	47.22
719.512	47.5
719.915	47.75
720.317	47.95
720.719	48.18
721.122	48.41
721.524	48.66
721.926	48.91
722.328	49.13
722.731	49.33
723.133	49.55
723.535	49.75
723.937	49.97
724.338	50.1
724.74	50.31
725.142	50.45
725.544	50.61
725.945	50.73
726.347	50.91
726.748	51.05
727.15	51.26
727.551	51.4
727.952	51.55
728.354	51.64
728.755	51.79
729.156	51.92
729.557	52.09
729.958	52.26
730.359	52.37
730.76	52.44
731.161	52.57
731.562	52.62
731.962	52.71
732.363	52.79
732.763	52.92
733.164	53
733.564	53.08
733.965	53.15
734.365	53.18
734.766	53.28
735.166	53.32
735.566	53.35
735.966	53.41
736.366	53.47
736.766	53.5
737.166	53.54
737.566	53.58
737.966	53.6
738.365	53.63
738.765	53.67
739.165	53.67
739.564	53.71
739.964	53.75
740.363	53.8
740.763	53.84
741.162	53.88
741.561	53.94
741.96	53.97
742.36	54.06
742.759	54.11
743.158	54.13
743.557	54.17
743.955	54.26
744.354	54.34
744.753	54.38
745.152	54.4
745.55	54.42
745.949	54.42
746.348	54.48
746.746	54.46
747.144	54.5
747.543	54.55
747.941	54.62
748.339	54.63
748.737	54.66
749.136	54.66
749.534	54.71
749.932	54.72
750.33	54.74
750.727	54.74
751.125	54.78
751.523	54.75
751.921	54.75
752.318	54.73
752.716	54.72
753.113	54.68
753.511	54.65
753.908	54.61
754.305	54.59
754.703	54.53
755.1	54.53
755.497	54.51
755.894	54.51
756.291	54.5
756.688	54.49
757.085	54.51
757.482	54.51
757.878	54.53
758.275	54.56
758.672	54.62
759.068	54.67
759.465	54.64
759.861	54.63
760.258	54.62
760.654	54.61
761.05	54.64
761.447	54.6
761.843	54.58
762.239	54.55
762.635	54.52
763.031	54.47
763.427	54.41
763.822	54.42
764.218	54.43
764.614	54.41
765.01	54.37
765.405	54.33
765.801	54.33
766.196	54.31
766.592	54.33
766.987	54.33
767.382	54.33
767.778	54.38
768.173	54.39
768.568	54.33
768.963	54.34
769.358	54.36
769.753	54.36
770.148	54.35
770.542	54.34
770.937	54.33
771.332	54.31
771.726	54.3
772.121	54.24
772.515	54.24
772.91	54.26
773.304	54.3
773.699	54.29
774.093	54.27
774.487	54.31
774.881	54.35
775.275	54.34
775.669	54.35
776.063	54.33
776.457	54.33
776.851	54.31
777.245	54.29
777.638	54.27
778.032	54.26
778.425	54.3
778.819	54.27
779.212	54.23
779.606	54.19
779.999	54.18
780.392	54.2
780.786	54.19
781.179	54.18
781.572	54.17
781.965	54.21
782.358	54.17
782.751	54.13
783.143	54.12
783.536	54.16
783.929	54.2
784.322	54.24
784.714	54.25
785.107	54.26
785.499	54.28
785.891	54.3
786.284	54.27
786.676	54.32
787.068	54.31
787.46	54.32
787.852	54.29
788.245	54.29
788.636	54.28
789.028	54.27
789.42	54.27
789.812	54.27
790.204	54.24
790.595	54.26
790.987	54.29
791.378	54.31
791.77	54.32
792.161	54.33
792.553	54.32
792.944	54.32
793.335	54.36
793.726	54.33
794.117	54.31
794.508	54.33
794.899	54.32
795.29	54.31
795.681	54.31
796.072	54.3
796.463	54.29
796.853	54.3
797.244	54.3
797.634	54.25
798.025	54.28
798.415	54.34
798.806	54.32
799.196	54.35
799.586	54.33
799.976	54.33
800.366	54.33
800.756	54.35
801.146	54.36
801.536	54.35
801.926	54.35
802.316	54.37
802.706	54.34
803.095	54.37
803.485	54.36
803.874	54.36
804.264	54.39
804.653	54.37
805.043	54.37
805.432	54.37
805.821	54.35
806.21	54.38
806.599	54.41
806.988	54.4
807.377	54.45
807.766	54.42
808.155	54.44
808.544	54.41
808.933	54.41
809.321	54.42
809.71	54.43
810.098	54.44
810.487	54.42
810.875	54.38
811.264	54.41
811.652	54.34
812.04	54.36
812.428	54.38
812.816	54.42
813.204	54.44
813.592	54.43
813.98	54.41
814.368	54.38
814.756	54.36
815.144	54.37
815.531	54.33
815.919	54.35
816.306	54.33
816.694	54.28
817.081	54.25
817.469	54.23
817.856	54.26
818.243	54.24
818.63	54.34
819.017	54.36
819.404	54.36
819.791	54.37
820.178	54.39
820.565	54.4
820.952	54.44
821.339	54.47
821.725	54.49
822.112	54.47
822.498	54.51
822.885	54.47
823.271	54.49
823.657	54.49
824.044	54.5
824.43	54.5
824.816	54.52
825.202	54.5
825.588	54.48
825.974	54.49
826.36	54.49
826.746	54.51
827.132	54.48
827.517	54.46
827.903	54.48
828.289	54.47
828.674	54.46
829.06	54.47
829.445	54.49
829.83	54.51
830.216	54.5
830.601	54.5
830.986	54.47
831.371	54.51
831.756	54.51
832.141	54.51
832.526	54.5
832.911	54.52
833.295	54.5
833.68	54.47
834.065	54.48
834.449	54.48
834.834	54.47
835.218	54.45
835.603	54.43
835.987	54.43
836.371	54.42
836.755	54.44
837.139	54.43
837.524	54.44
837.908	54.45
838.291	54.42
838.675	54.44
839.059	54.43
839.443	54.44
839.827	54.43
840.21	54.47
840.594	54.46
840.977	54.42
841.361	54.41
841.744	54.44
842.127	54.42
842.511	54.41
842.894	54.37
843.277	54.4
843.66	54.41
844.043	54.41
844.426	54.41
844.809	54.41
845.191	54.4
845.574	54.39
845.957	54.34
846.339	54.35
846.722	54.35
847.104	54.36
847.487	54.35
847.869	54.34
848.252	54.34
848.634	54.32
849.016	54.35
849.398	54.37
849.78	54.36
850.162	54.36
850.544	54.39
850.926	54.37
851.307	54.39
851.689	54.35
852.071	54.35
852.452	54.36
852.834	54.33
853.215	54.31
853.597	54.3
853.978	54.29
854.359	54.3
854.741	54.27
855.122	54.31
855.503	54.31
855.884	54.31
856.265	54.3
856.646	54.26
857.026	54.27
857.407	54.24
857.788	54.24
858.169	54.26
858.549	54.29
858.93	54.3
859.31	54.23
859.69	54.21
860.071	54.23
860.451	54.24
860.831	54.25
861.211	54.23
861.591	54.25
861.971	54.26
862.351	54.25
862.731	54.23
863.111	54.2
863.491	54.23
863.87	54.23
864.25	54.24
864.629	54.21
865.009	54.22
865.388	54.22
865.768	54.22
866.147	54.23
866.526	54.23
866.905	54.24
867.284	54.24
867.663	54.25
868.042	54.24
868.421	54.22
868.8	54.25
869.179	54.24
869.558	54.23
869.936	54.24
870.315	54.24
870.693	54.25
871.072	54.21
871.45	54.22
871.828	54.2
872.207	54.22
872.585	54.23
872.963	54.19
873.341	54.19
873.719	54.2
874.097	54.2
874.475	54.18
874.853	54.15
875.23	54.21
875.608	54.22
875.986	54.23
876.363	54.2
876.741	54.18
877.118	54.19
877.495	54.17
877.873	54.19
878.25	54.18
878.627	54.17
879.004	54.19
879.381	54.13
879.758	54.08
880.135	54.08
880.512	54.1
880.889	54.11
881.265	54.15
881.642	54.15
882.019	54.13
882.395	54.15
882.772	54.16
883.148	54.13
883.524	54.16
883.901	54.15
884.277	54.15
884.653	54.15
885.029	54.12
885.405	54.11
885.781	54.11
886.157	54.1
886.532	54.08
886.908	54.08
887.284	54.09
887.659	54.1
888.035	54.13
888.411	54.1
888.786	54.11
889.161	54.11
889.537	54.1
889.912	54.09
890.287	54.05
890.662	54.04
891.037	54.01
891.412	53.99
891.787	53.98
892.162	53.94
892.536	53.95
892.911	53.91
893.286	53.89
893.66	53.87
894.035	53.87
894.409	53.88
894.784	53.89
895.158	53.91
895.532	53.89
895.906	53.88
896.281	53.9
896.655	53.88
897.029	53.9
897.402	53.92
897.776	53.9
898.15	53.9
898.524	53.9
898.898	53.87
899.271	53.84
899.645	53.86
900.018	53.84
900.392	53.85
900.765	53.89
901.138	53.87
901.511	53.86
901.884	53.89
902.258	53.87
902.631	53.89
903.003	53.9
903.376	53.89
903.749	53.88
904.122	53.89
904.495	53.87
904.867	53.81
905.24	53.78
905.612	53.79
905.985	53.74
906.357	53.73
906.729	53.7
907.102	53.7
907.474	53.7
907.846	53.68
908.218	53.66
908.59	53.64
908.962	53.65
909.334	53.64
909.705	53.63
910.077	53.6
910.449	53.62
910.82	53.62
911.192	53.6
911.563	53.61
911.935	53.6
912.306	53.57
912.677	53.61
913.048	53.63
913.419	53.65
913.79	53.67
914.161	53.67
914.532	53.66
914.903	53.68
915.274	53.66
915.645	53.64
916.015	53.69
916.386	53.71
916.756	53.66
917.127	53.64
917.497	53.66
917.868	53.62
918.238	53.65
918.608	53.67
918.978	53.69
919.348	53.68
919.718	53.68
920.088	53.65
920.458	53.7
920.828	53.72
921.198	53.75
921.567	53.73
921.937	53.76
922.306	53.74
922.676	53.72
923.045	53.71
923.415	53.72
923.784	53.73
924.153	53.73
924.522	53.66
924.891	53.65
925.26	53.63
925.629	53.61
925.998	53.61
926.367	53.65
926.736	53.63
927.104	53.61
927.473	53.62
927.842	53.56
928.21	53.58
928.578	53.61
928.947	53.59
929.315	53.59
929.683	53.63
930.051	53.6
930.42	53.58
930.788	53.6
931.156	53.59
931.523	53.58
931.891	53.56
932.259	53.5
932.627	53.44
932.994	53.46
933.362	53.36
933.729	53.35
934.097	53.35
934.464	53.31
934.831	53.28
935.199	53.28
935.566	53.27
935.933	53.33
936.3	53.32
936.667	53.32
937.034	53.31
937.401	53.33
937.767	53.26
938.134	53.3
938.501	53.3
938.867	53.34
939.234	53.34
939.6	53.32
939.967	53.26
940.333	53.45
940.699	53.54
941.065	53.56
941.431	53.78
941.798	53.98
942.163	54.03
942.529	54.14
942.895	54.22
943.261	54.3
943.627	54.52
943.992	54.61
944.358	54.49
944.723	54.45
945.089	54.52
945.454	54.51
945.82	54.4
946.185	54.35
946.55	54.34
946.915	54.33
947.28	54.31
947.645	54.25
948.01	54.28
948.375	54.41
948.74	54.42
949.104	54.44
949.469	54.32
949.834	54.26
950.198	54.18
950.562	54.14
950.927	54.14
951.291	54.11
951.655	54.07
952.02	54.01
952.384	53.92
952.748	53.84
953.112	53.79
953.476	53.84
953.839	53.86
954.203	53.85
954.567	53.74
954.931	53.69
955.294	53.64
955.658	53.51
956.021	53.5
956.385	53.47
956.748	53.54
957.111	53.42
957.474	53.39
957.837	53.37
958.2	53.3
958.563	53.29
958.926	53.23
959.289	53.26
959.652	53.33
960.015	53.3
960.377	53.32
960.74	53.27
961.102	53.29
961.465	53.28
961.827	53.17
962.189	53.21
962.552	53.19
962.914	53.19
963.276	53.1
963.638	53.06
964	53.06
964.362	53.05
964.724	53.05
965.085	53.1
965.447	53
965.809	53.05
966.17	53.02
966.532	53.02
966.893	53.05
967.255	53.01
967.616	52.96
967.977	52.92
968.338	52.84
968.699	52.82
969.061	52.75
969.421	52.77
969.782	52.81
970.143	52.83
970.504	52.82
970.865	52.8
971.225	52.91
971.586	52.93
971.946	52.95
972.307	52.93
972.667	52.95
973.027	53.01
973.388	53
973.748	52.97
974.108	52.97
974.468	52.99
974.828	52.95
975.188	52.85
975.548	52.86
975.907	52.89
976.267	52.96
976.627	52.98
976.986	52.95
977.346	53.02
977.705	53.04
978.064	53.1
978.424	53.11
978.783	53.17
979.142	53.32
979.501	53.26
979.86	53.28
980.219	53.26
980.578	53.17
980.937	53.2
981.296	53.2
981.654	53.3
982.013	53.32
982.371	53.33
982.73	53.29
983.088	53.11
983.447	53.15
983.805	53.1
984.163	53.12
984.521	53.19
984.879	53.25
985.237	53.26
985.595	53.26
985.953	53.22
986.311	53.21
986.669	53.3
987.026	53.43
987.384	53.51
987.741	53.62
988.099	53.6
988.456	53.68
988.814	53.69
989.171	53.72
989.528	53.63
989.885	53.6
990.242	53.66
990.599	53.72
990.956	53.67
991.313	53.75
991.67	53.74
992.027	53.83
992.383	53.68
992.74	53.59
993.096	53.62
993.453	53.72
993.809	53.84
994.165	53.93
994.522	53.84
994.878	53.9
995.234	53.9
995.59	53.8
995.946	53.86
996.302	53.9
996.658	54.03
997.013	54.07
997.369	54.07
997.725	54.11
998.08	54.11
998.436	54.29
998.791	54.2
999.147	54.29
999.502	54.45
999.857	54.47
1000.212	54.48
1000.567	54.39
1000.922	54.37
1001.277	54.47
1001.632	54.45
1001.987	54.36
1002.342	54.24
1002.696	54.61
1003.051	54.42
1003.406	54.48
1003.76	54.49
1004.114	54.87
1004.469	54.99
1004.823	55.03
1005.177	55.21
1005.531	55.2
1005.885	55.48
1006.239	55.61
1006.593	55.49
1006.947	55.62
1007.301	55.69
1007.655	55.81
1008.008	55.6
1008.362	55.53
1008.715	55.65
1009.069	55.28
1009.422	55.31
1009.776	55.25
1010.129	55.2
1010.482	55.28
1010.835	55.59
1011.188	55.51
1011.541	55.4
1011.894	55.62
1012.247	55.75
1012.6	55.7
1012.952	55.91
1013.305	56.01
1013.657	56.15
1014.01	56.14
1014.362	56.22
1014.715	56.07
1015.067	56.17
1015.419	56.33
1015.771	56.3
1016.123	56.41
1016.475	56.63
1016.827	56.89
1017.179	57.06
1017.531	57.09
1017.883	57.29
1018.234	57.14
1018.586	57.21
1018.938	57.28
1019.289	57.25
1019.64	57.29
1019.992	57.61
1020.343	57.42
1020.694	57.28
1021.045	57.28
1021.396	57.54
1021.747	57.91
1022.098	58.38
1022.449	58.42
1022.8	58.56
1023.151	58.77
1023.501	58.95
1023.852	58.83
1024.202	59.18
1024.553	59.33
1024.903	59.46
1025.253	59.52
1025.604	59.54
1025.954	59.59
1026.304	60.26
1026.654	60.35
1027.004	60.47
1027.354	60.63
1027.703	60.73
1028.053	60.68
1028.403	60.93
1028.753	61.19
1029.102	61.17
1029.452	61.26
1029.801	61.26
1030.15	60.89
1030.499	61.11
897.758	541.78
901.051	556.47
904.343	558.59
907.636	550.45
910.928	541.52
914.22	550.36
917.511	535.18
920.803	515.29
924.094	493
927.384	498.74
930.675	481.66
933.965	479.63
937.255	475.93
940.544	457.7
943.834	437.02
947.123	430.64
950.411	409.3
953.7	403.41
956.988	390.58
960.276	369.91
963.563	368.15
966.851	349.44
970.138	342.96
973.424	319.54
976.711	316.18
979.997	305.73
983.283	298.02
986.568	288.49
989.853	280.12
993.138	269.43
996.423	269.61
999.708	259.58
1002.992	260.37
1006.275	253.31
1009.559	251.49
1012.842	242.15
1016.125	235.67
1019.408	232.47
1022.69	230.65
1025.972	228.99
1029.254	223.1
1032.536	218.73
1035.817	210.91
1039.098	209.01
1042.379	204.02
1045.659	201.42
1048.939	200.14
1052.219	197.15
1055.498	192.75
1058.778	188.96
1062.057	185.53
1065.335	185.85
1068.614	182.02
1071.892	180.16
1075.17	177.01
1078.447	174.9
1081.724	173.22
1085.001	169.7
1088.278	169.53
1091.554	168.55
1094.83	167.31
1098.106	165.28
1101.382	164.23
1104.657	164.18
1107.932	163.51
1111.206	161.69
1114.481	160.3
1117.755	158.51
1121.029	158.68
1124.302	155.74
1127.575	153.73
1130.848	153.46
1134.121	151.41
1137.393	150.87
1140.665	149.83
1143.937	148.43
1147.208	146.85
1150.48	145.91
1153.75	145.69
1157.021	144.34
1160.291	143.41
1163.561	143.93
1166.831	142.04
1170.101	141.67
1173.37	140.86
1176.639	139.31
1179.907	139.41
1183.176	139.41
1186.444	138.71
1189.711	138.07
1192.979	139.32
1196.246	139.57
1199.513	138.48
1202.78	139.34
1206.046	139.15
1209.312	139.57
1212.578	140.21
1215.843	141.96
1219.108	142.3
1222.373	144.87
1225.638	146.88
1228.902	149.07
1232.166	153.72
1235.43	156.23
1238.693	159.83
1241.956	164.34
1245.219	167.96
1248.482	170.73
1251.744	170.12
1255.006	170.53
1258.268	166.04
1261.529	164.91
1264.79	161.24
1268.051	157.72
1271.312	155.51
1274.572	152.44
1277.832	148.55
1281.092	145.94
1284.351	142.48
1287.61	142.48
1290.869	141.49
1294.128	141.27
1297.386	141.07
1300.644	139.97
1303.902	139.85
1307.159	139.39
1310.416	140.01
1313.673	141.93
1316.93	143.18
1320.186	146.05
1323.442	147.86
1326.697	150.7
1329.953	151.4
1333.208	157.21
1336.463	162.9
1339.717	165.21
1342.972	172.52
1346.226	177.82
1349.479	178.86
1352.733	187.26
1355.986	188.96
1359.238	192.48
1362.491	195.48
1365.743	203.23
1368.995	202.42
1372.247	202.41
1375.498	201.57
1378.749	208.65
1382	206.75
1385.251	206.52
1388.501	204.91
1391.751	208.26
1395	206
1398.25	206.63
1401.499	207.18
1404.748	206.41
1407.996	200.52
1411.244	200.99
1414.492	197.89
1417.74	192.3
1420.987	187.52
1424.234	184.34
1427.481	177.43
1430.728	173.28
1433.974	166.35
1437.22	160.73
1440.465	154.98
1443.711	151.65
1446.956	146.86
1450.201	141.16
1453.445	135.75
1456.689	132.4
1459.933	127.89
1463.177	122.69
1466.42	120.5
1469.663	117.39
1472.906	113.51
1476.148	111.1
1479.391	108.96
1482.633	107.64
1485.874	105.95
1489.115	105.14
1492.356	102.84
1495.597	101.95
1498.838	101.63
1502.078	100.84
1505.318	100.81
1508.557	100.33
1511.797	99.25
1515.036	99.24
1518.274	98.98
1521.513	97.69
1524.751	97.11
1527.989	98.09
1531.227	97.79
1534.464	97.37
1537.701	96.61
1540.938	96.45
1544.174	96.27
1547.41	96.21
1550.646	95.67
1553.882	95.8
1557.117	95.26
1560.352	95.68
1563.587	94.38
1566.821	94.4
1570.055	93.79
1573.289	93.77
1576.523	93.67
1579.756	93.29
1582.989	93.53
1586.222	93.6
1589.454	92.89
1592.686	93.11
1595.918	92.33
1599.15	92.79
1602.381	92.61
1605.612	93.07
1608.843	92.69
1612.073	93.57
1615.303	93.87
1618.533	93.7
1621.762	93.41
1624.992	93.53
1628.221	93.52
1631.449	93.97
1634.678	93.55
1637.906	93.95
1641.134	93.74
1644.361	94.07
1647.588	93.28
1650.815	93.25
1654.042	93.66
1657.269	93.56
1660.495	94.25
1663.72	94.21
1666.946	94.31
1670.171	94.97
1673.396	94.94
1676.621	96.12
1679.845	95.79
1683.069	95.91
1686.293	95.87
1689.517	95.61
1692.74	96.17
1695.963	95.76
1699.185	96.22
1702.408	96.54
1705.63	96.56
1708.852	97.33
1712.073	96.37
1715.294	96.69
1718.515	97.66
1721.736	97.68
1724.956	97.93
1728.176	97.79
1731.396	98.54
1734.616	98.78
1737.835	98.57
1741.054	98.57
1744.272	98.06
1747.491	98.54
1750.709	98.9
1753.927	98.57
1757.144	98.89
1760.361	99.18
1763.578	99.37
1766.795	99.97
1770.011	99.13
1773.227	100.12
1776.443	101.04
1779.658	101.3
1782.874	102.25
1786.089	102.38
1789.303	102.59
1792.518	103.16
1795.732	104.41
1798.945	105.52
1802.159	105.25
1805.372	107.88
1808.585	107.72
1811.797	108.16
1815.01	109.03
1818.222	109.39
1821.434	110.59
1824.645	111
1827.856	112.85
1831.067	112.89
1834.278	113.78
1837.488	114.84
1840.698	115.27
1843.908	115.97
1847.117	117.4
1850.326	118.25
1853.535	118.34
1856.744	119.45
1859.952	120.25
1863.16	119.83
1866.368	119.29
1869.575	120.19
1872.782	119.08
1875.989	118.6
1879.196	117.55
1882.402	115.56
1885.608	116.13
1888.814	115.3
1892.019	115.51
1895.224	113.84
1898.429	113.74
1901.634	114.76
1904.838	113.79
1908.042	114.39
1911.246	113.18
1914.449	114.18
1917.652	114.16
1920.855	114.29
1924.058	113.87
1927.26	112.76
1930.462	114.38
1933.664	114.37
1936.865	113.15
1940.066	113.1
1943.267	112.8
1946.467	114.16
1949.668	113.65
1952.868	114.63
1956.067	114.13
1959.267	115.32
1962.466	115.7
1965.665	116.01
1968.863	117.1
1972.061	118.6
1975.259	120.49
1978.457	121.27
1981.654	121.45
1984.852	123.05
1988.048	124.75
1991.245	126.64
1994.441	128.8
1997.637	131.3
2000.833	134.56
2004.028	135.21
2007.223	140.17
2010.418	142.83
2013.613	148.78
2016.807	153.87
2020.001	156.23
2023.194	161.13
2026.388	165.25
2029.581	173.33
2032.774	179.89
2035.966	184.69
2039.158	191.35
2042.35	191.36
2045.542	196.08
2048.733	204.75
2051.924	206.12
2055.115	209.04
2058.306	210.26
2061.496	215.74
2064.686	215.5
2067.875	213.92
2071.065	216.46
2074.254	216.46
2077.442	224.38
2080.631	225.15
2083.819	224.94
2087.007	229.22
2090.195	233.95
2093.382	234.92
2096.569	235.11
2099.756	239
2102.942	244.13
2106.128	248.13
2109.314	250.29
2112.5	250.41
2115.685	250.54
2118.87	250.84
2122.055	253.21
2125.239	257.96
2128.424	263.83
2131.608	261.06
2134.791	259.98
2137.974	262.1
2141.157	263.89
2144.34	266.43
2147.523	269.89
2150.705	275.19
2153.887	272.77
2157.068	275.76
2160.25	279.24
2163.431	275.96
2166.611	284.21
2169.792	290.22
2172.972	293.94
2176.152	295.48
2179.331	301.09
2182.511	302.48
2185.69	306.56
2188.868	318.84
2192.047	325.43
2195.225	329.11
2198.403	336.83
2201.58	330.32
2204.758	343.03
2207.935	345.15
2211.111	351.33
2214.288	354.62
2217.464	357.38
2220.64	358.8
2223.815	360.32
2226.991	353.73
2230.166	357.84
2233.34	368.56
2236.515	376.63
2239.689	371.81
2242.863	376.49
2246.036	372.27
2249.209	382.23
2252.382	382.05
2255.555	396.27
2258.727	399.37
2261.9	410.91
2265.071	414.76
2268.243	408.83
2271.414	423.15
2274.585	430.61
2277.756	435.43
2280.926	448.74
2284.096	443.19
2287.266	448.31
2290.436	439.65
2293.605	445.4
2296.774	465.02
2299.942	467.73
2303.111	483.06
2306.279	489.39
2309.447	489.05
2312.614	486.66
2315.781	501.87
2318.948	513.77
2322.115	521.58
2325.281	547.09
2328.447	547.25
2331.613	545.75
2334.779	552.61
2337.944	560.25
2341.109	576.8
2344.274	584.2
2347.438	600.6
2350.602	613.47
2353.766	650.88
2356.929	652.68
2360.092	661.1
2363.255	665.05
2366.418	678.18
2369.58	692.53
2372.742	688.02
2375.904	681.28
2379.066	702.49
2382.227	739.76
2385.388	737.19
2388.548	698.53
2391.709	693.49
2394.869	717.73
2398.029	722.34
2401.188	718.53
2404.347	742.25
2407.506	769.75
2410.665	740.79
2413.823	740.44
2416.981	743.89
2420.139	702.95
2423.296	756.4
2426.453	801.4
2429.61	764.93
2432.767	811.36
2435.923	842.02
2439.079	807.4
2442.235	831.98
2445.391	850.93
2448.546	846.31
2451.701	888.08
2454.855	949.35
2458.009	843.13
2461.163	864.65
2464.317	870.69
2467.471	851.65
2470.624	880.51
2473.777	865.66
2476.929	833.21
2480.082	894.46
2483.234	935.53
2486.385	943.01
2489.537	967.55
2492.688	1065.94
2495.839	1046.36
2498.989	1076.66
2502.14	1080.55
2505.29	1033.79
2508.439	1151.63
2511.589	1182.01
2514.738	1143.93
2517.887	1137.74
2521.035	1069.04
2524.183	1054.66
2527.331	1045.78
2530.479	1016.83
2533.627	1039.01
