Data from N_1_div_oh_2n_025_Splice17_04.txt Node
Date: Sat Feb 29 13:43:40 EST 2020
User: sa697716
Spectrometer: FLMS03696
Trigger mode: 0
Integration Time (sec): 3.180400E-1
Scans to average: 20
Electric dark correction enabled: true
Nonlinearity correction enabled: true
Boxcar width: 5
XAxis mode: Wavelengths
Number of Pixels in Spectrum: 2048
>>>>>Begin Spectral Data<<<<<
187.83	62.14
188.298	49.89
188.766	50.07
189.233	49.5
189.701	62.91
190.169	58.77
190.636	60.49
191.104	64.06
191.571	163.36
192.039	174.92
192.506	54.05
192.974	5561.07
193.441	-119.63
193.908	52.01
194.375	37.73
194.842	184.57
195.31	107.46
195.777	106.63
196.244	39.63
196.711	27.48
197.177	26.05
197.644	26.14
198.111	25.7
198.578	26.45
199.045	27.17
199.511	27.5
199.978	27.32
200.445	27.27
200.911	27.56
201.378	27.89
201.844	28.27
202.31	28.98
202.777	29.02
203.243	29.61
203.709	29.56
204.176	29.1
204.642	29.13
205.108	28.93
205.574	28.94
206.04	28.76
206.506	28.8
206.972	28.52
207.438	27.99
207.903	28.05
208.369	27.57
208.835	27.48
209.301	27.46
209.766	26.93
210.232	26.79
210.697	26.71
211.163	26.49
211.628	25.87
212.094	25.82
212.559	25.44
213.024	24.85
213.49	24.31
213.955	24
214.42	23.55
214.885	23.05
215.35	22.32
215.815	20.92
216.28	19.89
216.745	18.85
217.21	17.69
217.675	16.6
218.14	15.48
218.604	14.46
219.069	13.56
219.534	12.79
219.998	12.15
220.463	11.62
220.927	11.26
221.392	10.85
221.856	10.45
222.32	10.15
222.785	9.87
223.249	9.69
223.713	9.53
224.177	9.27
224.642	9.13
225.106	8.94
225.57	8.79
226.034	8.62
226.497	8.46
226.961	8.32
227.425	8.14
227.889	8
228.353	7.83
228.816	7.69
229.28	7.58
229.744	7.46
230.207	7.36
230.671	7.26
231.134	7.17
231.597	7.06
232.061	6.96
232.524	6.89
232.987	6.82
233.45	6.76
233.914	6.7
234.377	6.66
234.84	6.58
235.303	6.52
235.766	6.43
236.229	6.38
236.691	6.33
237.154	6.29
237.617	6.23
238.08	6.17
238.542	6.11
239.005	6.05
239.468	5.97
239.93	5.91
240.393	5.87
240.855	5.83
241.317	5.78
241.78	5.74
242.242	5.68
242.704	5.64
243.166	5.61
243.629	5.57
244.091	5.53
244.553	5.5
245.015	5.46
245.477	5.41
245.939	5.37
246.4	5.32
246.862	5.28
247.324	5.25
247.786	5.21
248.247	5.17
248.709	5.12
249.17	5.09
249.632	5.05
250.093	4.99
250.555	4.96
251.016	4.93
251.477	4.88
251.939	4.85
252.4	4.82
252.861	4.8
253.322	4.77
253.783	4.75
254.244	4.72
254.705	4.69
255.166	4.68
255.627	4.65
256.088	4.62
256.549	4.6
257.009	4.56
257.47	4.54
257.931	4.5
258.391	4.45
258.852	4.41
259.312	4.37
259.773	4.34
260.233	4.3
260.694	4.27
261.154	4.25
261.614	4.21
262.074	4.19
262.534	4.14
262.994	4.12
263.455	4.11
263.915	4.08
264.374	4.05
264.834	4.03
265.294	4.01
265.754	3.98
266.214	3.96
266.673	3.95
267.133	3.92
267.593	3.91
268.052	3.88
268.512	3.86
268.971	3.85
269.431	3.83
269.89	3.81
270.349	3.8
270.809	3.79
271.268	3.78
271.727	3.76
272.186	3.75
272.645	3.73
273.104	3.73
273.563	3.72
274.022	3.71
274.481	3.7
274.94	3.69
275.399	3.68
275.857	3.67
276.316	3.65
276.775	3.64
277.233	3.63
277.692	3.63
278.15	3.61
278.609	3.59
279.067	3.57
279.525	3.55
279.984	3.55
280.442	3.54
280.9	3.52
281.358	3.52
281.816	3.51
282.274	3.49
282.732	3.48
283.19	3.48
283.648	3.48
284.106	3.47
284.564	3.47
285.021	3.46
285.479	3.45
285.937	3.44
286.394	3.43
286.852	3.42
287.309	3.41
287.767	3.41
288.224	3.4
288.682	3.39
289.139	3.38
289.596	3.36
290.053	3.35
290.511	3.33
290.968	3.33
291.425	3.32
291.882	3.31
292.339	3.29
292.796	3.27
293.252	3.27
293.709	3.25
294.166	3.24
294.623	3.24
295.079	3.23
295.536	3.23
295.992	3.21
296.449	3.2
296.905	3.2
297.362	3.19
297.818	3.19
298.274	3.17
298.731	3.18
299.187	3.17
299.643	3.16
300.099	3.15
300.555	3.15
301.011	3.15
301.467	3.14
301.923	3.14
302.379	3.14
302.835	3.14
303.291	3.13
303.746	3.12
304.202	3.11
304.658	3.11
305.113	3.11
305.569	3.11
306.024	3.1
306.479	3.1
306.935	3.09
307.39	3.09
307.845	3.09
308.301	3.1
308.756	3.1
309.211	3.1
309.666	3.1
310.121	3.1
310.576	3.09
311.031	3.09
311.486	3.08
311.94	3.08
312.395	3.08
312.85	3.08
313.305	3.07
313.759	3.07
314.214	3.07
314.668	3.08
315.123	3.08
315.577	3.08
316.032	3.09
316.486	3.09
316.94	3.09
317.394	3.08
317.849	3.08
318.303	3.08
318.757	3.08
319.211	3.06
319.665	3.05
320.119	3.04
320.572	3.03
321.026	3.03
321.48	3.02
321.934	3.02
322.387	3.03
322.841	3.02
323.295	3.01
323.748	3
324.202	3
324.655	3
325.108	3
325.562	2.99
326.015	2.97
326.468	2.96
326.921	2.95
327.374	2.94
327.827	2.93
328.28	2.93
328.733	2.92
329.186	2.93
329.639	2.92
330.092	2.91
330.545	2.91
330.997	2.93
331.45	2.93
331.903	2.93
332.355	2.93
332.808	2.94
333.26	2.94
333.713	2.94
334.165	2.93
334.617	2.94
335.069	2.95
335.522	2.95
335.974	2.95
336.426	2.96
336.878	2.96
337.33	2.96
337.782	2.95
338.234	2.95
338.686	2.94
339.137	2.94
339.589	2.94
340.041	2.93
340.493	2.91
340.944	2.91
341.396	2.9
341.847	2.89
342.299	2.88
342.75	2.87
343.201	2.85
343.653	2.85
344.104	2.84
344.555	2.84
345.006	2.83
345.457	2.83
345.908	2.82
346.359	2.81
346.81	2.82
347.261	2.8
347.712	2.81
348.163	2.81
348.613	2.81
349.064	2.79
349.515	2.78
349.965	2.78
350.416	2.78
350.866	2.77
351.317	2.77
351.767	2.77
352.217	2.76
352.668	2.76
353.118	2.76
353.568	2.75
354.018	2.76
354.468	2.76
354.918	2.76
355.368	2.76
355.818	2.76
356.268	2.76
356.718	2.75
357.168	2.75
357.617	2.75
358.067	2.75
358.517	2.74
358.966	2.75
359.416	2.75
359.865	2.75
360.315	2.76
360.764	2.76
361.213	2.75
361.663	2.76
362.112	2.77
362.561	2.76
363.01	2.77
363.459	2.77
363.908	2.77
364.357	2.77
364.806	2.76
365.255	2.77
365.703	2.76
366.152	2.76
366.601	2.76
367.05	2.76
367.498	2.76
367.947	2.76
368.395	2.77
368.844	2.77
369.292	2.75
369.74	2.76
370.189	2.75
370.637	2.76
371.085	2.76
371.533	2.76
371.981	2.77
372.429	2.76
372.877	2.75
373.325	2.74
373.773	2.73
374.221	2.74
374.669	2.73
375.116	2.73
375.564	2.72
376.012	2.72
376.459	2.71
376.907	2.71
377.354	2.72
377.801	2.72
378.249	2.73
378.696	2.74
379.143	2.75
379.591	2.76
380.038	2.76
380.485	2.78
380.932	2.79
381.379	2.79
381.826	2.8
382.273	2.8
382.72	2.81
383.166	2.82
383.613	2.84
384.06	2.85
384.506	2.87
384.953	2.87
385.4	2.89
385.846	2.89
386.292	2.91
386.739	2.92
387.185	2.95
387.631	2.96
388.078	2.98
388.524	2.98
388.97	2.99
389.416	3.01
389.862	3.03
390.308	3.05
390.754	3.07
391.2	3.11
391.645	3.14
392.091	3.15
392.537	3.18
392.983	3.21
393.428	3.24
393.874	3.27
394.319	3.29
394.765	3.32
395.21	3.34
395.655	3.36
396.101	3.39
396.546	3.41
396.991	3.42
397.436	3.42
397.881	3.43
398.326	3.46
398.771	3.47
399.216	3.49
399.661	3.5
400.106	3.53
400.551	3.52
400.995	3.52
401.44	3.51
401.885	3.53
402.329	3.54
402.774	3.56
403.218	3.56
403.663	3.56
404.107	3.57
404.551	3.57
404.995	3.56
405.44	3.56
405.884	3.55
406.328	3.57
406.772	3.58
407.216	3.59
407.66	3.59
408.104	3.58
408.547	3.59
408.991	3.58
409.435	3.59
409.879	3.6
410.322	3.61
410.766	3.63
411.209	3.63
411.653	3.62
412.096	3.61
412.54	3.62
412.983	3.64
413.426	3.65
413.869	3.66
414.312	3.68
414.756	3.7
415.199	3.73
415.642	3.74
416.085	3.75
416.527	3.78
416.97	3.79
417.413	3.78
417.856	3.77
418.298	3.76
418.741	3.77
419.184	3.76
419.626	3.77
420.069	3.76
420.511	3.75
420.953	3.74
421.396	3.74
421.838	3.76
422.28	3.78
422.722	3.8
423.164	3.79
423.606	3.8
424.048	3.79
424.49	3.79
424.932	3.78
425.374	3.79
425.816	3.8
426.258	3.78
426.699	3.76
427.141	3.75
427.582	3.75
428.024	3.78
428.465	3.78
428.907	3.82
429.348	3.82
429.789	3.84
430.231	3.84
430.672	3.85
431.113	3.88
431.554	3.9
431.995	3.92
432.436	3.93
432.877	3.93
433.318	3.92
433.759	3.92
434.2	3.92
434.64	3.94
435.081	3.94
435.522	3.94
435.962	3.96
436.403	3.97
436.843	3.99
437.284	4
437.724	4.01
438.164	4.03
438.604	4.05
439.045	4.06
439.485	4.08
439.925	4.09
440.365	4.1
440.805	4.1
441.245	4.1
441.685	4.12
442.125	4.13
442.564	4.15
443.004	4.18
443.444	4.19
443.883	4.2
444.323	4.19
444.762	4.22
445.202	4.27
445.641	4.3
446.081	4.34
446.52	4.33
446.959	4.35
447.398	4.4
447.837	4.43
448.276	4.44
448.716	4.45
449.154	4.49
449.593	4.5
450.032	4.51
450.471	4.51
450.91	4.51
451.349	4.52
451.787	4.52
452.226	4.49
452.664	4.48
453.103	4.48
453.541	4.49
453.98	4.48
454.418	4.48
454.856	4.45
455.295	4.44
455.733	4.43
456.171	4.44
456.609	4.45
457.047	4.46
457.485	4.45
457.923	4.45
458.361	4.45
458.798	4.46
459.236	4.48
459.674	4.47
460.111	4.5
460.549	4.5
460.987	4.51
461.424	4.51
461.862	4.52
462.299	4.52
462.736	4.54
463.173	4.53
463.611	4.53
464.048	4.53
464.485	4.53
464.922	4.52
465.359	4.53
465.796	4.5
466.233	4.52
466.67	4.53
467.106	4.52
467.543	4.52
467.98	4.53
468.416	4.54
468.853	4.54
469.29	4.57
469.726	4.57
470.162	4.56
470.599	4.58
471.035	4.59
471.471	4.56
471.907	4.56
472.344	4.56
472.78	4.55
473.216	4.54
473.652	4.52
474.088	4.52
474.523	4.51
474.959	4.53
475.395	4.52
475.831	4.53
476.266	4.54
476.702	4.53
477.138	4.53
477.573	4.52
478.008	4.52
478.444	4.51
478.879	4.5
479.314	4.5
479.75	4.49
480.185	4.49
480.62	4.48
481.055	4.47
481.49	4.47
481.925	4.47
482.36	4.46
482.795	4.45
483.229	4.45
483.664	4.46
484.099	4.46
484.534	4.46
484.968	4.46
485.403	4.46
485.837	4.45
486.271	4.47
486.706	4.47
487.14	4.48
487.574	4.49
488.009	4.53
488.443	4.54
488.877	4.57
489.311	4.58
489.745	4.61
490.179	4.64
490.613	4.68
491.046	4.7
491.48	4.75
491.914	4.79
492.348	4.85
492.781	4.88
493.215	4.93
493.648	4.98
494.082	5.04
494.515	5.09
494.948	5.16
495.382	5.21
495.815	5.28
496.248	5.34
496.681	5.4
497.114	5.46
497.547	5.54
497.98	5.62
498.413	5.69
498.846	5.77
499.279	5.86
499.711	5.95
500.144	6.06
500.577	6.15
501.009	6.27
501.442	6.4
501.874	6.52
502.306	6.65
502.739	6.79
503.171	6.95
503.603	7.1
504.036	7.27
504.468	7.43
504.9	7.61
505.332	7.79
505.764	7.98
506.196	8.17
506.627	8.37
507.059	8.57
507.491	8.78
507.923	9
508.354	9.22
508.786	9.45
509.217	9.68
509.649	9.95
510.08	10.21
510.512	10.46
510.943	10.72
511.374	11
511.805	11.27
512.237	11.55
512.668	11.83
513.099	12.15
513.53	12.45
513.961	12.75
514.391	13.04
514.822	13.36
515.253	13.66
515.684	13.96
516.114	14.28
516.545	14.61
516.975	14.94
517.406	15.26
517.836	15.56
518.267	15.87
518.697	16.2
519.127	16.52
519.558	16.83
519.988	17.15
520.418	17.46
520.848	17.75
521.278	18.04
521.708	18.21
522.138	18.49
522.567	18.77
522.997	19.05
523.427	19.32
523.857	19.57
524.286	19.82
524.716	20.06
525.145	20.3
525.575	20.54
526.004	20.77
526.433	21.11
526.863	21.33
527.292	21.54
527.721	21.73
528.15	21.9
528.579	22.11
529.008	22.27
529.437	22.45
529.866	22.61
530.295	22.77
530.724	22.91
531.152	23.06
531.581	23.18
532.01	23.3
532.438	23.44
532.867	23.55
533.295	23.63
533.723	23.75
534.152	23.86
534.58	23.96
535.008	24.03
535.436	24.12
535.865	24.19
536.293	24.27
536.721	24.35
537.149	24.39
537.576	24.44
538.004	24.51
538.432	24.54
538.86	24.57
539.287	24.61
539.715	24.67
540.143	24.7
540.57	24.75
540.998	24.79
541.425	24.83
541.852	24.88
542.28	24.89
542.707	24.93
543.134	24.97
543.561	25
543.988	25.04
544.415	25.05
544.842	25.07
545.269	25.1
545.696	25.12
546.123	25.14
546.549	25.16
546.976	25.2
547.403	25.21
547.829	25.22
548.256	25.24
548.682	25.24
549.108	25.25
549.535	25.27
549.961	25.25
550.387	25.25
550.813	25.24
551.24	25.22
551.666	25.22
552.092	25.24
552.518	25.23
552.943	25.21
553.369	25.18
553.795	25.17
554.221	25.15
554.646	25.14
555.072	25.1
555.498	25.06
555.923	25.04
556.349	24.98
556.774	24.89
557.199	24.85
557.625	24.78
558.05	24.71
558.475	24.62
558.9	24.54
559.325	24.46
559.75	24.36
560.175	24.29
560.6	24.19
561.025	24.09
561.449	24
561.874	23.89
562.299	23.78
562.723	23.65
563.148	23.53
563.572	23.41
563.997	23.26
564.421	23.12
564.846	22.97
565.27	22.82
565.694	22.68
566.118	22.53
566.542	22.38
566.966	22.24
567.39	22.09
567.814	21.95
568.238	21.79
568.662	21.63
569.086	21.49
569.509	21.34
569.933	21.18
570.357	21
570.78	20.87
571.204	20.72
571.627	20.55
572.05	20.4
572.474	20.25
572.897	20.09
573.32	19.95
573.743	19.8
574.166	19.64
574.589	19.52
575.012	19.4
575.435	19.26
575.858	19.13
576.281	19.03
576.704	18.91
577.126	18.79
577.549	18.68
577.972	18.58
578.394	18.47
578.817	18.37
579.239	18.27
579.661	18.17
580.084	18.08
580.506	17.99
580.928	17.88
581.35	17.8
581.772	17.72
582.194	17.66
582.616	17.58
583.038	17.52
583.46	17.45
583.882	17.38
584.303	17.31
584.725	17.24
585.147	17.15
585.568	17.06
585.99	17.01
586.411	16.93
586.833	16.85
587.254	16.78
587.675	16.68
588.096	16.61
588.518	16.55
588.939	16.51
589.36	16.43
589.781	16.39
590.202	16.36
590.623	16.29
591.043	16.24
591.464	16.18
591.885	16.14
592.305	16.13
592.726	16.09
593.147	16.06
593.567	16.01
593.987	16
594.408	15.96
594.828	15.92
595.248	15.91
595.669	15.89
596.089	15.87
596.509	15.82
596.929	15.79
597.349	15.75
597.769	15.71
598.189	15.67
598.608	15.64
599.028	15.61
599.448	15.58
599.867	15.54
600.287	15.49
600.706	15.46
601.126	15.42
601.545	15.38
601.965	15.35
602.384	15.3
602.803	15.24
603.222	15.18
603.641	15.12
604.061	15.05
604.48	14.98
604.898	14.92
605.317	14.85
605.736	14.79
606.155	14.7
606.574	14.61
606.992	14.54
607.411	14.47
607.829	14.35
608.248	14.28
608.666	14.21
609.085	14.14
609.503	14.04
609.921	13.95
610.339	13.87
610.758	13.8
611.176	13.72
611.594	13.63
612.012	13.55
612.43	13.52
612.847	13.44
613.265	13.37
613.683	13.27
614.101	13.19
614.518	13.11
614.936	13.03
615.353	12.95
615.771	12.88
616.188	12.83
616.606	12.78
617.023	12.71
617.44	12.64
617.857	12.55
618.274	12.5
618.691	12.46
619.108	12.42
619.525	12.38
619.942	12.33
620.359	12.31
620.776	12.26
621.192	12.21
621.609	12.18
622.026	12.15
622.442	12.14
622.859	12.12
623.275	12.11
623.691	12.08
624.108	12.08
624.524	12.07
624.94	12.04
625.356	12.02
625.772	12.02
626.188	12.02
626.604	12
627.02	12
627.436	11.99
627.852	11.96
628.268	11.93
628.683	11.9
629.099	11.88
629.514	11.87
629.93	11.86
630.345	11.82
630.761	11.77
631.176	11.75
631.591	11.69
632.007	11.64
632.422	11.59
632.837	11.54
633.252	11.48
633.667	11.4
634.082	11.33
634.497	11.22
634.911	11.13
635.326	11.03
635.741	10.92
636.155	10.81
636.57	10.7
636.984	10.57
637.399	10.43
637.813	10.29
638.228	10.16
638.642	10.03
639.056	9.89
639.47	9.76
639.884	9.6
640.298	9.47
640.712	9.34
641.126	9.2
641.54	9.07
641.954	8.95
642.368	8.82
642.781	8.7
643.195	8.56
643.609	8.44
644.022	8.33
644.436	8.21
644.849	8.1
645.262	7.99
645.676	7.88
646.089	7.77
646.502	7.68
646.915	7.6
647.328	7.52
647.741	7.44
648.154	7.38
648.567	7.33
648.98	7.3
649.393	7.25
649.805	7.19
650.218	7.16
650.631	7.13
651.043	7.09
651.456	7.06
651.868	7.01
652.28	6.98
652.693	6.93
653.105	6.88
653.517	6.82
653.929	6.79
654.341	6.75
654.753	6.69
655.165	6.64
655.577	6.58
655.989	6.51
656.401	6.44
656.813	6.38
657.224	6.31
657.636	6.25
658.047	6.17
658.459	6.08
658.87	5.99
659.282	5.93
659.693	5.85
660.104	5.79
660.515	5.72
660.926	5.66
661.338	5.58
661.749	5.5
662.159	5.42
662.57	5.36
662.981	5.29
663.392	5.23
663.803	5.18
664.213	5.11
664.624	5.08
665.035	5.01
665.445	4.98
665.855	4.95
666.266	4.93
666.676	4.9
667.086	4.87
667.497	4.85
667.907	4.83
668.317	4.79
668.727	4.79
669.137	4.76
669.547	4.78
669.956	4.76
670.366	4.76
670.776	4.75
671.186	4.76
671.595	4.78
672.005	4.8
672.414	4.82
672.824	4.84
673.233	4.86
673.642	4.88
674.052	4.9
674.461	4.91
674.87	4.93
675.279	4.95
675.688	4.98
676.097	5
676.506	5.03
676.915	5.07
677.323	5.11
677.732	5.16
678.141	5.2
678.549	5.25
678.958	5.32
679.366	5.37
679.775	5.45
680.183	5.52
680.592	5.59
681	5.65
681.408	5.73
681.816	5.82
682.224	5.92
682.632	6.05
683.04	6.17
683.448	6.31
683.856	6.47
684.264	6.66
684.671	6.87
685.079	7.1
685.487	7.38
685.894	7.65
686.302	7.96
686.709	8.27
687.116	8.63
687.524	9.03
687.931	9.45
688.338	9.91
688.745	10.39
689.152	10.9
689.559	11.42
689.966	11.96
690.373	12.56
690.78	13.16
691.187	13.8
691.593	14.42
692	15.07
692.407	15.73
692.813	16.41
693.22	17.11
693.626	17.79
694.032	18.5
694.439	19.22
694.845	19.93
695.251	20.65
695.657	21.35
696.063	22.07
696.469	22.76
696.875	23.46
697.281	24.1
697.687	24.77
698.093	25.44
698.498	26.09
698.904	26.74
699.31	27.36
699.715	27.98
700.12	28.6
700.526	29.23
700.931	29.84
701.337	30.43
701.742	31.02
702.147	31.59
702.552	32.13
702.957	32.66
703.362	33.19
703.767	33.72
704.172	34.23
704.577	34.71
704.981	35.2
705.386	35.67
705.791	36.14
706.195	36.61
706.6	37.07
707.004	37.54
707.408	38
707.813	38.41
708.217	38.82
708.621	39.23
709.025	39.64
709.43	40.02
709.834	40.43
710.237	40.82
710.641	41.22
711.045	41.58
711.449	41.95
711.853	42.33
712.256	42.71
712.66	43.09
713.064	43.43
713.467	43.79
713.87	44.12
714.274	44.46
714.677	44.78
715.08	45.07
715.484	45.38
715.887	45.68
716.29	45.95
716.693	46.23
717.096	46.51
717.499	46.8
717.901	47.05
718.304	47.34
718.707	47.58
719.109	47.88
719.512	48.15
719.915	48.39
720.317	48.65
720.719	48.86
721.122	49.1
721.524	49.31
721.926	49.54
722.328	49.76
722.731	49.95
723.133	50.17
723.535	50.34
723.937	50.56
724.338	50.76
724.74	50.94
725.142	51.1
725.544	51.26
725.945	51.43
726.347	51.6
726.748	51.72
727.15	51.87
727.551	51.98
727.952	52.11
728.354	52.23
728.755	52.37
729.156	52.48
729.557	52.62
729.958	52.76
730.359	52.87
730.76	52.93
731.161	53.02
731.562	53.11
731.962	53.22
732.363	53.28
732.763	53.36
733.164	53.4
733.564	53.47
733.965	53.54
734.365	53.57
734.766	53.64
735.166	53.72
735.566	53.77
735.966	53.79
736.366	53.84
736.766	53.92
737.166	53.98
737.566	54.05
737.966	54.1
738.365	54.13
738.765	54.19
739.165	54.22
739.564	54.27
739.964	54.33
740.363	54.39
740.763	54.44
741.162	54.46
741.561	54.51
741.96	54.53
742.36	54.59
742.759	54.64
743.158	54.67
743.557	54.73
743.955	54.79
744.354	54.84
744.753	54.88
745.152	54.88
745.55	54.93
745.949	54.97
746.348	55.01
746.746	55.02
747.144	55.05
747.543	55.11
747.941	55.16
748.339	55.18
748.737	55.23
749.136	55.28
749.534	55.33
749.932	55.33
750.33	55.34
750.727	55.35
751.125	55.37
751.523	55.38
751.921	55.38
752.318	55.33
752.716	55.3
753.113	55.27
753.511	55.23
753.908	55.22
754.305	55.18
754.703	55.16
755.1	55.12
755.497	55.12
755.894	55.11
756.291	55.09
756.688	55.07
757.085	55.07
757.482	55.04
757.878	55.06
758.275	55.06
758.672	55.13
759.068	55.16
759.465	55.17
759.861	55.16
760.258	55.14
760.654	55.16
761.05	55.18
761.447	55.19
761.843	55.2
762.239	55.18
762.635	55.16
763.031	55.13
763.427	55.08
763.822	55.08
764.218	55.05
764.614	55.03
765.01	55.01
765.405	55.02
765.801	54.99
766.196	55.01
766.592	55.02
766.987	55.04
767.382	55.01
767.778	55.06
768.173	55.03
768.568	55.01
768.963	54.99
769.358	54.98
769.753	54.97
770.148	54.98
770.542	54.96
770.937	54.91
771.332	54.9
771.726	54.9
772.121	54.84
772.515	54.85
772.91	54.84
773.304	54.85
773.699	54.85
774.093	54.82
774.487	54.79
774.881	54.81
775.275	54.84
775.669	54.83
776.063	54.79
776.457	54.81
776.851	54.79
777.245	54.83
777.638	54.84
778.032	54.85
778.425	54.86
778.819	54.87
779.212	54.83
779.606	54.81
779.999	54.83
780.392	54.85
780.786	54.82
781.179	54.83
781.572	54.8
781.965	54.8
782.358	54.78
782.751	54.77
783.143	54.79
783.536	54.85
783.929	54.86
784.322	54.86
784.714	54.84
785.107	54.86
785.499	54.88
785.891	54.91
786.284	54.87
786.676	54.87
787.068	54.86
787.46	54.85
787.852	54.84
788.245	54.83
788.636	54.84
789.028	54.88
789.42	54.87
789.812	54.86
790.204	54.79
790.595	54.81
790.987	54.8
791.378	54.81
791.77	54.8
792.161	54.76
792.553	54.76
792.944	54.75
793.335	54.77
793.726	54.72
794.117	54.72
794.508	54.77
794.899	54.76
795.29	54.78
795.681	54.79
796.072	54.78
796.463	54.76
796.853	54.75
797.244	54.76
797.634	54.72
798.025	54.74
798.415	54.74
798.806	54.75
799.196	54.8
799.586	54.82
799.976	54.84
800.366	54.86
800.756	54.88
801.146	54.91
801.536	54.89
801.926	54.93
802.316	54.98
802.706	55
803.095	55
803.485	54.99
803.874	54.96
804.264	55
804.653	54.99
805.043	55.02
805.432	55
805.821	54.99
806.21	54.99
806.599	55.02
806.988	55.01
807.377	55.01
807.766	55.02
808.155	55.07
808.544	55.03
808.933	55.05
809.321	55.05
809.71	55.1
810.098	55.09
810.487	55.11
810.875	55.04
811.264	55.04
811.652	55.04
812.04	55.01
812.428	54.99
812.816	55
813.204	54.97
813.592	54.97
813.98	54.96
814.368	54.98
814.756	54.99
815.144	55.03
815.531	55.05
815.919	55.03
816.306	55.05
816.694	55.04
817.081	55.05
817.469	55.12
817.856	55.15
818.243	55.13
818.63	55.17
819.017	55.18
819.404	55.19
819.791	55.17
820.178	55.2
820.565	55.22
820.952	55.25
821.339	55.27
821.725	55.25
822.112	55.26
822.498	55.26
822.885	55.27
823.271	55.28
823.657	55.27
824.044	55.31
824.43	55.36
824.816	55.33
825.202	55.33
825.588	55.34
825.974	55.35
826.36	55.33
826.746	55.35
827.132	55.3
827.517	55.29
827.903	55.31
828.289	55.3
828.674	55.26
829.06	55.27
829.445	55.31
829.83	55.32
830.216	55.31
830.601	55.33
830.986	55.34
831.371	55.39
831.756	55.37
832.141	55.39
832.526	55.39
832.911	55.42
833.295	55.44
833.68	55.4
834.065	55.39
834.449	55.37
834.834	55.35
835.218	55.33
835.603	55.31
835.987	55.32
836.371	55.31
836.755	55.31
837.139	55.29
837.524	55.29
837.908	55.29
838.291	55.25
838.675	55.28
839.059	55.3
839.443	55.3
839.827	55.32
840.21	55.34
840.594	55.33
840.977	55.3
841.361	55.3
841.744	55.29
842.127	55.29
842.511	55.31
842.894	55.28
843.277	55.28
843.66	55.28
844.043	55.28
844.426	55.25
844.809	55.24
845.191	55.26
845.574	55.23
845.957	55.21
846.339	55.2
846.722	55.19
847.104	55.21
847.487	55.21
847.869	55.21
848.252	55.17
848.634	55.18
849.016	55.17
849.398	55.18
849.78	55.21
850.162	55.22
850.544	55.23
850.926	55.23
851.307	55.25
851.689	55.22
852.071	55.19
852.452	55.22
852.834	55.23
853.215	55.25
853.597	55.25
853.978	55.22
854.359	55.2
854.741	55.21
855.122	55.22
855.503	55.2
855.884	55.2
856.265	55.22
856.646	55.2
857.026	55.2
857.407	55.13
857.788	55.13
858.169	55.13
858.549	55.15
858.93	55.13
859.31	55.09
859.69	55.07
860.071	55.05
860.451	55.06
860.831	55.02
861.211	55.02
861.591	55.05
861.971	55.05
862.351	55.04
862.731	55.03
863.111	55.04
863.491	55.06
863.87	55.05
864.25	55.07
864.629	55.07
865.009	55.09
865.388	55.08
865.768	55.12
866.147	55.1
866.526	55.1
866.905	55.12
867.284	55.11
867.663	55.12
868.042	55.1
868.421	55.08
868.8	55.07
869.179	55.07
869.558	55.08
869.936	55.06
870.315	55.05
870.693	55.06
871.072	55.05
871.45	55.02
871.828	55.01
872.207	55.07
872.585	55.07
872.963	55.07
873.341	55.07
873.719	55.05
874.097	55.01
874.475	55.03
874.853	55.03
875.23	55.03
875.608	55.06
875.986	55.06
876.363	55.03
876.741	55.03
877.118	55.03
877.495	55.02
877.873	55.03
878.25	55.04
878.627	55.01
879.004	54.98
879.381	55.01
879.758	54.99
880.135	55.01
880.512	55
880.889	55.04
881.265	55.04
881.642	55.04
882.019	55.05
882.395	55.06
882.772	55.06
883.148	55.09
883.524	55.08
883.901	55.1
884.277	55.11
884.653	55.12
885.029	55.11
885.405	55.12
885.781	55.1
886.157	55.09
886.532	55.08
886.908	55.12
887.284	55.13
887.659	55.13
888.035	55.12
888.411	55.08
888.786	55.06
889.161	55.03
889.537	55.03
889.912	55.03
890.287	55.01
890.662	54.99
891.037	54.93
891.412	54.89
891.787	54.84
892.162	54.8
892.536	54.79
892.911	54.77
893.286	54.73
893.66	54.69
894.035	54.66
894.409	54.67
894.784	54.68
895.158	54.68
895.532	54.67
895.906	54.65
896.281	54.65
896.655	54.64
897.029	54.65
897.402	54.67
897.776	54.67
898.15	54.65
898.524	54.63
898.898	54.57
899.271	54.58
899.645	54.59
900.018	54.61
900.392	54.62
900.765	54.63
901.138	54.63
901.511	54.62
901.884	54.61
902.258	54.61
902.631	54.59
903.003	54.61
903.376	54.58
903.749	54.58
904.122	54.59
904.495	54.59
904.867	54.58
905.24	54.58
905.612	54.56
905.985	54.54
906.357	54.51
906.729	54.5
907.102	54.52
907.474	54.5
907.846	54.44
908.218	54.39
908.59	54.34
908.962	54.31
909.334	54.28
909.705	54.29
910.077	54.27
910.449	54.31
910.82	54.31
911.192	54.27
911.563	54.27
911.935	54.26
912.306	54.24
912.677	54.25
913.048	54.2
913.419	54.19
913.79	54.16
914.161	54.17
914.532	54.11
914.903	54.12
915.274	54.14
915.645	54.14
916.015	54.16
916.386	54.18
916.756	54.13
917.127	54.2
917.497	54.2
917.868	54.23
918.238	54.23
918.608	54.27
918.978	54.23
919.348	54.16
919.718	54.16
920.088	54.18
920.458	54.22
920.828	54.24
921.198	54.18
921.567	54.17
921.937	54.16
922.306	54.14
922.676	54.12
923.045	54.12
923.415	54.19
923.784	54.22
924.153	54.23
924.522	54.18
924.891	54.15
925.26	54.15
925.629	54.16
925.998	54.11
926.367	54.11
926.736	54.08
927.104	54.09
927.473	54.06
927.842	53.97
928.21	53.94
928.578	53.93
928.947	53.92
929.315	53.92
929.683	53.92
930.051	53.92
930.42	53.92
930.788	53.93
931.156	53.86
931.523	53.83
931.891	53.82
932.259	53.74
932.627	53.67
932.994	53.69
933.362	53.6
933.729	53.52
934.097	53.47
934.464	53.4
934.831	53.33
935.199	53.33
935.566	53.26
935.933	53.25
936.3	53.17
936.667	53.17
937.034	53.11
937.401	53.12
937.767	53.06
938.134	53.02
938.501	52.93
938.867	52.94
939.234	52.94
939.6	52.94
939.967	52.88
940.333	52.92
940.699	52.92
941.065	52.97
941.431	53.04
941.798	53.1
942.163	53.15
942.529	53.21
942.895	53.21
943.261	53.15
943.627	53.18
943.992	53.22
944.358	53.23
944.723	53.22
945.089	53.21
945.454	53.26
945.82	53.29
946.185	53.37
946.55	53.48
946.915	53.55
947.28	53.59
947.645	53.62
948.01	53.67
948.375	53.74
948.74	53.78
949.104	53.7
949.469	53.49
949.834	53.45
950.198	53.33
950.562	53.29
950.927	53.24
951.291	53.17
951.655	53.13
952.02	53.09
952.384	53.06
952.748	53.08
953.112	53.1
953.476	53.17
953.839	53.17
954.203	53.19
954.567	53.19
954.931	53.14
955.294	53.18
955.658	53.1
956.021	53.09
956.385	53.07
956.748	52.99
957.111	52.89
957.474	52.92
957.837	52.87
958.2	52.81
958.563	52.72
958.926	52.66
959.289	52.63
959.652	52.67
960.015	52.63
960.377	52.56
960.74	52.53
961.102	52.59
961.465	52.58
961.827	52.5
962.189	52.46
962.552	52.46
962.914	52.46
963.276	52.43
963.638	52.36
964	52.34
964.362	52.33
964.724	52.33
965.085	52.3
965.447	52.25
965.809	52.25
966.17	52.28
966.532	52.31
966.893	52.33
967.255	52.36
967.616	52.35
967.977	52.35
968.338	52.35
968.699	52.33
969.061	52.32
969.421	52.28
969.782	52.35
970.143	52.31
970.504	52.24
970.865	52.19
971.225	52.1
971.586	52.12
971.946	52.16
972.307	52.15
972.667	52.22
973.027	52.26
973.388	52.3
973.748	52.33
974.108	52.37
974.468	52.41
974.828	52.43
975.188	52.49
975.548	52.43
975.907	52.38
976.267	52.4
976.627	52.33
976.986	52.26
977.346	52.21
977.705	52.16
978.064	52.19
978.424	52.19
978.783	52.23
979.142	52.16
979.501	52.2
979.86	52.25
980.219	52.18
980.578	52.16
980.937	52.15
981.296	52.2
981.654	52.25
982.013	52.16
982.371	52.04
982.73	52.02
983.088	52.02
983.447	52.04
983.805	51.97
984.163	51.95
984.521	51.93
984.879	51.99
985.237	51.97
985.595	51.93
985.953	51.93
986.311	52.06
986.669	52.05
987.026	52.06
987.384	51.97
987.741	51.98
988.099	52.04
988.456	52.12
988.814	52.03
989.171	51.97
989.528	51.86
989.885	51.79
990.242	51.74
990.599	51.74
990.956	51.78
991.313	51.83
991.67	51.85
992.027	51.79
992.383	51.76
992.74	51.79
993.096	51.74
993.453	51.79
993.809	51.77
994.165	51.81
994.522	51.77
994.878	51.72
995.234	51.73
995.59	51.71
995.946	51.71
996.302	51.6
996.658	51.65
997.013	51.76
997.369	51.86
997.725	52.03
998.08	52
998.436	52.03
998.791	52.02
999.147	52.04
999.502	51.88
999.857	51.88
1000.212	51.91
1000.567	51.8
1000.922	51.74
1001.277	51.55
1001.632	51.46
1001.987	51.41
1002.342	51.35
1002.696	51.41
1003.051	51.23
1003.406	51.4
1003.76	51.48
1004.114	51.53
1004.469	51.51
1004.823	51.52
1005.177	51.71
1005.531	51.68
1005.885	51.66
1006.239	51.61
1006.593	51.66
1006.947	51.73
1007.301	51.78
1007.655	51.75
1008.008	51.59
1008.362	51.65
1008.715	51.43
1009.069	51.31
1009.422	51.36
1009.776	51.32
1010.129	51.21
1010.482	51.28
1010.835	51.56
1011.188	51.2
1011.541	50.95
1011.894	51.12
1012.247	51.05
1012.6	51.24
1012.952	51.21
1013.305	51.07
1013.657	51.05
1014.01	51.31
1014.362	51.09
1014.715	50.62
1015.067	50.86
1015.419	51.08
1015.771	51.08
1016.123	50.9
1016.475	51.06
1016.827	51.02
1017.179	50.96
1017.531	51.08
1017.883	51.04
1018.234	51.02
1018.586	51.19
1018.938	50.99
1019.289	50.57
1019.64	50.59
1019.992	50.73
1020.343	50.29
1020.694	50.26
1021.045	50.46
1021.396	50.28
1021.747	50.16
1022.098	50
1022.449	49.88
1022.8	50.13
1023.151	50.44
1023.501	50.27
1023.852	50.17
1024.202	50.41
1024.553	50.44
1024.903	50.28
1025.253	50.47
1025.604	50.51
1025.954	50.22
1026.304	50.4
1026.654	50.1
1027.004	50.03
1027.354	49.82
1027.703	49.85
1028.053	49.7
1028.403	49.62
1028.753	49.79
1029.102	49.45
1029.452	49.29
1029.801	49.61
1030.15	49.5
1030.499	49.63
897.758	506.9
901.051	516.28
904.343	524.5
907.636	516.25
910.928	505.74
914.22	514.12
917.511	503.22
920.803	480.16
924.094	463.82
927.384	468
930.675	452
933.965	444.39
937.255	443.19
940.544	422.31
943.834	405.3
947.123	398.81
950.411	376.97
953.7	371.11
956.988	358.92
960.276	343.97
963.563	338.05
966.851	322.72
970.138	317.69
973.424	296.31
976.711	292.92
979.997	280.15
983.283	276.65
986.568	269.02
989.853	261.79
993.138	253.54
996.423	249.31
999.708	241.61
1002.992	243.06
1006.275	236.05
1009.559	234.71
1012.842	226.97
1016.125	222.55
1019.408	217.35
1022.69	216.04
1025.972	215.34
1029.254	207.95
1032.536	205.18
1035.817	200.15
1039.098	197.01
1042.379	194.54
1045.659	192.48
1048.939	191.6
1052.219	187.74
1055.498	184.44
1058.778	181.74
1062.057	177.67
1065.335	178.54
1068.614	175.05
1071.892	173.23
1075.17	170.32
1078.447	167.98
1081.724	165.53
1085.001	162.84
1088.278	163.02
1091.554	162.64
1094.83	160.73
1098.106	158.37
1101.382	157.75
1104.657	156.8
1107.932	156.33
1111.206	155.29
1114.481	153.6
1117.755	152.49
1121.029	151.69
1124.302	149.36
1127.575	146.42
1130.848	146.3
1134.121	144.87
1137.393	144.16
1140.665	143.03
1143.937	140.78
1147.208	140.23
1150.48	138.8
1153.75	138.49
1157.021	137.26
1160.291	137.27
1163.561	137.69
1166.831	136.39
1170.101	136.34
1173.37	135.98
1176.639	134.44
1179.907	134.86
1183.176	133.67
1186.444	134.02
1189.711	132.82
1192.979	134.24
1196.246	133.38
1199.513	132.6
1202.78	132.8
1206.046	132.49
1209.312	132.46
1212.578	133.97
1215.843	135.31
1219.108	136.28
1222.373	138.03
1225.638	140.71
1228.902	142.73
1232.166	146.44
1235.43	147.99
1238.693	152.34
1241.956	155.2
1245.219	158.62
1248.482	159.57
1251.744	159.24
1255.006	159.82
1258.268	155.63
1261.529	154.36
1264.79	150.82
1268.051	148.91
1271.312	147.92
1274.572	143.89
1277.832	141.39
1281.092	139.68
1284.351	137.57
1287.61	137.55
1290.869	135.93
1294.128	136.25
1297.386	135.52
1300.644	134.31
1303.902	133.41
1307.159	134.22
1310.416	134.8
1313.673	136.34
1316.93	137.09
1320.186	139.15
1323.442	140.45
1326.697	143.94
1329.953	144.01
1333.208	148.66
1336.463	154
1339.717	156.98
1342.972	162.99
1346.226	167.2
1349.479	168.89
1352.733	175.62
1355.986	177.66
1359.238	181.68
1362.491	182.7
1365.743	190.75
1368.995	190.22
1372.247	190.33
1375.498	189.4
1378.749	194.55
1382	191.69
1385.251	191.09
1388.501	190.11
1391.751	193.02
1395	190.4
1398.25	191.18
1401.499	189.9
1404.748	189.71
1407.996	185.75
1411.244	185.93
1414.492	181.38
1417.74	178.98
1420.987	174.27
1424.234	170.97
1427.481	164.8
1430.728	160.64
1433.974	155.57
1437.22	149.81
1440.465	144.95
1443.711	140.99
1446.956	136.26
1450.201	131.44
1453.445	125.39
1456.689	122.25
1459.933	118.17
1463.177	113.13
1466.42	110.43
1469.663	107.37
1472.906	103.87
1476.148	101.41
1479.391	99.68
1482.633	98.38
1485.874	97.03
1489.115	96.5
1492.356	94.48
1495.597	93.09
1498.838	92.82
1502.078	92.84
1505.318	92.52
1508.557	91.96
1511.797	91.07
1515.036	91.22
1518.274	90.02
1521.513	89.45
1524.751	88.74
1527.989	89.72
1531.227	89.8
1534.464	89.69
1537.701	88.61
1540.938	88.26
1544.174	88.72
1547.41	89.25
1550.646	88.55
1553.882	89.14
1557.117	89.05
1560.352	89.36
1563.587	88.03
1566.821	88.15
1570.055	87.01
1573.289	87.97
1576.523	88.37
1579.756	87.62
1582.989	87.57
1586.222	87.62
1589.454	87.35
1592.686	86.93
1595.918	86.92
1599.15	87.5
1602.381	87.37
1605.612	88.34
1608.843	87.5
1612.073	87.87
1615.303	88.44
1618.533	88.04
1621.762	88.68
1624.992	88.78
1628.221	88.89
1631.449	89.1
1634.678	88.39
1637.906	88.89
1641.134	88.74
1644.361	88.88
1647.588	88.37
1650.815	88.46
1654.042	88.49
1657.269	88.18
1660.495	88.93
1663.72	88.96
1666.946	88.89
1670.171	89.86
1673.396	89.68
1676.621	90.5
1679.845	90.65
1683.069	90.52
1686.293	90.25
1689.517	90.29
1692.74	90.15
1695.963	90.44
1699.185	90.58
1702.408	90.71
1705.63	90.76
1708.852	90.98
1712.073	90.43
1715.294	90.6
1718.515	91.06
1721.736	91.54
1724.956	91.51
1728.176	91.58
1731.396	91.4
1734.616	91.56
1737.835	91.44
1741.054	91.64
1744.272	90.96
1747.491	91.15
1750.709	91.63
1753.927	91.7
1757.144	91.82
1760.361	92.08
1763.578	92.23
1766.795	92.88
1770.011	92.99
1773.227	93.31
1776.443	94.14
1779.658	94.94
1782.874	95.11
1786.089	94.92
1789.303	95.11
1792.518	95.75
1795.732	96.53
1798.945	97.7
1802.159	97.31
1805.372	98.49
1808.585	99.23
1811.797	99
1815.01	100.13
1818.222	100.78
1821.434	102.14
1824.645	102.65
1827.856	103.94
1831.067	104.15
1834.278	105.38
1837.488	106.56
1840.698	106.66
1843.908	106.94
1847.117	109.11
1850.326	109.62
1853.535	109.68
1856.744	109.94
1859.952	111.45
1863.16	110.92
1866.368	110.67
1869.575	110.16
1872.782	109.36
1875.989	109.36
1879.196	108.74
1882.402	105.96
1885.608	106.82
1888.814	107.01
1892.019	106.34
1895.224	104.29
1898.429	104.69
1901.634	105.48
1904.838	105.25
1908.042	105.51
1911.246	104.87
1914.449	105.39
1917.652	106.15
1920.855	105.89
1924.058	104.67
1927.26	104.76
1930.462	105.34
1933.664	105.44
1936.865	105.23
1940.066	104.31
1943.267	104.22
1946.467	105.39
1949.668	104.56
1952.868	105.49
1956.067	104.72
1959.267	106.08
1962.466	106.79
1965.665	107.57
1968.863	108.12
1972.061	108.49
1975.259	111.4
1978.457	111.12
1981.654	112.24
1984.852	113.74
1988.048	114.13
1991.245	116.76
1994.441	118.68
1997.637	121.26
2000.833	123.59
2004.028	124.53
2007.223	128.45
2010.418	131.06
2013.613	137.15
2016.807	140.54
2020.001	144.19
2023.194	148.2
2026.388	152.95
2029.581	158.92
2032.774	163.16
2035.966	168.48
2039.158	173.25
2042.35	177.26
2045.542	179.14
2048.733	185.43
2051.924	189.07
2055.115	191.39
2058.306	193.42
2061.496	195.21
2064.686	199.13
2067.875	198.75
2071.065	199.77
2074.254	200.76
2077.442	206.62
2080.631	207.11
2083.819	208.6
2087.007	211.26
2090.195	214.91
2093.382	214.82
2096.569	216.08
2099.756	218.82
2102.942	223.13
2106.128	227.64
2109.314	230.55
2112.5	228.75
2115.685	229.9
2118.87	230.96
2122.055	231.74
2125.239	235.94
2128.424	243.22
2131.608	241.26
2134.791	237.84
2137.974	240.3
2141.157	242.56
2144.34	243.74
2147.523	246.42
2150.705	252.88
2153.887	251.37
2157.068	253.06
2160.25	255.46
2163.431	253.89
2166.611	258.59
2169.792	264.18
2172.972	268.02
2176.152	268.64
2179.331	275.73
2182.511	276.71
2185.69	279.7
2188.868	289.75
2192.047	294.59
2195.225	298.79
2198.403	303.88
2201.58	299.5
2204.758	310.94
2207.935	310.77
2211.111	313.53
2214.288	314.01
2217.464	317.5
2220.64	318.48
2223.815	318.72
2226.991	317.69
2230.166	320.39
2233.34	329.26
2236.515	340.64
2239.689	338.09
2242.863	342.58
2246.036	342.73
2249.209	349.45
2252.382	353.01
2255.555	365.58
2258.727	367.35
2261.9	378.66
2265.071	384.38
2268.243	378.94
2271.414	387.89
2274.585	394.16
2277.756	396.46
2280.926	408.44
2284.096	409.27
2287.266	408.4
2290.436	400.8
2293.605	411.35
2296.774	425.86
2299.942	421.46
2303.111	437.24
2306.279	445.01
2309.447	447.46
2312.614	449.32
2315.781	462.63
2318.948	472.71
2322.115	479.37
2325.281	503.93
2328.447	499.43
2331.613	498.82
2334.779	513.1
2337.944	515.88
2341.109	527.94
2344.274	530.01
2347.438	548.99
2350.602	554.99
2353.766	584.77
2356.929	588.88
2360.092	597.35
2363.255	599.68
2366.418	610.5
2369.58	619.4
2372.742	620.22
2375.904	616.81
2379.066	636.17
2382.227	670.37
2385.388	673.02
2388.548	637.49
2391.709	628.44
2394.869	651.86
2398.029	653.71
2401.188	652.33
2404.347	672.48
2407.506	691.96
2410.665	667.23
2413.823	673.27
2416.981	667.82
2420.139	638.11
2423.296	686.13
2426.453	735.94
2429.61	702.84
2432.767	749.24
2435.923	774.46
2439.079	753.54
2442.235	772.09
2445.391	793.48
2448.546	784.14
2451.701	826.22
2454.855	876.19
2458.009	786.82
2461.163	792.8
2464.317	800.3
2467.471	785.25
2470.624	805.3
2473.777	790.84
2476.929	766.82
2480.082	808.48
2483.234	847.28
2486.385	860.81
2489.537	886.81
2492.688	969.05
2495.839	961.31
2498.989	986.5
2502.14	986.54
2505.29	949.73
2508.439	1053.39
2511.589	1083.15
2514.738	1056.02
2517.887	1046.33
2521.035	984.17
2524.183	960.37
2527.331	950.84
2530.479	925.98
2533.627	944.58
