Data from N_1_div_wi_4n_029_Splice17_15.txt Node
Date: Sat Feb 29 13:45:40 EST 2020
User: sa697716
Spectrometer: FLMS03696
Trigger mode: 0
Integration Time (sec): 3.180400E-1
Scans to average: 20
Electric dark correction enabled: true
Nonlinearity correction enabled: true
Boxcar width: 5
XAxis mode: Wavelengths
Number of Pixels in Spectrum: 2048
>>>>>Begin Spectral Data<<<<<
187.83	63.97
188.298	53.34
188.766	56.1
189.233	57.42
189.701	69.85
190.169	67.28
190.636	72.44
191.104	59.95
191.571	79.36
192.039	61.49
192.506	358.25
192.974	8212.74
193.441	-244.38
193.908	92.29
194.375	66.65
194.842	170.64
195.31	54.72
195.777	67.21
196.244	40.07
196.711	38.42
197.177	36.11
197.644	35.49
198.111	35.44
198.578	36.38
199.045	37.57
199.511	38.66
199.978	38.83
200.445	39.05
200.911	39.3
201.378	38.95
201.844	39.39
202.31	40.23
202.777	40.88
203.243	41.35
203.709	41.63
204.176	41.09
204.642	41.14
205.108	41.15
205.574	41.68
206.04	41.47
206.506	41.76
206.972	41.66
207.438	41.06
207.903	40.75
208.369	40.24
208.835	40.1
209.301	40.28
209.766	39.98
210.232	39.98
210.697	39.49
211.163	39.13
211.628	39.01
212.094	38.81
212.559	38.54
213.024	38.11
213.49	38.13
213.955	37.88
214.42	37.45
214.885	36.94
215.35	36.39
215.815	35.97
216.28	35.67
216.745	34.87
217.21	34.15
217.675	33.42
218.14	32.77
218.604	31.88
219.069	31.28
219.534	30.65
219.998	30.18
220.463	29.8
220.927	29.36
221.392	28.92
221.856	28.55
222.32	28.18
222.785	27.87
223.249	27.56
223.713	27.35
224.177	27.04
224.642	26.83
225.106	26.58
225.57	26.29
226.034	26.07
226.497	25.79
226.961	25.54
227.425	25.27
227.889	25.04
228.353	24.76
228.816	24.52
229.28	24.26
229.744	24.05
230.207	23.82
230.671	23.59
231.134	23.35
231.597	23.14
232.061	22.93
232.524	22.75
232.987	22.53
233.45	22.33
233.914	22.14
234.377	21.96
234.84	21.75
235.303	21.55
235.766	21.36
236.229	21.19
236.691	21.04
237.154	20.88
237.617	20.71
238.08	20.57
238.542	20.43
239.005	20.26
239.468	20.09
239.93	19.96
240.393	19.82
240.855	19.69
241.317	19.57
241.78	19.44
242.242	19.31
242.704	19.2
243.166	19.07
243.629	18.96
244.091	18.86
244.553	18.78
245.015	18.68
245.477	18.57
245.939	18.47
246.4	18.36
246.862	18.26
247.324	18.19
247.786	18.08
248.247	18
248.709	17.91
249.17	17.84
249.632	17.74
250.093	17.65
250.555	17.59
251.016	17.53
251.477	17.47
251.939	17.41
252.4	17.33
252.861	17.3
253.322	17.24
253.783	17.21
254.244	17.16
254.705	17.13
255.166	17.09
255.627	17.04
256.088	16.98
256.549	16.93
257.009	16.87
257.47	16.84
257.931	16.78
258.391	16.72
258.852	16.68
259.312	16.64
259.773	16.59
260.233	16.55
260.694	16.53
261.154	16.49
261.614	16.47
262.074	16.46
262.534	16.42
262.994	16.4
263.455	16.39
263.915	16.36
264.374	16.33
264.834	16.31
265.294	16.29
265.754	16.26
266.214	16.25
266.673	16.23
267.133	16.21
267.593	16.2
268.052	16.2
268.512	16.18
268.971	16.17
269.431	16.17
269.89	16.17
270.349	16.17
270.809	16.18
271.268	16.18
271.727	16.18
272.186	16.17
272.645	16.17
273.104	16.15
273.563	16.16
274.022	16.15
274.481	16.15
274.94	16.14
275.399	16.12
275.857	16.1
276.316	16.09
276.775	16.07
277.233	16.05
277.692	16.02
278.15	15.99
278.609	15.95
279.067	15.92
279.525	15.89
279.984	15.86
280.442	15.84
280.9	15.81
281.358	15.78
281.816	15.75
282.274	15.73
282.732	15.71
283.19	15.7
283.648	15.69
284.106	15.67
284.564	15.67
285.021	15.65
285.479	15.64
285.937	15.62
286.394	15.6
286.852	15.59
287.309	15.57
287.767	15.56
288.224	15.54
288.682	15.53
289.139	15.5
289.596	15.46
290.053	15.43
290.511	15.39
290.968	15.36
291.425	15.33
291.882	15.31
292.339	15.27
292.796	15.24
293.252	15.22
293.709	15.19
294.166	15.17
294.623	15.15
295.079	15.13
295.536	15.12
295.992	15.09
296.449	15.09
296.905	15.06
297.362	15.04
297.818	15.03
298.274	15.02
298.731	15
299.187	14.97
299.643	14.96
300.099	14.94
300.555	14.92
301.011	14.91
301.467	14.88
301.923	14.86
302.379	14.84
302.835	14.82
303.291	14.8
303.746	14.79
304.202	14.77
304.658	14.76
305.113	14.75
305.569	14.74
306.024	14.74
306.479	14.72
306.935	14.7
307.39	14.71
307.845	14.7
308.301	14.68
308.756	14.68
309.211	14.67
309.666	14.67
310.121	14.66
310.576	14.65
311.031	14.64
311.486	14.64
311.94	14.63
312.395	14.62
312.85	14.6
313.305	14.61
313.759	14.6
314.214	14.58
314.668	14.58
315.123	14.56
315.577	14.55
316.032	14.54
316.486	14.53
316.94	14.51
317.394	14.49
317.849	14.49
318.303	14.46
318.757	14.44
319.211	14.41
319.665	14.4
320.119	14.38
320.572	14.37
321.026	14.35
321.48	14.34
321.934	14.34
322.387	14.32
322.841	14.31
323.295	14.3
323.748	14.29
324.202	14.29
324.655	14.28
325.108	14.26
325.562	14.25
326.015	14.23
326.468	14.2
326.921	14.19
327.374	14.17
327.827	14.16
328.28	14.13
328.733	14.1
329.186	14.08
329.639	14.07
330.092	14.06
330.545	14.05
330.997	14.05
331.45	14.05
331.903	14.04
332.355	14.04
332.808	14.04
333.26	14.04
333.713	14.05
334.165	14.06
334.617	14.07
335.069	14.06
335.522	14.06
335.974	14.06
336.426	14.05
336.878	14.05
337.33	14.05
337.782	14.06
338.234	14.06
338.686	14.05
339.137	14.04
339.589	14.02
340.041	14
340.493	14
340.944	13.99
341.396	13.98
341.847	13.96
342.299	13.93
342.75	13.89
343.201	13.87
343.653	13.84
344.104	13.81
344.555	13.79
345.006	13.77
345.457	13.75
345.908	13.72
346.359	13.7
346.81	13.69
347.261	13.67
347.712	13.68
348.163	13.67
348.613	13.66
349.064	13.65
349.515	13.64
349.965	13.64
350.416	13.63
350.866	13.62
351.317	13.61
351.767	13.61
352.217	13.6
352.668	13.6
353.118	13.61
353.568	13.6
354.018	13.61
354.468	13.6
354.918	13.6
355.368	13.6
355.818	13.59
356.268	13.6
356.718	13.6
357.168	13.6
357.617	13.6
358.067	13.58
358.517	13.57
358.966	13.57
359.416	13.58
359.865	13.59
360.315	13.59
360.764	13.59
361.213	13.59
361.663	13.6
362.112	13.6
362.561	13.61
363.01	13.62
363.459	13.62
363.908	13.62
364.357	13.62
364.806	13.6
365.255	13.61
365.703	13.61
366.152	13.63
366.601	13.61
367.05	13.63
367.498	13.64
367.947	13.65
368.395	13.67
368.844	13.68
369.292	13.68
369.74	13.7
370.189	13.73
370.637	13.74
371.085	13.76
371.533	13.8
371.981	13.81
372.429	13.81
372.877	13.81
373.325	13.82
373.773	13.85
374.221	13.87
374.669	13.89
375.116	13.9
375.564	13.92
376.012	13.94
376.459	13.98
376.907	14
377.354	14.05
377.801	14.1
378.249	14.14
378.696	14.16
379.143	14.21
379.591	14.24
380.038	14.27
380.485	14.32
380.932	14.35
381.379	14.35
381.826	14.4
382.273	14.42
382.72	14.45
383.166	14.46
383.613	14.48
384.06	14.5
384.506	14.5
384.953	14.53
385.4	14.54
385.846	14.56
386.292	14.6
386.739	14.61
387.185	14.63
387.631	14.66
388.078	14.69
388.524	14.69
388.97	14.71
389.416	14.73
389.862	14.73
390.308	14.74
390.754	14.75
391.2	14.75
391.645	14.77
392.091	14.77
392.537	14.78
392.983	14.81
393.428	14.85
393.874	14.87
394.319	14.88
394.765	14.9
395.21	14.89
395.655	14.92
396.101	14.92
396.546	14.93
396.991	14.92
397.436	14.9
397.881	14.89
398.326	14.88
398.771	14.88
399.216	14.9
399.661	14.9
400.106	14.93
400.551	14.92
400.995	14.9
401.44	14.89
401.885	14.88
402.329	14.87
402.774	14.85
403.218	14.85
403.663	14.84
404.107	14.82
404.551	14.82
404.995	14.8
405.44	14.79
405.884	14.76
406.328	14.75
406.772	14.76
407.216	14.76
407.66	14.77
408.104	14.74
408.547	14.73
408.991	14.7
409.435	14.68
409.879	14.68
410.322	14.66
410.766	14.67
411.209	14.67
411.653	14.66
412.096	14.65
412.54	14.63
412.983	14.63
413.426	14.62
413.869	14.61
414.312	14.62
414.756	14.6
415.199	14.61
415.642	14.62
416.085	14.62
416.527	14.63
416.97	14.64
417.413	14.64
417.856	14.62
418.298	14.59
418.741	14.59
419.184	14.57
419.626	14.55
420.069	14.54
420.511	14.53
420.953	14.51
421.396	14.49
421.838	14.48
422.28	14.49
422.722	14.51
423.164	14.53
423.606	14.54
424.048	14.54
424.49	14.56
424.932	14.56
425.374	14.56
425.816	14.55
426.258	14.53
426.699	14.49
427.141	14.44
427.582	14.41
428.024	14.4
428.465	14.42
428.907	14.43
429.348	14.41
429.789	14.4
430.231	14.38
430.672	14.38
431.113	14.4
431.554	14.42
431.995	14.46
432.436	14.46
432.877	14.46
433.318	14.45
433.759	14.45
434.2	14.45
434.64	14.46
435.081	14.47
435.522	14.49
435.962	14.49
436.403	14.51
436.843	14.54
437.284	14.57
437.724	14.58
438.164	14.57
438.604	14.57
439.045	14.59
439.485	14.59
439.925	14.58
440.365	14.59
440.805	14.57
441.245	14.55
441.685	14.54
442.125	14.54
442.564	14.57
443.004	14.57
443.444	14.57
443.883	14.57
444.323	14.57
444.762	14.62
445.202	14.65
445.641	14.7
446.081	14.73
446.52	14.72
446.959	14.72
447.398	14.76
447.837	14.8
448.276	14.8
448.716	14.83
449.154	14.85
449.593	14.89
450.032	14.88
450.471	14.88
450.91	14.89
451.349	14.9
451.787	14.92
452.226	14.88
452.664	14.86
453.103	14.85
453.541	14.84
453.98	14.81
454.418	14.76
454.856	14.74
455.295	14.72
455.733	14.69
456.171	14.68
456.609	14.66
457.047	14.66
457.485	14.64
457.923	14.64
458.361	14.63
458.798	14.65
459.236	14.65
459.674	14.66
460.111	14.67
460.549	14.66
460.987	14.65
461.424	14.63
461.862	14.61
462.299	14.6
462.736	14.59
463.173	14.58
463.611	14.56
464.048	14.55
464.485	14.52
464.922	14.52
465.359	14.51
465.796	14.5
466.233	14.5
466.67	14.5
467.106	14.51
467.543	14.51
467.98	14.54
468.416	14.54
468.853	14.55
469.29	14.56
469.726	14.54
470.162	14.55
470.599	14.56
471.035	14.57
471.471	14.56
471.907	14.55
472.344	14.55
472.78	14.54
473.216	14.53
473.652	14.53
474.088	14.53
474.523	14.54
474.959	14.52
475.395	14.53
475.831	14.51
476.266	14.52
476.702	14.5
477.138	14.49
477.573	14.46
478.008	14.44
478.444	14.42
478.879	14.41
479.314	14.39
479.75	14.38
480.185	14.35
480.62	14.34
481.055	14.33
481.49	14.32
481.925	14.29
482.36	14.27
482.795	14.24
483.229	14.23
483.664	14.19
484.099	14.15
484.534	14.14
484.968	14.13
485.403	14.1
485.837	14.09
486.271	14.07
486.706	14.09
487.14	14.1
487.574	14.1
488.009	14.11
488.443	14.12
488.877	14.14
489.311	14.15
489.745	14.14
490.179	14.14
490.613	14.14
491.046	14.16
491.48	14.16
491.914	14.16
492.348	14.16
492.781	14.16
493.215	14.16
493.648	14.17
494.082	14.17
494.515	14.18
494.948	14.2
495.382	14.22
495.815	14.22
496.248	14.24
496.681	14.23
497.114	14.25
497.547	14.26
497.98	14.28
498.413	14.29
498.846	14.3
499.279	14.32
499.711	14.33
500.144	14.33
500.577	14.36
501.009	14.39
501.442	14.43
501.874	14.46
502.306	14.49
502.739	14.52
503.171	14.56
503.603	14.61
504.036	14.68
504.468	14.75
504.9	14.83
505.332	14.88
505.764	14.95
506.196	15.04
506.627	15.13
507.059	15.23
507.491	15.32
507.923	15.42
508.354	15.51
508.786	15.62
509.217	15.71
509.649	15.81
510.08	15.94
510.512	16.06
510.943	16.18
511.374	16.29
511.805	16.42
512.237	16.56
512.668	16.7
513.099	16.87
513.53	17.02
513.961	17.19
514.391	17.36
514.822	17.53
515.253	17.7
515.684	17.86
516.114	18.06
516.545	18.23
516.975	18.43
517.406	18.62
517.836	18.81
518.267	19
518.697	19.2
519.127	19.4
519.558	19.6
519.988	19.81
520.418	20.01
520.848	20.2
521.278	20.41
521.708	20.52
522.138	20.69
522.567	20.9
522.997	21.1
523.427	21.28
523.857	21.46
524.286	21.64
524.716	21.83
525.145	22.02
525.575	22.21
526.004	22.38
526.433	22.65
526.863	22.83
527.292	22.98
527.721	23.13
528.15	23.29
528.579	23.46
529.008	23.61
529.437	23.73
529.866	23.85
530.295	23.97
530.724	24.1
531.152	24.24
531.581	24.35
532.01	24.46
532.438	24.57
532.867	24.66
533.295	24.73
533.723	24.81
534.152	24.9
534.58	24.98
535.008	25.03
535.436	25.1
535.865	25.15
536.293	25.21
536.721	25.27
537.149	25.3
537.576	25.37
538.004	25.42
538.432	25.47
538.86	25.52
539.287	25.56
539.715	25.6
540.143	25.62
540.57	25.65
540.998	25.69
541.425	25.71
541.852	25.75
542.28	25.76
542.707	25.78
543.134	25.81
543.561	25.8
543.988	25.82
544.415	25.84
544.842	25.87
545.269	25.9
545.696	25.93
546.123	25.94
546.549	25.96
546.976	25.99
547.403	26
547.829	26.01
548.256	26.05
548.682	26.06
549.108	26.06
549.535	26.07
549.961	26.07
550.387	26.05
550.813	26.04
551.24	26.02
551.666	26.02
552.092	26.02
552.518	25.99
552.943	25.99
553.369	25.97
553.795	25.95
554.221	25.9
554.646	25.86
555.072	25.83
555.498	25.79
555.923	25.76
556.349	25.7
556.774	25.64
557.199	25.59
557.625	25.5
558.05	25.42
558.475	25.36
558.9	25.3
559.325	25.22
559.75	25.14
560.175	25.05
560.6	24.96
561.025	24.86
561.449	24.77
561.874	24.66
562.299	24.56
562.723	24.44
563.148	24.33
563.572	24.23
563.997	24.1
564.421	23.98
564.846	23.86
565.27	23.74
565.694	23.61
566.118	23.48
566.542	23.36
566.966	23.24
567.39	23.13
567.814	22.99
568.238	22.82
568.662	22.7
569.086	22.58
569.509	22.46
569.933	22.32
570.357	22.17
570.78	22.03
571.204	21.89
571.627	21.75
572.05	21.63
572.474	21.5
572.897	21.39
573.32	21.26
573.743	21.12
574.166	21
574.589	20.89
575.012	20.81
575.435	20.72
575.858	20.61
576.281	20.52
576.704	20.42
577.126	20.33
577.549	20.26
577.972	20.19
578.394	20.1
578.817	20.02
579.239	19.95
579.661	19.88
580.084	19.82
580.506	19.76
580.928	19.71
581.35	19.64
581.772	19.59
582.194	19.54
582.616	19.47
583.038	19.42
583.46	19.38
583.882	19.32
584.303	19.27
584.725	19.23
585.147	19.16
585.568	19.09
585.99	19.05
586.411	19
586.833	18.95
587.254	18.91
587.675	18.87
588.096	18.82
588.518	18.78
588.939	18.76
589.36	18.69
589.781	18.67
590.202	18.65
590.623	18.62
591.043	18.56
591.464	18.52
591.885	18.48
592.305	18.46
592.726	18.41
593.147	18.38
593.567	18.34
593.987	18.32
594.408	18.26
594.828	18.21
595.248	18.19
595.669	18.18
596.089	18.16
596.509	18.13
596.929	18.08
597.349	18.07
597.769	18.03
598.189	17.99
598.608	17.95
599.028	17.93
599.448	17.92
599.867	17.87
600.287	17.83
600.706	17.79
601.126	17.75
601.545	17.73
601.965	17.68
602.384	17.66
602.803	17.63
603.222	17.58
603.641	17.56
604.061	17.5
604.48	17.46
604.898	17.43
605.317	17.4
605.736	17.35
606.155	17.3
606.574	17.26
606.992	17.19
607.411	17.14
607.829	17.06
608.248	17.02
608.666	16.97
609.085	16.92
609.503	16.86
609.921	16.78
610.339	16.74
610.758	16.7
611.176	16.65
611.594	16.62
612.012	16.56
612.43	16.57
612.847	16.52
613.265	16.49
613.683	16.44
614.101	16.41
614.518	16.36
614.936	16.32
615.353	16.27
615.771	16.22
616.188	16.18
616.606	16.16
617.023	16.1
617.44	16.06
617.857	16.02
618.274	15.98
618.691	15.95
619.108	15.92
619.525	15.89
619.942	15.87
620.359	15.85
620.776	15.82
621.192	15.79
621.609	15.77
622.026	15.75
622.442	15.74
622.859	15.73
623.275	15.71
623.691	15.7
624.108	15.69
624.524	15.66
624.94	15.63
625.356	15.62
625.772	15.62
626.188	15.6
626.604	15.58
627.02	15.57
627.436	15.55
627.852	15.52
628.268	15.5
628.683	15.48
629.099	15.46
629.514	15.44
629.93	15.42
630.345	15.4
630.761	15.37
631.176	15.35
631.591	15.31
632.007	15.28
632.422	15.26
632.837	15.23
633.252	15.2
633.667	15.16
634.082	15.13
634.497	15.06
634.911	15
635.326	14.94
635.741	14.87
636.155	14.81
636.57	14.75
636.984	14.67
637.399	14.59
637.813	14.5
638.228	14.42
638.642	14.35
639.056	14.29
639.47	14.23
639.884	14.17
640.298	14.11
640.712	14.04
641.126	13.99
641.54	13.93
641.954	13.89
642.368	13.84
642.781	13.79
643.195	13.74
643.609	13.69
644.022	13.62
644.436	13.58
644.849	13.53
645.262	13.5
645.676	13.44
646.089	13.41
646.502	13.37
646.915	13.34
647.328	13.31
647.741	13.27
648.154	13.25
648.567	13.25
648.98	13.23
649.393	13.21
649.805	13.18
650.218	13.18
650.631	13.18
651.043	13.18
651.456	13.16
651.868	13.14
652.28	13.15
652.693	13.12
653.105	13.1
653.517	13.08
653.929	13.08
654.341	13.08
654.753	13.06
655.165	13.04
655.577	13
655.989	12.99
656.401	12.97
656.813	12.93
657.224	12.92
657.636	12.91
658.047	12.89
658.459	12.85
658.87	12.82
659.282	12.8
659.693	12.78
660.104	12.77
660.515	12.75
660.926	12.75
661.338	12.74
661.749	12.72
662.159	12.7
662.57	12.68
662.981	12.67
663.392	12.67
663.803	12.65
664.213	12.64
664.624	12.64
665.035	12.62
665.445	12.62
665.855	12.6
666.266	12.6
666.676	12.59
667.086	12.59
667.497	12.59
667.907	12.6
668.317	12.6
668.727	12.59
669.137	12.59
669.547	12.6
669.956	12.6
670.366	12.63
670.776	12.64
671.186	12.65
671.595	12.65
672.005	12.67
672.414	12.67
672.824	12.7
673.233	12.73
673.642	12.75
674.052	12.77
674.461	12.79
674.87	12.81
675.279	12.84
675.688	12.86
676.097	12.9
676.506	12.92
676.915	12.95
677.323	12.98
677.732	13.01
678.141	13.03
678.549	13.07
678.958	13.1
679.366	13.13
679.775	13.16
680.183	13.2
680.592	13.23
681	13.27
681.408	13.31
681.816	13.34
682.224	13.38
682.632	13.43
683.04	13.48
683.448	13.53
683.856	13.59
684.264	13.64
684.671	13.71
685.079	13.79
685.487	13.87
685.894	13.98
686.302	14.1
686.709	14.22
687.116	14.37
687.524	14.52
687.931	14.67
688.338	14.87
688.745	15.09
689.152	15.33
689.559	15.56
689.966	15.81
690.373	16.08
690.78	16.38
691.187	16.69
691.593	17.02
692	17.38
692.407	17.8
692.813	18.19
693.22	18.58
693.626	19.02
694.032	19.48
694.439	19.97
694.845	20.45
695.251	20.93
695.657	21.44
696.063	21.95
696.469	22.46
696.875	22.97
697.281	23.5
697.687	24.05
698.093	24.56
698.498	25.11
698.904	25.67
699.31	26.2
699.715	26.78
700.12	27.35
700.526	27.9
700.931	28.46
701.337	29.03
701.742	29.56
702.147	30.12
702.552	30.7
702.957	31.23
703.362	31.76
703.767	32.33
704.172	32.86
704.577	33.4
704.981	33.93
705.386	34.47
705.791	34.98
706.195	35.51
706.6	36
707.004	36.5
707.408	37.01
707.813	37.5
708.217	37.98
708.621	38.44
709.025	38.91
709.43	39.38
709.834	39.84
710.237	40.31
710.641	40.81
711.045	41.25
711.449	41.69
711.853	42.16
712.256	42.62
712.66	43.07
713.064	43.51
713.467	43.94
713.87	44.39
714.274	44.84
714.677	45.27
715.08	45.66
715.484	46.1
715.887	46.54
716.29	46.93
716.693	47.35
717.096	47.75
717.499	48.16
717.901	48.54
718.304	48.9
718.707	49.25
719.109	49.64
719.512	50.04
719.915	50.37
720.317	50.71
720.719	51.06
721.122	51.39
721.524	51.72
721.926	52.04
722.328	52.36
722.731	52.68
723.133	52.98
723.535	53.28
723.937	53.56
724.338	53.83
724.74	54.09
725.142	54.31
725.544	54.53
725.945	54.74
726.347	55.03
726.748	55.21
727.15	55.45
727.551	55.69
727.952	55.84
728.354	56.04
728.755	56.23
729.156	56.41
729.557	56.66
729.958	56.9
730.359	57.09
730.76	57.21
731.161	57.42
731.562	57.58
731.962	57.71
732.363	57.91
732.763	58.07
733.164	58.25
733.564	58.39
733.965	58.5
734.365	58.58
734.766	58.7
735.166	58.8
735.566	58.89
735.966	58.96
736.366	59.04
736.766	59.11
737.166	59.2
737.566	59.28
737.966	59.37
738.365	59.47
738.765	59.56
739.165	59.61
739.564	59.7
739.964	59.78
740.363	59.87
740.763	59.93
741.162	59.98
741.561	60.02
741.96	60.08
742.36	60.15
742.759	60.14
743.158	60.18
743.557	60.26
743.955	60.31
744.354	60.34
744.753	60.42
745.152	60.45
745.55	60.54
745.949	60.59
746.348	60.64
746.746	60.66
747.144	60.75
747.543	60.83
747.941	60.87
748.339	60.91
748.737	61
749.136	61.03
749.534	61.07
749.932	61.06
750.33	61.09
750.727	61.12
751.125	61.16
751.523	61.17
751.921	61.18
752.318	61.18
752.716	61.18
753.113	61.15
753.511	61.13
753.908	61.12
754.305	61.1
754.703	61.1
755.1	61.07
755.497	61.05
755.894	61.06
756.291	61.03
756.688	61.01
757.085	60.98
757.482	61.01
757.878	61.08
758.275	61.09
758.672	61.14
759.068	61.15
759.465	61.2
759.861	61.2
760.258	61.18
760.654	61.18
761.05	61.21
761.447	61.2
761.843	61.16
762.239	61.11
762.635	61.1
763.031	61.07
763.427	61.03
763.822	60.97
764.218	60.95
764.614	60.92
765.01	60.9
765.405	60.87
765.801	60.9
766.196	60.88
766.592	60.86
766.987	60.83
767.382	60.81
767.778	60.8
768.173	60.83
768.568	60.83
768.963	60.85
769.358	60.83
769.753	60.85
770.148	60.85
770.542	60.85
770.937	60.85
771.332	60.85
771.726	60.86
772.121	60.85
772.515	60.83
772.91	60.81
773.304	60.76
773.699	60.77
774.093	60.72
774.487	60.7
774.881	60.7
775.275	60.71
775.669	60.71
776.063	60.67
776.457	60.65
776.851	60.61
777.245	60.66
777.638	60.68
778.032	60.69
778.425	60.69
778.819	60.67
779.212	60.66
779.606	60.69
779.999	60.7
780.392	60.7
780.786	60.67
781.179	60.72
781.572	60.68
781.965	60.66
782.358	60.59
782.751	60.6
783.143	60.63
783.536	60.68
783.929	60.63
784.322	60.64
784.714	60.65
785.107	60.71
785.499	60.68
785.891	60.67
786.284	60.65
786.676	60.72
787.068	60.75
787.46	60.74
787.852	60.69
788.245	60.72
788.636	60.71
789.028	60.71
789.42	60.69
789.812	60.71
790.204	60.68
790.595	60.7
790.987	60.69
791.378	60.68
791.77	60.71
792.161	60.71
792.553	60.71
792.944	60.72
793.335	60.74
793.726	60.75
794.117	60.71
794.508	60.75
794.899	60.73
795.29	60.71
795.681	60.69
796.072	60.65
796.463	60.67
796.853	60.62
797.244	60.61
797.634	60.56
798.025	60.57
798.415	60.57
798.806	60.61
799.196	60.65
799.586	60.66
799.976	60.66
800.366	60.65
800.756	60.65
801.146	60.69
801.536	60.66
801.926	60.7
802.316	60.72
802.706	60.76
803.095	60.73
803.485	60.73
803.874	60.75
804.264	60.83
804.653	60.85
805.043	60.82
805.432	60.78
805.821	60.81
806.21	60.86
806.599	60.88
806.988	60.85
807.377	60.87
807.766	60.86
808.155	60.87
808.544	60.83
808.933	60.81
809.321	60.88
809.71	60.97
810.098	60.96
810.487	60.94
810.875	60.92
811.264	60.98
811.652	60.98
812.04	60.99
812.428	61
812.816	61.03
813.204	61.03
813.592	61
813.98	60.98
814.368	60.99
814.756	60.99
815.144	61.02
815.531	61
815.919	60.97
816.306	60.95
816.694	60.97
817.081	60.94
817.469	60.96
817.856	61.02
818.243	61.02
818.63	61.08
819.017	61.1
819.404	61.1
819.791	61.15
820.178	61.2
820.565	61.25
820.952	61.23
821.339	61.26
821.725	61.28
822.112	61.24
822.498	61.26
822.885	61.24
823.271	61.22
823.657	61.19
824.044	61.15
824.43	61.14
824.816	61.13
825.202	61.16
825.588	61.18
825.974	61.18
826.36	61.2
826.746	61.22
827.132	61.23
827.517	61.24
827.903	61.26
828.289	61.27
828.674	61.28
829.06	61.29
829.445	61.33
829.83	61.33
830.216	61.31
830.601	61.3
830.986	61.27
831.371	61.31
831.756	61.29
832.141	61.29
832.526	61.31
832.911	61.32
833.295	61.31
833.68	61.28
834.065	61.27
834.449	61.25
834.834	61.24
835.218	61.24
835.603	61.22
835.987	61.23
836.371	61.26
836.755	61.25
837.139	61.23
837.524	61.21
837.908	61.17
838.291	61.16
838.675	61.17
839.059	61.18
839.443	61.15
839.827	61.13
840.21	61.13
840.594	61.1
840.977	61.09
841.361	61.11
841.744	61.13
842.127	61.16
842.511	61.16
842.894	61.17
843.277	61.18
843.66	61.2
844.043	61.22
844.426	61.2
844.809	61.19
845.191	61.15
845.574	61.13
845.957	61.08
846.339	61.06
846.722	61.07
847.104	61.08
847.487	61.08
847.869	61.07
848.252	61.06
848.634	61.09
849.016	61.1
849.398	61.14
849.78	61.16
850.162	61.18
850.544	61.2
850.926	61.18
851.307	61.16
851.689	61.12
852.071	61.1
852.452	61.11
852.834	61.05
853.215	61.04
853.597	61.03
853.978	61
854.359	61.02
854.741	61.01
855.122	61.01
855.503	61.02
855.884	61.02
856.265	61.02
856.646	61
857.026	61.02
857.407	60.99
857.788	61.02
858.169	61.03
858.549	61.02
858.93	61.01
859.31	60.96
859.69	60.94
860.071	60.95
860.451	60.96
860.831	60.97
861.211	61
861.591	61.03
861.971	60.98
862.351	60.99
862.731	61
863.111	61
863.491	61.04
863.87	61.05
864.25	61.04
864.629	61.03
865.009	61.02
865.388	61
865.768	60.99
866.147	61.01
866.526	61
866.905	61.01
867.284	61.02
867.663	61.01
868.042	61
868.421	61
868.8	61
869.179	60.99
869.558	60.98
869.936	60.98
870.315	60.97
870.693	60.95
871.072	60.94
871.45	60.89
871.828	60.94
872.207	60.97
872.585	60.97
872.963	60.95
873.341	60.97
873.719	60.99
874.097	60.97
874.475	60.98
874.853	60.98
875.23	60.98
875.608	61.01
875.986	60.95
876.363	60.91
876.741	60.89
877.118	60.9
877.495	60.87
877.873	60.8
878.25	60.81
878.627	60.78
879.004	60.75
879.381	60.73
879.758	60.72
880.135	60.74
880.512	60.76
880.889	60.79
881.265	60.78
881.642	60.77
882.019	60.81
882.395	60.79
882.772	60.81
883.148	60.8
883.524	60.82
883.901	60.79
884.277	60.76
884.653	60.72
885.029	60.7
885.405	60.72
885.781	60.73
886.157	60.73
886.532	60.73
886.908	60.74
887.284	60.78
887.659	60.76
888.035	60.78
888.411	60.78
888.786	60.79
889.161	60.8
889.537	60.8
889.912	60.78
890.287	60.76
890.662	60.74
891.037	60.7
891.412	60.67
891.787	60.65
892.162	60.6
892.536	60.6
892.911	60.58
893.286	60.54
893.66	60.5
894.035	60.48
894.409	60.45
894.784	60.45
895.158	60.45
895.532	60.42
895.906	60.41
896.281	60.43
896.655	60.43
897.029	60.43
897.402	60.43
897.776	60.42
898.15	60.43
898.524	60.45
898.898	60.41
899.271	60.42
899.645	60.41
900.018	60.4
900.392	60.41
900.765	60.39
901.138	60.36
901.511	60.35
901.884	60.35
902.258	60.34
902.631	60.32
903.003	60.31
903.376	60.32
903.749	60.33
904.122	60.34
904.495	60.34
904.867	60.32
905.24	60.31
905.612	60.31
905.985	60.28
906.357	60.29
906.729	60.27
907.102	60.27
907.474	60.24
907.846	60.22
908.218	60.17
908.59	60.13
908.962	60.09
909.334	60.09
909.705	60.06
910.077	60.03
910.449	59.99
910.82	59.97
911.192	60.01
911.563	59.98
911.935	59.93
912.306	59.94
912.677	59.95
913.048	59.97
913.419	59.96
913.79	59.93
914.161	59.91
914.532	59.89
914.903	59.88
915.274	59.82
915.645	59.85
916.015	59.89
916.386	59.86
916.756	59.81
917.127	59.78
917.497	59.79
917.868	59.78
918.238	59.8
918.608	59.84
918.978	59.85
919.348	59.84
919.718	59.83
920.088	59.78
920.458	59.87
920.828	59.93
921.198	59.92
921.567	59.89
921.937	59.93
922.306	59.9
922.676	59.88
923.045	59.84
923.415	59.84
923.784	59.84
924.153	59.83
924.522	59.73
924.891	59.67
925.26	59.67
925.629	59.66
925.998	59.64
926.367	59.65
926.736	59.66
927.104	59.64
927.473	59.7
927.842	59.64
928.21	59.63
928.578	59.61
928.947	59.65
929.315	59.67
929.683	59.68
930.051	59.65
930.42	59.62
930.788	59.56
931.156	59.58
931.523	59.48
931.891	59.48
932.259	59.45
932.627	59.4
932.994	59.33
933.362	59.24
933.729	59.16
934.097	59.04
934.464	59
934.831	58.92
935.199	58.81
935.566	58.77
935.933	58.7
936.3	58.57
936.667	58.51
937.034	58.4
937.401	58.33
937.767	58.27
938.134	58.28
938.501	58.21
938.867	58.31
939.234	58.39
939.6	58.37
939.967	58.32
940.333	58.45
940.699	58.56
941.065	58.71
941.431	58.83
941.798	58.91
942.163	59.01
942.529	59.1
942.895	59.1
943.261	58.99
943.627	59.07
943.992	59.18
944.358	59.18
944.723	59.16
945.089	59.17
945.454	59.23
945.82	59.22
946.185	59.22
946.55	59.28
946.915	59.31
947.28	59.39
947.645	59.33
948.01	59.3
948.375	59.29
948.74	59.22
949.104	59.27
949.469	59.17
949.834	59.14
950.198	59.03
950.562	58.98
950.927	58.95
951.291	58.87
951.655	58.87
952.02	58.86
952.384	58.91
952.748	58.99
953.112	58.82
953.476	58.77
953.839	58.74
954.203	58.75
954.567	58.77
954.931	58.75
955.294	58.81
955.658	58.72
956.021	58.7
956.385	58.61
956.748	58.55
957.111	58.55
957.474	58.58
957.837	58.59
958.2	58.55
958.563	58.41
958.926	58.32
959.289	58.29
959.652	58.34
960.015	58.28
960.377	58.23
960.74	58.14
961.102	58.15
961.465	58.15
961.827	58.02
962.189	58.04
962.552	58.03
962.914	58.05
963.276	58.01
963.638	57.96
964	57.93
964.362	57.96
964.724	57.98
965.085	57.95
965.447	57.9
965.809	57.85
966.17	57.82
966.532	57.83
966.893	57.78
967.255	57.71
967.616	57.69
967.977	57.69
968.338	57.7
968.699	57.64
969.061	57.67
969.421	57.63
969.782	57.71
970.143	57.67
970.504	57.59
970.865	57.54
971.225	57.56
971.586	57.55
971.946	57.53
972.307	57.46
972.667	57.48
973.027	57.43
973.388	57.42
973.748	57.45
974.108	57.36
974.468	57.43
974.828	57.52
975.188	57.51
975.548	57.49
975.907	57.54
976.267	57.55
976.627	57.47
976.986	57.5
977.346	57.53
977.705	57.59
978.064	57.71
978.424	57.68
978.783	57.64
979.142	57.57
979.501	57.49
979.86	57.45
980.219	57.42
980.578	57.49
980.937	57.44
981.296	57.38
981.654	57.33
982.013	57.28
982.371	57.19
982.73	57.19
983.088	57.2
983.447	57.27
983.805	57.3
984.163	57.25
984.521	57.15
984.879	57.2
985.237	57.26
985.595	57.27
985.953	57.26
986.311	57.41
986.669	57.4
987.026	57.41
987.384	57.45
987.741	57.39
988.099	57.34
988.456	57.34
988.814	57.33
989.171	57.28
989.528	57.22
989.885	57.07
990.242	57.07
990.599	57.05
990.956	57.07
991.313	56.99
991.67	57.05
992.027	57.2
992.383	57.37
992.74	57.27
993.096	57.28
993.453	57.24
993.809	57.42
994.165	57.42
994.522	57.29
994.878	57.3
995.234	57.28
995.59	57.16
995.946	56.99
996.302	56.81
996.658	56.8
997.013	56.74
997.369	56.83
997.725	56.78
998.08	56.67
998.436	56.83
998.791	56.78
999.147	56.89
999.502	56.98
999.857	57.08
1000.212	57.1
1000.567	57.13
1000.922	57.18
1001.277	57.02
1001.632	56.98
1001.987	57.09
1002.342	57.02
1002.696	57.17
1003.051	57.04
1003.406	56.92
1003.76	56.91
1004.114	57.1
1004.469	56.98
1004.823	56.94
1005.177	57
1005.531	56.98
1005.885	56.92
1006.239	56.89
1006.593	56.77
1006.947	56.69
1007.301	56.8
1007.655	56.7
1008.008	56.47
1008.362	56.65
1008.715	56.74
1009.069	56.69
1009.422	56.52
1009.776	56.38
1010.129	56.41
1010.482	56.44
1010.835	56.72
1011.188	56.7
1011.541	56.71
1011.894	56.64
1012.247	56.54
1012.6	56.37
1012.952	56.35
1013.305	56.44
1013.657	56.51
1014.01	56.57
1014.362	56.65
1014.715	56.4
1015.067	56.33
1015.419	56.5
1015.771	56.75
1016.123	56.77
1016.475	57.01
1016.827	57.04
1017.179	57.04
1017.531	57
1017.883	57.17
1018.234	56.96
1018.586	56.91
1018.938	56.7
1019.289	56.34
1019.64	56.35
1019.992	56.49
1020.343	56.18
1020.694	56.09
1021.045	56.21
1021.396	56.26
1021.747	56.17
1022.098	56.61
1022.449	56.75
1022.8	56.88
1023.151	57.19
1023.501	57.15
1023.852	57.11
1024.202	57.13
1024.553	57.39
1024.903	57.63
1025.253	57.7
1025.604	57.58
1025.954	57.08
1026.304	57.26
1026.654	57.56
1027.004	57.79
1027.354	57.5
1027.703	57.13
1028.053	56.98
1028.403	56.81
1028.753	56.65
1029.102	56.57
1029.452	56.48
1029.801	56.58
1030.15	56.47
1030.499	56.16
897.758	497.74
901.051	502.09
904.343	509.12
907.636	502.94
910.928	493.43
914.22	500.2
917.511	490.38
920.803	467.93
924.094	449.89
927.384	456.13
930.675	440.13
933.965	436.78
937.255	438.52
940.544	418.77
943.834	399.3
947.123	394.53
950.411	376.77
953.7	370.32
956.988	360.12
960.276	344.63
963.563	338.85
966.851	321.29
970.138	316.58
973.424	295.46
976.711	290.7
979.997	282.05
983.283	276.3
986.568	266.7
989.853	261.28
993.138	253.16
996.423	250.53
999.708	244.07
1002.992	244.77
1006.275	238.73
1009.559	237.2
1012.842	231.75
1016.125	224.38
1019.408	221.01
1022.69	220.04
1025.972	217.23
1029.254	211.16
1032.536	207.87
1035.817	200.62
1039.098	198.82
1042.379	194.47
1045.659	191.94
1048.939	189.45
1052.219	188.09
1055.498	184.38
1058.778	181.21
1062.057	178.07
1065.335	178.11
1068.614	174.56
1071.892	172.98
1075.17	170.06
1078.447	168.75
1081.724	166.93
1085.001	164.87
1088.278	163.34
1091.554	162.7
1094.83	161.35
1098.106	159.11
1101.382	158.15
1104.657	158.13
1107.932	157.91
1111.206	156.93
1114.481	154.83
1117.755	153.27
1121.029	152.76
1124.302	150.88
1127.575	148.58
1130.848	147.96
1134.121	146.44
1137.393	145.7
1140.665	144.37
1143.937	142.44
1147.208	140.97
1150.48	139.63
1153.75	139.95
1157.021	139.14
1160.291	138.71
1163.561	138.79
1166.831	137.75
1170.101	138.18
1173.37	136.86
1176.639	135.55
1179.907	135.74
1183.176	135.27
1186.444	134.7
1189.711	134.06
1192.979	134.27
1196.246	134.93
1199.513	133.88
1202.78	134.07
1206.046	133.43
1209.312	134.55
1212.578	135.61
1215.843	136.74
1219.108	137.58
1222.373	140.7
1225.638	142.09
1228.902	144.73
1232.166	147.56
1235.43	149.61
1238.693	153.89
1241.956	156.92
1245.219	159.94
1248.482	161.04
1251.744	161.02
1255.006	162.41
1258.268	156.98
1261.529	156.12
1264.79	152.59
1268.051	150.2
1271.312	149.35
1274.572	145.81
1277.832	142.71
1281.092	140.93
1284.351	138.51
1287.61	138.67
1290.869	137.22
1294.128	137.75
1297.386	137.22
1300.644	136.62
1303.902	135.46
1307.159	135.27
1310.416	135.58
1313.673	137.44
1316.93	138.05
1320.186	139.87
1323.442	140.82
1326.697	143.5
1329.953	143.92
1333.208	147.42
1336.463	152.7
1339.717	155.86
1342.972	161.38
1346.226	166.17
1349.479	167.46
1352.733	174.83
1355.986	178.63
1359.238	182.15
1362.491	183.22
1365.743	190.58
1368.995	191.68
1372.247	191.3
1375.498	190.62
1378.749	196
1382	193.42
1385.251	192.99
1388.501	191.6
1391.751	193.05
1395	191.3
1398.25	192.48
1401.499	190.25
1404.748	189.87
1407.996	184.81
1411.244	184.96
1414.492	182
1417.74	177.37
1420.987	172.35
1424.234	168.85
1427.481	162.37
1430.728	158.52
1433.974	151.75
1437.22	148.57
1440.465	143.57
1443.711	139.75
1446.956	135.21
1450.201	130.02
1453.445	125.2
1456.689	122.64
1459.933	118.51
1463.177	112.84
1466.42	110.42
1469.663	108.1
1472.906	104.11
1476.148	102.18
1479.391	100.05
1482.633	98.72
1485.874	97.33
1489.115	96.83
1492.356	94.51
1495.597	93.59
1498.838	94.45
1502.078	93.87
1505.318	93.76
1508.557	93.12
1511.797	91.67
1515.036	92.21
1518.274	92.04
1521.513	91.01
1524.751	90.28
1527.989	91.02
1531.227	90.84
1534.464	90.3
1537.701	89.98
1540.938	89.56
1544.174	89.73
1547.41	90.42
1550.646	89.62
1553.882	89.45
1557.117	89.71
1560.352	90.08
1563.587	89.06
1566.821	88.93
1570.055	88.9
1573.289	88.95
1576.523	89.11
1579.756	88.41
1582.989	88.58
1586.222	89.3
1589.454	88.59
1592.686	88.58
1595.918	88.13
1599.15	88.72
1602.381	88.8
1605.612	88.94
1608.843	88.2
1612.073	89.03
1615.303	89.81
1618.533	88.88
1621.762	88.82
1624.992	89.49
1628.221	89.33
1631.449	89.75
1634.678	88.96
1637.906	89.59
1641.134	89.4
1644.361	89.88
1647.588	89.46
1650.815	89.18
1654.042	89.99
1657.269	89.53
1660.495	90.09
1663.72	90.23
1666.946	90.29
1670.171	91.38
1673.396	91.54
1676.621	92.05
1679.845	92.11
1683.069	91.82
1686.293	91.63
1689.517	91.75
1692.74	91.97
1695.963	91.82
1699.185	92.23
1702.408	92.25
1705.63	92.46
1708.852	92.71
1712.073	92.37
1715.294	92.6
1718.515	93.06
1721.736	93.62
1724.956	93.21
1728.176	93.25
1731.396	93.58
1734.616	93.28
1737.835	93.23
1741.054	93.13
1744.272	91.98
1747.491	92.35
1750.709	92.89
1753.927	92.69
1757.144	92.97
1760.361	93.3
1763.578	93.68
1766.795	94.29
1770.011	93.8
1773.227	94.46
1776.443	94.86
1779.658	95.53
1782.874	96.07
1786.089	95.59
1789.303	95.9
1792.518	96.66
1795.732	97.19
1798.945	98.03
1802.159	97.89
1805.372	99.64
1808.585	99.47
1811.797	100.26
1815.01	101.55
1818.222	101.82
1821.434	102.73
1824.645	102.79
1827.856	104.07
1831.067	104.75
1834.278	105.34
1837.488	105.51
1840.698	106
1843.908	106.77
1847.117	107.3
1850.326	107.33
1853.535	107.59
1856.744	108.77
1859.952	109.89
1863.16	109.36
1866.368	108.66
1869.575	108.85
1872.782	108.45
1875.989	107.57
1879.196	107.27
1882.402	105.74
1885.608	106.05
1888.814	105.49
1892.019	105.8
1895.224	104.23
1898.429	104.55
1901.634	105.43
1904.838	105.82
1908.042	106.6
1911.246	106.64
1914.449	107.14
1917.652	107.68
1920.855	107.82
1924.058	107.32
1927.26	106.41
1930.462	107.35
1933.664	106.99
1936.865	106.69
1940.066	105
1943.267	103.73
1946.467	105.15
1949.668	104.74
1952.868	105.31
1956.067	105.27
1959.267	105.89
1962.466	106.72
1965.665	107.14
1968.863	108.63
1972.061	107.68
1975.259	111.43
1978.457	112.54
1981.654	112.92
1984.852	114.05
1988.048	115.3
1991.245	117.18
1994.441	119.82
1997.637	121.1
2000.833	124.49
2004.028	124.63
2007.223	130.04
2010.418	130.56
2013.613	137.75
2016.807	141.42
2020.001	144.02
2023.194	148.33
2026.388	151.44
2029.581	159.34
2032.774	165.36
2035.966	168.89
2039.158	174.28
2042.35	176.4
2045.542	180.74
2048.733	185.43
2051.924	185.73
2055.115	189.94
2058.306	190.86
2061.496	196.67
2064.686	196.1
2067.875	193.32
2071.065	195.07
2074.254	196.37
2077.442	202.35
2080.631	202
2083.819	202.58
2087.007	209.54
2090.195	210.91
2093.382	211.42
2096.569	210.92
2099.756	213.22
2102.942	219.04
2106.128	223.99
2109.314	224.53
2112.5	224.49
2115.685	223.81
2118.87	224.5
2122.055	226.26
2125.239	230.4
2128.424	236.44
2131.608	235.64
2134.791	234.59
2137.974	238.01
2141.157	239.73
2144.34	242.27
2147.523	245.15
2150.705	253.02
2153.887	252.36
2157.068	254.3
2160.25	257
2163.431	255
2166.611	259.37
2169.792	264.88
2172.972	268.17
2176.152	268.05
2179.331	274.42
2182.511	273.96
2185.69	278.07
2188.868	288.36
2192.047	291.21
2195.225	295.94
2198.403	300.41
2201.58	297.91
2204.758	308.44
2207.935	307.82
2211.111	313.8
2214.288	314.05
2217.464	319.6
2220.64	320.12
2223.815	319.34
2226.991	317
2230.166	320.22
2233.34	330.41
2236.515	337.77
2239.689	334.57
2242.863	338.54
2246.036	336.39
2249.209	343.57
2252.382	344.76
2255.555	357.09
2258.727	358.99
2261.9	371
2265.071	374
2268.243	371.28
2271.414	384.4
2274.585	392.15
2277.756	397.55
2280.926	410.41
2284.096	411.01
2287.266	410.84
2290.436	404.19
2293.605	414.64
2296.774	427.97
2299.942	428.47
2303.111	439.37
2306.279	443.66
2309.447	442.57
2312.614	441.35
2315.781	453.94
2318.948	465.07
2322.115	474.17
2325.281	495.9
2328.447	490.58
2331.613	490.47
2334.779	498.07
2337.944	506.03
2341.109	518.88
2344.274	524.34
2347.438	542.88
2350.602	551.26
2353.766	578.7
2356.929	581.94
2360.092	587.13
2363.255	591.35
2366.418	604.24
2369.58	618.55
2372.742	613.02
2375.904	606.87
2379.066	626.06
2382.227	659.79
2385.388	657.25
2388.548	629.29
2391.709	621.45
2394.869	647.94
2398.029	648.79
2401.188	650.7
2404.347	665.69
2407.506	692.45
2410.665	670.37
2413.823	670.85
2416.981	667.42
2420.139	632.85
2423.296	680.76
2426.453	724.95
2429.61	691.93
2432.767	735.68
2435.923	762.01
2439.079	735.32
2442.235	756.4
2445.391	772.12
2448.546	767.49
2451.701	808.04
2454.855	863.26
2458.009	761.31
2461.163	771.9
2464.317	780.79
2467.471	765.04
2470.624	787.56
2473.777	773.02
2476.929	745.74
2480.082	797.97
2483.234	834.53
2486.385	845.62
2489.537	868
2492.688	957.84
2495.839	952.2
2498.989	973.5
2502.14	974.29
2505.29	932.62
2508.439	1045.98
2511.589	1077.33
2514.738	1042.63
2517.887	1036.21
2521.035	978.36
2524.183	955.22
2527.331	947.62
2530.479	920.65
2533.627	940.92
