Data from N_1_dec_va_2n_009_Splice17_01.txt Node
Date: Sat Feb 29 13:36:13 EST 2020
User: sa697716
Spectrometer: FLMS03696
Trigger mode: 0
Integration Time (sec): 3.180400E-1
Scans to average: 20
Electric dark correction enabled: true
Nonlinearity correction enabled: true
Boxcar width: 5
XAxis mode: Wavelengths
Number of Pixels in Spectrum: 2048
>>>>>Begin Spectral Data<<<<<
187.83	88.44
188.298	101.89
188.766	86.76
189.233	80.93
189.701	95.85
190.169	90.96
190.636	89.94
191.104	79.23
191.571	223.27
192.039	141.49
192.506	146.23
192.974	4217.2
193.441	-245.71
193.908	34.6
194.375	12.9
194.842	134.02
195.31	58.29
195.777	10.57
196.244	-11.52
196.711	5.08
197.177	6.68
197.644	7.97
198.111	5.95
198.578	6.68
199.045	7.03
199.511	7.72
199.978	8.44
200.445	8.56
200.911	9.05
201.378	9.52
201.844	9.85
202.31	10.23
202.777	9.99
203.243	10.87
203.709	11.69
204.176	11.74
204.642	11.79
205.108	11.36
205.574	11.6
206.04	11.38
206.506	11.34
206.972	11.26
207.438	10.71
207.903	11
208.369	10.65
208.835	10.21
209.301	10.5
209.766	10.59
210.232	10.82
210.697	10.76
211.163	10.76
211.628	10.45
212.094	10.54
212.559	10.41
213.024	10.14
213.49	9.85
213.955	9.61
214.42	9.52
214.885	8.79
215.35	8.43
215.815	8.23
216.28	8.02
216.745	7.92
217.21	7.78
217.675	7.57
218.14	7.25
218.604	6.9
219.069	6.68
219.534	6.32
219.998	6.09
220.463	5.88
220.927	5.69
221.392	5.54
221.856	5.36
222.32	5.14
222.785	5.02
223.249	4.94
223.713	4.92
224.177	4.79
224.642	4.74
225.106	4.73
225.57	4.66
226.034	4.6
226.497	4.51
226.961	4.45
227.425	4.38
227.889	4.3
228.353	4.21
228.816	4.15
229.28	4.1
229.744	4.03
230.207	3.98
230.671	3.93
231.134	3.89
231.597	3.86
232.061	3.82
232.524	3.8
232.987	3.78
233.45	3.76
233.914	3.73
234.377	3.72
234.84	3.69
235.303	3.65
235.766	3.63
236.229	3.61
236.691	3.59
237.154	3.57
237.617	3.53
238.08	3.49
238.542	3.46
239.005	3.43
239.468	3.38
239.93	3.35
240.393	3.33
240.855	3.29
241.317	3.25
241.78	3.23
242.242	3.2
242.704	3.17
243.166	3.15
243.629	3.13
244.091	3.11
244.553	3.1
245.015	3.09
245.477	3.05
245.939	3.03
246.4	3
246.862	2.98
247.324	2.98
247.786	2.97
248.247	2.96
248.709	2.94
249.17	2.93
249.632	2.9
250.093	2.87
250.555	2.87
251.016	2.86
251.477	2.85
251.939	2.83
252.4	2.8
252.861	2.78
253.322	2.77
253.783	2.76
254.244	2.75
254.705	2.74
255.166	2.74
255.627	2.72
256.088	2.71
256.549	2.71
257.009	2.7
257.47	2.7
257.931	2.69
258.391	2.67
258.852	2.66
259.312	2.65
259.773	2.64
260.233	2.63
260.694	2.62
261.154	2.62
261.614	2.61
262.074	2.6
262.534	2.58
262.994	2.57
263.455	2.56
263.915	2.56
264.374	2.55
264.834	2.55
265.294	2.54
265.754	2.53
266.214	2.52
266.673	2.52
267.133	2.52
267.593	2.52
268.052	2.5
268.512	2.5
268.971	2.49
269.431	2.49
269.89	2.48
270.349	2.47
270.809	2.47
271.268	2.47
271.727	2.47
272.186	2.46
272.645	2.45
273.104	2.45
273.563	2.45
274.022	2.44
274.481	2.44
274.94	2.43
275.399	2.43
275.857	2.42
276.316	2.41
276.775	2.4
277.233	2.4
277.692	2.39
278.15	2.39
278.609	2.38
279.067	2.37
279.525	2.36
279.984	2.36
280.442	2.35
280.9	2.36
281.358	2.35
281.816	2.34
282.274	2.33
282.732	2.33
283.19	2.33
283.648	2.32
284.106	2.32
284.564	2.31
285.021	2.3
285.479	2.29
285.937	2.28
286.394	2.28
286.852	2.27
287.309	2.26
287.767	2.26
288.224	2.25
288.682	2.25
289.139	2.24
289.596	2.24
290.053	2.23
290.511	2.22
290.968	2.22
291.425	2.21
291.882	2.21
292.339	2.2
292.796	2.19
293.252	2.18
293.709	2.17
294.166	2.17
294.623	2.17
295.079	2.17
295.536	2.16
295.992	2.15
296.449	2.16
296.905	2.15
297.362	2.14
297.818	2.14
298.274	2.14
298.731	2.14
299.187	2.14
299.643	2.13
300.099	2.13
300.555	2.12
301.011	2.12
301.467	2.12
301.923	2.12
302.379	2.13
302.835	2.12
303.291	2.12
303.746	2.11
304.202	2.1
304.658	2.1
305.113	2.09
305.569	2.09
306.024	2.09
306.479	2.08
306.935	2.07
307.39	2.06
307.845	2.06
308.301	2.06
308.756	2.06
309.211	2.06
309.666	2.06
310.121	2.06
310.576	2.04
311.031	2.04
311.486	2.04
311.94	2.04
312.395	2.05
312.85	2.04
313.305	2.04
313.759	2.04
314.214	2.04
314.668	2.04
315.123	2.04
315.577	2.04
316.032	2.04
316.486	2.03
316.94	2.04
317.394	2.03
317.849	2.03
318.303	2.03
318.757	2.02
319.211	2
319.665	2
320.119	2
320.572	2
321.026	2
321.48	2.01
321.934	1.99
322.387	1.99
322.841	1.98
323.295	1.98
323.748	1.98
324.202	1.98
324.655	1.98
325.108	1.97
325.562	1.96
326.015	1.95
326.468	1.94
326.921	1.94
327.374	1.94
327.827	1.94
328.28	1.94
328.733	1.94
329.186	1.93
329.639	1.93
330.092	1.93
330.545	1.93
330.997	1.94
331.45	1.94
331.903	1.93
332.355	1.93
332.808	1.93
333.26	1.92
333.713	1.93
334.165	1.92
334.617	1.93
335.069	1.93
335.522	1.93
335.974	1.93
336.426	1.93
336.878	1.94
337.33	1.93
337.782	1.93
338.234	1.93
338.686	1.92
339.137	1.93
339.589	1.92
340.041	1.91
340.493	1.9
340.944	1.89
341.396	1.89
341.847	1.88
342.299	1.88
342.75	1.88
343.201	1.87
343.653	1.86
344.104	1.86
344.555	1.87
345.006	1.85
345.457	1.86
345.908	1.86
346.359	1.86
346.81	1.87
347.261	1.86
347.712	1.85
348.163	1.86
348.613	1.86
349.064	1.85
349.515	1.85
349.965	1.85
350.416	1.84
350.866	1.85
351.317	1.84
351.767	1.83
352.217	1.83
352.668	1.83
353.118	1.83
353.568	1.84
354.018	1.84
354.468	1.84
354.918	1.84
355.368	1.84
355.818	1.83
356.268	1.83
356.718	1.83
357.168	1.82
357.617	1.81
358.067	1.8
358.517	1.79
358.966	1.79
359.416	1.79
359.865	1.8
360.315	1.8
360.764	1.81
361.213	1.81
361.663	1.81
362.112	1.83
362.561	1.83
363.01	1.85
363.459	1.85
363.908	1.84
364.357	1.85
364.806	1.84
365.255	1.85
365.703	1.84
366.152	1.84
366.601	1.84
367.05	1.84
367.498	1.84
367.947	1.83
368.395	1.84
368.844	1.84
369.292	1.83
369.74	1.84
370.189	1.83
370.637	1.84
371.085	1.84
371.533	1.83
371.981	1.84
372.429	1.84
372.877	1.83
373.325	1.82
373.773	1.83
374.221	1.83
374.669	1.83
375.116	1.82
375.564	1.82
376.012	1.83
376.459	1.84
376.907	1.83
377.354	1.84
377.801	1.84
378.249	1.86
378.696	1.86
379.143	1.86
379.591	1.87
380.038	1.89
380.485	1.9
380.932	1.89
381.379	1.9
381.826	1.91
382.273	1.92
382.72	1.94
383.166	1.95
383.613	1.97
384.06	1.99
384.506	2
384.953	2.03
385.4	2.06
385.846	2.08
386.292	2.11
386.739	2.14
387.185	2.19
387.631	2.22
388.078	2.26
388.524	2.28
388.97	2.31
389.416	2.35
389.862	2.39
390.308	2.44
390.754	2.53
391.2	2.61
391.645	2.69
392.091	2.75
392.537	2.82
392.983	2.92
393.428	3.07
393.874	3.27
394.319	3.51
394.765	3.75
395.21	4.02
395.655	4.32
396.101	4.65
396.546	5.03
396.991	5.46
397.436	5.94
397.881	6.45
398.326	6.99
398.771	7.53
399.216	8.08
399.661	8.63
400.106	9.17
400.551	9.68
400.995	10.16
401.44	10.6
401.885	11.07
402.329	11.54
402.774	12.02
403.218	12.53
403.663	13.07
404.107	13.65
404.551	14.27
404.995	14.84
405.44	15.4
405.884	15.95
406.328	16.58
406.772	17.28
407.216	18
407.66	18.69
408.104	19.34
408.547	19.9
408.991	20.4
409.435	20.92
409.879	21.52
410.322	22.17
410.766	22.88
411.209	23.54
411.653	24.14
412.096	24.69
412.54	25.21
412.983	25.71
413.426	26.27
413.869	26.84
414.312	27.39
414.756	27.89
415.199	28.32
415.642	28.74
416.085	29.08
416.527	29.37
416.97	29.54
417.413	29.64
417.856	29.65
418.298	29.63
418.741	29.66
419.184	29.71
419.626	29.82
420.069	29.99
420.511	30.14
420.953	30.32
421.396	30.51
421.838	30.85
422.28	31.3
422.722	31.77
423.164	32.21
423.606	32.59
424.048	32.88
424.49	33.01
424.932	32.9
425.374	32.49
425.816	31.84
426.258	31.12
426.699	30.53
427.141	30.29
427.582	30.47
428.024	30.92
428.465	31.4
428.907	31.87
429.348	32.3
429.789	32.87
430.231	33.78
430.672	35.16
431.113	36.78
431.554	38.42
431.995	39.68
432.436	40.6
432.877	41.26
433.318	41.76
433.759	42.3
434.2	42.96
434.64	43.79
435.081	44.65
435.522	45.37
435.962	45.96
436.403	46.41
436.843	46.76
437.284	47.11
437.724	47.53
438.164	48.1
438.604	48.78
439.045	49.49
439.485	50.18
439.925	50.7
440.365	51.13
440.805	51.43
441.245	51.63
441.685	51.92
442.125	52.22
442.564	52.57
443.004	52.94
443.444	53.39
443.883	53.87
444.323	54.38
444.762	54.85
445.202	55.44
445.641	56.13
446.081	57
446.52	57.89
446.959	58.73
447.398	59.41
447.837	59.9
448.276	60.01
448.716	60.09
449.154	60.11
449.593	60.22
450.032	60.18
450.471	60.01
450.91	59.73
451.349	59.42
451.787	59.16
452.226	58.94
452.664	58.77
453.103	58.75
453.541	58.67
453.98	58.49
454.418	58.23
454.856	57.88
455.295	57.6
455.733	57.31
456.171	57.06
456.609	56.83
457.047	56.6
457.485	56.47
457.923	56.45
458.361	56.5
458.798	56.64
459.236	56.77
459.674	56.97
460.111	57.15
460.549	57.33
460.987	57.53
461.424	57.71
461.862	57.94
462.299	58.09
462.736	58.22
463.173	58.41
463.611	58.71
464.048	59.1
464.485	59.56
464.922	60.11
465.359	60.64
465.796	61.12
466.233	61.58
466.67	62.08
467.106	62.73
467.543	63.46
467.98	64.16
468.416	64.75
468.853	65.25
469.29	65.71
469.726	66.15
470.162	66.62
470.599	67.09
471.035	67.55
471.471	67.83
471.907	67.95
472.344	67.93
472.78	67.88
473.216	67.88
473.652	67.86
474.088	67.82
474.523	67.67
474.959	67.47
475.395	67.28
475.831	67.03
476.266	66.85
476.702	66.64
477.138	66.41
477.573	66.12
478.008	65.73
478.444	65.31
478.879	64.82
479.314	64.3
479.75	63.77
480.185	63.12
480.62	62.41
481.055	61.55
481.49	60.4
481.925	59.14
482.36	57.94
482.795	56.87
483.229	56.02
483.664	55.31
484.099	54.69
484.534	54.1
484.968	53.64
485.403	53.34
485.837	53.23
486.271	53.36
486.706	53.59
487.14	53.78
487.574	53.81
488.009	53.74
488.443	53.64
488.877	53.56
489.311	53.49
489.745	53.45
490.179	53.43
490.613	53.4
491.046	53.39
491.48	53.42
491.914	53.51
492.348	53.72
492.781	53.93
493.215	54.1
493.648	54.26
494.082	54.37
494.515	54.46
494.948	54.53
495.382	54.6
495.815	54.65
496.248	54.67
496.681	54.67
497.114	54.62
497.547	54.6
497.98	54.63
498.413	54.74
498.846	54.92
499.279	55.11
499.711	55.25
500.144	55.41
500.577	55.68
501.009	56.08
501.442	56.58
501.874	57.12
502.306	57.68
502.739	58.16
503.171	58.61
503.603	59.01
504.036	59.41
504.468	59.93
504.9	60.51
505.332	61.01
505.764	61.45
506.196	61.85
506.627	62.3
507.059	62.76
507.491	63.29
507.923	63.81
508.354	64.36
508.786	64.9
509.217	65.31
509.649	65.71
510.08	66.11
510.512	66.54
510.943	67.04
511.374	67.52
511.805	67.87
512.237	68.03
512.668	68.06
513.099	68.16
513.53	68.28
513.961	68.47
514.391	68.72
514.822	69.12
515.253	69.63
515.684	70.14
516.114	70.72
516.545	71.38
516.975	72.36
517.406	73.51
517.836	74.59
518.267	75.65
518.697	76.63
519.127	77.63
519.558	78.56
519.988	79.43
520.418	80.25
520.848	81.03
521.278	81.76
521.708	82.35
522.138	82.6
522.567	82.82
522.997	83.05
523.427	83.44
523.857	83.86
524.286	84.35
524.716	84.86
525.145	85.35
525.575	85.77
526.004	86.27
526.433	86.86
526.863	87.78
527.292	88.72
527.721	89.54
528.15	90.09
528.579	90.44
529.008	90.6
529.437	90.71
529.866	90.78
530.295	90.94
530.724	91.12
531.152	91.26
531.581	91.39
532.01	91.46
532.438	91.51
532.867	91.68
533.295	91.93
533.723	92.2
534.152	92.39
534.58	92.54
535.008	92.54
535.436	92.43
535.865	92.18
536.293	91.86
536.721	91.62
537.149	91.55
537.576	91.6
538.004	91.63
538.432	91.64
538.86	91.66
539.287	91.78
539.715	91.99
540.143	92.27
540.57	92.66
540.998	93.15
541.425	93.61
541.852	94.03
542.28	94.35
542.707	94.67
543.134	94.94
543.561	95.17
543.988	95.39
544.415	95.64
544.842	95.89
545.269	96.16
545.696	96.37
546.123	96.63
546.549	96.83
546.976	97.03
547.403	97.21
547.829	97.51
548.256	97.75
548.682	97.92
549.108	98.08
549.535	98.19
549.961	98.27
550.387	98.34
550.813	98.44
551.24	98.55
551.666	98.6
552.092	98.56
552.518	98.4
552.943	98.27
553.369	98.14
553.795	97.89
554.221	97.58
554.646	97.16
555.072	96.67
555.498	96.1
555.923	95.58
556.349	95.12
556.774	94.76
557.199	94.43
557.625	94.04
558.05	93.65
558.475	93.3
558.9	93.02
559.325	92.78
559.75	92.48
560.175	92.19
560.6	91.81
561.025	91.29
561.449	90.65
561.874	89.97
562.299	89.37
562.723	88.79
563.148	88.2
563.572	87.56
563.997	86.85
564.421	86.15
564.846	85.42
565.27	84.76
565.694	84.07
566.118	83.4
566.542	82.72
566.966	82.03
567.39	81.29
567.814	80.64
568.238	80.07
568.662	79.62
569.086	79.21
569.509	78.86
569.933	78.48
570.357	78.13
570.78	77.82
571.204	77.55
571.627	77.28
572.05	77.07
572.474	76.77
572.897	76.49
573.32	76.15
573.743	75.79
574.166	75.4
574.589	75.04
575.012	74.79
575.435	74.55
575.858	74.4
576.281	74.3
576.704	74.17
577.126	74.09
577.549	74.02
577.972	74.01
578.394	74.01
578.817	74.06
579.239	74.13
579.661	74.16
580.084	74.2
580.506	74.17
580.928	74.04
581.35	73.9
581.772	73.7
582.194	73.45
582.616	73.22
583.038	73
583.46	72.76
583.882	72.4
584.303	71.9
584.725	71.26
585.147	70.51
585.568	69.87
585.99	69.3
586.411	68.88
586.833	68.5
587.254	68.13
587.675	67.76
588.096	67.43
588.518	67.16
588.939	67.04
589.36	67.08
589.781	67.21
590.202	67.29
590.623	67.28
591.043	67.14
591.464	66.97
591.885	66.75
592.305	66.55
592.726	66.31
593.147	66.1
593.567	65.82
593.987	65.53
594.408	65.26
594.828	64.97
595.248	64.73
595.669	64.46
596.089	64.15
596.509	63.81
596.929	63.45
597.349	63.06
597.769	62.64
598.189	62.28
598.608	61.95
599.028	61.64
599.448	61.39
599.867	61.14
600.287	60.92
600.706	60.68
601.126	60.47
601.545	60.25
601.965	60.07
602.384	59.91
602.803	59.73
603.222	59.51
603.641	59.27
604.061	58.98
604.48	58.66
604.898	58.31
605.317	57.99
605.736	57.65
606.155	57.3
606.574	56.97
606.992	56.64
607.411	56.31
607.829	55.96
608.248	55.66
608.666	55.34
609.085	55.01
609.503	54.65
609.921	54.33
610.339	54.04
610.758	53.77
611.176	53.46
611.594	53.12
612.012	52.73
612.43	52.36
612.847	51.98
613.265	51.66
613.683	51.42
614.101	51.2
614.518	51.01
614.936	50.81
615.353	50.58
615.771	50.41
616.188	50.29
616.606	50.24
617.023	50.18
617.44	50.1
617.857	49.98
618.274	49.78
618.691	49.58
619.108	49.33
619.525	49.09
619.942	48.86
620.359	48.58
620.776	48.25
621.192	47.88
621.609	47.54
622.026	47.27
622.442	47.04
622.859	46.82
623.275	46.6
623.691	46.33
624.108	46.09
624.524	45.85
624.94	45.65
625.356	45.44
625.772	45.31
626.188	45.19
626.604	45
627.02	44.79
627.436	44.6
627.852	44.45
628.268	44.37
628.683	44.3
629.099	44.25
629.514	44.16
629.93	44.14
630.345	44.09
630.761	44.05
631.176	44.02
631.591	43.99
632.007	43.94
632.422	43.92
632.837	43.88
633.252	43.82
633.667	43.77
634.082	43.73
634.497	43.69
634.911	43.62
635.326	43.49
635.741	43.35
636.155	43.22
636.57	43.08
636.984	42.88
637.399	42.67
637.813	42.48
638.228	42.26
638.642	42.06
639.056	41.81
639.47	41.58
639.884	41.42
640.298	41.25
640.712	41.08
641.126	40.93
641.54	40.75
641.954	40.6
642.368	40.41
642.781	40.22
643.195	39.98
643.609	39.79
644.022	39.59
644.436	39.37
644.849	39.12
645.262	38.87
645.676	38.64
646.089	38.48
646.502	38.31
646.915	38.19
647.328	38.09
647.741	38.01
648.154	37.94
648.567	37.9
648.98	37.87
649.393	37.87
649.805	37.87
650.218	37.89
650.631	37.83
651.043	37.69
651.456	37.39
651.868	36.96
652.28	36.47
652.693	35.99
653.105	35.59
653.517	35.31
653.929	35.12
654.341	34.98
654.753	34.88
655.165	34.84
655.577	34.84
655.989	35.03
656.401	35.35
656.813	35.74
657.224	36.12
657.636	36.45
658.047	36.64
658.459	36.74
658.87	36.8
659.282	36.8
659.693	36.8
660.104	36.78
660.515	36.72
660.926	36.7
661.338	36.67
661.749	36.62
662.159	36.54
662.57	36.44
662.981	36.35
663.392	36.26
663.803	36.19
664.213	36.12
664.624	36.1
665.035	36.06
665.445	36.01
665.855	35.94
666.266	35.89
666.676	35.8
667.086	35.73
667.497	35.66
667.907	35.57
668.317	35.55
668.727	35.47
669.137	35.39
669.547	35.31
669.956	35.25
670.366	35.2
670.776	35.13
671.186	35.09
671.595	35.09
672.005	35.09
672.414	35.09
672.824	35.1
673.233	35.13
673.642	35.14
674.052	35.17
674.461	35.19
674.87	35.22
675.279	35.25
675.688	35.3
676.097	35.34
676.506	35.38
676.915	35.45
677.323	35.51
677.732	35.57
678.141	35.6
678.549	35.69
678.958	35.79
679.366	35.86
679.775	35.94
680.183	36.02
680.592	36.09
681	36.17
681.408	36.24
681.816	36.25
682.224	36.14
682.632	35.87
683.04	35.34
683.448	34.8
683.856	34.33
684.264	33.95
684.671	33.6
685.079	33.27
685.487	32.99
685.894	32.77
686.302	32.65
686.709	32.75
687.116	33.11
687.524	33.76
687.931	34.49
688.338	35.24
688.745	35.97
689.152	36.71
689.559	37.46
689.966	38.17
690.373	38.91
690.78	39.6
691.187	40.29
691.593	40.96
692	41.62
692.407	42.26
692.813	42.92
693.22	43.54
693.626	44.17
694.032	44.78
694.439	45.42
694.845	46.02
695.251	46.64
695.657	47.19
696.063	47.73
696.469	48.23
696.875	48.69
697.281	49.11
697.687	49.53
698.093	49.94
698.498	50.38
698.904	50.84
699.31	51.31
699.715	51.77
700.12	52.29
700.526	52.84
700.931	53.35
701.337	53.94
701.742	54.49
702.147	55.03
702.552	55.59
702.957	56.13
703.362	56.66
703.767	57.16
704.172	57.68
704.577	58.13
704.981	58.57
705.386	59.01
705.791	59.44
706.195	59.85
706.6	60.27
707.004	60.67
707.408	61.07
707.813	61.47
708.217	61.81
708.621	62.14
709.025	62.47
709.43	62.8
709.834	63.18
710.237	63.47
710.641	63.78
711.045	64.05
711.449	64.32
711.853	64.55
712.256	64.68
712.66	64.74
713.064	64.69
713.467	64.51
713.87	64.28
714.274	63.93
714.677	63.5
715.08	63.07
715.484	62.62
715.887	62.24
716.29	61.88
716.693	61.66
717.096	61.73
717.499	61.99
717.901	62.41
718.304	62.94
718.707	63.51
719.109	64.17
719.512	64.72
719.915	65.25
720.317	65.7
720.719	66.12
721.122	66.46
721.524	66.62
721.926	66.69
722.328	66.75
722.731	66.73
723.133	66.71
723.535	66.71
723.937	66.82
724.338	66.93
724.74	67.03
725.142	67.16
725.544	67.24
725.945	67.41
726.347	67.57
726.748	67.63
727.15	67.74
727.551	67.95
727.952	68.15
728.354	68.41
728.755	68.71
729.156	69.08
729.557	69.47
729.958	69.91
730.359	70.27
730.76	70.58
731.161	70.91
731.562	71.17
731.962	71.41
732.363	71.61
732.763	71.78
733.164	71.9
733.564	71.95
733.965	71.97
734.365	71.89
734.766	71.83
735.166	71.73
735.566	71.67
735.966	71.66
736.366	71.59
736.766	71.55
737.166	71.46
737.566	71.39
737.966	71.31
738.365	71.25
738.765	71.25
739.165	71.23
739.564	71.31
739.964	71.33
740.363	71.34
740.763	71.32
741.162	71.33
741.561	71.37
741.96	71.44
742.36	71.51
742.759	71.51
743.158	71.54
743.557	71.55
743.955	71.56
744.354	71.59
744.753	71.57
745.152	71.55
745.55	71.5
745.949	71.42
746.348	71.3
746.746	71.23
747.144	71.16
747.543	71.06
747.941	70.98
748.339	70.92
748.737	70.84
749.136	70.76
749.534	70.74
749.932	70.72
750.33	70.71
750.727	70.73
751.125	70.71
751.523	70.65
751.921	70.62
752.318	70.57
752.716	70.45
753.113	70.38
753.511	70.3
753.908	70.2
754.305	70.03
754.703	69.67
755.1	68.85
755.497	67.39
755.894	65.21
756.291	62.41
756.688	59.33
757.085	56.3
757.482	53.5
757.878	50.92
758.275	48.42
758.672	45.91
759.068	43.53
759.465	41.6
759.861	40.47
760.258	40.26
760.654	40.83
761.05	41.97
761.447	43.24
761.843	44.45
762.239	45.66
762.635	47.03
763.031	48.67
763.427	50.54
763.822	52.54
764.218	54.54
764.614	56.48
765.01	58.3
765.405	59.94
765.801	61.43
766.196	62.8
766.592	63.98
766.987	64.93
767.382	65.67
767.778	66.28
768.173	66.72
768.568	67.06
768.963	67.31
769.358	67.52
769.753	67.7
770.148	67.8
770.542	67.81
770.937	67.77
771.332	67.73
771.726	67.74
772.121	67.75
772.515	67.73
772.91	67.71
773.304	67.61
773.699	67.54
774.093	67.41
774.487	67.37
774.881	67.31
775.275	67.32
775.669	67.28
776.063	67.15
776.457	66.97
776.851	66.81
777.245	66.76
777.638	66.72
778.032	66.64
778.425	66.59
778.819	66.5
779.212	66.36
779.606	66.2
779.999	66.06
780.392	65.95
780.786	65.86
781.179	65.77
781.572	65.57
781.965	65.4
782.358	65.22
782.751	65.04
783.143	64.87
783.536	64.76
783.929	64.65
784.322	64.48
784.714	64.29
785.107	64.11
785.499	63.89
785.891	63.68
786.284	63.45
786.676	63.2
787.068	62.95
787.46	62.69
787.852	62.43
788.245	62.15
788.636	61.88
789.028	61.62
789.42	61.29
789.812	61.05
790.204	60.76
790.595	60.51
790.987	60.3
791.378	60.09
791.77	59.88
792.161	59.67
792.553	59.43
792.944	59.28
793.335	59.12
793.726	58.98
794.117	58.84
794.508	58.72
794.899	58.55
795.29	58.36
795.681	58.16
796.072	57.96
796.463	57.74
796.853	57.51
797.244	57.28
797.634	57.06
798.025	56.86
798.415	56.59
798.806	56.32
799.196	56.09
799.586	55.83
799.976	55.57
800.366	55.32
800.756	55.03
801.146	54.8
801.536	54.54
801.926	54.3
802.316	54.07
802.706	53.86
803.095	53.66
803.485	53.43
803.874	53.2
804.264	52.99
804.653	52.71
805.043	52.46
805.432	52.15
805.821	51.84
806.21	51.55
806.599	51.22
806.988	50.89
807.377	50.57
807.766	50.23
808.155	49.92
808.544	49.56
808.933	49.23
809.321	48.85
809.71	48.53
810.098	48.11
810.487	47.65
810.875	47.17
811.264	46.67
811.652	46.17
812.04	45.62
812.428	45.04
812.816	44.53
813.204	44.05
813.592	43.62
813.98	43.15
814.368	42.75
814.756	42.4
815.144	42.11
815.531	41.8
815.919	41.54
816.306	41.38
816.694	41.28
817.081	41.18
817.469	41.07
817.856	40.94
818.243	40.76
818.63	40.54
819.017	40.27
819.404	39.98
819.791	39.81
820.178	39.63
820.565	39.47
820.952	39.26
821.339	39.07
821.725	38.89
822.112	38.73
822.498	38.66
822.885	38.62
823.271	38.58
823.657	38.53
824.044	38.38
824.43	38.2
824.816	37.98
825.202	37.8
825.588	37.59
825.974	37.39
826.36	37.18
826.746	36.96
827.132	36.74
827.517	36.55
827.903	36.38
828.289	36.23
828.674	36.07
829.06	35.93
829.445	35.81
829.83	35.67
830.216	35.52
830.601	35.4
830.986	35.31
831.371	35.25
831.756	35.16
832.141	35.08
832.526	35.03
832.911	34.99
833.295	34.92
833.68	34.83
834.065	34.76
834.449	34.69
834.834	34.62
835.218	34.51
835.603	34.43
835.987	34.35
836.371	34.29
836.755	34.19
837.139	34.1
837.524	34.01
837.908	33.92
838.291	33.82
838.675	33.71
839.059	33.62
839.443	33.51
839.827	33.37
840.21	33.28
840.594	33.16
840.977	33.06
841.361	32.95
841.744	32.88
842.127	32.77
842.511	32.71
842.894	32.61
843.277	32.54
843.66	32.47
844.043	32.42
844.426	32.33
844.809	32.24
845.191	32.14
845.574	32.02
845.957	31.87
846.339	31.76
846.722	31.63
847.104	31.54
847.487	31.43
847.869	31.29
848.252	31.18
848.634	31.08
849.016	31
849.398	30.87
849.78	30.74
850.162	30.61
850.544	30.45
850.926	30.3
851.307	30.19
851.689	30.05
852.071	29.97
852.452	29.88
852.834	29.79
853.215	29.73
853.597	29.7
853.978	29.68
854.359	29.7
854.741	29.75
855.122	29.78
855.503	29.78
855.884	29.78
856.265	29.77
856.646	29.73
857.026	29.68
857.407	29.62
857.788	29.56
858.169	29.52
858.549	29.49
858.93	29.4
859.31	29.34
859.69	29.27
860.071	29.18
860.451	29.1
860.831	29.01
861.211	28.92
861.591	28.84
861.971	28.71
862.351	28.58
862.731	28.42
863.111	28.32
863.491	28.22
863.87	28.1
864.25	28.03
864.629	27.93
865.009	27.89
865.388	27.82
865.768	27.77
866.147	27.79
866.526	27.77
866.905	27.8
867.284	27.8
867.663	27.77
868.042	27.76
868.421	27.76
868.8	27.73
869.179	27.72
869.558	27.71
869.936	27.7
870.315	27.67
870.693	27.66
871.072	27.6
871.45	27.57
871.828	27.56
872.207	27.52
872.585	27.48
872.963	27.45
873.341	27.39
873.719	27.36
874.097	27.3
874.475	27.27
874.853	27.24
875.23	27.23
875.608	27.18
875.986	27.13
876.363	27.1
876.741	27.06
877.118	27.02
877.495	26.97
877.873	26.94
878.25	26.89
878.627	26.83
879.004	26.78
879.381	26.73
879.758	26.69
880.135	26.66
880.512	26.64
880.889	26.6
881.265	26.58
881.642	26.57
882.019	26.53
882.395	26.52
882.772	26.49
883.148	26.45
883.524	26.43
883.901	26.42
884.277	26.4
884.653	26.35
885.029	26.35
885.405	26.32
885.781	26.3
886.157	26.28
886.532	26.26
886.908	26.26
887.284	26.25
887.659	26.23
888.035	26.19
888.411	26.15
888.786	26.13
889.161	26.1
889.537	26.06
889.912	26
890.287	25.97
890.662	25.91
891.037	25.83
891.412	25.75
891.787	25.69
892.162	25.62
892.536	25.56
892.911	25.46
893.286	25.35
893.66	25.27
894.035	25.17
894.409	25.08
894.784	25
895.158	24.93
895.532	24.83
895.906	24.74
896.281	24.65
896.655	24.55
897.029	24.48
897.402	24.42
897.776	24.35
898.15	24.3
898.524	24.24
898.898	24.17
899.271	24.14
899.645	24.14
900.018	24.11
900.392	24.12
900.765	24.14
901.138	24.16
901.511	24.17
901.884	24.22
902.258	24.25
902.631	24.27
903.003	24.3
903.376	24.3
903.749	24.28
904.122	24.26
904.495	24.22
904.867	24.15
905.24	24.11
905.612	24.05
905.985	23.96
906.357	23.88
906.729	23.84
907.102	23.78
907.474	23.73
907.846	23.68
908.218	23.65
908.59	23.62
908.962	23.62
909.334	23.61
909.705	23.58
910.077	23.55
910.449	23.57
910.82	23.53
911.192	23.5
911.563	23.45
911.935	23.42
912.306	23.4
912.677	23.38
913.048	23.37
913.419	23.34
913.79	23.33
914.161	23.33
914.532	23.3
914.903	23.29
915.274	23.3
915.645	23.34
916.015	23.36
916.386	23.38
916.756	23.4
917.127	23.42
917.497	23.46
917.868	23.48
918.238	23.52
918.608	23.53
918.978	23.54
919.348	23.55
919.718	23.51
920.088	23.51
920.458	23.52
920.828	23.51
921.198	23.49
921.567	23.46
921.937	23.43
922.306	23.4
922.676	23.39
923.045	23.36
923.415	23.34
923.784	23.34
924.153	23.32
924.522	23.3
924.891	23.24
925.26	23.2
925.629	23.14
925.998	23.08
926.367	23.03
926.736	22.94
927.104	22.87
927.473	22.78
927.842	22.68
928.21	22.57
928.578	22.42
928.947	22.35
929.315	22.21
929.683	22.12
930.051	21.98
930.42	21.84
930.788	21.7
931.156	21.6
931.523	21.5
931.891	21.4
932.259	21.33
932.627	21.23
932.994	21.15
933.362	21.07
933.729	21
934.097	20.95
934.464	20.94
934.831	20.92
935.199	20.94
935.566	20.96
935.933	21.09
936.3	21.15
936.667	21.22
937.034	21.25
937.401	21.32
937.767	21.42
938.134	21.53
938.501	21.62
938.867	21.78
939.234	21.83
939.6	21.89
939.967	21.84
940.333	21.88
940.699	21.99
941.065	22.09
941.431	22.14
941.798	22.22
942.163	22.23
942.529	22.2
942.895	22.12
943.261	22.04
943.627	21.98
943.992	21.93
944.358	21.85
944.723	21.76
945.089	21.62
945.454	21.68
945.82	21.58
946.185	21.59
946.55	21.71
946.915	21.69
947.28	21.77
947.645	21.77
948.01	21.78
948.375	21.78
948.74	21.74
949.104	21.79
949.469	21.65
949.834	21.62
950.198	21.62
950.562	21.46
950.927	21.43
951.291	21.43
951.655	21.36
952.02	21.27
952.384	21.26
952.748	21.25
953.112	21.17
953.476	21.2
953.839	21.24
954.203	21.16
954.567	21.2
954.931	21.18
955.294	21.13
955.658	21.16
956.021	21.22
956.385	21.23
956.748	21.25
957.111	21.31
957.474	21.33
957.837	21.29
958.2	21.34
958.563	21.33
958.926	21.35
959.289	21.31
959.652	21.29
960.015	21.25
960.377	21.26
960.74	21.22
961.102	21.21
961.465	21.16
961.827	21.14
962.189	21.13
962.552	21.13
962.914	21.11
963.276	21.14
963.638	21.11
964	21.12
964.362	21.12
964.724	21.16
965.085	21.16
965.447	21.18
965.809	21.17
966.17	21.16
966.532	21.14
966.893	21.2
967.255	21.21
967.616	21.3
967.977	21.31
968.338	21.3
968.699	21.38
969.061	21.43
969.421	21.49
969.782	21.48
970.143	21.54
970.504	21.64
970.865	21.63
971.225	21.67
971.586	21.67
971.946	21.65
972.307	21.65
972.667	21.57
973.027	21.58
973.388	21.51
973.748	21.44
974.108	21.44
974.468	21.37
974.828	21.36
975.188	21.29
975.548	21.25
975.907	21.3
976.267	21.31
976.627	21.25
976.986	21.2
977.346	21.21
977.705	21.31
978.064	21.21
978.424	21.19
978.783	21.17
979.142	21.23
979.501	21.3
979.86	21.34
980.219	21.31
980.578	21.37
980.937	21.41
981.296	21.38
981.654	21.41
982.013	21.44
982.371	21.51
982.73	21.53
983.088	21.46
983.447	21.45
983.805	21.4
984.163	21.42
984.521	21.37
984.879	21.36
985.237	21.48
985.595	21.53
985.953	21.65
986.311	21.66
986.669	21.63
987.026	21.64
987.384	21.61
987.741	21.65
988.099	21.63
988.456	21.77
988.814	21.76
989.171	21.66
989.528	21.6
989.885	21.46
990.242	21.4
990.599	21.46
990.956	21.52
991.313	21.49
991.67	21.5
992.027	21.64
992.383	21.56
992.74	21.5
993.096	21.5
993.453	21.49
993.809	21.47
994.165	21.49
994.522	21.42
994.878	21.41
995.234	21.4
995.59	21.27
995.946	21.15
996.302	21.13
996.658	21.27
997.013	21.26
997.369	21.31
997.725	21.39
998.08	21.38
998.436	21.47
998.791	21.49
999.147	21.47
999.502	21.55
999.857	21.57
1000.212	21.48
1000.567	21.34
1000.922	21.28
1001.277	21.25
1001.632	21.32
1001.987	21.19
1002.342	21.13
1002.696	21.04
1003.051	21.01
1003.406	20.95
1003.76	20.95
1004.114	21.04
1004.469	21.02
1004.823	21.11
1005.177	21.22
1005.531	21.16
1005.885	21.28
1006.239	21.15
1006.593	21.22
1006.947	21.24
1007.301	21.25
1007.655	21.21
1008.008	21.11
1008.362	21.13
1008.715	21.19
1009.069	20.96
1009.422	20.83
1009.776	20.87
1010.129	20.99
1010.482	20.87
1010.835	20.91
1011.188	20.64
1011.541	20.54
1011.894	20.66
1012.247	20.68
1012.6	20.55
1012.952	20.53
1013.305	20.44
1013.657	20.34
1014.01	20.47
1014.362	20.58
1014.715	20.63
1015.067	20.96
1015.419	20.96
1015.771	20.79
1016.123	20.6
1016.475	20.66
1016.827	20.82
1017.179	20.82
1017.531	21.02
1017.883	20.77
1018.234	20.99
1018.586	21
1018.938	20.98
1019.289	20.74
1019.64	20.87
1019.992	20.99
1020.343	20.84
1020.694	20.64
1021.045	20.72
1021.396	20.55
1021.747	20.62
1022.098	20.39
1022.449	20.38
1022.8	20.2
1023.151	20.22
1023.501	20.23
1023.852	20.42
1024.202	20.48
1024.553	20.45
1024.903	20.69
1025.253	20.59
1025.604	20.47
1025.954	20.61
1026.304	20.54
1026.654	20.83
1027.004	21.46
1027.354	21.48
1027.703	21.43
1028.053	21.39
1028.403	21.91
1028.753	21.8
1029.102	22.09
1029.452	22.33
1029.801	22.39
1030.15	22.52
1030.499	22.61
897.758	682.71
901.051	686.6
904.343	698.56
907.636	683.81
910.928	673.47
914.22	685.81
917.511	674.8
920.803	646.22
924.094	620.4
927.384	625.08
930.675	605.62
933.965	597.52
937.255	599.21
940.544	569.78
943.834	547.2
947.123	538.58
950.411	508.89
953.7	497.55
956.988	483.71
960.276	461.91
963.563	454.33
966.851	430.32
970.138	423.36
973.424	394.99
976.711	389.6
979.997	379.18
983.283	370.26
986.568	358.87
989.853	348.18
993.138	336.59
996.423	330.54
999.708	322.22
1002.992	323.91
1006.275	311.94
1009.559	309.76
1012.842	300.76
1016.125	288.68
1019.408	283.63
1022.69	279.58
1025.972	279.92
1029.254	271.13
1032.536	267.45
1035.817	257.27
1039.098	253.67
1042.379	250.26
1045.659	246.2
1048.939	244.55
1052.219	240.56
1055.498	236.08
1058.778	233
1062.057	227.14
1065.335	226.64
1068.614	222.19
1071.892	221.57
1075.17	215.93
1078.447	212.75
1081.724	211.11
1085.001	206.98
1088.278	206.45
1091.554	204.32
1094.83	203.23
1098.106	200.08
1101.382	198.95
1104.657	198.6
1107.932	196.2
1111.206	195.8
1114.481	195.01
1117.755	193.2
1121.029	192.17
1124.302	189.65
1127.575	188.06
1130.848	186.98
1134.121	184.04
1137.393	183.57
1140.665	181.29
1143.937	179.97
1147.208	177.57
1150.48	175
1153.75	174.71
1157.021	172.65
1160.291	172.39
1163.561	172.49
1166.831	170.42
1170.101	170.79
1173.37	169.57
1176.639	168.37
1179.907	168.24
1183.176	167.74
1186.444	168.49
1189.711	166.56
1192.979	168.83
1196.246	168.64
1199.513	167.31
1202.78	168.19
1206.046	167.79
1209.312	168.68
1212.578	170.06
1215.843	172.09
1219.108	173.82
1222.373	175.64
1225.638	179.08
1228.902	182.48
1232.166	187.44
1235.43	190.18
1238.693	195.99
1241.956	199.79
1245.219	204.46
1248.482	206
1251.744	205.1
1255.006	205.9
1258.268	201.64
1261.529	199.79
1264.79	193.94
1268.051	190.27
1271.312	188.58
1274.572	184.99
1277.832	181.66
1281.092	179.08
1284.351	175.65
1287.61	175.51
1290.869	174.74
1294.128	173.38
1297.386	173.21
1300.644	173.02
1303.902	172.96
1307.159	172.33
1310.416	172.72
1313.673	174.83
1316.93	175.66
1320.186	178.18
1323.442	180.08
1326.697	183.56
1329.953	186.13
1333.208	191.26
1336.463	198.68
1339.717	201.46
1342.972	211.17
1346.226	217.38
1349.479	218.96
1352.733	229.02
1355.986	234.17
1359.238	239.84
1362.491	241.82
1365.743	250.42
1368.995	251.56
1372.247	252.22
1375.498	253.23
1378.749	260.4
1382	259.1
1385.251	259.9
1388.501	257.94
1391.751	261.64
1395	260.68
1398.25	262.69
1401.499	261.62
1404.748	263.29
1407.996	256.58
1411.244	256.15
1414.492	251.56
1417.74	246.08
1420.987	239.42
1424.234	236.22
1427.481	227.99
1430.728	221.81
1433.974	214.05
1437.22	206.33
1440.465	199.46
1443.711	194.06
1446.956	188.43
1450.201	181.71
1453.445	174.27
1456.689	169.97
1459.933	164.27
1463.177	157.73
1466.42	153.87
1469.663	149.67
1472.906	146.21
1476.148	142.17
1479.391	139.41
1482.633	137
1485.874	134.73
1489.115	133.62
1492.356	131.31
1495.597	129.84
1498.838	128.68
1502.078	127.96
1505.318	127.55
1508.557	126.64
1511.797	125.26
1515.036	125.25
1518.274	124.33
1521.513	122.86
1524.751	122.16
1527.989	123.17
1531.227	122.49
1534.464	122.58
1537.701	121.65
1540.938	121.23
1544.174	121.13
1547.41	121.58
1550.646	120.76
1553.882	120.86
1557.117	120.59
1560.352	119.99
1563.587	118.68
1566.821	118.58
1570.055	118.03
1573.289	117.72
1576.523	117.5
1579.756	116.67
1582.989	116.29
1586.222	116.17
1589.454	115.94
1592.686	115.48
1595.918	115.65
1599.15	115.35
1602.381	115.55
1605.612	115.09
1608.843	115.22
1612.073	115.99
1615.303	116.23
1618.533	115.6
1621.762	116.21
1624.992	115.91
1628.221	115.97
1631.449	116.38
1634.678	115.94
1637.906	115.91
1641.134	116.01
1644.361	115.97
1647.588	116.27
1650.815	116.6
1654.042	116.39
1657.269	116.08
1660.495	117.02
1663.72	116.74
1666.946	116.57
1670.171	117.53
1673.396	118.33
1676.621	118.67
1679.845	119.04
1683.069	118.05
1686.293	117.41
1689.517	118.4
1692.74	118.22
1695.963	118.45
1699.185	119.29
1702.408	119.51
1705.63	119.2
1708.852	119.69
1712.073	119.35
1715.294	119.11
1718.515	120.22
1721.736	120.77
1724.956	121
1728.176	120.94
1731.396	121.3
1734.616	121.2
1737.835	121.24
1741.054	121.38
1744.272	121.14
1747.491	121.89
1750.709	122.44
1753.927	122.35
1757.144	122.94
1760.361	123.1
1763.578	123.54
1766.795	123.89
1770.011	124.53
1773.227	125.67
1776.443	126.31
1779.658	126.49
1782.874	126.75
1786.089	127.77
1789.303	127.88
1792.518	129.08
1795.732	129.42
1798.945	130.84
1802.159	130.71
1805.372	132.39
1808.585	132.48
1811.797	133.83
1815.01	135.02
1818.222	136.49
1821.434	136.67
1824.645	137.46
1827.856	138.85
1831.067	140.32
1834.278	141.49
1837.488	142.86
1840.698	143.8
1843.908	144.08
1847.117	145.48
1850.326	146.25
1853.535	146.98
1856.744	148.33
1859.952	150.72
1863.16	150.58
1866.368	150.51
1869.575	151.08
1872.782	150.22
1875.989	148.56
1879.196	148.5
1882.402	147.19
1885.608	147.69
1888.814	146.81
1892.019	148.03
1895.224	144.89
1898.429	145.47
1901.634	145.65
1904.838	145.77
1908.042	145.98
1911.246	147.22
1914.449	147.38
1917.652	147.79
1920.855	148.16
1924.058	146.47
1927.26	144.93
1930.462	147.08
1933.664	146.27
1936.865	146.49
1940.066	145.05
1943.267	145.12
1946.467	145.26
1949.668	144.92
1952.868	145.42
1956.067	144.2
1959.267	146.67
1962.466	147.47
1965.665	148.11
1968.863	149.04
1972.061	150.13
1975.259	153.86
1978.457	154.8
1981.654	155.78
1984.852	158.19
1988.048	159.95
1991.245	162.61
1994.441	165.14
1997.637	168.98
2000.833	172.38
2004.028	174.38
2007.223	179.26
2010.418	182.42
2013.613	190.87
2016.807	196.85
2020.001	199.45
2023.194	204.07
2026.388	211.11
2029.581	222.12
2032.774	227.28
2035.966	234.99
2039.158	242.69
2042.35	247.07
2045.542	250.08
2048.733	259.13
2051.924	260.92
2055.115	266.59
2058.306	270.91
2061.496	276.31
2064.686	275.69
2067.875	275.63
2071.065	276.52
2074.254	276.46
2077.442	285.1
2080.631	288.15
2083.819	288.1
2087.007	293.67
2090.195	298.51
2093.382	298.24
2096.569	298.08
2099.756	303.63
2102.942	309.58
2106.128	315.39
2109.314	319.22
2112.5	317.86
2115.685	316.7
2118.87	317.1
2122.055	318.9
2125.239	325.43
2128.424	332.2
2131.608	329.16
2134.791	328.06
2137.974	329.9
2141.157	334.25
2144.34	336.74
2147.523	340.89
2150.705	350.11
2153.887	345.34
2157.068	349.74
2160.25	351.68
2163.431	350.85
2166.611	359.5
2169.792	367.57
2172.972	371.42
2176.152	369.08
2179.331	377.27
2182.511	378.06
2185.69	381.09
2188.868	397.22
2192.047	404.28
2195.225	407.5
2198.403	416.34
2201.58	407.41
2204.758	421.89
2207.935	425.86
2211.111	436.61
2214.288	437.06
2217.464	441.63
2220.64	446.44
2223.815	449
2226.991	444.7
2230.166	449.99
2233.34	461.16
2236.515	475.58
2239.689	467.52
2242.863	475.95
2246.036	467.39
2249.209	482.83
2252.382	480.68
2255.555	495.87
2258.727	498.89
2261.9	515.42
2265.071	521.18
2268.243	519.65
2271.414	536.76
2274.585	546.14
2277.756	547.65
2280.926	572.92
2284.096	570.87
2287.266	575.48
2290.436	562.12
2293.605	575.24
2296.774	595.61
2299.942	591.46
2303.111	606.65
2306.279	617.68
2309.447	623.52
2312.614	619.06
2315.781	634.46
2318.948	644.1
2322.115	657.09
2325.281	689.39
2328.447	686.77
2331.613	684.25
2334.779	703.41
2337.944	707.34
2341.109	718.33
2344.274	722.49
2347.438	752.08
2350.602	758.13
2353.766	801.5
2356.929	803.9
2360.092	819.12
2363.255	817.78
2366.418	832.71
2369.58	849.48
2372.742	853.08
2375.904	850.47
2379.066	873.73
2382.227	921.03
2385.388	919.58
2388.548	870.41
2391.709	867.41
2394.869	899.47
2398.029	897.97
2401.188	896.69
2404.347	922.53
2407.506	949.91
2410.665	922.73
2413.823	925.25
2416.981	921.8
2420.139	875.41
2423.296	949.43
2426.453	1000.86
2429.61	954.16
2432.767	1027.11
2435.923	1063.34
2439.079	1017.58
2442.235	1043.22
2445.391	1065.31
2448.546	1056.09
2451.701	1107.45
2454.855	1188.54
2458.009	1043.58
2461.163	1067.61
2464.317	1073.44
2467.471	1048.53
2470.624	1085.24
2473.777	1079.42
2476.929	1046.26
2480.082	1117.39
2483.234	1172.5
2486.385	1192.71
2489.537	1220.23
2492.688	1353.41
2495.839	1334.42
2498.989	1374.33
2502.14	1378.96
2505.29	1314.85
2508.439	1456.7
2511.589	1493.3
2514.738	1442.31
2517.887	1426.55
2521.035	1340.02
2524.183	1321.13
2527.331	1303.6
2530.479	1268.37
2533.627	1299.05
