Data from N_1_div_pa_2n_001_Splice17_05.txt Node
Date: Sat Feb 29 13:32:42 EST 2020
User: sa697716
Spectrometer: FLMS03696
Trigger mode: 0
Integration Time (sec): 3.180400E-1
Scans to average: 20
Electric dark correction enabled: true
Nonlinearity correction enabled: true
Boxcar width: 5
XAxis mode: Wavelengths
Number of Pixels in Spectrum: 2048
>>>>>Begin Spectral Data<<<<<
187.83	26.95
188.298	18.65
188.766	10.71
189.233	9.55
189.701	19.69
190.169	25.98
190.636	7.06
191.104	-30.47
191.571	-314.35
192.039	-203.29
192.506	757.47
192.974	6994.56
193.441	-199.82
193.908	14.53
194.375	-71.63
194.842	-19.8
195.31	0.07
195.777	-1.2
196.244	7.96
196.711	10.88
197.177	9.48
197.644	11.12
198.111	11.48
198.578	12.74
199.045	12.8
199.511	13.64
199.978	14.4
200.445	14.7
200.911	14.92
201.378	14.76
201.844	15.05
202.31	15.82
202.777	16.12
203.243	16.95
203.709	17.04
204.176	17.4
204.642	17.49
205.108	17.09
205.574	17.5
206.04	17.2
206.506	17.38
206.972	17.88
207.438	17.93
207.903	18.18
208.369	17.72
208.835	17.67
209.301	18.12
209.766	18.12
210.232	18.09
210.697	17.84
211.163	17.87
211.628	17.55
212.094	17.18
212.559	16.83
213.024	16.48
213.49	16.45
213.955	16.38
214.42	15.52
214.885	15.09
215.35	15.07
215.815	14.64
216.28	14.17
216.745	14.12
217.21	13.81
217.675	13.59
218.14	13.05
218.604	12.66
219.069	12.43
219.534	12.19
219.998	11.93
220.463	11.7
220.927	11.52
221.392	11.34
221.856	11.13
222.32	10.97
222.785	10.82
223.249	10.73
223.713	10.58
224.177	10.39
224.642	10.27
225.106	10.15
225.57	9.98
226.034	9.88
226.497	9.76
226.961	9.62
227.425	9.48
227.889	9.36
228.353	9.2
228.816	9.09
229.28	8.96
229.744	8.87
230.207	8.77
230.671	8.68
231.134	8.58
231.597	8.48
232.061	8.41
232.524	8.33
232.987	8.24
233.45	8.18
233.914	8.11
234.377	8.04
234.84	7.95
235.303	7.86
235.766	7.8
236.229	7.71
236.691	7.64
237.154	7.55
237.617	7.46
238.08	7.39
238.542	7.32
239.005	7.24
239.468	7.15
239.93	7.08
240.393	7.04
240.855	6.97
241.317	6.91
241.78	6.85
242.242	6.79
242.704	6.74
243.166	6.67
243.629	6.62
244.091	6.57
244.553	6.54
245.015	6.5
245.477	6.44
245.939	6.37
246.4	6.32
246.862	6.28
247.324	6.24
247.786	6.21
248.247	6.17
248.709	6.13
249.17	6.09
249.632	6.04
250.093	5.98
250.555	5.95
251.016	5.92
251.477	5.89
251.939	5.85
252.4	5.81
252.861	5.76
253.322	5.72
253.783	5.69
254.244	5.66
254.705	5.63
255.166	5.61
255.627	5.57
256.088	5.54
256.549	5.51
257.009	5.48
257.47	5.46
257.931	5.43
258.391	5.4
258.852	5.37
259.312	5.34
259.773	5.3
260.233	5.28
260.694	5.26
261.154	5.22
261.614	5.19
262.074	5.16
262.534	5.12
262.994	5.09
263.455	5.07
263.915	5.05
264.374	5.02
264.834	5.01
265.294	4.97
265.754	4.95
266.214	4.94
266.673	4.93
267.133	4.91
267.593	4.9
268.052	4.89
268.512	4.86
268.971	4.85
269.431	4.83
269.89	4.82
270.349	4.8
270.809	4.78
271.268	4.77
271.727	4.75
272.186	4.73
272.645	4.71
273.104	4.69
273.563	4.68
274.022	4.66
274.481	4.65
274.94	4.62
275.399	4.61
275.857	4.6
276.316	4.57
276.775	4.55
277.233	4.53
277.692	4.51
278.15	4.49
278.609	4.47
279.067	4.44
279.525	4.42
279.984	4.41
280.442	4.39
280.9	4.37
281.358	4.36
281.816	4.34
282.274	4.32
282.732	4.31
283.19	4.3
283.648	4.29
284.106	4.27
284.564	4.26
285.021	4.26
285.479	4.24
285.937	4.23
286.394	4.21
286.852	4.2
287.309	4.18
287.767	4.16
288.224	4.14
288.682	4.13
289.139	4.12
289.596	4.1
290.053	4.07
290.511	4.04
290.968	4.03
291.425	4.02
291.882	4.01
292.339	4.01
292.796	3.99
293.252	3.97
293.709	3.95
294.166	3.94
294.623	3.93
295.079	3.93
295.536	3.92
295.992	3.91
296.449	3.9
296.905	3.88
297.362	3.87
297.818	3.86
298.274	3.85
298.731	3.83
299.187	3.83
299.643	3.81
300.099	3.8
300.555	3.78
301.011	3.77
301.467	3.75
301.923	3.75
302.379	3.74
302.835	3.73
303.291	3.72
303.746	3.71
304.202	3.7
304.658	3.68
305.113	3.67
305.569	3.67
306.024	3.65
306.479	3.64
306.935	3.64
307.39	3.63
307.845	3.62
308.301	3.62
308.756	3.63
309.211	3.62
309.666	3.61
310.121	3.61
310.576	3.6
311.031	3.6
311.486	3.59
311.94	3.58
312.395	3.58
312.85	3.57
313.305	3.56
313.759	3.55
314.214	3.55
314.668	3.53
315.123	3.52
315.577	3.52
316.032	3.52
316.486	3.51
316.94	3.5
317.394	3.49
317.849	3.48
318.303	3.47
318.757	3.45
319.211	3.43
319.665	3.43
320.119	3.42
320.572	3.41
321.026	3.41
321.48	3.4
321.934	3.39
322.387	3.39
322.841	3.39
323.295	3.39
323.748	3.39
324.202	3.39
324.655	3.39
325.108	3.38
325.562	3.37
326.015	3.36
326.468	3.34
326.921	3.34
327.374	3.33
327.827	3.33
328.28	3.32
328.733	3.31
329.186	3.3
329.639	3.29
330.092	3.28
330.545	3.28
330.997	3.27
331.45	3.27
331.903	3.26
332.355	3.25
332.808	3.24
333.26	3.23
333.713	3.24
334.165	3.24
334.617	3.24
335.069	3.23
335.522	3.22
335.974	3.22
336.426	3.22
336.878	3.22
337.33	3.22
337.782	3.22
338.234	3.22
338.686	3.2
339.137	3.21
339.589	3.2
340.041	3.19
340.493	3.18
340.944	3.17
341.396	3.16
341.847	3.15
342.299	3.14
342.75	3.12
343.201	3.12
343.653	3.11
344.104	3.1
344.555	3.09
345.006	3.08
345.457	3.07
345.908	3.06
346.359	3.05
346.81	3.06
347.261	3.05
347.712	3.04
348.163	3.03
348.613	3.01
349.064	3
349.515	2.99
349.965	2.98
350.416	2.98
350.866	2.98
351.317	2.97
351.767	2.95
352.217	2.95
352.668	2.95
353.118	2.95
353.568	2.96
354.018	2.97
354.468	2.96
354.918	2.97
355.368	2.98
355.818	2.97
356.268	2.97
356.718	2.96
357.168	2.96
357.617	2.95
358.067	2.94
358.517	2.93
358.966	2.92
359.416	2.92
359.865	2.91
360.315	2.9
360.764	2.89
361.213	2.89
361.663	2.89
362.112	2.9
362.561	2.89
363.01	2.9
363.459	2.89
363.908	2.89
364.357	2.89
364.806	2.89
365.255	2.9
365.703	2.9
366.152	2.9
366.601	2.9
367.05	2.9
367.498	2.9
367.947	2.89
368.395	2.9
368.844	2.89
369.292	2.89
369.74	2.89
370.189	2.88
370.637	2.88
371.085	2.89
371.533	2.88
371.981	2.89
372.429	2.88
372.877	2.88
373.325	2.88
373.773	2.88
374.221	2.88
374.669	2.88
375.116	2.87
375.564	2.87
376.012	2.86
376.459	2.86
376.907	2.86
377.354	2.85
377.801	2.86
378.249	2.87
378.696	2.88
379.143	2.89
379.591	2.89
380.038	2.91
380.485	2.93
380.932	2.93
381.379	2.94
381.826	2.95
382.273	2.96
382.72	2.97
383.166	2.98
383.613	2.99
384.06	2.99
384.506	3
384.953	3
385.4	3
385.846	3.02
386.292	3.03
386.739	3.04
387.185	3.07
387.631	3.08
388.078	3.09
388.524	3.09
388.97	3.1
389.416	3.11
389.862	3.12
390.308	3.13
390.754	3.14
391.2	3.16
391.645	3.18
392.091	3.18
392.537	3.18
392.983	3.2
393.428	3.21
393.874	3.23
394.319	3.24
394.765	3.25
395.21	3.26
395.655	3.29
396.101	3.29
396.546	3.29
396.991	3.3
397.436	3.31
397.881	3.33
398.326	3.35
398.771	3.37
399.216	3.39
399.661	3.41
400.106	3.43
400.551	3.42
400.995	3.42
401.44	3.43
401.885	3.43
402.329	3.45
402.774	3.44
403.218	3.43
403.663	3.43
404.107	3.43
404.551	3.42
404.995	3.42
405.44	3.43
405.884	3.43
406.328	3.43
406.772	3.45
407.216	3.45
407.66	3.46
408.104	3.47
408.547	3.47
408.991	3.47
409.435	3.49
409.879	3.49
410.322	3.5
410.766	3.51
411.209	3.53
411.653	3.52
412.096	3.52
412.54	3.52
412.983	3.52
413.426	3.55
413.869	3.55
414.312	3.58
414.756	3.59
415.199	3.59
415.642	3.61
416.085	3.61
416.527	3.63
416.97	3.63
417.413	3.63
417.856	3.63
418.298	3.61
418.741	3.61
419.184	3.59
419.626	3.58
420.069	3.57
420.511	3.56
420.953	3.55
421.396	3.54
421.838	3.55
422.28	3.57
422.722	3.58
423.164	3.59
423.606	3.58
424.048	3.57
424.49	3.59
424.932	3.59
425.374	3.58
425.816	3.58
426.258	3.57
426.699	3.56
427.141	3.54
427.582	3.55
428.024	3.56
428.465	3.55
428.907	3.57
429.348	3.56
429.789	3.58
430.231	3.58
430.672	3.61
431.113	3.61
431.554	3.63
431.995	3.64
432.436	3.64
432.877	3.62
433.318	3.64
433.759	3.64
434.2	3.63
434.64	3.63
435.081	3.63
435.522	3.63
435.962	3.65
436.403	3.64
436.843	3.65
437.284	3.65
437.724	3.67
438.164	3.67
438.604	3.68
439.045	3.7
439.485	3.72
439.925	3.71
440.365	3.71
440.805	3.69
441.245	3.69
441.685	3.69
442.125	3.68
442.564	3.68
443.004	3.7
443.444	3.7
443.883	3.7
444.323	3.67
444.762	3.7
445.202	3.7
445.641	3.75
446.081	3.77
446.52	3.77
446.959	3.8
447.398	3.84
447.837	3.86
448.276	3.86
448.716	3.87
449.154	3.9
449.593	3.91
450.032	3.94
450.471	3.92
450.91	3.92
451.349	3.94
451.787	3.94
452.226	3.91
452.664	3.88
453.103	3.88
453.541	3.89
453.98	3.88
454.418	3.86
454.856	3.84
455.295	3.84
455.733	3.84
456.171	3.84
456.609	3.85
457.047	3.85
457.485	3.87
457.923	3.88
458.361	3.86
458.798	3.87
459.236	3.88
459.674	3.88
460.111	3.9
460.549	3.9
460.987	3.89
461.424	3.87
461.862	3.87
462.299	3.87
462.736	3.86
463.173	3.88
463.611	3.88
464.048	3.89
464.485	3.9
464.922	3.91
465.359	3.91
465.796	3.93
466.233	3.95
466.67	3.96
467.106	3.95
467.543	3.96
467.98	3.95
468.416	3.96
468.853	3.94
469.29	3.95
469.726	3.92
470.162	3.9
470.599	3.89
471.035	3.89
471.471	3.88
471.907	3.88
472.344	3.87
472.78	3.88
473.216	3.88
473.652	3.88
474.088	3.89
474.523	3.9
474.959	3.89
475.395	3.86
475.831	3.87
476.266	3.88
476.702	3.88
477.138	3.89
477.573	3.87
478.008	3.87
478.444	3.88
478.879	3.86
479.314	3.87
479.75	3.87
480.185	3.88
480.62	3.87
481.055	3.86
481.49	3.84
481.925	3.83
482.36	3.83
482.795	3.83
483.229	3.82
483.664	3.82
484.099	3.82
484.534	3.82
484.968	3.83
485.403	3.83
485.837	3.83
486.271	3.84
486.706	3.84
487.14	3.86
487.574	3.87
488.009	3.89
488.443	3.91
488.877	3.92
489.311	3.95
489.745	3.97
490.179	3.98
490.613	4.02
491.046	4.05
491.48	4.09
491.914	4.11
492.348	4.13
492.781	4.16
493.215	4.2
493.648	4.22
494.082	4.26
494.515	4.3
494.948	4.34
495.382	4.38
495.815	4.43
496.248	4.47
496.681	4.52
497.114	4.58
497.547	4.64
497.98	4.71
498.413	4.78
498.846	4.84
499.279	4.92
499.711	5.01
500.144	5.09
500.577	5.17
501.009	5.26
501.442	5.36
501.874	5.45
502.306	5.56
502.739	5.66
503.171	5.78
503.603	5.91
504.036	6.03
504.468	6.17
504.9	6.31
505.332	6.46
505.764	6.62
506.196	6.78
506.627	6.94
507.059	7.1
507.491	7.28
507.923	7.46
508.354	7.64
508.786	7.84
509.217	8.02
509.649	8.23
510.08	8.44
510.512	8.65
510.943	8.88
511.374	9.11
511.805	9.34
512.237	9.58
512.668	9.81
513.099	10.06
513.53	10.32
513.961	10.6
514.391	10.84
514.822	11.12
515.253	11.37
515.684	11.64
516.114	11.94
516.545	12.22
516.975	12.49
517.406	12.78
517.836	13.07
518.267	13.35
518.697	13.63
519.127	13.94
519.558	14.22
519.988	14.52
520.418	14.79
520.848	15.06
521.278	15.33
521.708	15.71
522.138	15.97
522.567	16.21
522.997	16.45
523.427	16.71
523.857	16.93
524.286	17.18
524.716	17.4
525.145	17.63
525.575	17.84
526.004	18.05
526.433	18.14
526.863	18.36
527.292	18.56
527.721	18.76
528.15	18.92
528.579	19.11
529.008	19.28
529.437	19.42
529.866	19.57
530.295	19.72
530.724	19.89
531.152	20.04
531.581	20.15
532.01	20.29
532.438	20.4
532.867	20.51
533.295	20.62
533.723	20.73
534.152	20.83
534.58	20.91
535.008	20.99
535.436	21.05
535.865	21.11
536.293	21.18
536.721	21.24
537.149	21.29
537.576	21.36
538.004	21.39
538.432	21.42
538.86	21.48
539.287	21.54
539.715	21.56
540.143	21.59
540.57	21.63
540.998	21.66
541.425	21.69
541.852	21.73
542.28	21.73
542.707	21.77
543.134	21.8
543.561	21.81
543.988	21.86
544.415	21.9
544.842	21.94
545.269	21.96
545.696	21.99
546.123	22
546.549	22.02
546.976	22.07
547.403	22.07
547.829	22.09
548.256	22.12
548.682	22.11
549.108	22.12
549.535	22.11
549.961	22.11
550.387	22.11
550.813	22.11
551.24	22.12
551.666	22.12
552.092	22.13
552.518	22.12
552.943	22.09
553.369	22.07
553.795	22.03
554.221	22.01
554.646	21.97
555.072	21.94
555.498	21.88
555.923	21.82
556.349	21.74
556.774	21.67
557.199	21.59
557.625	21.54
558.05	21.44
558.475	21.38
558.9	21.29
559.325	21.22
559.75	21.12
560.175	21.02
560.6	20.91
561.025	20.81
561.449	20.69
561.874	20.56
562.299	20.43
562.723	20.32
563.148	20.19
563.572	20.06
563.997	19.92
564.421	19.76
564.846	19.61
565.27	19.47
565.694	19.31
566.118	19.16
566.542	19.03
566.966	18.89
567.39	18.74
567.814	18.59
568.238	18.42
568.662	18.25
569.086	18.11
569.509	17.96
569.933	17.8
570.357	17.66
570.78	17.52
571.204	17.36
571.627	17.2
572.05	17.05
572.474	16.91
572.897	16.75
573.32	16.61
573.743	16.47
574.166	16.35
574.589	16.21
575.012	16.09
575.435	15.95
575.858	15.85
576.281	15.73
576.704	15.62
577.126	15.49
577.549	15.41
577.972	15.31
578.394	15.2
578.817	15.1
579.239	15.02
579.661	14.94
580.084	14.85
580.506	14.76
580.928	14.66
581.35	14.57
581.772	14.51
582.194	14.42
582.616	14.36
583.038	14.28
583.46	14.19
583.882	14.12
584.303	14.03
584.725	13.95
585.147	13.88
585.568	13.8
585.99	13.75
586.411	13.67
586.833	13.6
587.254	13.54
587.675	13.48
588.096	13.45
588.518	13.38
588.939	13.35
589.36	13.29
589.781	13.25
590.202	13.22
590.623	13.14
591.043	13.1
591.464	13.06
591.885	13.03
592.305	12.98
592.726	12.92
593.147	12.89
593.567	12.83
593.987	12.8
594.408	12.76
594.828	12.72
595.248	12.7
595.669	12.69
596.089	12.66
596.509	12.61
596.929	12.58
597.349	12.55
597.769	12.51
598.189	12.48
598.608	12.46
599.028	12.43
599.448	12.38
599.867	12.35
600.287	12.29
600.706	12.26
601.126	12.23
601.545	12.18
601.965	12.14
602.384	12.09
602.803	12.06
603.222	12
603.641	11.94
604.061	11.89
604.48	11.83
604.898	11.76
605.317	11.7
605.736	11.63
606.155	11.57
606.574	11.5
606.992	11.42
607.411	11.35
607.829	11.24
608.248	11.17
608.666	11.1
609.085	11.04
609.503	10.96
609.921	10.88
610.339	10.81
610.758	10.74
611.176	10.68
611.594	10.6
612.012	10.5
612.43	10.49
612.847	10.41
613.265	10.33
613.683	10.25
614.101	10.19
614.518	10.11
614.936	10.03
615.353	9.97
615.771	9.9
616.188	9.84
616.606	9.8
617.023	9.73
617.44	9.68
617.857	9.62
618.274	9.57
618.691	9.53
619.108	9.49
619.525	9.45
619.942	9.41
620.359	9.38
620.776	9.35
621.192	9.32
621.609	9.3
622.026	9.28
622.442	9.25
622.859	9.23
623.275	9.23
623.691	9.22
624.108	9.21
624.524	9.19
624.94	9.17
625.356	9.16
625.772	9.15
626.188	9.14
626.604	9.11
627.02	9.12
627.436	9.1
627.852	9.08
628.268	9.06
628.683	9.05
629.099	9.05
629.514	9.04
629.93	9.02
630.345	8.99
630.761	8.96
631.176	8.95
631.591	8.91
632.007	8.88
632.422	8.84
632.837	8.79
633.252	8.74
633.667	8.67
634.082	8.62
634.497	8.55
634.911	8.49
635.326	8.41
635.741	8.32
636.155	8.24
636.57	8.15
636.984	8.06
637.399	7.97
637.813	7.86
638.228	7.77
638.642	7.65
639.056	7.55
639.47	7.44
639.884	7.35
640.298	7.25
640.712	7.13
641.126	7.02
641.54	6.93
641.954	6.83
642.368	6.74
642.781	6.65
643.195	6.55
643.609	6.46
644.022	6.37
644.436	6.27
644.849	6.19
645.262	6.12
645.676	6.04
646.089	5.96
646.502	5.89
646.915	5.82
647.328	5.75
647.741	5.69
648.154	5.64
648.567	5.61
648.98	5.58
649.393	5.54
649.805	5.5
650.218	5.48
650.631	5.47
651.043	5.44
651.456	5.42
651.868	5.39
652.28	5.37
652.693	5.34
653.105	5.3
653.517	5.26
653.929	5.23
654.341	5.2
654.753	5.16
655.165	5.11
655.577	5.07
655.989	5.01
656.401	4.94
656.813	4.88
657.224	4.84
657.636	4.79
658.047	4.73
658.459	4.65
658.87	4.59
659.282	4.53
659.693	4.47
660.104	4.42
660.515	4.37
660.926	4.33
661.338	4.27
661.749	4.2
662.159	4.15
662.57	4.11
662.981	4.06
663.392	4.02
663.803	3.97
664.213	3.93
664.624	3.89
665.035	3.86
665.445	3.83
665.855	3.81
666.266	3.8
666.676	3.78
667.086	3.76
667.497	3.76
667.907	3.74
668.317	3.74
668.727	3.74
669.137	3.74
669.547	3.74
669.956	3.75
670.366	3.76
670.776	3.76
671.186	3.77
671.595	3.79
672.005	3.8
672.414	3.82
672.824	3.85
673.233	3.86
673.642	3.87
674.052	3.89
674.461	3.92
674.87	3.94
675.279	3.96
675.688	3.98
676.097	4.01
676.506	4.04
676.915	4.07
677.323	4.1
677.732	4.13
678.141	4.17
678.549	4.21
678.958	4.26
679.366	4.29
679.775	4.34
680.183	4.4
680.592	4.46
681	4.5
681.408	4.56
681.816	4.63
682.224	4.7
682.632	4.79
683.04	4.88
683.448	4.96
683.856	5.08
684.264	5.2
684.671	5.34
685.079	5.49
685.487	5.68
685.894	5.87
686.302	6.07
686.709	6.29
687.116	6.54
687.524	6.81
687.931	7.11
688.338	7.42
688.745	7.76
689.152	8.13
689.559	8.51
689.966	8.91
690.373	9.34
690.78	9.79
691.187	10.26
691.593	10.75
692	11.25
692.407	11.78
692.813	12.32
693.22	12.87
693.626	13.41
694.032	13.98
694.439	14.58
694.845	15.17
695.251	15.76
695.657	16.35
696.063	16.92
696.469	17.53
696.875	18.12
697.281	18.69
697.687	19.26
698.093	19.84
698.498	20.43
698.904	20.98
699.31	21.52
699.715	22.09
700.12	22.64
700.526	23.2
700.931	23.72
701.337	24.25
701.742	24.79
702.147	25.31
702.552	25.82
702.957	26.33
703.362	26.82
703.767	27.32
704.172	27.8
704.577	28.27
704.981	28.72
705.386	29.18
705.791	29.62
706.195	30.04
706.6	30.47
707.004	30.89
707.408	31.28
707.813	31.68
708.217	32.08
708.621	32.45
709.025	32.84
709.43	33.22
709.834	33.65
710.237	34.01
710.641	34.41
711.045	34.78
711.449	35.13
711.853	35.5
712.256	35.84
712.66	36.19
713.064	36.53
713.467	36.87
713.87	37.17
714.274	37.46
714.677	37.79
715.08	38.07
715.484	38.38
715.887	38.7
716.29	38.98
716.693	39.28
717.096	39.55
717.499	39.81
717.901	40.08
718.304	40.37
718.707	40.61
719.109	40.86
719.512	41.14
719.915	41.35
720.317	41.59
720.719	41.81
721.122	42.01
721.524	42.27
721.926	42.51
722.328	42.7
722.731	42.88
723.133	43.1
723.535	43.32
723.937	43.5
724.338	43.67
724.74	43.83
725.142	44
725.544	44.17
725.945	44.31
726.347	44.46
726.748	44.6
727.15	44.73
727.551	44.88
727.952	44.98
728.354	45.12
728.755	45.25
729.156	45.38
729.557	45.49
729.958	45.63
730.359	45.74
730.76	45.83
731.161	45.96
731.562	46.09
731.962	46.15
732.363	46.27
732.763	46.37
733.164	46.48
733.564	46.57
733.965	46.62
734.365	46.67
734.766	46.76
735.166	46.79
735.566	46.82
735.966	46.86
736.366	46.93
736.766	46.95
737.166	46.99
737.566	47.02
737.966	47.08
738.365	47.18
738.765	47.26
739.165	47.27
739.564	47.37
739.964	47.45
740.363	47.51
740.763	47.54
741.162	47.58
741.561	47.63
741.96	47.7
742.36	47.72
742.759	47.74
743.158	47.74
743.557	47.78
743.955	47.82
744.354	47.87
744.753	47.91
745.152	47.96
745.55	47.98
745.949	47.96
746.348	47.98
746.746	47.99
747.144	48.04
747.543	48.06
747.941	48.11
748.339	48.11
748.737	48.13
749.136	48.14
749.534	48.17
749.932	48.19
750.33	48.23
750.727	48.24
751.125	48.28
751.523	48.25
751.921	48.29
752.318	48.3
752.716	48.28
753.113	48.28
753.511	48.3
753.908	48.3
754.305	48.28
754.703	48.28
755.1	48.27
755.497	48.27
755.894	48.27
756.291	48.23
756.688	48.2
757.085	48.19
757.482	48.19
757.878	48.17
758.275	48.16
758.672	48.19
759.068	48.19
759.465	48.19
759.861	48.2
760.258	48.2
760.654	48.2
761.05	48.21
761.447	48.23
761.843	48.22
762.239	48.2
762.635	48.19
763.031	48.2
763.427	48.19
763.822	48.21
764.218	48.18
764.614	48.17
765.01	48.16
765.405	48.12
765.801	48.13
766.196	48.15
766.592	48.17
766.987	48.19
767.382	48.17
767.778	48.16
768.173	48.15
768.568	48.12
768.963	48.12
769.358	48.13
769.753	48.19
770.148	48.17
770.542	48.17
770.937	48.15
771.332	48.12
771.726	48.12
772.121	48.1
772.515	48.1
772.91	48.12
773.304	48.12
773.699	48.13
774.093	48.08
774.487	48.09
774.881	48.07
775.275	48.09
775.669	48.08
776.063	48.07
776.457	48.07
776.851	48.02
777.245	48.03
777.638	48.05
778.032	48.06
778.425	48.05
778.819	48.05
779.212	48.02
779.606	47.97
779.999	47.98
780.392	47.97
780.786	47.95
781.179	47.99
781.572	47.98
781.965	48
782.358	47.93
782.751	47.92
783.143	47.9
783.536	47.93
783.929	47.98
784.322	48.01
784.714	48
785.107	48.04
785.499	48.02
785.891	48.03
786.284	47.98
786.676	48.02
787.068	48
787.46	48
787.852	47.99
788.245	47.99
788.636	47.95
789.028	47.95
789.42	47.9
789.812	47.91
790.204	47.84
790.595	47.85
790.987	47.84
791.378	47.87
791.77	47.88
792.161	47.86
792.553	47.84
792.944	47.84
793.335	47.86
793.726	47.86
794.117	47.88
794.508	47.91
794.899	47.91
795.29	47.91
795.681	47.93
796.072	47.89
796.463	47.88
796.853	47.89
797.244	47.87
797.634	47.85
798.025	47.87
798.415	47.86
798.806	47.87
799.196	47.91
799.586	47.91
799.976	47.91
800.366	47.92
800.756	47.89
801.146	47.87
801.536	47.85
801.926	47.86
802.316	47.85
802.706	47.84
803.095	47.86
803.485	47.83
803.874	47.79
804.264	47.79
804.653	47.77
805.043	47.8
805.432	47.8
805.821	47.82
806.21	47.83
806.599	47.82
806.988	47.83
807.377	47.81
807.766	47.82
808.155	47.86
808.544	47.84
808.933	47.89
809.321	47.86
809.71	47.9
810.098	47.87
810.487	47.87
810.875	47.87
811.264	47.86
811.652	47.89
812.04	47.87
812.428	47.84
812.816	47.84
813.204	47.82
813.592	47.84
813.98	47.84
814.368	47.85
814.756	47.85
815.144	47.89
815.531	47.88
815.919	47.85
816.306	47.84
816.694	47.87
817.081	47.86
817.469	47.88
817.856	47.94
818.243	47.91
818.63	47.95
819.017	47.94
819.404	47.91
819.791	47.92
820.178	47.93
820.565	47.95
820.952	47.94
821.339	47.97
821.725	47.95
822.112	47.92
822.498	47.95
822.885	47.94
823.271	47.97
823.657	47.98
824.044	47.97
824.43	47.99
824.816	48
825.202	48
825.588	48.01
825.974	48.02
826.36	48.01
826.746	48.01
827.132	47.99
827.517	47.98
827.903	47.98
828.289	47.99
828.674	47.98
829.06	48
829.445	47.99
829.83	48
830.216	48
830.601	48.04
830.986	48.06
831.371	48.07
831.756	48.07
832.141	48.09
832.526	48.1
832.911	48.12
833.295	48.12
833.68	48.15
834.065	48.17
834.449	48.14
834.834	48.14
835.218	48.13
835.603	48.14
835.987	48.14
836.371	48.16
836.755	48.13
837.139	48.12
837.524	48.1
837.908	48.06
838.291	48.05
838.675	48.07
839.059	48.06
839.443	48.06
839.827	48.06
840.21	48.07
840.594	48.05
840.977	48.06
841.361	48.06
841.744	48.1
842.127	48.14
842.511	48.14
842.894	48.12
843.277	48.1
843.66	48.1
844.043	48.09
844.426	48.1
844.809	48.1
845.191	48.12
845.574	48.1
845.957	48.05
846.339	48.01
846.722	48.01
847.104	48.01
847.487	47.99
847.869	47.98
848.252	47.96
848.634	47.94
849.016	47.98
849.398	47.96
849.78	47.95
850.162	47.98
850.544	48
850.926	47.97
851.307	47.98
851.689	48.02
852.071	48.04
852.452	48.06
852.834	48.05
853.215	48.02
853.597	48.03
853.978	48.04
854.359	48.04
854.741	48.03
855.122	48.04
855.503	48.04
855.884	48
856.265	48
856.646	47.97
857.026	47.99
857.407	47.96
857.788	47.95
858.169	47.93
858.549	47.94
858.93	47.96
859.31	47.97
859.69	47.97
860.071	48.01
860.451	47.99
860.831	48
861.211	47.96
861.591	47.96
861.971	47.96
862.351	47.98
862.731	47.96
863.111	47.96
863.491	47.95
863.87	47.93
864.25	47.91
864.629	47.92
865.009	47.92
865.388	47.93
865.768	47.94
866.147	47.96
866.526	47.97
866.905	47.97
867.284	47.97
867.663	47.95
868.042	47.96
868.421	47.97
868.8	47.99
869.179	48.01
869.558	47.99
869.936	47.99
870.315	47.97
870.693	47.95
871.072	47.97
871.45	47.94
871.828	47.94
872.207	47.92
872.585	47.9
872.963	47.86
873.341	47.85
873.719	47.85
874.097	47.82
874.475	47.81
874.853	47.8
875.23	47.76
875.608	47.76
875.986	47.76
876.363	47.76
876.741	47.74
877.118	47.74
877.495	47.72
877.873	47.7
878.25	47.69
878.627	47.71
879.004	47.71
879.381	47.69
879.758	47.66
880.135	47.7
880.512	47.73
880.889	47.71
881.265	47.71
881.642	47.71
882.019	47.72
882.395	47.79
882.772	47.8
883.148	47.8
883.524	47.85
883.901	47.87
884.277	47.87
884.653	47.85
885.029	47.88
885.405	47.9
885.781	47.9
886.157	47.93
886.532	47.9
886.908	47.91
887.284	47.9
887.659	47.91
888.035	47.93
888.411	47.92
888.786	47.92
889.161	47.92
889.537	47.93
889.912	47.92
890.287	47.9
890.662	47.9
891.037	47.88
891.412	47.89
891.787	47.88
892.162	47.86
892.536	47.89
892.911	47.89
893.286	47.89
893.66	47.88
894.035	47.88
894.409	47.88
894.784	47.87
895.158	47.86
895.532	47.84
895.906	47.84
896.281	47.83
896.655	47.78
897.029	47.75
897.402	47.7
897.776	47.68
898.15	47.67
898.524	47.67
898.898	47.66
899.271	47.64
899.645	47.62
900.018	47.59
900.392	47.6
900.765	47.63
901.138	47.64
901.511	47.66
901.884	47.7
902.258	47.71
902.631	47.69
903.003	47.66
903.376	47.64
903.749	47.63
904.122	47.64
904.495	47.59
904.867	47.56
905.24	47.53
905.612	47.51
905.985	47.44
906.357	47.36
906.729	47.33
907.102	47.36
907.474	47.4
907.846	47.37
908.218	47.37
908.59	47.38
908.962	47.37
909.334	47.38
909.705	47.39
910.077	47.39
910.449	47.45
910.82	47.48
911.192	47.48
911.563	47.45
911.935	47.45
912.306	47.42
912.677	47.43
913.048	47.41
913.419	47.39
913.79	47.36
914.161	47.35
914.532	47.36
914.903	47.35
915.274	47.34
915.645	47.35
916.015	47.33
916.386	47.31
916.756	47.26
917.127	47.24
917.497	47.26
917.868	47.27
918.238	47.33
918.608	47.26
918.978	47.21
919.348	47.16
919.718	47.14
920.088	47.16
920.458	47.2
920.828	47.24
921.198	47.29
921.567	47.29
921.937	47.3
922.306	47.24
922.676	47.25
923.045	47.27
923.415	47.28
923.784	47.28
924.153	47.29
924.522	47.27
924.891	47.24
925.26	47.21
925.629	47.17
925.998	47.15
926.367	47.16
926.736	47.16
927.104	47.18
927.473	47.18
927.842	47.15
928.21	47.17
928.578	47.12
928.947	47.16
929.315	47.14
929.683	47.16
930.051	47.15
930.42	47.1
930.788	47.09
931.156	47.01
931.523	47.01
931.891	46.99
932.259	46.92
932.627	46.9
932.994	46.84
933.362	46.81
933.729	46.73
934.097	46.7
934.464	46.71
934.831	46.68
935.199	46.68
935.566	46.66
935.933	46.63
936.3	46.61
936.667	46.59
937.034	46.58
937.401	46.54
937.767	46.52
938.134	46.5
938.501	46.44
938.867	46.47
939.234	46.46
939.6	46.41
939.967	46.41
940.333	46.43
940.699	46.5
941.065	46.48
941.431	46.52
941.798	46.58
942.163	46.56
942.529	46.54
942.895	46.52
943.261	46.49
943.627	46.56
943.992	46.53
944.358	46.44
944.723	46.33
945.089	46.32
945.454	46.37
945.82	46.24
946.185	46.3
946.55	46.39
946.915	46.3
947.28	46.29
947.645	46.2
948.01	46.27
948.375	46.31
948.74	46.25
949.104	46.32
949.469	46.21
949.834	46.27
950.198	46.21
950.562	46.17
950.927	46.18
951.291	46.19
951.655	46.18
952.02	46.12
952.384	46.16
952.748	46.26
953.112	46.21
953.476	46.18
953.839	46.19
954.203	46.19
954.567	46.16
954.931	46.17
955.294	46.19
955.658	46.24
956.021	46.21
956.385	46.14
956.748	46.12
957.111	46.09
957.474	46.15
957.837	46.18
958.2	46.11
958.563	46.11
958.926	46.07
959.289	46.05
959.652	45.98
960.015	46
960.377	46
960.74	45.94
961.102	45.93
961.465	45.97
961.827	45.86
962.189	45.91
962.552	45.9
962.914	45.82
963.276	45.82
963.638	45.88
964	45.81
964.362	45.81
964.724	45.85
965.085	45.83
965.447	45.75
965.809	45.7
966.17	45.68
966.532	45.69
966.893	45.74
967.255	45.73
967.616	45.63
967.977	45.67
968.338	45.63
968.699	45.58
969.061	45.58
969.421	45.56
969.782	45.61
970.143	45.59
970.504	45.54
970.865	45.54
971.225	45.57
971.586	45.63
971.946	45.64
972.307	45.64
972.667	45.66
973.027	45.7
973.388	45.61
973.748	45.63
974.108	45.68
974.468	45.73
974.828	45.74
975.188	45.71
975.548	45.68
975.907	45.65
976.267	45.69
976.627	45.64
976.986	45.59
977.346	45.63
977.705	45.62
978.064	45.56
978.424	45.5
978.783	45.48
979.142	45.38
979.501	45.35
979.86	45.36
980.219	45.28
980.578	45.3
980.937	45.31
981.296	45.35
981.654	45.42
982.013	45.44
982.371	45.37
982.73	45.34
983.088	45.4
983.447	45.41
983.805	45.4
984.163	45.39
984.521	45.31
984.879	45.3
985.237	45.27
985.595	45.19
985.953	45.17
986.311	45.31
986.669	45.29
987.026	45.23
987.384	45.21
987.741	45.23
988.099	45.25
988.456	45.3
988.814	45.32
989.171	45.33
989.528	45.29
989.885	45.22
990.242	45.07
990.599	45.03
990.956	45.05
991.313	45
991.67	45.04
992.027	45.05
992.383	45.03
992.74	44.96
993.096	44.91
993.453	44.88
993.809	44.86
994.165	44.97
994.522	45.01
994.878	44.98
995.234	45
995.59	44.82
995.946	44.8
996.302	44.71
996.658	44.74
997.013	44.68
997.369	44.74
997.725	44.83
998.08	44.68
998.436	44.67
998.791	44.61
999.147	44.65
999.502	44.67
999.857	44.71
1000.212	44.69
1000.567	44.73
1000.922	44.67
1001.277	44.5
1001.632	44.44
1001.987	44.47
1002.342	44.48
1002.696	44.57
1003.051	44.45
1003.406	44.43
1003.76	44.34
1004.114	44.37
1004.469	44.26
1004.823	44.22
1005.177	44.43
1005.531	44.3
1005.885	44.39
1006.239	44.3
1006.593	44.23
1006.947	44.24
1007.301	44.23
1007.655	44.26
1008.008	44.14
1008.362	44.08
1008.715	44.19
1009.069	43.84
1009.422	43.85
1009.776	43.71
1010.129	43.46
1010.482	43.36
1010.835	43.42
1011.188	43.13
1011.541	42.97
1011.894	43
1012.247	42.93
1012.6	42.78
1012.952	43
1013.305	42.89
1013.657	42.92
1014.01	43.1
1014.362	42.97
1014.715	42.63
1015.067	42.83
1015.419	42.8
1015.771	42.9
1016.123	42.85
1016.475	43
1016.827	42.85
1017.179	42.83
1017.531	42.75
1017.883	42.69
1018.234	42.94
1018.586	43.01
1018.938	43.03
1019.289	42.95
1019.64	42.88
1019.992	42.93
1020.343	42.72
1020.694	42.68
1021.045	42.73
1021.396	42.57
1021.747	42.69
1022.098	42.39
1022.449	42.41
1022.8	42.15
1023.151	42.24
1023.501	42.3
1023.852	42.28
1024.202	42.43
1024.553	42.35
1024.903	42.34
1025.253	42.26
1025.604	42.36
1025.954	42.31
1026.304	42.68
1026.654	42.71
1027.004	42.89
1027.354	42.38
1027.703	42.25
1028.053	41.68
1028.403	41.78
1028.753	41.58
1029.102	41.52
1029.452	41.03
1029.801	40.98
1030.15	40.52
1030.499	40.47
897.758	707.77
901.051	724.27
904.343	726.19
907.636	714.74
910.928	702.84
914.22	710.87
917.511	702.14
920.803	676.79
924.094	643.58
927.384	646.47
930.675	625.36
933.965	619.41
937.255	619.72
940.544	596.44
943.834	565.72
947.123	556.02
950.411	531.99
953.7	517.85
956.988	499.97
960.276	478.73
963.563	473.38
966.851	449.47
970.138	441.26
973.424	407.48
976.711	400.22
979.997	387.35
983.283	379.98
986.568	365.3
989.853	354.27
993.138	342.59
996.423	338.17
999.708	325.64
1002.992	326.35
1006.275	314.7
1009.559	313.29
1012.842	303.74
1016.125	294.06
1019.408	288.29
1022.69	284.73
1025.972	283.85
1029.254	274.87
1032.536	270.25
1035.817	260.66
1039.098	256.63
1042.379	251.86
1045.659	247.15
1048.939	244.39
1052.219	241.49
1055.498	237.1
1058.778	233.99
1062.057	228.37
1065.335	227.42
1068.614	222.81
1071.892	221
1075.17	215.47
1078.447	212.59
1081.724	210.43
1085.001	207.75
1088.278	204.58
1091.554	201.94
1094.83	200.68
1098.106	197.36
1101.382	196.26
1104.657	195.31
1107.932	194.84
1111.206	193.75
1114.481	192.32
1117.755	191
1121.029	189.56
1124.302	188.16
1127.575	185.43
1130.848	184.63
1134.121	182.12
1137.393	181.27
1140.665	179.42
1143.937	177.69
1147.208	175.22
1150.48	172.6
1153.75	171.59
1157.021	170.02
1160.291	169.67
1163.561	169.57
1166.831	167.54
1170.101	167.85
1173.37	166.37
1176.639	165.4
1179.907	164.69
1183.176	165.18
1186.444	165.38
1189.711	164.67
1192.979	165.16
1196.246	165.02
1199.513	164.37
1202.78	165.26
1206.046	164.56
1209.312	166.53
1212.578	167.38
1215.843	169.76
1219.108	169.99
1222.373	173.29
1225.638	175.94
1228.902	181.04
1232.166	186.89
1235.43	190.21
1238.693	195.82
1241.956	199.97
1245.219	204.75
1248.482	206.22
1251.744	205.59
1255.006	207.69
1258.268	201.9
1261.529	200.31
1264.79	193.85
1268.051	189.9
1271.312	187.35
1274.572	183.06
1277.832	178.92
1281.092	176.36
1284.351	172.87
1287.61	172.66
1290.869	170.67
1294.128	170.42
1297.386	169.69
1300.644	169.09
1303.902	168.59
1307.159	168.05
1310.416	168.83
1313.673	171.55
1316.93	172.65
1320.186	175.63
1323.442	178.32
1326.697	182.21
1329.953	183.96
1333.208	190.85
1336.463	197.95
1339.717	201.75
1342.972	212.14
1346.226	218.04
1349.479	220.77
1352.733	231.18
1355.986	235.65
1359.238	240.28
1362.491	243.33
1365.743	252.97
1368.995	252.69
1372.247	253.67
1375.498	252.84
1378.749	261.7
1382	260.83
1385.251	260.32
1388.501	259.2
1391.751	263.67
1395	262.56
1398.25	264.24
1401.499	264.25
1404.748	264.89
1407.996	261.54
1411.244	261.99
1414.492	256.99
1417.74	251.24
1420.987	246.21
1424.234	240.83
1427.481	232.69
1430.728	226.86
1433.974	219.65
1437.22	210.23
1440.465	204.98
1443.711	198.32
1446.956	192.22
1450.201	184.95
1453.445	177.11
1456.689	171.44
1459.933	165.76
1463.177	158.67
1466.42	155.13
1469.663	150
1472.906	146.77
1476.148	140.96
1479.391	137.7
1482.633	135.13
1485.874	132.6
1489.115	131.3
1492.356	128.31
1495.597	126.96
1498.838	125.69
1502.078	124.45
1505.318	124.53
1508.557	123.61
1511.797	122.48
1515.036	122.22
1518.274	121.29
1521.513	119.09
1524.751	118.56
1527.989	119.31
1531.227	118.79
1534.464	118.5
1537.701	117.63
1540.938	116.85
1544.174	116.5
1547.41	116.43
1550.646	116.08
1553.882	116.09
1557.117	116.05
1560.352	115.22
1563.587	114.23
1566.821	113.86
1570.055	113.18
1573.289	112.55
1576.523	112.87
1579.756	112.13
1582.989	112.07
1586.222	111
1589.454	111.3
1592.686	110.53
1595.918	110.86
1599.15	110.83
1602.381	110.58
1605.612	110.87
1608.843	110.8
1612.073	110.87
1615.303	111.05
1618.533	110.58
1621.762	111.73
1624.992	110.27
1628.221	110.62
1631.449	110.9
1634.678	110.59
1637.906	110.95
1641.134	110.78
1644.361	110.59
1647.588	110.6
1650.815	110.66
1654.042	111.03
1657.269	110.09
1660.495	111.67
1663.72	111.84
1666.946	111.32
1670.171	112.03
1673.396	112.52
1676.621	112.95
1679.845	113.92
1683.069	113.28
1686.293	113.18
1689.517	113.26
1692.74	113.77
1695.963	113.97
1699.185	114.41
1702.408	114.66
1705.63	114.34
1708.852	115.17
1712.073	114.16
1715.294	113.48
1718.515	114.98
1721.736	115.04
1724.956	115.89
1728.176	115.89
1731.396	116.34
1734.616	116.34
1737.835	116.84
1741.054	117.01
1744.272	116.38
1747.491	117.59
1750.709	117.84
1753.927	117.66
1757.144	118.22
1760.361	118.13
1763.578	118.82
1766.795	118.95
1770.011	119.74
1773.227	120.55
1776.443	121.72
1779.658	122.4
1782.874	122.86
1786.089	124.04
1789.303	124.27
1792.518	125.23
1795.732	125.95
1798.945	127.21
1802.159	127.46
1805.372	129.03
1808.585	129.92
1811.797	130.86
1815.01	131.44
1818.222	132.75
1821.434	133.63
1824.645	134.8
1827.856	136.68
1831.067	136.78
1834.278	138.81
1837.488	139.93
1840.698	140.8
1843.908	140.78
1847.117	143.09
1850.326	144.62
1853.535	144.83
1856.744	146.66
1859.952	148.34
1863.16	148.52
1866.368	149.63
1869.575	148.64
1872.782	149.23
1875.989	148.16
1879.196	148.8
1882.402	146.72
1885.608	147.61
1888.814	147.86
1892.019	148.69
1895.224	146.68
1898.429	147.07
1901.634	148.06
1904.838	149.42
1908.042	150.05
1911.246	150.51
1914.449	150.32
1917.652	151.39
1920.855	151.34
1924.058	150.41
1927.26	149.82
1930.462	150.79
1933.664	150.7
1936.865	150.48
1940.066	149.43
1943.267	147.55
1946.467	148.74
1949.668	148.48
1952.868	148.94
1956.067	148.59
1959.267	150.58
1962.466	151.3
1965.665	152.07
1968.863	153.67
1972.061	154.23
1975.259	157.45
1978.457	159.56
1981.654	160.41
1984.852	162.37
1988.048	163.57
1991.245	167.03
1994.441	169.33
1997.637	173.39
2000.833	176.54
2004.028	178.43
2007.223	185.12
2010.418	188.48
2013.613	196.72
2016.807	202.58
2020.001	206.21
2023.194	211.81
2026.388	218.16
2029.581	229.46
2032.774	235.29
2035.966	243.4
2039.158	250.55
2042.35	253.22
2045.542	256.87
2048.733	266.74
2051.924	269.96
2055.115	275.85
2058.306	278.85
2061.496	282.94
2064.686	282.69
2067.875	280.38
2071.065	282.61
2074.254	283.39
2077.442	292.58
2080.631	295.67
2083.819	295.02
2087.007	300.71
2090.195	303.71
2093.382	304.39
2096.569	305.55
2099.756	310.91
2102.942	318.58
2106.128	327.42
2109.314	326.89
2112.5	325.66
2115.685	325.77
2118.87	326.61
2122.055	327.21
2125.239	334.02
2128.424	342.35
2131.608	340.1
2134.791	338.76
2137.974	341.01
2141.157	342.75
2144.34	347.87
2147.523	353.41
2150.705	361.78
2153.887	358.45
2157.068	363.63
2160.25	366.26
2163.431	364.08
2166.611	370.7
2169.792	378.55
2172.972	384.68
2176.152	383.58
2179.331	393.05
2182.511	393.37
2185.69	396.74
2188.868	414.5
2192.047	420.56
2195.225	427.15
2198.403	435.18
2201.58	429.56
2204.758	443.55
2207.935	446.05
2211.111	455.29
2214.288	457.68
2217.464	462.7
2220.64	466.45
2223.815	465.69
2226.991	466.81
2230.166	469.13
2233.34	483.83
2236.515	498.42
2239.689	487.61
2242.863	495.43
2246.036	488.55
2249.209	502.67
2252.382	500.08
2255.555	518.64
2258.727	521.77
2261.9	530.76
2265.071	539.19
2268.243	532.66
2271.414	549.09
2274.585	565.58
2277.756	565.77
2280.926	588.44
2284.096	587.17
2287.266	593.38
2290.436	577.98
2293.605	591.17
2296.774	617.86
2299.942	617.45
2303.111	634.72
2306.279	648.13
2309.447	648.59
2312.614	650.42
2315.781	667.26
2318.948	675.3
2322.115	688.13
2325.281	729.17
2328.447	728.02
2331.613	722.06
2334.779	734.26
2337.944	748.02
2341.109	760.37
2344.274	766.13
2347.438	791.38
2350.602	800.39
2353.766	844.74
2356.929	848.36
2360.092	859.05
2363.255	858.79
2366.418	877.03
2369.58	897.23
2372.742	892.21
2375.904	886.64
2379.066	916.79
2382.227	964.95
2385.388	974.64
2388.548	927.07
2391.709	918.69
2394.869	946.94
2398.029	949.84
2401.188	946.05
2404.347	972.88
2407.506	1008.02
2410.665	975.07
2413.823	977.98
2416.981	975.19
2420.139	919.88
2423.296	996.91
2426.453	1062.11
2429.61	1012.94
2432.767	1081.95
2435.923	1126.7
2439.079	1076.49
2442.235	1105.41
2445.391	1126.11
2448.546	1120.88
2451.701	1180.37
2454.855	1262.28
2458.009	1109.27
2461.163	1126.64
2464.317	1141.21
2467.471	1115.63
2470.624	1151.4
2473.777	1143.38
2476.929	1103.38
2480.082	1185.31
2483.234	1236.92
2486.385	1259.47
2489.537	1287.67
2492.688	1427.22
2495.839	1405.53
2498.989	1436.94
2502.14	1443.63
2505.29	1377.88
2508.439	1542.3
2511.589	1581.13
2514.738	1528.25
2517.887	1514.94
2521.035	1418.01
2524.183	1396.79
2527.331	1381.36
2530.479	1346.06
2533.627	1384.6
