Data from N_1_dec_va_2n_009_Splice17_02.txt Node
Date: Sat Feb 29 13:36:14 EST 2020
User: sa697716
Spectrometer: FLMS03696
Trigger mode: 0
Integration Time (sec): 3.180400E-1
Scans to average: 20
Electric dark correction enabled: true
Nonlinearity correction enabled: true
Boxcar width: 5
XAxis mode: Wavelengths
Number of Pixels in Spectrum: 2048
>>>>>Begin Spectral Data<<<<<
187.83	172.39
188.298	180.67
188.766	159.69
189.233	161.17
189.701	164.76
190.169	157.4
190.636	171.75
191.104	165.67
191.571	467.53
192.039	337.19
192.506	-234.12
192.974	5344.71
193.441	219.13
193.908	69.78
194.375	127.22
194.842	214.63
195.31	130.31
195.777	166.97
196.244	35.63
196.711	23.31
197.177	18.55
197.644	18.59
198.111	16.18
198.578	17.16
199.045	17.42
199.511	17.37
199.978	17.9
200.445	17.86
200.911	18.19
201.378	18.31
201.844	18.08
202.31	19.01
202.777	19.24
203.243	20.31
203.709	20.76
204.176	20.09
204.642	20.41
205.108	20.32
205.574	20.73
206.04	20.48
206.506	20.44
206.972	20.81
207.438	20.73
207.903	20.75
208.369	20.24
208.835	20.08
209.301	20.62
209.766	20.29
210.232	20.15
210.697	19.97
211.163	19.75
211.628	19.45
212.094	19.25
212.559	18.94
213.024	18.69
213.49	18.53
213.955	18.5
214.42	18.31
214.885	18.06
215.35	17.75
215.815	17.26
216.28	16.84
216.745	16.45
217.21	16.03
217.675	15.37
218.14	14.77
218.604	14.22
219.069	13.81
219.534	13.35
219.998	13.01
220.463	12.75
220.927	12.52
221.392	12.27
221.856	12.03
222.32	11.83
222.785	11.66
223.249	11.51
223.713	11.41
224.177	11.2
224.642	11.09
225.106	10.96
225.57	10.81
226.034	10.67
226.497	10.56
226.961	10.45
227.425	10.31
227.889	10.18
228.353	10.06
228.816	9.94
229.28	9.84
229.744	9.72
230.207	9.64
230.671	9.54
231.134	9.43
231.597	9.31
232.061	9.2
232.524	9.11
232.987	9.02
233.45	8.92
233.914	8.82
234.377	8.73
234.84	8.65
235.303	8.55
235.766	8.46
236.229	8.39
236.691	8.33
237.154	8.27
237.617	8.19
238.08	8.11
238.542	8.03
239.005	7.96
239.468	7.86
239.93	7.78
240.393	7.71
240.855	7.63
241.317	7.54
241.78	7.46
242.242	7.39
242.704	7.33
243.166	7.29
243.629	7.23
244.091	7.19
244.553	7.16
245.015	7.11
245.477	7.05
245.939	7
246.4	6.95
246.862	6.91
247.324	6.87
247.786	6.81
248.247	6.76
248.709	6.7
249.17	6.65
249.632	6.61
250.093	6.56
250.555	6.52
251.016	6.49
251.477	6.46
251.939	6.43
252.4	6.4
252.861	6.37
253.322	6.33
253.783	6.31
254.244	6.28
254.705	6.25
255.166	6.24
255.627	6.22
256.088	6.19
256.549	6.16
257.009	6.13
257.47	6.11
257.931	6.08
258.391	6.05
258.852	6.02
259.312	5.99
259.773	5.96
260.233	5.93
260.694	5.91
261.154	5.88
261.614	5.85
262.074	5.82
262.534	5.79
262.994	5.77
263.455	5.75
263.915	5.73
264.374	5.71
264.834	5.7
265.294	5.67
265.754	5.65
266.214	5.64
266.673	5.63
267.133	5.61
267.593	5.6
268.052	5.58
268.512	5.56
268.971	5.55
269.431	5.53
269.89	5.53
270.349	5.51
270.809	5.51
271.268	5.5
271.727	5.49
272.186	5.48
272.645	5.46
273.104	5.45
273.563	5.44
274.022	5.43
274.481	5.42
274.94	5.4
275.399	5.38
275.857	5.37
276.316	5.35
276.775	5.33
277.233	5.31
277.692	5.3
278.15	5.29
278.609	5.27
279.067	5.25
279.525	5.23
279.984	5.22
280.442	5.21
280.9	5.2
281.358	5.18
281.816	5.17
282.274	5.16
282.732	5.15
283.19	5.13
283.648	5.12
284.106	5.11
284.564	5.1
285.021	5.1
285.479	5.09
285.937	5.08
286.394	5.07
286.852	5.05
287.309	5.05
287.767	5.04
288.224	5.03
288.682	5.02
289.139	5.01
289.596	5
290.053	4.98
290.511	4.96
290.968	4.95
291.425	4.93
291.882	4.91
292.339	4.89
292.796	4.87
293.252	4.84
293.709	4.83
294.166	4.82
294.623	4.8
295.079	4.8
295.536	4.79
295.992	4.78
296.449	4.78
296.905	4.77
297.362	4.76
297.818	4.76
298.274	4.75
298.731	4.74
299.187	4.73
299.643	4.72
300.099	4.71
300.555	4.7
301.011	4.69
301.467	4.68
301.923	4.67
302.379	4.66
302.835	4.65
303.291	4.65
303.746	4.64
304.202	4.64
304.658	4.63
305.113	4.63
305.569	4.63
306.024	4.63
306.479	4.63
306.935	4.63
307.39	4.62
307.845	4.62
308.301	4.62
308.756	4.62
309.211	4.62
309.666	4.61
310.121	4.61
310.576	4.6
311.031	4.6
311.486	4.59
311.94	4.58
312.395	4.59
312.85	4.58
313.305	4.56
313.759	4.56
314.214	4.55
314.668	4.54
315.123	4.54
315.577	4.54
316.032	4.52
316.486	4.52
316.94	4.5
317.394	4.5
317.849	4.48
318.303	4.49
318.757	4.48
319.211	4.47
319.665	4.46
320.119	4.46
320.572	4.44
321.026	4.44
321.48	4.43
321.934	4.42
322.387	4.42
322.841	4.42
323.295	4.41
323.748	4.41
324.202	4.4
324.655	4.4
325.108	4.38
325.562	4.38
326.015	4.37
326.468	4.37
326.921	4.36
327.374	4.34
327.827	4.33
328.28	4.33
328.733	4.31
329.186	4.31
329.639	4.3
330.092	4.31
330.545	4.3
330.997	4.3
331.45	4.3
331.903	4.3
332.355	4.3
332.808	4.3
333.26	4.29
333.713	4.28
334.165	4.28
334.617	4.27
335.069	4.26
335.522	4.27
335.974	4.28
336.426	4.27
336.878	4.27
337.33	4.27
337.782	4.27
338.234	4.27
338.686	4.27
339.137	4.27
339.589	4.27
340.041	4.26
340.493	4.25
340.944	4.24
341.396	4.24
341.847	4.23
342.299	4.21
342.75	4.19
343.201	4.17
343.653	4.17
344.104	4.16
344.555	4.15
345.006	4.14
345.457	4.13
345.908	4.12
346.359	4.12
346.81	4.13
347.261	4.12
347.712	4.12
348.163	4.11
348.613	4.1
349.064	4.09
349.515	4.09
349.965	4.08
350.416	4.08
350.866	4.07
351.317	4.05
351.767	4.04
352.217	4.03
352.668	4.03
353.118	4.04
353.568	4.04
354.018	4.04
354.468	4.03
354.918	4.04
355.368	4.03
355.818	4.02
356.268	4.02
356.718	4.03
357.168	4.03
357.617	4.02
358.067	4.01
358.517	4.01
358.966	4.02
359.416	4.03
359.865	4.02
360.315	4.02
360.764	4.02
361.213	4.02
361.663	4.02
362.112	4.02
362.561	4.02
363.01	4.03
363.459	4.02
363.908	4.02
364.357	4.02
364.806	4.01
365.255	4.02
365.703	4.02
366.152	4.01
366.601	4.02
367.05	4.03
367.498	4.03
367.947	4.02
368.395	4.03
368.844	4.03
369.292	4.03
369.74	4.03
370.189	4.03
370.637	4.03
371.085	4.04
371.533	4.04
371.981	4.04
372.429	4.04
372.877	4.04
373.325	4.04
373.773	4.03
374.221	4.04
374.669	4.03
375.116	4.03
375.564	4.03
376.012	4.03
376.459	4.03
376.907	4.05
377.354	4.04
377.801	4.06
378.249	4.08
378.696	4.09
379.143	4.11
379.591	4.13
380.038	4.16
380.485	4.18
380.932	4.19
381.379	4.2
381.826	4.21
382.273	4.23
382.72	4.25
383.166	4.26
383.613	4.27
384.06	4.29
384.506	4.31
384.953	4.31
385.4	4.32
385.846	4.32
386.292	4.34
386.739	4.35
387.185	4.38
387.631	4.39
388.078	4.4
388.524	4.4
388.97	4.42
389.416	4.42
389.862	4.43
390.308	4.46
390.754	4.49
391.2	4.51
391.645	4.54
392.091	4.54
392.537	4.57
392.983	4.58
393.428	4.61
393.874	4.63
394.319	4.65
394.765	4.66
395.21	4.67
395.655	4.67
396.101	4.68
396.546	4.69
396.991	4.69
397.436	4.67
397.881	4.68
398.326	4.69
398.771	4.71
399.216	4.72
399.661	4.73
400.106	4.75
400.551	4.73
400.995	4.73
401.44	4.72
401.885	4.73
402.329	4.76
402.774	4.75
403.218	4.74
403.663	4.71
404.107	4.72
404.551	4.72
404.995	4.71
405.44	4.7
405.884	4.7
406.328	4.71
406.772	4.7
407.216	4.7
407.66	4.7
408.104	4.7
408.547	4.73
408.991	4.73
409.435	4.72
409.879	4.72
410.322	4.74
410.766	4.74
411.209	4.75
411.653	4.75
412.096	4.74
412.54	4.74
412.983	4.74
413.426	4.74
413.869	4.75
414.312	4.76
414.756	4.77
415.199	4.76
415.642	4.77
416.085	4.77
416.527	4.79
416.97	4.8
417.413	4.79
417.856	4.77
418.298	4.74
418.741	4.74
419.184	4.73
419.626	4.71
420.069	4.7
420.511	4.7
420.953	4.7
421.396	4.69
421.838	4.7
422.28	4.71
422.722	4.74
423.164	4.75
423.606	4.74
424.048	4.73
424.49	4.75
424.932	4.75
425.374	4.73
425.816	4.71
426.258	4.7
426.699	4.68
427.141	4.66
427.582	4.63
428.024	4.64
428.465	4.63
428.907	4.64
429.348	4.64
429.789	4.65
430.231	4.65
430.672	4.66
431.113	4.66
431.554	4.66
431.995	4.68
432.436	4.69
432.877	4.69
433.318	4.7
433.759	4.69
434.2	4.69
434.64	4.7
435.081	4.7
435.522	4.73
435.962	4.75
436.403	4.79
436.843	4.78
437.284	4.77
437.724	4.8
438.164	4.8
438.604	4.81
439.045	4.82
439.485	4.83
439.925	4.83
440.365	4.82
440.805	4.81
441.245	4.79
441.685	4.81
442.125	4.8
442.564	4.79
443.004	4.8
443.444	4.81
443.883	4.83
444.323	4.82
444.762	4.85
445.202	4.89
445.641	4.9
446.081	4.92
446.52	4.91
446.959	4.94
447.398	4.97
447.837	4.99
448.276	5
448.716	5
449.154	5.04
449.593	5.04
450.032	5.05
450.471	5.08
450.91	5.08
451.349	5.12
451.787	5.13
452.226	5.12
452.664	5.11
453.103	5.12
453.541	5.13
453.98	5.11
454.418	5.11
454.856	5.09
455.295	5.06
455.733	5.05
456.171	5.04
456.609	5.05
457.047	5.04
457.485	5.06
457.923	5.04
458.361	5.03
458.798	5.05
459.236	5.05
459.674	5.05
460.111	5.07
460.549	5.07
460.987	5.08
461.424	5.06
461.862	5.06
462.299	5.06
462.736	5.08
463.173	5.07
463.611	5.07
464.048	5.07
464.485	5.07
464.922	5.07
465.359	5.07
465.796	5.06
466.233	5.08
466.67	5.08
467.106	5.06
467.543	5.05
467.98	5.06
468.416	5.05
468.853	5.04
469.29	5.03
469.726	5.03
470.162	5.03
470.599	5.03
471.035	5.04
471.471	5.02
471.907	5.03
472.344	5.04
472.78	5.03
473.216	5.02
473.652	5.02
474.088	5.04
474.523	5.03
474.959	5.03
475.395	5.01
475.831	5.02
476.266	5.03
476.702	5.01
477.138	5
477.573	4.99
478.008	4.99
478.444	4.99
478.879	4.98
479.314	4.97
479.75	4.98
480.185	4.97
480.62	4.96
481.055	4.95
481.49	4.94
481.925	4.94
482.36	4.94
482.795	4.93
483.229	4.93
483.664	4.92
484.099	4.93
484.534	4.92
484.968	4.93
485.403	4.93
485.837	4.94
486.271	4.94
486.706	4.94
487.14	4.97
487.574	4.98
488.009	5
488.443	5.02
488.877	5.05
489.311	5.07
489.745	5.09
490.179	5.11
490.613	5.13
491.046	5.17
491.48	5.21
491.914	5.23
492.348	5.25
492.781	5.29
493.215	5.31
493.648	5.35
494.082	5.4
494.515	5.43
494.948	5.48
495.382	5.53
495.815	5.59
496.248	5.64
496.681	5.7
497.114	5.76
497.547	5.82
497.98	5.91
498.413	5.97
498.846	6.04
499.279	6.12
499.711	6.2
500.144	6.28
500.577	6.37
501.009	6.45
501.442	6.55
501.874	6.67
502.306	6.78
502.739	6.88
503.171	7.02
503.603	7.16
504.036	7.3
504.468	7.44
504.9	7.6
505.332	7.75
505.764	7.93
506.196	8.11
506.627	8.27
507.059	8.46
507.491	8.66
507.923	8.85
508.354	9.05
508.786	9.26
509.217	9.49
509.649	9.73
510.08	9.98
510.512	10.22
510.943	10.48
511.374	10.73
511.805	10.99
512.237	11.26
512.668	11.53
513.099	11.83
513.53	12.11
513.961	12.42
514.391	12.71
514.822	13
515.253	13.3
515.684	13.59
516.114	13.91
516.545	14.24
516.975	14.57
517.406	14.9
517.836	15.2
518.267	15.53
518.697	15.85
519.127	16.18
519.558	16.5
519.988	16.84
520.418	17.16
520.848	17.47
521.278	17.78
521.708	18.18
522.138	18.48
522.567	18.79
522.997	19.07
523.427	19.35
523.857	19.63
524.286	19.89
524.716	20.16
525.145	20.44
525.575	20.71
526.004	20.95
526.433	21.12
526.863	21.35
527.292	21.59
527.721	21.82
528.15	22.03
528.579	22.24
529.008	22.45
529.437	22.64
529.866	22.8
530.295	22.98
530.724	23.17
531.152	23.3
531.581	23.44
532.01	23.57
532.438	23.7
532.867	23.81
533.295	23.92
533.723	24.04
534.152	24.14
534.58	24.23
535.008	24.28
535.436	24.33
535.865	24.41
536.293	24.49
536.721	24.56
537.149	24.61
537.576	24.67
538.004	24.74
538.432	24.78
538.86	24.82
539.287	24.89
539.715	24.97
540.143	25.01
540.57	25.05
540.998	25.09
541.425	25.16
541.852	25.2
542.28	25.23
542.707	25.27
543.134	25.3
543.561	25.32
543.988	25.33
544.415	25.36
544.842	25.39
545.269	25.43
545.696	25.45
546.123	25.46
546.549	25.49
546.976	25.52
547.403	25.54
547.829	25.56
548.256	25.57
548.682	25.57
549.108	25.59
549.535	25.6
549.961	25.6
550.387	25.6
550.813	25.58
551.24	25.59
551.666	25.6
552.092	25.58
552.518	25.55
552.943	25.54
553.369	25.54
553.795	25.5
554.221	25.47
554.646	25.43
555.072	25.38
555.498	25.35
555.923	25.29
556.349	25.21
556.774	25.14
557.199	25.08
557.625	25
558.05	24.91
558.475	24.81
558.9	24.72
559.325	24.61
559.75	24.48
560.175	24.36
560.6	24.24
561.025	24.12
561.449	23.97
561.874	23.83
562.299	23.66
562.723	23.5
563.148	23.33
563.572	23.16
563.997	23.01
564.421	22.84
564.846	22.65
565.27	22.46
565.694	22.26
566.118	22.06
566.542	21.89
566.966	21.74
567.39	21.56
567.814	21.38
568.238	21.19
568.662	20.97
569.086	20.79
569.509	20.6
569.933	20.41
570.357	20.23
570.78	20.07
571.204	19.9
571.627	19.71
572.05	19.54
572.474	19.39
572.897	19.23
573.32	19.06
573.743	18.92
574.166	18.77
574.589	18.63
575.012	18.5
575.435	18.35
575.858	18.2
576.281	18.08
576.704	17.95
577.126	17.82
577.549	17.72
577.972	17.6
578.394	17.48
578.817	17.39
579.239	17.28
579.661	17.18
580.084	17.08
580.506	16.98
580.928	16.86
581.35	16.76
581.772	16.66
582.194	16.56
582.616	16.48
583.038	16.37
583.46	16.27
583.882	16.19
584.303	16.1
584.725	16.02
585.147	15.92
585.568	15.85
585.99	15.79
586.411	15.7
586.833	15.62
587.254	15.55
587.675	15.49
588.096	15.43
588.518	15.38
588.939	15.31
589.36	15.25
589.781	15.19
590.202	15.13
590.623	15.07
591.043	15.02
591.464	14.95
591.885	14.9
592.305	14.84
592.726	14.78
593.147	14.73
593.567	14.69
593.987	14.65
594.408	14.6
594.828	14.55
595.248	14.5
595.669	14.47
596.089	14.44
596.509	14.39
596.929	14.34
597.349	14.29
597.769	14.24
598.189	14.2
598.608	14.15
599.028	14.11
599.448	14.08
599.867	14.04
600.287	13.99
600.706	13.94
601.126	13.9
601.545	13.86
601.965	13.82
602.384	13.77
602.803	13.71
603.222	13.65
603.641	13.6
604.061	13.53
604.48	13.46
604.898	13.4
605.317	13.33
605.736	13.26
606.155	13.19
606.574	13.12
606.992	13.04
607.411	12.97
607.829	12.86
608.248	12.79
608.666	12.71
609.085	12.65
609.503	12.58
609.921	12.5
610.339	12.43
610.758	12.36
611.176	12.28
611.594	12.2
612.012	12.12
612.43	12.09
612.847	12.01
613.265	11.94
613.683	11.86
614.101	11.78
614.518	11.71
614.936	11.63
615.353	11.56
615.771	11.49
616.188	11.43
616.606	11.36
617.023	11.3
617.44	11.24
617.857	11.18
618.274	11.13
618.691	11.09
619.108	11.04
619.525	11
619.942	10.96
620.359	10.93
620.776	10.89
621.192	10.87
621.609	10.83
622.026	10.8
622.442	10.78
622.859	10.76
623.275	10.74
623.691	10.72
624.108	10.71
624.524	10.69
624.94	10.66
625.356	10.65
625.772	10.64
626.188	10.64
626.604	10.62
627.02	10.61
627.436	10.59
627.852	10.56
628.268	10.56
628.683	10.52
629.099	10.51
629.514	10.48
629.93	10.46
630.345	10.43
630.761	10.39
631.176	10.37
631.591	10.32
632.007	10.28
632.422	10.23
632.837	10.16
633.252	10.11
633.667	10.03
634.082	9.97
634.497	9.89
634.911	9.81
635.326	9.71
635.741	9.59
636.155	9.5
636.57	9.39
636.984	9.26
637.399	9.14
637.813	9.02
638.228	8.9
638.642	8.77
639.056	8.64
639.47	8.52
639.884	8.4
640.298	8.28
640.712	8.15
641.126	8.02
641.54	7.9
641.954	7.81
642.368	7.7
642.781	7.58
643.195	7.46
643.609	7.37
644.022	7.25
644.436	7.15
644.849	7.07
645.262	6.99
645.676	6.91
646.089	6.84
646.502	6.76
646.915	6.7
647.328	6.65
647.741	6.6
648.154	6.55
648.567	6.54
648.98	6.49
649.393	6.45
649.805	6.41
650.218	6.39
650.631	6.36
651.043	6.34
651.456	6.31
651.868	6.28
652.28	6.27
652.693	6.23
653.105	6.18
653.517	6.16
653.929	6.14
654.341	6.12
654.753	6.08
655.165	6.05
655.577	6
655.989	5.96
656.401	5.91
656.813	5.86
657.224	5.82
657.636	5.79
658.047	5.76
658.459	5.7
658.87	5.65
659.282	5.62
659.693	5.57
660.104	5.53
660.515	5.48
660.926	5.44
661.338	5.4
661.749	5.36
662.159	5.32
662.57	5.27
662.981	5.24
663.392	5.2
663.803	5.16
664.213	5.13
664.624	5.11
665.035	5.08
665.445	5.06
665.855	5.05
666.266	5.05
666.676	5.04
667.086	5.03
667.497	5.02
667.907	5.01
668.317	5
668.727	5.01
669.137	5.03
669.547	5.05
669.956	5.07
670.366	5.08
670.776	5.09
671.186	5.11
671.595	5.14
672.005	5.18
672.414	5.21
672.824	5.26
673.233	5.28
673.642	5.3
674.052	5.34
674.461	5.37
674.87	5.4
675.279	5.44
675.688	5.48
676.097	5.52
676.506	5.57
676.915	5.62
677.323	5.67
677.732	5.73
678.141	5.8
678.549	5.85
678.958	5.92
679.366	5.98
679.775	6.04
680.183	6.13
680.592	6.2
681	6.26
681.408	6.33
681.816	6.4
682.224	6.47
682.632	6.57
683.04	6.66
683.448	6.76
683.856	6.89
684.264	7.02
684.671	7.17
685.079	7.32
685.487	7.5
685.894	7.71
686.302	7.93
686.709	8.17
687.116	8.45
687.524	8.74
687.931	9.07
688.338	9.42
688.745	9.78
689.152	10.18
689.559	10.6
689.966	11.05
690.373	11.56
690.78	12.07
691.187	12.61
691.593	13.17
692	13.75
692.407	14.35
692.813	14.97
693.22	15.6
693.626	16.26
694.032	16.92
694.439	17.62
694.845	18.28
695.251	18.99
695.657	19.66
696.063	20.37
696.469	21.06
696.875	21.73
697.281	22.42
697.687	23.13
698.093	23.81
698.498	24.5
698.904	25.17
699.31	25.82
699.715	26.49
700.12	27.15
700.526	27.79
700.931	28.45
701.337	29.11
701.742	29.75
702.147	30.37
702.552	31
702.957	31.59
703.362	32.2
703.767	32.79
704.172	33.37
704.577	33.95
704.981	34.53
705.386	35.08
705.791	35.63
706.195	36.15
706.6	36.67
707.004	37.2
707.408	37.71
707.813	38.22
708.217	38.73
708.621	39.24
709.025	39.73
709.43	40.19
709.834	40.69
710.237	41.15
710.641	41.6
711.045	42.04
711.449	42.47
711.853	42.92
712.256	43.37
712.66	43.79
713.064	44.2
713.467	44.61
713.87	45
714.274	45.4
714.677	45.82
715.08	46.2
715.484	46.61
715.887	46.99
716.29	47.35
716.693	47.72
717.096	48.1
717.499	48.49
717.901	48.82
718.304	49.17
718.707	49.48
719.109	49.83
719.512	50.17
719.915	50.48
720.317	50.8
720.719	51.12
721.122	51.4
721.524	51.67
721.926	51.92
722.328	52.21
722.731	52.47
723.133	52.75
723.535	53
723.937	53.27
724.338	53.51
724.74	53.73
725.142	53.97
725.544	54.18
725.945	54.43
726.347	54.65
726.748	54.79
727.15	55
727.551	55.16
727.952	55.32
728.354	55.5
728.755	55.69
729.156	55.87
729.557	56.03
729.958	56.23
730.359	56.35
730.76	56.49
731.161	56.65
731.562	56.76
731.962	56.92
732.363	57.07
732.763	57.16
733.164	57.27
733.564	57.36
733.965	57.44
734.365	57.5
734.766	57.59
735.166	57.65
735.566	57.72
735.966	57.79
736.366	57.8
736.766	57.84
737.166	57.9
737.566	57.96
737.966	58.05
738.365	58.12
738.765	58.19
739.165	58.21
739.564	58.3
739.964	58.39
740.363	58.46
740.763	58.54
741.162	58.57
741.561	58.64
741.96	58.69
742.36	58.75
742.759	58.76
743.158	58.79
743.557	58.87
743.955	58.9
744.354	58.95
744.753	58.99
745.152	59
745.55	59.06
745.949	59.08
746.348	59.08
746.746	59.09
747.144	59.15
747.543	59.17
747.941	59.17
748.339	59.23
748.737	59.25
749.136	59.24
749.534	59.3
749.932	59.31
750.33	59.33
750.727	59.36
751.125	59.37
751.523	59.36
751.921	59.41
752.318	59.44
752.716	59.42
753.113	59.43
753.511	59.44
753.908	59.43
754.305	59.44
754.703	59.42
755.1	59.4
755.497	59.4
755.894	59.38
756.291	59.33
756.688	59.28
757.085	59.27
757.482	59.25
757.878	59.26
758.275	59.24
758.672	59.24
759.068	59.2
759.465	59.19
759.861	59.17
760.258	59.16
760.654	59.18
761.05	59.2
761.447	59.16
761.843	59.14
762.239	59.11
762.635	59.09
763.031	59.08
763.427	59.09
763.822	59.08
764.218	59.09
764.614	59.09
765.01	59.07
765.405	59.04
765.801	59.03
766.196	59.04
766.592	59.06
766.987	59.1
767.382	59.13
767.778	59.13
768.173	59.13
768.568	59.1
768.963	59.08
769.358	59.07
769.753	59.1
770.148	59.1
770.542	59.08
770.937	59.08
771.332	59.03
771.726	58.98
772.121	58.95
772.515	58.94
772.91	58.94
773.304	58.9
773.699	58.87
774.093	58.83
774.487	58.82
774.881	58.84
775.275	58.79
775.669	58.79
776.063	58.74
776.457	58.73
776.851	58.71
777.245	58.74
777.638	58.76
778.032	58.77
778.425	58.78
778.819	58.78
779.212	58.72
779.606	58.73
779.999	58.73
780.392	58.79
780.786	58.8
781.179	58.81
781.572	58.8
781.965	58.81
782.358	58.78
782.751	58.78
783.143	58.77
783.536	58.82
783.929	58.82
784.322	58.87
784.714	58.87
785.107	58.89
785.499	58.89
785.891	58.89
786.284	58.86
786.676	58.91
787.068	58.87
787.46	58.87
787.852	58.85
788.245	58.85
788.636	58.79
789.028	58.77
789.42	58.74
789.812	58.77
790.204	58.72
790.595	58.73
790.987	58.72
791.378	58.76
791.77	58.76
792.161	58.76
792.553	58.71
792.944	58.71
793.335	58.73
793.726	58.7
794.117	58.67
794.508	58.7
794.899	58.72
795.29	58.7
795.681	58.69
796.072	58.69
796.463	58.74
796.853	58.76
797.244	58.77
797.634	58.74
798.025	58.76
798.415	58.74
798.806	58.74
799.196	58.7
799.586	58.71
799.976	58.7
800.366	58.67
800.756	58.6
801.146	58.6
801.536	58.6
801.926	58.6
802.316	58.62
802.706	58.65
803.095	58.67
803.485	58.69
803.874	58.69
804.264	58.71
804.653	58.7
805.043	58.73
805.432	58.71
805.821	58.67
806.21	58.72
806.599	58.75
806.988	58.73
807.377	58.7
807.766	58.71
808.155	58.68
808.544	58.64
808.933	58.67
809.321	58.7
809.71	58.75
810.098	58.75
810.487	58.72
810.875	58.66
811.264	58.7
811.652	58.68
812.04	58.68
812.428	58.71
812.816	58.75
813.204	58.73
813.592	58.69
813.98	58.67
814.368	58.66
814.756	58.67
815.144	58.7
815.531	58.68
815.919	58.7
816.306	58.7
816.694	58.71
817.081	58.67
817.469	58.72
817.856	58.79
818.243	58.81
818.63	58.87
819.017	58.86
819.404	58.85
819.791	58.87
820.178	58.9
820.565	58.92
820.952	58.91
821.339	58.98
821.725	59
822.112	58.97
822.498	59
822.885	58.98
823.271	59.03
823.657	59.07
824.044	59.03
824.43	59.03
824.816	59
825.202	58.99
825.588	58.98
825.974	58.96
826.36	58.95
826.746	58.99
827.132	58.98
827.517	58.95
827.903	58.94
828.289	58.98
828.674	58.99
829.06	59.04
829.445	59.07
829.83	59.08
830.216	59.1
830.601	59.11
830.986	59.07
831.371	59.11
831.756	59.13
832.141	59.15
832.526	59.17
832.911	59.18
833.295	59.17
833.68	59.18
834.065	59.19
834.449	59.17
834.834	59.16
835.218	59.17
835.603	59.15
835.987	59.13
836.371	59.11
836.755	59.08
837.139	59.07
837.524	59.05
837.908	59
838.291	58.97
838.675	58.98
839.059	58.97
839.443	58.96
839.827	58.96
840.21	58.99
840.594	58.98
840.977	58.98
841.361	59
841.744	59.04
842.127	59.09
842.511	59.08
842.894	59.06
843.277	59.08
843.66	59.1
844.043	59.12
844.426	59.1
844.809	59.12
845.191	59.13
845.574	59.12
845.957	59.07
846.339	59.04
846.722	59.07
847.104	59.07
847.487	59.07
847.869	59.05
848.252	59.02
848.634	59.01
849.016	59.01
849.398	58.97
849.78	58.98
850.162	59.01
850.544	59.02
850.926	59.01
851.307	59.05
851.689	59.03
852.071	59.02
852.452	59.03
852.834	59.05
853.215	59.03
853.597	59.02
853.978	58.99
854.359	58.97
854.741	58.94
855.122	58.95
855.503	58.93
855.884	58.94
856.265	58.93
856.646	58.92
857.026	58.92
857.407	58.9
857.788	58.95
858.169	58.96
858.549	59
858.93	59.02
859.31	58.99
859.69	58.97
860.071	58.97
860.451	59
860.831	59.02
861.211	59.01
861.591	59.05
861.971	59.01
862.351	59.05
862.731	59.02
863.111	59.02
863.491	59.03
863.87	59.01
864.25	59.01
864.629	58.98
865.009	58.96
865.388	58.96
865.768	58.92
866.147	58.92
866.526	58.87
866.905	58.87
867.284	58.87
867.663	58.86
868.042	58.88
868.421	58.86
868.8	58.85
869.179	58.86
869.558	58.85
869.936	58.86
870.315	58.86
870.693	58.86
871.072	58.86
871.45	58.83
871.828	58.83
872.207	58.83
872.585	58.84
872.963	58.83
873.341	58.82
873.719	58.84
874.097	58.84
874.475	58.85
874.853	58.85
875.23	58.84
875.608	58.85
875.986	58.85
876.363	58.85
876.741	58.87
877.118	58.87
877.495	58.86
877.873	58.82
878.25	58.81
878.627	58.8
879.004	58.78
879.381	58.79
879.758	58.77
880.135	58.78
880.512	58.73
880.889	58.74
881.265	58.75
881.642	58.77
882.019	58.79
882.395	58.81
882.772	58.82
883.148	58.85
883.524	58.85
883.901	58.83
884.277	58.83
884.653	58.85
885.029	58.79
885.405	58.79
885.781	58.77
886.157	58.78
886.532	58.78
886.908	58.77
887.284	58.77
887.659	58.81
888.035	58.87
888.411	58.86
888.786	58.87
889.161	58.9
889.537	58.92
889.912	58.93
890.287	58.92
890.662	58.9
891.037	58.88
891.412	58.86
891.787	58.86
892.162	58.8
892.536	58.8
892.911	58.75
893.286	58.72
893.66	58.68
894.035	58.64
894.409	58.61
894.784	58.62
895.158	58.64
895.532	58.61
895.906	58.57
896.281	58.56
896.655	58.55
897.029	58.56
897.402	58.58
897.776	58.6
898.15	58.62
898.524	58.62
898.898	58.58
899.271	58.55
899.645	58.54
900.018	58.5
900.392	58.52
900.765	58.53
901.138	58.54
901.511	58.53
901.884	58.5
902.258	58.48
902.631	58.49
903.003	58.5
903.376	58.48
903.749	58.51
904.122	58.54
904.495	58.52
904.867	58.49
905.24	58.46
905.612	58.38
905.985	58.37
906.357	58.37
906.729	58.31
907.102	58.3
907.474	58.31
907.846	58.28
908.218	58.22
908.59	58.19
908.962	58.18
909.334	58.15
909.705	58.17
910.077	58.14
910.449	58.14
910.82	58.15
911.192	58.13
911.563	58.11
911.935	58.09
912.306	58.1
912.677	58.11
913.048	58.07
913.419	58.07
913.79	58.06
914.161	58.06
914.532	58.06
914.903	58.03
915.274	58.05
915.645	58.06
916.015	58.04
916.386	58
916.756	57.98
917.127	58
917.497	58
917.868	58.01
918.238	58.01
918.608	57.99
918.978	58
919.348	57.93
919.718	57.89
920.088	57.89
920.458	57.92
920.828	57.91
921.198	57.89
921.567	57.83
921.937	57.8
922.306	57.79
922.676	57.77
923.045	57.72
923.415	57.76
923.784	57.8
924.153	57.77
924.522	57.75
924.891	57.73
925.26	57.69
925.629	57.69
925.998	57.68
926.367	57.69
926.736	57.67
927.104	57.71
927.473	57.68
927.842	57.61
928.21	57.63
928.578	57.63
928.947	57.68
929.315	57.68
929.683	57.76
930.051	57.75
930.42	57.72
930.788	57.73
931.156	57.73
931.523	57.72
931.891	57.7
932.259	57.64
932.627	57.54
932.994	57.5
933.362	57.5
933.729	57.35
934.097	57.32
934.464	57.32
934.831	57.26
935.199	57.19
935.566	57.15
935.933	57.16
936.3	57.11
936.667	57.06
937.034	57.02
937.401	56.9
937.767	56.89
938.134	56.81
938.501	56.7
938.867	56.65
939.234	56.64
939.6	56.56
939.967	56.46
940.333	56.54
940.699	56.63
941.065	56.6
941.431	56.67
941.798	56.7
942.163	56.7
942.529	56.72
942.895	56.71
943.261	56.69
943.627	56.74
943.992	56.71
944.358	56.66
944.723	56.65
945.089	56.7
945.454	56.67
945.82	56.65
946.185	56.74
946.55	56.78
946.915	56.76
947.28	56.69
947.645	56.75
948.01	56.79
948.375	56.8
948.74	56.72
949.104	56.69
949.469	56.64
949.834	56.63
950.198	56.55
950.562	56.5
950.927	56.51
951.291	56.51
951.655	56.46
952.02	56.49
952.384	56.48
952.748	56.5
953.112	56.58
953.476	56.67
953.839	56.66
954.203	56.69
954.567	56.7
954.931	56.67
955.294	56.68
955.658	56.62
956.021	56.6
956.385	56.63
956.748	56.65
957.111	56.54
957.474	56.48
957.837	56.5
958.2	56.38
958.563	56.33
958.926	56.32
959.289	56.37
959.652	56.42
960.015	56.42
960.377	56.37
960.74	56.34
961.102	56.32
961.465	56.32
961.827	56.27
962.189	56.32
962.552	56.32
962.914	56.29
963.276	56.2
963.638	56.14
964	56.14
964.362	56.16
964.724	56.17
965.085	56.12
965.447	56.03
965.809	56
966.17	55.98
966.532	56.01
966.893	56.06
967.255	56.1
967.616	56.16
967.977	56.12
968.338	56.02
968.699	56.02
969.061	56
969.421	56.08
969.782	56.14
970.143	56.18
970.504	56.13
970.865	56.02
971.225	55.96
971.586	55.92
971.946	55.92
972.307	55.92
972.667	55.92
973.027	56.06
973.388	56.03
973.748	55.98
974.108	55.93
974.468	55.95
974.828	56.06
975.188	56.05
975.548	55.96
975.907	56.05
976.267	56.1
976.627	56.1
976.986	56.01
977.346	55.98
977.705	55.99
978.064	56.01
978.424	55.98
978.783	55.96
979.142	55.92
979.501	55.93
979.86	55.88
980.219	55.77
980.578	55.72
980.937	55.69
981.296	55.6
981.654	55.61
982.013	55.63
982.371	55.62
982.73	55.56
983.088	55.57
983.447	55.56
983.805	55.5
984.163	55.5
984.521	55.35
984.879	55.29
985.237	55.37
985.595	55.25
985.953	55.16
986.311	55.13
986.669	55.12
987.026	55.11
987.384	55.11
987.741	55.1
988.099	55.11
988.456	55.2
988.814	55.18
989.171	55.14
989.528	55.06
989.885	55.01
990.242	54.99
990.599	54.94
990.956	55.03
991.313	54.99
991.67	55.01
992.027	54.98
992.383	55.01
992.74	55.01
993.096	54.98
993.453	55.08
993.809	55.16
994.165	55.17
994.522	55.27
994.878	55.13
995.234	55.11
995.59	54.86
995.946	54.91
996.302	54.73
996.658	54.72
997.013	54.59
997.369	54.59
997.725	54.53
998.08	54.55
998.436	54.43
998.791	54.33
999.147	54.3
999.502	54.53
999.857	54.42
1000.212	54.54
1000.567	54.45
1000.922	54.48
1001.277	54.38
1001.632	54.43
1001.987	54.26
1002.342	54.08
1002.696	54.06
1003.051	53.91
1003.406	53.76
1003.76	53.75
1004.114	53.78
1004.469	53.87
1004.823	53.79
1005.177	53.88
1005.531	53.77
1005.885	53.92
1006.239	53.94
1006.593	54.01
1006.947	54
1007.301	54.05
1007.655	53.9
1008.008	53.68
1008.362	53.61
1008.715	53.71
1009.069	53.4
1009.422	53.27
1009.776	53.08
1010.129	52.98
1010.482	52.82
1010.835	52.96
1011.188	52.72
1011.541	52.57
1011.894	52.43
1012.247	52.41
1012.6	52.32
1012.952	52.5
1013.305	52.37
1013.657	52.35
1014.01	52.47
1014.362	52.73
1014.715	52.71
1015.067	52.61
1015.419	52.88
1015.771	53.15
1016.123	53.11
1016.475	52.96
1016.827	53.03
1017.179	53.12
1017.531	52.91
1017.883	52.92
1018.234	52.71
1018.586	52.41
1018.938	52.71
1019.289	52.59
1019.64	52.4
1019.992	52.2
1020.343	52.34
1020.694	51.96
1021.045	51.73
1021.396	51.69
1021.747	51.31
1022.098	51.13
1022.449	51.04
1022.8	50.85
1023.151	50.44
1023.501	50.77
1023.852	50.72
1024.202	50.49
1024.553	50.09
1024.903	50.19
1025.253	50.03
1025.604	50.38
1025.954	50.52
1026.304	51.32
1026.654	51.21
1027.004	51.48
1027.354	50.66
1027.703	50.52
1028.053	50.24
1028.403	50.72
1028.753	50.94
1029.102	50.94
1029.452	50.55
1029.801	50.23
1030.15	49.4
1030.499	49.29
897.758	682.71
901.051	686.6
904.343	698.56
907.636	683.81
910.928	673.47
914.22	685.81
917.511	674.8
920.803	646.22
924.094	620.4
927.384	625.08
930.675	605.62
933.965	597.52
937.255	599.21
940.544	569.78
943.834	547.2
947.123	538.58
950.411	508.89
953.7	497.55
956.988	483.71
960.276	461.91
963.563	454.33
966.851	430.32
970.138	423.36
973.424	394.99
976.711	389.6
979.997	379.18
983.283	370.26
986.568	358.87
989.853	348.18
993.138	336.59
996.423	330.54
999.708	322.22
1002.992	323.91
1006.275	311.94
1009.559	309.76
1012.842	300.76
1016.125	288.68
1019.408	283.63
1022.69	279.58
1025.972	279.92
1029.254	271.13
1032.536	267.45
1035.817	257.27
1039.098	253.67
1042.379	250.26
1045.659	246.2
1048.939	244.55
1052.219	240.56
1055.498	236.08
1058.778	233
1062.057	227.14
1065.335	226.64
1068.614	222.19
1071.892	221.57
1075.17	215.93
1078.447	212.75
1081.724	211.11
1085.001	206.98
1088.278	206.45
1091.554	204.32
1094.83	203.23
1098.106	200.08
1101.382	198.95
1104.657	198.6
1107.932	196.2
1111.206	195.8
1114.481	195.01
1117.755	193.2
1121.029	192.17
1124.302	189.65
1127.575	188.06
1130.848	186.98
1134.121	184.04
1137.393	183.57
1140.665	181.29
1143.937	179.97
1147.208	177.57
1150.48	175
1153.75	174.71
1157.021	172.65
1160.291	172.39
1163.561	172.49
1166.831	170.42
1170.101	170.79
1173.37	169.57
1176.639	168.37
1179.907	168.24
1183.176	167.74
1186.444	168.49
1189.711	166.56
1192.979	168.83
1196.246	168.64
1199.513	167.31
1202.78	168.19
1206.046	167.79
1209.312	168.68
1212.578	170.06
1215.843	172.09
1219.108	173.82
1222.373	175.64
1225.638	179.08
1228.902	182.48
1232.166	187.44
1235.43	190.18
1238.693	195.99
1241.956	199.79
1245.219	204.46
1248.482	206
1251.744	205.1
1255.006	205.9
1258.268	201.64
1261.529	199.79
1264.79	193.94
1268.051	190.27
1271.312	188.58
1274.572	184.99
1277.832	181.66
1281.092	179.08
1284.351	175.65
1287.61	175.51
1290.869	174.74
1294.128	173.38
1297.386	173.21
1300.644	173.02
1303.902	172.96
1307.159	172.33
1310.416	172.72
1313.673	174.83
1316.93	175.66
1320.186	178.18
1323.442	180.08
1326.697	183.56
1329.953	186.13
1333.208	191.26
1336.463	198.68
1339.717	201.46
1342.972	211.17
1346.226	217.38
1349.479	218.96
1352.733	229.02
1355.986	234.17
1359.238	239.84
1362.491	241.82
1365.743	250.42
1368.995	251.56
1372.247	252.22
1375.498	253.23
1378.749	260.4
1382	259.1
1385.251	259.9
1388.501	257.94
1391.751	261.64
1395	260.68
1398.25	262.69
1401.499	261.62
1404.748	263.29
1407.996	256.58
1411.244	256.15
1414.492	251.56
1417.74	246.08
1420.987	239.42
1424.234	236.22
1427.481	227.99
1430.728	221.81
1433.974	214.05
1437.22	206.33
1440.465	199.46
1443.711	194.06
1446.956	188.43
1450.201	181.71
1453.445	174.27
1456.689	169.97
1459.933	164.27
1463.177	157.73
1466.42	153.87
1469.663	149.67
1472.906	146.21
1476.148	142.17
1479.391	139.41
1482.633	137
1485.874	134.73
1489.115	133.62
1492.356	131.31
1495.597	129.84
1498.838	128.68
1502.078	127.96
1505.318	127.55
1508.557	126.64
1511.797	125.26
1515.036	125.25
1518.274	124.33
1521.513	122.86
1524.751	122.16
1527.989	123.17
1531.227	122.49
1534.464	122.58
1537.701	121.65
1540.938	121.23
1544.174	121.13
1547.41	121.58
1550.646	120.76
1553.882	120.86
1557.117	120.59
1560.352	119.99
1563.587	118.68
1566.821	118.58
1570.055	118.03
1573.289	117.72
1576.523	117.5
1579.756	116.67
1582.989	116.29
1586.222	116.17
1589.454	115.94
1592.686	115.48
1595.918	115.65
1599.15	115.35
1602.381	115.55
1605.612	115.09
1608.843	115.22
1612.073	115.99
1615.303	116.23
1618.533	115.6
1621.762	116.21
1624.992	115.91
1628.221	115.97
1631.449	116.38
1634.678	115.94
1637.906	115.91
1641.134	116.01
1644.361	115.97
1647.588	116.27
1650.815	116.6
1654.042	116.39
1657.269	116.08
1660.495	117.02
1663.72	116.74
1666.946	116.57
1670.171	117.53
1673.396	118.33
1676.621	118.67
1679.845	119.04
1683.069	118.05
1686.293	117.41
1689.517	118.4
1692.74	118.22
1695.963	118.45
1699.185	119.29
1702.408	119.51
1705.63	119.2
1708.852	119.69
1712.073	119.35
1715.294	119.11
1718.515	120.22
1721.736	120.77
1724.956	121
1728.176	120.94
1731.396	121.3
1734.616	121.2
1737.835	121.24
1741.054	121.38
1744.272	121.14
1747.491	121.89
1750.709	122.44
1753.927	122.35
1757.144	122.94
1760.361	123.1
1763.578	123.54
1766.795	123.89
1770.011	124.53
1773.227	125.67
1776.443	126.31
1779.658	126.49
1782.874	126.75
1786.089	127.77
1789.303	127.88
1792.518	129.08
1795.732	129.42
1798.945	130.84
1802.159	130.71
1805.372	132.39
1808.585	132.48
1811.797	133.83
1815.01	135.02
1818.222	136.49
1821.434	136.67
1824.645	137.46
1827.856	138.85
1831.067	140.32
1834.278	141.49
1837.488	142.86
1840.698	143.8
1843.908	144.08
1847.117	145.48
1850.326	146.25
1853.535	146.98
1856.744	148.33
1859.952	150.72
1863.16	150.58
1866.368	150.51
1869.575	151.08
1872.782	150.22
1875.989	148.56
1879.196	148.5
1882.402	147.19
1885.608	147.69
1888.814	146.81
1892.019	148.03
1895.224	144.89
1898.429	145.47
1901.634	145.65
1904.838	145.77
1908.042	145.98
1911.246	147.22
1914.449	147.38
1917.652	147.79
1920.855	148.16
1924.058	146.47
1927.26	144.93
1930.462	147.08
1933.664	146.27
1936.865	146.49
1940.066	145.05
1943.267	145.12
1946.467	145.26
1949.668	144.92
1952.868	145.42
1956.067	144.2
1959.267	146.67
1962.466	147.47
1965.665	148.11
1968.863	149.04
1972.061	150.13
1975.259	153.86
1978.457	154.8
1981.654	155.78
1984.852	158.19
1988.048	159.95
1991.245	162.61
1994.441	165.14
1997.637	168.98
2000.833	172.38
2004.028	174.38
2007.223	179.26
2010.418	182.42
2013.613	190.87
2016.807	196.85
2020.001	199.45
2023.194	204.07
2026.388	211.11
2029.581	222.12
2032.774	227.28
2035.966	234.99
2039.158	242.69
2042.35	247.07
2045.542	250.08
2048.733	259.13
2051.924	260.92
2055.115	266.59
2058.306	270.91
2061.496	276.31
2064.686	275.69
2067.875	275.63
2071.065	276.52
2074.254	276.46
2077.442	285.1
2080.631	288.15
2083.819	288.1
2087.007	293.67
2090.195	298.51
2093.382	298.24
2096.569	298.08
2099.756	303.63
2102.942	309.58
2106.128	315.39
2109.314	319.22
2112.5	317.86
2115.685	316.7
2118.87	317.1
2122.055	318.9
2125.239	325.43
2128.424	332.2
2131.608	329.16
2134.791	328.06
2137.974	329.9
2141.157	334.25
2144.34	336.74
2147.523	340.89
2150.705	350.11
2153.887	345.34
2157.068	349.74
2160.25	351.68
2163.431	350.85
2166.611	359.5
2169.792	367.57
2172.972	371.42
2176.152	369.08
2179.331	377.27
2182.511	378.06
2185.69	381.09
2188.868	397.22
2192.047	404.28
2195.225	407.5
2198.403	416.34
2201.58	407.41
2204.758	421.89
2207.935	425.86
2211.111	436.61
2214.288	437.06
2217.464	441.63
2220.64	446.44
2223.815	449
2226.991	444.7
2230.166	449.99
2233.34	461.16
2236.515	475.58
2239.689	467.52
2242.863	475.95
2246.036	467.39
2249.209	482.83
2252.382	480.68
2255.555	495.87
2258.727	498.89
2261.9	515.42
2265.071	521.18
2268.243	519.65
2271.414	536.76
2274.585	546.14
2277.756	547.65
2280.926	572.92
2284.096	570.87
2287.266	575.48
2290.436	562.12
2293.605	575.24
2296.774	595.61
2299.942	591.46
2303.111	606.65
2306.279	617.68
2309.447	623.52
2312.614	619.06
2315.781	634.46
2318.948	644.1
2322.115	657.09
2325.281	689.39
2328.447	686.77
2331.613	684.25
2334.779	703.41
2337.944	707.34
2341.109	718.33
2344.274	722.49
2347.438	752.08
2350.602	758.13
2353.766	801.5
2356.929	803.9
2360.092	819.12
2363.255	817.78
2366.418	832.71
2369.58	849.48
2372.742	853.08
2375.904	850.47
2379.066	873.73
2382.227	921.03
2385.388	919.58
2388.548	870.41
2391.709	867.41
2394.869	899.47
2398.029	897.97
2401.188	896.69
2404.347	922.53
2407.506	949.91
2410.665	922.73
2413.823	925.25
2416.981	921.8
2420.139	875.41
2423.296	949.43
2426.453	1000.86
2429.61	954.16
2432.767	1027.11
2435.923	1063.34
2439.079	1017.58
2442.235	1043.22
2445.391	1065.31
2448.546	1056.09
2451.701	1107.45
2454.855	1188.54
2458.009	1043.58
2461.163	1067.61
2464.317	1073.44
2467.471	1048.53
2470.624	1085.24
2473.777	1079.42
2476.929	1046.26
2480.082	1117.39
2483.234	1172.5
2486.385	1192.71
2489.537	1220.23
2492.688	1353.41
2495.839	1334.42
2498.989	1374.33
2502.14	1378.96
2505.29	1314.85
2508.439	1456.7
2511.589	1493.3
2514.738	1442.31
2517.887	1426.55
2521.035	1340.02
2524.183	1321.13
2527.331	1303.6
2530.479	1268.37
2533.627	1299.05
