Data from N_1_dec_oh_4n_013_Splice17_01.txt Node
Date: Sat Feb 29 13:38:14 EST 2020
User: sa697716
Spectrometer: FLMS03696
Trigger mode: 0
Integration Time (sec): 3.180400E-1
Scans to average: 20
Electric dark correction enabled: true
Nonlinearity correction enabled: true
Boxcar width: 5
XAxis mode: Wavelengths
Number of Pixels in Spectrum: 2048
>>>>>Begin Spectral Data<<<<<
187.83	50.59
188.298	50.35
188.766	45.61
189.233	29.72
189.701	48.85
190.169	54.21
190.636	56.41
191.104	66.56
191.571	240.84
192.039	132.07
192.506	23.76
192.974	3093.21
193.441	137.17
193.908	42.02
194.375	8.26
194.842	135.39
195.31	104.67
195.777	123.4
196.244	27.77
196.711	7.91
197.177	3.56
197.644	2.12
198.111	1.3
198.578	2.03
199.045	1.52
199.511	1.4
199.978	1.25
200.445	1.31
200.911	1.31
201.378	1.2
201.844	1.17
202.31	1.1
202.777	1.39
203.243	1.95
203.709	2.21
204.176	2.06
204.642	2.08
205.108	2.31
205.574	2.51
206.04	2.48
206.506	2.81
206.972	2.95
207.438	2.77
207.903	3.35
208.369	3.37
208.835	2.89
209.301	3.07
209.766	3.06
210.232	3.08
210.697	2.97
211.163	2.98
211.628	2.73
212.094	2.8
212.559	3.27
213.024	2.83
213.49	2.59
213.955	2.96
214.42	3.11
214.885	2.93
215.35	2.93
215.815	2.78
216.28	2.63
216.745	2.63
217.21	2.56
217.675	2.2
218.14	2.02
218.604	1.87
219.069	1.75
219.534	1.6
219.998	1.46
220.463	1.36
220.927	1.3
221.392	1.29
221.856	1.19
222.32	1.08
222.785	1.06
223.249	1.06
223.713	1.03
224.177	0.94
224.642	0.92
225.106	0.93
225.57	0.89
226.034	0.9
226.497	0.85
226.961	0.84
227.425	0.79
227.889	0.77
228.353	0.72
228.816	0.73
229.28	0.73
229.744	0.73
230.207	0.72
230.671	0.73
231.134	0.7
231.597	0.7
232.061	0.69
232.524	0.72
232.987	0.72
233.45	0.73
233.914	0.72
234.377	0.72
234.84	0.7
235.303	0.69
235.766	0.68
236.229	0.68
236.691	0.69
237.154	0.68
237.617	0.67
238.08	0.65
238.542	0.65
239.005	0.63
239.468	0.62
239.93	0.63
240.393	0.63
240.855	0.62
241.317	0.6
241.78	0.6
242.242	0.6
242.704	0.59
243.166	0.59
243.629	0.57
244.091	0.58
244.553	0.59
245.015	0.59
245.477	0.57
245.939	0.56
246.4	0.56
246.862	0.55
247.324	0.55
247.786	0.54
248.247	0.54
248.709	0.54
249.17	0.54
249.632	0.54
250.093	0.51
250.555	0.52
251.016	0.52
251.477	0.52
251.939	0.52
252.4	0.52
252.861	0.53
253.322	0.52
253.783	0.51
254.244	0.5
254.705	0.5
255.166	0.51
255.627	0.51
256.088	0.51
256.549	0.51
257.009	0.5
257.47	0.5
257.931	0.5
258.391	0.5
258.852	0.49
259.312	0.5
259.773	0.49
260.233	0.48
260.694	0.49
261.154	0.48
261.614	0.48
262.074	0.48
262.534	0.47
262.994	0.47
263.455	0.48
263.915	0.48
264.374	0.47
264.834	0.48
265.294	0.48
265.754	0.47
266.214	0.47
266.673	0.47
267.133	0.47
267.593	0.47
268.052	0.46
268.512	0.46
268.971	0.46
269.431	0.46
269.89	0.45
270.349	0.45
270.809	0.46
271.268	0.46
271.727	0.46
272.186	0.46
272.645	0.46
273.104	0.46
273.563	0.46
274.022	0.46
274.481	0.46
274.94	0.46
275.399	0.46
275.857	0.46
276.316	0.45
276.775	0.45
277.233	0.44
277.692	0.45
278.15	0.44
278.609	0.44
279.067	0.44
279.525	0.43
279.984	0.43
280.442	0.43
280.9	0.44
281.358	0.44
281.816	0.45
282.274	0.45
282.732	0.45
283.19	0.45
283.648	0.45
284.106	0.45
284.564	0.46
285.021	0.46
285.479	0.45
285.937	0.45
286.394	0.44
286.852	0.45
287.309	0.45
287.767	0.45
288.224	0.45
288.682	0.44
289.139	0.45
289.596	0.44
290.053	0.44
290.511	0.44
290.968	0.45
291.425	0.45
291.882	0.45
292.339	0.45
292.796	0.44
293.252	0.44
293.709	0.44
294.166	0.44
294.623	0.44
295.079	0.44
295.536	0.44
295.992	0.44
296.449	0.43
296.905	0.43
297.362	0.43
297.818	0.43
298.274	0.43
298.731	0.43
299.187	0.44
299.643	0.43
300.099	0.43
300.555	0.43
301.011	0.42
301.467	0.43
301.923	0.43
302.379	0.43
302.835	0.43
303.291	0.43
303.746	0.42
304.202	0.42
304.658	0.42
305.113	0.42
305.569	0.43
306.024	0.43
306.479	0.42
306.935	0.42
307.39	0.41
307.845	0.42
308.301	0.42
308.756	0.42
309.211	0.43
309.666	0.43
310.121	0.44
310.576	0.43
311.031	0.43
311.486	0.43
311.94	0.44
312.395	0.44
312.85	0.43
313.305	0.43
313.759	0.43
314.214	0.42
314.668	0.42
315.123	0.42
315.577	0.42
316.032	0.43
316.486	0.42
316.94	0.42
317.394	0.42
317.849	0.43
318.303	0.43
318.757	0.44
319.211	0.44
319.665	0.44
320.119	0.44
320.572	0.44
321.026	0.43
321.48	0.44
321.934	0.44
322.387	0.44
322.841	0.44
323.295	0.44
323.748	0.43
324.202	0.44
324.655	0.44
325.108	0.43
325.562	0.43
326.015	0.43
326.468	0.43
326.921	0.42
327.374	0.42
327.827	0.42
328.28	0.42
328.733	0.42
329.186	0.42
329.639	0.42
330.092	0.42
330.545	0.42
330.997	0.43
331.45	0.43
331.903	0.43
332.355	0.44
332.808	0.43
333.26	0.42
333.713	0.43
334.165	0.43
334.617	0.44
335.069	0.43
335.522	0.44
335.974	0.44
336.426	0.43
336.878	0.43
337.33	0.43
337.782	0.42
338.234	0.43
338.686	0.42
339.137	0.42
339.589	0.41
340.041	0.41
340.493	0.4
340.944	0.4
341.396	0.42
341.847	0.42
342.299	0.42
342.75	0.42
343.201	0.42
343.653	0.42
344.104	0.43
344.555	0.42
345.006	0.42
345.457	0.43
345.908	0.43
346.359	0.42
346.81	0.43
347.261	0.43
347.712	0.43
348.163	0.42
348.613	0.42
349.064	0.41
349.515	0.41
349.965	0.4
350.416	0.4
350.866	0.4
351.317	0.4
351.767	0.39
352.217	0.39
352.668	0.38
353.118	0.39
353.568	0.4
354.018	0.41
354.468	0.41
354.918	0.43
355.368	0.43
355.818	0.43
356.268	0.43
356.718	0.42
357.168	0.42
357.617	0.43
358.067	0.42
358.517	0.41
358.966	0.41
359.416	0.42
359.865	0.41
360.315	0.42
360.764	0.42
361.213	0.42
361.663	0.43
362.112	0.44
362.561	0.44
363.01	0.45
363.459	0.44
363.908	0.44
364.357	0.44
364.806	0.43
365.255	0.43
365.703	0.43
366.152	0.44
366.601	0.45
367.05	0.45
367.498	0.45
367.947	0.45
368.395	0.47
368.844	0.47
369.292	0.47
369.74	0.48
370.189	0.48
370.637	0.49
371.085	0.49
371.533	0.48
371.981	0.49
372.429	0.48
372.877	0.49
373.325	0.48
373.773	0.48
374.221	0.49
374.669	0.49
375.116	0.48
375.564	0.49
376.012	0.49
376.459	0.5
376.907	0.51
377.354	0.52
377.801	0.53
378.249	0.55
378.696	0.56
379.143	0.57
379.591	0.58
380.038	0.6
380.485	0.6
380.932	0.61
381.379	0.62
381.826	0.64
382.273	0.64
382.72	0.66
383.166	0.67
383.613	0.68
384.06	0.7
384.506	0.73
384.953	0.76
385.4	0.79
385.846	0.82
386.292	0.86
386.739	0.89
387.185	0.95
387.631	1
388.078	1.05
388.524	1.08
388.97	1.12
389.416	1.15
389.862	1.2
390.308	1.26
390.754	1.35
391.2	1.43
391.645	1.52
392.091	1.57
392.537	1.64
392.983	1.72
393.428	1.87
393.874	2.05
394.319	2.26
394.765	2.48
395.21	2.7
395.655	2.94
396.101	3.18
396.546	3.46
396.991	3.77
397.436	4.11
397.881	4.48
398.326	4.83
398.771	5.17
399.216	5.49
399.661	5.8
400.106	6.09
400.551	6.36
400.995	6.6
401.44	6.83
401.885	7.06
402.329	7.3
402.774	7.52
403.218	7.78
403.663	8.04
404.107	8.35
404.551	8.68
404.995	8.98
405.44	9.26
405.884	9.55
406.328	9.88
406.772	10.26
407.216	10.67
407.66	11.07
408.104	11.43
408.547	11.76
408.991	12.04
409.435	12.32
409.879	12.66
410.322	13.06
410.766	13.47
411.209	13.87
411.653	14.22
412.096	14.54
412.54	14.84
412.983	15.15
413.426	15.49
413.869	15.84
414.312	16.2
414.756	16.51
415.199	16.78
415.642	17.05
416.085	17.28
416.527	17.47
416.97	17.6
417.413	17.66
417.856	17.68
418.298	17.7
418.741	17.75
419.184	17.8
419.626	17.9
420.069	18.01
420.511	18.15
420.953	18.29
421.396	18.47
421.838	18.69
422.28	19
422.722	19.32
423.164	19.61
423.606	19.88
424.048	20.1
424.49	20.23
424.932	20.18
425.374	19.95
425.816	19.56
426.258	19.12
426.699	18.78
427.141	18.67
427.582	18.81
428.024	19.13
428.465	19.47
428.907	19.84
429.348	20.17
429.789	20.58
430.231	21.2
430.672	22.12
431.113	23.21
431.554	24.31
431.995	25.21
432.436	25.87
432.877	26.34
433.318	26.76
433.759	27.14
434.2	27.61
434.64	28.22
435.081	28.84
435.522	29.4
435.962	29.82
436.403	30.18
436.843	30.48
437.284	30.8
437.724	31.12
438.164	31.56
438.604	32.08
439.045	32.62
439.485	33.13
439.925	33.54
440.365	33.91
440.805	34.22
441.245	34.45
441.685	34.68
442.125	34.91
442.564	35.22
443.004	35.51
443.444	35.87
443.883	36.28
444.323	36.69
444.762	37.11
445.202	37.53
445.641	38.03
446.081	38.67
446.52	39.33
446.959	40.03
447.398	40.58
447.837	40.98
448.276	41.12
448.716	41.25
449.154	41.33
449.593	41.44
450.032	41.52
450.471	41.48
450.91	41.35
451.349	41.22
451.787	41.09
452.226	41.01
452.664	40.99
453.103	41.04
453.541	41.08
453.98	41.06
454.418	40.96
454.856	40.8
455.295	40.7
455.733	40.6
456.171	40.52
456.609	40.44
457.047	40.41
457.485	40.43
457.923	40.48
458.361	40.59
458.798	40.8
459.236	41.01
459.674	41.23
460.111	41.43
460.549	41.62
460.987	41.84
461.424	42.05
461.862	42.26
462.299	42.44
462.736	42.64
463.173	42.88
463.611	43.15
464.048	43.48
464.485	43.91
464.922	44.45
465.359	44.94
465.796	45.4
466.233	45.83
466.67	46.3
467.106	46.87
467.543	47.52
467.98	48.2
468.416	48.81
468.853	49.35
469.29	49.82
469.726	50.27
470.162	50.81
470.599	51.37
471.035	51.89
471.471	52.29
471.907	52.53
472.344	52.7
472.78	52.79
473.216	52.94
473.652	53.14
474.088	53.31
474.523	53.4
474.959	53.43
475.395	53.46
475.831	53.46
476.266	53.51
476.702	53.58
477.138	53.59
477.573	53.63
478.008	53.52
478.444	53.33
478.879	53.12
479.314	52.86
479.75	52.56
480.185	52.19
480.62	51.75
481.055	51.05
481.49	50.07
481.925	48.97
482.36	47.89
482.795	46.96
483.229	46.27
483.664	45.74
484.099	45.32
484.534	44.94
484.968	44.64
485.403	44.53
485.837	44.65
486.271	45.03
486.706	45.51
487.14	45.9
487.574	46.13
488.009	46.23
488.443	46.27
488.877	46.32
489.311	46.38
489.745	46.48
490.179	46.59
490.613	46.69
491.046	46.79
491.48	46.93
491.914	47.14
492.348	47.46
492.781	47.79
493.215	48.07
493.648	48.3
494.082	48.45
494.515	48.56
494.948	48.65
495.382	48.75
495.815	48.8
496.248	48.84
496.681	48.82
497.114	48.79
497.547	48.75
497.98	48.77
498.413	48.91
498.846	49.15
499.279	49.39
499.711	49.55
500.144	49.73
500.577	50.04
501.009	50.47
501.442	51.06
501.874	51.69
502.306	52.34
502.739	52.87
503.171	53.34
503.603	53.74
504.036	54.17
504.468	54.72
504.9	55.29
505.332	55.79
505.764	56.23
506.196	56.6
506.627	56.99
507.059	57.43
507.491	57.95
507.923	58.45
508.354	58.97
508.786	59.46
509.217	59.8
509.649	60.12
510.08	60.45
510.512	60.78
510.943	61.15
511.374	61.45
511.805	61.64
512.237	61.58
512.668	61.36
513.099	61.2
513.53	61.1
513.961	61.07
514.391	61.11
514.822	61.3
515.253	61.59
515.684	61.91
516.114	62.31
516.545	62.85
516.975	63.71
517.406	64.77
517.836	65.81
518.267	66.76
518.697	67.64
519.127	68.55
519.558	69.39
519.988	70.17
520.418	70.89
520.848	71.56
521.278	72.11
521.708	72.57
522.138	72.61
522.567	72.58
522.997	72.59
523.427	72.73
523.857	72.92
524.286	73.16
524.716	73.46
525.145	73.72
525.575	73.94
526.004	74.24
526.433	74.61
526.863	75.37
527.292	76.18
527.721	76.85
528.15	77.28
528.579	77.46
529.008	77.48
529.437	77.39
529.866	77.3
530.295	77.3
530.724	77.33
531.152	77.35
531.581	77.36
532.01	77.29
532.438	77.25
532.867	77.32
533.295	77.47
533.723	77.66
534.152	77.82
534.58	77.92
535.008	77.85
535.436	77.67
535.865	77.34
536.293	76.93
536.721	76.65
537.149	76.53
537.576	76.5
538.004	76.49
538.432	76.46
538.86	76.43
539.287	76.51
539.715	76.71
540.143	76.97
540.57	77.34
540.998	77.84
541.425	78.29
541.852	78.67
542.28	79.04
542.707	79.37
543.134	79.65
543.561	79.88
543.988	80.1
544.415	80.33
544.842	80.56
545.269	80.84
545.696	81.04
546.123	81.27
546.549	81.49
546.976	81.67
547.403	81.86
547.829	82.13
548.256	82.42
548.682	82.59
549.108	82.79
549.535	82.96
549.961	83.1
550.387	83.28
550.813	83.46
551.24	83.63
551.666	83.77
552.092	83.81
552.518	83.76
552.943	83.68
553.369	83.67
553.795	83.54
554.221	83.31
554.646	82.97
555.072	82.56
555.498	82.11
555.923	81.72
556.349	81.39
556.774	81.19
557.199	81.01
557.625	80.78
558.05	80.56
558.475	80.37
558.9	80.28
559.325	80.22
559.75	80.12
560.175	80.04
560.6	79.83
561.025	79.53
561.449	79.1
561.874	78.63
562.299	78.29
562.723	77.91
563.148	77.56
563.572	77.2
563.997	76.76
564.421	76.32
564.846	75.88
565.27	75.47
565.694	75.05
566.118	74.61
566.542	74.17
566.966	73.69
567.39	73.25
567.814	72.87
568.238	72.49
568.662	72.3
569.086	72.13
569.509	72
569.933	71.84
570.357	71.71
570.78	71.64
571.204	71.56
571.627	71.51
572.05	71.44
572.474	71.32
572.897	71.2
573.32	70.99
573.743	70.74
574.166	70.44
574.589	70.17
575.012	70.01
575.435	69.88
575.858	69.87
576.281	69.87
576.704	69.87
577.126	69.87
577.549	69.9
577.972	70.01
578.394	70.15
578.817	70.37
579.239	70.62
579.661	70.8
580.084	71
580.506	71.08
580.928	71.09
581.35	71.09
581.772	71.02
582.194	70.92
582.616	70.81
583.038	70.73
583.46	70.64
583.882	70.44
584.303	70.07
584.725	69.52
585.147	68.94
585.568	68.41
585.99	68.04
586.411	67.76
586.833	67.54
587.254	67.35
587.675	67.16
588.096	67.02
588.518	66.92
588.939	66.98
589.36	67.21
589.781	67.53
590.202	67.82
590.623	67.96
591.043	67.99
591.464	67.99
591.885	67.94
592.305	67.88
592.726	67.78
593.147	67.7
593.567	67.57
593.987	67.44
594.408	67.26
594.828	67.11
595.248	66.96
595.669	66.84
596.089	66.66
596.509	66.42
596.929	66.14
597.349	65.83
597.769	65.51
598.189	65.24
598.608	65.02
599.028	64.85
599.448	64.72
599.867	64.59
600.287	64.49
600.706	64.35
601.126	64.29
601.545	64.21
601.965	64.16
602.384	64.1
602.803	64.03
603.222	63.92
603.641	63.78
604.061	63.57
604.48	63.31
604.898	63.02
605.317	62.77
605.736	62.47
606.155	62.16
606.574	61.89
606.992	61.6
607.411	61.34
607.829	61.02
608.248	60.73
608.666	60.44
609.085	60.2
609.503	59.9
609.921	59.64
610.339	59.41
610.758	59.2
611.176	58.95
611.594	58.67
612.012	58.36
612.43	58.07
612.847	57.77
613.265	57.54
613.683	57.35
614.101	57.21
614.518	57.07
614.936	56.95
615.353	56.83
615.771	56.77
616.188	56.76
616.606	56.75
617.023	56.77
617.44	56.74
617.857	56.65
618.274	56.49
618.691	56.34
619.108	56.14
619.525	55.92
619.942	55.67
620.359	55.39
620.776	55.04
621.192	54.7
621.609	54.38
622.026	54.1
622.442	53.88
622.859	53.67
623.275	53.45
623.691	53.2
624.108	52.97
624.524	52.76
624.94	52.57
625.356	52.39
625.772	52.27
626.188	52.15
626.604	52.01
627.02	51.81
627.436	51.65
627.852	51.49
628.268	51.44
628.683	51.39
629.099	51.35
629.514	51.3
629.93	51.28
630.345	51.27
630.761	51.24
631.176	51.24
631.591	51.24
632.007	51.21
632.422	51.24
632.837	51.22
633.252	51.18
633.667	51.16
634.082	51.16
634.497	51.16
634.911	51.09
635.326	51
635.741	50.88
636.155	50.74
636.57	50.64
636.984	50.43
637.399	50.22
637.813	50.02
638.228	49.83
638.642	49.6
639.056	49.36
639.47	49.14
639.884	48.98
640.298	48.8
640.712	48.65
641.126	48.5
641.54	48.34
641.954	48.19
642.368	47.99
642.781	47.79
643.195	47.56
643.609	47.36
644.022	47.18
644.436	46.94
644.849	46.68
645.262	46.4
645.676	46.1
646.089	45.91
646.502	45.75
646.915	45.62
647.328	45.49
647.741	45.39
648.154	45.31
648.567	45.21
648.98	45.19
649.393	45.19
649.805	45.2
650.218	45.22
650.631	45.14
651.043	44.96
651.456	44.6
651.868	44.07
652.28	43.45
652.693	42.84
653.105	42.37
653.517	41.96
653.929	41.69
654.341	41.5
654.753	41.38
655.165	41.29
655.577	41.26
655.989	41.47
656.401	41.81
656.813	42.29
657.224	42.75
657.636	43.07
658.047	43.31
658.459	43.41
658.87	43.42
659.282	43.4
659.693	43.36
660.104	43.31
660.515	43.2
660.926	43.16
661.338	43.05
661.749	42.92
662.159	42.79
662.57	42.64
662.981	42.5
663.392	42.39
663.803	42.26
664.213	42.15
664.624	42.07
665.035	41.96
665.445	41.82
665.855	41.67
666.266	41.55
666.676	41.41
667.086	41.29
667.497	41.14
667.907	40.99
668.317	40.86
668.727	40.73
669.137	40.59
669.547	40.46
669.956	40.36
670.366	40.28
670.776	40.18
671.186	40.1
671.595	40.04
672.005	40.02
672.414	39.98
672.824	39.95
673.233	39.93
673.642	39.9
674.052	39.9
674.461	39.9
674.87	39.9
675.279	39.92
675.688	39.93
676.097	39.96
676.506	39.96
676.915	39.99
677.323	40.05
677.732	40.11
678.141	40.19
678.549	40.26
678.958	40.34
679.366	40.41
679.775	40.47
680.183	40.55
680.592	40.62
681	40.68
681.408	40.76
681.816	40.78
682.224	40.61
682.632	40.27
683.04	39.69
683.448	39.06
683.856	38.5
684.264	38.05
684.671	37.63
685.079	37.22
685.487	36.88
685.894	36.61
686.302	36.42
686.709	36.47
687.116	36.78
687.524	37.39
687.931	38.11
688.338	38.84
688.745	39.53
689.152	40.22
689.559	40.87
689.966	41.51
690.373	42.11
690.78	42.65
691.187	43.19
691.593	43.67
692	44.12
692.407	44.57
692.813	44.99
693.22	45.35
693.626	45.71
694.032	46.07
694.439	46.42
694.845	46.73
695.251	47.04
695.657	47.26
696.063	47.5
696.469	47.69
696.875	47.8
697.281	47.89
697.687	47.98
698.093	48.04
698.498	48.15
698.904	48.25
699.31	48.36
699.715	48.55
700.12	48.74
700.526	48.97
700.931	49.2
701.337	49.43
701.742	49.66
702.147	49.9
702.552	50.17
702.957	50.4
703.362	50.66
703.767	50.87
704.172	51.04
704.577	51.2
704.981	51.34
705.386	51.46
705.791	51.6
706.195	51.74
706.6	51.89
707.004	52.01
707.408	52.12
707.813	52.18
708.217	52.25
708.621	52.33
709.025	52.4
709.43	52.45
709.834	52.54
710.237	52.57
710.641	52.62
711.045	52.62
711.449	52.63
711.853	52.61
712.256	52.57
712.66	52.4
713.064	52.14
713.467	51.79
713.87	51.34
714.274	50.81
714.677	50.24
715.08	49.63
715.484	49.04
715.887	48.47
716.29	47.96
716.693	47.56
717.096	47.42
717.499	47.48
717.901	47.68
718.304	48
718.707	48.35
719.109	48.74
719.512	49.13
719.915	49.46
720.317	49.74
720.719	49.98
721.122	50.14
721.524	50.16
721.926	50.11
722.328	50
722.731	49.88
723.133	49.79
723.535	49.72
723.937	49.67
724.338	49.66
724.74	49.64
725.142	49.63
725.544	49.6
725.945	49.67
726.347	49.68
726.748	49.68
727.15	49.67
727.551	49.72
727.952	49.83
728.354	49.97
728.755	50.15
729.156	50.4
729.557	50.71
729.958	51.02
730.359	51.27
730.76	51.49
731.161	51.72
731.562	51.92
731.962	52.07
732.363	52.14
732.763	52.25
733.164	52.32
733.564	52.34
733.965	52.27
734.365	52.18
734.766	52.05
735.166	51.95
735.566	51.82
735.966	51.73
736.366	51.64
736.766	51.56
737.166	51.45
737.566	51.32
737.966	51.19
738.365	51.13
738.765	51.11
739.165	51.11
739.564	51.13
739.964	51.2
740.363	51.2
740.763	51.22
741.162	51.24
741.561	51.29
741.96	51.35
742.36	51.38
742.759	51.36
743.158	51.33
743.557	51.3
743.955	51.29
744.354	51.26
744.753	51.25
745.152	51.17
745.55	51.09
745.949	50.98
746.348	50.89
746.746	50.76
747.144	50.68
747.543	50.65
747.941	50.54
748.339	50.46
748.737	50.36
749.136	50.23
749.534	50.2
749.932	50.16
750.33	50.13
750.727	50.07
751.125	50.03
751.523	49.97
751.921	49.89
752.318	49.87
752.716	49.75
753.113	49.68
753.511	49.61
753.908	49.48
754.305	49.29
754.703	48.97
755.1	48.26
755.497	46.98
755.894	44.99
756.291	42.45
756.688	39.65
757.085	36.92
757.482	34.4
757.878	32.08
758.275	29.82
758.672	27.52
759.068	25.36
759.465	23.59
759.861	22.56
760.258	22.35
760.654	22.86
761.05	23.83
761.447	24.95
761.843	26
762.239	27.03
762.635	28.22
763.031	29.67
763.427	31.28
763.822	33.03
764.218	34.8
764.614	36.47
765.01	38.03
765.405	39.45
765.801	40.74
766.196	41.89
766.592	42.88
766.987	43.7
767.382	44.34
767.778	44.84
768.173	45.19
768.568	45.4
768.963	45.58
769.358	45.73
769.753	45.83
770.148	45.9
770.542	45.87
770.937	45.85
771.332	45.82
771.726	45.78
772.121	45.74
772.515	45.7
772.91	45.66
773.304	45.63
773.699	45.53
774.093	45.41
774.487	45.32
774.881	45.29
775.275	45.21
775.669	45.12
776.063	44.99
776.457	44.86
776.851	44.72
777.245	44.63
777.638	44.53
778.032	44.44
778.425	44.41
778.819	44.31
779.212	44.17
779.606	44.03
779.999	43.89
780.392	43.77
780.786	43.68
781.179	43.57
781.572	43.43
781.965	43.29
782.358	43.13
782.751	42.96
783.143	42.81
783.536	42.7
783.929	42.55
784.322	42.45
784.714	42.28
785.107	42.11
785.499	41.94
785.891	41.76
786.284	41.53
786.676	41.36
787.068	41.15
787.46	40.94
787.852	40.74
788.245	40.55
788.636	40.28
789.028	40.07
789.42	39.8
789.812	39.58
790.204	39.35
790.595	39.15
790.987	38.94
791.378	38.75
791.77	38.57
792.161	38.36
792.553	38.2
792.944	38.09
793.335	37.97
793.726	37.89
794.117	37.74
794.508	37.63
794.899	37.52
795.29	37.36
795.681	37.21
796.072	37.04
796.463	36.87
796.853	36.68
797.244	36.47
797.634	36.24
798.025	36.03
798.415	35.82
798.806	35.61
799.196	35.39
799.586	35.16
799.976	34.93
800.366	34.7
800.756	34.48
801.146	34.26
801.536	34.05
801.926	33.86
802.316	33.69
802.706	33.52
803.095	33.34
803.485	33.16
803.874	32.96
804.264	32.75
804.653	32.53
805.043	32.3
805.432	32.06
805.821	31.78
806.21	31.53
806.599	31.27
806.988	31.01
807.377	30.72
807.766	30.43
808.155	30.19
808.544	29.93
808.933	29.64
809.321	29.34
809.71	29.02
810.098	28.69
810.487	28.3
810.875	27.88
811.264	27.43
811.652	26.98
812.04	26.51
812.428	26.04
812.816	25.57
813.204	25.15
813.592	24.75
813.98	24.36
814.368	24.01
814.756	23.71
815.144	23.4
815.531	23.14
815.919	22.92
816.306	22.74
816.694	22.66
817.081	22.58
817.469	22.49
817.856	22.37
818.243	22.2
818.63	21.99
819.017	21.72
819.404	21.49
819.791	21.31
820.178	21.16
820.565	21
820.952	20.8
821.339	20.6
821.725	20.43
822.112	20.3
822.498	20.23
822.885	20.22
823.271	20.22
823.657	20.18
824.044	20.08
824.43	19.95
824.816	19.79
825.202	19.61
825.588	19.42
825.974	19.25
826.36	19.05
826.746	18.88
827.132	18.7
827.517	18.51
827.903	18.38
828.289	18.25
828.674	18.07
829.06	17.96
829.445	17.85
829.83	17.73
830.216	17.62
830.601	17.55
830.986	17.44
831.371	17.35
831.756	17.26
832.141	17.19
832.526	17.09
832.911	17.07
833.295	17.01
833.68	16.94
834.065	16.88
834.449	16.78
834.834	16.71
835.218	16.63
835.603	16.55
835.987	16.49
836.371	16.41
836.755	16.33
837.139	16.25
837.524	16.19
837.908	16.09
838.291	16.03
838.675	15.96
839.059	15.88
839.443	15.79
839.827	15.71
840.21	15.63
840.594	15.55
840.977	15.46
841.361	15.36
841.744	15.28
842.127	15.22
842.511	15.13
842.894	15.06
843.277	14.98
843.66	14.9
844.043	14.83
844.426	14.75
844.809	14.67
845.191	14.59
845.574	14.49
845.957	14.34
846.339	14.22
846.722	14.11
847.104	14.02
847.487	13.92
847.869	13.83
848.252	13.74
848.634	13.65
849.016	13.58
849.398	13.47
849.78	13.35
850.162	13.24
850.544	13.11
850.926	12.97
851.307	12.86
851.689	12.75
852.071	12.67
852.452	12.59
852.834	12.5
853.215	12.45
853.597	12.43
853.978	12.44
854.359	12.48
854.741	12.52
855.122	12.55
855.503	12.57
855.884	12.57
856.265	12.55
856.646	12.51
857.026	12.5
857.407	12.43
857.788	12.38
858.169	12.32
858.549	12.27
858.93	12.22
859.31	12.17
859.69	12.11
860.071	12.07
860.451	12.01
860.831	11.96
861.211	11.87
861.591	11.79
861.971	11.67
862.351	11.57
862.731	11.44
863.111	11.33
863.491	11.23
863.87	11.14
864.25	11.04
864.629	10.94
865.009	10.88
865.388	10.82
865.768	10.79
866.147	10.8
866.526	10.81
866.905	10.83
867.284	10.83
867.663	10.83
868.042	10.82
868.421	10.81
868.8	10.81
869.179	10.78
869.558	10.77
869.936	10.75
870.315	10.71
870.693	10.7
871.072	10.65
871.45	10.61
871.828	10.58
872.207	10.55
872.585	10.51
872.963	10.46
873.341	10.44
873.719	10.43
874.097	10.39
874.475	10.37
874.853	10.34
875.23	10.32
875.608	10.3
875.986	10.26
876.363	10.24
876.741	10.22
877.118	10.18
877.495	10.14
877.873	10.09
878.25	10.06
878.627	10.03
879.004	9.98
879.381	9.95
879.758	9.91
880.135	9.89
880.512	9.85
880.889	9.82
881.265	9.8
881.642	9.79
882.019	9.76
882.395	9.74
882.772	9.69
883.148	9.65
883.524	9.62
883.901	9.6
884.277	9.56
884.653	9.54
885.029	9.52
885.405	9.5
885.781	9.46
886.157	9.43
886.532	9.42
886.908	9.41
887.284	9.42
887.659	9.39
888.035	9.37
888.411	9.35
888.786	9.32
889.161	9.27
889.537	9.24
889.912	9.19
890.287	9.16
890.662	9.11
891.037	9.05
891.412	8.99
891.787	8.94
892.162	8.88
892.536	8.81
892.911	8.74
893.286	8.68
893.66	8.62
894.035	8.55
894.409	8.47
894.784	8.38
895.158	8.31
895.532	8.22
895.906	8.14
896.281	8.06
896.655	7.99
897.029	7.92
897.402	7.85
897.776	7.78
898.15	7.73
898.524	7.7
898.898	7.68
899.271	7.65
899.645	7.68
900.018	7.67
900.392	7.7
900.765	7.72
901.138	7.74
901.511	7.77
901.884	7.81
902.258	7.84
902.631	7.87
903.003	7.87
903.376	7.86
903.749	7.85
904.122	7.84
904.495	7.79
904.867	7.76
905.24	7.71
905.612	7.66
905.985	7.61
906.357	7.54
906.729	7.49
907.102	7.47
907.474	7.46
907.846	7.41
908.218	7.38
908.59	7.36
908.962	7.37
909.334	7.35
909.705	7.34
910.077	7.33
910.449	7.34
910.82	7.33
911.192	7.33
911.563	7.29
911.935	7.25
912.306	7.23
912.677	7.24
913.048	7.21
913.419	7.2
913.79	7.18
914.161	7.14
914.532	7.11
914.903	7.09
915.274	7.06
915.645	7.08
916.015	7.12
916.386	7.13
916.756	7.09
917.127	7.1
917.497	7.13
917.868	7.15
918.238	7.17
918.608	7.19
918.978	7.2
919.348	7.21
919.718	7.19
920.088	7.16
920.458	7.17
920.828	7.17
921.198	7.17
921.567	7.13
921.937	7.12
922.306	7.13
922.676	7.08
923.045	7.06
923.415	7.05
923.784	7.05
924.153	7.04
924.522	7.03
924.891	6.99
925.26	6.95
925.629	6.93
925.998	6.89
926.367	6.85
926.736	6.83
927.104	6.77
927.473	6.71
927.842	6.63
928.21	6.56
928.578	6.44
928.947	6.36
929.315	6.26
929.683	6.15
930.051	6.06
930.42	5.94
930.788	5.82
931.156	5.74
931.523	5.63
931.891	5.52
932.259	5.43
932.627	5.36
932.994	5.31
933.362	5.23
933.729	5.18
934.097	5.13
934.464	5.12
934.831	5.13
935.199	5.11
935.566	5.17
935.933	5.24
936.3	5.28
936.667	5.35
937.034	5.44
937.401	5.55
937.767	5.69
938.134	5.76
938.501	5.84
938.867	5.94
939.234	6.06
939.6	6.12
939.967	6.18
940.333	6.26
940.699	6.31
941.065	6.3
941.431	6.29
941.798	6.29
942.163	6.37
942.529	6.35
942.895	6.31
943.261	6.26
943.627	6.22
943.992	6.22
944.358	6.13
944.723	6.08
945.089	6.01
945.454	6.08
945.82	6.04
946.185	5.98
946.55	5.97
946.915	5.96
947.28	5.92
947.645	5.91
948.01	5.84
948.375	5.88
948.74	5.89
949.104	5.94
949.469	5.88
949.834	5.85
950.198	5.86
950.562	5.88
950.927	5.84
951.291	5.9
951.655	5.82
952.02	5.79
952.384	5.78
952.748	5.75
953.112	5.74
953.476	5.66
953.839	5.67
954.203	5.63
954.567	5.6
954.931	5.61
955.294	5.58
955.658	5.58
956.021	5.58
956.385	5.6
956.748	5.6
957.111	5.59
957.474	5.66
957.837	5.64
958.2	5.66
958.563	5.69
958.926	5.67
959.289	5.68
959.652	5.71
960.015	5.74
960.377	5.72
960.74	5.73
961.102	5.7
961.465	5.67
961.827	5.66
962.189	5.64
962.552	5.62
962.914	5.64
963.276	5.62
963.638	5.58
964	5.57
964.362	5.58
964.724	5.58
965.085	5.62
965.447	5.67
965.809	5.69
966.17	5.72
966.532	5.74
966.893	5.75
967.255	5.81
967.616	5.83
967.977	5.87
968.338	5.88
968.699	5.93
969.061	5.91
969.421	5.9
969.782	5.94
970.143	5.93
970.504	5.93
970.865	5.94
971.225	5.93
971.586	6.01
971.946	6
972.307	5.98
972.667	5.96
973.027	6.06
973.388	6.01
973.748	5.93
974.108	5.98
974.468	5.97
974.828	6
975.188	5.96
975.548	5.91
975.907	5.95
976.267	5.98
976.627	5.99
976.986	5.89
977.346	5.94
977.705	6.02
978.064	6.01
978.424	6.04
978.783	6
979.142	6.04
979.501	6.09
979.86	6.08
980.219	5.96
980.578	5.94
980.937	5.95
981.296	5.96
981.654	6.02
982.013	6.04
982.371	6.03
982.73	6.07
983.088	6.09
983.447	6.08
983.805	6.09
984.163	6.15
984.521	6.18
984.879	6.31
985.237	6.3
985.595	6.27
985.953	6.31
986.311	6.29
986.669	6.28
987.026	6.27
987.384	6.21
987.741	6.27
988.099	6.35
988.456	6.38
988.814	6.3
989.171	6.36
989.528	6.36
989.885	6.22
990.242	6.28
990.599	6.28
990.956	6.36
991.313	6.39
991.67	6.35
992.027	6.51
992.383	6.48
992.74	6.45
993.096	6.41
993.453	6.47
993.809	6.51
994.165	6.55
994.522	6.58
994.878	6.52
995.234	6.52
995.59	6.36
995.946	6.19
996.302	6.13
996.658	6.19
997.013	6.21
997.369	6.13
997.725	6.22
998.08	6.07
998.436	6.07
998.791	6.02
999.147	6.04
999.502	6.17
999.857	6.1
1000.212	6.09
1000.567	6.19
1000.922	6.15
1001.277	6.17
1001.632	6.15
1001.987	6.24
1002.342	6.2
1002.696	6.22
1003.051	6.11
1003.406	6.11
1003.76	6.22
1004.114	6.34
1004.469	6.26
1004.823	6.31
1005.177	6.27
1005.531	6.21
1005.885	6.14
1006.239	6.08
1006.593	6.09
1006.947	6.21
1007.301	6.22
1007.655	6.27
1008.008	6.25
1008.362	6.1
1008.715	5.93
1009.069	5.79
1009.422	5.85
1009.776	5.93
1010.129	5.9
1010.482	5.92
1010.835	5.92
1011.188	5.88
1011.541	5.71
1011.894	5.65
1012.247	5.71
1012.6	5.82
1012.952	6.02
1013.305	5.93
1013.657	6.04
1014.01	6.4
1014.362	6.39
1014.715	6.3
1015.067	6.51
1015.419	6.43
1015.771	6.39
1016.123	6.3
1016.475	6.49
1016.827	6.53
1017.179	6.38
1017.531	6.22
1017.883	5.79
1018.234	5.93
1018.586	5.89
1018.938	5.65
1019.289	5.59
1019.64	5.78
1019.992	5.84
1020.343	5.57
1020.694	5.45
1021.045	5.44
1021.396	5.46
1021.747	5.9
1022.098	5.88
1022.449	6.19
1022.8	6.16
1023.151	6.47
1023.501	6.4
1023.852	6.3
1024.202	6.63
1024.553	6.63
1024.903	6.95
1025.253	7.11
1025.604	7.09
1025.954	6.78
1026.304	6.9
1026.654	7.06
1027.004	7.12
1027.354	7.03
1027.703	7.54
1028.053	7.26
1028.403	7.08
1028.753	6.87
1029.102	6.83
1029.452	6.64
1029.801	6.88
1030.15	6.67
1030.499	6.66
897.758	665.14
901.051	666.42
904.343	679.04
907.636	668.75
910.928	655.91
914.22	665.58
917.511	651.66
920.803	624.12
924.094	598.08
927.384	602.19
930.675	582.65
933.965	576.04
937.255	578.04
940.544	550.43
943.834	523.14
947.123	514.52
950.411	488.75
953.7	479.08
956.988	464.76
960.276	441.63
963.563	433.62
966.851	412.14
970.138	404.97
973.424	377.64
976.711	372.13
979.997	359.82
983.283	353.45
986.568	341.52
989.853	329.25
993.138	318.04
996.423	315.87
999.708	307.74
1002.992	307.85
1006.275	296.57
1009.559	295.72
1012.842	286.33
1016.125	278.42
1019.408	272.53
1022.69	269.81
1025.972	270.56
1029.254	261.96
1032.536	257.03
1035.817	248.86
1039.098	243.97
1042.379	241.97
1045.659	236.71
1048.939	235.06
1052.219	230.4
1055.498	226.78
1058.778	222.72
1062.057	217.85
1065.335	217.76
1068.614	213.51
1071.892	210.63
1075.17	207.05
1078.447	203.1
1081.724	202.6
1085.001	198.36
1088.278	199.2
1091.554	196.58
1094.83	195.48
1098.106	192.01
1101.382	191.34
1104.657	190.31
1107.932	189.4
1111.206	188.96
1114.481	187.01
1117.755	185.34
1121.029	184.84
1124.302	181.51
1127.575	179.07
1130.848	178.78
1134.121	176.47
1137.393	175.7
1140.665	174.25
1143.937	172.52
1147.208	170.15
1150.48	168.2
1153.75	167.44
1157.021	165.55
1160.291	165.55
1163.561	165.93
1166.831	163.61
1170.101	164
1173.37	162.36
1176.639	161.26
1179.907	160.96
1183.176	160.76
1186.444	161.62
1189.711	159.83
1192.979	161.78
1196.246	161.47
1199.513	160.56
1202.78	160.83
1206.046	160.35
1209.312	161.37
1212.578	162.59
1215.843	164.61
1219.108	166.17
1222.373	168.19
1225.638	171.44
1228.902	174.54
1232.166	180.37
1235.43	183.21
1238.693	188.48
1241.956	192.45
1245.219	197.42
1248.482	198.66
1251.744	197.98
1255.006	198.58
1258.268	194.18
1261.529	192.31
1264.79	187.09
1268.051	181.62
1271.312	180.22
1274.572	176.87
1277.832	172.73
1281.092	170.52
1284.351	167.2
1287.61	167.32
1290.869	165.93
1294.128	164.95
1297.386	163.91
1300.644	163.34
1303.902	163.76
1307.159	162.53
1310.416	162.83
1313.673	165.36
1316.93	166.24
1320.186	168.82
1323.442	170.61
1326.697	173.44
1329.953	175.98
1333.208	182.39
1336.463	189.69
1339.717	192.16
1342.972	202.29
1346.226	208.78
1349.479	210.27
1352.733	219.71
1355.986	223.69
1359.238	228.75
1362.491	232.42
1365.743	239.32
1368.995	239.98
1372.247	242.01
1375.498	241.52
1378.749	248.46
1382	247.13
1385.251	246.85
1388.501	245.26
1391.751	249.28
1395	247.46
1398.25	248.26
1401.499	248.73
1404.748	249.11
1407.996	241.64
1411.244	242.02
1414.492	237.91
1417.74	232.94
1420.987	226.38
1424.234	222.39
1427.481	214.03
1430.728	208.69
1433.974	201.49
1437.22	193.67
1440.465	187.49
1443.711	181.78
1446.956	176.61
1450.201	169.86
1453.445	161.53
1456.689	158.25
1459.933	153.18
1463.177	146.96
1466.42	143.23
1469.663	139.14
1472.906	135.64
1476.148	131.65
1479.391	128.83
1482.633	126.6
1485.874	124.59
1489.115	123.99
1492.356	120.69
1495.597	119.04
1498.838	118.31
1502.078	117.76
1505.318	117.32
1508.557	116.53
1511.797	115.13
1515.036	114.94
1518.274	114.41
1521.513	112.54
1524.751	111.94
1527.989	113.58
1531.227	112.91
1534.464	112.67
1537.701	112.14
1540.938	111.72
1544.174	111.31
1547.41	112.02
1550.646	111.57
1553.882	111.38
1557.117	111.24
1560.352	110.97
1563.587	109.35
1566.821	109.54
1570.055	108.9
1573.289	108.55
1576.523	108.38
1579.756	108.45
1582.989	108.27
1586.222	107.66
1589.454	107.51
1592.686	107.95
1595.918	107.42
1599.15	107.68
1602.381	107.71
1605.612	108.05
1608.843	107.77
1612.073	108.6
1615.303	108.39
1618.533	107.76
1621.762	108.52
1624.992	108.83
1628.221	108.33
1631.449	109.22
1634.678	108.65
1637.906	108.49
1641.134	108.54
1644.361	108.83
1647.588	108.9
1650.815	109.12
1654.042	108.88
1657.269	108.83
1660.495	109.2
1663.72	109.19
1666.946	108.77
1670.171	109.67
1673.396	110.65
1676.621	110.85
1679.845	110.94
1683.069	110.02
1686.293	109.91
1689.517	110.7
1692.74	110.57
1695.963	110.66
1699.185	111.28
1702.408	112.13
1705.63	112.16
1708.852	112.4
1712.073	112.15
1715.294	112.13
1718.515	113.21
1721.736	113.65
1724.956	113.71
1728.176	113.75
1731.396	114.31
1734.616	114.32
1737.835	114.1
1741.054	113.88
1744.272	113.37
1747.491	113.77
1750.709	114.07
1753.927	114.03
1757.144	114.53
1760.361	114.82
1763.578	115.07
1766.795	115.63
1770.011	115.61
1773.227	116.15
1776.443	117.15
1779.658	117.57
1782.874	118.25
1786.089	119.01
1789.303	119.23
1792.518	120.4
1795.732	120.69
1798.945	122.21
1802.159	121.9
1805.372	123.98
1808.585	124.72
1811.797	125.75
1815.01	126.67
1818.222	127.66
1821.434	128.65
1824.645	129.49
1827.856	130.49
1831.067	131.51
1834.278	132.7
1837.488	134.13
1840.698	134.62
1843.908	135.15
1847.117	136.09
1850.326	137.19
1853.535	138.11
1856.744	138.89
1859.952	140.63
1863.16	140.3
1866.368	140.2
1869.575	140.75
1872.782	140.1
1875.989	138.8
1879.196	138.24
1882.402	137.23
1885.608	137.9
1888.814	137.05
1892.019	137.96
1895.224	135.77
1898.429	136.23
1901.634	137.4
1904.838	136.8
1908.042	136.72
1911.246	137.78
1914.449	138.4
1917.652	138.34
1920.855	138.67
1924.058	137.05
1927.26	136.47
1930.462	137.11
1933.664	137.14
1936.865	136.99
1940.066	136.37
1943.267	135.71
1946.467	136
1949.668	136.11
1952.868	137.21
1956.067	136.37
1959.267	138.47
1962.466	138.88
1965.665	140.01
1968.863	140.82
1972.061	141.18
1975.259	143.74
1978.457	145.45
1981.654	147.36
1984.852	149.01
1988.048	149.83
1991.245	152.88
1994.441	154.82
1997.637	158.57
2000.833	162.62
2004.028	163.86
2007.223	169.41
2010.418	174.02
2013.613	180.75
2016.807	185.3
2020.001	188.91
2023.194	194.14
2026.388	201.01
2029.581	210.35
2032.774	215.98
2035.966	221.86
2039.158	229.23
2042.35	231.77
2045.542	234.97
2048.733	244.27
2051.924	246.74
2055.115	251.37
2058.306	254.65
2061.496	257.82
2064.686	259.97
2067.875	257.48
2071.065	259.53
2074.254	261.19
2077.442	270.42
2080.631	272.81
2083.819	274.25
2087.007	278.07
2090.195	281.38
2093.382	281.69
2096.569	282.18
2099.756	286.28
2102.942	293.67
2106.128	300.14
2109.314	301.6
2112.5	300.53
2115.685	297.81
2118.87	297.9
2122.055	300.63
2125.239	307.84
2128.424	315.32
2131.608	310.68
2134.791	310.45
2137.974	312.02
2141.157	314.94
2144.34	318.23
2147.523	321.97
2150.705	331.87
2153.887	326.95
2157.068	331.15
2160.25	333.46
2163.431	332.48
2166.611	341.54
2169.792	348.62
2172.972	354.14
2176.152	353.08
2179.331	360.43
2182.511	361.48
2185.69	365.78
2188.868	385.31
2192.047	390.73
2195.225	394.07
2198.403	398.34
2201.58	393.71
2204.758	406.38
2207.935	408.27
2211.111	415.36
2214.288	417.11
2217.464	422.67
2220.64	423.7
2223.815	422.55
2226.991	419.97
2230.166	423.96
2233.34	439.35
2236.515	449.66
2239.689	442.67
2242.863	450.11
2246.036	447.65
2249.209	458.05
2252.382	458.4
2255.555	474.37
2258.727	475.8
2261.9	487.63
2265.071	496.62
2268.243	491.5
2271.414	510.77
2274.585	519.17
2277.756	522.51
2280.926	540.12
2284.096	542.49
2287.266	543.83
2290.436	531.63
2293.605	544.85
2296.774	565.73
2299.942	562.7
2303.111	577.07
2306.279	585.58
2309.447	590.08
2312.614	590.99
2315.781	605.81
2318.948	613.25
2322.115	625.76
2325.281	662.55
2328.447	656.08
2331.613	658.03
2334.779	671.17
2337.944	681.54
2341.109	693.53
2344.274	701.64
2347.438	721.92
2350.602	731.09
2353.766	773.43
2356.929	778.53
2360.092	787.76
2363.255	792.15
2366.418	802.26
2369.58	817.38
2372.742	814.24
2375.904	807.72
2379.066	830.83
2382.227	877.4
2385.388	878.56
2388.548	826.85
2391.709	817.29
2394.869	845.58
2398.029	852.29
2401.188	850.14
2404.347	873.67
2407.506	905.86
2410.665	873.36
2413.823	877.79
2416.981	875.74
2420.139	829.7
2423.296	906.6
2426.453	962.22
2429.61	912.87
2432.767	970.95
2435.923	1011.36
2439.079	973
2442.235	1001.05
2445.391	1022.23
2448.546	1011.56
2451.701	1060.82
2454.855	1139.39
2458.009	1001.36
2461.163	1021.43
2464.317	1033.34
2467.471	1010.79
2470.624	1044.51
2473.777	1032.49
2476.929	996.1
2480.082	1073.59
2483.234	1124.41
2486.385	1139.11
2489.537	1164.71
2492.688	1289.2
2495.839	1270.97
2498.989	1304.25
2502.14	1315.23
2505.29	1245.45
2508.439	1394.46
2511.589	1424.7
2514.738	1370.43
2517.887	1362.19
2521.035	1279.07
2524.183	1265.6
2527.331	1252.36
2530.479	1219.4
2533.627	1252.02
