Data from N_1_hir_il_4n_021_Splice17_10.txt Node
Date: Sat Feb 29 13:42:03 EST 2020
User: sa697716
Spectrometer: FLMS03696
Trigger mode: 0
Integration Time (sec): 3.180400E-1
Scans to average: 20
Electric dark correction enabled: true
Nonlinearity correction enabled: true
Boxcar width: 5
XAxis mode: Wavelengths
Number of Pixels in Spectrum: 2048
>>>>>Begin Spectral Data<<<<<
187.83	109.4
188.298	106.31
188.766	109.82
189.233	120.13
189.701	127.54
190.169	134.94
190.636	145.54
191.104	161.26
191.571	578.68
192.039	529.13
192.506	-746.52
192.974	-5871.23
193.441	541.19
193.908	43.72
194.375	153.92
194.842	223.68
195.31	150
195.777	203.66
196.244	56.79
196.711	27.63
197.177	21.47
197.644	18.69
198.111	16.85
198.578	16.21
199.045	15.62
199.511	15.66
199.978	15.76
200.445	15.83
200.911	15.72
201.378	15.71
201.844	15.86
202.31	16.63
202.777	16.79
203.243	17.04
203.709	17.03
204.176	16.9
204.642	17.1
205.108	17.33
205.574	17.98
206.04	18.04
206.506	18
206.972	17.92
207.438	17.56
207.903	18.24
208.369	18.53
208.835	18.98
209.301	19.67
209.766	19.51
210.232	19.72
210.697	19.55
211.163	19.64
211.628	19.74
212.094	19.89
212.559	20.07
213.024	19.51
213.49	19.14
213.955	18.94
214.42	18.54
214.885	18.42
215.35	18.26
215.815	18.06
216.28	18.02
216.745	18.22
217.21	18.15
217.675	17.96
218.14	17.88
218.604	17.72
219.069	17.66
219.534	17.58
219.998	17.42
220.463	17.36
220.927	17.31
221.392	17.14
221.856	16.96
222.32	16.79
222.785	16.65
223.249	16.55
223.713	16.42
224.177	16.27
224.642	16.11
225.106	15.98
225.57	15.82
226.034	15.64
226.497	15.5
226.961	15.31
227.425	15.17
227.889	15.03
228.353	14.86
228.816	14.72
229.28	14.54
229.744	14.43
230.207	14.3
230.671	14.14
231.134	14.01
231.597	13.86
232.061	13.73
232.524	13.62
232.987	13.47
233.45	13.33
233.914	13.2
234.377	13.09
234.84	12.93
235.303	12.81
235.766	12.68
236.229	12.56
236.691	12.45
237.154	12.34
237.617	12.23
238.08	12.11
238.542	12.02
239.005	11.9
239.468	11.79
239.93	11.69
240.393	11.59
240.855	11.47
241.317	11.39
241.78	11.31
242.242	11.21
242.704	11.12
243.166	11.04
243.629	10.96
244.091	10.88
244.553	10.8
245.015	10.73
245.477	10.65
245.939	10.6
246.4	10.52
246.862	10.45
247.324	10.41
247.786	10.34
248.247	10.29
248.709	10.22
249.17	10.18
249.632	10.14
250.093	10.08
250.555	10.05
251.016	10.02
251.477	9.98
251.939	9.93
252.4	9.87
252.861	9.84
253.322	9.79
253.783	9.77
254.244	9.74
254.705	9.7
255.166	9.68
255.627	9.64
256.088	9.59
256.549	9.57
257.009	9.54
257.47	9.51
257.931	9.48
258.391	9.47
258.852	9.44
259.312	9.4
259.773	9.37
260.233	9.33
260.694	9.31
261.154	9.29
261.614	9.27
262.074	9.25
262.534	9.22
262.994	9.2
263.455	9.18
263.915	9.15
264.374	9.13
264.834	9.11
265.294	9.1
265.754	9.07
266.214	9.05
266.673	9.04
267.133	9.02
267.593	9.01
268.052	8.99
268.512	8.97
268.971	8.95
269.431	8.93
269.89	8.91
270.349	8.9
270.809	8.88
271.268	8.87
271.727	8.84
272.186	8.82
272.645	8.8
273.104	8.79
273.563	8.77
274.022	8.76
274.481	8.74
274.94	8.71
275.399	8.68
275.857	8.66
276.316	8.63
276.775	8.6
277.233	8.58
277.692	8.55
278.15	8.52
278.609	8.48
279.067	8.44
279.525	8.42
279.984	8.39
280.442	8.37
280.9	8.35
281.358	8.32
281.816	8.3
282.274	8.26
282.732	8.24
283.19	8.2
283.648	8.18
284.106	8.16
284.564	8.13
285.021	8.11
285.479	8.08
285.937	8.05
286.394	8.02
286.852	8
287.309	7.97
287.767	7.95
288.224	7.94
288.682	7.91
289.139	7.9
289.596	7.88
290.053	7.85
290.511	7.82
290.968	7.79
291.425	7.78
291.882	7.75
292.339	7.73
292.796	7.71
293.252	7.69
293.709	7.67
294.166	7.65
294.623	7.63
295.079	7.62
295.536	7.61
295.992	7.59
296.449	7.57
296.905	7.55
297.362	7.54
297.818	7.53
298.274	7.52
298.731	7.5
299.187	7.48
299.643	7.46
300.099	7.46
300.555	7.44
301.011	7.43
301.467	7.4
301.923	7.39
302.379	7.38
302.835	7.37
303.291	7.35
303.746	7.34
304.202	7.32
304.658	7.3
305.113	7.27
305.569	7.25
306.024	7.23
306.479	7.22
306.935	7.2
307.39	7.18
307.845	7.15
308.301	7.14
308.756	7.13
309.211	7.13
309.666	7.11
310.121	7.1
310.576	7.09
311.031	7.08
311.486	7.08
311.94	7.07
312.395	7.07
312.85	7.06
313.305	7.04
313.759	7.04
314.214	7.02
314.668	7.02
315.123	7.02
315.577	7
316.032	6.99
316.486	6.97
316.94	6.96
317.394	6.94
317.849	6.93
318.303	6.92
318.757	6.89
319.211	6.89
319.665	6.88
320.119	6.88
320.572	6.87
321.026	6.86
321.48	6.86
321.934	6.85
322.387	6.85
322.841	6.84
323.295	6.83
323.748	6.83
324.202	6.81
324.655	6.8
325.108	6.77
325.562	6.76
326.015	6.75
326.468	6.73
326.921	6.7
327.374	6.7
327.827	6.68
328.28	6.66
328.733	6.64
329.186	6.64
329.639	6.62
330.092	6.61
330.545	6.6
330.997	6.59
331.45	6.58
331.903	6.58
332.355	6.57
332.808	6.57
333.26	6.56
333.713	6.57
334.165	6.56
334.617	6.57
335.069	6.55
335.522	6.55
335.974	6.54
336.426	6.53
336.878	6.52
337.33	6.5
337.782	6.5
338.234	6.5
338.686	6.48
339.137	6.46
339.589	6.45
340.041	6.45
340.493	6.44
340.944	6.44
341.396	6.43
341.847	6.43
342.299	6.42
342.75	6.39
343.201	6.37
343.653	6.36
344.104	6.36
344.555	6.35
345.006	6.32
345.457	6.32
345.908	6.3
346.359	6.3
346.81	6.29
347.261	6.28
347.712	6.29
348.163	6.29
348.613	6.27
349.064	6.24
349.515	6.22
349.965	6.21
350.416	6.2
350.866	6.19
351.317	6.18
351.767	6.17
352.217	6.15
352.668	6.14
353.118	6.14
353.568	6.14
354.018	6.16
354.468	6.15
354.918	6.15
355.368	6.15
355.818	6.14
356.268	6.14
356.718	6.14
357.168	6.13
357.617	6.12
358.067	6.11
358.517	6.1
358.966	6.09
359.416	6.1
359.865	6.09
360.315	6.09
360.764	6.08
361.213	6.08
361.663	6.08
362.112	6.09
362.561	6.09
363.01	6.09
363.459	6.09
363.908	6.09
364.357	6.09
364.806	6.09
365.255	6.1
365.703	6.12
366.152	6.12
366.601	6.12
367.05	6.12
367.498	6.13
367.947	6.13
368.395	6.14
368.844	6.15
369.292	6.15
369.74	6.15
370.189	6.14
370.637	6.14
371.085	6.14
371.533	6.14
371.981	6.15
372.429	6.15
372.877	6.17
373.325	6.17
373.773	6.17
374.221	6.18
374.669	6.19
375.116	6.2
375.564	6.2
376.012	6.22
376.459	6.23
376.907	6.25
377.354	6.26
377.801	6.28
378.249	6.29
378.696	6.31
379.143	6.32
379.591	6.34
380.038	6.37
380.485	6.39
380.932	6.4
381.379	6.41
381.826	6.42
382.273	6.43
382.72	6.45
383.166	6.47
383.613	6.48
384.06	6.49
384.506	6.51
384.953	6.5
385.4	6.52
385.846	6.53
386.292	6.55
386.739	6.56
387.185	6.58
387.631	6.58
388.078	6.6
388.524	6.59
388.97	6.62
389.416	6.63
389.862	6.64
390.308	6.66
390.754	6.67
391.2	6.69
391.645	6.71
392.091	6.73
392.537	6.76
392.983	6.77
393.428	6.8
393.874	6.82
394.319	6.85
394.765	6.87
395.21	6.87
395.655	6.88
396.101	6.89
396.546	6.9
396.991	6.89
397.436	6.87
397.881	6.89
398.326	6.9
398.771	6.92
399.216	6.92
399.661	6.93
400.106	6.95
400.551	6.96
400.995	6.95
401.44	6.96
401.885	6.98
402.329	6.99
402.774	6.97
403.218	6.97
403.663	6.95
404.107	6.96
404.551	6.96
404.995	6.94
405.44	6.94
405.884	6.95
406.328	6.95
406.772	6.94
407.216	6.95
407.66	6.96
408.104	6.96
408.547	6.96
408.991	6.94
409.435	6.93
409.879	6.93
410.322	6.92
410.766	6.91
411.209	6.92
411.653	6.91
412.096	6.91
412.54	6.89
412.983	6.88
413.426	6.88
413.869	6.88
414.312	6.89
414.756	6.89
415.199	6.9
415.642	6.91
416.085	6.92
416.527	6.93
416.97	6.93
417.413	6.94
417.856	6.94
418.298	6.93
418.741	6.94
419.184	6.93
419.626	6.92
420.069	6.92
420.511	6.91
420.953	6.88
421.396	6.88
421.838	6.89
422.28	6.9
422.722	6.92
423.164	6.91
423.606	6.92
424.048	6.91
424.49	6.92
424.932	6.91
425.374	6.91
425.816	6.9
426.258	6.88
426.699	6.84
427.141	6.8
427.582	6.76
428.024	6.75
428.465	6.73
428.907	6.73
429.348	6.7
429.789	6.7
430.231	6.66
430.672	6.66
431.113	6.66
431.554	6.65
431.995	6.65
432.436	6.66
432.877	6.63
433.318	6.61
433.759	6.61
434.2	6.61
434.64	6.59
435.081	6.58
435.522	6.58
435.962	6.57
436.403	6.57
436.843	6.57
437.284	6.58
437.724	6.6
438.164	6.6
438.604	6.61
439.045	6.62
439.485	6.6
439.925	6.6
440.365	6.58
440.805	6.55
441.245	6.51
441.685	6.52
442.125	6.5
442.564	6.47
443.004	6.46
443.444	6.43
443.883	6.41
444.323	6.41
444.762	6.42
445.202	6.45
445.641	6.46
446.081	6.5
446.52	6.48
446.959	6.48
447.398	6.51
447.837	6.54
448.276	6.54
448.716	6.55
449.154	6.57
449.593	6.57
450.032	6.56
450.471	6.56
450.91	6.55
451.349	6.55
451.787	6.54
452.226	6.53
452.664	6.5
453.103	6.47
453.541	6.45
453.98	6.43
454.418	6.42
454.856	6.4
455.295	6.37
455.733	6.35
456.171	6.34
456.609	6.34
457.047	6.33
457.485	6.34
457.923	6.34
458.361	6.34
458.798	6.35
459.236	6.34
459.674	6.33
460.111	6.34
460.549	6.34
460.987	6.35
461.424	6.36
461.862	6.35
462.299	6.34
462.736	6.33
463.173	6.32
463.611	6.3
464.048	6.31
464.485	6.31
464.922	6.3
465.359	6.3
465.796	6.28
466.233	6.27
466.67	6.28
467.106	6.26
467.543	6.26
467.98	6.28
468.416	6.29
468.853	6.27
469.29	6.26
469.726	6.27
470.162	6.25
470.599	6.25
471.035	6.24
471.471	6.22
471.907	6.22
472.344	6.23
472.78	6.22
473.216	6.21
473.652	6.21
474.088	6.22
474.523	6.22
474.959	6.23
475.395	6.22
475.831	6.23
476.266	6.24
476.702	6.24
477.138	6.22
477.573	6.21
478.008	6.21
478.444	6.23
478.879	6.22
479.314	6.21
479.75	6.21
480.185	6.2
480.62	6.2
481.055	6.2
481.49	6.19
481.925	6.18
482.36	6.16
482.795	6.14
483.229	6.13
483.664	6.14
484.099	6.14
484.534	6.14
484.968	6.15
485.403	6.13
485.837	6.13
486.271	6.13
486.706	6.13
487.14	6.15
487.574	6.15
488.009	6.16
488.443	6.16
488.877	6.16
489.311	6.16
489.745	6.17
490.179	6.17
490.613	6.18
491.046	6.2
491.48	6.22
491.914	6.23
492.348	6.24
492.781	6.26
493.215	6.26
493.648	6.28
494.082	6.31
494.515	6.33
494.948	6.35
495.382	6.36
495.815	6.38
496.248	6.41
496.681	6.43
497.114	6.45
497.547	6.46
497.98	6.51
498.413	6.53
498.846	6.56
499.279	6.59
499.711	6.62
500.144	6.65
500.577	6.69
501.009	6.72
501.442	6.76
501.874	6.82
502.306	6.86
502.739	6.9
503.171	6.95
503.603	7.01
504.036	7.06
504.468	7.12
504.9	7.2
505.332	7.26
505.764	7.34
506.196	7.41
506.627	7.47
507.059	7.56
507.491	7.64
507.923	7.73
508.354	7.8
508.786	7.9
509.217	7.99
509.649	8.09
510.08	8.2
510.512	8.29
510.943	8.4
511.374	8.51
511.805	8.62
512.237	8.73
512.668	8.84
513.099	8.97
513.53	9.11
513.961	9.24
514.391	9.37
514.822	9.5
515.253	9.64
515.684	9.78
516.114	9.93
516.545	10.07
516.975	10.24
517.406	10.38
517.836	10.53
518.267	10.67
518.697	10.83
519.127	10.99
519.558	11.15
519.988	11.32
520.418	11.47
520.848	11.62
521.278	11.77
521.708	11.78
522.138	11.93
522.567	12.06
522.997	12.19
523.427	12.33
523.857	12.46
524.286	12.58
524.716	12.71
525.145	12.83
525.575	12.96
526.004	13.09
526.433	13.35
526.863	13.47
527.292	13.6
527.721	13.72
528.15	13.82
528.579	13.91
529.008	14.01
529.437	14.1
529.866	14.17
530.295	14.24
530.724	14.32
531.152	14.4
531.581	14.47
532.01	14.53
532.438	14.59
532.867	14.65
533.295	14.73
533.723	14.79
534.152	14.85
534.58	14.9
535.008	14.94
535.436	14.98
535.865	15.02
536.293	15.08
536.721	15.13
537.149	15.17
537.576	15.2
538.004	15.22
538.432	15.25
538.86	15.27
539.287	15.31
539.715	15.34
540.143	15.37
540.57	15.39
540.998	15.4
541.425	15.4
541.852	15.42
542.28	15.42
542.707	15.46
543.134	15.47
543.561	15.47
543.988	15.48
544.415	15.49
544.842	15.5
545.269	15.51
545.696	15.51
546.123	15.52
546.549	15.54
546.976	15.56
547.403	15.56
547.829	15.56
548.256	15.58
548.682	15.57
549.108	15.58
549.535	15.6
549.961	15.59
550.387	15.59
550.813	15.59
551.24	15.6
551.666	15.59
552.092	15.57
552.518	15.56
552.943	15.57
553.369	15.57
553.795	15.54
554.221	15.51
554.646	15.49
555.072	15.46
555.498	15.44
555.923	15.41
556.349	15.36
556.774	15.34
557.199	15.29
557.625	15.24
558.05	15.18
558.475	15.12
558.9	15.07
559.325	15.01
559.75	14.94
560.175	14.89
560.6	14.82
561.025	14.75
561.449	14.66
561.874	14.6
562.299	14.53
562.723	14.46
563.148	14.4
563.572	14.33
563.997	14.26
564.421	14.19
564.846	14.08
565.27	14
565.694	13.92
566.118	13.83
566.542	13.74
566.966	13.63
567.39	13.52
567.814	13.43
568.238	13.31
568.662	13.22
569.086	13.12
569.509	13.03
569.933	12.93
570.357	12.83
570.78	12.74
571.204	12.64
571.627	12.55
572.05	12.47
572.474	12.37
572.897	12.28
573.32	12.19
573.743	12.1
574.166	12.02
574.589	11.94
575.012	11.87
575.435	11.8
575.858	11.75
576.281	11.69
576.704	11.62
577.126	11.56
577.549	11.51
577.972	11.46
578.394	11.41
578.817	11.35
579.239	11.28
579.661	11.23
580.084	11.17
580.506	11.12
580.928	11.06
581.35	11.02
581.772	10.97
582.194	10.93
582.616	10.88
583.038	10.85
583.46	10.81
583.882	10.79
584.303	10.74
584.725	10.71
585.147	10.66
585.568	10.61
585.99	10.57
586.411	10.52
586.833	10.49
587.254	10.45
587.675	10.41
588.096	10.36
588.518	10.32
588.939	10.29
589.36	10.25
589.781	10.22
590.202	10.21
590.623	10.17
591.043	10.15
591.464	10.13
591.885	10.11
592.305	10.09
592.726	10.07
593.147	10.06
593.567	10.04
593.987	10.04
594.408	10.01
594.828	10
595.248	9.99
595.669	9.97
596.089	9.96
596.509	9.93
596.929	9.9
597.349	9.87
597.769	9.84
598.189	9.84
598.608	9.81
599.028	9.79
599.448	9.77
599.867	9.73
600.287	9.71
600.706	9.68
601.126	9.68
601.545	9.66
601.965	9.64
602.384	9.63
602.803	9.58
603.222	9.56
603.641	9.52
604.061	9.49
604.48	9.47
604.898	9.43
605.317	9.39
605.736	9.35
606.155	9.31
606.574	9.27
606.992	9.23
607.411	9.2
607.829	9.11
608.248	9.09
608.666	9.06
609.085	9.02
609.503	8.98
609.921	8.94
610.339	8.91
610.758	8.88
611.176	8.83
611.594	8.8
612.012	8.77
612.43	8.78
612.847	8.74
613.265	8.69
613.683	8.64
614.101	8.6
614.518	8.56
614.936	8.52
615.353	8.48
615.771	8.45
616.188	8.42
616.606	8.39
617.023	8.35
617.44	8.31
617.857	8.29
618.274	8.26
618.691	8.24
619.108	8.22
619.525	8.2
619.942	8.18
620.359	8.17
620.776	8.16
621.192	8.13
621.609	8.11
622.026	8.11
622.442	8.09
622.859	8.08
623.275	8.06
623.691	8.06
624.108	8.05
624.524	8.03
624.94	8.02
625.356	7.99
625.772	8
626.188	8.01
626.604	7.99
627.02	8
627.436	8.01
627.852	8
628.268	7.99
628.683	7.99
629.099	7.99
629.514	7.98
629.93	7.97
630.345	7.95
630.761	7.92
631.176	7.91
631.591	7.89
632.007	7.86
632.422	7.85
632.837	7.83
633.252	7.81
633.667	7.77
634.082	7.76
634.497	7.72
634.911	7.69
635.326	7.65
635.741	7.61
636.155	7.57
636.57	7.54
636.984	7.5
637.399	7.44
637.813	7.38
638.228	7.34
638.642	7.31
639.056	7.26
639.47	7.21
639.884	7.17
640.298	7.12
640.712	7.06
641.126	7.02
641.54	6.97
641.954	6.95
642.368	6.92
642.781	6.87
643.195	6.81
643.609	6.78
644.022	6.74
644.436	6.7
644.849	6.66
645.262	6.65
645.676	6.6
646.089	6.57
646.502	6.53
646.915	6.49
647.328	6.47
647.741	6.45
648.154	6.43
648.567	6.41
648.98	6.4
649.393	6.39
649.805	6.37
650.218	6.36
650.631	6.35
651.043	6.34
651.456	6.33
651.868	6.33
652.28	6.32
652.693	6.3
653.105	6.29
653.517	6.26
653.929	6.25
654.341	6.22
654.753	6.2
655.165	6.19
655.577	6.16
655.989	6.14
656.401	6.11
656.813	6.08
657.224	6.05
657.636	6.03
658.047	6.01
658.459	5.99
658.87	5.97
659.282	5.96
659.693	5.93
660.104	5.9
660.515	5.87
660.926	5.85
661.338	5.83
661.749	5.81
662.159	5.79
662.57	5.76
662.981	5.74
663.392	5.72
663.803	5.69
664.213	5.68
664.624	5.67
665.035	5.65
665.445	5.64
665.855	5.65
666.266	5.64
666.676	5.63
667.086	5.63
667.497	5.61
667.907	5.6
668.317	5.58
668.727	5.58
669.137	5.58
669.547	5.58
669.956	5.58
670.366	5.57
670.776	5.57
671.186	5.59
671.595	5.6
672.005	5.62
672.414	5.62
672.824	5.64
673.233	5.66
673.642	5.67
674.052	5.68
674.461	5.69
674.87	5.71
675.279	5.72
675.688	5.72
676.097	5.73
676.506	5.73
676.915	5.75
677.323	5.78
677.732	5.8
678.141	5.83
678.549	5.84
678.958	5.86
679.366	5.88
679.775	5.91
680.183	5.95
680.592	5.98
681	6.01
681.408	6.05
681.816	6.07
682.224	6.1
682.632	6.15
683.04	6.19
683.448	6.25
683.856	6.3
684.264	6.37
684.671	6.42
685.079	6.48
685.487	6.57
685.894	6.64
686.302	6.73
686.709	6.8
687.116	6.9
687.524	7.03
687.931	7.14
688.338	7.26
688.745	7.4
689.152	7.56
689.559	7.71
689.966	7.88
690.373	8.08
690.78	8.28
691.187	8.5
691.593	8.73
692	8.96
692.407	9.22
692.813	9.5
693.22	9.76
693.626	10.05
694.032	10.38
694.439	10.7
694.845	11.02
695.251	11.32
695.657	11.66
696.063	11.99
696.469	12.33
696.875	12.65
697.281	12.98
697.687	13.34
698.093	13.69
698.498	14.04
698.904	14.38
699.31	14.73
699.715	15.11
700.12	15.47
700.526	15.84
700.931	16.19
701.337	16.58
701.742	16.93
702.147	17.28
702.552	17.63
702.957	17.96
703.362	18.31
703.767	18.65
704.172	18.99
704.577	19.31
704.981	19.64
705.386	19.97
705.791	20.3
706.195	20.65
706.6	20.97
707.004	21.3
707.408	21.64
707.813	21.94
708.217	22.27
708.621	22.6
709.025	22.92
709.43	23.22
709.834	23.57
710.237	23.84
710.641	24.13
711.045	24.43
711.449	24.72
711.853	25.02
712.256	25.31
712.66	25.58
713.064	25.83
713.467	26.11
713.87	26.42
714.274	26.67
714.677	26.97
715.08	27.24
715.484	27.53
715.887	27.79
716.29	28.01
716.693	28.27
717.096	28.54
717.499	28.82
717.901	29.06
718.304	29.29
718.707	29.54
719.109	29.77
719.512	29.99
719.915	30.2
720.317	30.44
720.719	30.68
721.122	30.92
721.524	31.16
721.926	31.34
722.328	31.54
722.731	31.75
723.133	31.94
723.535	32.13
723.937	32.32
724.338	32.5
724.74	32.67
725.142	32.82
725.544	32.95
725.945	33.1
726.347	33.28
726.748	33.42
727.15	33.56
727.551	33.71
727.952	33.83
728.354	33.98
728.755	34.13
729.156	34.27
729.557	34.43
729.958	34.58
730.359	34.71
730.76	34.8
731.161	34.91
731.562	35.03
731.962	35.13
732.363	35.25
732.763	35.35
733.164	35.45
733.564	35.55
733.965	35.62
734.365	35.71
734.766	35.77
735.166	35.87
735.566	35.94
735.966	35.98
736.366	36.04
736.766	36.09
737.166	36.12
737.566	36.18
737.966	36.22
738.365	36.25
738.765	36.29
739.165	36.32
739.564	36.34
739.964	36.4
740.363	36.47
740.763	36.5
741.162	36.52
741.561	36.6
741.96	36.63
742.36	36.67
742.759	36.71
743.158	36.72
743.557	36.77
743.955	36.86
744.354	36.89
744.753	36.94
745.152	36.97
745.55	37.03
745.949	37.02
746.348	37.07
746.746	37.11
747.144	37.15
747.543	37.19
747.941	37.24
748.339	37.26
748.737	37.28
749.136	37.28
749.534	37.32
749.932	37.31
750.33	37.31
750.727	37.31
751.125	37.3
751.523	37.31
751.921	37.34
752.318	37.32
752.716	37.29
753.113	37.29
753.511	37.29
753.908	37.28
754.305	37.29
754.703	37.32
755.1	37.33
755.497	37.33
755.894	37.35
756.291	37.31
756.688	37.32
757.085	37.3
757.482	37.3
757.878	37.31
758.275	37.32
758.672	37.35
759.068	37.34
759.465	37.33
759.861	37.33
760.258	37.28
760.654	37.31
761.05	37.31
761.447	37.32
761.843	37.3
762.239	37.28
762.635	37.25
763.031	37.25
763.427	37.25
763.822	37.24
764.218	37.26
764.614	37.29
765.01	37.28
765.405	37.29
765.801	37.29
766.196	37.28
766.592	37.31
766.987	37.34
767.382	37.35
767.778	37.36
768.173	37.36
768.568	37.33
768.963	37.33
769.358	37.31
769.753	37.31
770.148	37.33
770.542	37.33
770.937	37.31
771.332	37.31
771.726	37.29
772.121	37.26
772.515	37.28
772.91	37.28
773.304	37.3
773.699	37.33
774.093	37.32
774.487	37.31
774.881	37.33
775.275	37.33
775.669	37.32
776.063	37.31
776.457	37.31
776.851	37.27
777.245	37.28
777.638	37.26
778.032	37.22
778.425	37.21
778.819	37.22
779.212	37.2
779.606	37.21
779.999	37.23
780.392	37.25
780.786	37.23
781.179	37.27
781.572	37.27
781.965	37.26
782.358	37.26
782.751	37.27
783.143	37.26
783.536	37.25
783.929	37.26
784.322	37.25
784.714	37.24
785.107	37.24
785.499	37.23
785.891	37.21
786.284	37.21
786.676	37.23
787.068	37.24
787.46	37.21
787.852	37.22
788.245	37.19
788.636	37.17
789.028	37.15
789.42	37.16
789.812	37.18
790.204	37.16
790.595	37.16
790.987	37.15
791.378	37.16
791.77	37.21
792.161	37.23
792.553	37.24
792.944	37.26
793.335	37.28
793.726	37.27
794.117	37.23
794.508	37.25
794.899	37.24
795.29	37.23
795.681	37.19
796.072	37.16
796.463	37.15
796.853	37.12
797.244	37.08
797.634	37.03
798.025	37.03
798.415	37.04
798.806	37.05
799.196	37.05
799.586	37.06
799.976	37.08
800.366	37.07
800.756	37.06
801.146	37.07
801.536	37.06
801.926	37.1
802.316	37.11
802.706	37.12
803.095	37.11
803.485	37.11
803.874	37.09
804.264	37.08
804.653	37.05
805.043	37.06
805.432	37.04
805.821	37.04
806.21	37.05
806.599	37.05
806.988	37.04
807.377	37.04
807.766	37.03
808.155	37.05
808.544	37.02
808.933	37.07
809.321	37.09
809.71	37.11
810.098	37.12
810.487	37.12
810.875	37.09
811.264	37.11
811.652	37.12
812.04	37.14
812.428	37.1
812.816	37.15
813.204	37.13
813.592	37.09
813.98	37.1
814.368	37.11
814.756	37.09
815.144	37.11
815.531	37.09
815.919	37.05
816.306	37.01
816.694	37.02
817.081	37.01
817.469	36.98
817.856	37.02
818.243	36.98
818.63	37
819.017	37
819.404	36.97
819.791	36.99
820.178	37.01
820.565	37.05
820.952	37.05
821.339	37.04
821.725	37.06
822.112	37.03
822.498	37.05
822.885	37.03
823.271	37.03
823.657	37.03
824.044	37.01
824.43	37.02
824.816	36.99
825.202	36.96
825.588	36.96
825.974	36.94
826.36	36.93
826.746	36.94
827.132	36.92
827.517	36.91
827.903	36.92
828.289	36.91
828.674	36.9
829.06	36.92
829.445	36.96
829.83	36.95
830.216	36.97
830.601	36.96
830.986	36.97
831.371	37.01
831.756	37.01
832.141	37.01
832.526	37.03
832.911	37.05
833.295	37.04
833.68	37.01
834.065	37.03
834.449	37.01
834.834	37.01
835.218	37.01
835.603	37.01
835.987	37.01
836.371	37
836.755	36.99
837.139	36.98
837.524	36.96
837.908	36.96
838.291	36.94
838.675	36.93
839.059	36.94
839.443	36.93
839.827	36.92
840.21	36.93
840.594	36.94
840.977	36.93
841.361	36.92
841.744	36.94
842.127	36.94
842.511	36.93
842.894	36.9
843.277	36.89
843.66	36.88
844.043	36.88
844.426	36.86
844.809	36.85
845.191	36.84
845.574	36.84
845.957	36.82
846.339	36.82
846.722	36.83
847.104	36.84
847.487	36.87
847.869	36.87
848.252	36.85
848.634	36.87
849.016	36.87
849.398	36.87
849.78	36.87
850.162	36.87
850.544	36.87
850.926	36.84
851.307	36.87
851.689	36.81
852.071	36.79
852.452	36.79
852.834	36.76
853.215	36.76
853.597	36.76
853.978	36.73
854.359	36.74
854.741	36.74
855.122	36.76
855.503	36.75
855.884	36.74
856.265	36.75
856.646	36.75
857.026	36.76
857.407	36.71
857.788	36.71
858.169	36.71
858.549	36.71
858.93	36.71
859.31	36.69
859.69	36.68
860.071	36.72
860.451	36.71
860.831	36.68
861.211	36.68
861.591	36.73
861.971	36.73
862.351	36.74
862.731	36.7
863.111	36.69
863.491	36.71
863.87	36.7
864.25	36.7
864.629	36.69
865.009	36.71
865.388	36.72
865.768	36.68
866.147	36.69
866.526	36.69
866.905	36.71
867.284	36.71
867.663	36.71
868.042	36.7
868.421	36.69
868.8	36.68
869.179	36.7
869.558	36.69
869.936	36.71
870.315	36.69
870.693	36.71
871.072	36.69
871.45	36.68
871.828	36.7
872.207	36.7
872.585	36.72
872.963	36.72
873.341	36.7
873.719	36.7
874.097	36.71
874.475	36.72
874.853	36.71
875.23	36.73
875.608	36.73
875.986	36.71
876.363	36.74
876.741	36.73
877.118	36.71
877.495	36.7
877.873	36.71
878.25	36.69
878.627	36.69
879.004	36.69
879.381	36.7
879.758	36.68
880.135	36.68
880.512	36.65
880.889	36.65
881.265	36.7
881.642	36.71
882.019	36.68
882.395	36.68
882.772	36.68
883.148	36.67
883.524	36.68
883.901	36.69
884.277	36.7
884.653	36.72
885.029	36.72
885.405	36.69
885.781	36.7
886.157	36.72
886.532	36.74
886.908	36.74
887.284	36.78
887.659	36.78
888.035	36.8
888.411	36.79
888.786	36.77
889.161	36.77
889.537	36.79
889.912	36.75
890.287	36.75
890.662	36.73
891.037	36.72
891.412	36.69
891.787	36.67
892.162	36.63
892.536	36.61
892.911	36.6
893.286	36.57
893.66	36.54
894.035	36.55
894.409	36.54
894.784	36.54
895.158	36.52
895.532	36.51
895.906	36.49
896.281	36.48
896.655	36.49
897.029	36.47
897.402	36.49
897.776	36.49
898.15	36.48
898.524	36.46
898.898	36.45
899.271	36.48
899.645	36.49
900.018	36.5
900.392	36.53
900.765	36.55
901.138	36.58
901.511	36.58
901.884	36.62
902.258	36.62
902.631	36.65
903.003	36.66
903.376	36.64
903.749	36.63
904.122	36.64
904.495	36.62
904.867	36.59
905.24	36.56
905.612	36.56
905.985	36.52
906.357	36.48
906.729	36.46
907.102	36.46
907.474	36.48
907.846	36.47
908.218	36.46
908.59	36.47
908.962	36.51
909.334	36.52
909.705	36.54
910.077	36.54
910.449	36.58
910.82	36.58
911.192	36.58
911.563	36.52
911.935	36.53
912.306	36.51
912.677	36.48
913.048	36.44
913.419	36.45
913.79	36.42
914.161	36.42
914.532	36.42
914.903	36.44
915.274	36.42
915.645	36.46
916.015	36.46
916.386	36.49
916.756	36.49
917.127	36.49
917.497	36.5
917.868	36.5
918.238	36.53
918.608	36.51
918.978	36.5
919.348	36.51
919.718	36.49
920.088	36.49
920.458	36.51
920.828	36.52
921.198	36.51
921.567	36.46
921.937	36.48
922.306	36.44
922.676	36.42
923.045	36.4
923.415	36.41
923.784	36.46
924.153	36.48
924.522	36.46
924.891	36.44
925.26	36.44
925.629	36.47
925.998	36.45
926.367	36.44
926.736	36.44
927.104	36.44
927.473	36.45
927.842	36.4
928.21	36.41
928.578	36.39
928.947	36.39
929.315	36.41
929.683	36.4
930.051	36.39
930.42	36.44
930.788	36.45
931.156	36.41
931.523	36.36
931.891	36.32
932.259	36.25
932.627	36.21
932.994	36.2
933.362	36.12
933.729	36.07
934.097	36.07
934.464	36.03
934.831	36.02
935.199	36.01
935.566	36.02
935.933	36.06
936.3	36.08
936.667	36.08
937.034	36.05
937.401	36.04
937.767	36.05
938.134	35.97
938.501	35.9
938.867	35.88
939.234	35.96
939.6	35.88
939.967	35.82
940.333	35.82
940.699	35.81
941.065	35.81
941.431	35.84
941.798	35.87
942.163	35.96
942.529	35.97
942.895	35.98
943.261	35.91
943.627	35.99
943.992	35.98
944.358	35.95
944.723	35.98
945.089	36.02
945.454	36.15
945.82	36.06
946.185	36.07
946.55	36.16
946.915	36.17
947.28	36.2
947.645	36.18
948.01	36.19
948.375	36.29
948.74	36.32
949.104	36.3
949.469	36.15
949.834	36.16
950.198	36.12
950.562	36.05
950.927	35.99
951.291	35.94
951.655	35.88
952.02	35.88
952.384	35.93
952.748	35.87
953.112	35.9
953.476	35.91
953.839	35.98
954.203	36
954.567	36.03
954.931	36.07
955.294	36.13
955.658	36.15
956.021	36.12
956.385	36.02
956.748	36.04
957.111	35.97
957.474	36.07
957.837	36.07
958.2	36.02
958.563	36
958.926	35.96
959.289	35.91
959.652	35.94
960.015	35.95
960.377	36
960.74	36.03
961.102	36.11
961.465	36.02
961.827	35.94
962.189	35.97
962.552	35.94
962.914	35.93
963.276	35.94
963.638	35.89
964	35.9
964.362	35.88
964.724	35.87
965.085	35.87
965.447	35.9
965.809	35.9
966.17	35.93
966.532	35.93
966.893	35.95
967.255	35.97
967.616	35.94
967.977	35.93
968.338	35.87
968.699	35.75
969.061	35.65
969.421	35.66
969.782	35.69
970.143	35.64
970.504	35.66
970.865	35.6
971.225	35.5
971.586	35.58
971.946	35.63
972.307	35.65
972.667	35.76
973.027	35.86
973.388	35.76
973.748	35.76
974.108	35.76
974.468	35.8
974.828	35.87
975.188	35.92
975.548	35.97
975.907	35.93
976.267	35.96
976.627	35.94
976.986	35.92
977.346	36.02
977.705	36.06
978.064	36.07
978.424	36
978.783	35.98
979.142	35.96
979.501	35.87
979.86	35.84
980.219	35.79
980.578	35.78
980.937	35.76
981.296	35.72
981.654	35.73
982.013	35.8
982.371	35.76
982.73	35.73
983.088	35.77
983.447	35.8
983.805	35.78
984.163	35.85
984.521	35.85
984.879	35.84
985.237	35.88
985.595	35.91
985.953	35.87
986.311	35.93
986.669	35.97
987.026	35.99
987.384	35.97
987.741	36.03
988.099	35.98
988.456	36
988.814	36.04
989.171	36.03
989.528	35.91
989.885	35.81
990.242	35.78
990.599	35.78
990.956	35.69
991.313	35.61
991.67	35.59
992.027	35.64
992.383	35.74
992.74	35.63
993.096	35.57
993.453	35.56
993.809	35.67
994.165	35.74
994.522	35.81
994.878	35.77
995.234	35.89
995.59	35.74
995.946	35.72
996.302	35.58
996.658	35.57
997.013	35.6
997.369	35.67
997.725	35.64
998.08	35.57
998.436	35.59
998.791	35.75
999.147	35.64
999.502	35.75
999.857	35.6
1000.212	35.54
1000.567	35.69
1000.922	35.69
1001.277	35.61
1001.632	35.73
1001.987	35.63
1002.342	35.4
1002.696	35.21
1003.051	35.1
1003.406	35.13
1003.76	35.14
1004.114	35.26
1004.469	35.01
1004.823	35.04
1005.177	35.15
1005.531	34.87
1005.885	35
1006.239	35.22
1006.593	35.29
1006.947	35.43
1007.301	35.44
1007.655	35.65
1008.008	35.64
1008.362	35.71
1008.715	35.67
1009.069	35.39
1009.422	35.46
1009.776	35.49
1010.129	35.2
1010.482	35.35
1010.835	35.44
1011.188	35.2
1011.541	34.9
1011.894	34.82
1012.247	34.73
1012.6	34.68
1012.952	34.68
1013.305	34.54
1013.657	34.41
1014.01	34.69
1014.362	34.63
1014.715	34.45
1015.067	34.68
1015.419	34.75
1015.771	34.66
1016.123	34.84
1016.475	35.06
1016.827	35.24
1017.179	35.56
1017.531	35.72
1017.883	35.5
1018.234	35.38
1018.586	35.29
1018.938	35.07
1019.289	35.01
1019.64	35.31
1019.992	35.39
1020.343	35.22
1020.694	34.93
1021.045	34.55
1021.396	34.22
1021.747	34.13
1022.098	34.11
1022.449	34.2
1022.8	34.14
1023.151	34.33
1023.501	33.88
1023.852	33.72
1024.202	33.73
1024.553	33.83
1024.903	33.82
1025.253	33.77
1025.604	33.89
1025.954	33.66
1026.304	34.02
1026.654	34
1027.004	34.06
1027.354	33.95
1027.703	33.83
1028.053	33.05
1028.403	32.78
1028.753	32.89
1029.102	33.3
1029.452	33.57
1029.801	34.08
1030.15	33.81
1030.499	34.01
897.758	517.06
901.051	522.09
904.343	530.17
907.636	523.05
910.928	513.33
914.22	520.31
917.511	507.83
920.803	491.61
924.094	472.98
927.384	477.5
930.675	460.72
933.965	455.36
937.255	456.88
940.544	433.89
943.834	416.47
947.123	410.87
950.411	390.09
953.7	382.08
956.988	366.85
960.276	350.55
963.563	346.67
966.851	328.8
970.138	323.19
973.424	300
976.711	295.32
979.997	284.08
983.283	276.72
986.568	268.02
989.853	260.91
993.138	251.51
996.423	247.36
999.708	238.73
1002.992	239.2
1006.275	233.07
1009.559	232.12
1012.842	225.58
1016.125	217.12
1019.408	212.95
1022.69	211.78
1025.972	210.35
1029.254	203.75
1032.536	200.39
1035.817	193.4
1039.098	190.56
1042.379	185.81
1045.659	182.91
1048.939	181.44
1052.219	179.84
1055.498	176.83
1058.778	172.76
1062.057	169.28
1065.335	169.26
1068.614	166.29
1071.892	164.16
1075.17	160.69
1078.447	158.73
1081.724	156.72
1085.001	153.89
1088.278	152.49
1091.554	151.99
1094.83	150.27
1098.106	148
1101.382	146.95
1104.657	145.72
1107.932	146.13
1111.206	144.99
1114.481	143.62
1117.755	142.38
1121.029	141.72
1124.302	139.41
1127.575	137.61
1130.848	137.44
1134.121	135.14
1137.393	135.02
1140.665	133.54
1143.937	131.63
1147.208	131.03
1150.48	129.29
1153.75	129.71
1157.021	127.89
1160.291	127.87
1163.561	127.04
1166.831	126.28
1170.101	126.45
1173.37	126.54
1176.639	125.59
1179.907	125.57
1183.176	124.42
1186.444	124.53
1189.711	122.76
1192.979	124.46
1196.246	124.85
1199.513	123.68
1202.78	123.9
1206.046	123.81
1209.312	123.51
1212.578	124.46
1215.843	125.68
1219.108	127.09
1222.373	129.35
1225.638	131.5
1228.902	133.91
1232.166	137.55
1235.43	139.95
1238.693	144.48
1241.956	147.99
1245.219	150.62
1248.482	151.77
1251.744	151.74
1255.006	152.71
1258.268	148.3
1261.529	147.75
1264.79	143.67
1268.051	139.96
1271.312	139.75
1274.572	136.06
1277.832	133.34
1281.092	132.15
1284.351	130.06
1287.61	129.69
1290.869	128.31
1294.128	128.07
1297.386	128.41
1300.644	127.51
1303.902	127.07
1307.159	127.12
1310.416	127.55
1313.673	128.47
1316.93	129.22
1320.186	131.14
1323.442	132.59
1326.697	135.86
1329.953	136.91
1333.208	139.72
1336.463	146.24
1339.717	149.31
1342.972	155.69
1346.226	160.73
1349.479	162.21
1352.733	169.51
1355.986	173.69
1359.238	178.22
1362.491	178.35
1365.743	188.43
1368.995	188.56
1372.247	187.81
1375.498	187.62
1378.749	193.47
1382	192.25
1385.251	193.55
1388.501	192.42
1391.751	194.46
1395	193.89
1398.25	195.5
1401.499	192.68
1404.748	194.22
1407.996	189.88
1411.244	190.72
1414.492	186.7
1417.74	183.4
1420.987	177.5
1424.234	173.77
1427.481	169.3
1430.728	162.79
1433.974	157.93
1437.22	152.71
1440.465	147.45
1443.711	143.88
1446.956	138.62
1450.201	133.75
1453.445	126.56
1456.689	123.85
1459.933	119.72
1463.177	113.4
1466.42	111.18
1469.663	107.62
1472.906	104.3
1476.148	101.02
1479.391	98.95
1482.633	97.46
1485.874	94.97
1489.115	94.52
1492.356	91.58
1495.597	90.53
1498.838	90.26
1502.078	89.72
1505.318	89.55
1508.557	88.28
1511.797	87.41
1515.036	86.94
1518.274	86.77
1521.513	85.71
1524.751	85.13
1527.989	86.16
1531.227	85.7
1534.464	84.9
1537.701	84.45
1540.938	83.83
1544.174	84.07
1547.41	84.48
1550.646	84.06
1553.882	83.5
1557.117	83.63
1560.352	83.44
1563.587	82.3
1566.821	82.42
1570.055	82.19
1573.289	81.99
1576.523	82.13
1579.756	81.28
1582.989	81.12
1586.222	81.3
1589.454	81.3
1592.686	80.56
1595.918	80.74
1599.15	80.89
1602.381	80.87
1605.612	80.67
1608.843	80.57
1612.073	81.24
1615.303	81.89
1618.533	81.16
1621.762	81.11
1624.992	81.29
1628.221	81.67
1631.449	81.9
1634.678	81.5
1637.906	81.59
1641.134	81.53
1644.361	81.53
1647.588	80.62
1650.815	80.65
1654.042	81
1657.269	80.78
1660.495	81.08
1663.72	81.39
1666.946	80.54
1670.171	81.24
1673.396	81.51
1676.621	81.73
1679.845	82.41
1683.069	82.49
1686.293	81.92
1689.517	82.25
1692.74	82.29
1695.963	82.6
1699.185	82.29
1702.408	83.29
1705.63	83.55
1708.852	83.72
1712.073	83.89
1715.294	83.54
1718.515	84.45
1721.736	85.3
1724.956	85.37
1728.176	85.26
1731.396	85.31
1734.616	85.86
1737.835	85.77
1741.054	85.54
1744.272	85.52
1747.491	85.45
1750.709	85.85
1753.927	85.71
1757.144	85.97
1760.361	85.89
1763.578	86.6
1766.795	87.02
1770.011	87.25
1773.227	87.77
1776.443	88.86
1779.658	88.68
1782.874	89.86
1786.089	89.5
1789.303	89.86
1792.518	90.73
1795.732	91.59
1798.945	92.61
1802.159	92.65
1805.372	93.65
1808.585	94.08
1811.797	94.41
1815.01	95.93
1818.222	96.28
1821.434	98.06
1824.645	98.38
1827.856	99.43
1831.067	99.89
1834.278	101.17
1837.488	101.87
1840.698	102.16
1843.908	102.81
1847.117	103.91
1850.326	104.3
1853.535	105.09
1856.744	106.18
1859.952	108.04
1863.16	107.96
1866.368	108.18
1869.575	108.28
1872.782	107.75
1875.989	108.37
1879.196	108.11
1882.402	106.85
1885.608	107.97
1888.814	107.99
1892.019	108.3
1895.224	106.61
1898.429	107.2
1901.634	108.53
1904.838	107.92
1908.042	108.96
1911.246	108.85
1914.449	109.53
1917.652	110.2
1920.855	109.45
1924.058	108.65
1927.26	108.06
1930.462	108.79
1933.664	108.76
1936.865	107.67
1940.066	107.85
1943.267	107.57
1946.467	107.4
1949.668	107.68
1952.868	107.33
1956.067	107.63
1959.267	109.03
1962.466	109.77
1965.665	110.42
1968.863	111.24
1972.061	111.48
1975.259	114.05
1978.457	114.79
1981.654	116.77
1984.852	117.21
1988.048	119.34
1991.245	120.94
1994.441	122.32
1997.637	124.75
2000.833	127.97
2004.028	128.7
2007.223	133.69
2010.418	135.21
2013.613	141.47
2016.807	144.18
2020.001	148.21
2023.194	152.84
2026.388	157.84
2029.581	166.57
2032.774	170.24
2035.966	174.98
2039.158	180.91
2042.35	183.72
2045.542	186.48
2048.733	192.94
2051.924	197.03
2055.115	199.28
2058.306	200.88
2061.496	204.74
2064.686	202.74
2067.875	204.78
2071.065	204.81
2074.254	206.31
2077.442	213.33
2080.631	215.18
2083.819	215.75
2087.007	219.36
2090.195	222.84
2093.382	221.72
2096.569	221.56
2099.756	228.35
2102.942	231.05
2106.128	237.29
2109.314	238.71
2112.5	237.03
2115.685	235.64
2118.87	236.05
2122.055	236.23
2125.239	240.68
2128.424	248.41
2131.608	245.76
2134.791	242
2137.974	244.7
2141.157	246.13
2144.34	247.53
2147.523	249.12
2150.705	257.66
2153.887	255.85
2157.068	257.66
2160.25	261.01
2163.431	258.63
2166.611	266.61
2169.792	272.66
2172.972	274.51
2176.152	277.91
2179.331	283.93
2182.511	286.27
2185.69	287.58
2188.868	302.06
2192.047	306.71
2195.225	309.7
2198.403	314.78
2201.58	309.02
2204.758	322.49
2207.935	325.73
2211.111	329.54
2214.288	330.83
2217.464	335.08
2220.64	337.3
2223.815	335.24
2226.991	331.79
2230.166	336.16
2233.34	346.45
2236.515	357.39
2239.689	351.45
2242.863	356.88
2246.036	351.2
2249.209	361.26
2252.382	362.25
2255.555	376.22
2258.727	377.32
2261.9	391.8
2265.071	395.73
2268.243	392.54
2271.414	403.64
2274.585	408.37
2277.756	411.26
2280.926	429.93
2284.096	423.18
2287.266	425.33
2290.436	417.73
2293.605	428.69
2296.774	442.78
2299.942	437.51
2303.111	451.21
2306.279	455.42
2309.447	462.76
2312.614	462.66
2315.781	473.95
2318.948	486.93
2322.115	497.21
2325.281	521.4
2328.447	520.55
2331.613	519.32
2334.779	535.96
2337.944	539.59
2341.109	553.01
2344.274	550.86
2347.438	576.44
2350.602	583.44
2353.766	615.68
2356.929	617.7
2360.092	624.33
2363.255	622.53
2366.418	632.8
2369.58	646.49
2372.742	646.21
2375.904	645.42
2379.066	666.77
2382.227	695.35
2385.388	691.06
2388.548	659.4
2391.709	653.47
2394.869	675.31
2398.029	681.9
2401.188	682.98
2404.347	697.79
2407.506	725.63
2410.665	699.53
2413.823	705.33
2416.981	700.82
2420.139	673.9
2423.296	727.33
2426.453	772.83
2429.61	734.32
2432.767	781.01
2435.923	810.98
2439.079	782.71
2442.235	801.64
2445.391	817.73
2448.546	803.63
2451.701	853.69
2454.855	902.76
2458.009	808.08
2461.163	819.5
2464.317	831.62
2467.471	811.08
2470.624	839.45
2473.777	825.94
2476.929	799.06
2480.082	854.51
2483.234	897.14
2486.385	904.45
2489.537	929.41
2492.688	1014.59
2495.839	1004.46
2498.989	1034.4
2502.14	1042.07
2505.29	983.96
2508.439	1113.38
2511.589	1140.61
2514.738	1103.13
2517.887	1097.93
2521.035	1036.49
2524.183	1014.1
2527.331	1003.62
2530.479	978.2
2533.627	1000.68
