Data from N_1_div_pa_2n_001_Splice17_06.txt Node
Date: Sat Feb 29 13:32:44 EST 2020
User: sa697716
Spectrometer: FLMS03696
Trigger mode: 0
Integration Time (sec): 3.180400E-1
Scans to average: 20
Electric dark correction enabled: true
Nonlinearity correction enabled: true
Boxcar width: 5
XAxis mode: Wavelengths
Number of Pixels in Spectrum: 2048
>>>>>Begin Spectral Data<<<<<
187.83	184.57
188.298	208.9
188.766	196.36
189.233	177.98
189.701	173.82
190.169	166.77
190.636	167.04
191.104	133.11
191.571	51.66
192.039	-22.34
192.506	383.58
192.974	5016.53
193.441	-539.21
193.908	157.17
194.375	143.75
194.842	140.05
195.31	81.07
195.777	94.08
196.244	12.16
196.711	11.63
197.177	10.65
197.644	11.11
198.111	10.09
198.578	10.45
199.045	10.74
199.511	11.32
199.978	12.07
200.445	12.17
200.911	12.37
201.378	12.71
201.844	12.87
202.31	13.41
202.777	14.12
203.243	15.25
203.709	16.06
204.176	16.5
204.642	16.62
205.108	16.5
205.574	17.08
206.04	17.41
206.506	17.36
206.972	17.75
207.438	17.69
207.903	17.68
208.369	17.36
208.835	17.25
209.301	17.21
209.766	17.28
210.232	17.45
210.697	17.32
211.163	16.94
211.628	16.59
212.094	16.09
212.559	16.21
213.024	15.76
213.49	15.74
213.955	15.73
214.42	15.57
214.885	15.27
215.35	14.97
215.815	14.57
216.28	14.31
216.745	14.18
217.21	13.88
217.675	13.45
218.14	13.13
218.604	12.64
219.069	12.32
219.534	12.04
219.998	11.74
220.463	11.55
220.927	11.38
221.392	11.19
221.856	10.98
222.32	10.81
222.785	10.64
223.249	10.48
223.713	10.38
224.177	10.21
224.642	10.08
225.106	9.93
225.57	9.82
226.034	9.72
226.497	9.61
226.961	9.49
227.425	9.37
227.889	9.26
228.353	9.16
228.816	9.07
229.28	8.96
229.744	8.87
230.207	8.8
230.671	8.69
231.134	8.57
231.597	8.49
232.061	8.41
232.524	8.34
232.987	8.26
233.45	8.16
233.914	8.07
234.377	8
234.84	7.91
235.303	7.84
235.766	7.76
236.229	7.71
236.691	7.63
237.154	7.55
237.617	7.47
238.08	7.39
238.542	7.31
239.005	7.24
239.468	7.15
239.93	7.08
240.393	7.02
240.855	6.95
241.317	6.87
241.78	6.81
242.242	6.76
242.704	6.7
243.166	6.64
243.629	6.6
244.091	6.56
244.553	6.53
245.015	6.48
245.477	6.42
245.939	6.36
246.4	6.31
246.862	6.26
247.324	6.23
247.786	6.19
248.247	6.16
248.709	6.1
249.17	6.06
249.632	6.01
250.093	5.96
250.555	5.92
251.016	5.89
251.477	5.86
251.939	5.84
252.4	5.79
252.861	5.75
253.322	5.71
253.783	5.7
254.244	5.67
254.705	5.63
255.166	5.61
255.627	5.58
256.088	5.55
256.549	5.52
257.009	5.48
257.47	5.45
257.931	5.42
258.391	5.37
258.852	5.34
259.312	5.3
259.773	5.28
260.233	5.24
260.694	5.22
261.154	5.19
261.614	5.18
262.074	5.15
262.534	5.12
262.994	5.11
263.455	5.08
263.915	5.05
264.374	5.03
264.834	5.01
265.294	4.99
265.754	4.96
266.214	4.94
266.673	4.91
267.133	4.89
267.593	4.88
268.052	4.85
268.512	4.83
268.971	4.82
269.431	4.8
269.89	4.79
270.349	4.77
270.809	4.76
271.268	4.74
271.727	4.72
272.186	4.71
272.645	4.69
273.104	4.68
273.563	4.67
274.022	4.65
274.481	4.64
274.94	4.61
275.399	4.6
275.857	4.58
276.316	4.56
276.775	4.54
277.233	4.52
277.692	4.5
278.15	4.48
278.609	4.45
279.067	4.43
279.525	4.41
279.984	4.4
280.442	4.37
280.9	4.37
281.358	4.36
281.816	4.34
282.274	4.32
282.732	4.31
283.19	4.3
283.648	4.28
284.106	4.27
284.564	4.26
285.021	4.24
285.479	4.22
285.937	4.19
286.394	4.17
286.852	4.16
287.309	4.15
287.767	4.14
288.224	4.12
288.682	4.1
289.139	4.1
289.596	4.08
290.053	4.07
290.511	4.05
290.968	4.04
291.425	4.03
291.882	4.01
292.339	4
292.796	3.98
293.252	3.97
293.709	3.95
294.166	3.93
294.623	3.92
295.079	3.9
295.536	3.9
295.992	3.89
296.449	3.88
296.905	3.87
297.362	3.86
297.818	3.85
298.274	3.84
298.731	3.83
299.187	3.82
299.643	3.81
300.099	3.8
300.555	3.78
301.011	3.78
301.467	3.76
301.923	3.75
302.379	3.74
302.835	3.74
303.291	3.72
303.746	3.71
304.202	3.7
304.658	3.69
305.113	3.67
305.569	3.67
306.024	3.66
306.479	3.65
306.935	3.64
307.39	3.63
307.845	3.61
308.301	3.61
308.756	3.61
309.211	3.61
309.666	3.6
310.121	3.6
310.576	3.6
311.031	3.59
311.486	3.58
311.94	3.57
312.395	3.57
312.85	3.57
313.305	3.56
313.759	3.55
314.214	3.54
314.668	3.53
315.123	3.52
315.577	3.52
316.032	3.51
316.486	3.5
316.94	3.49
317.394	3.48
317.849	3.47
318.303	3.46
318.757	3.44
319.211	3.43
319.665	3.43
320.119	3.41
320.572	3.41
321.026	3.4
321.48	3.39
321.934	3.38
322.387	3.37
322.841	3.37
323.295	3.36
323.748	3.36
324.202	3.36
324.655	3.35
325.108	3.35
325.562	3.33
326.015	3.33
326.468	3.32
326.921	3.31
327.374	3.32
327.827	3.3
328.28	3.3
328.733	3.28
329.186	3.27
329.639	3.26
330.092	3.26
330.545	3.26
330.997	3.25
331.45	3.26
331.903	3.25
332.355	3.24
332.808	3.24
333.26	3.23
333.713	3.23
334.165	3.23
334.617	3.23
335.069	3.22
335.522	3.21
335.974	3.2
336.426	3.19
336.878	3.18
337.33	3.18
337.782	3.18
338.234	3.18
338.686	3.17
339.137	3.18
339.589	3.17
340.041	3.17
340.493	3.16
340.944	3.17
341.396	3.17
341.847	3.16
342.299	3.16
342.75	3.14
343.201	3.12
343.653	3.12
344.104	3.1
344.555	3.08
345.006	3.07
345.457	3.07
345.908	3.05
346.359	3.05
346.81	3.05
347.261	3.04
347.712	3.04
348.163	3.04
348.613	3.04
349.064	3.02
349.515	3.02
349.965	3.01
350.416	3
350.866	3
351.317	2.98
351.767	2.97
352.217	2.97
352.668	2.96
353.118	2.95
353.568	2.95
354.018	2.96
354.468	2.95
354.918	2.96
355.368	2.96
355.818	2.96
356.268	2.96
356.718	2.97
357.168	2.96
357.617	2.96
358.067	2.94
358.517	2.93
358.966	2.93
359.416	2.93
359.865	2.93
360.315	2.92
360.764	2.92
361.213	2.91
361.663	2.9
362.112	2.9
362.561	2.9
363.01	2.92
363.459	2.9
363.908	2.88
364.357	2.88
364.806	2.87
365.255	2.87
365.703	2.87
366.152	2.87
366.601	2.88
367.05	2.87
367.498	2.87
367.947	2.86
368.395	2.87
368.844	2.88
369.292	2.88
369.74	2.88
370.189	2.87
370.637	2.88
371.085	2.88
371.533	2.87
371.981	2.88
372.429	2.87
372.877	2.87
373.325	2.86
373.773	2.86
374.221	2.85
374.669	2.85
375.116	2.85
375.564	2.85
376.012	2.85
376.459	2.86
376.907	2.87
377.354	2.87
377.801	2.88
378.249	2.89
378.696	2.89
379.143	2.9
379.591	2.91
380.038	2.92
380.485	2.93
380.932	2.94
381.379	2.93
381.826	2.93
382.273	2.93
382.72	2.93
383.166	2.94
383.613	2.95
384.06	2.97
384.506	2.98
384.953	2.98
385.4	2.98
385.846	2.99
386.292	2.99
386.739	3
387.185	3.03
387.631	3.05
388.078	3.06
388.524	3.05
388.97	3.06
389.416	3.07
389.862	3.09
390.308	3.1
390.754	3.1
391.2	3.13
391.645	3.15
392.091	3.16
392.537	3.17
392.983	3.19
393.428	3.21
393.874	3.23
394.319	3.25
394.765	3.27
395.21	3.28
395.655	3.31
396.101	3.31
396.546	3.31
396.991	3.32
397.436	3.32
397.881	3.32
398.326	3.35
398.771	3.35
399.216	3.36
399.661	3.36
400.106	3.37
400.551	3.37
400.995	3.37
401.44	3.37
401.885	3.37
402.329	3.38
402.774	3.38
403.218	3.38
403.663	3.37
404.107	3.37
404.551	3.39
404.995	3.38
405.44	3.38
405.884	3.39
406.328	3.4
406.772	3.41
407.216	3.42
407.66	3.42
408.104	3.43
408.547	3.44
408.991	3.45
409.435	3.45
409.879	3.48
410.322	3.5
410.766	3.51
411.209	3.52
411.653	3.51
412.096	3.52
412.54	3.53
412.983	3.53
413.426	3.54
413.869	3.54
414.312	3.55
414.756	3.54
415.199	3.53
415.642	3.54
416.085	3.55
416.527	3.58
416.97	3.58
417.413	3.57
417.856	3.57
418.298	3.55
418.741	3.56
419.184	3.56
419.626	3.56
420.069	3.57
420.511	3.55
420.953	3.54
421.396	3.54
421.838	3.54
422.28	3.57
422.722	3.59
423.164	3.6
423.606	3.6
424.048	3.6
424.49	3.61
424.932	3.6
425.374	3.61
425.816	3.6
426.258	3.6
426.699	3.59
427.141	3.56
427.582	3.55
428.024	3.56
428.465	3.56
428.907	3.56
429.348	3.55
429.789	3.57
430.231	3.58
430.672	3.58
431.113	3.59
431.554	3.61
431.995	3.62
432.436	3.62
432.877	3.63
433.318	3.63
433.759	3.62
434.2	3.64
434.64	3.63
435.081	3.62
435.522	3.62
435.962	3.6
436.403	3.61
436.843	3.6
437.284	3.62
437.724	3.63
438.164	3.63
438.604	3.65
439.045	3.66
439.485	3.65
439.925	3.68
440.365	3.67
440.805	3.68
441.245	3.67
441.685	3.69
442.125	3.67
442.564	3.67
443.004	3.68
443.444	3.69
443.883	3.69
444.323	3.69
444.762	3.7
445.202	3.76
445.641	3.76
446.081	3.78
446.52	3.77
446.959	3.81
447.398	3.85
447.837	3.86
448.276	3.86
448.716	3.89
449.154	3.91
449.593	3.93
450.032	3.93
450.471	3.95
450.91	3.96
451.349	3.98
451.787	3.96
452.226	3.93
452.664	3.93
453.103	3.92
453.541	3.92
453.98	3.92
454.418	3.9
454.856	3.87
455.295	3.85
455.733	3.85
456.171	3.85
456.609	3.85
457.047	3.85
457.485	3.84
457.923	3.86
458.361	3.85
458.798	3.85
459.236	3.84
459.674	3.85
460.111	3.86
460.549	3.85
460.987	3.87
461.424	3.87
461.862	3.88
462.299	3.87
462.736	3.87
463.173	3.87
463.611	3.87
464.048	3.88
464.485	3.88
464.922	3.88
465.359	3.89
465.796	3.88
466.233	3.9
466.67	3.92
467.106	3.92
467.543	3.9
467.98	3.91
468.416	3.9
468.853	3.9
469.29	3.9
469.726	3.89
470.162	3.88
470.599	3.88
471.035	3.86
471.471	3.83
471.907	3.84
472.344	3.86
472.78	3.85
473.216	3.86
473.652	3.86
474.088	3.88
474.523	3.89
474.959	3.88
475.395	3.88
475.831	3.89
476.266	3.9
476.702	3.88
477.138	3.87
477.573	3.87
478.008	3.87
478.444	3.86
478.879	3.85
479.314	3.85
479.75	3.85
480.185	3.85
480.62	3.85
481.055	3.84
481.49	3.84
481.925	3.84
482.36	3.84
482.795	3.83
483.229	3.84
483.664	3.84
484.099	3.84
484.534	3.85
484.968	3.84
485.403	3.85
485.837	3.84
486.271	3.85
486.706	3.85
487.14	3.86
487.574	3.88
488.009	3.89
488.443	3.89
488.877	3.91
489.311	3.92
489.745	3.95
490.179	3.98
490.613	4.01
491.046	4.03
491.48	4.06
491.914	4.1
492.348	4.13
492.781	4.15
493.215	4.18
493.648	4.22
494.082	4.26
494.515	4.29
494.948	4.33
495.382	4.37
495.815	4.43
496.248	4.48
496.681	4.52
497.114	4.57
497.547	4.63
497.98	4.7
498.413	4.76
498.846	4.83
499.279	4.91
499.711	4.98
500.144	5.05
500.577	5.14
501.009	5.22
501.442	5.34
501.874	5.44
502.306	5.54
502.739	5.66
503.171	5.78
503.603	5.9
504.036	6.03
504.468	6.18
504.9	6.32
505.332	6.47
505.764	6.63
506.196	6.79
506.627	6.95
507.059	7.13
507.491	7.3
507.923	7.48
508.354	7.67
508.786	7.86
509.217	8.05
509.649	8.27
510.08	8.49
510.512	8.7
510.943	8.91
511.374	9.14
511.805	9.37
512.237	9.62
512.668	9.85
513.099	10.09
513.53	10.35
513.961	10.62
514.391	10.86
514.822	11.13
515.253	11.4
515.684	11.68
516.114	11.96
516.545	12.26
516.975	12.54
517.406	12.83
517.836	13.12
518.267	13.41
518.697	13.71
519.127	14.01
519.558	14.28
519.988	14.57
520.418	14.85
520.848	15.14
521.278	15.41
521.708	15.8
522.138	16.07
522.567	16.33
522.997	16.56
523.427	16.79
523.857	17.03
524.286	17.27
524.716	17.5
525.145	17.75
525.575	17.95
526.004	18.15
526.433	18.25
526.863	18.44
527.292	18.63
527.721	18.82
528.15	18.99
528.579	19.17
529.008	19.34
529.437	19.48
529.866	19.6
530.295	19.76
530.724	19.92
531.152	20.06
531.581	20.18
532.01	20.3
532.438	20.44
532.867	20.56
533.295	20.67
533.723	20.79
534.152	20.89
534.58	20.98
535.008	21.04
535.436	21.1
535.865	21.16
536.293	21.22
536.721	21.27
537.149	21.31
537.576	21.36
538.004	21.39
538.432	21.42
538.86	21.45
539.287	21.5
539.715	21.54
540.143	21.56
540.57	21.59
540.998	21.63
541.425	21.68
541.852	21.72
542.28	21.76
542.707	21.79
543.134	21.81
543.561	21.84
543.988	21.87
544.415	21.92
544.842	21.94
545.269	22
545.696	22.04
546.123	22.07
546.549	22.09
546.976	22.12
547.403	22.14
547.829	22.18
548.256	22.19
548.682	22.2
549.108	22.21
549.535	22.23
549.961	22.2
550.387	22.18
550.813	22.16
551.24	22.16
551.666	22.15
552.092	22.14
552.518	22.12
552.943	22.1
553.369	22.08
553.795	22.06
554.221	22.03
554.646	22.02
555.072	21.98
555.498	21.92
555.923	21.89
556.349	21.83
556.774	21.76
557.199	21.69
557.625	21.62
558.05	21.55
558.475	21.46
558.9	21.37
559.325	21.27
559.75	21.19
560.175	21.09
560.6	20.98
561.025	20.86
561.449	20.76
561.874	20.63
562.299	20.52
562.723	20.39
563.148	20.26
563.572	20.13
563.997	20
564.421	19.85
564.846	19.7
565.27	19.54
565.694	19.39
566.118	19.23
566.542	19.09
566.966	18.92
567.39	18.76
567.814	18.6
568.238	18.44
568.662	18.29
569.086	18.15
569.509	18.01
569.933	17.86
570.357	17.72
570.78	17.57
571.204	17.43
571.627	17.28
572.05	17.15
572.474	17.01
572.897	16.88
573.32	16.73
573.743	16.58
574.166	16.44
574.589	16.31
575.012	16.18
575.435	16.05
575.858	15.93
576.281	15.81
576.704	15.69
577.126	15.57
577.549	15.46
577.972	15.36
578.394	15.24
578.817	15.14
579.239	15.04
579.661	14.95
580.084	14.86
580.506	14.76
580.928	14.67
581.35	14.59
581.772	14.52
582.194	14.43
582.616	14.36
583.038	14.29
583.46	14.23
583.882	14.17
584.303	14.08
584.725	14.01
585.147	13.96
585.568	13.88
585.99	13.82
586.411	13.75
586.833	13.69
587.254	13.63
587.675	13.57
588.096	13.51
588.518	13.44
588.939	13.39
589.36	13.34
589.781	13.27
590.202	13.23
590.623	13.17
591.043	13.11
591.464	13.08
591.885	13.04
592.305	13
592.726	12.96
593.147	12.93
593.567	12.89
593.987	12.86
594.408	12.82
594.828	12.78
595.248	12.76
595.669	12.74
596.089	12.7
596.509	12.64
596.929	12.61
597.349	12.58
597.769	12.55
598.189	12.52
598.608	12.49
599.028	12.45
599.448	12.42
599.867	12.37
600.287	12.32
600.706	12.29
601.126	12.26
601.545	12.22
601.965	12.17
602.384	12.12
602.803	12.06
603.222	11.98
603.641	11.94
604.061	11.88
604.48	11.83
604.898	11.77
605.317	11.71
605.736	11.64
606.155	11.57
606.574	11.5
606.992	11.43
607.411	11.37
607.829	11.28
608.248	11.22
608.666	11.14
609.085	11.08
609.503	11
609.921	10.92
610.339	10.85
610.758	10.77
611.176	10.71
611.594	10.63
612.012	10.56
612.43	10.53
612.847	10.45
613.265	10.38
613.683	10.3
614.101	10.24
614.518	10.17
614.936	10.1
615.353	10.04
615.771	9.97
616.188	9.92
616.606	9.86
617.023	9.78
617.44	9.72
617.857	9.67
618.274	9.62
618.691	9.58
619.108	9.53
619.525	9.48
619.942	9.44
620.359	9.41
620.776	9.36
621.192	9.33
621.609	9.3
622.026	9.28
622.442	9.25
622.859	9.23
623.275	9.22
623.691	9.19
624.108	9.19
624.524	9.19
624.94	9.17
625.356	9.17
625.772	9.16
626.188	9.17
626.604	9.15
627.02	9.15
627.436	9.13
627.852	9.11
628.268	9.11
628.683	9.08
629.099	9.06
629.514	9.04
629.93	9.03
630.345	9
630.761	8.96
631.176	8.95
631.591	8.92
632.007	8.89
632.422	8.85
632.837	8.8
633.252	8.76
633.667	8.69
634.082	8.64
634.497	8.57
634.911	8.51
635.326	8.44
635.741	8.36
636.155	8.28
636.57	8.19
636.984	8.09
637.399	7.99
637.813	7.88
638.228	7.81
638.642	7.7
639.056	7.59
639.47	7.48
639.884	7.37
640.298	7.26
640.712	7.15
641.126	7.05
641.54	6.94
641.954	6.85
642.368	6.76
642.781	6.66
643.195	6.57
643.609	6.48
644.022	6.39
644.436	6.31
644.849	6.23
645.262	6.15
645.676	6.07
646.089	6
646.502	5.92
646.915	5.85
647.328	5.79
647.741	5.72
648.154	5.67
648.567	5.62
648.98	5.58
649.393	5.54
649.805	5.5
650.218	5.47
650.631	5.45
651.043	5.41
651.456	5.39
651.868	5.37
652.28	5.35
652.693	5.32
653.105	5.28
653.517	5.24
653.929	5.21
654.341	5.19
654.753	5.14
655.165	5.09
655.577	5.05
655.989	4.99
656.401	4.93
656.813	4.88
657.224	4.84
657.636	4.8
658.047	4.76
658.459	4.69
658.87	4.62
659.282	4.58
659.693	4.54
660.104	4.47
660.515	4.42
660.926	4.37
661.338	4.31
661.749	4.24
662.159	4.18
662.57	4.13
662.981	4.08
663.392	4.04
663.803	3.98
664.213	3.94
664.624	3.92
665.035	3.88
665.445	3.85
665.855	3.83
666.266	3.82
666.676	3.8
667.086	3.78
667.497	3.76
667.907	3.74
668.317	3.73
668.727	3.73
669.137	3.73
669.547	3.74
669.956	3.74
670.366	3.74
670.776	3.74
671.186	3.75
671.595	3.77
672.005	3.78
672.414	3.79
672.824	3.82
673.233	3.83
673.642	3.84
674.052	3.86
674.461	3.87
674.87	3.89
675.279	3.91
675.688	3.93
676.097	3.96
676.506	4
676.915	4.04
677.323	4.09
677.732	4.11
678.141	4.15
678.549	4.2
678.958	4.24
679.366	4.28
679.775	4.32
680.183	4.38
680.592	4.42
681	4.46
681.408	4.5
681.816	4.55
682.224	4.63
682.632	4.73
683.04	4.8
683.448	4.9
683.856	5.02
684.264	5.14
684.671	5.28
685.079	5.43
685.487	5.62
685.894	5.82
686.302	6.03
686.709	6.24
687.116	6.47
687.524	6.76
687.931	7.05
688.338	7.36
688.745	7.71
689.152	8.07
689.559	8.46
689.966	8.86
690.373	9.29
690.78	9.75
691.187	10.25
691.593	10.74
692	11.24
692.407	11.76
692.813	12.32
693.22	12.85
693.626	13.4
694.032	13.97
694.439	14.57
694.845	15.15
695.251	15.73
695.657	16.31
696.063	16.9
696.469	17.51
696.875	18.1
697.281	18.66
697.687	19.26
698.093	19.85
698.498	20.43
698.904	20.98
699.31	21.53
699.715	22.11
700.12	22.64
700.526	23.18
700.931	23.71
701.337	24.25
701.742	24.77
702.147	25.29
702.552	25.8
702.957	26.3
703.362	26.8
703.767	27.31
704.172	27.79
704.577	28.25
704.981	28.72
705.386	29.17
705.791	29.63
706.195	30.08
706.6	30.53
707.004	30.94
707.408	31.35
707.813	31.76
708.217	32.15
708.621	32.53
709.025	32.97
709.43	33.35
709.834	33.74
710.237	34.08
710.641	34.44
711.045	34.78
711.449	35.14
711.853	35.49
712.256	35.87
712.66	36.23
713.064	36.57
713.467	36.86
713.87	37.21
714.274	37.53
714.677	37.85
715.08	38.15
715.484	38.49
715.887	38.77
716.29	39.07
716.693	39.3
717.096	39.57
717.499	39.84
717.901	40.1
718.304	40.34
718.707	40.59
719.109	40.87
719.512	41.15
719.915	41.37
720.317	41.64
720.719	41.87
721.122	42.1
721.524	42.34
721.926	42.56
722.328	42.78
722.731	42.98
723.133	43.18
723.535	43.39
723.937	43.58
724.338	43.75
724.74	43.88
725.142	44.1
725.544	44.29
725.945	44.46
726.347	44.63
726.748	44.75
727.15	44.89
727.551	45.04
727.952	45.15
728.354	45.27
728.755	45.41
729.156	45.58
729.557	45.66
729.958	45.79
730.359	45.85
730.76	45.94
731.161	46.1
731.562	46.24
731.962	46.33
732.363	46.47
732.763	46.54
733.164	46.62
733.564	46.73
733.965	46.78
734.365	46.82
734.766	46.92
735.166	46.95
735.566	46.99
735.966	47.03
736.366	47.08
736.766	47.1
737.166	47.17
737.566	47.23
737.966	47.24
738.365	47.31
738.765	47.39
739.165	47.44
739.564	47.54
739.964	47.58
740.363	47.63
740.763	47.67
741.162	47.71
741.561	47.74
741.96	47.78
742.36	47.83
742.759	47.85
743.158	47.83
743.557	47.84
743.955	47.88
744.354	47.92
744.753	47.97
745.152	47.99
745.55	48.02
745.949	48.04
746.348	48.06
746.746	48.09
747.144	48.13
747.543	48.16
747.941	48.2
748.339	48.21
748.737	48.26
749.136	48.28
749.534	48.3
749.932	48.33
750.33	48.34
750.727	48.35
751.125	48.37
751.523	48.35
751.921	48.4
752.318	48.43
752.716	48.44
753.113	48.4
753.511	48.37
753.908	48.37
754.305	48.36
754.703	48.35
755.1	48.33
755.497	48.34
755.894	48.35
756.291	48.3
756.688	48.26
757.085	48.22
757.482	48.24
757.878	48.25
758.275	48.23
758.672	48.25
759.068	48.29
759.465	48.28
759.861	48.27
760.258	48.26
760.654	48.31
761.05	48.3
761.447	48.3
761.843	48.28
762.239	48.27
762.635	48.29
763.031	48.28
763.427	48.24
763.822	48.23
764.218	48.19
764.614	48.22
765.01	48.21
765.405	48.2
765.801	48.2
766.196	48.19
766.592	48.21
766.987	48.22
767.382	48.21
767.778	48.22
768.173	48.23
768.568	48.26
768.963	48.24
769.358	48.24
769.753	48.28
770.148	48.28
770.542	48.28
770.937	48.24
771.332	48.23
771.726	48.22
772.121	48.18
772.515	48.17
772.91	48.17
773.304	48.16
773.699	48.14
774.093	48.1
774.487	48.11
774.881	48.1
775.275	48.13
775.669	48.13
776.063	48.11
776.457	48.12
776.851	48.09
777.245	48.1
777.638	48.08
778.032	48.07
778.425	48.1
778.819	48.1
779.212	48.1
779.606	48.09
779.999	48.08
780.392	48.1
780.786	48.09
781.179	48.12
781.572	48.09
781.965	48.11
782.358	48.07
782.751	48.07
783.143	48.08
783.536	48.08
783.929	48.1
784.322	48.11
784.714	48.09
785.107	48.11
785.499	48.08
785.891	48.09
786.284	48.05
786.676	48.09
787.068	48.06
787.46	48.01
787.852	48.05
788.245	48.01
788.636	48
789.028	48
789.42	47.98
789.812	48.04
790.204	48
790.595	48.03
790.987	48.05
791.378	48.07
791.77	48.11
792.161	48.07
792.553	48.07
792.944	48.06
793.335	48.08
793.726	48.06
794.117	48.02
794.508	48.05
794.899	48.04
795.29	48.01
795.681	47.97
796.072	47.96
796.463	47.97
796.853	47.98
797.244	47.98
797.634	47.94
798.025	47.97
798.415	47.98
798.806	47.99
799.196	47.99
799.586	48
799.976	48
800.366	48.02
800.756	47.98
801.146	47.95
801.536	47.91
801.926	47.93
802.316	47.91
802.706	47.89
803.095	47.87
803.485	47.87
803.874	47.83
804.264	47.87
804.653	47.81
805.043	47.82
805.432	47.79
805.821	47.82
806.21	47.84
806.599	47.87
806.988	47.92
807.377	47.94
807.766	47.93
808.155	47.97
808.544	47.91
808.933	47.93
809.321	47.97
809.71	48.02
810.098	48.01
810.487	47.97
810.875	47.95
811.264	47.92
811.652	47.93
812.04	47.97
812.428	47.95
812.816	47.99
813.204	47.98
813.592	47.94
813.98	47.93
814.368	47.94
814.756	47.98
815.144	47.99
815.531	47.99
815.919	47.97
816.306	47.92
816.694	47.95
817.081	47.93
817.469	47.95
817.856	48.02
818.243	48.01
818.63	48.04
819.017	48.05
819.404	48.03
819.791	48.03
820.178	48.03
820.565	48.06
820.952	48.03
821.339	48.04
821.725	48.04
822.112	48.04
822.498	48.05
822.885	48.02
823.271	48.02
823.657	48.04
824.044	48.05
824.43	48.04
824.816	48.03
825.202	48.03
825.588	48.05
825.974	48.09
826.36	48.06
826.746	48.08
827.132	48.05
827.517	48.07
827.903	48.06
828.289	48.07
828.674	48.09
829.06	48.12
829.445	48.16
829.83	48.16
830.216	48.13
830.601	48.09
830.986	48.12
831.371	48.16
831.756	48.14
832.141	48.16
832.526	48.14
832.911	48.15
833.295	48.15
833.68	48.14
834.065	48.16
834.449	48.14
834.834	48.18
835.218	48.16
835.603	48.15
835.987	48.13
836.371	48.14
836.755	48.14
837.139	48.1
837.524	48.08
837.908	48.07
838.291	48.08
838.675	48.11
839.059	48.11
839.443	48.11
839.827	48.13
840.21	48.18
840.594	48.18
840.977	48.18
841.361	48.23
841.744	48.27
842.127	48.26
842.511	48.25
842.894	48.27
843.277	48.28
843.66	48.27
844.043	48.27
844.426	48.23
844.809	48.22
845.191	48.25
845.574	48.22
845.957	48.17
846.339	48.16
846.722	48.15
847.104	48.11
847.487	48.1
847.869	48.1
848.252	48.08
848.634	48.1
849.016	48.11
849.398	48.09
849.78	48.11
850.162	48.11
850.544	48.15
850.926	48.14
851.307	48.17
851.689	48.16
852.071	48.16
852.452	48.19
852.834	48.17
853.215	48.17
853.597	48.19
853.978	48.18
854.359	48.18
854.741	48.18
855.122	48.17
855.503	48.13
855.884	48.12
856.265	48.12
856.646	48.08
857.026	48.08
857.407	48.05
857.788	48.03
858.169	48
858.549	48.01
858.93	48
859.31	48
859.69	48.01
860.071	48.01
860.451	48
860.831	47.99
861.211	47.95
861.591	47.98
861.971	47.96
862.351	47.99
862.731	48.01
863.111	48
863.491	47.99
863.87	48.01
864.25	48.03
864.629	48.02
865.009	48.04
865.388	48.08
865.768	48.03
866.147	48.05
866.526	48.05
866.905	48.05
867.284	48.04
867.663	48.06
868.042	48.07
868.421	48.01
868.8	48.02
869.179	48.01
869.558	47.99
869.936	48.05
870.315	48.02
870.693	48.02
871.072	48.01
871.45	48.02
871.828	48
872.207	47.99
872.585	48.01
872.963	48
873.341	47.99
873.719	47.98
874.097	47.94
874.475	47.95
874.853	47.92
875.23	47.91
875.608	47.89
875.986	47.9
876.363	47.9
876.741	47.9
877.118	47.88
877.495	47.86
877.873	47.86
878.25	47.84
878.627	47.84
879.004	47.85
879.381	47.82
879.758	47.8
880.135	47.78
880.512	47.77
880.889	47.75
881.265	47.75
881.642	47.78
882.019	47.79
882.395	47.84
882.772	47.84
883.148	47.85
883.524	47.89
883.901	47.92
884.277	47.93
884.653	47.96
885.029	47.99
885.405	47.98
885.781	47.98
886.157	48
886.532	47.97
886.908	47.99
887.284	48
887.659	48.01
888.035	48.02
888.411	48
888.786	47.99
889.161	48
889.537	48.03
889.912	48.03
890.287	47.99
890.662	48
891.037	47.99
891.412	48
891.787	47.98
892.162	47.97
892.536	48.01
892.911	48
893.286	47.97
893.66	47.96
894.035	47.96
894.409	47.98
894.784	47.98
895.158	47.98
895.532	47.95
895.906	47.95
896.281	47.94
896.655	47.92
897.029	47.9
897.402	47.92
897.776	47.89
898.15	47.86
898.524	47.85
898.898	47.79
899.271	47.78
899.645	47.75
900.018	47.73
900.392	47.71
900.765	47.69
901.138	47.7
901.511	47.65
901.884	47.69
902.258	47.68
902.631	47.68
903.003	47.69
903.376	47.68
903.749	47.69
904.122	47.67
904.495	47.67
904.867	47.68
905.24	47.67
905.612	47.62
905.985	47.56
906.357	47.55
906.729	47.52
907.102	47.52
907.474	47.52
907.846	47.54
908.218	47.5
908.59	47.45
908.962	47.47
909.334	47.44
909.705	47.47
910.077	47.45
910.449	47.47
910.82	47.44
911.192	47.42
911.563	47.4
911.935	47.35
912.306	47.36
912.677	47.38
913.048	47.35
913.419	47.33
913.79	47.31
914.161	47.34
914.532	47.33
914.903	47.33
915.274	47.37
915.645	47.38
916.015	47.38
916.386	47.39
916.756	47.36
917.127	47.34
917.497	47.36
917.868	47.41
918.238	47.41
918.608	47.41
918.978	47.39
919.348	47.3
919.718	47.29
920.088	47.28
920.458	47.3
920.828	47.29
921.198	47.3
921.567	47.27
921.937	47.24
922.306	47.2
922.676	47.18
923.045	47.21
923.415	47.25
923.784	47.2
924.153	47.25
924.522	47.25
924.891	47.26
925.26	47.3
925.629	47.33
925.998	47.34
926.367	47.32
926.736	47.31
927.104	47.29
927.473	47.27
927.842	47.27
928.21	47.25
928.578	47.19
928.947	47.18
929.315	47.14
929.683	47.13
930.051	47.1
930.42	47.12
930.788	47.12
931.156	47.08
931.523	47.05
931.891	47.04
932.259	47
932.627	46.99
932.994	46.97
933.362	46.92
933.729	46.85
934.097	46.76
934.464	46.71
934.831	46.73
935.199	46.74
935.566	46.73
935.933	46.69
936.3	46.63
936.667	46.61
937.034	46.6
937.401	46.53
937.767	46.48
938.134	46.46
938.501	46.44
938.867	46.37
939.234	46.36
939.6	46.31
939.967	46.35
940.333	46.38
940.699	46.37
941.065	46.32
941.431	46.4
941.798	46.46
942.163	46.57
942.529	46.54
942.895	46.58
943.261	46.54
943.627	46.61
943.992	46.6
944.358	46.56
944.723	46.54
945.089	46.56
945.454	46.57
945.82	46.54
946.185	46.59
946.55	46.58
946.915	46.48
947.28	46.43
947.645	46.45
948.01	46.4
948.375	46.41
948.74	46.31
949.104	46.35
949.469	46.28
949.834	46.25
950.198	46.15
950.562	46.17
950.927	46.2
951.291	46.24
951.655	46.18
952.02	46.13
952.384	46.13
952.748	46.19
953.112	46.13
953.476	46.1
953.839	46.06
954.203	46.06
954.567	46.03
954.931	46.03
955.294	46.03
955.658	45.98
956.021	46.02
956.385	46.07
956.748	46.13
957.111	46.1
957.474	46.17
957.837	46.23
958.2	46.18
958.563	46.16
958.926	46.16
959.289	46.14
959.652	46.18
960.015	46.17
960.377	46.07
960.74	46.04
961.102	46.08
961.465	46.08
961.827	46.01
962.189	46.01
962.552	46.01
962.914	45.97
963.276	45.91
963.638	45.81
964	45.8
964.362	45.81
964.724	45.77
965.085	45.74
965.447	45.7
965.809	45.7
966.17	45.72
966.532	45.74
966.893	45.8
967.255	45.82
967.616	45.9
967.977	45.84
968.338	45.82
968.699	45.8
969.061	45.75
969.421	45.7
969.782	45.69
970.143	45.64
970.504	45.57
970.865	45.45
971.225	45.46
971.586	45.48
971.946	45.5
972.307	45.53
972.667	45.52
973.027	45.53
973.388	45.5
973.748	45.53
974.108	45.55
974.468	45.6
974.828	45.65
975.188	45.64
975.548	45.6
975.907	45.61
976.267	45.6
976.627	45.62
976.986	45.5
977.346	45.49
977.705	45.49
978.064	45.44
978.424	45.41
978.783	45.39
979.142	45.32
979.501	45.26
979.86	45.18
980.219	45.06
980.578	45
980.937	45.15
981.296	45.2
981.654	45.25
982.013	45.38
982.371	45.35
982.73	45.31
983.088	45.28
983.447	45.37
983.805	45.47
984.163	45.54
984.521	45.48
984.879	45.43
985.237	45.44
985.595	45.35
985.953	45.22
986.311	45.28
986.669	45.2
987.026	45.18
987.384	45.1
987.741	45.12
988.099	45.14
988.456	45.2
988.814	45.25
989.171	45.22
989.528	45.12
989.885	45.04
990.242	44.98
990.599	45.02
990.956	45.04
991.313	45.05
991.67	45.01
992.027	44.97
992.383	45.03
992.74	44.95
993.096	44.82
993.453	44.88
993.809	44.9
994.165	44.87
994.522	44.91
994.878	44.88
995.234	44.85
995.59	44.64
995.946	44.68
996.302	44.51
996.658	44.41
997.013	44.48
997.369	44.53
997.725	44.57
998.08	44.38
998.436	44.44
998.791	44.42
999.147	44.43
999.502	44.48
999.857	44.46
1000.212	44.43
1000.567	44.48
1000.922	44.41
1001.277	44.36
1001.632	44.4
1001.987	44.39
1002.342	44.3
1002.696	44.31
1003.051	44.13
1003.406	44.13
1003.76	44.05
1004.114	44.16
1004.469	44.16
1004.823	44.05
1005.177	43.96
1005.531	43.77
1005.885	43.93
1006.239	43.97
1006.593	43.92
1006.947	43.98
1007.301	44.03
1007.655	43.91
1008.008	43.76
1008.362	43.73
1008.715	43.74
1009.069	43.64
1009.422	43.65
1009.776	43.53
1010.129	43.26
1010.482	43.21
1010.835	43.29
1011.188	43.02
1011.541	42.94
1011.894	42.78
1012.247	42.7
1012.6	42.74
1012.952	42.82
1013.305	42.58
1013.657	42.77
1014.01	43.06
1014.362	42.96
1014.715	42.74
1015.067	43.08
1015.419	43.09
1015.771	43.41
1016.123	43.37
1016.475	43.34
1016.827	43.25
1017.179	43.28
1017.531	43
1017.883	42.74
1018.234	43.08
1018.586	43.08
1018.938	42.66
1019.289	42.53
1019.64	42.51
1019.992	42.49
1020.343	42.42
1020.694	42.27
1021.045	42.49
1021.396	42.56
1021.747	42.32
1022.098	42.1
1022.449	42.14
1022.8	42.21
1023.151	42.26
1023.501	42.03
1023.852	41.93
1024.202	41.79
1024.553	41.61
1024.903	41.42
1025.253	41.07
1025.604	41.24
1025.954	40.79
1026.304	40.94
1026.654	40.94
1027.004	40.78
1027.354	40.6
1027.703	40.35
1028.053	40.18
1028.403	40.28
1028.753	40.21
1029.102	40.41
1029.452	40.42
1029.801	40.79
1030.15	40.48
1030.499	40.35
897.758	707.77
901.051	724.27
904.343	726.19
907.636	714.74
910.928	702.84
914.22	710.87
917.511	702.14
920.803	676.79
924.094	643.58
927.384	646.47
930.675	625.36
933.965	619.41
937.255	619.72
940.544	596.44
943.834	565.72
947.123	556.02
950.411	531.99
953.7	517.85
956.988	499.97
960.276	478.73
963.563	473.38
966.851	449.47
970.138	441.26
973.424	407.48
976.711	400.22
979.997	387.35
983.283	379.98
986.568	365.3
989.853	354.27
993.138	342.59
996.423	338.17
999.708	325.64
1002.992	326.35
1006.275	314.7
1009.559	313.29
1012.842	303.74
1016.125	294.06
1019.408	288.29
1022.69	284.73
1025.972	283.85
1029.254	274.87
1032.536	270.25
1035.817	260.66
1039.098	256.63
1042.379	251.86
1045.659	247.15
1048.939	244.39
1052.219	241.49
1055.498	237.1
1058.778	233.99
1062.057	228.37
1065.335	227.42
1068.614	222.81
1071.892	221
1075.17	215.47
1078.447	212.59
1081.724	210.43
1085.001	207.75
1088.278	204.58
1091.554	201.94
1094.83	200.68
1098.106	197.36
1101.382	196.26
1104.657	195.31
1107.932	194.84
1111.206	193.75
1114.481	192.32
1117.755	191
1121.029	189.56
1124.302	188.16
1127.575	185.43
1130.848	184.63
1134.121	182.12
1137.393	181.27
1140.665	179.42
1143.937	177.69
1147.208	175.22
1150.48	172.6
1153.75	171.59
1157.021	170.02
1160.291	169.67
1163.561	169.57
1166.831	167.54
1170.101	167.85
1173.37	166.37
1176.639	165.4
1179.907	164.69
1183.176	165.18
1186.444	165.38
1189.711	164.67
1192.979	165.16
1196.246	165.02
1199.513	164.37
1202.78	165.26
1206.046	164.56
1209.312	166.53
1212.578	167.38
1215.843	169.76
1219.108	169.99
1222.373	173.29
1225.638	175.94
1228.902	181.04
1232.166	186.89
1235.43	190.21
1238.693	195.82
1241.956	199.97
1245.219	204.75
1248.482	206.22
1251.744	205.59
1255.006	207.69
1258.268	201.9
1261.529	200.31
1264.79	193.85
1268.051	189.9
1271.312	187.35
1274.572	183.06
1277.832	178.92
1281.092	176.36
1284.351	172.87
1287.61	172.66
1290.869	170.67
1294.128	170.42
1297.386	169.69
1300.644	169.09
1303.902	168.59
1307.159	168.05
1310.416	168.83
1313.673	171.55
1316.93	172.65
1320.186	175.63
1323.442	178.32
1326.697	182.21
1329.953	183.96
1333.208	190.85
1336.463	197.95
1339.717	201.75
1342.972	212.14
1346.226	218.04
1349.479	220.77
1352.733	231.18
1355.986	235.65
1359.238	240.28
1362.491	243.33
1365.743	252.97
1368.995	252.69
1372.247	253.67
1375.498	252.84
1378.749	261.7
1382	260.83
1385.251	260.32
1388.501	259.2
1391.751	263.67
1395	262.56
1398.25	264.24
1401.499	264.25
1404.748	264.89
1407.996	261.54
1411.244	261.99
1414.492	256.99
1417.74	251.24
1420.987	246.21
1424.234	240.83
1427.481	232.69
1430.728	226.86
1433.974	219.65
1437.22	210.23
1440.465	204.98
1443.711	198.32
1446.956	192.22
1450.201	184.95
1453.445	177.11
1456.689	171.44
1459.933	165.76
1463.177	158.67
1466.42	155.13
1469.663	150
1472.906	146.77
1476.148	140.96
1479.391	137.7
1482.633	135.13
1485.874	132.6
1489.115	131.3
1492.356	128.31
1495.597	126.96
1498.838	125.69
1502.078	124.45
1505.318	124.53
1508.557	123.61
1511.797	122.48
1515.036	122.22
1518.274	121.29
1521.513	119.09
1524.751	118.56
1527.989	119.31
1531.227	118.79
1534.464	118.5
1537.701	117.63
1540.938	116.85
1544.174	116.5
1547.41	116.43
1550.646	116.08
1553.882	116.09
1557.117	116.05
1560.352	115.22
1563.587	114.23
1566.821	113.86
1570.055	113.18
1573.289	112.55
1576.523	112.87
1579.756	112.13
1582.989	112.07
1586.222	111
1589.454	111.3
1592.686	110.53
1595.918	110.86
1599.15	110.83
1602.381	110.58
1605.612	110.87
1608.843	110.8
1612.073	110.87
1615.303	111.05
1618.533	110.58
1621.762	111.73
1624.992	110.27
1628.221	110.62
1631.449	110.9
1634.678	110.59
1637.906	110.95
1641.134	110.78
1644.361	110.59
1647.588	110.6
1650.815	110.66
1654.042	111.03
1657.269	110.09
1660.495	111.67
1663.72	111.84
1666.946	111.32
1670.171	112.03
1673.396	112.52
1676.621	112.95
1679.845	113.92
1683.069	113.28
1686.293	113.18
1689.517	113.26
1692.74	113.77
1695.963	113.97
1699.185	114.41
1702.408	114.66
1705.63	114.34
1708.852	115.17
1712.073	114.16
1715.294	113.48
1718.515	114.98
1721.736	115.04
1724.956	115.89
1728.176	115.89
1731.396	116.34
1734.616	116.34
1737.835	116.84
1741.054	117.01
1744.272	116.38
1747.491	117.59
1750.709	117.84
1753.927	117.66
1757.144	118.22
1760.361	118.13
1763.578	118.82
1766.795	118.95
1770.011	119.74
1773.227	120.55
1776.443	121.72
1779.658	122.4
1782.874	122.86
1786.089	124.04
1789.303	124.27
1792.518	125.23
1795.732	125.95
1798.945	127.21
1802.159	127.46
1805.372	129.03
1808.585	129.92
1811.797	130.86
1815.01	131.44
1818.222	132.75
1821.434	133.63
1824.645	134.8
1827.856	136.68
1831.067	136.78
1834.278	138.81
1837.488	139.93
1840.698	140.8
1843.908	140.78
1847.117	143.09
1850.326	144.62
1853.535	144.83
1856.744	146.66
1859.952	148.34
1863.16	148.52
1866.368	149.63
1869.575	148.64
1872.782	149.23
1875.989	148.16
1879.196	148.8
1882.402	146.72
1885.608	147.61
1888.814	147.86
1892.019	148.69
1895.224	146.68
1898.429	147.07
1901.634	148.06
1904.838	149.42
1908.042	150.05
1911.246	150.51
1914.449	150.32
1917.652	151.39
1920.855	151.34
1924.058	150.41
1927.26	149.82
1930.462	150.79
1933.664	150.7
1936.865	150.48
1940.066	149.43
1943.267	147.55
1946.467	148.74
1949.668	148.48
1952.868	148.94
1956.067	148.59
1959.267	150.58
1962.466	151.3
1965.665	152.07
1968.863	153.67
1972.061	154.23
1975.259	157.45
1978.457	159.56
1981.654	160.41
1984.852	162.37
1988.048	163.57
1991.245	167.03
1994.441	169.33
1997.637	173.39
2000.833	176.54
2004.028	178.43
2007.223	185.12
2010.418	188.48
2013.613	196.72
2016.807	202.58
2020.001	206.21
2023.194	211.81
2026.388	218.16
2029.581	229.46
2032.774	235.29
2035.966	243.4
2039.158	250.55
2042.35	253.22
2045.542	256.87
2048.733	266.74
2051.924	269.96
2055.115	275.85
2058.306	278.85
2061.496	282.94
2064.686	282.69
2067.875	280.38
2071.065	282.61
2074.254	283.39
2077.442	292.58
2080.631	295.67
2083.819	295.02
2087.007	300.71
2090.195	303.71
2093.382	304.39
2096.569	305.55
2099.756	310.91
2102.942	318.58
2106.128	327.42
2109.314	326.89
2112.5	325.66
2115.685	325.77
2118.87	326.61
2122.055	327.21
2125.239	334.02
2128.424	342.35
2131.608	340.1
2134.791	338.76
2137.974	341.01
2141.157	342.75
2144.34	347.87
2147.523	353.41
2150.705	361.78
2153.887	358.45
2157.068	363.63
2160.25	366.26
2163.431	364.08
2166.611	370.7
2169.792	378.55
2172.972	384.68
2176.152	383.58
2179.331	393.05
2182.511	393.37
2185.69	396.74
2188.868	414.5
2192.047	420.56
2195.225	427.15
2198.403	435.18
2201.58	429.56
2204.758	443.55
2207.935	446.05
2211.111	455.29
2214.288	457.68
2217.464	462.7
2220.64	466.45
2223.815	465.69
2226.991	466.81
2230.166	469.13
2233.34	483.83
2236.515	498.42
2239.689	487.61
2242.863	495.43
2246.036	488.55
2249.209	502.67
2252.382	500.08
2255.555	518.64
2258.727	521.77
2261.9	530.76
2265.071	539.19
2268.243	532.66
2271.414	549.09
2274.585	565.58
2277.756	565.77
2280.926	588.44
2284.096	587.17
2287.266	593.38
2290.436	577.98
2293.605	591.17
2296.774	617.86
2299.942	617.45
2303.111	634.72
2306.279	648.13
2309.447	648.59
2312.614	650.42
2315.781	667.26
2318.948	675.3
2322.115	688.13
2325.281	729.17
2328.447	728.02
2331.613	722.06
2334.779	734.26
2337.944	748.02
2341.109	760.37
2344.274	766.13
2347.438	791.38
2350.602	800.39
2353.766	844.74
2356.929	848.36
2360.092	859.05
2363.255	858.79
2366.418	877.03
2369.58	897.23
2372.742	892.21
2375.904	886.64
2379.066	916.79
2382.227	964.95
2385.388	974.64
2388.548	927.07
2391.709	918.69
2394.869	946.94
2398.029	949.84
2401.188	946.05
2404.347	972.88
2407.506	1008.02
2410.665	975.07
2413.823	977.98
2416.981	975.19
2420.139	919.88
2423.296	996.91
2426.453	1062.11
2429.61	1012.94
2432.767	1081.95
2435.923	1126.7
2439.079	1076.49
2442.235	1105.41
2445.391	1126.11
2448.546	1120.88
2451.701	1180.37
2454.855	1262.28
2458.009	1109.27
2461.163	1126.64
2464.317	1141.21
2467.471	1115.63
2470.624	1151.4
2473.777	1143.38
2476.929	1103.38
2480.082	1185.31
2483.234	1236.92
2486.385	1259.47
2489.537	1287.67
2492.688	1427.22
2495.839	1405.53
2498.989	1436.94
2502.14	1443.63
2505.29	1377.88
2508.439	1542.3
2511.589	1581.13
2514.738	1528.25
2517.887	1514.94
2521.035	1418.01
2524.183	1396.79
2527.331	1381.36
2530.479	1346.06
2533.627	1384.6
