Data from N_1_hir_il_4n_021_Splice17_06.txt Node
Date: Sat Feb 29 13:41:54 EST 2020
User: sa697716
Spectrometer: FLMS03696
Trigger mode: 0
Integration Time (sec): 3.180400E-1
Scans to average: 20
Electric dark correction enabled: true
Nonlinearity correction enabled: true
Boxcar width: 5
XAxis mode: Wavelengths
Number of Pixels in Spectrum: 2048
>>>>>Begin Spectral Data<<<<<
187.83	62.7
188.298	56.08
188.766	56.19
189.233	61.79
189.701	65.78
190.169	67.67
190.636	79.91
191.104	65.45
191.571	163.87
192.039	172.97
192.506	67.08
192.974	7090.35
193.441	-410.58
193.908	65.54
194.375	88.66
194.842	212.4
195.31	130.56
195.777	182.83
196.244	33.75
196.711	20.37
197.177	14.22
197.644	15.06
198.111	14.06
198.578	14.57
199.045	15.15
199.511	15.8
199.978	15.42
200.445	15.17
200.911	15.01
201.378	15.54
201.844	15.77
202.31	16.64
202.777	16.53
203.243	16.94
203.709	17.28
204.176	16.88
204.642	16.79
205.108	17.14
205.574	17.87
206.04	17.88
206.506	17.76
206.972	17.55
207.438	17.47
207.903	17.4
208.369	17.37
208.835	17.07
209.301	17.25
209.766	17.35
210.232	17.61
210.697	17.18
211.163	17.14
211.628	17.34
212.094	17.48
212.559	17.24
213.024	17.19
213.49	16.91
213.955	16.79
214.42	16.72
214.885	16.41
215.35	16.07
215.815	16.09
216.28	16.07
216.745	15.87
217.21	15.62
217.675	15.52
218.14	15.25
218.604	15.03
219.069	14.96
219.534	14.72
219.998	14.48
220.463	14.35
220.927	14.18
221.392	14
221.856	13.81
222.32	13.67
222.785	13.5
223.249	13.41
223.713	13.37
224.177	13.23
224.642	13.15
225.106	13.05
225.57	12.89
226.034	12.78
226.497	12.63
226.961	12.48
227.425	12.33
227.889	12.22
228.353	12.1
228.816	11.96
229.28	11.81
229.744	11.7
230.207	11.63
230.671	11.52
231.134	11.41
231.597	11.29
232.061	11.19
232.524	11.11
232.987	11.01
233.45	10.91
233.914	10.8
234.377	10.7
234.84	10.59
235.303	10.46
235.766	10.37
236.229	10.26
236.691	10.19
237.154	10.11
237.617	10.01
238.08	9.94
238.542	9.85
239.005	9.76
239.468	9.68
239.93	9.62
240.393	9.56
240.855	9.46
241.317	9.4
241.78	9.34
242.242	9.27
242.704	9.2
243.166	9.13
243.629	9.07
244.091	9.01
244.553	8.95
245.015	8.87
245.477	8.81
245.939	8.76
246.4	8.7
246.862	8.62
247.324	8.6
247.786	8.55
248.247	8.51
248.709	8.46
249.17	8.43
249.632	8.4
250.093	8.35
250.555	8.32
251.016	8.3
251.477	8.26
251.939	8.24
252.4	8.2
252.861	8.17
253.322	8.14
253.783	8.12
254.244	8.09
254.705	8.05
255.166	8.04
255.627	8
256.088	7.96
256.549	7.93
257.009	7.88
257.47	7.86
257.931	7.82
258.391	7.78
258.852	7.74
259.312	7.73
259.773	7.7
260.233	7.67
260.694	7.65
261.154	7.63
261.614	7.59
262.074	7.58
262.534	7.54
262.994	7.52
263.455	7.5
263.915	7.48
264.374	7.45
264.834	7.44
265.294	7.41
265.754	7.39
266.214	7.38
266.673	7.37
267.133	7.35
267.593	7.34
268.052	7.32
268.512	7.31
268.971	7.29
269.431	7.27
269.89	7.25
270.349	7.24
270.809	7.23
271.268	7.21
271.727	7.19
272.186	7.17
272.645	7.16
273.104	7.14
273.563	7.12
274.022	7.11
274.481	7.08
274.94	7.06
275.399	7.04
275.857	7.02
276.316	7
276.775	6.97
277.233	6.95
277.692	6.94
278.15	6.91
278.609	6.88
279.067	6.85
279.525	6.83
279.984	6.8
280.442	6.78
280.9	6.76
281.358	6.73
281.816	6.72
282.274	6.69
282.732	6.67
283.19	6.64
283.648	6.63
284.106	6.61
284.564	6.59
285.021	6.58
285.479	6.56
285.937	6.54
286.394	6.52
286.852	6.5
287.309	6.49
287.767	6.48
288.224	6.47
288.682	6.46
289.139	6.45
289.596	6.43
290.053	6.41
290.511	6.39
290.968	6.38
291.425	6.36
291.882	6.34
292.339	6.32
292.796	6.29
293.252	6.27
293.709	6.25
294.166	6.24
294.623	6.22
295.079	6.2
295.536	6.19
295.992	6.18
296.449	6.16
296.905	6.15
297.362	6.14
297.818	6.12
298.274	6.11
298.731	6.09
299.187	6.08
299.643	6.06
300.099	6.05
300.555	6.03
301.011	6.01
301.467	6
301.923	5.99
302.379	5.98
302.835	5.97
303.291	5.96
303.746	5.95
304.202	5.94
304.658	5.93
305.113	5.91
305.569	5.91
306.024	5.9
306.479	5.88
306.935	5.87
307.39	5.85
307.845	5.84
308.301	5.83
308.756	5.82
309.211	5.81
309.666	5.8
310.121	5.8
310.576	5.79
311.031	5.78
311.486	5.78
311.94	5.77
312.395	5.77
312.85	5.76
313.305	5.75
313.759	5.74
314.214	5.73
314.668	5.73
315.123	5.72
315.577	5.71
316.032	5.7
316.486	5.69
316.94	5.68
317.394	5.67
317.849	5.66
318.303	5.66
318.757	5.65
319.211	5.65
319.665	5.64
320.119	5.62
320.572	5.62
321.026	5.62
321.48	5.6
321.934	5.6
322.387	5.6
322.841	5.59
323.295	5.58
323.748	5.58
324.202	5.57
324.655	5.55
325.108	5.55
325.562	5.53
326.015	5.51
326.468	5.49
326.921	5.47
327.374	5.45
327.827	5.45
328.28	5.43
328.733	5.41
329.186	5.41
329.639	5.4
330.092	5.38
330.545	5.37
330.997	5.36
331.45	5.36
331.903	5.37
332.355	5.37
332.808	5.35
333.26	5.35
333.713	5.34
334.165	5.33
334.617	5.33
335.069	5.32
335.522	5.32
335.974	5.32
336.426	5.3
336.878	5.29
337.33	5.28
337.782	5.29
338.234	5.29
338.686	5.29
339.137	5.29
339.589	5.29
340.041	5.29
340.493	5.28
340.944	5.27
341.396	5.27
341.847	5.26
342.299	5.25
342.75	5.23
343.201	5.23
343.653	5.21
344.104	5.2
344.555	5.17
345.006	5.16
345.457	5.15
345.908	5.15
346.359	5.14
346.81	5.14
347.261	5.12
347.712	5.12
348.163	5.11
348.613	5.09
349.064	5.08
349.515	5.07
349.965	5.07
350.416	5.05
350.866	5.04
351.317	5.03
351.767	5.02
352.217	5
352.668	5
353.118	5
353.568	5
354.018	5.01
354.468	5
354.918	5
355.368	5
355.818	5
356.268	5
356.718	5.01
357.168	5.01
357.617	5
358.067	4.99
358.517	4.98
358.966	4.98
359.416	5
359.865	4.98
360.315	4.98
360.764	4.97
361.213	4.96
361.663	4.95
362.112	4.95
362.561	4.97
363.01	4.97
363.459	4.97
363.908	4.96
364.357	4.95
364.806	4.95
365.255	4.95
365.703	4.95
366.152	4.96
366.601	4.95
367.05	4.96
367.498	4.95
367.947	4.95
368.395	4.97
368.844	4.98
369.292	4.97
369.74	4.98
370.189	4.98
370.637	4.98
371.085	4.98
371.533	4.99
371.981	4.99
372.429	4.98
372.877	4.99
373.325	4.98
373.773	4.98
374.221	5
374.669	5
375.116	5.01
375.564	5.01
376.012	5.02
376.459	5.03
376.907	5.05
377.354	5.07
377.801	5.09
378.249	5.1
378.696	5.12
379.143	5.13
379.591	5.15
380.038	5.17
380.485	5.2
380.932	5.22
381.379	5.21
381.826	5.22
382.273	5.23
382.72	5.23
383.166	5.25
383.613	5.25
384.06	5.27
384.506	5.27
384.953	5.27
385.4	5.27
385.846	5.27
386.292	5.3
386.739	5.32
387.185	5.34
387.631	5.36
388.078	5.38
388.524	5.38
388.97	5.39
389.416	5.4
389.862	5.42
390.308	5.43
390.754	5.46
391.2	5.48
391.645	5.48
392.091	5.49
392.537	5.5
392.983	5.51
393.428	5.54
393.874	5.56
394.319	5.57
394.765	5.59
395.21	5.59
395.655	5.6
396.101	5.6
396.546	5.62
396.991	5.61
397.436	5.6
397.881	5.62
398.326	5.63
398.771	5.65
399.216	5.66
399.661	5.68
400.106	5.7
400.551	5.71
400.995	5.71
401.44	5.71
401.885	5.72
402.329	5.74
402.774	5.73
403.218	5.73
403.663	5.71
404.107	5.72
404.551	5.72
404.995	5.71
405.44	5.71
405.884	5.71
406.328	5.72
406.772	5.71
407.216	5.72
407.66	5.73
408.104	5.72
408.547	5.73
408.991	5.72
409.435	5.71
409.879	5.69
410.322	5.7
410.766	5.69
411.209	5.69
411.653	5.69
412.096	5.68
412.54	5.67
412.983	5.67
413.426	5.68
413.869	5.69
414.312	5.7
414.756	5.72
415.199	5.72
415.642	5.73
416.085	5.74
416.527	5.76
416.97	5.76
417.413	5.77
417.856	5.77
418.298	5.75
418.741	5.76
419.184	5.76
419.626	5.75
420.069	5.75
420.511	5.75
420.953	5.71
421.396	5.71
421.838	5.71
422.28	5.73
422.722	5.72
423.164	5.72
423.606	5.72
424.048	5.69
424.49	5.7
424.932	5.67
425.374	5.67
425.816	5.67
426.258	5.65
426.699	5.63
427.141	5.6
427.582	5.6
428.024	5.58
428.465	5.57
428.907	5.58
429.348	5.57
429.789	5.58
430.231	5.56
430.672	5.55
431.113	5.55
431.554	5.56
431.995	5.55
432.436	5.53
432.877	5.5
433.318	5.49
433.759	5.48
434.2	5.48
434.64	5.47
435.081	5.48
435.522	5.48
435.962	5.48
436.403	5.48
436.843	5.5
437.284	5.51
437.724	5.53
438.164	5.54
438.604	5.55
439.045	5.55
439.485	5.55
439.925	5.54
440.365	5.52
440.805	5.52
441.245	5.51
441.685	5.51
442.125	5.5
442.564	5.48
443.004	5.48
443.444	5.46
443.883	5.47
444.323	5.45
444.762	5.46
445.202	5.5
445.641	5.5
446.081	5.51
446.52	5.52
446.959	5.53
447.398	5.56
447.837	5.58
448.276	5.58
448.716	5.57
449.154	5.61
449.593	5.63
450.032	5.61
450.471	5.61
450.91	5.6
451.349	5.59
451.787	5.59
452.226	5.57
452.664	5.55
453.103	5.56
453.541	5.57
453.98	5.54
454.418	5.52
454.856	5.51
455.295	5.48
455.733	5.48
456.171	5.48
456.609	5.48
457.047	5.47
457.485	5.48
457.923	5.47
458.361	5.44
458.798	5.46
459.236	5.45
459.674	5.45
460.111	5.47
460.549	5.46
460.987	5.46
461.424	5.46
461.862	5.45
462.299	5.44
462.736	5.45
463.173	5.46
463.611	5.43
464.048	5.44
464.485	5.43
464.922	5.42
465.359	5.42
465.796	5.41
466.233	5.4
466.67	5.4
467.106	5.4
467.543	5.39
467.98	5.4
468.416	5.41
468.853	5.42
469.29	5.43
469.726	5.43
470.162	5.42
470.599	5.42
471.035	5.41
471.471	5.41
471.907	5.4
472.344	5.39
472.78	5.39
473.216	5.37
473.652	5.36
474.088	5.36
474.523	5.35
474.959	5.36
475.395	5.35
475.831	5.36
476.266	5.38
476.702	5.38
477.138	5.36
477.573	5.35
478.008	5.36
478.444	5.35
478.879	5.34
479.314	5.33
479.75	5.34
480.185	5.34
480.62	5.34
481.055	5.32
481.49	5.3
481.925	5.31
482.36	5.3
482.795	5.3
483.229	5.28
483.664	5.28
484.099	5.27
484.534	5.26
484.968	5.25
485.403	5.24
485.837	5.24
486.271	5.24
486.706	5.23
487.14	5.24
487.574	5.24
488.009	5.25
488.443	5.26
488.877	5.27
489.311	5.28
489.745	5.28
490.179	5.3
490.613	5.31
491.046	5.32
491.48	5.33
491.914	5.34
492.348	5.35
492.781	5.36
493.215	5.36
493.648	5.37
494.082	5.4
494.515	5.42
494.948	5.43
495.382	5.45
495.815	5.47
496.248	5.49
496.681	5.51
497.114	5.53
497.547	5.55
497.98	5.59
498.413	5.62
498.846	5.64
499.279	5.67
499.711	5.7
500.144	5.73
500.577	5.76
501.009	5.79
501.442	5.84
501.874	5.87
502.306	5.92
502.739	5.95
503.171	6.01
503.603	6.07
504.036	6.12
504.468	6.18
504.9	6.23
505.332	6.3
505.764	6.37
506.196	6.44
506.627	6.51
507.059	6.58
507.491	6.66
507.923	6.72
508.354	6.8
508.786	6.87
509.217	6.95
509.649	7.05
510.08	7.15
510.512	7.24
510.943	7.35
511.374	7.46
511.805	7.56
512.237	7.68
512.668	7.79
513.099	7.91
513.53	8.04
513.961	8.17
514.391	8.29
514.822	8.41
515.253	8.55
515.684	8.67
516.114	8.81
516.545	8.95
516.975	9.1
517.406	9.24
517.836	9.38
518.267	9.53
518.697	9.67
519.127	9.82
519.558	9.97
519.988	10.11
520.418	10.27
520.848	10.41
521.278	10.57
521.708	10.58
522.138	10.71
522.567	10.85
522.997	10.98
523.427	11.13
523.857	11.25
524.286	11.37
524.716	11.5
525.145	11.64
525.575	11.76
526.004	11.87
526.433	12.12
526.863	12.24
527.292	12.35
527.721	12.46
528.15	12.54
528.579	12.65
529.008	12.76
529.437	12.86
529.866	12.94
530.295	13.02
530.724	13.11
531.152	13.19
531.581	13.27
532.01	13.35
532.438	13.41
532.867	13.48
533.295	13.54
533.723	13.6
534.152	13.64
534.58	13.68
535.008	13.72
535.436	13.75
535.865	13.78
536.293	13.81
536.721	13.84
537.149	13.88
537.576	13.91
538.004	13.94
538.432	13.96
538.86	14
539.287	14.02
539.715	14.04
540.143	14.07
540.57	14.09
540.998	14.11
541.425	14.13
541.852	14.15
542.28	14.15
542.707	14.18
543.134	14.2
543.561	14.19
543.988	14.22
544.415	14.24
544.842	14.24
545.269	14.26
545.696	14.27
546.123	14.28
546.549	14.29
546.976	14.32
547.403	14.33
547.829	14.34
548.256	14.35
548.682	14.36
549.108	14.36
549.535	14.37
549.961	14.37
550.387	14.36
550.813	14.36
551.24	14.36
551.666	14.36
552.092	14.35
552.518	14.33
552.943	14.32
553.369	14.31
553.795	14.3
554.221	14.27
554.646	14.26
555.072	14.25
555.498	14.21
555.923	14.18
556.349	14.13
556.774	14.09
557.199	14.06
557.625	14.01
558.05	13.96
558.475	13.92
558.9	13.85
559.325	13.79
559.75	13.71
560.175	13.65
560.6	13.58
561.025	13.51
561.449	13.43
561.874	13.35
562.299	13.27
562.723	13.2
563.148	13.12
563.572	13.03
563.997	12.97
564.421	12.89
564.846	12.8
565.27	12.7
565.694	12.62
566.118	12.54
566.542	12.45
566.966	12.36
567.39	12.26
567.814	12.16
568.238	12.07
568.662	11.97
569.086	11.88
569.509	11.8
569.933	11.71
570.357	11.62
570.78	11.52
571.204	11.42
571.627	11.34
572.05	11.27
572.474	11.19
572.897	11.11
573.32	11.03
573.743	10.95
574.166	10.86
574.589	10.79
575.012	10.72
575.435	10.65
575.858	10.6
576.281	10.52
576.704	10.46
577.126	10.4
577.549	10.35
577.972	10.3
578.394	10.23
578.817	10.19
579.239	10.13
579.661	10.09
580.084	10.03
580.506	9.97
580.928	9.92
581.35	9.86
581.772	9.81
582.194	9.75
582.616	9.71
583.038	9.67
583.46	9.62
583.882	9.58
584.303	9.54
584.725	9.51
585.147	9.48
585.568	9.44
585.99	9.41
586.411	9.37
586.833	9.34
587.254	9.31
587.675	9.28
588.096	9.26
588.518	9.24
588.939	9.21
589.36	9.18
589.781	9.17
590.202	9.15
590.623	9.13
591.043	9.11
591.464	9.09
591.885	9.06
592.305	9.05
592.726	9.01
593.147	8.99
593.567	8.97
593.987	8.95
594.408	8.93
594.828	8.9
595.248	8.88
595.669	8.88
596.089	8.87
596.509	8.83
596.929	8.8
597.349	8.78
597.769	8.77
598.189	8.76
598.608	8.73
599.028	8.69
599.448	8.68
599.867	8.65
600.287	8.63
600.706	8.59
601.126	8.57
601.545	8.55
601.965	8.54
602.384	8.52
602.803	8.48
603.222	8.45
603.641	8.43
604.061	8.39
604.48	8.37
604.898	8.34
605.317	8.31
605.736	8.29
606.155	8.25
606.574	8.22
606.992	8.17
607.411	8.15
607.829	8.08
608.248	8.05
608.666	8.01
609.085	7.96
609.503	7.92
609.921	7.88
610.339	7.84
610.758	7.8
611.176	7.75
611.594	7.72
612.012	7.67
612.43	7.67
612.847	7.64
613.265	7.61
613.683	7.58
614.101	7.54
614.518	7.5
614.936	7.47
615.353	7.45
615.771	7.41
616.188	7.39
616.606	7.36
617.023	7.34
617.44	7.31
617.857	7.27
618.274	7.25
618.691	7.24
619.108	7.22
619.525	7.19
619.942	7.17
620.359	7.17
620.776	7.16
621.192	7.15
621.609	7.13
622.026	7.11
622.442	7.11
622.859	7.1
623.275	7.09
623.691	7.08
624.108	7.08
624.524	7.07
624.94	7.05
625.356	7.03
625.772	7.03
626.188	7.03
626.604	7.03
627.02	7.01
627.436	7
627.852	6.97
628.268	6.96
628.683	6.95
629.099	6.94
629.514	6.94
629.93	6.94
630.345	6.92
630.761	6.89
631.176	6.88
631.591	6.88
632.007	6.86
632.422	6.86
632.837	6.84
633.252	6.82
633.667	6.79
634.082	6.76
634.497	6.73
634.911	6.69
635.326	6.66
635.741	6.64
636.155	6.61
636.57	6.57
636.984	6.52
637.399	6.47
637.813	6.41
638.228	6.37
638.642	6.32
639.056	6.28
639.47	6.25
639.884	6.2
640.298	6.15
640.712	6.1
641.126	6.05
641.54	6.02
641.954	5.99
642.368	5.97
642.781	5.94
643.195	5.9
643.609	5.87
644.022	5.83
644.436	5.78
644.849	5.74
645.262	5.72
645.676	5.68
646.089	5.65
646.502	5.62
646.915	5.59
647.328	5.56
647.741	5.54
648.154	5.53
648.567	5.52
648.98	5.5
649.393	5.49
649.805	5.46
650.218	5.45
650.631	5.44
651.043	5.43
651.456	5.43
651.868	5.41
652.28	5.4
652.693	5.37
653.105	5.35
653.517	5.34
653.929	5.33
654.341	5.34
654.753	5.32
655.165	5.31
655.577	5.28
655.989	5.25
656.401	5.23
656.813	5.2
657.224	5.18
657.636	5.15
658.047	5.12
658.459	5.09
658.87	5.05
659.282	5.05
659.693	5.02
660.104	5
660.515	4.99
660.926	4.97
661.338	4.96
661.749	4.93
662.159	4.91
662.57	4.9
662.981	4.88
663.392	4.86
663.803	4.83
664.213	4.82
664.624	4.82
665.035	4.8
665.445	4.78
665.855	4.78
666.266	4.78
666.676	4.78
667.086	4.77
667.497	4.77
667.907	4.76
668.317	4.75
668.727	4.74
669.137	4.74
669.547	4.73
669.956	4.73
670.366	4.73
670.776	4.72
671.186	4.73
671.595	4.73
672.005	4.75
672.414	4.76
672.824	4.79
673.233	4.82
673.642	4.82
674.052	4.84
674.461	4.85
674.87	4.86
675.279	4.88
675.688	4.89
676.097	4.92
676.506	4.94
676.915	4.95
677.323	4.96
677.732	4.97
678.141	4.99
678.549	5.01
678.958	5.05
679.366	5.06
679.775	5.08
680.183	5.11
680.592	5.12
681	5.13
681.408	5.17
681.816	5.19
682.224	5.22
682.632	5.27
683.04	5.3
683.448	5.34
683.856	5.4
684.264	5.44
684.671	5.51
685.079	5.57
685.487	5.65
685.894	5.71
686.302	5.79
686.709	5.87
687.116	5.96
687.524	6.06
687.931	6.16
688.338	6.3
688.745	6.44
689.152	6.58
689.559	6.74
689.966	6.91
690.373	7.11
690.78	7.31
691.187	7.52
691.593	7.74
692	7.97
692.407	8.22
692.813	8.47
693.22	8.73
693.626	9.01
694.032	9.3
694.439	9.59
694.845	9.89
695.251	10.21
695.657	10.52
696.063	10.85
696.469	11.2
696.875	11.52
697.281	11.83
697.687	12.17
698.093	12.51
698.498	12.86
698.904	13.21
699.31	13.56
699.715	13.91
700.12	14.26
700.526	14.59
700.931	14.93
701.337	15.27
701.742	15.6
702.147	15.94
702.552	16.29
702.957	16.63
703.362	16.98
703.767	17.31
704.172	17.63
704.577	17.95
704.981	18.27
705.386	18.6
705.791	18.95
706.195	19.29
706.6	19.61
707.004	19.91
707.408	20.22
707.813	20.52
708.217	20.82
708.621	21.13
709.025	21.44
709.43	21.74
709.834	22.05
710.237	22.33
710.641	22.65
711.045	22.93
711.449	23.24
711.853	23.55
712.256	23.85
712.66	24.15
713.064	24.43
713.467	24.71
713.87	25
714.274	25.28
714.677	25.56
715.08	25.8
715.484	26.09
715.887	26.35
716.29	26.59
716.693	26.83
717.096	27.09
717.499	27.35
717.901	27.59
718.304	27.83
718.707	28.07
719.109	28.32
719.512	28.57
719.915	28.81
720.317	29.07
720.719	29.28
721.122	29.49
721.524	29.7
721.926	29.95
722.328	30.15
722.731	30.35
723.133	30.56
723.535	30.74
723.937	30.93
724.338	31.09
724.74	31.24
725.142	31.4
725.544	31.57
725.945	31.72
726.347	31.87
726.748	32
727.15	32.15
727.551	32.28
727.952	32.43
728.354	32.55
728.755	32.72
729.156	32.86
729.557	33.04
729.958	33.18
730.359	33.32
730.76	33.39
731.161	33.54
731.562	33.69
731.962	33.81
732.363	33.9
732.763	34
733.164	34.05
733.564	34.14
733.965	34.22
734.365	34.29
734.766	34.35
735.166	34.42
735.566	34.46
735.966	34.47
736.366	34.53
736.766	34.6
737.166	34.69
737.566	34.74
737.966	34.8
738.365	34.84
738.765	34.89
739.165	34.94
739.564	35.01
739.964	35.09
740.363	35.14
740.763	35.18
741.162	35.21
741.561	35.24
741.96	35.31
742.36	35.33
742.759	35.34
743.158	35.36
743.557	35.4
743.955	35.46
744.354	35.46
744.753	35.53
745.152	35.56
745.55	35.57
745.949	35.6
746.348	35.63
746.746	35.65
747.144	35.69
747.543	35.73
747.941	35.76
748.339	35.78
748.737	35.84
749.136	35.84
749.534	35.87
749.932	35.91
750.33	35.91
750.727	35.93
751.125	35.95
751.523	35.96
751.921	35.98
752.318	35.96
752.716	35.97
753.113	35.96
753.511	35.95
753.908	35.95
754.305	35.95
754.703	35.92
755.1	35.9
755.497	35.89
755.894	35.89
756.291	35.86
756.688	35.86
757.085	35.83
757.482	35.82
757.878	35.82
758.275	35.81
758.672	35.82
759.068	35.83
759.465	35.86
759.861	35.84
760.258	35.84
760.654	35.83
761.05	35.86
761.447	35.87
761.843	35.86
762.239	35.87
762.635	35.86
763.031	35.86
763.427	35.86
763.822	35.86
764.218	35.86
764.614	35.87
765.01	35.88
765.405	35.84
765.801	35.85
766.196	35.87
766.592	35.85
766.987	35.86
767.382	35.83
767.778	35.85
768.173	35.83
768.568	35.82
768.963	35.83
769.358	35.85
769.753	35.9
770.148	35.89
770.542	35.87
770.937	35.86
771.332	35.87
771.726	35.86
772.121	35.84
772.515	35.86
772.91	35.86
773.304	35.85
773.699	35.82
774.093	35.82
774.487	35.8
774.881	35.81
775.275	35.82
775.669	35.81
776.063	35.81
776.457	35.8
776.851	35.78
777.245	35.79
777.638	35.77
778.032	35.8
778.425	35.79
778.819	35.8
779.212	35.78
779.606	35.78
779.999	35.76
780.392	35.77
780.786	35.8
781.179	35.82
781.572	35.81
781.965	35.83
782.358	35.8
782.751	35.79
783.143	35.79
783.536	35.81
783.929	35.81
784.322	35.84
784.714	35.85
785.107	35.85
785.499	35.83
785.891	35.87
786.284	35.84
786.676	35.83
787.068	35.85
787.46	35.85
787.852	35.84
788.245	35.83
788.636	35.8
789.028	35.78
789.42	35.75
789.812	35.76
790.204	35.7
790.595	35.71
790.987	35.71
791.378	35.7
791.77	35.7
792.161	35.71
792.553	35.7
792.944	35.73
793.335	35.73
793.726	35.73
794.117	35.75
794.508	35.76
794.899	35.76
795.29	35.74
795.681	35.75
796.072	35.76
796.463	35.75
796.853	35.76
797.244	35.75
797.634	35.73
798.025	35.75
798.415	35.72
798.806	35.71
799.196	35.72
799.586	35.72
799.976	35.69
800.366	35.67
800.756	35.68
801.146	35.7
801.536	35.67
801.926	35.69
802.316	35.67
802.706	35.67
803.095	35.69
803.485	35.69
803.874	35.69
804.264	35.69
804.653	35.7
805.043	35.69
805.432	35.65
805.821	35.67
806.21	35.66
806.599	35.69
806.988	35.7
807.377	35.71
807.766	35.71
808.155	35.71
808.544	35.69
808.933	35.68
809.321	35.66
809.71	35.7
810.098	35.66
810.487	35.67
810.875	35.63
811.264	35.62
811.652	35.62
812.04	35.59
812.428	35.57
812.816	35.61
813.204	35.6
813.592	35.61
813.98	35.58
814.368	35.61
814.756	35.58
815.144	35.6
815.531	35.61
815.919	35.59
816.306	35.59
816.694	35.62
817.081	35.56
817.469	35.56
817.856	35.58
818.243	35.57
818.63	35.58
819.017	35.61
819.404	35.59
819.791	35.58
820.178	35.58
820.565	35.59
820.952	35.6
821.339	35.62
821.725	35.63
822.112	35.62
822.498	35.61
822.885	35.62
823.271	35.61
823.657	35.62
824.044	35.63
824.43	35.63
824.816	35.62
825.202	35.62
825.588	35.65
825.974	35.64
826.36	35.61
826.746	35.62
827.132	35.6
827.517	35.57
827.903	35.55
828.289	35.56
828.674	35.55
829.06	35.57
829.445	35.6
829.83	35.59
830.216	35.59
830.601	35.59
830.986	35.6
831.371	35.61
831.756	35.61
832.141	35.62
832.526	35.59
832.911	35.61
833.295	35.61
833.68	35.61
834.065	35.62
834.449	35.61
834.834	35.6
835.218	35.58
835.603	35.57
835.987	35.59
836.371	35.6
836.755	35.62
837.139	35.61
837.524	35.61
837.908	35.58
838.291	35.56
838.675	35.55
839.059	35.56
839.443	35.6
839.827	35.59
840.21	35.6
840.594	35.59
840.977	35.56
841.361	35.55
841.744	35.55
842.127	35.54
842.511	35.55
842.894	35.55
843.277	35.55
843.66	35.54
844.043	35.54
844.426	35.5
844.809	35.53
845.191	35.52
845.574	35.51
845.957	35.48
846.339	35.48
846.722	35.47
847.104	35.46
847.487	35.46
847.869	35.46
848.252	35.44
848.634	35.46
849.016	35.44
849.398	35.46
849.78	35.45
850.162	35.46
850.544	35.45
850.926	35.44
851.307	35.45
851.689	35.43
852.071	35.4
852.452	35.42
852.834	35.41
853.215	35.41
853.597	35.43
853.978	35.42
854.359	35.45
854.741	35.43
855.122	35.45
855.503	35.46
855.884	35.44
856.265	35.46
856.646	35.45
857.026	35.47
857.407	35.44
857.788	35.46
858.169	35.44
858.549	35.44
858.93	35.47
859.31	35.45
859.69	35.42
860.071	35.43
860.451	35.43
860.831	35.43
861.211	35.41
861.591	35.43
861.971	35.38
862.351	35.41
862.731	35.39
863.111	35.38
863.491	35.39
863.87	35.4
864.25	35.42
864.629	35.42
865.009	35.4
865.388	35.38
865.768	35.37
866.147	35.38
866.526	35.37
866.905	35.36
867.284	35.34
867.663	35.34
868.042	35.33
868.421	35.31
868.8	35.31
869.179	35.35
869.558	35.37
869.936	35.39
870.315	35.38
870.693	35.37
871.072	35.39
871.45	35.39
871.828	35.41
872.207	35.42
872.585	35.42
872.963	35.42
873.341	35.42
873.719	35.41
874.097	35.41
874.475	35.42
874.853	35.42
875.23	35.41
875.608	35.41
875.986	35.38
876.363	35.38
876.741	35.39
877.118	35.38
877.495	35.37
877.873	35.37
878.25	35.35
878.627	35.37
879.004	35.39
879.381	35.4
879.758	35.41
880.135	35.4
880.512	35.38
880.889	35.39
881.265	35.39
881.642	35.39
882.019	35.4
882.395	35.41
882.772	35.4
883.148	35.38
883.524	35.38
883.901	35.4
884.277	35.41
884.653	35.44
885.029	35.42
885.405	35.42
885.781	35.4
886.157	35.41
886.532	35.39
886.908	35.4
887.284	35.42
887.659	35.45
888.035	35.44
888.411	35.44
888.786	35.42
889.161	35.43
889.537	35.42
889.912	35.42
890.287	35.39
890.662	35.39
891.037	35.37
891.412	35.34
891.787	35.33
892.162	35.31
892.536	35.29
892.911	35.29
893.286	35.27
893.66	35.27
894.035	35.25
894.409	35.27
894.784	35.26
895.158	35.26
895.532	35.24
895.906	35.24
896.281	35.25
896.655	35.24
897.029	35.23
897.402	35.21
897.776	35.2
898.15	35.2
898.524	35.18
898.898	35.19
899.271	35.19
899.645	35.19
900.018	35.16
900.392	35.14
900.765	35.16
901.138	35.16
901.511	35.18
901.884	35.18
902.258	35.16
902.631	35.17
903.003	35.17
903.376	35.17
903.749	35.18
904.122	35.19
904.495	35.21
904.867	35.21
905.24	35.22
905.612	35.22
905.985	35.22
906.357	35.24
906.729	35.22
907.102	35.2
907.474	35.2
907.846	35.19
908.218	35.18
908.59	35.14
908.962	35.11
909.334	35.11
909.705	35.1
910.077	35.07
910.449	35.07
910.82	35.08
911.192	35.1
911.563	35.06
911.935	35.06
912.306	35.07
912.677	35.1
913.048	35.09
913.419	35.07
913.79	35.07
914.161	35.08
914.532	35.09
914.903	35.09
915.274	35.07
915.645	35.08
916.015	35.09
916.386	35.06
916.756	35.04
917.127	35.07
917.497	35.08
917.868	35.09
918.238	35.1
918.608	35.12
918.978	35.1
919.348	35.1
919.718	35.12
920.088	35.13
920.458	35.18
920.828	35.22
921.198	35.23
921.567	35.23
921.937	35.24
922.306	35.25
922.676	35.23
923.045	35.22
923.415	35.21
923.784	35.22
924.153	35.18
924.522	35.15
924.891	35.12
925.26	35.07
925.629	35.06
925.998	35.04
926.367	35.05
926.736	35.04
927.104	35.05
927.473	35.08
927.842	35.06
928.21	35.08
928.578	35.09
928.947	35.08
929.315	35.11
929.683	35.08
930.051	35.06
930.42	35.01
930.788	35
931.156	35.03
931.523	35.01
931.891	34.95
932.259	34.93
932.627	34.9
932.994	34.87
933.362	34.82
933.729	34.78
934.097	34.77
934.464	34.8
934.831	34.79
935.199	34.7
935.566	34.67
935.933	34.69
936.3	34.68
936.667	34.68
937.034	34.71
937.401	34.67
937.767	34.7
938.134	34.63
938.501	34.55
938.867	34.52
939.234	34.54
939.6	34.52
939.967	34.49
940.333	34.55
940.699	34.52
941.065	34.53
941.431	34.57
941.798	34.63
942.163	34.73
942.529	34.76
942.895	34.8
943.261	34.8
943.627	34.8
943.992	34.87
944.358	34.75
944.723	34.69
945.089	34.71
945.454	34.82
945.82	34.75
946.185	34.78
946.55	34.82
946.915	34.84
947.28	34.8
947.645	34.89
948.01	34.86
948.375	34.93
948.74	34.93
949.104	34.91
949.469	34.81
949.834	34.86
950.198	34.83
950.562	34.83
950.927	34.8
951.291	34.74
951.655	34.65
952.02	34.6
952.384	34.61
952.748	34.58
953.112	34.6
953.476	34.59
953.839	34.58
954.203	34.6
954.567	34.55
954.931	34.54
955.294	34.58
955.658	34.61
956.021	34.69
956.385	34.69
956.748	34.73
957.111	34.68
957.474	34.7
957.837	34.69
958.2	34.66
958.563	34.67
958.926	34.64
959.289	34.68
959.652	34.68
960.015	34.59
960.377	34.59
960.74	34.54
961.102	34.55
961.465	34.52
961.827	34.47
962.189	34.38
962.552	34.36
962.914	34.34
963.276	34.34
963.638	34.25
964	34.29
964.362	34.24
964.724	34.29
965.085	34.31
965.447	34.29
965.809	34.29
966.17	34.38
966.532	34.4
966.893	34.43
967.255	34.39
967.616	34.45
967.977	34.47
968.338	34.5
968.699	34.49
969.061	34.41
969.421	34.43
969.782	34.44
970.143	34.39
970.504	34.4
970.865	34.3
971.225	34.3
971.586	34.37
971.946	34.37
972.307	34.33
972.667	34.32
973.027	34.42
973.388	34.41
973.748	34.4
974.108	34.47
974.468	34.46
974.828	34.55
975.188	34.59
975.548	34.59
975.907	34.6
976.267	34.6
976.627	34.62
976.986	34.6
977.346	34.57
977.705	34.55
978.064	34.53
978.424	34.51
978.783	34.5
979.142	34.42
979.501	34.33
979.86	34.27
980.219	34.23
980.578	34.17
980.937	34.17
981.296	34.19
981.654	34.29
982.013	34.29
982.371	34.28
982.73	34.25
983.088	34.23
983.447	34.31
983.805	34.3
984.163	34.36
984.521	34.29
984.879	34.34
985.237	34.45
985.595	34.45
985.953	34.41
986.311	34.5
986.669	34.52
987.026	34.58
987.384	34.59
987.741	34.66
988.099	34.68
988.456	34.77
988.814	34.72
989.171	34.65
989.528	34.45
989.885	34.49
990.242	34.42
990.599	34.42
990.956	34.44
991.313	34.38
991.67	34.36
992.027	34.31
992.383	34.31
992.74	34.21
993.096	34.17
993.453	34.32
993.809	34.3
994.165	34.37
994.522	34.37
994.878	34.41
995.234	34.36
995.59	34.22
995.946	34.16
996.302	34.18
996.658	34.2
997.013	34.28
997.369	34.31
997.725	34.22
998.08	34.13
998.436	34.23
998.791	34.12
999.147	34.25
999.502	34.37
999.857	34.42
1000.212	34.37
1000.567	34.34
1000.922	34.22
1001.277	34.15
1001.632	34.32
1001.987	34.35
1002.342	34.22
1002.696	34.16
1003.051	33.92
1003.406	33.92
1003.76	33.86
1004.114	33.86
1004.469	33.86
1004.823	33.96
1005.177	34.05
1005.531	33.9
1005.885	33.78
1006.239	33.73
1006.593	33.74
1006.947	33.81
1007.301	33.75
1007.655	33.89
1008.008	33.76
1008.362	33.81
1008.715	33.63
1009.069	33.36
1009.422	33.35
1009.776	33.55
1010.129	33.5
1010.482	33.53
1010.835	33.41
1011.188	33.24
1011.541	33.01
1011.894	33.1
1012.247	32.95
1012.6	32.91
1012.952	32.91
1013.305	32.8
1013.657	32.73
1014.01	32.84
1014.362	32.83
1014.715	32.99
1015.067	33.14
1015.419	33.38
1015.771	33.47
1016.123	33.4
1016.475	33.58
1016.827	33.75
1017.179	33.73
1017.531	33.59
1017.883	33.58
1018.234	33.56
1018.586	33.5
1018.938	33.24
1019.289	32.99
1019.64	33.22
1019.992	33.7
1020.343	33.63
1020.694	33.35
1021.045	33.36
1021.396	33.41
1021.747	33.62
1022.098	33.48
1022.449	33.38
1022.8	33.43
1023.151	33.25
1023.501	32.79
1023.852	32.16
1024.202	31.83
1024.553	32.09
1024.903	32.43
1025.253	32.45
1025.604	32.39
1025.954	32.56
1026.304	32.8
1026.654	33.4
1027.004	33.78
1027.354	33.63
1027.703	33.79
1028.053	33.84
1028.403	33.94
1028.753	34.11
1029.102	33.84
1029.452	33.29
1029.801	33.08
1030.15	33
1030.499	32.47
897.758	522.2
901.051	525.79
904.343	534.06
907.636	527.03
910.928	516.27
914.22	522.67
917.511	511.48
920.803	489.47
924.094	469.13
927.384	472.72
930.675	452.66
933.965	448.96
937.255	451.79
940.544	428.99
943.834	410.7
947.123	404.77
950.411	383.67
953.7	374.54
956.988	364.64
960.276	349.04
963.563	344.06
966.851	327.88
970.138	321.95
973.424	298.95
976.711	294.38
979.997	283.7
983.283	277.89
986.568	269.7
989.853	261.79
993.138	251.76
996.423	247.32
999.708	239.44
1002.992	240.28
1006.275	233.22
1009.559	232.55
1012.842	225.42
1016.125	217.54
1019.408	213.66
1022.69	211.53
1025.972	210.21
1029.254	204.35
1032.536	201.46
1035.817	195.02
1039.098	191.56
1042.379	188.26
1045.659	184.84
1048.939	183.53
1052.219	181.54
1055.498	177.31
1058.778	174.46
1062.057	170.95
1065.335	170.5
1068.614	167.75
1071.892	165.42
1075.17	162.54
1078.447	159.51
1081.724	157.98
1085.001	154.74
1088.278	153.56
1091.554	153.5
1094.83	151.59
1098.106	149.42
1101.382	148.46
1104.657	147.16
1107.932	147.56
1111.206	146.64
1114.481	144.53
1117.755	143.15
1121.029	143.05
1124.302	140.99
1127.575	138.57
1130.848	138.31
1134.121	136.34
1137.393	135.51
1140.665	134.02
1143.937	132.07
1147.208	131.13
1150.48	130.42
1153.75	129.89
1157.021	128.72
1160.291	128.26
1163.561	127.74
1166.831	126.77
1170.101	126.69
1173.37	126.74
1176.639	125.86
1179.907	125.6
1183.176	124.28
1186.444	124.89
1189.711	123.65
1192.979	124.94
1196.246	125.08
1199.513	124.09
1202.78	124.83
1206.046	124.75
1209.312	124.89
1212.578	125.77
1215.843	127.41
1219.108	128.93
1222.373	130.72
1225.638	133.21
1228.902	135.16
1232.166	139.19
1235.43	141.8
1238.693	146.4
1241.956	149.04
1245.219	152.09
1248.482	153.25
1251.744	152.83
1255.006	153.73
1258.268	149.54
1261.529	148.55
1264.79	144.59
1268.051	140.69
1271.312	140.69
1274.572	136.52
1277.832	134.02
1281.092	133.05
1284.351	130.57
1287.61	130.59
1290.869	129.31
1294.128	128.93
1297.386	129.37
1300.644	128.77
1303.902	128.41
1307.159	128.39
1310.416	129.28
1313.673	130.6
1316.93	130.9
1320.186	133.24
1323.442	134.61
1326.697	137.94
1329.953	139.51
1333.208	142.81
1336.463	148.91
1339.717	152.22
1342.972	158
1346.226	162.84
1349.479	164.64
1352.733	172.44
1355.986	175.52
1359.238	179.48
1362.491	180.42
1365.743	187.84
1368.995	188.61
1372.247	188.8
1375.498	188.95
1378.749	195.47
1382	192.95
1385.251	193.83
1388.501	192.33
1391.751	195.83
1395	194.97
1398.25	196.09
1401.499	195.08
1404.748	195.64
1407.996	191.24
1411.244	191.51
1414.492	187.28
1417.74	184.69
1420.987	179.41
1424.234	175.77
1427.481	169.88
1430.728	164.09
1433.974	158.7
1437.22	152.5
1440.465	147.16
1443.711	143.03
1446.956	137.88
1450.201	133.5
1453.445	126.51
1456.689	123.28
1459.933	119.42
1463.177	114.38
1466.42	111.81
1469.663	108.44
1472.906	105.85
1476.148	102.93
1479.391	100.43
1482.633	99.32
1485.874	96.54
1489.115	95.98
1492.356	93.46
1495.597	92.4
1498.838	91.34
1502.078	90.93
1505.318	90.7
1508.557	89.62
1511.797	88.31
1515.036	88.32
1518.274	87.75
1521.513	86.48
1524.751	86.2
1527.989	86.84
1531.227	86.41
1534.464	85.66
1537.701	85.4
1540.938	85
1544.174	84.83
1547.41	85.14
1550.646	84.63
1553.882	84.28
1557.117	84.79
1560.352	84.04
1563.587	83.34
1566.821	83.34
1570.055	83.43
1573.289	83.06
1576.523	83.04
1579.756	82.24
1582.989	82.54
1586.222	82.7
1589.454	81.98
1592.686	81.59
1595.918	81.85
1599.15	81.7
1602.381	81.96
1605.612	81.7
1608.843	81.11
1612.073	81.88
1615.303	82.49
1618.533	81.7
1621.762	81.42
1624.992	82.44
1628.221	82.4
1631.449	82.98
1634.678	82.5
1637.906	82.23
1641.134	82.31
1644.361	82.73
1647.588	81.8
1650.815	82.03
1654.042	82.4
1657.269	82.06
1660.495	82.33
1663.72	82.76
1666.946	82
1670.171	82.9
1673.396	83.22
1676.621	83.59
1679.845	83.95
1683.069	83.9
1686.293	83.74
1689.517	83.65
1692.74	83.82
1695.963	83.86
1699.185	83.59
1702.408	84.37
1705.63	84.37
1708.852	85.05
1712.073	84.76
1715.294	84.65
1718.515	85.79
1721.736	86.24
1724.956	86.3
1728.176	86.55
1731.396	86.74
1734.616	87.02
1737.835	87.03
1741.054	86.87
1744.272	86.38
1747.491	86.3
1750.709	86.99
1753.927	86.7
1757.144	87.22
1760.361	87.37
1763.578	87.66
1766.795	88.44
1770.011	88.5
1773.227	88.94
1776.443	90.22
1779.658	89.92
1782.874	90.64
1786.089	90.73
1789.303	91.05
1792.518	91.73
1795.732	92.5
1798.945	93.87
1802.159	93.55
1805.372	94.84
1808.585	95.43
1811.797	95.37
1815.01	97.17
1818.222	98.21
1821.434	99.28
1824.645	99.68
1827.856	100.5
1831.067	101.16
1834.278	101.92
1837.488	103.03
1840.698	103.45
1843.908	103.8
1847.117	105.47
1850.326	105.64
1853.535	106.16
1856.744	107.46
1859.952	109.04
1863.16	109.15
1866.368	108.93
1869.575	109.92
1872.782	108.95
1875.989	108.7
1879.196	108.34
1882.402	106.72
1885.608	108.15
1888.814	108.26
1892.019	107.75
1895.224	106.34
1898.429	106.92
1901.634	108.55
1904.838	107.54
1908.042	108.05
1911.246	108.55
1914.449	109.73
1917.652	110.55
1920.855	109.39
1924.058	108.22
1927.26	108.29
1930.462	108.93
1933.664	108.28
1936.865	107.75
1940.066	107.97
1943.267	107.74
1946.467	107.81
1949.668	107.96
1952.868	107.7
1956.067	108.18
1959.267	110.02
1962.466	110.5
1965.665	111.08
1968.863	112.31
1972.061	112.46
1975.259	114.73
1978.457	115.98
1981.654	117.36
1984.852	117.6
1988.048	119.21
1991.245	121.01
1994.441	122.97
1997.637	124.57
2000.833	127.36
2004.028	128.14
2007.223	132.17
2010.418	133.99
2013.613	139.87
2016.807	143.11
2020.001	146.59
2023.194	152.01
2026.388	155.97
2029.581	163.4
2032.774	168.59
2035.966	174.49
2039.158	180
2042.35	183.71
2045.542	185.71
2048.733	194.67
2051.924	196.72
2055.115	198.15
2058.306	198.67
2061.496	203.2
2064.686	203.3
2067.875	204.15
2071.065	203.85
2074.254	205.54
2077.442	211.81
2080.631	214.61
2083.819	212.36
2087.007	217.66
2090.195	223.69
2093.382	222.99
2096.569	223.7
2099.756	228.54
2102.942	232.37
2106.128	238.24
2109.314	239.26
2112.5	238.34
2115.685	236.4
2118.87	237.73
2122.055	237.48
2125.239	241.04
2128.424	249.17
2131.608	246.4
2134.791	242.14
2137.974	245.1
2141.157	246.91
2144.34	248.82
2147.523	251.21
2150.705	259.19
2153.887	257.33
2157.068	260.5
2160.25	262.52
2163.431	259.74
2166.611	266.31
2169.792	273.82
2172.972	276
2176.152	278.14
2179.331	283.86
2182.511	285.17
2185.69	288.38
2188.868	301.31
2192.047	305.3
2195.225	310.47
2198.403	315.03
2201.58	311.09
2204.758	322.84
2207.935	325.02
2211.111	329.34
2214.288	331.41
2217.464	337.42
2220.64	338.08
2223.815	336.4
2226.991	331.09
2230.166	335.36
2233.34	345.87
2236.515	354.48
2239.689	348.61
2242.863	354.81
2246.036	351.07
2249.209	358.47
2252.382	358.09
2255.555	372.75
2258.727	374.75
2261.9	389.91
2265.071	393.56
2268.243	389.66
2271.414	403.1
2274.585	407.97
2277.756	409.53
2280.926	426.62
2284.096	424.15
2287.266	425.83
2290.436	417.04
2293.605	427.13
2296.774	441.65
2299.942	438.67
2303.111	452.78
2306.279	458.02
2309.447	463.32
2312.614	463.09
2315.781	473.83
2318.948	486
2322.115	495.49
2325.281	518.06
2328.447	515.11
2331.613	517.64
2334.779	531.3
2337.944	533.88
2341.109	543.38
2344.274	549.33
2347.438	571.82
2350.602	581.81
2353.766	614.29
2356.929	617.69
2360.092	621.17
2363.255	623.81
2366.418	632.23
2369.58	643.75
2372.742	649.2
2375.904	648.54
2379.066	665.7
2382.227	699.04
2385.388	694.09
2388.548	660.29
2391.709	653.72
2394.869	683.57
2398.029	682.59
2401.188	683.08
2404.347	698.8
2407.506	721.52
2410.665	694.73
2413.823	702.35
2416.981	696.9
2420.139	664.42
2423.296	716.25
2426.453	761.11
2429.61	724.31
2432.767	774.78
2435.923	801.01
2439.079	774.44
2442.235	794.92
2445.391	810.48
2448.546	800.11
2451.701	851.59
2454.855	904.25
2458.009	801.36
2461.163	814.22
2464.317	824.35
2467.471	808.97
2470.624	836.48
2473.777	825.94
2476.929	798.43
2480.082	854.43
2483.234	893.16
2486.385	891.22
2489.537	921.32
2492.688	1012.7
2495.839	998.37
2498.989	1028
2502.14	1027.93
2505.29	974.2
2508.439	1096.1
2511.589	1122.15
2514.738	1087.86
2517.887	1081.5
2521.035	1027.7
2524.183	1006.92
2527.331	1000.54
2530.479	978
2533.627	997.94
