Data from N_1_dec_nc_4n_037_Splice17_18.txt Node
Date: Sat Feb 29 13:49:04 EST 2020
User: sa697716
Spectrometer: FLMS03696
Trigger mode: 0
Integration Time (sec): 3.180400E-1
Scans to average: 20
Electric dark correction enabled: true
Nonlinearity correction enabled: true
Boxcar width: 5
XAxis mode: Wavelengths
Number of Pixels in Spectrum: 2048
>>>>>Begin Spectral Data<<<<<
187.83	76.98
188.298	77.99
188.766	76.22
189.233	60.34
189.701	79.62
190.169	86.48
190.636	96.4
191.104	90.34
191.571	212.9
192.039	213.7
192.506	144.39
192.974	1567.28
193.441	113.95
193.908	52.13
194.375	-32.35
194.842	40.37
195.31	96.88
195.777	63.42
196.244	68.57
196.711	76.24
197.177	75.66
197.644	74.57
198.111	75.35
198.578	76.41
199.045	77.17
199.511	77.42
199.978	78.19
200.445	78.04
200.911	78.63
201.378	78.55
201.844	79.05
202.31	79.36
202.777	79.79
203.243	79.84
203.709	79.65
204.176	78.81
204.642	78.27
205.108	77.33
205.574	76.99
206.04	76.8
206.506	76.34
206.972	75.47
207.438	74.59
207.903	73.32
208.369	71.71
208.835	70.68
209.301	69.73
209.766	68.07
210.232	67.12
210.697	65.6
211.163	63.68
211.628	62.17
212.094	60.68
212.559	59.28
213.024	57.93
213.49	56.72
213.955	54.97
214.42	53.38
214.885	51.62
215.35	49.21
215.815	46.09
216.28	42.91
216.745	39.19
217.21	35.33
217.675	31.65
218.14	28.24
218.604	25.21
219.069	22.82
219.534	20.67
219.998	18.95
220.463	17.45
220.927	16.32
221.392	15.31
221.856	14.47
222.32	13.75
222.785	13.14
223.249	12.64
223.713	12.21
224.177	11.69
224.642	11.36
225.106	10.99
225.57	10.64
226.034	10.3
226.497	10.02
226.961	9.71
227.425	9.41
227.889	9.16
228.353	8.91
228.816	8.71
229.28	8.5
229.744	8.29
230.207	8.11
230.671	7.95
231.134	7.8
231.597	7.62
232.061	7.47
232.524	7.37
232.987	7.22
233.45	7.1
233.914	6.96
234.377	6.89
234.84	6.78
235.303	6.68
235.766	6.59
236.229	6.5
236.691	6.42
237.154	6.37
237.617	6.3
238.08	6.24
238.542	6.19
239.005	6.12
239.468	6.04
239.93	5.99
240.393	5.93
240.855	5.85
241.317	5.78
241.78	5.72
242.242	5.64
242.704	5.58
243.166	5.52
243.629	5.45
244.091	5.41
244.553	5.36
245.015	5.3
245.477	5.24
245.939	5.19
246.4	5.15
246.862	5.09
247.324	5.05
247.786	5.01
248.247	4.96
248.709	4.91
249.17	4.86
249.632	4.81
250.093	4.75
250.555	4.71
251.016	4.67
251.477	4.63
251.939	4.59
252.4	4.55
252.861	4.5
253.322	4.46
253.783	4.44
254.244	4.4
254.705	4.37
255.166	4.35
255.627	4.32
256.088	4.29
256.549	4.25
257.009	4.22
257.47	4.18
257.931	4.15
258.391	4.11
258.852	4.06
259.312	4.01
259.773	3.98
260.233	3.94
260.694	3.9
261.154	3.86
261.614	3.82
262.074	3.79
262.534	3.74
262.994	3.7
263.455	3.67
263.915	3.64
264.374	3.62
264.834	3.59
265.294	3.56
265.754	3.53
266.214	3.5
266.673	3.48
267.133	3.45
267.593	3.44
268.052	3.42
268.512	3.4
268.971	3.38
269.431	3.37
269.89	3.35
270.349	3.33
270.809	3.32
271.268	3.31
271.727	3.3
272.186	3.29
272.645	3.27
273.104	3.26
273.563	3.25
274.022	3.24
274.481	3.23
274.94	3.22
275.399	3.22
275.857	3.21
276.316	3.2
276.775	3.18
277.233	3.17
277.692	3.16
278.15	3.15
278.609	3.14
279.067	3.14
279.525	3.13
279.984	3.13
280.442	3.13
280.9	3.12
281.358	3.12
281.816	3.12
282.274	3.13
282.732	3.13
283.19	3.14
283.648	3.15
284.106	3.14
284.564	3.14
285.021	3.14
285.479	3.14
285.937	3.13
286.394	3.12
286.852	3.12
287.309	3.12
287.767	3.1
288.224	3.09
288.682	3.08
289.139	3.07
289.596	3.05
290.053	3.03
290.511	3.01
290.968	3
291.425	2.98
291.882	2.96
292.339	2.93
292.796	2.91
293.252	2.9
293.709	2.88
294.166	2.87
294.623	2.85
295.079	2.85
295.536	2.83
295.992	2.82
296.449	2.82
296.905	2.81
297.362	2.8
297.818	2.8
298.274	2.79
298.731	2.78
299.187	2.77
299.643	2.76
300.099	2.76
300.555	2.75
301.011	2.74
301.467	2.74
301.923	2.74
302.379	2.74
302.835	2.73
303.291	2.72
303.746	2.71
304.202	2.72
304.658	2.71
305.113	2.71
305.569	2.72
306.024	2.72
306.479	2.72
306.935	2.72
307.39	2.72
307.845	2.73
308.301	2.74
308.756	2.75
309.211	2.75
309.666	2.76
310.121	2.75
310.576	2.75
311.031	2.75
311.486	2.76
311.94	2.76
312.395	2.77
312.85	2.76
313.305	2.77
313.759	2.77
314.214	2.77
314.668	2.77
315.123	2.78
315.577	2.78
316.032	2.77
316.486	2.77
316.94	2.76
317.394	2.74
317.849	2.74
318.303	2.72
318.757	2.7
319.211	2.69
319.665	2.69
320.119	2.68
320.572	2.67
321.026	2.67
321.48	2.66
321.934	2.65
322.387	2.65
322.841	2.65
323.295	2.65
323.748	2.64
324.202	2.64
324.655	2.63
325.108	2.62
325.562	2.61
326.015	2.6
326.468	2.59
326.921	2.58
327.374	2.58
327.827	2.58
328.28	2.57
328.733	2.57
329.186	2.57
329.639	2.58
330.092	2.58
330.545	2.59
330.997	2.6
331.45	2.6
331.903	2.6
332.355	2.61
332.808	2.61
333.26	2.61
333.713	2.63
334.165	2.63
334.617	2.64
335.069	2.64
335.522	2.65
335.974	2.65
336.426	2.67
336.878	2.67
337.33	2.68
337.782	2.68
338.234	2.69
338.686	2.67
339.137	2.68
339.589	2.68
340.041	2.67
340.493	2.65
340.944	2.64
341.396	2.63
341.847	2.62
342.299	2.59
342.75	2.58
343.201	2.56
343.653	2.56
344.104	2.54
344.555	2.53
345.006	2.52
345.457	2.51
345.908	2.51
346.359	2.5
346.81	2.5
347.261	2.51
347.712	2.51
348.163	2.5
348.613	2.5
349.064	2.49
349.515	2.48
349.965	2.47
350.416	2.47
350.866	2.46
351.317	2.46
351.767	2.45
352.217	2.45
352.668	2.44
353.118	2.45
353.568	2.46
354.018	2.48
354.468	2.48
354.918	2.49
355.368	2.49
355.818	2.49
356.268	2.49
356.718	2.5
357.168	2.49
357.617	2.49
358.067	2.49
358.517	2.49
358.966	2.49
359.416	2.5
359.865	2.5
360.315	2.5
360.764	2.51
361.213	2.51
361.663	2.52
362.112	2.53
362.561	2.54
363.01	2.54
363.459	2.54
363.908	2.54
364.357	2.54
364.806	2.54
365.255	2.55
365.703	2.55
366.152	2.55
366.601	2.55
367.05	2.56
367.498	2.56
367.947	2.56
368.395	2.58
368.844	2.58
369.292	2.58
369.74	2.59
370.189	2.59
370.637	2.59
371.085	2.6
371.533	2.6
371.981	2.61
372.429	2.6
372.877	2.6
373.325	2.6
373.773	2.61
374.221	2.61
374.669	2.61
375.116	2.61
375.564	2.61
376.012	2.63
376.459	2.63
376.907	2.64
377.354	2.65
377.801	2.66
378.249	2.67
378.696	2.67
379.143	2.69
379.591	2.7
380.038	2.72
380.485	2.73
380.932	2.74
381.379	2.76
381.826	2.76
382.273	2.77
382.72	2.79
383.166	2.8
383.613	2.82
384.06	2.83
384.506	2.84
384.953	2.85
385.4	2.86
385.846	2.88
386.292	2.9
386.739	2.92
387.185	2.94
387.631	2.95
388.078	2.96
388.524	2.96
388.97	2.97
389.416	2.99
389.862	3
390.308	3
390.754	3.02
391.2	3.03
391.645	3.05
392.091	3.06
392.537	3.08
392.983	3.1
393.428	3.13
393.874	3.15
394.319	3.16
394.765	3.18
395.21	3.19
395.655	3.21
396.101	3.23
396.546	3.24
396.991	3.25
397.436	3.25
397.881	3.26
398.326	3.29
398.771	3.31
399.216	3.33
399.661	3.34
400.106	3.37
400.551	3.37
400.995	3.36
401.44	3.34
401.885	3.35
402.329	3.36
402.774	3.36
403.218	3.35
403.663	3.34
404.107	3.35
404.551	3.35
404.995	3.33
405.44	3.33
405.884	3.33
406.328	3.34
406.772	3.34
407.216	3.34
407.66	3.35
408.104	3.35
408.547	3.35
408.991	3.35
409.435	3.34
409.879	3.36
410.322	3.37
410.766	3.38
411.209	3.39
411.653	3.4
412.096	3.4
412.54	3.4
412.983	3.42
413.426	3.45
413.869	3.46
414.312	3.48
414.756	3.5
415.199	3.52
415.642	3.55
416.085	3.57
416.527	3.57
416.97	3.58
417.413	3.57
417.856	3.55
418.298	3.52
418.741	3.51
419.184	3.5
419.626	3.49
420.069	3.48
420.511	3.45
420.953	3.44
421.396	3.46
421.838	3.49
422.28	3.51
422.722	3.54
423.164	3.54
423.606	3.57
424.048	3.57
424.49	3.59
424.932	3.58
425.374	3.59
425.816	3.58
426.258	3.56
426.699	3.53
427.141	3.51
427.582	3.49
428.024	3.51
428.465	3.51
428.907	3.51
429.348	3.51
429.789	3.53
430.231	3.54
430.672	3.55
431.113	3.56
431.554	3.6
431.995	3.62
432.436	3.62
432.877	3.61
433.318	3.61
433.759	3.61
434.2	3.63
434.64	3.64
435.081	3.64
435.522	3.66
435.962	3.69
436.403	3.69
436.843	3.72
437.284	3.76
437.724	3.79
438.164	3.81
438.604	3.84
439.045	3.84
439.485	3.84
439.925	3.86
440.365	3.86
440.805	3.85
441.245	3.86
441.685	3.85
442.125	3.85
442.564	3.86
443.004	3.87
443.444	3.88
443.883	3.91
444.323	3.92
444.762	3.94
445.202	3.98
445.641	4.01
446.081	4.03
446.52	4.05
446.959	4.07
447.398	4.1
447.837	4.12
448.276	4.14
448.716	4.14
449.154	4.16
449.593	4.16
450.032	4.14
450.471	4.14
450.91	4.13
451.349	4.14
451.787	4.12
452.226	4.09
452.664	4.06
453.103	4.05
453.541	4.05
453.98	4.05
454.418	4.04
454.856	4.01
455.295	3.99
455.733	3.98
456.171	3.96
456.609	3.96
457.047	3.95
457.485	3.94
457.923	3.94
458.361	3.92
458.798	3.92
459.236	3.92
459.674	3.94
460.111	3.95
460.549	3.94
460.987	3.95
461.424	3.95
461.862	3.96
462.299	3.97
462.736	3.96
463.173	3.98
463.611	3.97
464.048	3.97
464.485	3.99
464.922	3.98
465.359	4.01
465.796	4
466.233	4.03
466.67	4.05
467.106	4.06
467.543	4.08
467.98	4.07
468.416	4.09
468.853	4.09
469.29	4.07
469.726	4.09
470.162	4.06
470.599	4.05
471.035	4.04
471.471	4.01
471.907	3.99
472.344	3.98
472.78	3.97
473.216	3.94
473.652	3.94
474.088	3.94
474.523	3.91
474.959	3.91
475.395	3.9
475.831	3.89
476.266	3.89
476.702	3.88
477.138	3.85
477.573	3.84
478.008	3.83
478.444	3.81
478.879	3.79
479.314	3.8
479.75	3.81
480.185	3.8
480.62	3.78
481.055	3.76
481.49	3.75
481.925	3.74
482.36	3.73
482.795	3.72
483.229	3.72
483.664	3.71
484.099	3.7
484.534	3.67
484.968	3.67
485.403	3.68
485.837	3.68
486.271	3.69
486.706	3.69
487.14	3.7
487.574	3.7
488.009	3.71
488.443	3.72
488.877	3.75
489.311	3.77
489.745	3.79
490.179	3.82
490.613	3.84
491.046	3.88
491.48	3.94
491.914	3.97
492.348	4
492.781	4.03
493.215	4.07
493.648	4.1
494.082	4.16
494.515	4.2
494.948	4.25
495.382	4.31
495.815	4.37
496.248	4.43
496.681	4.49
497.114	4.57
497.547	4.65
497.98	4.74
498.413	4.84
498.846	4.93
499.279	5.02
499.711	5.11
500.144	5.21
500.577	5.31
501.009	5.42
501.442	5.54
501.874	5.67
502.306	5.8
502.739	5.93
503.171	6.07
503.603	6.23
504.036	6.39
504.468	6.57
504.9	6.75
505.332	6.94
505.764	7.14
506.196	7.34
506.627	7.55
507.059	7.76
507.491	7.99
507.923	8.22
508.354	8.46
508.786	8.7
509.217	8.94
509.649	9.21
510.08	9.49
510.512	9.75
510.943	10.04
511.374	10.33
511.805	10.62
512.237	10.92
512.668	11.22
513.099	11.54
513.53	11.88
513.961	12.22
514.391	12.54
514.822	12.88
515.253	13.22
515.684	13.55
516.114	13.9
516.545	14.25
516.975	14.62
517.406	14.97
517.836	15.34
518.267	15.7
518.697	16.05
519.127	16.41
519.558	16.75
519.988	17.09
520.418	17.43
520.848	17.76
521.278	18.1
521.708	18.29
522.138	18.6
522.567	18.9
522.997	19.2
523.427	19.5
523.857	19.8
524.286	20.1
524.716	20.39
525.145	20.67
525.575	20.95
526.004	21.21
526.433	21.59
526.863	21.86
527.292	22.1
527.721	22.32
528.15	22.51
528.579	22.73
529.008	22.92
529.437	23.11
529.866	23.28
530.295	23.45
530.724	23.62
531.152	23.79
531.581	23.93
532.01	24.07
532.438	24.2
532.867	24.33
533.295	24.45
533.723	24.57
534.152	24.67
534.58	24.76
535.008	24.87
535.436	24.94
535.865	25.02
536.293	25.11
536.721	25.19
537.149	25.25
537.576	25.34
538.004	25.38
538.432	25.43
538.86	25.48
539.287	25.56
539.715	25.61
540.143	25.65
540.57	25.69
540.998	25.73
541.425	25.77
541.852	25.83
542.28	25.84
542.707	25.89
543.134	25.93
543.561	25.95
543.988	25.97
544.415	26.01
544.842	26.02
545.269	26.05
545.696	26.08
546.123	26.1
546.549	26.14
546.976	26.16
547.403	26.18
547.829	26.2
548.256	26.24
548.682	26.27
549.108	26.28
549.535	26.29
549.961	26.3
550.387	26.29
550.813	26.27
551.24	26.26
551.666	26.27
552.092	26.26
552.518	26.23
552.943	26.21
553.369	26.19
553.795	26.17
554.221	26.16
554.646	26.12
555.072	26.08
555.498	26.06
555.923	25.99
556.349	25.91
556.774	25.83
557.199	25.78
557.625	25.69
558.05	25.6
558.475	25.52
558.9	25.43
559.325	25.32
559.75	25.2
560.175	25.09
560.6	24.97
561.025	24.86
561.449	24.73
561.874	24.59
562.299	24.45
562.723	24.28
563.148	24.13
563.572	23.98
563.997	23.82
564.421	23.64
564.846	23.48
565.27	23.32
565.694	23.13
566.118	22.97
566.542	22.8
566.966	22.63
567.39	22.44
567.814	22.25
568.238	22.05
568.662	21.86
569.086	21.69
569.509	21.51
569.933	21.3
570.357	21.11
570.78	20.91
571.204	20.7
571.627	20.51
572.05	20.33
572.474	20.16
572.897	20
573.32	19.83
573.743	19.66
574.166	19.5
574.589	19.36
575.012	19.23
575.435	19.09
575.858	18.97
576.281	18.83
576.704	18.71
577.126	18.56
577.549	18.42
577.972	18.29
578.394	18.17
578.817	18.05
579.239	17.93
579.661	17.81
580.084	17.7
580.506	17.59
580.928	17.49
581.35	17.4
581.772	17.33
582.194	17.24
582.616	17.15
583.038	17.06
583.46	16.97
583.882	16.89
584.303	16.81
584.725	16.73
585.147	16.64
585.568	16.54
585.99	16.46
586.411	16.37
586.833	16.3
587.254	16.22
587.675	16.16
588.096	16.08
588.518	16.02
588.939	15.95
589.36	15.87
589.781	15.81
590.202	15.76
590.623	15.7
591.043	15.64
591.464	15.57
591.885	15.51
592.305	15.47
592.726	15.43
593.147	15.38
593.567	15.33
593.987	15.31
594.408	15.27
594.828	15.23
595.248	15.2
595.669	15.18
596.089	15.13
596.509	15.09
596.929	15.03
597.349	14.98
597.769	14.92
598.189	14.88
598.608	14.82
599.028	14.78
599.448	14.72
599.867	14.65
600.287	14.6
600.706	14.55
601.126	14.5
601.545	14.44
601.965	14.39
602.384	14.34
602.803	14.27
603.222	14.2
603.641	14.14
604.061	14.08
604.48	14.01
604.898	13.92
605.317	13.84
605.736	13.76
606.155	13.69
606.574	13.61
606.992	13.51
607.411	13.44
607.829	13.32
608.248	13.23
608.666	13.13
609.085	13.05
609.503	12.96
609.921	12.89
610.339	12.8
610.758	12.72
611.176	12.63
611.594	12.54
612.012	12.44
612.43	12.39
612.847	12.31
613.265	12.23
613.683	12.15
614.101	12.07
614.518	11.98
614.936	11.9
615.353	11.82
615.771	11.74
616.188	11.67
616.606	11.59
617.023	11.53
617.44	11.47
617.857	11.4
618.274	11.35
618.691	11.29
619.108	11.25
619.525	11.2
619.942	11.15
620.359	11.12
620.776	11.08
621.192	11.04
621.609	11
622.026	10.97
622.442	10.94
622.859	10.91
623.275	10.9
623.691	10.88
624.108	10.86
624.524	10.85
624.94	10.82
625.356	10.81
625.772	10.82
626.188	10.82
626.604	10.79
627.02	10.78
627.436	10.77
627.852	10.75
628.268	10.73
628.683	10.7
629.099	10.7
629.514	10.68
629.93	10.64
630.345	10.59
630.761	10.55
631.176	10.52
631.591	10.48
632.007	10.43
632.422	10.36
632.837	10.31
633.252	10.25
633.667	10.16
634.082	10.09
634.497	10.01
634.911	9.92
635.326	9.81
635.741	9.69
636.155	9.57
636.57	9.46
636.984	9.35
637.399	9.2
637.813	9.06
638.228	8.94
638.642	8.81
639.056	8.68
639.47	8.55
639.884	8.43
640.298	8.3
640.712	8.17
641.126	8.03
641.54	7.9
641.954	7.79
642.368	7.66
642.781	7.54
643.195	7.4
643.609	7.28
644.022	7.16
644.436	7.05
644.849	6.94
645.262	6.84
645.676	6.74
646.089	6.64
646.502	6.56
646.915	6.48
647.328	6.41
647.741	6.34
648.154	6.28
648.567	6.23
648.98	6.18
649.393	6.15
649.805	6.1
650.218	6.06
650.631	6.03
651.043	5.99
651.456	5.96
651.868	5.92
652.28	5.89
652.693	5.85
653.105	5.82
653.517	5.77
653.929	5.71
654.341	5.69
654.753	5.64
655.165	5.58
655.577	5.51
655.989	5.45
656.401	5.39
656.813	5.32
657.224	5.26
657.636	5.21
658.047	5.13
658.459	5.07
658.87	5
659.282	4.95
659.693	4.87
660.104	4.81
660.515	4.75
660.926	4.69
661.338	4.63
661.749	4.55
662.159	4.48
662.57	4.44
662.981	4.38
663.392	4.32
663.803	4.27
664.213	4.24
664.624	4.2
665.035	4.17
665.445	4.15
665.855	4.12
666.266	4.11
666.676	4.09
667.086	4.08
667.497	4.05
667.907	4.03
668.317	4.01
668.727	4
669.137	3.98
669.547	4
669.956	3.99
670.366	4
670.776	4
671.186	4.02
671.595	4.03
672.005	4.05
672.414	4.06
672.824	4.09
673.233	4.12
673.642	4.15
674.052	4.17
674.461	4.2
674.87	4.23
675.279	4.27
675.688	4.3
676.097	4.36
676.506	4.4
676.915	4.45
677.323	4.5
677.732	4.55
678.141	4.61
678.549	4.66
678.958	4.72
679.366	4.77
679.775	4.82
680.183	4.9
680.592	4.97
681	5.05
681.408	5.14
681.816	5.24
682.224	5.34
682.632	5.46
683.04	5.58
683.448	5.73
683.856	5.9
684.264	6.08
684.671	6.27
685.079	6.48
685.487	6.72
685.894	6.99
686.302	7.27
686.709	7.58
687.116	7.92
687.524	8.28
687.931	8.66
688.338	9.08
688.745	9.54
689.152	10.03
689.559	10.55
689.966	11.09
690.373	11.66
690.78	12.25
691.187	12.85
691.593	13.49
692	14.16
692.407	14.83
692.813	15.53
693.22	16.24
693.626	16.93
694.032	17.65
694.439	18.38
694.845	19.09
695.251	19.82
695.657	20.54
696.063	21.27
696.469	21.99
696.875	22.71
697.281	23.37
697.687	24.08
698.093	24.78
698.498	25.46
698.904	26.13
699.31	26.8
699.715	27.46
700.12	28.11
700.526	28.75
700.931	29.39
701.337	30.02
701.742	30.64
702.147	31.23
702.552	31.83
702.957	32.41
703.362	32.99
703.767	33.54
704.172	34.08
704.577	34.63
704.981	35.18
705.386	35.69
705.791	36.19
706.195	36.7
706.6	37.19
707.004	37.67
707.408	38.14
707.813	38.58
708.217	39.03
708.621	39.47
709.025	39.9
709.43	40.28
709.834	40.7
710.237	41.09
710.641	41.51
711.045	41.89
711.449	42.27
711.853	42.65
712.256	43.05
712.66	43.41
713.064	43.77
713.467	44.1
713.87	44.49
714.274	44.85
714.677	45.21
715.08	45.5
715.484	45.87
715.887	46.19
716.29	46.51
716.693	46.81
717.096	47.12
717.499	47.45
717.901	47.77
718.304	48.03
718.707	48.3
719.109	48.57
719.512	48.88
719.915	49.13
720.317	49.4
720.719	49.66
721.122	49.89
721.524	50.17
721.926	50.4
722.328	50.58
722.731	50.79
723.133	51.02
723.535	51.24
723.937	51.44
724.338	51.6
724.74	51.77
725.142	51.88
725.544	52.06
725.945	52.22
726.347	52.4
726.748	52.57
727.15	52.72
727.551	52.9
727.952	52.99
728.354	53.12
728.755	53.26
729.156	53.41
729.557	53.6
729.958	53.75
730.359	53.83
730.76	53.9
731.161	54.02
731.562	54.15
731.962	54.21
732.363	54.28
732.763	54.39
733.164	54.46
733.564	54.52
733.965	54.57
734.365	54.62
734.766	54.68
735.166	54.73
735.566	54.75
735.966	54.77
736.366	54.81
736.766	54.9
737.166	54.94
737.566	55
737.966	55.02
738.365	55.06
738.765	55.11
739.165	55.15
739.564	55.22
739.964	55.27
740.363	55.31
740.763	55.36
741.162	55.39
741.561	55.45
741.96	55.49
742.36	55.54
742.759	55.55
743.158	55.54
743.557	55.59
743.955	55.63
744.354	55.67
744.753	55.74
745.152	55.75
745.55	55.77
745.949	55.78
746.348	55.82
746.746	55.86
747.144	55.9
747.543	55.96
747.941	56.02
748.339	56.06
748.737	56.11
749.136	56.12
749.534	56.18
749.932	56.21
750.33	56.24
750.727	56.23
751.125	56.23
751.523	56.26
751.921	56.27
752.318	56.25
752.716	56.23
753.113	56.22
753.511	56.18
753.908	56.14
754.305	56.1
754.703	56.09
755.1	56.07
755.497	56.08
755.894	56.09
756.291	56.06
756.688	56.03
757.085	56.01
757.482	56
757.878	56.03
758.275	56.05
758.672	56.07
759.068	56.09
759.465	56.09
759.861	56.08
760.258	56.06
760.654	56.07
761.05	56.1
761.447	56.1
761.843	56.08
762.239	56.04
762.635	56.01
763.031	56
763.427	55.98
763.822	55.97
764.218	55.94
764.614	55.94
765.01	55.92
765.405	55.86
765.801	55.85
766.196	55.82
766.592	55.82
766.987	55.83
767.382	55.84
767.778	55.84
768.173	55.83
768.568	55.79
768.963	55.77
769.358	55.74
769.753	55.78
770.148	55.78
770.542	55.78
770.937	55.78
771.332	55.77
771.726	55.72
772.121	55.68
772.515	55.67
772.91	55.7
773.304	55.68
773.699	55.71
774.093	55.67
774.487	55.68
774.881	55.7
775.275	55.7
775.669	55.69
776.063	55.7
776.457	55.69
776.851	55.67
777.245	55.68
777.638	55.67
778.032	55.69
778.425	55.74
778.819	55.73
779.212	55.7
779.606	55.67
779.999	55.67
780.392	55.69
780.786	55.72
781.179	55.76
781.572	55.74
781.965	55.73
782.358	55.69
782.751	55.65
783.143	55.66
783.536	55.72
783.929	55.79
784.322	55.79
784.714	55.81
785.107	55.83
785.499	55.8
785.891	55.84
786.284	55.84
786.676	55.87
787.068	55.89
787.46	55.88
787.852	55.85
788.245	55.84
788.636	55.83
789.028	55.77
789.42	55.74
789.812	55.77
790.204	55.72
790.595	55.74
790.987	55.73
791.378	55.72
791.77	55.75
792.161	55.75
792.553	55.73
792.944	55.77
793.335	55.83
793.726	55.81
794.117	55.81
794.508	55.8
794.899	55.8
795.29	55.79
795.681	55.8
796.072	55.78
796.463	55.77
796.853	55.76
797.244	55.71
797.634	55.68
798.025	55.71
798.415	55.66
798.806	55.69
799.196	55.7
799.586	55.73
799.976	55.72
800.366	55.71
800.756	55.72
801.146	55.72
801.536	55.7
801.926	55.7
802.316	55.69
802.706	55.76
803.095	55.79
803.485	55.77
803.874	55.73
804.264	55.79
804.653	55.76
805.043	55.76
805.432	55.73
805.821	55.75
806.21	55.79
806.599	55.83
806.988	55.81
807.377	55.78
807.766	55.79
808.155	55.84
808.544	55.79
808.933	55.82
809.321	55.85
809.71	55.89
810.098	55.91
810.487	55.91
810.875	55.88
811.264	55.87
811.652	55.89
812.04	55.87
812.428	55.87
812.816	55.88
813.204	55.86
813.592	55.82
813.98	55.81
814.368	55.81
814.756	55.83
815.144	55.87
815.531	55.86
815.919	55.86
816.306	55.85
816.694	55.85
817.081	55.85
817.469	55.86
817.856	55.92
818.243	55.91
818.63	55.96
819.017	55.95
819.404	55.92
819.791	55.92
820.178	55.95
820.565	55.99
820.952	56
821.339	56.01
821.725	56.04
822.112	56.04
822.498	56.07
822.885	56.05
823.271	56.07
823.657	56.1
824.044	56.12
824.43	56.12
824.816	56.1
825.202	56.07
825.588	56.08
825.974	56.06
826.36	56.05
826.746	56.07
827.132	56.03
827.517	56.02
827.903	56.03
828.289	56.02
828.674	55.99
829.06	56.03
829.445	56.05
829.83	56.04
830.216	56.03
830.601	56.02
830.986	56
831.371	56.06
831.756	56.03
832.141	56.04
832.526	56.04
832.911	56.09
833.295	56.06
833.68	56.07
834.065	56.08
834.449	56.07
834.834	56.03
835.218	56.01
835.603	55.96
835.987	55.96
836.371	55.94
836.755	55.95
837.139	55.9
837.524	55.92
837.908	55.89
838.291	55.9
838.675	55.92
839.059	55.94
839.443	55.97
839.827	55.97
840.21	56
840.594	56
840.977	55.96
841.361	55.95
841.744	55.95
842.127	55.96
842.511	55.9
842.894	55.87
843.277	55.91
843.66	55.88
844.043	55.87
844.426	55.83
844.809	55.82
845.191	55.82
845.574	55.81
845.957	55.76
846.339	55.75
846.722	55.74
847.104	55.77
847.487	55.75
847.869	55.74
848.252	55.74
848.634	55.78
849.016	55.78
849.398	55.76
849.78	55.74
850.162	55.76
850.544	55.77
850.926	55.78
851.307	55.76
851.689	55.73
852.071	55.73
852.452	55.73
852.834	55.7
853.215	55.71
853.597	55.73
853.978	55.72
854.359	55.72
854.741	55.72
855.122	55.7
855.503	55.71
855.884	55.73
856.265	55.71
856.646	55.66
857.026	55.67
857.407	55.62
857.788	55.64
858.169	55.64
858.549	55.65
858.93	55.65
859.31	55.63
859.69	55.61
860.071	55.59
860.451	55.61
860.831	55.65
861.211	55.61
861.591	55.65
861.971	55.62
862.351	55.63
862.731	55.61
863.111	55.59
863.491	55.62
863.87	55.63
864.25	55.65
864.629	55.64
865.009	55.62
865.388	55.64
865.768	55.63
866.147	55.66
866.526	55.65
866.905	55.65
867.284	55.69
867.663	55.67
868.042	55.68
868.421	55.65
868.8	55.65
869.179	55.63
869.558	55.64
869.936	55.63
870.315	55.6
870.693	55.61
871.072	55.58
871.45	55.54
871.828	55.53
872.207	55.54
872.585	55.58
872.963	55.57
873.341	55.6
873.719	55.59
874.097	55.59
874.475	55.6
874.853	55.62
875.23	55.66
875.608	55.72
875.986	55.73
876.363	55.71
876.741	55.7
877.118	55.68
877.495	55.63
877.873	55.63
878.25	55.64
878.627	55.63
879.004	55.64
879.381	55.62
879.758	55.59
880.135	55.59
880.512	55.6
880.889	55.62
881.265	55.66
881.642	55.69
882.019	55.68
882.395	55.71
882.772	55.7
883.148	55.69
883.524	55.7
883.901	55.69
884.277	55.68
884.653	55.67
885.029	55.65
885.405	55.66
885.781	55.63
886.157	55.6
886.532	55.58
886.908	55.59
887.284	55.59
887.659	55.57
888.035	55.57
888.411	55.58
888.786	55.54
889.161	55.52
889.537	55.51
889.912	55.52
890.287	55.51
890.662	55.51
891.037	55.45
891.412	55.4
891.787	55.39
892.162	55.36
892.536	55.34
892.911	55.34
893.286	55.31
893.66	55.3
894.035	55.27
894.409	55.27
894.784	55.27
895.158	55.29
895.532	55.3
895.906	55.29
896.281	55.28
896.655	55.27
897.029	55.26
897.402	55.26
897.776	55.27
898.15	55.27
898.524	55.26
898.898	55.23
899.271	55.22
899.645	55.18
900.018	55.18
900.392	55.22
900.765	55.24
901.138	55.26
901.511	55.26
901.884	55.26
902.258	55.26
902.631	55.27
903.003	55.28
903.376	55.26
903.749	55.31
904.122	55.32
904.495	55.28
904.867	55.25
905.24	55.22
905.612	55.17
905.985	55.14
906.357	55.14
906.729	55.13
907.102	55.13
907.474	55.16
907.846	55.11
908.218	55.08
908.59	55.07
908.962	55.06
909.334	55.06
909.705	55.08
910.077	55.06
910.449	55.04
910.82	55.02
911.192	54.99
911.563	54.97
911.935	54.96
912.306	54.95
912.677	54.96
913.048	54.96
913.419	54.95
913.79	54.96
914.161	54.97
914.532	54.96
914.903	54.97
915.274	54.95
915.645	54.95
916.015	54.99
916.386	54.99
916.756	54.95
917.127	54.97
917.497	54.98
917.868	54.97
918.238	55
918.608	55.01
918.978	54.96
919.348	54.96
919.718	54.95
920.088	54.92
920.458	54.95
920.828	55
921.198	54.99
921.567	54.94
921.937	54.92
922.306	54.87
922.676	54.85
923.045	54.87
923.415	54.91
923.784	54.93
924.153	54.92
924.522	54.89
924.891	54.86
925.26	54.87
925.629	54.9
925.998	54.91
926.367	54.94
926.736	54.94
927.104	54.98
927.473	54.98
927.842	54.96
928.21	54.96
928.578	54.95
928.947	54.93
929.315	54.95
929.683	54.99
930.051	54.99
930.42	54.97
930.788	54.97
931.156	54.95
931.523	54.92
931.891	54.89
932.259	54.89
932.627	54.89
932.994	54.91
933.362	54.87
933.729	54.8
934.097	54.83
934.464	54.87
934.831	54.86
935.199	54.84
935.566	54.82
935.933	54.83
936.3	54.82
936.667	54.79
937.034	54.79
937.401	54.79
937.767	54.78
938.134	54.73
938.501	54.67
938.867	54.71
939.234	54.82
939.6	54.88
939.967	54.94
940.333	55.06
940.699	55.22
941.065	55.23
941.431	55.3
941.798	55.48
942.163	55.55
942.529	55.61
942.895	55.7
943.261	55.67
943.627	55.78
943.992	55.77
944.358	55.72
944.723	55.76
945.089	55.82
945.454	55.89
945.82	55.83
946.185	55.86
946.55	55.97
946.915	55.99
947.28	55.91
947.645	55.88
948.01	55.85
948.375	55.87
948.74	55.76
949.104	55.79
949.469	55.66
949.834	55.61
950.198	55.51
950.562	55.4
950.927	55.28
951.291	55.24
951.655	55.2
952.02	55.21
952.384	55.23
952.748	55.24
953.112	55.16
953.476	55.12
953.839	55.06
954.203	55.03
954.567	54.99
954.931	54.98
955.294	54.99
955.658	54.83
956.021	54.78
956.385	54.72
956.748	54.65
957.111	54.61
957.474	54.64
957.837	54.68
958.2	54.62
958.563	54.62
958.926	54.56
959.289	54.59
959.652	54.71
960.015	54.63
960.377	54.57
960.74	54.54
961.102	54.57
961.465	54.56
961.827	54.45
962.189	54.47
962.552	54.39
962.914	54.37
963.276	54.3
963.638	54.2
964	54.24
964.362	54.25
964.724	54.25
965.085	54.24
965.447	54.21
965.809	54.23
966.17	54.28
966.532	54.29
966.893	54.34
967.255	54.31
967.616	54.35
967.977	54.33
968.338	54.32
968.699	54.3
969.061	54.22
969.421	54.15
969.782	54.16
970.143	54
970.504	53.98
970.865	53.87
971.225	53.89
971.586	53.91
971.946	53.9
972.307	53.9
972.667	53.97
973.027	54
973.388	54.01
973.748	54.04
974.108	54.14
974.468	54.17
974.828	54.25
975.188	54.33
975.548	54.28
975.907	54.31
976.267	54.33
976.627	54.25
976.986	54.28
977.346	54.33
977.705	54.29
978.064	54.32
978.424	54.34
978.783	54.36
979.142	54.34
979.501	54.32
979.86	54.34
980.219	54.27
980.578	54.31
980.937	54.29
981.296	54.24
981.654	54.39
982.013	54.38
982.371	54.35
982.73	54.36
983.088	54.32
983.447	54.47
983.805	54.43
984.163	54.55
984.521	54.48
984.879	54.52
985.237	54.57
985.595	54.54
985.953	54.63
986.311	54.72
986.669	54.79
987.026	54.82
987.384	54.8
987.741	54.88
988.099	54.84
988.456	55.03
988.814	55.02
989.171	55.08
989.528	55.08
989.885	55.01
990.242	55.01
990.599	54.97
990.956	55.04
991.313	54.98
991.67	55.01
992.027	55.04
992.383	55.04
992.74	55.11
993.096	55.1
993.453	55.09
993.809	55.16
994.165	55.18
994.522	55.19
994.878	55.11
995.234	55.06
995.59	54.96
995.946	55.02
996.302	54.96
996.658	54.95
997.013	55.05
997.369	55.07
997.725	55.21
998.08	55.34
998.436	55.41
998.791	55.56
999.147	55.69
999.502	55.87
999.857	55.91
1000.212	55.98
1000.567	56.12
1000.922	56.11
1001.277	56.26
1001.632	56.16
1001.987	56.15
1002.342	56.16
1002.696	56.27
1003.051	56.22
1003.406	56.17
1003.76	56.07
1004.114	56.12
1004.469	55.97
1004.823	55.98
1005.177	56.01
1005.531	56.05
1005.885	56.22
1006.239	56.31
1006.593	56.12
1006.947	56.12
1007.301	56.27
1007.655	56.44
1008.008	56.39
1008.362	56.53
1008.715	56.63
1009.069	56.49
1009.422	56.55
1009.776	56.39
1010.129	56.23
1010.482	56.47
1010.835	56.7
1011.188	56.51
1011.541	56.28
1011.894	56.38
1012.247	56.45
1012.6	56.45
1012.952	56.45
1013.305	56.45
1013.657	56.57
1014.01	56.95
1014.362	56.98
1014.715	56.92
1015.067	57.21
1015.419	57.7
1015.771	57.94
1016.123	58.03
1016.475	58.14
1016.827	58.38
1017.179	58.5
1017.531	58.69
1017.883	58.79
1018.234	59.03
1018.586	59.3
1018.938	59.43
1019.289	59.3
1019.64	59.48
1019.992	59.66
1020.343	59.73
1020.694	59.79
1021.045	60.11
1021.396	60.26
1021.747	60.28
1022.098	60.16
1022.449	60.24
1022.8	60.55
1023.151	60.83
1023.501	61.08
1023.852	61.25
1024.202	61.76
1024.553	61.79
1024.903	61.84
1025.253	62.17
1025.604	62.38
1025.954	62.68
1026.304	63.35
1026.654	63.32
1027.004	63.43
1027.354	63.39
1027.703	63.39
1028.053	63.05
1028.403	63.43
1028.753	63.62
1029.102	63.29
1029.452	63.13
1029.801	62.9
1030.15	62.5
1030.499	62.43
897.758	559.61
901.051	572.69
904.343	577.1
907.636	568.85
910.928	560.4
914.22	570.17
917.511	557.73
920.803	537.26
924.094	518.14
927.384	522.02
930.675	507.32
933.965	501.72
937.255	501.61
940.544	480.25
943.834	461.73
947.123	454.34
950.411	430.24
953.7	422.6
956.988	407.43
960.276	386.16
963.563	384.71
966.851	362.28
970.138	356.19
973.424	331.09
976.711	327.85
979.997	314.76
983.283	307.56
986.568	297.99
989.853	290.47
993.138	280.98
996.423	277.89
999.708	268.66
1002.992	269.5
1006.275	264.96
1009.559	262.45
1012.842	253.16
1016.125	246.88
1019.408	241.58
1022.69	241.19
1025.972	238.71
1029.254	232.67
1032.536	229.47
1035.817	221.61
1039.098	219.62
1042.379	212.38
1045.659	209.5
1048.939	208.49
1052.219	204.8
1055.498	202.35
1058.778	197.31
1062.057	193.01
1065.335	192.69
1068.614	188.52
1071.892	186.21
1075.17	182.58
1078.447	180.74
1081.724	178.39
1085.001	175.13
1088.278	174
1091.554	173.3
1094.83	172.23
1098.106	170.34
1101.382	168.94
1104.657	169.23
1107.932	168.26
1111.206	166.05
1114.481	164.89
1117.755	164.31
1121.029	163.23
1124.302	161.39
1127.575	157.91
1130.848	157.33
1134.121	155.82
1137.393	155.26
1140.665	153.62
1143.937	151.5
1147.208	150.74
1150.48	148.63
1153.75	148.54
1157.021	147.61
1160.291	147.23
1163.561	147.92
1166.831	146.08
1170.101	145.76
1173.37	145.66
1176.639	143.97
1179.907	144.8
1183.176	144.64
1186.444	144.55
1189.711	142.89
1192.979	145
1196.246	144.24
1199.513	143.33
1202.78	144.02
1206.046	143.56
1209.312	143.46
1212.578	144.22
1215.843	145.57
1219.108	146.27
1222.373	148.78
1225.638	150.55
1228.902	152.66
1232.166	157.36
1235.43	159.42
1238.693	164.05
1241.956	168.3
1245.219	172.62
1248.482	174.87
1251.744	174.16
1255.006	174.48
1258.268	170.57
1261.529	170.24
1264.79	165.75
1268.051	162.71
1271.312	160.36
1274.572	157.21
1277.832	152.77
1281.092	150.78
1284.351	147.71
1287.61	147.73
1290.869	146.95
1294.128	146.35
1297.386	145.41
1300.644	144.73
1303.902	144.01
1307.159	144.95
1310.416	144.73
1313.673	147.59
1316.93	148.03
1320.186	150.06
1323.442	152.02
1326.697	155.52
1329.953	156.44
1333.208	162.13
1336.463	167.44
1339.717	170.72
1342.972	177.33
1346.226	182.66
1349.479	183.96
1352.733	192.36
1355.986	196.71
1359.238	200.36
1362.491	200.67
1365.743	209.15
1368.995	209.66
1372.247	210.57
1375.498	209.56
1378.749	216.34
1382	215.77
1385.251	215.36
1388.501	213.16
1391.751	215.34
1395	213.36
1398.25	214.79
1401.499	213.52
1404.748	213.17
1407.996	209
1411.244	209.33
1414.492	204.93
1417.74	198.89
1420.987	194.23
1424.234	191.47
1427.481	183.89
1430.728	179.45
1433.974	172.79
1437.22	168.56
1440.465	162.39
1443.711	157.05
1446.956	152.11
1450.201	146.73
1453.445	140.8
1456.689	136.39
1459.933	132.73
1463.177	127.65
1466.42	124.55
1469.663	121.7
1472.906	116.99
1476.148	114.32
1479.391	112.7
1482.633	110.91
1485.874	108.97
1489.115	108.25
1492.356	106.73
1495.597	104.9
1498.838	104.24
1502.078	103.96
1505.318	103.56
1508.557	102.88
1511.797	102.09
1515.036	101.56
1518.274	100.94
1521.513	100.18
1524.751	99.67
1527.989	100.32
1531.227	99.99
1534.464	99.73
1537.701	99.05
1540.938	98.78
1544.174	99.41
1547.41	98.99
1550.646	98.55
1553.882	99.13
1557.117	98.23
1560.352	98.66
1563.587	96.91
1566.821	97.08
1570.055	96.85
1573.289	96.44
1576.523	96.78
1579.756	95.61
1582.989	96.04
1586.222	96.08
1589.454	95.62
1592.686	95.46
1595.918	94.61
1599.15	95.42
1602.381	95.45
1605.612	95.55
1608.843	95.63
1612.073	95.86
1615.303	96.42
1618.533	96.04
1621.762	96.24
1624.992	96.02
1628.221	96.45
1631.449	96.89
1634.678	96.46
1637.906	96.43
1641.134	96.54
1644.361	96.74
1647.588	96.25
1650.815	96.07
1654.042	96.58
1657.269	95.91
1660.495	96.6
1663.72	96.69
1666.946	96.91
1670.171	97.51
1673.396	98.03
1676.621	98.49
1679.845	98.56
1683.069	98.85
1686.293	98.75
1689.517	98.87
1692.74	99.51
1695.963	99.25
1699.185	99.5
1702.408	99.97
1705.63	99.72
1708.852	100.52
1712.073	99.93
1715.294	99.99
1718.515	100.56
1721.736	100.72
1724.956	100.6
1728.176	100.46
1731.396	101.09
1734.616	101.29
1737.835	100.95
1741.054	101.29
1744.272	100.25
1747.491	100.36
1750.709	101.1
1753.927	100.79
1757.144	101.26
1760.361	101.5
1763.578	101.94
1766.795	102.27
1770.011	102.56
1773.227	102.89
1776.443	103.94
1779.658	104.53
1782.874	106.08
1786.089	105.65
1789.303	105.88
1792.518	106.68
1795.732	107.49
1798.945	108.48
1802.159	108.56
1805.372	109.76
1808.585	110.45
1811.797	111.08
1815.01	111.64
1818.222	111.67
1821.434	113.16
1824.645	114.08
1827.856	115.62
1831.067	115.97
1834.278	116.9
1837.488	118.18
1840.698	118.9
1843.908	119.19
1847.117	119.94
1850.326	121.05
1853.535	121.53
1856.744	122.02
1859.952	123.01
1863.16	122.65
1866.368	122.09
1869.575	123.03
1872.782	122.24
1875.989	121.51
1879.196	121.07
1882.402	119.46
1885.608	120.16
1888.814	118.92
1892.019	120.47
1895.224	118.15
1898.429	118.12
1901.634	119.14
1904.838	118.36
1908.042	118.71
1911.246	118.08
1914.449	118.69
1917.652	118.71
1920.855	118.68
1924.058	118.59
1927.26	117.15
1930.462	118.32
1933.664	118.62
1936.865	118.66
1940.066	117.79
1943.267	117.34
1946.467	118.37
1949.668	118.02
1952.868	119.97
1956.067	119.51
1959.267	121.32
1962.466	121.75
1965.665	122.76
1968.863	122.74
1972.061	123.03
1975.259	127.12
1978.457	127.39
1981.654	128.82
1984.852	130.29
1988.048	130.71
1991.245	132.67
1994.441	134.58
1997.637	137.82
2000.833	140.67
2004.028	142.49
2007.223	147.6
2010.418	148.23
2013.613	155.17
2016.807	159.65
2020.001	162.2
2023.194	167.38
2026.388	172.36
2029.581	181.14
2032.774	186.24
2035.966	191.1
2039.158	197.49
2042.35	199.5
2045.542	203.41
2048.733	212.86
2051.924	213.34
2055.115	218.36
2058.306	219.85
2061.496	223.87
2064.686	222.34
2067.875	222.11
2071.065	224.93
2074.254	224.98
2077.442	232.17
2080.631	234.28
2083.819	232.92
2087.007	239.82
2090.195	242.23
2093.382	244.52
2096.569	245.59
2099.756	250.8
2102.942	254.67
2106.128	260.64
2109.314	261.65
2112.5	261.66
2115.685	260.26
2118.87	261.11
2122.055	262.82
2125.239	267.69
2128.424	272.33
2131.608	269.92
2134.791	267.73
2137.974	269.23
2141.157	270.83
2144.34	274.62
2147.523	278.47
2150.705	286.03
2153.887	283.29
2157.068	285.15
2160.25	288.57
2163.431	286
2166.611	292.89
2169.792	300.18
2172.972	305.75
2176.152	307.15
2179.331	313
2182.511	312.76
2185.69	316.56
2188.868	329.61
2192.047	335.58
2195.225	341.54
2198.403	347.15
2201.58	344.99
2204.758	352.06
2207.935	354.88
2211.111	360.49
2214.288	361.82
2217.464	366.82
2220.64	371.45
2223.815	371.78
2226.991	366.35
2230.166	369.06
2233.34	381
2236.515	389.12
2239.689	387.8
2242.863	391.75
2246.036	390.63
2249.209	398.35
2252.382	398.7
2255.555	413.01
2258.727	415.71
2261.9	427.03
2265.071	432.04
2268.243	425.47
2271.414	438.17
2274.585	446.66
2277.756	450.8
2280.926	461.74
2284.096	462.32
2287.266	465.31
2290.436	452.12
2293.605	462.38
2296.774	482.04
2299.942	484.19
2303.111	501.38
2306.279	509.14
2309.447	509.32
2312.614	508.83
2315.781	521.6
2318.948	533.17
2322.115	541.14
2325.281	570.22
2328.447	569.22
2331.613	570.21
2334.779	577.01
2337.944	585.46
2341.109	597.9
2344.274	605.47
2347.438	623.51
2350.602	638.77
2353.766	677.68
2356.929	682.13
2360.092	688.06
2363.255	688.27
2366.418	700.42
2369.58	716.14
2372.742	712.6
2375.904	706.85
2379.066	729.21
2382.227	772.25
2385.388	765.09
2388.548	724.56
2391.709	717.12
2394.869	743.77
2398.029	745.33
2401.188	748.27
2404.347	768.59
2407.506	793.35
2410.665	767.19
2413.823	766.16
2416.981	764.23
2420.139	725.33
2423.296	784.23
2426.453	828.8
2429.61	796.95
2432.767	849.36
2435.923	868.97
2439.079	844.68
2442.235	867.11
2445.391	886.6
2448.546	881.16
2451.701	924.91
2454.855	991.16
2458.009	878.47
2461.163	903.11
2464.317	901.92
2467.471	886.67
2470.624	916.15
2473.777	891.67
2476.929	862.27
2480.082	917.78
2483.234	963.27
2486.385	973.66
2489.537	997.09
2492.688	1096.05
2495.839	1082.51
2498.989	1111.1
2502.14	1111.39
2505.29	1065.75
2508.439	1190.44
2511.589	1224.42
2514.738	1197.57
2517.887	1185.51
2521.035	1115
2524.183	1095.52
2527.331	1086.1
2530.479	1051.52
2533.627	1078.98
