Data from N_1_div_oh_2n_025_Splice17_01.txt Node
Date: Sat Feb 29 13:43:33 EST 2020
User: sa697716
Spectrometer: FLMS03696
Trigger mode: 0
Integration Time (sec): 3.180400E-1
Scans to average: 20
Electric dark correction enabled: true
Nonlinearity correction enabled: true
Boxcar width: 5
XAxis mode: Wavelengths
Number of Pixels in Spectrum: 2048
>>>>>Begin Spectral Data<<<<<
187.83	107.54
188.298	109.07
188.766	90.85
189.233	67.91
189.701	77.5
190.169	80.67
190.636	71.19
191.104	12.59
191.571	-73.37
192.039	61.95
192.506	357.36
192.974	7443.65
193.441	-520.73
193.908	101.91
194.375	43.6
194.842	-41.46
195.31	46.17
195.777	26.36
196.244	0.1
196.711	23.57
197.177	23.88
197.644	24.61
198.111	25.13
198.578	25.61
199.045	25.41
199.511	25.46
199.978	26.64
200.445	25.96
200.911	26.2
201.378	26.44
201.844	27.06
202.31	27.52
202.777	27.6
203.243	27.96
203.709	28.08
204.176	28.06
204.642	28.18
205.108	27.98
205.574	28.85
206.04	28.26
206.506	28.1
206.972	27.66
207.438	27.37
207.903	27.57
208.369	26.74
208.835	26.72
209.301	26.53
209.766	26.08
210.232	25.9
210.697	25.26
211.163	25.15
211.628	25.01
212.094	24.41
212.559	24.15
213.024	23.72
213.49	23.43
213.955	22.99
214.42	22.46
214.885	22.07
215.35	21.34
215.815	20.43
216.28	19.84
216.745	18.81
217.21	18.03
217.675	17.06
218.14	16.12
218.604	15.32
219.069	14.58
219.534	14.01
219.998	13.4
220.463	13.03
220.927	12.67
221.392	12.34
221.856	12.05
222.32	11.72
222.785	11.48
223.249	11.28
223.713	11.09
224.177	10.9
224.642	10.73
225.106	10.56
225.57	10.37
226.034	10.21
226.497	10.03
226.961	9.86
227.425	9.73
227.889	9.6
228.353	9.44
228.816	9.32
229.28	9.17
229.744	9.06
230.207	8.97
230.671	8.84
231.134	8.73
231.597	8.62
232.061	8.51
232.524	8.42
232.987	8.3
233.45	8.21
233.914	8.13
234.377	8.06
234.84	7.95
235.303	7.87
235.766	7.8
236.229	7.74
236.691	7.67
237.154	7.62
237.617	7.54
238.08	7.49
238.542	7.42
239.005	7.35
239.468	7.28
239.93	7.22
240.393	7.16
240.855	7.09
241.317	7.02
241.78	6.96
242.242	6.89
242.704	6.84
243.166	6.78
243.629	6.72
244.091	6.67
244.553	6.63
245.015	6.58
245.477	6.52
245.939	6.48
246.4	6.43
246.862	6.38
247.324	6.35
247.786	6.3
248.247	6.27
248.709	6.23
249.17	6.18
249.632	6.13
250.093	6.07
250.555	6.03
251.016	6
251.477	5.95
251.939	5.91
252.4	5.87
252.861	5.83
253.322	5.78
253.783	5.75
254.244	5.71
254.705	5.68
255.166	5.67
255.627	5.65
256.088	5.61
256.549	5.58
257.009	5.55
257.47	5.53
257.931	5.5
258.391	5.46
258.852	5.43
259.312	5.4
259.773	5.37
260.233	5.33
260.694	5.3
261.154	5.26
261.614	5.24
262.074	5.22
262.534	5.18
262.994	5.15
263.455	5.12
263.915	5.09
264.374	5.06
264.834	5.04
265.294	5.02
265.754	5
266.214	4.98
266.673	4.95
267.133	4.93
267.593	4.92
268.052	4.9
268.512	4.88
268.971	4.87
269.431	4.86
269.89	4.84
270.349	4.82
270.809	4.81
271.268	4.8
271.727	4.79
272.186	4.77
272.645	4.75
273.104	4.74
273.563	4.74
274.022	4.72
274.481	4.7
274.94	4.69
275.399	4.67
275.857	4.65
276.316	4.63
276.775	4.62
277.233	4.6
277.692	4.59
278.15	4.57
278.609	4.55
279.067	4.54
279.525	4.52
279.984	4.52
280.442	4.5
280.9	4.49
281.358	4.48
281.816	4.47
282.274	4.45
282.732	4.44
283.19	4.44
283.648	4.43
284.106	4.42
284.564	4.41
285.021	4.41
285.479	4.41
285.937	4.41
286.394	4.39
286.852	4.38
287.309	4.37
287.767	4.36
288.224	4.34
288.682	4.34
289.139	4.33
289.596	4.31
290.053	4.28
290.511	4.26
290.968	4.24
291.425	4.23
291.882	4.21
292.339	4.19
292.796	4.18
293.252	4.16
293.709	4.14
294.166	4.12
294.623	4.11
295.079	4.11
295.536	4.1
295.992	4.09
296.449	4.08
296.905	4.07
297.362	4.06
297.818	4.05
298.274	4.04
298.731	4.03
299.187	4.02
299.643	4.01
300.099	3.99
300.555	3.98
301.011	3.97
301.467	3.96
301.923	3.95
302.379	3.95
302.835	3.94
303.291	3.93
303.746	3.93
304.202	3.92
304.658	3.91
305.113	3.91
305.569	3.91
306.024	3.9
306.479	3.9
306.935	3.89
307.39	3.89
307.845	3.88
308.301	3.88
308.756	3.88
309.211	3.88
309.666	3.88
310.121	3.88
310.576	3.87
311.031	3.86
311.486	3.86
311.94	3.85
312.395	3.85
312.85	3.86
313.305	3.85
313.759	3.85
314.214	3.84
314.668	3.83
315.123	3.83
315.577	3.83
316.032	3.82
316.486	3.81
316.94	3.81
317.394	3.8
317.849	3.79
318.303	3.78
318.757	3.77
319.211	3.76
319.665	3.76
320.119	3.75
320.572	3.74
321.026	3.74
321.48	3.73
321.934	3.71
322.387	3.71
322.841	3.69
323.295	3.69
323.748	3.68
324.202	3.68
324.655	3.67
325.108	3.66
325.562	3.65
326.015	3.64
326.468	3.62
326.921	3.61
327.374	3.61
327.827	3.61
328.28	3.6
328.733	3.59
329.186	3.59
329.639	3.58
330.092	3.58
330.545	3.58
330.997	3.59
331.45	3.59
331.903	3.59
332.355	3.59
332.808	3.59
333.26	3.59
333.713	3.6
334.165	3.6
334.617	3.61
335.069	3.6
335.522	3.6
335.974	3.6
336.426	3.6
336.878	3.59
337.33	3.59
337.782	3.59
338.234	3.59
338.686	3.58
339.137	3.58
339.589	3.57
340.041	3.57
340.493	3.56
340.944	3.55
341.396	3.55
341.847	3.55
342.299	3.54
342.75	3.52
343.201	3.51
343.653	3.49
344.104	3.48
344.555	3.47
345.006	3.46
345.457	3.45
345.908	3.44
346.359	3.43
346.81	3.43
347.261	3.43
347.712	3.42
348.163	3.42
348.613	3.42
349.064	3.41
349.515	3.4
349.965	3.4
350.416	3.4
350.866	3.41
351.317	3.4
351.767	3.39
352.217	3.38
352.668	3.38
353.118	3.38
353.568	3.38
354.018	3.39
354.468	3.39
354.918	3.39
355.368	3.39
355.818	3.38
356.268	3.38
356.718	3.38
357.168	3.38
357.617	3.37
358.067	3.36
358.517	3.35
358.966	3.35
359.416	3.35
359.865	3.35
360.315	3.34
360.764	3.34
361.213	3.33
361.663	3.34
362.112	3.33
362.561	3.34
363.01	3.35
363.459	3.35
363.908	3.35
364.357	3.35
364.806	3.34
365.255	3.35
365.703	3.34
366.152	3.35
366.601	3.34
367.05	3.35
367.498	3.34
367.947	3.34
368.395	3.35
368.844	3.34
369.292	3.33
369.74	3.33
370.189	3.32
370.637	3.33
371.085	3.33
371.533	3.32
371.981	3.32
372.429	3.31
372.877	3.31
373.325	3.3
373.773	3.3
374.221	3.3
374.669	3.28
375.116	3.29
375.564	3.28
376.012	3.28
376.459	3.3
376.907	3.31
377.354	3.32
377.801	3.32
378.249	3.34
378.696	3.36
379.143	3.36
379.591	3.39
380.038	3.4
380.485	3.41
380.932	3.42
381.379	3.4
381.826	3.41
382.273	3.41
382.72	3.42
383.166	3.42
383.613	3.43
384.06	3.45
384.506	3.46
384.953	3.47
385.4	3.48
385.846	3.48
386.292	3.5
386.739	3.51
387.185	3.54
387.631	3.56
388.078	3.59
388.524	3.6
388.97	3.63
389.416	3.64
389.862	3.66
390.308	3.68
390.754	3.71
391.2	3.73
391.645	3.76
392.091	3.78
392.537	3.8
392.983	3.82
393.428	3.84
393.874	3.85
394.319	3.88
394.765	3.9
395.21	3.92
395.655	3.95
396.101	3.97
396.546	3.99
396.991	4
397.436	4
397.881	4.02
398.326	4.05
398.771	4.08
399.216	4.1
399.661	4.12
400.106	4.15
400.551	4.16
400.995	4.16
401.44	4.16
401.885	4.17
402.329	4.19
402.774	4.19
403.218	4.19
403.663	4.18
404.107	4.18
404.551	4.18
404.995	4.18
405.44	4.17
405.884	4.18
406.328	4.19
406.772	4.2
407.216	4.21
407.66	4.21
408.104	4.22
408.547	4.22
408.991	4.23
409.435	4.23
409.879	4.24
410.322	4.25
410.766	4.26
411.209	4.27
411.653	4.26
412.096	4.26
412.54	4.26
412.983	4.27
413.426	4.29
413.869	4.3
414.312	4.32
414.756	4.33
415.199	4.35
415.642	4.37
416.085	4.38
416.527	4.4
416.97	4.42
417.413	4.41
417.856	4.4
418.298	4.38
418.741	4.38
419.184	4.38
419.626	4.37
420.069	4.37
420.511	4.35
420.953	4.34
421.396	4.34
421.838	4.36
422.28	4.4
422.722	4.42
423.164	4.44
423.606	4.45
424.048	4.44
424.49	4.45
424.932	4.45
425.374	4.45
425.816	4.43
426.258	4.44
426.699	4.41
427.141	4.39
427.582	4.4
428.024	4.4
428.465	4.41
428.907	4.42
429.348	4.43
429.789	4.44
430.231	4.47
430.672	4.5
431.113	4.5
431.554	4.52
431.995	4.56
432.436	4.57
432.877	4.56
433.318	4.56
433.759	4.56
434.2	4.57
434.64	4.6
435.081	4.6
435.522	4.63
435.962	4.66
436.403	4.68
436.843	4.67
437.284	4.68
437.724	4.7
438.164	4.71
438.604	4.74
439.045	4.75
439.485	4.76
439.925	4.77
440.365	4.75
440.805	4.75
441.245	4.75
441.685	4.79
442.125	4.8
442.564	4.82
443.004	4.86
443.444	4.89
443.883	4.92
444.323	4.92
444.762	4.97
445.202	5.03
445.641	5.07
446.081	5.11
446.52	5.1
446.959	5.13
447.398	5.17
447.837	5.21
448.276	5.2
448.716	5.23
449.154	5.29
449.593	5.29
450.032	5.3
450.471	5.33
450.91	5.33
451.349	5.36
451.787	5.38
452.226	5.36
452.664	5.35
453.103	5.35
453.541	5.34
453.98	5.33
454.418	5.33
454.856	5.31
455.295	5.29
455.733	5.3
456.171	5.29
456.609	5.29
457.047	5.31
457.485	5.31
457.923	5.32
458.361	5.32
458.798	5.33
459.236	5.32
459.674	5.32
460.111	5.33
460.549	5.33
460.987	5.32
461.424	5.33
461.862	5.32
462.299	5.32
462.736	5.31
463.173	5.32
463.611	5.33
464.048	5.35
464.485	5.35
464.922	5.35
465.359	5.38
465.796	5.4
466.233	5.4
466.67	5.42
467.106	5.42
467.543	5.44
467.98	5.44
468.416	5.45
468.853	5.45
469.29	5.45
469.726	5.46
470.162	5.45
470.599	5.42
471.035	5.42
471.471	5.39
471.907	5.39
472.344	5.39
472.78	5.38
473.216	5.38
473.652	5.36
474.088	5.39
474.523	5.38
474.959	5.38
475.395	5.39
475.831	5.4
476.266	5.42
476.702	5.41
477.138	5.39
477.573	5.38
478.008	5.37
478.444	5.37
478.879	5.36
479.314	5.36
479.75	5.36
480.185	5.36
480.62	5.34
481.055	5.34
481.49	5.33
481.925	5.34
482.36	5.34
482.795	5.35
483.229	5.35
483.664	5.35
484.099	5.36
484.534	5.35
484.968	5.35
485.403	5.36
485.837	5.37
486.271	5.39
486.706	5.39
487.14	5.42
487.574	5.44
488.009	5.47
488.443	5.49
488.877	5.51
489.311	5.54
489.745	5.57
490.179	5.6
490.613	5.63
491.046	5.67
491.48	5.72
491.914	5.75
492.348	5.78
492.781	5.82
493.215	5.87
493.648	5.92
494.082	5.99
494.515	6.04
494.948	6.11
495.382	6.18
495.815	6.25
496.248	6.32
496.681	6.39
497.114	6.48
497.547	6.55
497.98	6.65
498.413	6.73
498.846	6.83
499.279	6.94
499.711	7.03
500.144	7.14
500.577	7.25
501.009	7.37
501.442	7.51
501.874	7.65
502.306	7.79
502.739	7.93
503.171	8.1
503.603	8.26
504.036	8.43
504.468	8.62
504.9	8.8
505.332	9
505.764	9.21
506.196	9.42
506.627	9.64
507.059	9.86
507.491	10.09
507.923	10.32
508.354	10.57
508.786	10.82
509.217	11.06
509.649	11.34
510.08	11.62
510.512	11.88
510.943	12.17
511.374	12.45
511.805	12.75
512.237	13.07
512.668	13.36
513.099	13.67
513.53	14
513.961	14.33
514.391	14.63
514.822	14.94
515.253	15.27
515.684	15.6
516.114	15.94
516.545	16.27
516.975	16.6
517.406	16.94
517.836	17.27
518.267	17.61
518.697	17.94
519.127	18.28
519.558	18.61
519.988	18.93
520.418	19.24
520.848	19.56
521.278	19.9
521.708	20.07
522.138	20.35
522.567	20.63
522.997	20.91
523.427	21.19
523.857	21.45
524.286	21.71
524.716	21.96
525.145	22.21
525.575	22.43
526.004	22.64
526.433	23
526.863	23.23
527.292	23.45
527.721	23.65
528.15	23.82
528.579	24.01
529.008	24.19
529.437	24.37
529.866	24.52
530.295	24.71
530.724	24.87
531.152	25.01
531.581	25.14
532.01	25.28
532.438	25.4
532.867	25.53
533.295	25.66
533.723	25.79
534.152	25.9
534.58	25.98
535.008	26.04
535.436	26.12
535.865	26.16
536.293	26.25
536.721	26.31
537.149	26.38
537.576	26.45
538.004	26.49
538.432	26.51
538.86	26.56
539.287	26.64
539.715	26.71
540.143	26.74
540.57	26.8
540.998	26.83
541.425	26.87
541.852	26.9
542.28	26.91
542.707	26.95
543.134	26.99
543.561	27
543.988	27.02
544.415	27.04
544.842	27.08
545.269	27.14
545.696	27.16
546.123	27.17
546.549	27.21
546.976	27.24
547.403	27.24
547.829	27.26
548.256	27.3
548.682	27.31
549.108	27.35
549.535	27.35
549.961	27.32
550.387	27.31
550.813	27.32
551.24	27.31
551.666	27.32
552.092	27.32
552.518	27.31
552.943	27.3
553.369	27.27
553.795	27.25
554.221	27.23
554.646	27.23
555.072	27.19
555.498	27.14
555.923	27.12
556.349	27.06
556.774	27
557.199	26.93
557.625	26.87
558.05	26.8
558.475	26.69
558.9	26.6
559.325	26.5
559.75	26.44
560.175	26.35
560.6	26.22
561.025	26.15
561.449	26.06
561.874	25.94
562.299	25.82
562.723	25.7
563.148	25.58
563.572	25.47
563.997	25.34
564.421	25.18
564.846	25.04
565.27	24.91
565.694	24.74
566.118	24.58
566.542	24.46
566.966	24.32
567.39	24.17
567.814	24.02
568.238	23.84
568.662	23.69
569.086	23.55
569.509	23.4
569.933	23.23
570.357	23.07
570.78	22.92
571.204	22.74
571.627	22.57
572.05	22.43
572.474	22.27
572.897	22.13
573.32	21.97
573.743	21.81
574.166	21.66
574.589	21.52
575.012	21.41
575.435	21.26
575.858	21.13
576.281	21.01
576.704	20.88
577.126	20.75
577.549	20.64
577.972	20.52
578.394	20.41
578.817	20.3
579.239	20.2
579.661	20.09
580.084	20
580.506	19.92
580.928	19.84
581.35	19.76
581.772	19.7
582.194	19.61
582.616	19.55
583.038	19.48
583.46	19.41
583.882	19.33
584.303	19.26
584.725	19.18
585.147	19.1
585.568	19.02
585.99	18.95
586.411	18.88
586.833	18.81
587.254	18.74
587.675	18.69
588.096	18.63
588.518	18.58
588.939	18.51
589.36	18.45
589.781	18.41
590.202	18.35
590.623	18.29
591.043	18.24
591.464	18.19
591.885	18.14
592.305	18.09
592.726	18.03
593.147	18
593.567	17.95
593.987	17.94
594.408	17.89
594.828	17.86
595.248	17.84
595.669	17.81
596.089	17.78
596.509	17.73
596.929	17.69
597.349	17.67
597.769	17.63
598.189	17.62
598.608	17.57
599.028	17.54
599.448	17.5
599.867	17.44
600.287	17.4
600.706	17.35
601.126	17.32
601.545	17.29
601.965	17.24
602.384	17.18
602.803	17.11
603.222	17.04
603.641	16.98
604.061	16.93
604.48	16.87
604.898	16.79
605.317	16.72
605.736	16.63
606.155	16.55
606.574	16.47
606.992	16.39
607.411	16.32
607.829	16.2
608.248	16.1
608.666	16.02
609.085	15.93
609.503	15.86
609.921	15.78
610.339	15.71
610.758	15.62
611.176	15.53
611.594	15.43
612.012	15.34
612.43	15.28
612.847	15.21
613.265	15.13
613.683	15.05
614.101	14.95
614.518	14.85
614.936	14.74
615.353	14.65
615.771	14.59
616.188	14.53
616.606	14.45
617.023	14.4
617.44	14.33
617.857	14.25
618.274	14.19
618.691	14.13
619.108	14.09
619.525	14.06
619.942	14.01
620.359	13.96
620.776	13.93
621.192	13.89
621.609	13.85
622.026	13.82
622.442	13.8
622.859	13.77
623.275	13.76
623.691	13.74
624.108	13.74
624.524	13.75
624.94	13.73
625.356	13.71
625.772	13.71
626.188	13.71
626.604	13.69
627.02	13.66
627.436	13.66
627.852	13.65
628.268	13.62
628.683	13.59
629.099	13.57
629.514	13.54
629.93	13.52
630.345	13.49
630.761	13.44
631.176	13.41
631.591	13.38
632.007	13.32
632.422	13.27
632.837	13.21
633.252	13.16
633.667	13.08
634.082	13.01
634.497	12.9
634.911	12.8
635.326	12.69
635.741	12.6
636.155	12.48
636.57	12.38
636.984	12.24
637.399	12.09
637.813	11.94
638.228	11.8
638.642	11.65
639.056	11.52
639.47	11.38
639.884	11.23
640.298	11.08
640.712	10.95
641.126	10.79
641.54	10.64
641.954	10.52
642.368	10.39
642.781	10.26
643.195	10.11
643.609	9.98
644.022	9.85
644.436	9.72
644.849	9.6
645.262	9.48
645.676	9.36
646.089	9.24
646.502	9.14
646.915	9.04
647.328	8.97
647.741	8.9
648.154	8.83
648.567	8.78
648.98	8.72
649.393	8.67
649.805	8.61
650.218	8.57
650.631	8.53
651.043	8.49
651.456	8.46
651.868	8.41
652.28	8.38
652.693	8.33
653.105	8.28
653.517	8.22
653.929	8.17
654.341	8.14
654.753	8.08
655.165	8.02
655.577	7.94
655.989	7.86
656.401	7.77
656.813	7.69
657.224	7.61
657.636	7.52
658.047	7.43
658.459	7.34
658.87	7.22
659.282	7.14
659.693	7.05
660.104	6.96
660.515	6.87
660.926	6.78
661.338	6.69
661.749	6.6
662.159	6.52
662.57	6.44
662.981	6.35
663.392	6.28
663.803	6.21
664.213	6.15
664.624	6.09
665.035	6.03
665.445	5.98
665.855	5.93
666.266	5.88
666.676	5.85
667.086	5.81
667.497	5.78
667.907	5.74
668.317	5.71
668.727	5.69
669.137	5.66
669.547	5.67
669.956	5.65
670.366	5.65
670.776	5.66
671.186	5.66
671.595	5.68
672.005	5.71
672.414	5.72
672.824	5.74
673.233	5.76
673.642	5.78
674.052	5.79
674.461	5.82
674.87	5.85
675.279	5.87
675.688	5.89
676.097	5.91
676.506	5.94
676.915	5.97
677.323	6.01
677.732	6.07
678.141	6.13
678.549	6.19
678.958	6.24
679.366	6.29
679.775	6.36
680.183	6.44
680.592	6.52
681	6.59
681.408	6.69
681.816	6.79
682.224	6.92
682.632	7.07
683.04	7.21
683.448	7.37
683.856	7.57
684.264	7.78
684.671	8.01
685.079	8.28
685.487	8.57
685.894	8.88
686.302	9.23
686.709	9.57
687.116	9.96
687.524	10.37
687.931	10.82
688.338	11.31
688.745	11.81
689.152	12.36
689.559	12.91
689.966	13.51
690.373	14.14
690.78	14.77
691.187	15.44
691.593	16.1
692	16.8
692.407	17.51
692.813	18.21
693.22	18.93
693.626	19.63
694.032	20.36
694.439	21.07
694.845	21.77
695.251	22.48
695.657	23.2
696.063	23.93
696.469	24.63
696.875	25.31
697.281	25.98
697.687	26.67
698.093	27.34
698.498	28.01
698.904	28.68
699.31	29.32
699.715	29.96
700.12	30.56
700.526	31.13
700.931	31.71
701.337	32.31
701.742	32.87
702.147	33.42
702.552	33.99
702.957	34.51
703.362	35.03
703.767	35.52
704.172	36.02
704.577	36.51
704.981	37.01
705.386	37.47
705.791	37.95
706.195	38.41
706.6	38.82
707.004	39.23
707.408	39.67
707.813	40.07
708.217	40.48
708.621	40.87
709.025	41.29
709.43	41.65
709.834	42.06
710.237	42.41
710.641	42.81
711.045	43.18
711.449	43.53
711.853	43.86
712.256	44.24
712.66	44.59
713.064	44.93
713.467	45.22
713.87	45.56
714.274	45.88
714.677	46.18
715.08	46.46
715.484	46.79
715.887	47.08
716.29	47.38
716.693	47.63
717.096	47.91
717.499	48.19
717.901	48.46
718.304	48.7
718.707	48.93
719.109	49.18
719.512	49.42
719.915	49.65
720.317	49.9
720.719	50.09
721.122	50.3
721.524	50.51
721.926	50.72
722.328	50.96
722.731	51.17
723.133	51.38
723.535	51.58
723.937	51.76
724.338	51.9
724.74	52.06
725.142	52.22
725.544	52.39
725.945	52.54
726.347	52.68
726.748	52.76
727.15	52.87
727.551	53.01
727.952	53.1
728.354	53.22
728.755	53.34
729.156	53.44
729.557	53.56
729.958	53.69
730.359	53.81
730.76	53.91
731.161	54.03
731.562	54.14
731.962	54.21
732.363	54.32
732.763	54.43
733.164	54.52
733.564	54.6
733.965	54.66
734.365	54.67
734.766	54.72
735.166	54.75
735.566	54.82
735.966	54.85
736.366	54.9
736.766	54.94
737.166	54.97
737.566	54.99
737.966	55.07
738.365	55.14
738.765	55.24
739.165	55.25
739.564	55.32
739.964	55.37
740.363	55.43
740.763	55.47
741.162	55.49
741.561	55.5
741.96	55.57
742.36	55.6
742.759	55.6
743.158	55.58
743.557	55.67
743.955	55.71
744.354	55.7
744.753	55.71
745.152	55.72
745.55	55.75
745.949	55.81
746.348	55.84
746.746	55.85
747.144	55.93
747.543	56.01
747.941	56.03
748.339	56.07
748.737	56.1
749.136	56.16
749.534	56.22
749.932	56.25
750.33	56.27
750.727	56.3
751.125	56.32
751.523	56.31
751.921	56.29
752.318	56.27
752.716	56.25
753.113	56.24
753.511	56.23
753.908	56.19
754.305	56.15
754.703	56.12
755.1	56.08
755.497	56.07
755.894	56.06
756.291	56.03
756.688	56.02
757.085	56
757.482	56
757.878	56.01
758.275	56
758.672	56.07
759.068	56.08
759.465	56.07
759.861	56.05
760.258	55.99
760.654	55.97
761.05	56
761.447	56.03
761.843	55.98
762.239	55.95
762.635	55.95
763.031	55.9
763.427	55.86
763.822	55.84
764.218	55.85
764.614	55.88
765.01	55.87
765.405	55.83
765.801	55.8
766.196	55.81
766.592	55.84
766.987	55.85
767.382	55.87
767.778	55.9
768.173	55.92
768.568	55.88
768.963	55.88
769.358	55.89
769.753	55.92
770.148	55.89
770.542	55.9
770.937	55.88
771.332	55.88
771.726	55.85
772.121	55.81
772.515	55.81
772.91	55.79
773.304	55.84
773.699	55.84
774.093	55.81
774.487	55.83
774.881	55.83
775.275	55.82
775.669	55.82
776.063	55.82
776.457	55.83
776.851	55.81
777.245	55.86
777.638	55.82
778.032	55.84
778.425	55.83
778.819	55.84
779.212	55.8
779.606	55.79
779.999	55.78
780.392	55.79
780.786	55.79
781.179	55.8
781.572	55.76
781.965	55.76
782.358	55.71
782.751	55.73
783.143	55.71
783.536	55.75
783.929	55.76
784.322	55.75
784.714	55.76
785.107	55.77
785.499	55.77
785.891	55.81
786.284	55.82
786.676	55.86
787.068	55.81
787.46	55.8
787.852	55.8
788.245	55.79
788.636	55.76
789.028	55.74
789.42	55.72
789.812	55.69
790.204	55.62
790.595	55.62
790.987	55.6
791.378	55.65
791.77	55.7
792.161	55.71
792.553	55.72
792.944	55.77
793.335	55.77
793.726	55.76
794.117	55.77
794.508	55.78
794.899	55.79
795.29	55.79
795.681	55.77
796.072	55.75
796.463	55.73
796.853	55.69
797.244	55.66
797.634	55.67
798.025	55.69
798.415	55.71
798.806	55.75
799.196	55.76
799.586	55.78
799.976	55.81
800.366	55.8
800.756	55.84
801.146	55.83
801.536	55.82
801.926	55.84
802.316	55.85
802.706	55.87
803.095	55.87
803.485	55.88
803.874	55.88
804.264	55.87
804.653	55.85
805.043	55.82
805.432	55.84
805.821	55.88
806.21	55.93
806.599	55.97
806.988	55.97
807.377	56.02
807.766	56.03
808.155	56.04
808.544	56.02
808.933	56.03
809.321	56.07
809.71	56.12
810.098	56.12
810.487	56.1
810.875	56.06
811.264	56.05
811.652	56.04
812.04	56.02
812.428	56.04
812.816	56.09
813.204	56.11
813.592	56.11
813.98	56.09
814.368	56.08
814.756	56.09
815.144	56.11
815.531	56.12
815.919	56.08
816.306	56.1
816.694	56.09
817.081	56.05
817.469	56.06
817.856	56.08
818.243	56.08
818.63	56.15
819.017	56.16
819.404	56.18
819.791	56.16
820.178	56.21
820.565	56.21
820.952	56.24
821.339	56.27
821.725	56.27
822.112	56.29
822.498	56.28
822.885	56.24
823.271	56.26
823.657	56.24
824.044	56.23
824.43	56.26
824.816	56.27
825.202	56.25
825.588	56.26
825.974	56.29
826.36	56.29
826.746	56.32
827.132	56.29
827.517	56.29
827.903	56.3
828.289	56.33
828.674	56.31
829.06	56.31
829.445	56.36
829.83	56.38
830.216	56.39
830.601	56.37
830.986	56.36
831.371	56.4
831.756	56.36
832.141	56.37
832.526	56.36
832.911	56.38
833.295	56.41
833.68	56.39
834.065	56.38
834.449	56.34
834.834	56.34
835.218	56.34
835.603	56.36
835.987	56.39
836.371	56.41
836.755	56.41
837.139	56.38
837.524	56.35
837.908	56.3
838.291	56.3
838.675	56.33
839.059	56.35
839.443	56.35
839.827	56.33
840.21	56.35
840.594	56.35
840.977	56.35
841.361	56.36
841.744	56.41
842.127	56.44
842.511	56.44
842.894	56.38
843.277	56.38
843.66	56.4
844.043	56.39
844.426	56.38
844.809	56.39
845.191	56.37
845.574	56.38
845.957	56.31
846.339	56.32
846.722	56.32
847.104	56.36
847.487	56.36
847.869	56.31
848.252	56.32
848.634	56.3
849.016	56.28
849.398	56.28
849.78	56.27
850.162	56.3
850.544	56.3
850.926	56.27
851.307	56.27
851.689	56.26
852.071	56.29
852.452	56.29
852.834	56.29
853.215	56.29
853.597	56.34
853.978	56.31
854.359	56.29
854.741	56.3
855.122	56.31
855.503	56.3
855.884	56.28
856.265	56.25
856.646	56.24
857.026	56.25
857.407	56.23
857.788	56.19
858.169	56.19
858.549	56.2
858.93	56.17
859.31	56.16
859.69	56.12
860.071	56.14
860.451	56.18
860.831	56.16
861.211	56.15
861.591	56.18
861.971	56.17
862.351	56.2
862.731	56.2
863.111	56.19
863.491	56.2
863.87	56.22
864.25	56.24
864.629	56.2
865.009	56.18
865.388	56.14
865.768	56.13
866.147	56.15
866.526	56.14
866.905	56.11
867.284	56.14
867.663	56.13
868.042	56.14
868.421	56.12
868.8	56.13
869.179	56.16
869.558	56.17
869.936	56.15
870.315	56.13
870.693	56.12
871.072	56.13
871.45	56.12
871.828	56.12
872.207	56.12
872.585	56.11
872.963	56.06
873.341	56.06
873.719	56.07
874.097	56.06
874.475	56.05
874.853	56.03
875.23	56.03
875.608	56.03
875.986	56.01
876.363	56
876.741	56
877.118	56.03
877.495	56.02
877.873	56.01
878.25	56
878.627	56.03
879.004	56.07
879.381	56.09
879.758	56.04
880.135	56.06
880.512	56.04
880.889	56.07
881.265	56.12
881.642	56.16
882.019	56.19
882.395	56.24
882.772	56.25
883.148	56.2
883.524	56.22
883.901	56.22
884.277	56.21
884.653	56.22
885.029	56.21
885.405	56.19
885.781	56.14
886.157	56.14
886.532	56.11
886.908	56.11
887.284	56.15
887.659	56.15
888.035	56.2
888.411	56.15
888.786	56.14
889.161	56.11
889.537	56.11
889.912	56.11
890.287	56.07
890.662	56.04
891.037	56
891.412	55.93
891.787	55.91
892.162	55.87
892.536	55.9
892.911	55.9
893.286	55.89
893.66	55.87
894.035	55.85
894.409	55.84
894.784	55.84
895.158	55.85
895.532	55.85
895.906	55.82
896.281	55.79
896.655	55.77
897.029	55.73
897.402	55.74
897.776	55.74
898.15	55.75
898.524	55.75
898.898	55.75
899.271	55.77
899.645	55.79
900.018	55.79
900.392	55.84
900.765	55.83
901.138	55.85
901.511	55.82
901.884	55.81
902.258	55.78
902.631	55.77
903.003	55.75
903.376	55.7
903.749	55.67
904.122	55.68
904.495	55.64
904.867	55.63
905.24	55.61
905.612	55.59
905.985	55.53
906.357	55.51
906.729	55.48
907.102	55.5
907.474	55.5
907.846	55.48
908.218	55.42
908.59	55.39
908.962	55.37
909.334	55.38
909.705	55.42
910.077	55.44
910.449	55.47
910.82	55.45
911.192	55.43
911.563	55.41
911.935	55.41
912.306	55.4
912.677	55.44
913.048	55.42
913.419	55.41
913.79	55.36
914.161	55.34
914.532	55.29
914.903	55.29
915.274	55.27
915.645	55.3
916.015	55.3
916.386	55.33
916.756	55.27
917.127	55.27
917.497	55.25
917.868	55.26
918.238	55.29
918.608	55.31
918.978	55.33
919.348	55.3
919.718	55.31
920.088	55.3
920.458	55.28
920.828	55.31
921.198	55.33
921.567	55.29
921.937	55.28
922.306	55.24
922.676	55.25
923.045	55.22
923.415	55.27
923.784	55.24
924.153	55.23
924.522	55.24
924.891	55.22
925.26	55.16
925.629	55.19
925.998	55.21
926.367	55.2
926.736	55.18
927.104	55.16
927.473	55.11
927.842	55.03
928.21	55.07
928.578	55.02
928.947	55.03
929.315	55.07
929.683	55.06
930.051	55.02
930.42	55.01
930.788	54.99
931.156	54.96
931.523	54.95
931.891	54.94
932.259	54.85
932.627	54.81
932.994	54.73
933.362	54.67
933.729	54.6
934.097	54.55
934.464	54.49
934.831	54.43
935.199	54.43
935.566	54.38
935.933	54.37
936.3	54.25
936.667	54.17
937.034	54.08
937.401	54.01
937.767	53.98
938.134	53.9
938.501	53.87
938.867	53.84
939.234	53.75
939.6	53.69
939.967	53.69
940.333	53.82
940.699	53.9
941.065	54.03
941.431	54.05
941.798	54.08
942.163	54.17
942.529	54.25
942.895	54.34
943.261	54.39
943.627	54.48
943.992	54.51
944.358	54.53
944.723	54.57
945.089	54.57
945.454	54.61
945.82	54.62
946.185	54.64
946.55	54.7
946.915	54.67
947.28	54.63
947.645	54.58
948.01	54.58
948.375	54.6
948.74	54.57
949.104	54.53
949.469	54.49
949.834	54.5
950.198	54.43
950.562	54.42
950.927	54.4
951.291	54.39
951.655	54.4
952.02	54.31
952.384	54.3
952.748	54.3
953.112	54.3
953.476	54.33
953.839	54.24
954.203	54.15
954.567	54.14
954.931	54.08
955.294	54.1
955.658	54.05
956.021	54.06
956.385	54.03
956.748	54.01
957.111	53.97
957.474	54.01
957.837	54.06
958.2	54.07
958.563	54.03
958.926	53.94
959.289	53.88
959.652	53.85
960.015	53.84
960.377	53.81
960.74	53.78
961.102	53.79
961.465	53.73
961.827	53.64
962.189	53.66
962.552	53.57
962.914	53.59
963.276	53.59
963.638	53.6
964	53.57
964.362	53.6
964.724	53.56
965.085	53.57
965.447	53.46
965.809	53.43
966.17	53.39
966.532	53.57
966.893	53.61
967.255	53.58
967.616	53.57
967.977	53.56
968.338	53.46
968.699	53.44
969.061	53.38
969.421	53.44
969.782	53.48
970.143	53.45
970.504	53.31
970.865	53.22
971.225	53.22
971.586	53.25
971.946	53.24
972.307	53.23
972.667	53.25
973.027	53.25
973.388	53.19
973.748	53.2
974.108	53.25
974.468	53.25
974.828	53.35
975.188	53.35
975.548	53.38
975.907	53.39
976.267	53.46
976.627	53.48
976.986	53.41
977.346	53.41
977.705	53.43
978.064	53.39
978.424	53.3
978.783	53.25
979.142	53.19
979.501	53.16
979.86	53.15
980.219	53.09
980.578	53.08
980.937	53.22
981.296	53.22
981.654	53.18
982.013	53.2
982.371	53.23
982.73	53.27
983.088	53.29
983.447	53.27
983.805	53.24
984.163	53.25
984.521	53.15
984.879	53.14
985.237	53.13
985.595	53.25
985.953	53.26
986.311	53.34
986.669	53.27
987.026	53.25
987.384	53.25
987.741	53.19
988.099	53.23
988.456	53.32
988.814	53.28
989.171	53.31
989.528	53.17
989.885	53.08
990.242	53.06
990.599	53.13
990.956	53.26
991.313	53.23
991.67	53.28
992.027	53.19
992.383	53.17
992.74	53.18
993.096	53.12
993.453	53.1
993.809	53.27
994.165	53.25
994.522	53.21
994.878	53.09
995.234	53
995.59	52.88
995.946	52.89
996.302	52.7
996.658	52.62
997.013	52.7
997.369	52.7
997.725	52.65
998.08	52.55
998.436	52.58
998.791	52.47
999.147	52.66
999.502	52.67
999.857	52.67
1000.212	52.7
1000.567	52.71
1000.922	52.59
1001.277	52.58
1001.632	52.53
1001.987	52.52
1002.342	52.45
1002.696	52.52
1003.051	52.2
1003.406	52.14
1003.76	52.13
1004.114	52.32
1004.469	52.23
1004.823	52.21
1005.177	52.23
1005.531	52.04
1005.885	52.11
1006.239	52
1006.593	51.85
1006.947	51.85
1007.301	51.75
1007.655	51.76
1008.008	51.57
1008.362	51.42
1008.715	51.43
1009.069	51.35
1009.422	51.29
1009.776	51.05
1010.129	50.96
1010.482	51.18
1010.835	51.37
1011.188	51.51
1011.541	51.39
1011.894	51.49
1012.247	51.55
1012.6	51.59
1012.952	51.48
1013.305	51.52
1013.657	51.7
1014.01	51.85
1014.362	51.67
1014.715	51.28
1015.067	51.23
1015.419	51.45
1015.771	51.32
1016.123	51.34
1016.475	51.38
1016.827	51.56
1017.179	51.56
1017.531	51.32
1017.883	51.25
1018.234	51.34
1018.586	51.76
1018.938	51.66
1019.289	51.27
1019.64	51.45
1019.992	51.52
1020.343	51.26
1020.694	50.96
1021.045	50.89
1021.396	51.03
1021.747	51.16
1022.098	51.05
1022.449	50.78
1022.8	50.82
1023.151	50.89
1023.501	50.67
1023.852	50.56
1024.202	50.64
1024.553	50.7
1024.903	50.79
1025.253	50.4
1025.604	50.18
1025.954	50.02
1026.304	50.33
1026.654	50.45
1027.004	50.51
1027.354	50.45
1027.703	50.34
1028.053	50.09
1028.403	50.19
1028.753	50.32
1029.102	50.7
1029.452	50.63
1029.801	50.75
1030.15	50.53
1030.499	50.48
897.758	504.08
901.051	509.44
904.343	518.73
907.636	513.2
910.928	501.47
914.22	510.33
917.511	499.55
920.803	477.94
924.094	459.56
927.384	464.1
930.675	447.61
933.965	441.42
937.255	441.46
940.544	421.64
943.834	401.34
947.123	396.98
950.411	375.54
953.7	369.62
956.988	357.26
960.276	342.77
963.563	338.61
966.851	323
970.138	318.82
973.424	297.91
976.711	293.09
979.997	282.72
983.283	277.5
986.568	269.64
989.853	262.29
993.138	254.13
996.423	249.86
999.708	241.44
1002.992	242.37
1006.275	235.18
1009.559	233.35
1012.842	226.24
1016.125	220.38
1019.408	216.2
1022.69	214.91
1025.972	214.12
1029.254	207.83
1032.536	205.11
1035.817	199.34
1039.098	196.68
1042.379	193.34
1045.659	191.21
1048.939	190.49
1052.219	187.75
1055.498	184.03
1058.778	181.25
1062.057	176.95
1065.335	177.13
1068.614	173.86
1071.892	171.93
1075.17	169.36
1078.447	167.04
1081.724	165.73
1085.001	162.14
1088.278	161.69
1091.554	161.06
1094.83	159.55
1098.106	156.88
1101.382	156.04
1104.657	155.44
1107.932	155.21
1111.206	153.62
1114.481	152.67
1117.755	150.86
1121.029	150.5
1124.302	148.68
1127.575	146.08
1130.848	146.02
1134.121	144.38
1137.393	143.87
1140.665	143.1
1143.937	140.97
1147.208	140.65
1150.48	138.74
1153.75	138.47
1157.021	137.19
1160.291	136.98
1163.561	137.89
1166.831	135.7
1170.101	136.11
1173.37	135.84
1176.639	133.88
1179.907	134.39
1183.176	133.26
1186.444	133.42
1189.711	132.88
1192.979	133.85
1196.246	133.25
1199.513	132.47
1202.78	132.77
1206.046	132.57
1209.312	132.41
1212.578	133.85
1215.843	134.92
1219.108	135.93
1222.373	138.09
1225.638	140.31
1228.902	142.67
1232.166	146.33
1235.43	147.51
1238.693	152.94
1241.956	155.58
1245.219	159.24
1248.482	159.97
1251.744	160.01
1255.006	160.29
1258.268	156
1261.529	154.64
1264.79	151.75
1268.051	148.9
1271.312	147.84
1274.572	144.24
1277.832	141.24
1281.092	139.5
1284.351	137.26
1287.61	137.8
1290.869	135.88
1294.128	136.18
1297.386	135.42
1300.644	134.28
1303.902	133.43
1307.159	134.1
1310.416	133.81
1313.673	136.07
1316.93	136.35
1320.186	138.75
1323.442	139.17
1326.697	143.25
1329.953	143.69
1333.208	147.69
1336.463	152.9
1339.717	156.68
1342.972	161.87
1346.226	167.26
1349.479	168.53
1352.733	175.98
1355.986	178.41
1359.238	182.98
1362.491	183.47
1365.743	190.96
1368.995	192.75
1372.247	192.73
1375.498	191.44
1378.749	198.69
1382	194.64
1385.251	194.46
1388.501	192.65
1391.751	195.59
1395	193.27
1398.25	193.8
1401.499	193.04
1404.748	191.9
1407.996	186.55
1411.244	187.09
1414.492	182.1
1417.74	180.46
1420.987	174.91
1424.234	172.35
1427.481	165.11
1430.728	160.93
1433.974	155.87
1437.22	149.93
1440.465	145.03
1443.711	141.96
1446.956	136.95
1450.201	131.86
1453.445	125.15
1456.689	122.37
1459.933	118.44
1463.177	113.47
1466.42	111.06
1469.663	107.97
1472.906	104.45
1476.148	102.63
1479.391	100.33
1482.633	98.94
1485.874	98.01
1489.115	97.46
1492.356	95.19
1495.597	93.78
1498.838	94.54
1502.078	93.97
1505.318	93.83
1508.557	93.01
1511.797	91.79
1515.036	92.27
1518.274	91.48
1521.513	90.16
1524.751	89.89
1527.989	90.7
1531.227	90.68
1534.464	89.91
1537.701	89.14
1540.938	88.77
1544.174	89.27
1547.41	89.43
1550.646	88.67
1553.882	89.1
1557.117	89.13
1560.352	89.18
1563.587	88.37
1566.821	88.3
1570.055	87.45
1573.289	88.1
1576.523	88.06
1579.756	87.75
1582.989	87.7
1586.222	87.84
1589.454	87.04
1592.686	87.13
1595.918	86.65
1599.15	87.03
1602.381	87.47
1605.612	88.17
1608.843	87.35
1612.073	88.18
1615.303	88.3
1618.533	87.97
1621.762	88.64
1624.992	89.02
1628.221	88.79
1631.449	89.41
1634.678	88.48
1637.906	88.65
1641.134	88.35
1644.361	88.64
1647.588	88.31
1650.815	88.54
1654.042	88.38
1657.269	88.13
1660.495	88.9
1663.72	88.82
1666.946	88.71
1670.171	89.81
1673.396	89.84
1676.621	90.74
1679.845	91.23
1683.069	90.52
1686.293	90.28
1689.517	90.56
1692.74	90.25
1695.963	90.6
1699.185	90.89
1702.408	90.98
1705.63	91.2
1708.852	91.16
1712.073	90.67
1715.294	90.41
1718.515	91.46
1721.736	91.83
1724.956	91.76
1728.176	91.97
1731.396	92.01
1734.616	92.01
1737.835	92.15
1741.054	92.19
1744.272	91.78
1747.491	91.8
1750.709	92.15
1753.927	92.12
1757.144	92.31
1760.361	92.66
1763.578	92.72
1766.795	93.14
1770.011	93.56
1773.227	93.71
1776.443	94.15
1779.658	94.55
1782.874	95.11
1786.089	94.92
1789.303	95.31
1792.518	95.83
1795.732	96.83
1798.945	97.96
1802.159	97.51
1805.372	98.53
1808.585	99.22
1811.797	99.41
1815.01	100.83
1818.222	101.41
1821.434	103.37
1824.645	103.59
1827.856	105
1831.067	104.85
1834.278	105.62
1837.488	106.88
1840.698	107.31
1843.908	107.69
1847.117	109.46
1850.326	109.66
1853.535	109.85
1856.744	109.56
1859.952	111.11
1863.16	110.58
1866.368	110.51
1869.575	110.38
1872.782	109.73
1875.989	109.52
1879.196	109.02
1882.402	106.58
1885.608	107.81
1888.814	107.79
1892.019	107.37
1895.224	105.58
1898.429	106.04
1901.634	107.17
1904.838	106.83
1908.042	107.17
1911.246	106.75
1914.449	107.5
1917.652	107.87
1920.855	107.64
1924.058	106.27
1927.26	106.69
1930.462	107.28
1933.664	107.49
1936.865	106.69
1940.066	106.09
1943.267	105.71
1946.467	106.59
1949.668	106.19
1952.868	107.74
1956.067	106.92
1959.267	108.4
1962.466	108.71
1965.665	108.83
1968.863	109.5
1972.061	110.69
1975.259	113.36
1978.457	113.32
1981.654	114.54
1984.852	115.5
1988.048	115.66
1991.245	118.26
1994.441	120.42
1997.637	121.86
2000.833	125.19
2004.028	125.88
2007.223	129.71
2010.418	132.24
2013.613	138.33
2016.807	141.53
2020.001	145.21
2023.194	149.14
2026.388	153.18
2029.581	160.01
2032.774	165.29
2035.966	169.53
2039.158	174.79
2042.35	177.83
2045.542	179.72
2048.733	186.53
2051.924	189.8
2055.115	191.12
2058.306	193.66
2061.496	196.48
2064.686	198.13
2067.875	197.04
2071.065	199.77
2074.254	200.19
2077.442	205.43
2080.631	206.51
2083.819	207.73
2087.007	210.08
2090.195	213.96
2093.382	213.35
2096.569	213.82
2099.756	218.17
2102.942	223.88
2106.128	226.52
2109.314	228.98
2112.5	228.9
2115.685	228.5
2118.87	228.58
2122.055	230.24
2125.239	235.24
2128.424	241.56
2131.608	241.48
2134.791	236.1
2137.974	238.72
2141.157	241.29
2144.34	242.9
2147.523	244.87
2150.705	252.64
2153.887	251.75
2157.068	253.78
2160.25	256.45
2163.431	255.15
2166.611	258.81
2169.792	265.1
2172.972	269.36
2176.152	270.16
2179.331	277.35
2182.511	278.34
2185.69	281.07
2188.868	292.17
2192.047	296.61
2195.225	300.88
2198.403	305.97
2201.58	301.56
2204.758	314.06
2207.935	313.35
2211.111	317.3
2214.288	317.13
2217.464	320.81
2220.64	322.74
2223.815	321.27
2226.991	318.58
2230.166	321.28
2233.34	330.75
2236.515	342.01
2239.689	335.52
2242.863	339.13
2246.036	338.13
2249.209	347.22
2252.382	347.97
2255.555	358.55
2258.727	361.02
2261.9	374.29
2265.071	379.86
2268.243	376.56
2271.414	383.74
2274.585	393.03
2277.756	395.12
2280.926	410.22
2284.096	408.13
2287.266	411.3
2290.436	403.91
2293.605	414.2
2296.774	426.74
2299.942	421.96
2303.111	435.75
2306.279	443.48
2309.447	446.64
2312.614	450.54
2315.781	458.92
2318.948	470.19
2322.115	477.09
2325.281	502.16
2328.447	495.52
2331.613	496.69
2334.779	510.57
2337.944	513.06
2341.109	527.02
2344.274	527.35
2347.438	545.2
2350.602	553.68
2353.766	578.58
2356.929	581.33
2360.092	585.44
2363.255	589.99
2366.418	598.88
2369.58	609.12
2372.742	613.14
2375.904	607.91
2379.066	628.93
2382.227	664.25
2385.388	661.85
2388.548	632.84
2391.709	627.5
2394.869	655.97
2398.029	656.4
2401.188	653.07
2404.347	672.17
2407.506	693.62
2410.665	665.16
2413.823	669.13
2416.981	663.08
2420.139	635.93
2423.296	682.98
2426.453	730.07
2429.61	697.8
2432.767	742.64
2435.923	771.39
2439.079	745.71
2442.235	764.72
2445.391	789.58
2448.546	783.52
2451.701	822.75
2454.855	873.1
2458.009	782.73
2461.163	787.62
2464.317	791.26
2467.471	779.02
2470.624	799.73
2473.777	789.75
2476.929	762.4
2480.082	805.47
2483.234	843.42
2486.385	858.66
2489.537	884.88
2492.688	964.99
2495.839	957.42
2498.989	984.91
2502.14	986
2505.29	945.93
2508.439	1050.74
2511.589	1081.33
2514.738	1052.84
2517.887	1040.96
2521.035	984.6
2524.183	957.8
2527.331	950.52
2530.479	925.11
2533.627	945.4
