Data from N_1_div_il_4n_005_Splice17_01.txt Node
Date: Sat Feb 29 13:34:17 EST 2020
User: sa697716
Spectrometer: FLMS03696
Trigger mode: 0
Integration Time (sec): 3.180400E-1
Scans to average: 20
Electric dark correction enabled: true
Nonlinearity correction enabled: true
Boxcar width: 5
XAxis mode: Wavelengths
Number of Pixels in Spectrum: 2048
>>>>>Begin Spectral Data<<<<<
187.83	103.02
188.298	105.84
188.766	94.48
189.233	85.56
189.701	85.37
190.169	88
190.636	81.97
191.104	54.28
191.571	94.44
192.039	142.85
192.506	-22.07
192.974	5693.1
193.441	-615.06
193.908	115.28
194.375	136.26
194.842	116.46
195.31	75.03
195.777	69.05
196.244	7.77
196.711	3.71
197.177	2.33
197.644	1.72
198.111	0.6
198.578	-0.48
199.045	-0.14
199.511	0.17
199.978	0.79
200.445	1.07
200.911	0.99
201.378	1.32
201.844	1.45
202.31	1.94
202.777	2.11
203.243	2.74
203.709	3.38
204.176	3.19
204.642	3.55
205.108	3.47
205.574	3.75
206.04	4.07
206.506	3.96
206.972	4.41
207.438	4.03
207.903	4.6
208.369	4.29
208.835	4.53
209.301	4.77
209.766	4.81
210.232	5.05
210.697	5.28
211.163	5.42
211.628	4.93
212.094	4.97
212.559	5.11
213.024	4.54
213.49	4.69
213.955	4.55
214.42	4.57
214.885	4.26
215.35	4.21
215.815	4.02
216.28	3.95
216.745	4.24
217.21	4.28
217.675	4.41
218.14	4.52
218.604	4.46
219.069	4.53
219.534	4.53
219.998	4.53
220.463	4.55
220.927	4.53
221.392	4.49
221.856	4.47
222.32	4.39
222.785	4.31
223.249	4.27
223.713	4.27
224.177	4.19
224.642	4.14
225.106	4.11
225.57	4.05
226.034	4.03
226.497	4.01
226.961	3.97
227.425	3.91
227.889	3.87
228.353	3.83
228.816	3.8
229.28	3.74
229.744	3.71
230.207	3.69
230.671	3.65
231.134	3.61
231.597	3.56
232.061	3.52
232.524	3.51
232.987	3.49
233.45	3.47
233.914	3.45
234.377	3.46
234.84	3.43
235.303	3.4
235.766	3.39
236.229	3.36
236.691	3.34
237.154	3.31
237.617	3.29
238.08	3.25
238.542	3.23
239.005	3.2
239.468	3.15
239.93	3.13
240.393	3.1
240.855	3.05
241.317	3.04
241.78	3.03
242.242	3
242.704	2.98
243.166	2.95
243.629	2.92
244.091	2.89
244.553	2.89
245.015	2.88
245.477	2.84
245.939	2.83
246.4	2.8
246.862	2.79
247.324	2.79
247.786	2.77
248.247	2.77
248.709	2.75
249.17	2.76
249.632	2.74
250.093	2.7
250.555	2.69
251.016	2.69
251.477	2.66
251.939	2.65
252.4	2.63
252.861	2.61
253.322	2.59
253.783	2.58
254.244	2.56
254.705	2.55
255.166	2.55
255.627	2.56
256.088	2.54
256.549	2.53
257.009	2.52
257.47	2.51
257.931	2.5
258.391	2.49
258.852	2.47
259.312	2.45
259.773	2.44
260.233	2.43
260.694	2.41
261.154	2.41
261.614	2.39
262.074	2.38
262.534	2.37
262.994	2.36
263.455	2.35
263.915	2.34
264.374	2.33
264.834	2.32
265.294	2.31
265.754	2.3
266.214	2.28
266.673	2.28
267.133	2.28
267.593	2.27
268.052	2.26
268.512	2.25
268.971	2.25
269.431	2.24
269.89	2.23
270.349	2.22
270.809	2.22
271.268	2.22
271.727	2.21
272.186	2.2
272.645	2.18
273.104	2.18
273.563	2.18
274.022	2.16
274.481	2.15
274.94	2.14
275.399	2.13
275.857	2.13
276.316	2.11
276.775	2.11
277.233	2.1
277.692	2.1
278.15	2.09
278.609	2.08
279.067	2.08
279.525	2.07
279.984	2.07
280.442	2.06
280.9	2.05
281.358	2.04
281.816	2.03
282.274	2.02
282.732	2.02
283.19	2.01
283.648	2
284.106	2
284.564	2
285.021	1.99
285.479	1.99
285.937	1.97
286.394	1.96
286.852	1.95
287.309	1.95
287.767	1.93
288.224	1.92
288.682	1.91
289.139	1.91
289.596	1.9
290.053	1.89
290.511	1.88
290.968	1.88
291.425	1.88
291.882	1.88
292.339	1.88
292.796	1.87
293.252	1.87
293.709	1.87
294.166	1.86
294.623	1.86
295.079	1.85
295.536	1.85
295.992	1.84
296.449	1.84
296.905	1.83
297.362	1.82
297.818	1.82
298.274	1.81
298.731	1.8
299.187	1.8
299.643	1.8
300.099	1.8
300.555	1.78
301.011	1.78
301.467	1.78
301.923	1.78
302.379	1.77
302.835	1.77
303.291	1.77
303.746	1.76
304.202	1.76
304.658	1.75
305.113	1.75
305.569	1.75
306.024	1.74
306.479	1.73
306.935	1.72
307.39	1.72
307.845	1.72
308.301	1.71
308.756	1.72
309.211	1.71
309.666	1.7
310.121	1.7
310.576	1.69
311.031	1.69
311.486	1.69
311.94	1.69
312.395	1.68
312.85	1.68
313.305	1.68
313.759	1.68
314.214	1.68
314.668	1.67
315.123	1.68
315.577	1.67
316.032	1.67
316.486	1.67
316.94	1.67
317.394	1.67
317.849	1.67
318.303	1.67
318.757	1.67
319.211	1.66
319.665	1.67
320.119	1.67
320.572	1.68
321.026	1.68
321.48	1.68
321.934	1.68
322.387	1.67
322.841	1.67
323.295	1.67
323.748	1.66
324.202	1.66
324.655	1.66
325.108	1.64
325.562	1.63
326.015	1.62
326.468	1.61
326.921	1.61
327.374	1.6
327.827	1.6
328.28	1.6
328.733	1.6
329.186	1.6
329.639	1.6
330.092	1.61
330.545	1.61
330.997	1.61
331.45	1.62
331.903	1.61
332.355	1.61
332.808	1.61
333.26	1.6
333.713	1.6
334.165	1.6
334.617	1.6
335.069	1.59
335.522	1.59
335.974	1.59
336.426	1.59
336.878	1.59
337.33	1.59
337.782	1.58
338.234	1.59
338.686	1.58
339.137	1.59
339.589	1.58
340.041	1.59
340.493	1.58
340.944	1.57
341.396	1.57
341.847	1.57
342.299	1.57
342.75	1.57
343.201	1.56
343.653	1.56
344.104	1.55
344.555	1.55
345.006	1.55
345.457	1.55
345.908	1.55
346.359	1.54
346.81	1.54
347.261	1.54
347.712	1.55
348.163	1.55
348.613	1.54
349.064	1.53
349.515	1.52
349.965	1.52
350.416	1.52
350.866	1.53
351.317	1.52
351.767	1.52
352.217	1.52
352.668	1.52
353.118	1.52
353.568	1.52
354.018	1.54
354.468	1.55
354.918	1.54
355.368	1.55
355.818	1.54
356.268	1.54
356.718	1.55
357.168	1.54
357.617	1.54
358.067	1.53
358.517	1.52
358.966	1.51
359.416	1.52
359.865	1.52
360.315	1.51
360.764	1.51
361.213	1.51
361.663	1.51
362.112	1.51
362.561	1.52
363.01	1.52
363.459	1.53
363.908	1.53
364.357	1.52
364.806	1.52
365.255	1.54
365.703	1.54
366.152	1.54
366.601	1.53
367.05	1.54
367.498	1.54
367.947	1.54
368.395	1.53
368.844	1.53
369.292	1.52
369.74	1.53
370.189	1.53
370.637	1.54
371.085	1.55
371.533	1.55
371.981	1.56
372.429	1.55
372.877	1.55
373.325	1.55
373.773	1.56
374.221	1.57
374.669	1.56
375.116	1.56
375.564	1.56
376.012	1.56
376.459	1.57
376.907	1.57
377.354	1.58
377.801	1.59
378.249	1.6
378.696	1.6
379.143	1.62
379.591	1.64
380.038	1.66
380.485	1.67
380.932	1.68
381.379	1.69
381.826	1.71
382.273	1.73
382.72	1.76
383.166	1.78
383.613	1.81
384.06	1.83
384.506	1.85
384.953	1.87
385.4	1.9
385.846	1.94
386.292	1.99
386.739	2.03
387.185	2.09
387.631	2.14
388.078	2.19
388.524	2.22
388.97	2.26
389.416	2.3
389.862	2.37
390.308	2.45
390.754	2.53
391.2	2.63
391.645	2.72
392.091	2.79
392.537	2.85
392.983	2.95
393.428	3.11
393.874	3.3
394.319	3.51
394.765	3.73
395.21	3.95
395.655	4.18
396.101	4.43
396.546	4.7
396.991	5.02
397.436	5.36
397.881	5.72
398.326	6.06
398.771	6.4
399.216	6.73
399.661	7.02
400.106	7.31
400.551	7.56
400.995	7.78
401.44	7.99
401.885	8.2
402.329	8.42
402.774	8.62
403.218	8.87
403.663	9.12
404.107	9.4
404.551	9.71
404.995	9.99
405.44	10.25
405.884	10.55
406.328	10.84
406.772	11.2
407.216	11.58
407.66	11.95
408.104	12.28
408.547	12.57
408.991	12.82
409.435	13.08
409.879	13.39
410.322	13.75
410.766	14.13
411.209	14.51
411.653	14.83
412.096	15.11
412.54	15.38
412.983	15.66
413.426	15.97
413.869	16.29
414.312	16.63
414.756	16.93
415.199	17.19
415.642	17.41
416.085	17.6
416.527	17.79
416.97	17.93
417.413	18.01
417.856	18.02
418.298	18.04
418.741	18.06
419.184	18.11
419.626	18.18
420.069	18.29
420.511	18.42
420.953	18.55
421.396	18.7
421.838	18.9
422.28	19.17
422.722	19.47
423.164	19.74
423.606	19.98
424.048	20.18
424.49	20.29
424.932	20.23
425.374	20.03
425.816	19.67
426.258	19.27
426.699	18.93
427.141	18.82
427.582	18.95
428.024	19.23
428.465	19.57
428.907	19.9
429.348	20.19
429.789	20.57
430.231	21.12
430.672	21.97
431.113	22.96
431.554	23.99
431.995	24.78
432.436	25.4
432.877	25.83
433.318	26.16
433.759	26.49
434.2	26.92
434.64	27.44
435.081	27.98
435.522	28.46
435.962	28.85
436.403	29.16
436.843	29.43
437.284	29.69
437.724	30.02
438.164	30.41
438.604	30.87
439.045	31.36
439.485	31.8
439.925	32.18
440.365	32.5
440.805	32.74
441.245	32.92
441.685	33.11
442.125	33.3
442.564	33.54
443.004	33.79
443.444	34.1
443.883	34.44
444.323	34.82
444.762	35.16
445.202	35.54
445.641	35.96
446.081	36.53
446.52	37.11
446.959	37.68
447.398	38.15
447.837	38.49
448.276	38.61
448.716	38.65
449.154	38.67
449.593	38.74
450.032	38.77
450.471	38.72
450.91	38.55
451.349	38.37
451.787	38.23
452.226	38.11
452.664	38.03
453.103	38.03
453.541	38.06
453.98	38
454.418	37.86
454.856	37.71
455.295	37.56
455.733	37.45
456.171	37.36
456.609	37.26
457.047	37.21
457.485	37.18
457.923	37.19
458.361	37.25
458.798	37.4
459.236	37.55
459.674	37.66
460.111	37.81
460.549	37.94
460.987	38.07
461.424	38.2
461.862	38.33
462.299	38.46
462.736	38.61
463.173	38.76
463.611	38.95
464.048	39.25
464.485	39.61
464.922	40.02
465.359	40.41
465.796	40.79
466.233	41.14
466.67	41.49
467.106	41.95
467.543	42.48
467.98	43.07
468.416	43.54
468.853	43.93
469.29	44.34
469.726	44.72
470.162	45.15
470.599	45.56
471.035	45.99
471.471	46.31
471.907	46.52
472.344	46.64
472.78	46.65
473.216	46.79
473.652	46.93
474.088	47.02
474.523	47.08
474.959	47.07
475.395	47.13
475.831	47.13
476.266	47.15
476.702	47.18
477.138	47.18
477.573	47.16
478.008	47.05
478.444	46.92
478.879	46.71
479.314	46.46
479.75	46.19
480.185	45.82
480.62	45.4
481.055	44.82
481.49	43.95
481.925	42.97
482.36	42.04
482.795	41.22
483.229	40.56
483.664	40.06
484.099	39.64
484.534	39.26
484.968	38.97
485.403	38.8
485.837	38.83
486.271	39.09
486.706	39.44
487.14	39.71
487.574	39.84
488.009	39.86
488.443	39.84
488.877	39.8
489.311	39.81
489.745	39.81
490.179	39.8
490.613	39.8
491.046	39.8
491.48	39.82
491.914	39.91
492.348	40.09
492.781	40.29
493.215	40.42
493.648	40.53
494.082	40.57
494.515	40.58
494.948	40.58
495.382	40.56
495.815	40.51
496.248	40.42
496.681	40.31
497.114	40.17
497.547	40
497.98	39.92
498.413	39.91
498.846	39.98
499.279	40.04
499.711	40.06
500.144	40.08
500.577	40.21
501.009	40.48
501.442	40.8
501.874	41.16
502.306	41.54
502.739	41.84
503.171	42.07
503.603	42.27
504.036	42.45
504.468	42.72
504.9	43.03
505.332	43.27
505.764	43.45
506.196	43.59
506.627	43.74
507.059	43.94
507.491	44.16
507.923	44.41
508.354	44.65
508.786	44.86
509.217	45
509.649	45.09
510.08	45.18
510.512	45.29
510.943	45.45
511.374	45.58
511.805	45.59
512.237	45.45
512.668	45.19
513.099	44.97
513.53	44.79
513.961	44.68
514.391	44.62
514.822	44.66
515.253	44.78
515.684	44.91
516.114	45.07
516.545	45.36
516.975	45.87
517.406	46.52
517.836	47.17
518.267	47.76
518.697	48.3
519.127	48.85
519.558	49.36
519.988	49.81
520.418	50.24
520.848	50.63
521.278	50.97
521.708	51.24
522.138	51.23
522.567	51.16
522.997	51.15
523.427	51.21
523.857	51.29
524.286	51.42
524.716	51.58
525.145	51.69
525.575	51.8
526.004	51.95
526.433	52.13
526.863	52.57
527.292	53.08
527.721	53.49
528.15	53.7
528.579	53.81
529.008	53.82
529.437	53.74
529.866	53.68
530.295	53.66
530.724	53.66
531.152	53.63
531.581	53.61
532.01	53.55
532.438	53.52
532.867	53.56
533.295	53.61
533.723	53.73
534.152	53.77
534.58	53.8
535.008	53.73
535.436	53.59
535.865	53.36
536.293	53.11
536.721	52.91
537.149	52.78
537.576	52.75
538.004	52.71
538.432	52.62
538.86	52.62
539.287	52.64
539.715	52.73
540.143	52.88
540.57	53.09
540.998	53.33
541.425	53.59
541.852	53.82
542.28	54.01
542.707	54.21
543.134	54.36
543.561	54.45
543.988	54.55
544.415	54.65
544.842	54.77
545.269	54.9
545.696	55.01
546.123	55.09
546.549	55.18
546.976	55.26
547.403	55.37
547.829	55.51
548.256	55.66
548.682	55.72
549.108	55.83
549.535	55.87
549.961	55.94
550.387	56.02
550.813	56.12
551.24	56.2
551.666	56.27
552.092	56.21
552.518	56.12
552.943	56.07
553.369	56.03
553.795	55.92
554.221	55.79
554.646	55.54
555.072	55.29
555.498	54.97
555.923	54.71
556.349	54.47
556.774	54.34
557.199	54.23
557.625	54.08
558.05	53.91
558.475	53.77
558.9	53.68
559.325	53.63
559.75	53.53
560.175	53.47
560.6	53.33
561.025	53.15
561.449	52.85
561.874	52.55
562.299	52.27
562.723	52.04
563.148	51.8
563.572	51.55
563.997	51.27
564.421	50.99
564.846	50.71
565.27	50.44
565.694	50.15
566.118	49.9
566.542	49.62
566.966	49.34
567.39	49.06
567.814	48.83
568.238	48.62
568.662	48.5
569.086	48.41
569.509	48.3
569.933	48.2
570.357	48.12
570.78	48.04
571.204	47.97
571.627	47.92
572.05	47.86
572.474	47.76
572.897	47.64
573.32	47.47
573.743	47.28
574.166	47.1
574.589	46.9
575.012	46.77
575.435	46.67
575.858	46.62
576.281	46.58
576.704	46.54
577.126	46.51
577.549	46.52
577.972	46.53
578.394	46.56
578.817	46.62
579.239	46.7
579.661	46.76
580.084	46.81
580.506	46.81
580.928	46.75
581.35	46.67
581.772	46.57
582.194	46.41
582.616	46.28
583.038	46.18
583.46	46.05
583.882	45.85
584.303	45.58
584.725	45.19
585.147	44.77
585.568	44.38
585.99	44.08
586.411	43.84
586.833	43.64
587.254	43.48
587.675	43.28
588.096	43.12
588.518	42.99
588.939	42.94
589.36	42.99
589.781	43.1
590.202	43.23
590.623	43.25
591.043	43.2
591.464	43.15
591.885	43.03
592.305	42.96
592.726	42.82
593.147	42.75
593.567	42.61
593.987	42.48
594.408	42.33
594.828	42.16
595.248	42.05
595.669	41.94
596.089	41.78
596.509	41.61
596.929	41.39
597.349	41.18
597.769	40.92
598.189	40.74
598.608	40.57
599.028	40.41
599.448	40.31
599.867	40.18
600.287	40.07
600.706	39.95
601.126	39.86
601.545	39.78
601.965	39.71
602.384	39.67
602.803	39.57
603.222	39.45
603.641	39.34
604.061	39.17
604.48	38.99
604.898	38.79
605.317	38.6
605.736	38.37
606.155	38.13
606.574	37.93
606.992	37.71
607.411	37.51
607.829	37.28
608.248	37.08
608.666	36.91
609.085	36.71
609.503	36.49
609.921	36.29
610.339	36.15
610.758	35.99
611.176	35.81
611.594	35.61
612.012	35.38
612.43	35.19
612.847	34.98
613.265	34.8
613.683	34.66
614.101	34.56
614.518	34.46
614.936	34.33
615.353	34.22
615.771	34.15
616.188	34.1
616.606	34.08
617.023	34.06
617.44	34.03
617.857	33.96
618.274	33.87
618.691	33.75
619.108	33.62
619.525	33.48
619.942	33.32
620.359	33.14
620.776	32.94
621.192	32.73
621.609	32.53
622.026	32.35
622.442	32.18
622.859	32.03
623.275	31.88
623.691	31.72
624.108	31.58
624.524	31.47
624.94	31.35
625.356	31.25
625.772	31.18
626.188	31.09
626.604	30.98
627.02	30.89
627.436	30.77
627.852	30.67
628.268	30.6
628.683	30.55
629.099	30.49
629.514	30.44
629.93	30.38
630.345	30.35
630.761	30.31
631.176	30.3
631.591	30.26
632.007	30.26
632.422	30.24
632.837	30.21
633.252	30.18
633.667	30.15
634.082	30.14
634.497	30.12
634.911	30.06
635.326	30.01
635.741	29.92
636.155	29.84
636.57	29.73
636.984	29.62
637.399	29.49
637.813	29.38
638.228	29.27
638.642	29.14
639.056	29.02
639.47	28.91
639.884	28.81
640.298	28.73
640.712	28.64
641.126	28.55
641.54	28.46
641.954	28.38
642.368	28.27
642.781	28.15
643.195	28.01
643.609	27.89
644.022	27.77
644.436	27.64
644.849	27.49
645.262	27.34
645.676	27.18
646.089	27.05
646.502	26.96
646.915	26.87
647.328	26.79
647.741	26.7
648.154	26.64
648.567	26.59
648.98	26.55
649.393	26.52
649.805	26.49
650.218	26.49
650.631	26.42
651.043	26.31
651.456	26.09
651.868	25.76
652.28	25.41
652.693	25.05
653.105	24.75
653.517	24.49
653.929	24.33
654.341	24.21
654.753	24.08
655.165	24.03
655.577	23.99
655.989	24.07
656.401	24.25
656.813	24.49
657.224	24.72
657.636	24.89
658.047	25.02
658.459	25.05
658.87	25.04
659.282	25.03
659.693	24.96
660.104	24.92
660.515	24.86
660.926	24.83
661.338	24.74
661.749	24.65
662.159	24.57
662.57	24.47
662.981	24.38
663.392	24.29
663.803	24.19
664.213	24.12
664.624	24.06
665.035	23.99
665.445	23.92
665.855	23.84
666.266	23.76
666.676	23.65
667.086	23.57
667.497	23.47
667.907	23.38
668.317	23.3
668.727	23.22
669.137	23.12
669.547	23.03
669.956	22.93
670.366	22.86
670.776	22.77
671.186	22.71
671.595	22.63
672.005	22.57
672.414	22.53
672.824	22.49
673.233	22.43
673.642	22.37
674.052	22.33
674.461	22.28
674.87	22.22
675.279	22.2
675.688	22.15
676.097	22.13
676.506	22.09
676.915	22.07
677.323	22.03
677.732	22.01
678.141	21.98
678.549	21.95
678.958	21.95
679.366	21.92
679.775	21.9
680.183	21.87
680.592	21.84
681	21.81
681.408	21.75
681.816	21.68
682.224	21.54
682.632	21.31
683.04	20.96
683.448	20.59
683.856	20.26
684.264	19.95
684.671	19.69
685.079	19.42
685.487	19.2
685.894	19.01
686.302	18.86
686.709	18.8
687.116	18.9
687.524	19.12
687.931	19.39
688.338	19.68
688.745	19.94
689.152	20.23
689.559	20.51
689.966	20.75
690.373	21.01
690.78	21.26
691.187	21.49
691.593	21.7
692	21.92
692.407	22.13
692.813	22.34
693.22	22.55
693.626	22.75
694.032	22.94
694.439	23.17
694.845	23.36
695.251	23.55
695.657	23.74
696.063	23.94
696.469	24.1
696.875	24.24
697.281	24.37
697.687	24.54
698.093	24.68
698.498	24.84
698.904	25
699.31	25.16
699.715	25.37
700.12	25.56
700.526	25.77
700.931	26
701.337	26.25
701.742	26.47
702.147	26.67
702.552	26.88
702.957	27.09
703.362	27.31
703.767	27.51
704.172	27.71
704.577	27.9
704.981	28.09
705.386	28.26
705.791	28.43
706.195	28.63
706.6	28.8
707.004	28.96
707.408	29.13
707.813	29.27
708.217	29.43
708.621	29.58
709.025	29.72
709.43	29.82
709.834	29.99
710.237	30.1
710.641	30.23
711.045	30.37
711.449	30.5
711.853	30.63
712.256	30.75
712.66	30.82
713.064	30.84
713.467	30.85
713.87	30.85
714.274	30.79
714.677	30.72
715.08	30.64
715.484	30.56
715.887	30.48
716.29	30.41
716.693	30.36
717.096	30.42
717.499	30.54
717.901	30.69
718.304	30.89
718.707	31.08
719.109	31.33
719.512	31.53
719.915	31.72
720.317	31.91
720.719	32.08
721.122	32.24
721.524	32.36
721.926	32.43
722.328	32.49
722.731	32.53
723.133	32.57
723.535	32.62
723.937	32.68
724.338	32.76
724.74	32.82
725.142	32.92
725.544	32.95
725.945	33.02
726.347	33.07
726.748	33.1
727.15	33.18
727.551	33.28
727.952	33.36
728.354	33.49
728.755	33.6
729.156	33.74
729.557	33.85
729.958	34.04
730.359	34.18
730.76	34.31
731.161	34.44
731.562	34.53
731.962	34.58
732.363	34.64
732.763	34.69
733.164	34.72
733.564	34.77
733.965	34.78
734.365	34.75
734.766	34.73
735.166	34.71
735.566	34.71
735.966	34.71
736.366	34.71
736.766	34.71
737.166	34.68
737.566	34.66
737.966	34.64
738.365	34.63
738.765	34.64
739.165	34.64
739.564	34.67
739.964	34.66
740.363	34.69
740.763	34.69
741.162	34.72
741.561	34.73
741.96	34.76
742.36	34.76
742.759	34.76
743.158	34.74
743.557	34.75
743.955	34.75
744.354	34.77
744.753	34.75
745.152	34.73
745.55	34.71
745.949	34.67
746.348	34.64
746.746	34.6
747.144	34.59
747.543	34.57
747.941	34.53
748.339	34.51
748.737	34.52
749.136	34.49
749.534	34.48
749.932	34.44
750.33	34.43
750.727	34.43
751.125	34.42
751.523	34.39
751.921	34.38
752.318	34.37
752.716	34.31
753.113	34.26
753.511	34.2
753.908	34.16
754.305	34.14
754.703	34.03
755.1	33.81
755.497	33.44
755.894	32.91
756.291	32.19
756.688	31.41
757.085	30.61
757.482	29.9
757.878	29.28
758.275	28.66
758.672	28.01
759.068	27.39
759.465	26.89
759.861	26.59
760.258	26.49
760.654	26.62
761.05	26.9
761.447	27.24
761.843	27.51
762.239	27.76
762.635	28.06
763.031	28.43
763.427	28.87
763.822	29.33
764.218	29.79
764.614	30.23
765.01	30.63
765.405	30.97
765.801	31.3
766.196	31.61
766.592	31.87
766.987	32.08
767.382	32.22
767.778	32.34
768.173	32.44
768.568	32.47
768.963	32.52
769.358	32.57
769.753	32.61
770.148	32.58
770.542	32.54
770.937	32.5
771.332	32.48
771.726	32.44
772.121	32.44
772.515	32.41
772.91	32.37
773.304	32.31
773.699	32.28
774.093	32.19
774.487	32.17
774.881	32.16
775.275	32.13
775.669	32.08
776.063	32.04
776.457	31.97
776.851	31.92
777.245	31.88
777.638	31.85
778.032	31.79
778.425	31.78
778.819	31.77
779.212	31.71
779.606	31.66
779.999	31.63
780.392	31.6
780.786	31.56
781.179	31.52
781.572	31.48
781.965	31.44
782.358	31.37
782.751	31.34
783.143	31.28
783.536	31.25
783.929	31.21
784.322	31.18
784.714	31.15
785.107	31.11
785.499	31.06
785.891	31.02
786.284	30.96
786.676	30.92
787.068	30.86
787.46	30.78
787.852	30.71
788.245	30.66
788.636	30.56
789.028	30.47
789.42	30.37
789.812	30.3
790.204	30.2
790.595	30.15
790.987	30.11
791.378	30.05
791.77	30.03
792.161	29.98
792.553	29.92
792.944	29.89
793.335	29.85
793.726	29.83
794.117	29.82
794.508	29.82
794.899	29.76
795.29	29.68
795.681	29.62
796.072	29.54
796.463	29.51
796.853	29.46
797.244	29.4
797.634	29.36
798.025	29.31
798.415	29.24
798.806	29.21
799.196	29.16
799.586	29.13
799.976	29.09
800.366	29.05
800.756	28.97
801.146	28.94
801.536	28.87
801.926	28.82
802.316	28.79
802.706	28.73
803.095	28.64
803.485	28.6
803.874	28.55
804.264	28.49
804.653	28.42
805.043	28.36
805.432	28.26
805.821	28.2
806.21	28.14
806.599	28.07
806.988	27.99
807.377	27.9
807.766	27.83
808.155	27.76
808.544	27.65
808.933	27.59
809.321	27.51
809.71	27.46
810.098	27.38
810.487	27.27
810.875	27.15
811.264	27.02
811.652	26.93
812.04	26.82
812.428	26.7
812.816	26.62
813.204	26.5
813.592	26.4
813.98	26.28
814.368	26.2
814.756	26.13
815.144	26.07
815.531	26.02
815.919	25.96
816.306	25.91
816.694	25.91
817.081	25.86
817.469	25.87
817.856	25.85
818.243	25.8
818.63	25.75
819.017	25.71
819.404	25.65
819.791	25.63
820.178	25.59
820.565	25.54
820.952	25.49
821.339	25.49
821.725	25.44
822.112	25.4
822.498	25.41
822.885	25.42
823.271	25.41
823.657	25.39
824.044	25.36
824.43	25.35
824.816	25.32
825.202	25.27
825.588	25.23
825.974	25.19
826.36	25.16
826.746	25.14
827.132	25.09
827.517	25.06
827.903	25.04
828.289	25
828.674	24.96
829.06	24.94
829.445	24.94
829.83	24.91
830.216	24.89
830.601	24.87
830.986	24.86
831.371	24.85
831.756	24.83
832.141	24.81
832.526	24.8
832.911	24.8
833.295	24.78
833.68	24.76
834.065	24.75
834.449	24.72
834.834	24.69
835.218	24.65
835.603	24.61
835.987	24.59
836.371	24.57
836.755	24.56
837.139	24.52
837.524	24.52
837.908	24.47
838.291	24.44
838.675	24.45
839.059	24.42
839.443	24.41
839.827	24.39
840.21	24.37
840.594	24.35
840.977	24.32
841.361	24.3
841.744	24.29
842.127	24.29
842.511	24.26
842.894	24.22
843.277	24.23
843.66	24.2
844.043	24.19
844.426	24.17
844.809	24.15
845.191	24.13
845.574	24.13
845.957	24.07
846.339	24.04
846.722	24.05
847.104	24.03
847.487	23.98
847.869	23.98
848.252	23.95
848.634	23.96
849.016	23.95
849.398	23.94
849.78	23.89
850.162	23.86
850.544	23.85
850.926	23.79
851.307	23.74
851.689	23.72
852.071	23.69
852.452	23.66
852.834	23.62
853.215	23.6
853.597	23.59
853.978	23.57
854.359	23.59
854.741	23.58
855.122	23.59
855.503	23.6
855.884	23.61
856.265	23.6
856.646	23.59
857.026	23.58
857.407	23.55
857.788	23.54
858.169	23.54
858.549	23.54
858.93	23.54
859.31	23.54
859.69	23.53
860.071	23.51
860.451	23.5
860.831	23.5
861.211	23.48
861.591	23.49
861.971	23.44
862.351	23.43
862.731	23.39
863.111	23.35
863.491	23.34
863.87	23.31
864.25	23.29
864.629	23.28
865.009	23.25
865.388	23.23
865.768	23.2
866.147	23.21
866.526	23.21
866.905	23.2
867.284	23.2
867.663	23.18
868.042	23.18
868.421	23.17
868.8	23.17
869.179	23.17
869.558	23.17
869.936	23.17
870.315	23.17
870.693	23.18
871.072	23.17
871.45	23.16
871.828	23.16
872.207	23.16
872.585	23.15
872.963	23.11
873.341	23.1
873.719	23.11
874.097	23.1
874.475	23.09
874.853	23.05
875.23	23.05
875.608	23.05
875.986	23.02
876.363	23.01
876.741	23.02
877.118	23
877.495	22.99
877.873	22.95
878.25	22.94
878.627	22.94
879.004	22.95
879.381	22.94
879.758	22.91
880.135	22.9
880.512	22.9
880.889	22.9
881.265	22.92
881.642	22.91
882.019	22.91
882.395	22.89
882.772	22.86
883.148	22.84
883.524	22.84
883.901	22.86
884.277	22.86
884.653	22.85
885.029	22.83
885.405	22.84
885.781	22.83
886.157	22.82
886.532	22.83
886.908	22.84
887.284	22.85
887.659	22.86
888.035	22.85
888.411	22.85
888.786	22.85
889.161	22.85
889.537	22.83
889.912	22.83
890.287	22.84
890.662	22.82
891.037	22.8
891.412	22.77
891.787	22.75
892.162	22.74
892.536	22.73
892.911	22.71
893.286	22.67
893.66	22.65
894.035	22.61
894.409	22.59
894.784	22.58
895.158	22.57
895.532	22.54
895.906	22.51
896.281	22.49
896.655	22.44
897.029	22.4
897.402	22.39
897.776	22.35
898.15	22.33
898.524	22.31
898.898	22.31
899.271	22.28
899.645	22.3
900.018	22.29
900.392	22.28
900.765	22.3
901.138	22.31
901.511	22.32
901.884	22.36
902.258	22.37
902.631	22.38
903.003	22.32
903.376	22.31
903.749	22.3
904.122	22.29
904.495	22.28
904.867	22.24
905.24	22.22
905.612	22.18
905.985	22.13
906.357	22.09
906.729	22.07
907.102	22.07
907.474	22.09
907.846	22.04
908.218	22.02
908.59	21.98
908.962	21.96
909.334	21.96
909.705	21.94
910.077	21.92
910.449	21.93
910.82	21.9
911.192	21.91
911.563	21.87
911.935	21.87
912.306	21.85
912.677	21.87
913.048	21.86
913.419	21.83
913.79	21.83
914.161	21.84
914.532	21.82
914.903	21.81
915.274	21.81
915.645	21.8
916.015	21.81
916.386	21.81
916.756	21.77
917.127	21.77
917.497	21.81
917.868	21.82
918.238	21.83
918.608	21.82
918.978	21.84
919.348	21.8
919.718	21.79
920.088	21.75
920.458	21.78
920.828	21.8
921.198	21.78
921.567	21.75
921.937	21.75
922.306	21.74
922.676	21.73
923.045	21.69
923.415	21.7
923.784	21.72
924.153	21.73
924.522	21.7
924.891	21.68
925.26	21.68
925.629	21.66
925.998	21.62
926.367	21.63
926.736	21.6
927.104	21.59
927.473	21.58
927.842	21.54
928.21	21.49
928.578	21.43
928.947	21.41
929.315	21.37
929.683	21.38
930.051	21.39
930.42	21.32
930.788	21.29
931.156	21.27
931.523	21.24
931.891	21.2
932.259	21.19
932.627	21.14
932.994	21.13
933.362	21.07
933.729	20.99
934.097	20.92
934.464	20.94
934.831	20.92
935.199	20.92
935.566	20.9
935.933	20.96
936.3	20.96
936.667	21.02
937.034	21.02
937.401	21.03
937.767	21.05
938.134	21.03
938.501	20.97
938.867	21
939.234	21
939.6	21
939.967	20.86
940.333	20.83
940.699	20.81
941.065	20.73
941.431	20.7
941.798	20.75
942.163	20.76
942.529	20.73
942.895	20.68
943.261	20.64
943.627	20.63
943.992	20.64
944.358	20.66
944.723	20.59
945.089	20.62
945.454	20.65
945.82	20.55
946.185	20.54
946.55	20.59
946.915	20.6
947.28	20.58
947.645	20.6
948.01	20.59
948.375	20.61
948.74	20.67
949.104	20.69
949.469	20.68
949.834	20.75
950.198	20.77
950.562	20.74
950.927	20.71
951.291	20.72
951.655	20.75
952.02	20.76
952.384	20.75
952.748	20.75
953.112	20.73
953.476	20.71
953.839	20.64
954.203	20.61
954.567	20.62
954.931	20.65
955.294	20.64
955.658	20.61
956.021	20.59
956.385	20.57
956.748	20.56
957.111	20.52
957.474	20.52
957.837	20.54
958.2	20.53
958.563	20.54
958.926	20.54
959.289	20.5
959.652	20.5
960.015	20.48
960.377	20.51
960.74	20.46
961.102	20.51
961.465	20.49
961.827	20.47
962.189	20.45
962.552	20.4
962.914	20.33
963.276	20.35
963.638	20.29
964	20.29
964.362	20.25
964.724	20.32
965.085	20.28
965.447	20.27
965.809	20.27
966.17	20.33
966.532	20.31
966.893	20.33
967.255	20.32
967.616	20.34
967.977	20.39
968.338	20.35
968.699	20.32
969.061	20.32
969.421	20.37
969.782	20.36
970.143	20.35
970.504	20.37
970.865	20.33
971.225	20.32
971.586	20.35
971.946	20.31
972.307	20.32
972.667	20.28
973.027	20.35
973.388	20.27
973.748	20.29
974.108	20.22
974.468	20.2
974.828	20.26
975.188	20.26
975.548	20.18
975.907	20.18
976.267	20.25
976.627	20.3
976.986	20.24
977.346	20.29
977.705	20.25
978.064	20.27
978.424	20.31
978.783	20.3
979.142	20.41
979.501	20.44
979.86	20.41
980.219	20.27
980.578	20.23
980.937	20.25
981.296	20.19
981.654	20.17
982.013	20.19
982.371	20.18
982.73	20.1
983.088	19.95
983.447	19.98
983.805	20
984.163	20.02
984.521	19.98
984.879	19.99
985.237	20.09
985.595	20.09
985.953	20.07
986.311	20.07
986.669	20.12
987.026	20.18
987.384	20.12
987.741	20.19
988.099	20.21
988.456	20.26
988.814	20.28
989.171	20.15
989.528	20.03
989.885	19.94
990.242	19.95
990.599	19.96
990.956	19.96
991.313	19.89
991.67	19.83
992.027	19.86
992.383	19.85
992.74	19.7
993.096	19.69
993.453	19.87
993.809	20.03
994.165	20.01
994.522	19.96
994.878	19.88
995.234	19.94
995.59	19.77
995.946	19.71
996.302	19.62
996.658	19.7
997.013	19.73
997.369	19.66
997.725	19.52
998.08	19.35
998.436	19.37
998.791	19.37
999.147	19.41
999.502	19.5
999.857	19.5
1000.212	19.42
1000.567	19.31
1000.922	19.23
1001.277	19.23
1001.632	19.29
1001.987	19.32
1002.342	19.31
1002.696	19.23
1003.051	19.1
1003.406	19.02
1003.76	18.94
1004.114	19.08
1004.469	19.18
1004.823	19.27
1005.177	19.23
1005.531	19.09
1005.885	19.17
1006.239	18.97
1006.593	19.01
1006.947	19.08
1007.301	19.08
1007.655	19.12
1008.008	18.99
1008.362	18.88
1008.715	18.78
1009.069	18.67
1009.422	18.89
1009.776	18.76
1010.129	18.89
1010.482	18.84
1010.835	18.74
1011.188	18.59
1011.541	18.42
1011.894	18.37
1012.247	18.22
1012.6	18.08
1012.952	18.23
1013.305	17.77
1013.657	17.89
1014.01	17.82
1014.362	17.88
1014.715	17.92
1015.067	18.16
1015.419	18.22
1015.771	18.27
1016.123	18.37
1016.475	18.47
1016.827	18.47
1017.179	18.61
1017.531	18.38
1017.883	18.25
1018.234	18.18
1018.586	18.08
1018.938	17.92
1019.289	17.87
1019.64	17.91
1019.992	17.93
1020.343	17.87
1020.694	17.62
1021.045	17.78
1021.396	17.88
1021.747	17.95
1022.098	18.19
1022.449	18.41
1022.8	18.42
1023.151	18.42
1023.501	18.29
1023.852	18.46
1024.202	18.7
1024.553	18.69
1024.903	18.72
1025.253	18.69
1025.604	19.08
1025.954	18.59
1026.304	18.67
1026.654	18.84
1027.004	19
1027.354	18.99
1027.703	18.74
1028.053	18.1
1028.403	18.33
1028.753	18.05
1029.102	17.84
1029.452	17.3
1029.801	17.3
1030.15	17.01
1030.499	16.75
897.758	693.93
901.051	701.52
904.343	707.06
907.636	692.41
910.928	682.21
914.22	694.11
917.511	681.26
920.803	652.15
924.094	625.09
927.384	629.91
930.675	608.16
933.965	598.41
937.255	596.65
940.544	570.57
943.834	544.46
947.123	534.48
950.411	506.28
953.7	496.03
956.988	483.38
960.276	458.05
963.563	453
966.851	428.94
970.138	421.94
973.424	393.44
976.711	388.23
979.997	375.26
983.283	367.52
986.568	355.1
989.853	343.42
993.138	332.68
996.423	326.38
999.708	314.83
1002.992	315.78
1006.275	304.15
1009.559	301.49
1012.842	292.61
1016.125	283.49
1019.408	278.27
1022.69	273.02
1025.972	272.52
1029.254	263.3
1032.536	260.13
1035.817	250.62
1039.098	246.43
1042.379	242.68
1045.659	239.09
1048.939	235.52
1052.219	231.62
1055.498	227.97
1058.778	225.36
1062.057	220.07
1065.335	218.75
1068.614	214.02
1071.892	212.16
1075.17	207.52
1078.447	204.91
1081.724	203.12
1085.001	199.78
1088.278	198.06
1091.554	195.56
1094.83	195.19
1098.106	191.23
1101.382	190.39
1104.657	190.06
1107.932	188.67
1111.206	187.99
1114.481	185.28
1117.755	182.87
1121.029	182.23
1124.302	180.17
1127.575	177.75
1130.848	176.03
1134.121	174.18
1137.393	173.5
1140.665	171.18
1143.937	169.1
1147.208	166.75
1150.48	164.83
1153.75	165.12
1157.021	163.23
1160.291	162.78
1163.561	162.03
1166.831	160.45
1170.101	160.93
1173.37	159.05
1176.639	158.3
1179.907	158.8
1183.176	158.01
1186.444	158.69
1189.711	157.46
1192.979	158.06
1196.246	158.66
1199.513	157.19
1202.78	157.83
1206.046	157.53
1209.312	158.74
1212.578	159.87
1215.843	162.16
1219.108	163.81
1222.373	166.08
1225.638	168.8
1228.902	172.4
1232.166	177.68
1235.43	181.13
1238.693	186.75
1241.956	190.11
1245.219	194.95
1248.482	196.67
1251.744	195.71
1255.006	196.13
1258.268	191.62
1261.529	189.66
1264.79	184.66
1268.051	180.4
1271.312	179.08
1274.572	174.86
1277.832	170.89
1281.092	168.48
1284.351	164.86
1287.61	164.39
1290.869	164.17
1294.128	163.14
1297.386	162.7
1300.644	162.34
1303.902	161.32
1307.159	160.47
1310.416	161.28
1313.673	163.77
1316.93	165.43
1320.186	168.26
1323.442	170.32
1326.697	172.65
1329.953	175.86
1333.208	180.99
1336.463	188.49
1339.717	192.32
1342.972	202.64
1346.226	208.59
1349.479	210.17
1352.733	219.3
1355.986	224.05
1359.238	229.72
1362.491	232.98
1365.743	240.89
1368.995	243.58
1372.247	244.46
1375.498	243.39
1378.749	250.98
1382	250.64
1385.251	250.96
1388.501	248.05
1391.751	251.52
1395	251.05
1398.25	252.7
1401.499	250.97
1404.748	250.24
1407.996	244.9
1411.244	246.6
1414.492	241.64
1417.74	236.31
1420.987	230.16
1424.234	227.71
1427.481	219.7
1430.728	212.19
1433.974	206.4
1437.22	198.16
1440.465	191.83
1443.711	185.98
1446.956	179.59
1450.201	173.37
1453.445	164.78
1456.689	160.31
1459.933	153.84
1463.177	147.05
1466.42	144.11
1469.663	138.89
1472.906	135.6
1476.148	131.72
1479.391	128.74
1482.633	126.46
1485.874	123.49
1489.115	122.25
1492.356	119.32
1495.597	118.58
1498.838	116.86
1502.078	115.68
1505.318	114.99
1508.557	114.05
1511.797	112.36
1515.036	112.38
1518.274	111.15
1521.513	109.89
1524.751	109.42
1527.989	110.48
1531.227	109.56
1534.464	110.1
1537.701	108.82
1540.938	108.32
1544.174	107.87
1547.41	108.03
1550.646	107.02
1553.882	107.69
1557.117	106.49
1560.352	105.55
1563.587	104.21
1566.821	104.15
1570.055	103.48
1573.289	102.9
1576.523	103.3
1579.756	102.5
1582.989	102.39
1586.222	101.94
1589.454	101.39
1592.686	101.96
1595.918	101.86
1599.15	102
1602.381	101.87
1605.612	101.76
1608.843	102.19
1612.073	102.02
1615.303	102.76
1618.533	102.13
1621.762	102.99
1624.992	102.57
1628.221	102.11
1631.449	103.09
1634.678	102.78
1637.906	102.89
1641.134	103.01
1644.361	102.94
1647.588	102.71
1650.815	102.89
1654.042	103.56
1657.269	102.54
1660.495	103.47
1663.72	103.81
1666.946	103.15
1670.171	103.77
1673.396	105
1676.621	104.77
1679.845	105.66
1683.069	105.34
1686.293	105.1
1689.517	105.12
1692.74	105.83
1695.963	105.97
1699.185	106.3
1702.408	106.83
1705.63	106.96
1708.852	106.84
1712.073	106.84
1715.294	106.11
1718.515	107.54
1721.736	107.58
1724.956	107.91
1728.176	107.91
1731.396	108.5
1734.616	108.28
1737.835	108.83
1741.054	107.83
1744.272	107.65
1747.491	108.55
1750.709	109.21
1753.927	108.96
1757.144	109.34
1760.361	109.33
1763.578	109.88
1766.795	110.08
1770.011	110.98
1773.227	111.01
1776.443	113.09
1779.658	113.64
1782.874	113.95
1786.089	114.38
1789.303	114.7
1792.518	116.12
1795.732	116.93
1798.945	118.04
1802.159	118.25
1805.372	119.91
1808.585	120.87
1811.797	121.49
1815.01	121.84
1818.222	123.07
1821.434	123.8
1824.645	125.09
1827.856	125.99
1831.067	126.81
1834.278	128.42
1837.488	129.28
1840.698	129.81
1843.908	130.27
1847.117	132.32
1850.326	133.81
1853.535	135.12
1856.744	137.08
1859.952	137.83
1863.16	139.03
1866.368	138.71
1869.575	140.19
1872.782	140.29
1875.989	140.38
1879.196	140.74
1882.402	139.38
1885.608	140.84
1888.814	140.38
1892.019	141.63
1895.224	140.82
1898.429	140.71
1901.634	142.93
1904.838	142.87
1908.042	144.12
1911.246	143.25
1914.449	144.01
1917.652	145.82
1920.855	146.08
1924.058	144.42
1927.26	144.26
1930.462	145.55
1933.664	145.64
1936.865	144.58
1940.066	143.28
1943.267	142.55
1946.467	144.65
1949.668	144.34
1952.868	144.05
1956.067	142.99
1959.267	145.01
1962.466	145.21
1965.665	146.44
1968.863	147.53
1972.061	149.11
1975.259	152.42
1978.457	152.98
1981.654	153.7
1984.852	155.62
1988.048	156.82
1991.245	158.85
1994.441	161.36
1997.637	165.62
2000.833	168.58
2004.028	170.76
2007.223	175.31
2010.418	178.33
2013.613	186.85
2016.807	191.28
2020.001	195.71
2023.194	200.35
2026.388	207.03
2029.581	218.55
2032.774	223.92
2035.966	229.79
2039.158	236.51
2042.35	241.12
2045.542	245.54
2048.733	255.84
2051.924	258.26
2055.115	261.84
2058.306	265.45
2061.496	271.15
2064.686	270.92
2067.875	270.03
2071.065	271.73
2074.254	272.82
2077.442	280.21
2080.631	281.53
2083.819	281.03
2087.007	287.9
2090.195	292.82
2093.382	292.06
2096.569	292.21
2099.756	296.06
2102.942	301.99
2106.128	310.37
2109.314	311.16
2112.5	310.76
2115.685	311.65
2118.87	312.49
2122.055	312.47
2125.239	317.81
2128.424	325.82
2131.608	323.07
2134.791	324.88
2137.974	326.67
2141.157	327.32
2144.34	331.51
2147.523	334.96
2150.705	342.26
2153.887	338.35
2157.068	343.16
2160.25	347.07
2163.431	348.22
2166.611	354.41
2169.792	360.02
2172.972	364.38
2176.152	367.01
2179.331	375.05
2182.511	377.28
2185.69	381.25
2188.868	397.8
2192.047	405.49
2195.225	408.52
2198.403	415.76
2201.58	411.83
2204.758	421.89
2207.935	424.93
2211.111	432.88
2214.288	434.98
2217.464	440.21
2220.64	442.67
2223.815	442.71
2226.991	440.51
2230.166	443.86
2233.34	454.01
2236.515	469.08
2239.689	463.39
2242.863	473.2
2246.036	466.19
2249.209	478.27
2252.382	480.13
2255.555	496.35
2258.727	500.69
2261.9	514.52
2265.071	524.65
2268.243	520.57
2271.414	534.81
2274.585	546.65
2277.756	543.38
2280.926	567.41
2284.096	566.21
2287.266	568.16
2290.436	555.02
2293.605	569.61
2296.774	590.89
2299.942	588.11
2303.111	605.99
2306.279	618.75
2309.447	622.94
2312.614	624.6
2315.781	640.99
2318.948	652.34
2322.115	663.2
2325.281	703.4
2328.447	693.64
2331.613	692.21
2334.779	707.52
2337.944	713.69
2341.109	727.78
2344.274	733.16
2347.438	759.9
2350.602	768.19
2353.766	809.68
2356.929	814.28
2360.092	822.08
2363.255	828.29
2366.418	842.05
2369.58	856.65
2372.742	857.44
2375.904	850.92
2379.066	876.79
2382.227	934.52
2385.388	930.01
2388.548	887.82
2391.709	880.51
2394.869	914.65
2398.029	913.55
2401.188	916.64
2404.347	942.43
2407.506	973.88
2410.665	943.38
2413.823	941.37
2416.981	931.61
2420.139	886.5
2423.296	960.29
2426.453	1022.54
2429.61	969.41
2432.767	1039.95
2435.923	1074.88
2439.079	1033.44
2442.235	1059.46
2445.391	1078.9
2448.546	1077.33
2451.701	1130.47
2454.855	1213.16
2458.009	1055.3
2461.163	1079.12
2464.317	1090.67
2467.471	1064.78
2470.624	1099.11
2473.777	1093.87
2476.929	1057.14
2480.082	1132.85
2483.234	1182.74
2486.385	1205.6
2489.537	1232.63
2492.688	1380.03
2495.839	1350.86
2498.989	1388.04
2502.14	1400.93
2505.29	1329.35
2508.439	1469.81
2511.589	1511.59
2514.738	1461.88
2517.887	1451.23
2521.035	1363.71
2524.183	1345.17
2527.331	1322.54
2530.479	1286.42
2533.627	1321.6
