Data from N_1_div_il_4n_005_Splice17_17.txt Node
Date: Sat Feb 29 13:34:50 EST 2020
User: sa697716
Spectrometer: FLMS03696
Trigger mode: 0
Integration Time (sec): 3.180400E-1
Scans to average: 20
Electric dark correction enabled: true
Nonlinearity correction enabled: true
Boxcar width: 5
XAxis mode: Wavelengths
Number of Pixels in Spectrum: 2048
>>>>>Begin Spectral Data<<<<<
187.83	89.12
188.298	90.63
188.766	97.05
189.233	88.54
189.701	91.6
190.169	95.39
190.636	91.33
191.104	83.99
191.571	170.52
192.039	73.18
192.506	39.17
192.974	3015.23
193.441	108.96
193.908	92.03
194.375	126.79
194.842	173.93
195.31	140.19
195.777	151.48
196.244	58.56
196.711	27.56
197.177	18.17
197.644	16.41
198.111	16.3
198.578	15.77
199.045	15.58
199.511	15.55
199.978	15.63
200.445	15.96
200.911	16.25
201.378	15.96
201.844	16.01
202.31	16.72
202.777	17.04
203.243	17.41
203.709	18.31
204.176	18.59
204.642	18.61
205.108	18.76
205.574	18.93
206.04	19.05
206.506	19.16
206.972	19.36
207.438	19.31
207.903	19.32
208.369	19.02
208.835	18.68
209.301	18.63
209.766	18.91
210.232	19.21
210.697	19.23
211.163	18.96
211.628	18.87
212.094	18.71
212.559	18.64
213.024	18.56
213.49	18.49
213.955	18.61
214.42	18.42
214.885	18.08
215.35	17.6
215.815	17.19
216.28	16.78
216.745	16.42
217.21	16.1
217.675	15.6
218.14	15.1
218.604	14.63
219.069	14.27
219.534	13.98
219.998	13.62
220.463	13.41
220.927	13.12
221.392	12.91
221.856	12.71
222.32	12.51
222.785	12.41
223.249	12.29
223.713	12.19
224.177	12.01
224.642	11.86
225.106	11.76
225.57	11.6
226.034	11.51
226.497	11.36
226.961	11.21
227.425	11.06
227.889	10.93
228.353	10.8
228.816	10.69
229.28	10.6
229.744	10.5
230.207	10.42
230.671	10.32
231.134	10.19
231.597	10.1
232.061	10.03
232.524	9.95
232.987	9.86
233.45	9.76
233.914	9.65
234.377	9.56
234.84	9.48
235.303	9.37
235.766	9.3
236.229	9.24
236.691	9.17
237.154	9.1
237.617	9.03
238.08	8.96
238.542	8.89
239.005	8.83
239.468	8.74
239.93	8.67
240.393	8.62
240.855	8.53
241.317	8.45
241.78	8.39
242.242	8.31
242.704	8.25
243.166	8.19
243.629	8.13
244.091	8.07
244.553	8.03
245.015	7.98
245.477	7.92
245.939	7.88
246.4	7.82
246.862	7.77
247.324	7.73
247.786	7.69
248.247	7.64
248.709	7.58
249.17	7.54
249.632	7.48
250.093	7.42
250.555	7.36
251.016	7.32
251.477	7.28
251.939	7.24
252.4	7.19
252.861	7.13
253.322	7.08
253.783	7.05
254.244	7.01
254.705	6.98
255.166	6.95
255.627	6.92
256.088	6.89
256.549	6.86
257.009	6.82
257.47	6.79
257.931	6.76
258.391	6.72
258.852	6.67
259.312	6.64
259.773	6.59
260.233	6.56
260.694	6.52
261.154	6.48
261.614	6.43
262.074	6.4
262.534	6.36
262.994	6.33
263.455	6.3
263.915	6.28
264.374	6.24
264.834	6.22
265.294	6.18
265.754	6.15
266.214	6.12
266.673	6.11
267.133	6.08
267.593	6.06
268.052	6.03
268.512	6
268.971	5.98
269.431	5.96
269.89	5.93
270.349	5.91
270.809	5.89
271.268	5.88
271.727	5.85
272.186	5.84
272.645	5.81
273.104	5.79
273.563	5.77
274.022	5.75
274.481	5.73
274.94	5.7
275.399	5.67
275.857	5.65
276.316	5.62
276.775	5.6
277.233	5.57
277.692	5.55
278.15	5.52
278.609	5.49
279.067	5.46
279.525	5.44
279.984	5.42
280.442	5.41
280.9	5.4
281.358	5.37
281.816	5.36
282.274	5.33
282.732	5.31
283.19	5.3
283.648	5.28
284.106	5.27
284.564	5.25
285.021	5.23
285.479	5.21
285.937	5.18
286.394	5.17
286.852	5.14
287.309	5.13
287.767	5.12
288.224	5.1
288.682	5.08
289.139	5.07
289.596	5.06
290.053	5.03
290.511	5.01
290.968	5
291.425	4.98
291.882	4.97
292.339	4.95
292.796	4.93
293.252	4.91
293.709	4.9
294.166	4.88
294.623	4.87
295.079	4.86
295.536	4.85
295.992	4.84
296.449	4.83
296.905	4.81
297.362	4.8
297.818	4.79
298.274	4.78
298.731	4.77
299.187	4.76
299.643	4.74
300.099	4.73
300.555	4.71
301.011	4.69
301.467	4.68
301.923	4.68
302.379	4.67
302.835	4.66
303.291	4.64
303.746	4.63
304.202	4.61
304.658	4.61
305.113	4.6
305.569	4.59
306.024	4.58
306.479	4.56
306.935	4.55
307.39	4.54
307.845	4.54
308.301	4.53
308.756	4.53
309.211	4.53
309.666	4.52
310.121	4.51
310.576	4.51
311.031	4.51
311.486	4.51
311.94	4.5
312.395	4.5
312.85	4.5
313.305	4.49
313.759	4.48
314.214	4.48
314.668	4.47
315.123	4.47
315.577	4.47
316.032	4.46
316.486	4.45
316.94	4.44
317.394	4.42
317.849	4.41
318.303	4.4
318.757	4.4
319.211	4.38
319.665	4.37
320.119	4.37
320.572	4.37
321.026	4.36
321.48	4.35
321.934	4.35
322.387	4.34
322.841	4.34
323.295	4.34
323.748	4.33
324.202	4.33
324.655	4.32
325.108	4.3
325.562	4.28
326.015	4.27
326.468	4.27
326.921	4.26
327.374	4.25
327.827	4.24
328.28	4.22
328.733	4.22
329.186	4.22
329.639	4.21
330.092	4.19
330.545	4.2
330.997	4.2
331.45	4.2
331.903	4.19
332.355	4.18
332.808	4.18
333.26	4.18
333.713	4.18
334.165	4.17
334.617	4.17
335.069	4.18
335.522	4.17
335.974	4.16
336.426	4.16
336.878	4.16
337.33	4.15
337.782	4.15
338.234	4.16
338.686	4.15
339.137	4.16
339.589	4.16
340.041	4.15
340.493	4.14
340.944	4.14
341.396	4.13
341.847	4.13
342.299	4.12
342.75	4.1
343.201	4.08
343.653	4.07
344.104	4.07
344.555	4.06
345.006	4.04
345.457	4.05
345.908	4.04
346.359	4.04
346.81	4.04
347.261	4.04
347.712	4.05
348.163	4.05
348.613	4.04
349.064	4.03
349.515	4.02
349.965	4.02
350.416	4.01
350.866	4
351.317	4
351.767	3.99
352.217	3.99
352.668	3.98
353.118	3.98
353.568	3.99
354.018	3.99
354.468	3.99
354.918	4
355.368	4
355.818	3.99
356.268	3.99
356.718	4
357.168	4
357.617	4
358.067	4
358.517	3.98
358.966	3.99
359.416	3.99
359.865	3.99
360.315	4
360.764	4.01
361.213	4.01
361.663	4.01
362.112	4.01
362.561	4.01
363.01	4.02
363.459	4.03
363.908	4.02
364.357	4.03
364.806	4.05
365.255	4.05
365.703	4.05
366.152	4.05
366.601	4.06
367.05	4.06
367.498	4.06
367.947	4.06
368.395	4.07
368.844	4.07
369.292	4.07
369.74	4.07
370.189	4.08
370.637	4.08
371.085	4.08
371.533	4.09
371.981	4.1
372.429	4.12
372.877	4.12
373.325	4.11
373.773	4.11
374.221	4.12
374.669	4.13
375.116	4.12
375.564	4.13
376.012	4.15
376.459	4.15
376.907	4.16
377.354	4.17
377.801	4.19
378.249	4.21
378.696	4.24
379.143	4.25
379.591	4.26
380.038	4.29
380.485	4.31
380.932	4.32
381.379	4.33
381.826	4.35
382.273	4.36
382.72	4.38
383.166	4.39
383.613	4.41
384.06	4.43
384.506	4.46
384.953	4.49
385.4	4.51
385.846	4.52
386.292	4.54
386.739	4.56
387.185	4.6
387.631	4.62
388.078	4.64
388.524	4.65
388.97	4.67
389.416	4.68
389.862	4.7
390.308	4.71
390.754	4.73
391.2	4.76
391.645	4.79
392.091	4.8
392.537	4.82
392.983	4.85
393.428	4.89
393.874	4.92
394.319	4.95
394.765	4.96
395.21	4.99
395.655	5.02
396.101	5.05
396.546	5.06
396.991	5.08
397.436	5.09
397.881	5.12
398.326	5.15
398.771	5.17
399.216	5.19
399.661	5.22
400.106	5.25
400.551	5.26
400.995	5.26
401.44	5.27
401.885	5.29
402.329	5.3
402.774	5.3
403.218	5.31
403.663	5.32
404.107	5.34
404.551	5.36
404.995	5.36
405.44	5.38
405.884	5.41
406.328	5.43
406.772	5.45
407.216	5.48
407.66	5.5
408.104	5.52
408.547	5.53
408.991	5.54
409.435	5.56
409.879	5.59
410.322	5.61
410.766	5.62
411.209	5.63
411.653	5.63
412.096	5.64
412.54	5.66
412.983	5.66
413.426	5.68
413.869	5.71
414.312	5.71
414.756	5.71
415.199	5.73
415.642	5.75
416.085	5.78
416.527	5.81
416.97	5.83
417.413	5.83
417.856	5.84
418.298	5.84
418.741	5.83
419.184	5.85
419.626	5.84
420.069	5.85
420.511	5.84
420.953	5.85
421.396	5.86
421.838	5.87
422.28	5.9
422.722	5.92
423.164	5.94
423.606	5.95
424.048	5.95
424.49	5.98
424.932	5.97
425.374	5.98
425.816	5.97
426.258	5.97
426.699	5.96
427.141	5.95
427.582	5.95
428.024	5.95
428.465	5.94
428.907	5.97
429.348	5.97
429.789	5.99
430.231	5.99
430.672	6.01
431.113	6.01
431.554	6.02
431.995	6.02
432.436	6.02
432.877	6.03
433.318	6.04
433.759	6.03
434.2	6.03
434.64	6.05
435.081	6.03
435.522	6.05
435.962	6.07
436.403	6.09
436.843	6.09
437.284	6.11
437.724	6.13
438.164	6.16
438.604	6.15
439.045	6.16
439.485	6.17
439.925	6.18
440.365	6.18
440.805	6.19
441.245	6.19
441.685	6.21
442.125	6.19
442.564	6.2
443.004	6.22
443.444	6.25
443.883	6.26
444.323	6.27
444.762	6.31
445.202	6.36
445.641	6.38
446.081	6.41
446.52	6.43
446.959	6.46
447.398	6.5
447.837	6.53
448.276	6.53
448.716	6.54
449.154	6.58
449.593	6.59
450.032	6.59
450.471	6.6
450.91	6.62
451.349	6.63
451.787	6.62
452.226	6.61
452.664	6.59
453.103	6.59
453.541	6.6
453.98	6.58
454.418	6.57
454.856	6.57
455.295	6.56
455.733	6.54
456.171	6.54
456.609	6.55
457.047	6.56
457.485	6.56
457.923	6.58
458.361	6.58
458.798	6.59
459.236	6.6
459.674	6.58
460.111	6.59
460.549	6.59
460.987	6.59
461.424	6.59
461.862	6.59
462.299	6.59
462.736	6.59
463.173	6.6
463.611	6.59
464.048	6.59
464.485	6.6
464.922	6.6
465.359	6.61
465.796	6.62
466.233	6.62
466.67	6.64
467.106	6.65
467.543	6.65
467.98	6.62
468.416	6.63
468.853	6.63
469.29	6.64
469.726	6.65
470.162	6.64
470.599	6.63
471.035	6.65
471.471	6.63
471.907	6.64
472.344	6.63
472.78	6.64
473.216	6.65
473.652	6.64
474.088	6.64
474.523	6.64
474.959	6.63
475.395	6.62
475.831	6.62
476.266	6.61
476.702	6.59
477.138	6.59
477.573	6.58
478.008	6.58
478.444	6.59
478.879	6.59
479.314	6.6
479.75	6.61
480.185	6.62
480.62	6.62
481.055	6.62
481.49	6.61
481.925	6.61
482.36	6.62
482.795	6.61
483.229	6.6
483.664	6.58
484.099	6.57
484.534	6.57
484.968	6.57
485.403	6.57
485.837	6.56
486.271	6.56
486.706	6.56
487.14	6.55
487.574	6.56
488.009	6.57
488.443	6.58
488.877	6.6
489.311	6.6
489.745	6.62
490.179	6.63
490.613	6.65
491.046	6.68
491.48	6.71
491.914	6.75
492.348	6.78
492.781	6.8
493.215	6.82
493.648	6.86
494.082	6.9
494.515	6.92
494.948	6.96
495.382	7
495.815	7.04
496.248	7.07
496.681	7.1
497.114	7.14
497.547	7.18
497.98	7.23
498.413	7.26
498.846	7.31
499.279	7.37
499.711	7.42
500.144	7.48
500.577	7.54
501.009	7.61
501.442	7.68
501.874	7.76
502.306	7.85
502.739	7.94
503.171	8.03
503.603	8.13
504.036	8.23
504.468	8.34
504.9	8.45
505.332	8.56
505.764	8.68
506.196	8.81
506.627	8.93
507.059	9.05
507.491	9.19
507.923	9.34
508.354	9.48
508.786	9.64
509.217	9.79
509.649	9.97
510.08	10.15
510.512	10.31
510.943	10.5
511.374	10.7
511.805	10.9
512.237	11.1
512.668	11.29
513.099	11.52
513.53	11.73
513.961	11.96
514.391	12.17
514.822	12.38
515.253	12.61
515.684	12.83
516.114	13.07
516.545	13.3
516.975	13.54
517.406	13.78
517.836	14.02
518.267	14.27
518.697	14.52
519.127	14.79
519.558	15.04
519.988	15.28
520.418	15.54
520.848	15.8
521.278	16.04
521.708	16.38
522.138	16.61
522.567	16.84
522.997	17.06
523.427	17.27
523.857	17.47
524.286	17.67
524.716	17.89
525.145	18.09
525.575	18.28
526.004	18.46
526.433	18.54
526.863	18.73
527.292	18.91
527.721	19.07
528.15	19.24
528.579	19.41
529.008	19.57
529.437	19.71
529.866	19.83
530.295	19.97
530.724	20.1
531.152	20.23
531.581	20.34
532.01	20.45
532.438	20.56
532.867	20.66
533.295	20.75
533.723	20.84
534.152	20.93
534.58	20.99
535.008	21.03
535.436	21.1
535.865	21.15
536.293	21.21
536.721	21.26
537.149	21.3
537.576	21.34
538.004	21.38
538.432	21.4
538.86	21.46
539.287	21.51
539.715	21.56
540.143	21.58
540.57	21.62
540.998	21.67
541.425	21.7
541.852	21.74
542.28	21.76
542.707	21.81
543.134	21.85
543.561	21.84
543.988	21.87
544.415	21.9
544.842	21.93
545.269	21.94
545.696	21.94
546.123	21.97
546.549	21.99
546.976	22
547.403	22.01
547.829	22.02
548.256	22.06
548.682	22.06
549.108	22.09
549.535	22.1
549.961	22.12
550.387	22.12
550.813	22.1
551.24	22.08
551.666	22.06
552.092	22.05
552.518	22.04
552.943	22.02
553.369	22.01
553.795	21.95
554.221	21.93
554.646	21.89
555.072	21.84
555.498	21.81
555.923	21.79
556.349	21.73
556.774	21.69
557.199	21.63
557.625	21.55
558.05	21.47
558.475	21.4
558.9	21.32
559.325	21.23
559.75	21.16
560.175	21.06
560.6	20.93
561.025	20.85
561.449	20.73
561.874	20.62
562.299	20.5
562.723	20.39
563.148	20.27
563.572	20.14
563.997	20.02
564.421	19.86
564.846	19.72
565.27	19.6
565.694	19.47
566.118	19.33
566.542	19.2
566.966	19.08
567.39	18.93
567.814	18.8
568.238	18.64
568.662	18.5
569.086	18.38
569.509	18.25
569.933	18.1
570.357	17.94
570.78	17.81
571.204	17.68
571.627	17.53
572.05	17.41
572.474	17.28
572.897	17.15
573.32	17.01
573.743	16.88
574.166	16.75
574.589	16.62
575.012	16.52
575.435	16.39
575.858	16.29
576.281	16.18
576.704	16.07
577.126	15.97
577.549	15.88
577.972	15.79
578.394	15.7
578.817	15.61
579.239	15.52
579.661	15.44
580.084	15.35
580.506	15.26
580.928	15.17
581.35	15.11
581.772	15.03
582.194	14.96
582.616	14.9
583.038	14.83
583.46	14.77
583.882	14.72
584.303	14.64
584.725	14.57
585.147	14.51
585.568	14.46
585.99	14.38
586.411	14.32
586.833	14.28
587.254	14.22
587.675	14.16
588.096	14.1
588.518	14.04
588.939	14.01
589.36	13.98
589.781	13.93
590.202	13.9
590.623	13.86
591.043	13.81
591.464	13.76
591.885	13.73
592.305	13.72
592.726	13.69
593.147	13.67
593.567	13.63
593.987	13.63
594.408	13.61
594.828	13.57
595.248	13.56
595.669	13.54
596.089	13.52
596.509	13.48
596.929	13.44
597.349	13.42
597.769	13.39
598.189	13.36
598.608	13.31
599.028	13.28
599.448	13.25
599.867	13.21
600.287	13.18
600.706	13.14
601.126	13.1
601.545	13.06
601.965	13.01
602.384	12.97
602.803	12.92
603.222	12.87
603.641	12.81
604.061	12.76
604.48	12.7
604.898	12.64
605.317	12.58
605.736	12.53
606.155	12.48
606.574	12.41
606.992	12.34
607.411	12.3
607.829	12.18
608.248	12.13
608.666	12.06
609.085	12.01
609.503	11.95
609.921	11.89
610.339	11.83
610.758	11.78
611.176	11.72
611.594	11.66
612.012	11.58
612.43	11.58
612.847	11.53
613.265	11.47
613.683	11.4
614.101	11.33
614.518	11.27
614.936	11.21
615.353	11.15
615.771	11.1
616.188	11.05
616.606	11
617.023	10.94
617.44	10.89
617.857	10.83
618.274	10.79
618.691	10.77
619.108	10.74
619.525	10.7
619.942	10.67
620.359	10.66
620.776	10.63
621.192	10.6
621.609	10.58
622.026	10.56
622.442	10.54
622.859	10.51
623.275	10.5
623.691	10.48
624.108	10.47
624.524	10.45
624.94	10.43
625.356	10.42
625.772	10.42
626.188	10.41
626.604	10.39
627.02	10.38
627.436	10.39
627.852	10.38
628.268	10.37
628.683	10.37
629.099	10.37
629.514	10.35
629.93	10.32
630.345	10.3
630.761	10.28
631.176	10.26
631.591	10.24
632.007	10.19
632.422	10.16
632.837	10.12
633.252	10.09
633.667	10.03
634.082	9.98
634.497	9.94
634.911	9.89
635.326	9.84
635.741	9.78
636.155	9.72
636.57	9.67
636.984	9.59
637.399	9.52
637.813	9.44
638.228	9.38
638.642	9.31
639.056	9.24
639.47	9.17
639.884	9.09
640.298	9.01
640.712	8.93
641.126	8.86
641.54	8.79
641.954	8.74
642.368	8.68
642.781	8.61
643.195	8.53
643.609	8.46
644.022	8.4
644.436	8.33
644.849	8.26
645.262	8.22
645.676	8.17
646.089	8.12
646.502	8.04
646.915	7.98
647.328	7.94
647.741	7.9
648.154	7.86
648.567	7.83
648.98	7.8
649.393	7.77
649.805	7.72
650.218	7.69
650.631	7.66
651.043	7.63
651.456	7.61
651.868	7.58
652.28	7.56
652.693	7.52
653.105	7.48
653.517	7.45
653.929	7.43
654.341	7.44
654.753	7.4
655.165	7.38
655.577	7.34
655.989	7.3
656.401	7.25
656.813	7.22
657.224	7.2
657.636	7.16
658.047	7.12
658.459	7.06
658.87	7.01
659.282	6.98
659.693	6.92
660.104	6.88
660.515	6.85
660.926	6.82
661.338	6.77
661.749	6.72
662.159	6.68
662.57	6.66
662.981	6.62
663.392	6.58
663.803	6.54
664.213	6.51
664.624	6.48
665.035	6.45
665.445	6.42
665.855	6.4
666.266	6.39
666.676	6.37
667.086	6.35
667.497	6.33
667.907	6.3
668.317	6.29
668.727	6.29
669.137	6.28
669.547	6.28
669.956	6.27
670.366	6.28
670.776	6.28
671.186	6.3
671.595	6.32
672.005	6.33
672.414	6.35
672.824	6.37
673.233	6.38
673.642	6.4
674.052	6.42
674.461	6.44
674.87	6.46
675.279	6.49
675.688	6.51
676.097	6.53
676.506	6.55
676.915	6.58
677.323	6.62
677.732	6.65
678.141	6.68
678.549	6.71
678.958	6.76
679.366	6.78
679.775	6.81
680.183	6.85
680.592	6.89
681	6.93
681.408	6.96
681.816	7
682.224	7.04
682.632	7.11
683.04	7.18
683.448	7.25
683.856	7.34
684.264	7.42
684.671	7.52
685.079	7.63
685.487	7.76
685.894	7.9
686.302	8.05
686.709	8.2
687.116	8.38
687.524	8.57
687.931	8.78
688.338	9.01
688.745	9.26
689.152	9.54
689.559	9.82
689.966	10.13
690.373	10.46
690.78	10.84
691.187	11.22
691.593	11.58
692	12
692.407	12.42
692.813	12.87
693.22	13.31
693.626	13.78
694.032	14.26
694.439	14.76
694.845	15.24
695.251	15.73
695.657	16.22
696.063	16.75
696.469	17.27
696.875	17.79
697.281	18.33
697.687	18.88
698.093	19.41
698.498	19.95
698.904	20.47
699.31	21.01
699.715	21.56
700.12	22.11
700.526	22.66
700.931	23.17
701.337	23.7
701.742	24.2
702.147	24.73
702.552	25.25
702.957	25.76
703.362	26.27
703.767	26.78
704.172	27.29
704.577	27.77
704.981	28.26
705.386	28.75
705.791	29.23
706.195	29.7
706.6	30.16
707.004	30.6
707.408	31.05
707.813	31.52
708.217	31.94
708.621	32.36
709.025	32.8
709.43	33.2
709.834	33.65
710.237	34.05
710.641	34.47
711.045	34.86
711.449	35.26
711.853	35.66
712.256	36.06
712.66	36.48
713.064	36.87
713.467	37.27
713.87	37.68
714.274	38.06
714.677	38.43
715.08	38.78
715.484	39.17
715.887	39.53
716.29	39.87
716.693	40.21
717.096	40.52
717.499	40.87
717.901	41.16
718.304	41.46
718.707	41.75
719.109	42.09
719.512	42.44
719.915	42.73
720.317	43.06
720.719	43.37
721.122	43.63
721.524	43.92
721.926	44.23
722.328	44.53
722.731	44.81
723.133	45.1
723.535	45.36
723.937	45.58
724.338	45.81
724.74	46
725.142	46.26
725.544	46.49
725.945	46.72
726.347	46.9
726.748	47.06
727.15	47.25
727.551	47.45
727.952	47.62
728.354	47.8
728.755	47.96
729.156	48.17
729.557	48.29
729.958	48.46
730.359	48.6
730.76	48.74
731.161	48.89
731.562	49.04
731.962	49.15
732.363	49.27
732.763	49.39
733.164	49.51
733.564	49.6
733.965	49.69
734.365	49.78
734.766	49.87
735.166	49.95
735.566	50.03
735.966	50.08
736.366	50.14
736.766	50.22
737.166	50.3
737.566	50.4
737.966	50.5
738.365	50.6
738.765	50.68
739.165	50.75
739.564	50.82
739.964	50.9
740.363	50.98
740.763	51.04
741.162	51.07
741.561	51.13
741.96	51.21
742.36	51.24
742.759	51.27
743.158	51.31
743.557	51.35
743.955	51.39
744.354	51.48
744.753	51.55
745.152	51.56
745.55	51.61
745.949	51.63
746.348	51.62
746.746	51.65
747.144	51.7
747.543	51.75
747.941	51.81
748.339	51.87
748.737	51.9
749.136	51.91
749.534	51.97
749.932	52.04
750.33	52.09
750.727	52.1
751.125	52.14
751.523	52.17
751.921	52.21
752.318	52.22
752.716	52.22
753.113	52.21
753.511	52.22
753.908	52.22
754.305	52.2
754.703	52.2
755.1	52.24
755.497	52.27
755.894	52.28
756.291	52.27
756.688	52.27
757.085	52.26
757.482	52.29
757.878	52.33
758.275	52.35
758.672	52.38
759.068	52.39
759.465	52.38
759.861	52.37
760.258	52.31
760.654	52.32
761.05	52.31
761.447	52.3
761.843	52.24
762.239	52.19
762.635	52.15
763.031	52.12
763.427	52.11
763.822	52.07
764.218	52.06
764.614	52.08
765.01	52.04
765.405	52.05
765.801	52.05
766.196	52.07
766.592	52.1
766.987	52.11
767.382	52.11
767.778	52.12
768.173	52.14
768.568	52.14
768.963	52.13
769.358	52.14
769.753	52.13
770.148	52.13
770.542	52.1
770.937	52.06
771.332	52.05
771.726	52.04
772.121	52.01
772.515	52
772.91	51.97
773.304	51.98
773.699	51.98
774.093	51.94
774.487	51.93
774.881	51.93
775.275	51.96
775.669	51.97
776.063	51.97
776.457	51.95
776.851	51.94
777.245	51.97
777.638	51.95
778.032	51.95
778.425	51.99
778.819	52.05
779.212	52.04
779.606	52.02
779.999	52
780.392	52.01
780.786	52.03
781.179	52.04
781.572	52.04
781.965	52.01
782.358	51.97
782.751	51.96
783.143	51.92
783.536	51.92
783.929	51.93
784.322	51.94
784.714	51.95
785.107	51.98
785.499	51.99
785.891	52
786.284	52.01
786.676	52.04
787.068	52.06
787.46	52.06
787.852	52.05
788.245	52.04
788.636	52.03
789.028	52.02
789.42	51.98
789.812	51.96
790.204	51.92
790.595	51.92
790.987	51.93
791.378	51.91
791.77	51.93
792.161	51.94
792.553	51.94
792.944	51.95
793.335	51.99
793.726	51.98
794.117	52.01
794.508	52.04
794.899	52.05
795.29	52.02
795.681	52.05
796.072	52.03
796.463	52.06
796.853	52.03
797.244	51.99
797.634	51.93
798.025	51.95
798.415	51.95
798.806	51.94
799.196	51.96
799.586	51.95
799.976	51.94
800.366	51.96
800.756	51.92
801.146	51.96
801.536	51.97
801.926	51.98
802.316	51.97
802.706	51.97
803.095	51.98
803.485	51.97
803.874	51.98
804.264	52
804.653	51.94
805.043	51.95
805.432	51.95
805.821	51.96
806.21	52.03
806.599	52.05
806.988	52.04
807.377	52.05
807.766	52.05
808.155	52.07
808.544	52.05
808.933	52.1
809.321	52.11
809.71	52.14
810.098	52.12
810.487	52.09
810.875	52.1
811.264	52.09
811.652	52.11
812.04	52.08
812.428	52.1
812.816	52.12
813.204	52.11
813.592	52.09
813.98	52.05
814.368	52.1
814.756	52.13
815.144	52.14
815.531	52.15
815.919	52.13
816.306	52.15
816.694	52.16
817.081	52.1
817.469	52.11
817.856	52.14
818.243	52.18
818.63	52.17
819.017	52.16
819.404	52.15
819.791	52.17
820.178	52.16
820.565	52.17
820.952	52.16
821.339	52.22
821.725	52.24
822.112	52.24
822.498	52.25
822.885	52.26
823.271	52.28
823.657	52.29
824.044	52.31
824.43	52.35
824.816	52.35
825.202	52.37
825.588	52.38
825.974	52.4
826.36	52.43
826.746	52.43
827.132	52.45
827.517	52.46
827.903	52.49
828.289	52.5
828.674	52.48
829.06	52.54
829.445	52.54
829.83	52.53
830.216	52.53
830.601	52.51
830.986	52.54
831.371	52.54
831.756	52.52
832.141	52.53
832.526	52.53
832.911	52.55
833.295	52.54
833.68	52.53
834.065	52.57
834.449	52.58
834.834	52.56
835.218	52.56
835.603	52.58
835.987	52.58
836.371	52.6
836.755	52.57
837.139	52.56
837.524	52.57
837.908	52.54
838.291	52.52
838.675	52.52
839.059	52.53
839.443	52.52
839.827	52.51
840.21	52.51
840.594	52.49
840.977	52.48
841.361	52.5
841.744	52.49
842.127	52.53
842.511	52.55
842.894	52.54
843.277	52.56
843.66	52.54
844.043	52.56
844.426	52.55
844.809	52.54
845.191	52.56
845.574	52.53
845.957	52.49
846.339	52.47
846.722	52.45
847.104	52.45
847.487	52.46
847.869	52.46
848.252	52.45
848.634	52.48
849.016	52.48
849.398	52.46
849.78	52.47
850.162	52.5
850.544	52.53
850.926	52.52
851.307	52.54
851.689	52.51
852.071	52.5
852.452	52.49
852.834	52.48
853.215	52.48
853.597	52.5
853.978	52.48
854.359	52.46
854.741	52.45
855.122	52.44
855.503	52.43
855.884	52.43
856.265	52.44
856.646	52.43
857.026	52.43
857.407	52.4
857.788	52.4
858.169	52.41
858.549	52.45
858.93	52.46
859.31	52.48
859.69	52.45
860.071	52.46
860.451	52.45
860.831	52.47
861.211	52.48
861.591	52.48
861.971	52.46
862.351	52.48
862.731	52.45
863.111	52.43
863.491	52.43
863.87	52.45
864.25	52.48
864.629	52.49
865.009	52.46
865.388	52.47
865.768	52.51
866.147	52.52
866.526	52.51
866.905	52.51
867.284	52.52
867.663	52.51
868.042	52.5
868.421	52.47
868.8	52.45
869.179	52.45
869.558	52.41
869.936	52.36
870.315	52.38
870.693	52.4
871.072	52.39
871.45	52.37
871.828	52.37
872.207	52.39
872.585	52.38
872.963	52.38
873.341	52.38
873.719	52.39
874.097	52.4
874.475	52.39
874.853	52.36
875.23	52.38
875.608	52.4
875.986	52.41
876.363	52.37
876.741	52.37
877.118	52.37
877.495	52.38
877.873	52.38
878.25	52.36
878.627	52.37
879.004	52.36
879.381	52.37
879.758	52.35
880.135	52.34
880.512	52.34
880.889	52.34
881.265	52.37
881.642	52.33
882.019	52.34
882.395	52.35
882.772	52.37
883.148	52.39
883.524	52.37
883.901	52.35
884.277	52.33
884.653	52.36
885.029	52.37
885.405	52.35
885.781	52.37
886.157	52.38
886.532	52.37
886.908	52.36
887.284	52.36
887.659	52.39
888.035	52.42
888.411	52.43
888.786	52.4
889.161	52.4
889.537	52.42
889.912	52.41
890.287	52.37
890.662	52.37
891.037	52.33
891.412	52.31
891.787	52.3
892.162	52.28
892.536	52.27
892.911	52.27
893.286	52.24
893.66	52.22
894.035	52.19
894.409	52.21
894.784	52.22
895.158	52.24
895.532	52.23
895.906	52.21
896.281	52.2
896.655	52.2
897.029	52.19
897.402	52.21
897.776	52.21
898.15	52.26
898.524	52.27
898.898	52.22
899.271	52.2
899.645	52.2
900.018	52.21
900.392	52.23
900.765	52.24
901.138	52.23
901.511	52.23
901.884	52.23
902.258	52.17
902.631	52.17
903.003	52.19
903.376	52.14
903.749	52.13
904.122	52.1
904.495	52.06
904.867	52.04
905.24	52.05
905.612	52.01
905.985	51.97
906.357	51.96
906.729	51.93
907.102	51.91
907.474	51.94
907.846	51.92
908.218	51.91
908.59	51.87
908.962	51.87
909.334	51.84
909.705	51.83
910.077	51.82
910.449	51.8
910.82	51.77
911.192	51.75
911.563	51.73
911.935	51.73
912.306	51.71
912.677	51.72
913.048	51.68
913.419	51.63
913.79	51.62
914.161	51.6
914.532	51.59
914.903	51.59
915.274	51.62
915.645	51.63
916.015	51.6
916.386	51.57
916.756	51.51
917.127	51.53
917.497	51.54
917.868	51.57
918.238	51.6
918.608	51.6
918.978	51.58
919.348	51.54
919.718	51.54
920.088	51.54
920.458	51.61
920.828	51.66
921.198	51.66
921.567	51.62
921.937	51.62
922.306	51.59
922.676	51.6
923.045	51.61
923.415	51.6
923.784	51.57
924.153	51.56
924.522	51.51
924.891	51.48
925.26	51.47
925.629	51.47
925.998	51.43
926.367	51.4
926.736	51.37
927.104	51.34
927.473	51.33
927.842	51.31
928.21	51.3
928.578	51.26
928.947	51.25
929.315	51.22
929.683	51.25
930.051	51.27
930.42	51.25
930.788	51.27
931.156	51.27
931.523	51.25
931.891	51.25
932.259	51.22
932.627	51.21
932.994	51.21
933.362	51.18
933.729	51.09
934.097	51
934.464	50.98
934.831	50.92
935.199	50.88
935.566	50.83
935.933	50.9
936.3	50.83
936.667	50.75
937.034	50.68
937.401	50.58
937.767	50.54
938.134	50.52
938.501	50.45
938.867	50.45
939.234	50.47
939.6	50.41
939.967	50.19
940.333	50.23
940.699	50.27
941.065	50.25
941.431	50.35
941.798	50.39
942.163	50.42
942.529	50.46
942.895	50.41
943.261	50.35
943.627	50.37
943.992	50.33
944.358	50.27
944.723	50.25
945.089	50.26
945.454	50.24
945.82	50.12
946.185	50.17
946.55	50.24
946.915	50.14
947.28	50.07
947.645	50.06
948.01	50.16
948.375	50.17
948.74	50.18
949.104	50.24
949.469	50.19
949.834	50.21
950.198	50.13
950.562	50.05
950.927	50.11
951.291	50.07
951.655	50.07
952.02	50.07
952.384	50.1
952.748	50.13
953.112	50.14
953.476	50.13
953.839	50.09
954.203	50.07
954.567	50.05
954.931	50.04
955.294	50.11
955.658	50.07
956.021	49.97
956.385	49.96
956.748	49.92
957.111	49.83
957.474	49.86
957.837	49.88
958.2	49.79
958.563	49.74
958.926	49.65
959.289	49.68
959.652	49.65
960.015	49.67
960.377	49.65
960.74	49.62
961.102	49.59
961.465	49.54
961.827	49.44
962.189	49.5
962.552	49.46
962.914	49.44
963.276	49.39
963.638	49.36
964	49.3
964.362	49.27
964.724	49.24
965.085	49.29
965.447	49.21
965.809	49.22
966.17	49.23
966.532	49.3
966.893	49.4
967.255	49.34
967.616	49.36
967.977	49.38
968.338	49.34
968.699	49.32
969.061	49.21
969.421	49.26
969.782	49.28
970.143	49.22
970.504	49.2
970.865	49.13
971.225	49.15
971.586	49.17
971.946	49.18
972.307	49.2
972.667	49.23
973.027	49.3
973.388	49.26
973.748	49.27
974.108	49.29
974.468	49.31
974.828	49.31
975.188	49.33
975.548	49.3
975.907	49.29
976.267	49.25
976.627	49.23
976.986	49.17
977.346	49.14
977.705	49.1
978.064	49.06
978.424	48.97
978.783	48.94
979.142	48.87
979.501	48.81
979.86	48.75
980.219	48.71
980.578	48.67
980.937	48.7
981.296	48.68
981.654	48.65
982.013	48.71
982.371	48.7
982.73	48.72
983.088	48.67
983.447	48.74
983.805	48.77
984.163	48.76
984.521	48.7
984.879	48.67
985.237	48.77
985.595	48.87
985.953	48.77
986.311	48.79
986.669	48.82
987.026	48.81
987.384	48.73
987.741	48.78
988.099	48.85
988.456	48.89
988.814	48.86
989.171	48.72
989.528	48.64
989.885	48.65
990.242	48.69
990.599	48.61
990.956	48.63
991.313	48.59
991.67	48.51
992.027	48.46
992.383	48.46
992.74	48.53
993.096	48.43
993.453	48.39
993.809	48.43
994.165	48.38
994.522	48.37
994.878	48.35
995.234	48.35
995.59	48.27
995.946	48.34
996.302	48.2
996.658	48.17
997.013	48.31
997.369	48.32
997.725	48.32
998.08	48.21
998.436	48.22
998.791	48.21
999.147	48.19
999.502	48.17
999.857	47.99
1000.212	48.03
1000.567	48.04
1000.922	47.95
1001.277	47.91
1001.632	47.83
1001.987	47.88
1002.342	47.85
1002.696	47.89
1003.051	47.85
1003.406	47.8
1003.76	47.79
1004.114	47.89
1004.469	47.75
1004.823	47.81
1005.177	47.86
1005.531	47.8
1005.885	47.82
1006.239	47.81
1006.593	47.69
1006.947	47.63
1007.301	47.65
1007.655	47.71
1008.008	47.56
1008.362	47.56
1008.715	47.54
1009.069	47.34
1009.422	47.28
1009.776	47.09
1010.129	46.84
1010.482	46.94
1010.835	47.08
1011.188	46.99
1011.541	46.61
1011.894	46.38
1012.247	46.27
1012.6	46.11
1012.952	46.13
1013.305	46.09
1013.657	46.17
1014.01	46.39
1014.362	46.38
1014.715	46.26
1015.067	46.61
1015.419	46.95
1015.771	47.18
1016.123	47.18
1016.475	47.48
1016.827	47.71
1017.179	47.71
1017.531	47.74
1017.883	47.68
1018.234	47.63
1018.586	47.42
1018.938	47.18
1019.289	46.81
1019.64	47
1019.992	47.06
1020.343	46.76
1020.694	46.39
1021.045	46.55
1021.396	46.28
1021.747	46.16
1022.098	46.13
1022.449	46.24
1022.8	46.3
1023.151	46.51
1023.501	46.44
1023.852	46.52
1024.202	46.45
1024.553	46.59
1024.903	46.51
1025.253	46.73
1025.604	46.97
1025.954	46.71
1026.304	46.99
1026.654	46.9
1027.004	46.99
1027.354	46.8
1027.703	46.54
1028.053	46.29
1028.403	46.52
1028.753	46.43
1029.102	46.31
1029.452	46.09
1029.801	46.16
1030.15	45.99
1030.499	45.9
897.758	678.82
901.051	685.89
904.343	693.23
907.636	684.15
910.928	673.54
914.22	680.83
917.511	668.8
920.803	642.11
924.094	616.48
927.384	622.7
930.675	598.52
933.965	591.44
937.255	589.91
940.544	564.05
943.834	533.81
947.123	524.06
950.411	502.35
953.7	490.63
956.988	474.54
960.276	452.03
963.563	446.06
966.851	422.84
970.138	415.09
973.424	387.27
976.711	379.88
979.997	369.09
983.283	361.36
986.568	346.76
989.853	337.08
993.138	326.07
996.423	320.93
999.708	309.36
1002.992	311.53
1006.275	300
1009.559	296.36
1012.842	288.15
1016.125	278.33
1019.408	272.81
1022.69	269.05
1025.972	267.16
1029.254	259.4
1032.536	254.87
1035.817	246.54
1039.098	241.86
1042.379	237.82
1045.659	234.18
1048.939	231.48
1052.219	228.27
1055.498	223.7
1058.778	220.79
1062.057	215.56
1065.335	214.75
1068.614	210.46
1071.892	208.78
1075.17	203.76
1078.447	200.67
1081.724	200.71
1085.001	197.12
1088.278	195.05
1091.554	193.48
1094.83	191.55
1098.106	188.48
1101.382	187.26
1104.657	187.04
1107.932	184.98
1111.206	183.78
1114.481	182.36
1117.755	179.81
1121.029	179
1124.302	176.58
1127.575	174.05
1130.848	173.42
1134.121	171.35
1137.393	170.44
1140.665	168.2
1143.937	166.43
1147.208	164.57
1150.48	162.33
1153.75	161.2
1157.021	158.92
1160.291	158.77
1163.561	158.79
1166.831	157.68
1170.101	157.61
1173.37	156.24
1176.639	154.96
1179.907	155.2
1183.176	155.08
1186.444	155.54
1189.711	154.74
1192.979	156.86
1196.246	156.89
1199.513	155.08
1202.78	155.43
1206.046	155.28
1209.312	156.02
1212.578	157.31
1215.843	159.43
1219.108	160.61
1222.373	162.56
1225.638	165.54
1228.902	168.84
1232.166	174.17
1235.43	177.27
1238.693	182.68
1241.956	186.09
1245.219	191.41
1248.482	192.94
1251.744	192.58
1255.006	193.15
1258.268	188.93
1261.529	187.07
1264.79	181.26
1268.051	176.96
1271.312	175.89
1274.572	171.69
1277.832	167.67
1281.092	165.52
1284.351	161.72
1287.61	161.1
1290.869	160.02
1294.128	159.3
1297.386	158.09
1300.644	158.44
1303.902	157.75
1307.159	156.85
1310.416	157.64
1313.673	160.43
1316.93	161.46
1320.186	164.06
1323.442	165.93
1326.697	169.23
1329.953	172.03
1333.208	177.76
1336.463	184.59
1339.717	188.29
1342.972	198.47
1346.226	204.3
1349.479	205.88
1352.733	214.86
1355.986	219.77
1359.238	224.9
1362.491	227.5
1365.743	235.86
1368.995	238.3
1372.247	237.66
1375.498	237.58
1378.749	244.85
1382	244.4
1385.251	244.16
1388.501	241.94
1391.751	245.91
1395	246.13
1398.25	248.13
1401.499	246.09
1404.748	246.03
1407.996	241.54
1411.244	242.35
1414.492	237.33
1417.74	231.99
1420.987	226.88
1424.234	222.97
1427.481	215.72
1430.728	209.53
1433.974	202.2
1437.22	193.95
1440.465	187.66
1443.711	181.92
1446.956	175.97
1450.201	169.81
1453.445	161.47
1456.689	156.32
1459.933	151.47
1463.177	144.62
1466.42	140.58
1469.663	136.31
1472.906	133.42
1476.148	129.32
1479.391	126.24
1482.633	123.78
1485.874	121.09
1489.115	119.97
1492.356	117.03
1495.597	115.65
1498.838	113.83
1502.078	113.11
1505.318	112.71
1508.557	111.75
1511.797	110.28
1515.036	110.14
1518.274	109.3
1521.513	107.47
1524.751	107.1
1527.989	108.51
1531.227	107.64
1534.464	108.15
1537.701	106.81
1540.938	106.32
1544.174	105.48
1547.41	105.86
1550.646	105.2
1553.882	105.21
1557.117	104.81
1560.352	104.06
1563.587	102.27
1566.821	102.29
1570.055	101.89
1573.289	101.14
1576.523	100.98
1579.756	100.73
1582.989	100.49
1586.222	99.63
1589.454	99
1592.686	98.86
1595.918	98.71
1599.15	99
1602.381	98.9
1605.612	98.44
1608.843	98.84
1612.073	99.55
1615.303	99.99
1618.533	99.22
1621.762	100.57
1624.992	100.89
1628.221	100.81
1631.449	101.59
1634.678	101.42
1637.906	101.55
1641.134	101.72
1644.361	101.93
1647.588	101.43
1650.815	101.47
1654.042	101.67
1657.269	101
1660.495	101.8
1663.72	101.88
1666.946	101.37
1670.171	102.02
1673.396	102.68
1676.621	102.55
1679.845	103.14
1683.069	102.98
1686.293	102.74
1689.517	103.15
1692.74	103.52
1695.963	103.68
1699.185	104.19
1702.408	104.68
1705.63	104.61
1708.852	105.11
1712.073	105.07
1715.294	104.68
1718.515	105.74
1721.736	106.03
1724.956	106.21
1728.176	106.2
1731.396	106.32
1734.616	106.54
1737.835	106.6
1741.054	106.06
1744.272	105.83
1747.491	106.58
1750.709	107.06
1753.927	106.73
1757.144	107.16
1760.361	107.33
1763.578	107.62
1766.795	108.31
1770.011	108.91
1773.227	109.61
1776.443	111.17
1779.658	111.81
1782.874	111.93
1786.089	112.87
1789.303	113.04
1792.518	114.73
1795.732	114.97
1798.945	116.26
1802.159	116.32
1805.372	117.92
1808.585	118.47
1811.797	119.09
1815.01	119.97
1818.222	121.35
1821.434	121.76
1824.645	122.61
1827.856	123.46
1831.067	124.94
1834.278	126.9
1837.488	127.81
1840.698	128.39
1843.908	128.67
1847.117	130.46
1850.326	131.3
1853.535	131.94
1856.744	133.82
1859.952	135.84
1863.16	136.41
1866.368	135.95
1869.575	136.72
1872.782	137.22
1875.989	136.73
1879.196	137.18
1882.402	136.69
1885.608	137.75
1888.814	138.24
1892.019	139.05
1895.224	137.58
1898.429	138.14
1901.634	140.65
1904.838	139.8
1908.042	141.24
1911.246	141.14
1914.449	142.21
1917.652	142.45
1920.855	142.73
1924.058	141.39
1927.26	141.45
1930.462	142.62
1933.664	142.1
1936.865	141.74
1940.066	141.69
1943.267	140.03
1946.467	141.36
1949.668	140.62
1952.868	141.3
1956.067	140.74
1959.267	141.87
1962.466	142.38
1965.665	143.64
1968.863	144.43
1972.061	145.79
1975.259	148.57
1978.457	150.32
1981.654	150.88
1984.852	153.29
1988.048	154.42
1991.245	156.18
1994.441	160.05
1997.637	163.5
2000.833	166.01
2004.028	168.67
2007.223	172.82
2010.418	176.08
2013.613	183.35
2016.807	189.03
2020.001	191.74
2023.194	196.82
2026.388	203.75
2029.581	213.62
2032.774	218.98
2035.966	226.77
2039.158	232.91
2042.35	236.26
2045.542	240.78
2048.733	249.66
2051.924	252.98
2055.115	258.14
2058.306	260.88
2061.496	266.39
2064.686	264.32
2067.875	264.17
2071.065	265.36
2074.254	267.63
2077.442	274.3
2080.631	276.29
2083.819	276.64
2087.007	282.94
2090.195	287.57
2093.382	286.15
2096.569	286.15
2099.756	291.75
2102.942	297
2106.128	304.42
2109.314	304.13
2112.5	306.09
2115.685	303.39
2118.87	304.4
2122.055	304.68
2125.239	309.88
2128.424	319.64
2131.608	316.77
2134.791	317.76
2137.974	319.9
2141.157	321.47
2144.34	325.58
2147.523	326.84
2150.705	337.52
2153.887	333.14
2157.068	335.9
2160.25	339.1
2163.431	337.92
2166.611	346.95
2169.792	353.21
2172.972	356.82
2176.152	358.1
2179.331	365.84
2182.511	369.61
2185.69	373.18
2188.868	390.63
2192.047	397.51
2195.225	402.39
2198.403	408.69
2201.58	404.09
2204.758	415.64
2207.935	418.52
2211.111	426.84
2214.288	428.83
2217.464	434.02
2220.64	435.84
2223.815	434.71
2226.991	433.02
2230.166	436.38
2233.34	449.35
2236.515	459.59
2239.689	454.64
2242.863	463.95
2246.036	455.24
2249.209	471.24
2252.382	471.37
2255.555	487.36
2258.727	491.48
2261.9	506.05
2265.071	514.63
2268.243	513.23
2271.414	529.14
2274.585	538.79
2277.756	536.55
2280.926	565.07
2284.096	557.41
2287.266	559.22
2290.436	549.39
2293.605	563.94
2296.774	583.31
2299.942	581.15
2303.111	596.23
2306.279	606.51
2309.447	610.96
2312.614	614.72
2315.781	627.74
2318.948	640.34
2322.115	653.83
2325.281	689.53
2328.447	682.61
2331.613	683.62
2334.779	697.28
2337.944	704.64
2341.109	719.06
2344.274	725.01
2347.438	748.23
2350.602	754.57
2353.766	801.7
2356.929	804.54
2360.092	815.06
2363.255	818.83
2366.418	831.77
2369.58	847.96
2372.742	847.66
2375.904	842.08
2379.066	866.98
2382.227	925.16
2385.388	919.22
2388.548	869.81
2391.709	865.62
2394.869	890.97
2398.029	899.17
2401.188	900.28
2404.347	923.51
2407.506	953.01
2410.665	918.97
2413.823	923.95
2416.981	914.88
2420.139	869.07
2423.296	942.28
2426.453	995.27
2429.61	955.5
2432.767	1013.86
2435.923	1048.14
2439.079	1013.56
2442.235	1040.28
2445.391	1068.55
2448.546	1057.87
2451.701	1107.37
2454.855	1195.72
2458.009	1045.44
2461.163	1075.71
2464.317	1081.41
2467.471	1057.67
2470.624	1091.89
2473.777	1081.62
2476.929	1041.32
2480.082	1116.5
2483.234	1170.36
2486.385	1191.8
2489.537	1211.43
2492.688	1352.78
2495.839	1320.19
2498.989	1358.36
2502.14	1364.46
2505.29	1298.27
2508.439	1440.17
2511.589	1483.21
2514.738	1432.62
2517.887	1417.31
2521.035	1333.33
2524.183	1318.66
2527.331	1298.02
2530.479	1266.96
2533.627	1296.57
