Data from N_1_dec_ct_2n_033_Splice17_06.txt Node
Date: Sat Feb 29 13:47:06 EST 2020
User: sa697716
Spectrometer: FLMS03696
Trigger mode: 0
Integration Time (sec): 3.180400E-1
Scans to average: 20
Electric dark correction enabled: true
Nonlinearity correction enabled: true
Boxcar width: 5
XAxis mode: Wavelengths
Number of Pixels in Spectrum: 2048
>>>>>Begin Spectral Data<<<<<
187.83	41.08
188.298	22.38
188.766	29.39
189.233	36.93
189.701	52.3
190.169	50.96
190.636	51.67
191.104	25.96
191.571	165.28
192.039	164
192.506	-191.9
192.974	2030.21
193.441	307.14
193.908	48.09
194.375	56.73
194.842	167.05
195.31	71.96
195.777	53.49
196.244	57.86
196.711	60.02
197.177	55.76
197.644	54.93
198.111	54.29
198.578	55
199.045	55.29
199.511	55.57
199.978	56.35
200.445	56.39
200.911	56.88
201.378	56.47
201.844	56.82
202.31	57.66
202.777	58.1
203.243	58.64
203.709	58.68
204.176	58.56
204.642	58.38
205.108	57.69
205.574	58.21
206.04	58.09
206.506	57.92
206.972	57.56
207.438	56.94
207.903	56.87
208.369	56.23
208.835	55.81
209.301	55.6
209.766	55.21
210.232	55.02
210.697	54.24
211.163	53.72
211.628	53.42
212.094	52.88
212.559	52.55
213.024	51.81
213.49	51.1
213.955	50.65
214.42	49.95
214.885	49.43
215.35	48.41
215.815	47.27
216.28	46.06
216.745	44.86
217.21	43.66
217.675	42.39
218.14	41.23
218.604	40.1
219.069	39.22
219.534	38.55
219.998	37.84
220.463	37.31
220.927	36.84
221.392	36.41
221.856	35.88
222.32	35.46
222.785	35.08
223.249	34.77
223.713	34.51
224.177	34.19
224.642	33.8
225.106	33.48
225.57	33.15
226.034	32.85
226.497	32.47
226.961	32.15
227.425	31.79
227.889	31.5
228.353	31.16
228.816	30.83
229.28	30.51
229.744	30.2
230.207	29.9
230.671	29.55
231.134	29.22
231.597	28.93
232.061	28.64
232.524	28.38
232.987	28.07
233.45	27.77
233.914	27.46
234.377	27.19
234.84	26.93
235.303	26.66
235.766	26.43
236.229	26.17
236.691	25.94
237.154	25.7
237.617	25.48
238.08	25.26
238.542	25.05
239.005	24.85
239.468	24.6
239.93	24.39
240.393	24.2
240.855	23.98
241.317	23.8
241.78	23.62
242.242	23.42
242.704	23.26
243.166	23.06
243.629	22.9
244.091	22.72
244.553	22.56
245.015	22.41
245.477	22.23
245.939	22.07
246.4	21.92
246.862	21.77
247.324	21.65
247.786	21.49
248.247	21.37
248.709	21.22
249.17	21.1
249.632	20.99
250.093	20.87
250.555	20.76
251.016	20.66
251.477	20.55
251.939	20.45
252.4	20.35
252.861	20.26
253.322	20.16
253.783	20.09
254.244	20.01
254.705	19.93
255.166	19.86
255.627	19.79
256.088	19.72
256.549	19.65
257.009	19.58
257.47	19.52
257.931	19.44
258.391	19.38
258.852	19.3
259.312	19.25
259.773	19.18
260.233	19.11
260.694	19.06
261.154	19
261.614	18.96
262.074	18.91
262.534	18.85
262.994	18.81
263.455	18.78
263.915	18.76
264.374	18.72
264.834	18.7
265.294	18.67
265.754	18.63
266.214	18.61
266.673	18.59
267.133	18.57
267.593	18.55
268.052	18.54
268.512	18.53
268.971	18.51
269.431	18.5
269.89	18.49
270.349	18.48
270.809	18.48
271.268	18.48
271.727	18.47
272.186	18.47
272.645	18.46
273.104	18.44
273.563	18.43
274.022	18.41
274.481	18.39
274.94	18.38
275.399	18.36
275.857	18.33
276.316	18.3
276.775	18.28
277.233	18.26
277.692	18.24
278.15	18.22
278.609	18.2
279.067	18.18
279.525	18.16
279.984	18.13
280.442	18.11
280.9	18.1
281.358	18.08
281.816	18.07
282.274	18.04
282.732	18.02
283.19	18.01
283.648	18
284.106	18
284.564	18.01
285.021	18.02
285.479	18.03
285.937	18.03
286.394	18.05
286.852	18.06
287.309	18.07
287.767	18.09
288.224	18.08
288.682	18.09
289.139	18.08
289.596	18.06
290.053	18.04
290.511	18
290.968	17.98
291.425	17.95
291.882	17.93
292.339	17.9
292.796	17.87
293.252	17.85
293.709	17.83
294.166	17.82
294.623	17.81
295.079	17.8
295.536	17.81
295.992	17.81
296.449	17.82
296.905	17.82
297.362	17.83
297.818	17.85
298.274	17.85
298.731	17.85
299.187	17.84
299.643	17.84
300.099	17.84
300.555	17.83
301.011	17.81
301.467	17.81
301.923	17.8
302.379	17.8
302.835	17.79
303.291	17.79
303.746	17.79
304.202	17.78
304.658	17.78
305.113	17.79
305.569	17.79
306.024	17.79
306.479	17.78
306.935	17.78
307.39	17.77
307.845	17.77
308.301	17.78
308.756	17.78
309.211	17.79
309.666	17.8
310.121	17.79
310.576	17.8
311.031	17.82
311.486	17.82
311.94	17.82
312.395	17.84
312.85	17.85
313.305	17.85
313.759	17.85
314.214	17.85
314.668	17.85
315.123	17.86
315.577	17.85
316.032	17.85
316.486	17.85
316.94	17.84
317.394	17.83
317.849	17.81
318.303	17.8
318.757	17.79
319.211	17.76
319.665	17.74
320.119	17.72
320.572	17.71
321.026	17.68
321.48	17.66
321.934	17.65
322.387	17.62
322.841	17.6
323.295	17.58
323.748	17.56
324.202	17.55
324.655	17.54
325.108	17.52
325.562	17.5
326.015	17.46
326.468	17.44
326.921	17.41
327.374	17.38
327.827	17.36
328.28	17.33
328.733	17.29
329.186	17.27
329.639	17.24
330.092	17.22
330.545	17.19
330.997	17.17
331.45	17.16
331.903	17.15
332.355	17.13
332.808	17.12
333.26	17.14
333.713	17.14
334.165	17.13
334.617	17.14
335.069	17.14
335.522	17.16
335.974	17.18
336.426	17.19
336.878	17.18
337.33	17.19
337.782	17.19
338.234	17.18
338.686	17.17
339.137	17.18
339.589	17.16
340.041	17.16
340.493	17.13
340.944	17.1
341.396	17.08
341.847	17.05
342.299	17.03
342.75	16.99
343.201	16.95
343.653	16.92
344.104	16.87
344.555	16.84
345.006	16.79
345.457	16.76
345.908	16.74
346.359	16.71
346.81	16.69
347.261	16.66
347.712	16.63
348.163	16.61
348.613	16.59
349.064	16.57
349.515	16.55
349.965	16.53
350.416	16.51
350.866	16.5
351.317	16.48
351.767	16.47
352.217	16.45
352.668	16.46
353.118	16.46
353.568	16.46
354.018	16.46
354.468	16.46
354.918	16.48
355.368	16.48
355.818	16.47
356.268	16.48
356.718	16.49
357.168	16.48
357.617	16.49
358.067	16.47
358.517	16.46
358.966	16.46
359.416	16.48
359.865	16.45
360.315	16.45
360.764	16.45
361.213	16.43
361.663	16.43
362.112	16.43
362.561	16.42
363.01	16.43
363.459	16.42
363.908	16.41
364.357	16.4
364.806	16.4
365.255	16.4
365.703	16.4
366.152	16.42
366.601	16.41
367.05	16.41
367.498	16.4
367.947	16.4
368.395	16.41
368.844	16.42
369.292	16.43
369.74	16.45
370.189	16.47
370.637	16.48
371.085	16.49
371.533	16.52
371.981	16.56
372.429	16.56
372.877	16.61
373.325	16.64
373.773	16.68
374.221	16.71
374.669	16.75
375.116	16.79
375.564	16.83
376.012	16.9
376.459	16.95
376.907	17.01
377.354	17.1
377.801	17.17
378.249	17.24
378.696	17.32
379.143	17.4
379.591	17.49
380.038	17.58
380.485	17.68
380.932	17.76
381.379	17.86
381.826	17.95
382.273	18.04
382.72	18.14
383.166	18.23
383.613	18.33
384.06	18.44
384.506	18.54
384.953	18.63
385.4	18.73
385.846	18.82
386.292	18.92
386.739	19.02
387.185	19.13
387.631	19.23
388.078	19.35
388.524	19.43
388.97	19.5
389.416	19.56
389.862	19.64
390.308	19.73
390.754	19.8
391.2	19.89
391.645	19.96
392.091	20.03
392.537	20.11
392.983	20.18
393.428	20.24
393.874	20.32
394.319	20.39
394.765	20.44
395.21	20.47
395.655	20.51
396.101	20.54
396.546	20.57
396.991	20.58
397.436	20.59
397.881	20.61
398.326	20.66
398.771	20.71
399.216	20.76
399.661	20.79
400.106	20.83
400.551	20.85
400.995	20.85
401.44	20.82
401.885	20.82
402.329	20.81
402.774	20.79
403.218	20.77
403.663	20.72
404.107	20.7
404.551	20.67
404.995	20.64
405.44	20.62
405.884	20.6
406.328	20.59
406.772	20.58
407.216	20.57
407.66	20.55
408.104	20.51
408.547	20.5
408.991	20.44
409.435	20.41
409.879	20.38
410.322	20.36
410.766	20.33
411.209	20.32
411.653	20.3
412.096	20.25
412.54	20.21
412.983	20.18
413.426	20.14
413.869	20.13
414.312	20.14
414.756	20.14
415.199	20.12
415.642	20.1
416.085	20.11
416.527	20.09
416.97	20.09
417.413	20.06
417.856	20.01
418.298	19.98
418.741	19.95
419.184	19.89
419.626	19.83
420.069	19.8
420.511	19.76
420.953	19.71
421.396	19.67
421.838	19.65
422.28	19.65
422.722	19.66
423.164	19.64
423.606	19.63
424.048	19.59
424.49	19.6
424.932	19.58
425.374	19.56
425.816	19.52
426.258	19.48
426.699	19.41
427.141	19.34
427.582	19.31
428.024	19.29
428.465	19.28
428.907	19.3
429.348	19.29
429.789	19.29
430.231	19.28
430.672	19.28
431.113	19.3
431.554	19.34
431.995	19.37
432.436	19.37
432.877	19.38
433.318	19.39
433.759	19.37
434.2	19.35
434.64	19.36
435.081	19.36
435.522	19.41
435.962	19.43
436.403	19.47
436.843	19.52
437.284	19.57
437.724	19.6
438.164	19.63
438.604	19.67
439.045	19.69
439.485	19.71
439.925	19.74
440.365	19.74
440.805	19.76
441.245	19.76
441.685	19.77
442.125	19.8
442.564	19.83
443.004	19.86
443.444	19.92
443.883	19.98
444.323	20.01
444.762	20.1
445.202	20.17
445.641	20.24
446.081	20.33
446.52	20.41
446.959	20.49
447.398	20.58
447.837	20.67
448.276	20.74
448.716	20.83
449.154	20.92
449.593	20.96
450.032	21.04
450.471	21.1
450.91	21.12
451.349	21.17
451.787	21.21
452.226	21.23
452.664	21.26
453.103	21.28
453.541	21.28
453.98	21.33
454.418	21.39
454.856	21.4
455.295	21.41
455.733	21.46
456.171	21.47
456.609	21.5
457.047	21.49
457.485	21.52
457.923	21.56
458.361	21.59
458.798	21.61
459.236	21.64
459.674	21.68
460.111	21.72
460.549	21.74
460.987	21.79
461.424	21.81
461.862	21.88
462.299	21.88
462.736	21.91
463.173	21.95
463.611	21.98
464.048	22
464.485	21.99
464.922	22.02
465.359	22.02
465.796	22.02
466.233	22.04
466.67	22.03
467.106	22.05
467.543	22.05
467.98	22.05
468.416	22.04
468.853	22.05
469.29	22.05
469.726	22.02
470.162	22.02
470.599	22
471.035	22
471.471	21.99
471.907	21.98
472.344	21.98
472.78	21.96
473.216	21.94
473.652	21.91
474.088	21.93
474.523	21.92
474.959	21.9
475.395	21.9
475.831	21.9
476.266	21.89
476.702	21.89
477.138	21.87
477.573	21.85
478.008	21.83
478.444	21.83
478.879	21.84
479.314	21.85
479.75	21.86
480.185	21.84
480.62	21.84
481.055	21.84
481.49	21.85
481.925	21.87
482.36	21.88
482.795	21.88
483.229	21.89
483.664	21.91
484.099	21.95
484.534	21.98
484.968	22.04
485.403	22.1
485.837	22.17
486.271	22.23
486.706	22.3
487.14	22.41
487.574	22.52
488.009	22.64
488.443	22.74
488.877	22.85
489.311	22.98
489.745	23.12
490.179	23.27
490.613	23.43
491.046	23.61
491.48	23.81
491.914	23.97
492.348	24.14
492.781	24.34
493.215	24.54
493.648	24.76
494.082	24.99
494.515	25.21
494.948	25.43
495.382	25.67
495.815	25.92
496.248	26.16
496.681	26.4
497.114	26.69
497.547	26.96
497.98	27.24
498.413	27.53
498.846	27.83
499.279	28.13
499.711	28.45
500.144	28.78
500.577	29.11
501.009	29.46
501.442	29.85
501.874	30.23
502.306	30.6
502.739	30.97
503.171	31.39
503.603	31.77
504.036	32.18
504.468	32.6
504.9	33.01
505.332	33.45
505.764	33.88
506.196	34.31
506.627	34.76
507.059	35.21
507.491	35.64
507.923	36.09
508.354	36.59
508.786	37.06
509.217	37.52
509.649	38
510.08	38.5
510.512	38.98
510.943	39.45
511.374	39.9
511.805	40.36
512.237	40.88
512.668	41.35
513.099	41.83
513.53	42.32
513.961	42.79
514.391	43.25
514.822	43.68
515.253	44.11
515.684	44.54
516.114	44.98
516.545	45.4
516.975	45.81
517.406	46.21
517.836	46.57
518.267	46.92
518.697	47.29
519.127	47.64
519.558	48
519.988	48.36
520.418	48.7
520.848	49.04
521.278	49.4
521.708	49.6
522.138	49.86
522.567	50.17
522.997	50.47
523.427	50.75
523.857	51.02
524.286	51.26
524.716	51.53
525.145	51.79
525.575	52.02
526.004	52.23
526.433	52.57
526.863	52.82
527.292	53.05
527.721	53.26
528.15	53.45
528.579	53.67
529.008	53.88
529.437	54.06
529.866	54.21
530.295	54.4
530.724	54.58
531.152	54.72
531.581	54.89
532.01	55.03
532.438	55.16
532.867	55.28
533.295	55.4
533.723	55.54
534.152	55.65
534.58	55.77
535.008	55.84
535.436	55.93
535.865	56.01
536.293	56.1
536.721	56.18
537.149	56.27
537.576	56.35
538.004	56.44
538.432	56.49
538.86	56.55
539.287	56.64
539.715	56.72
540.143	56.78
540.57	56.85
540.998	56.93
541.425	57.02
541.852	57.03
542.28	57.09
542.707	57.12
543.134	57.15
543.561	57.2
543.988	57.23
544.415	57.28
544.842	57.31
545.269	57.34
545.696	57.35
546.123	57.36
546.549	57.45
546.976	57.49
547.403	57.53
547.829	57.56
548.256	57.58
548.682	57.58
549.108	57.59
549.535	57.64
549.961	57.67
550.387	57.67
550.813	57.68
551.24	57.67
551.666	57.7
552.092	57.72
552.518	57.73
552.943	57.77
553.369	57.81
553.795	57.83
554.221	57.83
554.646	57.84
555.072	57.88
555.498	57.86
555.923	57.86
556.349	57.84
556.774	57.8
557.199	57.81
557.625	57.78
558.05	57.73
558.475	57.68
558.9	57.66
559.325	57.63
559.75	57.57
560.175	57.52
560.6	57.43
561.025	57.36
561.449	57.32
561.874	57.25
562.299	57.22
562.723	57.15
563.148	57.1
563.572	57.05
563.997	56.97
564.421	56.9
564.846	56.83
565.27	56.78
565.694	56.72
566.118	56.65
566.542	56.57
566.966	56.45
567.39	56.33
567.814	56.21
568.238	56.05
568.662	55.94
569.086	55.8
569.509	55.68
569.933	55.51
570.357	55.34
570.78	55.2
571.204	55.03
571.627	54.88
572.05	54.77
572.474	54.64
572.897	54.54
573.32	54.4
573.743	54.27
574.166	54.15
574.589	54.05
575.012	53.98
575.435	53.85
575.858	53.76
576.281	53.67
576.704	53.57
577.126	53.48
577.549	53.4
577.972	53.33
578.394	53.25
578.817	53.17
579.239	53.12
579.661	53.03
580.084	52.98
580.506	52.92
580.928	52.85
581.35	52.83
581.772	52.81
582.194	52.71
582.616	52.64
583.038	52.58
583.46	52.54
583.882	52.44
584.303	52.4
584.725	52.35
585.147	52.26
585.568	52.19
585.99	52.1
586.411	51.98
586.833	51.94
587.254	51.85
587.675	51.78
588.096	51.72
588.518	51.67
588.939	51.59
589.36	51.55
589.781	51.52
590.202	51.47
590.623	51.43
591.043	51.37
591.464	51.31
591.885	51.3
592.305	51.27
592.726	51.19
593.147	51.18
593.567	51.11
593.987	51.07
594.408	51
594.828	50.94
595.248	50.9
595.669	50.87
596.089	50.8
596.509	50.71
596.929	50.64
597.349	50.6
597.769	50.53
598.189	50.48
598.608	50.39
599.028	50.33
599.448	50.29
599.867	50.23
600.287	50.18
600.706	50.12
601.126	50.07
601.545	50.03
601.965	49.99
602.384	49.95
602.803	49.9
603.222	49.86
603.641	49.81
604.061	49.74
604.48	49.65
604.898	49.6
605.317	49.56
605.736	49.48
606.155	49.39
606.574	49.3
606.992	49.2
607.411	49.15
607.829	49.05
608.248	48.97
608.666	48.9
609.085	48.85
609.503	48.76
609.921	48.7
610.339	48.65
610.758	48.6
611.176	48.51
611.594	48.44
612.012	48.32
612.43	48.28
612.847	48.21
613.265	48.15
613.683	48.05
614.101	47.96
614.518	47.88
614.936	47.8
615.353	47.71
615.771	47.65
616.188	47.59
616.606	47.51
617.023	47.44
617.44	47.37
617.857	47.29
618.274	47.23
618.691	47.19
619.108	47.13
619.525	47.07
619.942	47.02
620.359	46.96
620.776	46.91
621.192	46.89
621.609	46.86
622.026	46.81
622.442	46.76
622.859	46.73
623.275	46.73
623.691	46.72
624.108	46.71
624.524	46.7
624.94	46.72
625.356	46.7
625.772	46.69
626.188	46.68
626.604	46.68
627.02	46.73
627.436	46.72
627.852	46.69
628.268	46.68
628.683	46.65
629.099	46.65
629.514	46.6
629.93	46.57
630.345	46.52
630.761	46.48
631.176	46.43
631.591	46.35
632.007	46.27
632.422	46.21
632.837	46.1
633.252	45.98
633.667	45.82
634.082	45.71
634.497	45.55
634.911	45.39
635.326	45.19
635.741	44.97
636.155	44.74
636.57	44.51
636.984	44.23
637.399	43.95
637.813	43.68
638.228	43.4
638.642	43.1
639.056	42.79
639.47	42.48
639.884	42.17
640.298	41.84
640.712	41.51
641.126	41.17
641.54	40.85
641.954	40.52
642.368	40.18
642.781	39.85
643.195	39.49
643.609	39.15
644.022	38.82
644.436	38.51
644.849	38.21
645.262	37.91
645.676	37.61
646.089	37.32
646.502	37.07
646.915	36.85
647.328	36.64
647.741	36.43
648.154	36.26
648.567	36.1
648.98	35.95
649.393	35.83
649.805	35.71
650.218	35.61
650.631	35.52
651.043	35.42
651.456	35.34
651.868	35.24
652.28	35.19
652.693	35.1
653.105	35
653.517	34.91
653.929	34.81
654.341	34.73
654.753	34.63
655.165	34.53
655.577	34.41
655.989	34.28
656.401	34.13
656.813	33.95
657.224	33.8
657.636	33.63
658.047	33.45
658.459	33.25
658.87	33.03
659.282	32.85
659.693	32.63
660.104	32.41
660.515	32.19
660.926	31.98
661.338	31.77
661.749	31.54
662.159	31.32
662.57	31.08
662.981	30.88
663.392	30.66
663.803	30.4
664.213	30.19
664.624	30
665.035	29.8
665.445	29.62
665.855	29.45
666.266	29.29
666.676	29.15
667.086	29.02
667.497	28.89
667.907	28.77
668.317	28.68
668.727	28.6
669.137	28.51
669.547	28.46
669.956	28.4
670.366	28.37
670.776	28.33
671.186	28.32
671.595	28.31
672.005	28.32
672.414	28.36
672.824	28.38
673.233	28.43
673.642	28.49
674.052	28.57
674.461	28.65
674.87	28.76
675.279	28.88
675.688	28.98
676.097	29.13
676.506	29.28
676.915	29.43
677.323	29.64
677.732	29.85
678.141	30.12
678.549	30.38
678.958	30.69
679.366	30.98
679.775	31.34
680.183	31.72
680.592	32.15
681	32.62
681.408	33.13
681.816	33.67
682.224	34.24
682.632	34.83
683.04	35.45
683.448	36.12
683.856	36.87
684.264	37.63
684.671	38.44
685.079	39.26
685.487	40.1
685.894	40.96
686.302	41.83
686.709	42.72
687.116	43.6
687.524	44.51
687.931	45.41
688.338	46.31
688.745	47.2
689.152	48.09
689.559	48.95
689.966	49.81
690.373	50.65
690.78	51.48
691.187	52.31
691.593	53.08
692	53.88
692.407	54.63
692.813	55.36
693.22	56.03
693.626	56.7
694.032	57.35
694.439	58
694.845	58.6
695.251	59.16
695.657	59.68
696.063	60.25
696.469	60.71
696.875	61.14
697.281	61.59
697.687	62.05
698.093	62.46
698.498	62.84
698.904	63.2
699.31	63.56
699.715	63.94
700.12	64.27
700.526	64.6
700.931	64.9
701.337	65.24
701.742	65.49
702.147	65.74
702.552	66.03
702.957	66.32
703.362	66.57
703.767	66.81
704.172	67.02
704.577	67.24
704.981	67.43
705.386	67.63
705.791	67.84
706.195	68.05
706.6	68.25
707.004	68.42
707.408	68.57
707.813	68.75
708.217	68.86
708.621	69.01
709.025	69.18
709.43	69.31
709.834	69.48
710.237	69.6
710.641	69.75
711.045	69.86
711.449	69.95
711.853	70.07
712.256	70.19
712.66	70.35
713.064	70.48
713.467	70.56
713.87	70.69
714.274	70.79
714.677	70.89
715.08	71.01
715.484	71.14
715.887	71.26
716.29	71.36
716.693	71.45
717.096	71.53
717.499	71.61
717.901	71.69
718.304	71.73
718.707	71.79
719.109	71.87
719.512	71.95
719.915	72
720.317	72.05
720.719	72.11
721.122	72.19
721.524	72.26
721.926	72.38
722.328	72.48
722.731	72.57
723.133	72.62
723.535	72.69
723.937	72.71
724.338	72.75
724.74	72.84
725.142	72.8
725.544	72.84
725.945	72.85
726.347	72.87
726.748	72.85
727.15	72.89
727.551	72.96
727.952	72.94
728.354	72.99
728.755	73.06
729.156	73.09
729.557	73.24
729.958	73.28
730.359	73.33
730.76	73.31
731.161	73.35
731.562	73.36
731.962	73.34
732.363	73.38
732.763	73.42
733.164	73.4
733.564	73.37
733.965	73.32
734.365	73.28
734.766	73.26
735.166	73.24
735.566	73.23
735.966	73.2
736.366	73.24
736.766	73.23
737.166	73.2
737.566	73.19
737.966	73.23
738.365	73.27
738.765	73.31
739.165	73.3
739.564	73.35
739.964	73.35
740.363	73.38
740.763	73.39
741.162	73.38
741.561	73.39
741.96	73.39
742.36	73.38
742.759	73.35
743.158	73.33
743.557	73.37
743.955	73.39
744.354	73.43
744.753	73.44
745.152	73.4
745.55	73.44
745.949	73.44
746.348	73.48
746.746	73.45
747.144	73.53
747.543	73.55
747.941	73.59
748.339	73.61
748.737	73.67
749.136	73.69
749.534	73.79
749.932	73.76
750.33	73.78
750.727	73.74
751.125	73.79
751.523	73.73
751.921	73.73
752.318	73.71
752.716	73.66
753.113	73.59
753.511	73.55
753.908	73.48
754.305	73.45
754.703	73.41
755.1	73.4
755.497	73.36
755.894	73.36
756.291	73.34
756.688	73.33
757.085	73.28
757.482	73.31
757.878	73.28
758.275	73.27
758.672	73.32
759.068	73.33
759.465	73.35
759.861	73.31
760.258	73.27
760.654	73.24
761.05	73.22
761.447	73.25
761.843	73.2
762.239	73.19
762.635	73.18
763.031	73.14
763.427	73.1
763.822	73.06
764.218	73.04
764.614	73.05
765.01	73.05
765.405	73.02
765.801	72.96
766.196	72.94
766.592	72.95
766.987	72.95
767.382	72.94
767.778	72.95
768.173	72.96
768.568	72.96
768.963	72.94
769.358	72.94
769.753	72.97
770.148	73.01
770.542	73.02
770.937	73.01
771.332	73.01
771.726	72.97
772.121	72.95
772.515	72.94
772.91	72.92
773.304	72.93
773.699	72.95
774.093	72.92
774.487	72.94
774.881	72.91
775.275	72.9
775.669	72.91
776.063	72.91
776.457	72.9
776.851	72.9
777.245	72.94
777.638	72.91
778.032	72.9
778.425	72.89
778.819	72.88
779.212	72.87
779.606	72.88
779.999	72.85
780.392	72.86
780.786	72.84
781.179	72.86
781.572	72.85
781.965	72.88
782.358	72.82
782.751	72.84
783.143	72.85
783.536	72.94
783.929	72.95
784.322	72.97
784.714	73.01
785.107	73.02
785.499	73.01
785.891	73.01
786.284	72.96
786.676	73.06
787.068	73.01
787.46	72.99
787.852	72.95
788.245	72.95
788.636	72.94
789.028	72.9
789.42	72.89
789.812	72.92
790.204	72.9
790.595	72.94
790.987	72.87
791.378	72.9
791.77	72.92
792.161	72.95
792.553	72.94
792.944	72.98
793.335	73.02
793.726	73
794.117	72.96
794.508	72.98
794.899	72.97
795.29	72.97
795.681	72.97
796.072	72.97
796.463	72.94
796.853	72.96
797.244	72.95
797.634	72.92
798.025	72.97
798.415	72.98
798.806	73
799.196	73.03
799.586	73.08
799.976	73.1
800.366	73.11
800.756	73.11
801.146	73.07
801.536	73.03
801.926	73.04
802.316	73.02
802.706	73.06
803.095	73.08
803.485	73.08
803.874	73.04
804.264	73.07
804.653	73.02
805.043	73
805.432	73.03
805.821	73.03
806.21	73.07
806.599	73.1
806.988	73.07
807.377	73.08
807.766	73.09
808.155	73.14
808.544	73.08
808.933	73.1
809.321	73.15
809.71	73.19
810.098	73.2
810.487	73.21
810.875	73.2
811.264	73.23
811.652	73.21
812.04	73.22
812.428	73.19
812.816	73.25
813.204	73.26
813.592	73.26
813.98	73.2
814.368	73.21
814.756	73.2
815.144	73.27
815.531	73.24
815.919	73.24
816.306	73.21
816.694	73.19
817.081	73.14
817.469	73.16
817.856	73.2
818.243	73.25
818.63	73.28
819.017	73.28
819.404	73.22
819.791	73.25
820.178	73.27
820.565	73.3
820.952	73.31
821.339	73.37
821.725	73.4
822.112	73.37
822.498	73.35
822.885	73.36
823.271	73.36
823.657	73.4
824.044	73.4
824.43	73.4
824.816	73.41
825.202	73.44
825.588	73.44
825.974	73.42
826.36	73.44
826.746	73.48
827.132	73.45
827.517	73.45
827.903	73.43
828.289	73.4
828.674	73.42
829.06	73.42
829.445	73.43
829.83	73.43
830.216	73.43
830.601	73.43
830.986	73.42
831.371	73.44
831.756	73.42
832.141	73.46
832.526	73.5
832.911	73.52
833.295	73.54
833.68	73.54
834.065	73.52
834.449	73.48
834.834	73.47
835.218	73.48
835.603	73.51
835.987	73.52
836.371	73.5
836.755	73.47
837.139	73.42
837.524	73.41
837.908	73.38
838.291	73.41
838.675	73.47
839.059	73.46
839.443	73.43
839.827	73.39
840.21	73.43
840.594	73.42
840.977	73.4
841.361	73.43
841.744	73.44
842.127	73.46
842.511	73.43
842.894	73.38
843.277	73.38
843.66	73.4
844.043	73.41
844.426	73.4
844.809	73.38
845.191	73.38
845.574	73.38
845.957	73.34
846.339	73.35
846.722	73.36
847.104	73.38
847.487	73.39
847.869	73.39
848.252	73.37
848.634	73.35
849.016	73.38
849.398	73.4
849.78	73.37
850.162	73.36
850.544	73.36
850.926	73.32
851.307	73.34
851.689	73.31
852.071	73.31
852.452	73.35
852.834	73.34
853.215	73.32
853.597	73.34
853.978	73.33
854.359	73.33
854.741	73.35
855.122	73.39
855.503	73.4
855.884	73.39
856.265	73.36
856.646	73.31
857.026	73.31
857.407	73.28
857.788	73.29
858.169	73.32
858.549	73.34
858.93	73.32
859.31	73.29
859.69	73.29
860.071	73.28
860.451	73.31
860.831	73.34
861.211	73.32
861.591	73.36
861.971	73.29
862.351	73.28
862.731	73.27
863.111	73.28
863.491	73.31
863.87	73.27
864.25	73.3
864.629	73.29
865.009	73.27
865.388	73.29
865.768	73.28
866.147	73.35
866.526	73.35
866.905	73.35
867.284	73.32
867.663	73.31
868.042	73.3
868.421	73.25
868.8	73.25
869.179	73.26
869.558	73.22
869.936	73.2
870.315	73.15
870.693	73.14
871.072	73.1
871.45	73.09
871.828	73.08
872.207	73.11
872.585	73.11
872.963	73.08
873.341	73.05
873.719	73.08
874.097	73.09
874.475	73.08
874.853	73.09
875.23	73.15
875.608	73.16
875.986	73.12
876.363	73.08
876.741	73.11
877.118	73.14
877.495	73.11
877.873	73.14
878.25	73.11
878.627	73.14
879.004	73.11
879.381	73.08
879.758	73.07
880.135	73.09
880.512	73.11
880.889	73.1
881.265	73.1
881.642	73.12
882.019	73.14
882.395	73.15
882.772	73.16
883.148	73.18
883.524	73.19
883.901	73.19
884.277	73.19
884.653	73.21
885.029	73.2
885.405	73.15
885.781	73.18
886.157	73.17
886.532	73.15
886.908	73.18
887.284	73.21
887.659	73.22
888.035	73.24
888.411	73.22
888.786	73.18
889.161	73.18
889.537	73.21
889.912	73.18
890.287	73.15
890.662	73.17
891.037	73.08
891.412	73.03
891.787	72.99
892.162	72.94
892.536	72.94
892.911	72.93
893.286	72.88
893.66	72.86
894.035	72.83
894.409	72.81
894.784	72.76
895.158	72.78
895.532	72.74
895.906	72.73
896.281	72.74
896.655	72.74
897.029	72.72
897.402	72.75
897.776	72.73
898.15	72.72
898.524	72.7
898.898	72.69
899.271	72.69
899.645	72.68
900.018	72.68
900.392	72.67
900.765	72.67
901.138	72.67
901.511	72.64
901.884	72.66
902.258	72.65
902.631	72.66
903.003	72.67
903.376	72.64
903.749	72.68
904.122	72.65
904.495	72.67
904.867	72.64
905.24	72.64
905.612	72.64
905.985	72.6
906.357	72.58
906.729	72.58
907.102	72.61
907.474	72.63
907.846	72.59
908.218	72.54
908.59	72.46
908.962	72.48
909.334	72.48
909.705	72.49
910.077	72.46
910.449	72.5
910.82	72.47
911.192	72.43
911.563	72.39
911.935	72.4
912.306	72.47
912.677	72.52
913.048	72.47
913.419	72.44
913.79	72.4
914.161	72.43
914.532	72.4
914.903	72.4
915.274	72.38
915.645	72.37
916.015	72.32
916.386	72.32
916.756	72.26
917.127	72.29
917.497	72.24
917.868	72.22
918.238	72.19
918.608	72.18
918.978	72.11
919.348	72.05
919.718	72.02
920.088	72.03
920.458	72.02
920.828	72.04
921.198	71.97
921.567	71.97
921.937	71.96
922.306	71.95
922.676	71.99
923.045	71.99
923.415	72.05
923.784	72.05
924.153	72.05
924.522	71.99
924.891	71.99
925.26	71.97
925.629	71.98
925.998	71.98
926.367	71.98
926.736	71.94
927.104	71.99
927.473	72
927.842	71.98
928.21	71.97
928.578	71.93
928.947	71.89
929.315	71.93
929.683	71.94
930.051	71.86
930.42	71.84
930.788	71.83
931.156	71.77
931.523	71.71
931.891	71.66
932.259	71.56
932.627	71.55
932.994	71.52
933.362	71.43
933.729	71.35
934.097	71.37
934.464	71.32
934.831	71.27
935.199	71.24
935.566	71.22
935.933	71.18
936.3	71.16
936.667	71.09
937.034	71
937.401	70.95
937.767	70.88
938.134	70.81
938.501	70.75
938.867	70.8
939.234	70.7
939.6	70.55
939.967	70.57
940.333	70.69
940.699	70.82
941.065	71.07
941.431	71.17
941.798	71.32
942.163	71.47
942.529	71.46
942.895	71.41
943.261	71.53
943.627	71.72
943.992	71.85
944.358	71.84
944.723	71.81
945.089	71.85
945.454	71.89
945.82	71.84
946.185	71.84
946.55	72.07
946.915	72.1
947.28	72.1
947.645	72.09
948.01	72.08
948.375	72.18
948.74	72.04
949.104	72
949.469	71.87
949.834	71.89
950.198	71.78
950.562	71.65
950.927	71.61
951.291	71.61
951.655	71.59
952.02	71.51
952.384	71.5
952.748	71.59
953.112	71.53
953.476	71.55
953.839	71.46
954.203	71.45
954.567	71.4
954.931	71.4
955.294	71.44
955.658	71.37
956.021	71.3
956.385	71.27
956.748	71.28
957.111	71.14
957.474	71.17
957.837	71.25
958.2	71.19
958.563	71.18
958.926	71.04
959.289	71
959.652	71.01
960.015	70.98
960.377	70.94
960.74	70.78
961.102	70.8
961.465	70.82
961.827	70.65
962.189	70.63
962.552	70.59
962.914	70.61
963.276	70.55
963.638	70.51
964	70.48
964.362	70.44
964.724	70.53
965.085	70.58
965.447	70.44
965.809	70.43
966.17	70.48
966.532	70.46
966.893	70.46
967.255	70.4
967.616	70.42
967.977	70.46
968.338	70.4
968.699	70.34
969.061	70.22
969.421	70.22
969.782	70.29
970.143	70.25
970.504	70.28
970.865	70.24
971.225	70.24
971.586	70.29
971.946	70.35
972.307	70.35
972.667	70.41
973.027	70.48
973.388	70.48
973.748	70.39
974.108	70.33
974.468	70.35
974.828	70.37
975.188	70.41
975.548	70.36
975.907	70.29
976.267	70.33
976.627	70.31
976.986	70.26
977.346	70.31
977.705	70.36
978.064	70.43
978.424	70.34
978.783	70.32
979.142	70.27
979.501	70.16
979.86	70.13
980.219	70.03
980.578	69.99
980.937	70.01
981.296	69.96
981.654	70.01
982.013	70.07
982.371	70.08
982.73	70.03
983.088	70.07
983.447	70.2
983.805	70.26
984.163	70.38
984.521	70.26
984.879	70.36
985.237	70.43
985.595	70.38
985.953	70.37
986.311	70.4
986.669	70.53
987.026	70.54
987.384	70.53
987.741	70.57
988.099	70.6
988.456	70.65
988.814	70.6
989.171	70.53
989.528	70.57
989.885	70.46
990.242	70.6
990.599	70.58
990.956	70.58
991.313	70.62
991.67	70.59
992.027	70.5
992.383	70.58
992.74	70.53
993.096	70.51
993.453	70.49
993.809	70.54
994.165	70.41
994.522	70.3
994.878	70.27
995.234	70.12
995.59	70.08
995.946	70.13
996.302	69.96
996.658	70.08
997.013	70.14
997.369	70.22
997.725	70.25
998.08	70.38
998.436	70.51
998.791	70.43
999.147	70.46
999.502	70.42
999.857	70.35
1000.212	70.44
1000.567	70.32
1000.922	70.3
1001.277	70.11
1001.632	70.06
1001.987	69.95
1002.342	69.92
1002.696	70.13
1003.051	70.02
1003.406	69.94
1003.76	69.95
1004.114	70.01
1004.469	70.05
1004.823	70.09
1005.177	70.18
1005.531	70.13
1005.885	70.22
1006.239	70.25
1006.593	70.06
1006.947	70.25
1007.301	70.33
1007.655	70.19
1008.008	70.2
1008.362	69.98
1008.715	69.75
1009.069	69.65
1009.422	69.43
1009.776	69.36
1010.129	69.2
1010.482	69.31
1010.835	69.43
1011.188	69.1
1011.541	69.07
1011.894	69.19
1012.247	69.38
1012.6	69.49
1012.952	69.49
1013.305	69.59
1013.657	69.34
1014.01	69.49
1014.362	69.52
1014.715	69.32
1015.067	69.72
1015.419	69.98
1015.771	70.25
1016.123	70.24
1016.475	70.27
1016.827	70.61
1017.179	70.72
1017.531	70.91
1017.883	71.01
1018.234	70.89
1018.586	70.86
1018.938	70.73
1019.289	70.63
1019.64	70.34
1019.992	70.38
1020.343	70.27
1020.694	69.82
1021.045	69.87
1021.396	69.68
1021.747	69.62
1022.098	69.65
1022.449	69.39
1022.8	69.18
1023.151	68.93
1023.501	68.98
1023.852	69.27
1024.202	69.29
1024.553	69.35
1024.903	69.37
1025.253	69.62
1025.604	69.43
1025.954	69.14
1026.304	69.84
1026.654	70.33
1027.004	70.69
1027.354	70.6
1027.703	69.99
1028.053	69.86
1028.403	70.16
1028.753	70.31
1029.102	70.54
1029.452	71.09
1029.801	71.6
1030.15	71.36
1030.499	71.29
897.758	504.53
901.051	518.46
904.343	524.13
907.636	517.09
910.928	508.44
914.22	519.52
917.511	510.73
920.803	489.57
924.094	470.23
927.384	477.58
930.675	464.93
933.965	461.6
937.255	460.64
940.544	441.26
943.834	418.48
947.123	414.54
950.411	393.73
953.7	385.86
956.988	378.27
960.276	363.44
963.563	358.63
966.851	340.93
970.138	336.44
973.424	313.07
976.711	309.43
979.997	303.09
983.283	295.98
986.568	286.3
989.853	278.72
993.138	269.22
996.423	265.79
999.708	258.04
1002.992	258.86
1006.275	252.06
1009.559	251.48
1012.842	244.98
1016.125	237.43
1019.408	233.82
1022.69	232.61
1025.972	231.56
1029.254	225.03
1032.536	221.43
1035.817	213.91
1039.098	210.81
1042.379	207.85
1045.659	204.5
1048.939	203.64
1052.219	200.86
1055.498	197.97
1058.778	194.62
1062.057	191.16
1065.335	191
1068.614	187.7
1071.892	186.34
1075.17	183.83
1078.447	180.71
1081.724	180.28
1085.001	175.84
1088.278	175.72
1091.554	175.26
1094.83	174.27
1098.106	171.95
1101.382	171.06
1104.657	170.69
1107.932	170.29
1111.206	169
1114.481	167.54
1117.755	165.77
1121.029	166.22
1124.302	164.45
1127.575	160.48
1130.848	160.19
1134.121	158.92
1137.393	158.46
1140.665	158.04
1143.937	156.55
1147.208	154.51
1150.48	153.56
1153.75	153.58
1157.021	152.43
1160.291	151.56
1163.561	152.29
1166.831	150.54
1170.101	150.74
1173.37	149.45
1176.639	147.83
1179.907	147.7
1183.176	147.66
1186.444	147.16
1189.711	145.94
1192.979	147.11
1196.246	147.68
1199.513	146.9
1202.78	148
1206.046	147.18
1209.312	147.96
1212.578	149.03
1215.843	150.27
1219.108	151.05
1222.373	154.04
1225.638	155.49
1228.902	157.77
1232.166	160.41
1235.43	163.46
1238.693	166.67
1241.956	170.24
1245.219	175.2
1248.482	175.69
1251.744	175.61
1255.006	175.67
1258.268	171.87
1261.529	171.26
1264.79	167.97
1268.051	165.23
1271.312	162.94
1274.572	160.21
1277.832	156.54
1281.092	154.11
1284.351	151.63
1287.61	151.77
1290.869	151.22
1294.128	150.48
1297.386	149.93
1300.644	148.58
1303.902	148.67
1307.159	148.94
1310.416	148.95
1313.673	151.62
1316.93	151.55
1320.186	153.88
1323.442	154.98
1326.697	157.98
1329.953	158.85
1333.208	162.42
1336.463	168.82
1339.717	171.4
1342.972	177.15
1346.226	181.75
1349.479	182.31
1352.733	189.99
1355.986	192.5
1359.238	196.52
1362.491	198.35
1365.743	204.28
1368.995	206.6
1372.247	205.99
1375.498	205.36
1378.749	210.91
1382	209.25
1385.251	208.39
1388.501	206.57
1391.751	209.43
1395	208.25
1398.25	208.29
1401.499	208
1404.748	207.41
1407.996	200.79
1411.244	200.53
1414.492	197.27
1417.74	191.18
1420.987	187.65
1424.234	184.68
1427.481	178.12
1430.728	172.53
1433.974	166.7
1437.22	161.37
1440.465	155.6
1443.711	151.8
1446.956	147.57
1450.201	142.56
1453.445	137.24
1456.689	133.98
1459.933	129.82
1463.177	124.81
1466.42	122.32
1469.663	119.32
1472.906	116.1
1476.148	114.64
1479.391	112.37
1482.633	111.25
1485.874	109.64
1489.115	109.19
1492.356	106.55
1495.597	105.91
1498.838	105.84
1502.078	105.79
1505.318	105.83
1508.557	105.45
1511.797	104.02
1515.036	104.59
1518.274	103.69
1521.513	102.71
1524.751	102.82
1527.989	104.36
1531.227	103.9
1534.464	104.22
1537.701	103.1
1540.938	102.94
1544.174	103.17
1547.41	103.46
1550.646	103.18
1553.882	103.76
1557.117	103.88
1560.352	103.39
1563.587	101.98
1566.821	102.23
1570.055	102.14
1573.289	102.29
1576.523	102.33
1579.756	101.87
1582.989	102.18
1586.222	101.97
1589.454	102.31
1592.686	102.39
1595.918	102.26
1599.15	102.78
1602.381	102.8
1605.612	102.54
1608.843	102.33
1612.073	102.98
1615.303	103.11
1618.533	103
1621.762	103.96
1624.992	102.73
1628.221	102.5
1631.449	103.15
1634.678	102.69
1637.906	102.84
1641.134	102.65
1644.361	103.19
1647.588	102.53
1650.815	102.52
1654.042	102.99
1657.269	101.89
1660.495	102.91
1663.72	103.24
1666.946	103.14
1670.171	103.95
1673.396	104.75
1676.621	104.94
1679.845	105.48
1683.069	105.19
1686.293	105.3
1689.517	104.84
1692.74	105.16
1695.963	105.37
1699.185	105.33
1702.408	105.89
1705.63	105.54
1708.852	105.33
1712.073	105.3
1715.294	104.72
1718.515	106.14
1721.736	106.08
1724.956	106.51
1728.176	106.56
1731.396	106.29
1734.616	106.54
1737.835	106.17
1741.054	106.29
1744.272	105.81
1747.491	106.16
1750.709	106.65
1753.927	106.11
1757.144	105.8
1760.361	105.89
1763.578	106
1766.795	106.77
1770.011	106.69
1773.227	106.98
1776.443	107.92
1779.658	108.13
1782.874	108.48
1786.089	107.85
1789.303	108.16
1792.518	109.31
1795.732	109.54
1798.945	110.6
1802.159	110.79
1805.372	112.04
1808.585	112.68
1811.797	112.72
1815.01	113.51
1818.222	114.05
1821.434	115.62
1824.645	115.9
1827.856	117.02
1831.067	117.42
1834.278	118.99
1837.488	119.32
1840.698	120.13
1843.908	120.26
1847.117	121.69
1850.326	122.25
1853.535	122.06
1856.744	123
1859.952	123.96
1863.16	123.29
1866.368	122.78
1869.575	122.62
1872.782	121.34
1875.989	119.51
1879.196	118.89
1882.402	116.03
1885.608	116.56
1888.814	115.45
1892.019	114.91
1895.224	112.21
1898.429	112.6
1901.634	112.65
1904.838	110.36
1908.042	110.98
1911.246	110.22
1914.449	110.27
1917.652	110.81
1920.855	110.65
1924.058	109.67
1927.26	108.31
1930.462	109.91
1933.664	109.25
1936.865	109.06
1940.066	108.86
1943.267	107.69
1946.467	109.28
1949.668	108.53
1952.868	110.47
1956.067	109.67
1959.267	112.08
1962.466	112.45
1965.665	113.28
1968.863	114.29
1972.061	115.62
1975.259	118.13
1978.457	119.49
1981.654	120.3
1984.852	121.66
1988.048	122.1
1991.245	124.8
1994.441	127.26
1997.637	129.65
2000.833	132.86
2004.028	133.99
2007.223	137.52
2010.418	140.27
2013.613	145.33
2016.807	149.43
2020.001	151.68
2023.194	156.44
2026.388	161.09
2029.581	167.31
2032.774	172.05
2035.966	175.42
2039.158	181.43
2042.35	184
2045.542	185.99
2048.733	194.29
2051.924	195.56
2055.115	199.97
2058.306	200.89
2061.496	203.14
2064.686	204.1
2067.875	203.8
2071.065	207.34
2074.254	206.93
2077.442	213.71
2080.631	216.93
2083.819	217.44
2087.007	222.97
2090.195	226.48
2093.382	226.33
2096.569	227.16
2099.756	231.12
2102.942	236.39
2106.128	239.9
2109.314	241.71
2112.5	241.16
2115.685	239.83
2118.87	239.57
2122.055	242.22
2125.239	245.62
2128.424	253.26
2131.608	251.38
2134.791	249.08
2137.974	250.58
2141.157	252.46
2144.34	254.67
2147.523	258.87
2150.705	265.59
2153.887	263.35
2157.068	264.8
2160.25	268.3
2163.431	265.02
2166.611	271.65
2169.792	278.36
2172.972	282.45
2176.152	284.47
2179.331	290.55
2182.511	288.93
2185.69	292.43
2188.868	304.17
2192.047	308.37
2195.225	312.7
2198.403	318.25
2201.58	312.23
2204.758	323.55
2207.935	325.64
2211.111	327.77
2214.288	329.95
2217.464	336.84
2220.64	337.19
2223.815	335.6
2226.991	332.98
2230.166	335.28
2233.34	345.42
2236.515	353.79
2239.689	346.7
2242.863	349.51
2246.036	348.4
2249.209	356.67
2252.382	356.79
2255.555	368.43
2258.727	373.6
2261.9	379.98
2265.071	386.63
2268.243	384.05
2271.414	396.79
2274.585	406.72
2277.756	409.81
2280.926	422.26
2284.096	422.71
2287.266	422.13
2290.436	413.61
2293.605	423.04
2296.774	444.34
2299.942	439.53
2303.111	451.75
2306.279	455.46
2309.447	457.54
2312.614	456.46
2315.781	469.21
2318.948	476.39
2322.115	486.91
2325.281	511.1
2328.447	508.69
2331.613	511.07
2334.779	522.42
2337.944	526.65
2341.109	540.11
2344.274	543.41
2347.438	565.12
2350.602	571.97
2353.766	602.68
2356.929	605.13
2360.092	616.91
2363.255	616.93
2366.418	622.67
2369.58	633.84
2372.742	632.79
2375.904	632.14
2379.066	649.58
2382.227	684.77
2385.388	679.28
2388.548	649.43
2391.709	640.66
2394.869	660.03
2398.029	663.16
2401.188	665.81
2404.347	687.23
2407.506	712.2
2410.665	681.61
2413.823	684.88
2416.981	680.55
2420.139	649.9
2423.296	701.91
2426.453	749.18
2429.61	719.9
2432.767	763.57
2435.923	788.26
2439.079	758.58
2442.235	776.58
2445.391	800.16
2448.546	791.55
2451.701	836.13
2454.855	897.16
2458.009	789.77
2461.163	802.87
2464.317	801.42
2467.471	785.48
2470.624	804.62
2473.777	791.98
2476.929	761.85
2480.082	810.8
2483.234	848.85
2486.385	860.25
2489.537	880.3
2492.688	963.91
2495.839	957.29
2498.989	986.75
2502.14	993.41
2505.29	952.96
2508.439	1074.56
2511.589	1111.28
2514.738	1071.23
2517.887	1066.92
2521.035	992.62
2524.183	981.09
2527.331	975.45
2530.479	943.57
2533.627	965.23
