Data from N_1_div_wi_4n_029_Splice17_01.txt Node
Date: Sat Feb 29 13:45:13 EST 2020
User: sa697716
Spectrometer: FLMS03696
Trigger mode: 0
Integration Time (sec): 3.180400E-1
Scans to average: 20
Electric dark correction enabled: true
Nonlinearity correction enabled: true
Boxcar width: 5
XAxis mode: Wavelengths
Number of Pixels in Spectrum: 2048
>>>>>Begin Spectral Data<<<<<
187.83	42.89
188.298	49.47
188.766	41.21
189.233	34.79
189.701	45.72
190.169	34.87
190.636	38.54
191.104	21.09
191.571	82.07
192.039	112.42
192.506	372.58
192.974	5904.72
193.441	-634.92
193.908	88.08
194.375	30.5
194.842	100.7
195.31	12.36
195.777	-8.88
196.244	-1.2
196.711	19.18
197.177	21.3
197.644	21.6
198.111	21.65
198.578	21.38
199.045	21.85
199.511	22.72
199.978	23.46
200.445	23.38
200.911	23.59
201.378	23.38
201.844	23.61
202.31	23.97
202.777	23.8
203.243	24.31
203.709	25.12
204.176	24.81
204.642	24.78
205.108	24.28
205.574	24.77
206.04	24.42
206.506	24.69
206.972	24.35
207.438	23.77
207.903	23.85
208.369	23.18
208.835	22.51
209.301	22.74
209.766	22.23
210.232	22.15
210.697	21.87
211.163	21.87
211.628	21.34
212.094	21.23
212.559	21.08
213.024	20.76
213.49	20.54
213.955	20.38
214.42	19.66
214.885	19.14
215.35	18.48
215.815	17.39
216.28	16.51
216.745	16.1
217.21	15.21
217.675	14.4
218.14	13.63
218.604	12.97
219.069	12.42
219.534	12.03
219.998	11.68
220.463	11.41
220.927	11.14
221.392	10.9
221.856	10.56
222.32	10.37
222.785	10.19
223.249	10.06
223.713	9.93
224.177	9.76
224.642	9.6
225.106	9.48
225.57	9.32
226.034	9.22
226.497	9.1
226.961	9
227.425	8.87
227.889	8.78
228.353	8.65
228.816	8.56
229.28	8.44
229.744	8.36
230.207	8.26
230.671	8.17
231.134	8.09
231.597	8.01
232.061	7.94
232.524	7.88
232.987	7.81
233.45	7.75
233.914	7.68
234.377	7.64
234.84	7.59
235.303	7.52
235.766	7.47
236.229	7.4
236.691	7.37
237.154	7.31
237.617	7.26
238.08	7.19
238.542	7.12
239.005	7.08
239.468	7
239.93	6.96
240.393	6.92
240.855	6.86
241.317	6.82
241.78	6.79
242.242	6.74
242.704	6.69
243.166	6.67
243.629	6.64
244.091	6.6
244.553	6.6
245.015	6.57
245.477	6.52
245.939	6.5
246.4	6.46
246.862	6.42
247.324	6.41
247.786	6.39
248.247	6.37
248.709	6.34
249.17	6.31
249.632	6.28
250.093	6.25
250.555	6.23
251.016	6.22
251.477	6.21
251.939	6.19
252.4	6.17
252.861	6.15
253.322	6.13
253.783	6.12
254.244	6.11
254.705	6.09
255.166	6.09
255.627	6.09
256.088	6.07
256.549	6.05
257.009	6.04
257.47	6.03
257.931	6
258.391	5.98
258.852	5.97
259.312	5.97
259.773	5.96
260.233	5.94
260.694	5.92
261.154	5.91
261.614	5.91
262.074	5.91
262.534	5.9
262.994	5.9
263.455	5.91
263.915	5.9
264.374	5.89
264.834	5.9
265.294	5.89
265.754	5.88
266.214	5.89
266.673	5.89
267.133	5.88
267.593	5.89
268.052	5.88
268.512	5.88
268.971	5.89
269.431	5.89
269.89	5.89
270.349	5.9
270.809	5.9
271.268	5.9
271.727	5.9
272.186	5.9
272.645	5.9
273.104	5.9
273.563	5.9
274.022	5.9
274.481	5.9
274.94	5.9
275.399	5.9
275.857	5.9
276.316	5.89
276.775	5.89
277.233	5.88
277.692	5.87
278.15	5.86
278.609	5.86
279.067	5.85
279.525	5.84
279.984	5.83
280.442	5.83
280.9	5.82
281.358	5.82
281.816	5.8
282.274	5.8
282.732	5.8
283.19	5.8
283.648	5.79
284.106	5.79
284.564	5.79
285.021	5.79
285.479	5.79
285.937	5.79
286.394	5.78
286.852	5.78
287.309	5.78
287.767	5.77
288.224	5.76
288.682	5.76
289.139	5.76
289.596	5.75
290.053	5.73
290.511	5.73
290.968	5.72
291.425	5.72
291.882	5.72
292.339	5.71
292.796	5.7
293.252	5.7
293.709	5.7
294.166	5.7
294.623	5.69
295.079	5.69
295.536	5.68
295.992	5.67
296.449	5.67
296.905	5.65
297.362	5.65
297.818	5.65
298.274	5.64
298.731	5.64
299.187	5.64
299.643	5.64
300.099	5.64
300.555	5.63
301.011	5.63
301.467	5.62
301.923	5.64
302.379	5.63
302.835	5.62
303.291	5.62
303.746	5.61
304.202	5.6
304.658	5.59
305.113	5.59
305.569	5.59
306.024	5.59
306.479	5.59
306.935	5.58
307.39	5.59
307.845	5.59
308.301	5.59
308.756	5.6
309.211	5.6
309.666	5.6
310.121	5.6
310.576	5.6
311.031	5.6
311.486	5.6
311.94	5.6
312.395	5.61
312.85	5.61
313.305	5.6
313.759	5.6
314.214	5.6
314.668	5.59
315.123	5.59
315.577	5.59
316.032	5.6
316.486	5.59
316.94	5.59
317.394	5.56
317.849	5.56
318.303	5.56
318.757	5.56
319.211	5.55
319.665	5.55
320.119	5.55
320.572	5.55
321.026	5.54
321.48	5.53
321.934	5.53
322.387	5.53
322.841	5.53
323.295	5.53
323.748	5.54
324.202	5.54
324.655	5.52
325.108	5.51
325.562	5.51
326.015	5.51
326.468	5.5
326.921	5.49
327.374	5.49
327.827	5.49
328.28	5.47
328.733	5.47
329.186	5.46
329.639	5.47
330.092	5.46
330.545	5.46
330.997	5.47
331.45	5.47
331.903	5.46
332.355	5.46
332.808	5.46
333.26	5.46
333.713	5.46
334.165	5.46
334.617	5.46
335.069	5.47
335.522	5.46
335.974	5.46
336.426	5.45
336.878	5.46
337.33	5.46
337.782	5.46
338.234	5.47
338.686	5.47
339.137	5.47
339.589	5.46
340.041	5.46
340.493	5.46
340.944	5.45
341.396	5.45
341.847	5.44
342.299	5.43
342.75	5.42
343.201	5.41
343.653	5.41
344.104	5.4
344.555	5.39
345.006	5.38
345.457	5.38
345.908	5.39
346.359	5.39
346.81	5.39
347.261	5.38
347.712	5.37
348.163	5.37
348.613	5.36
349.064	5.34
349.515	5.34
349.965	5.34
350.416	5.33
350.866	5.32
351.317	5.32
351.767	5.31
352.217	5.32
352.668	5.31
353.118	5.31
353.568	5.31
354.018	5.32
354.468	5.32
354.918	5.33
355.368	5.33
355.818	5.32
356.268	5.33
356.718	5.34
357.168	5.34
357.617	5.34
358.067	5.34
358.517	5.35
358.966	5.35
359.416	5.35
359.865	5.35
360.315	5.35
360.764	5.35
361.213	5.34
361.663	5.33
362.112	5.33
362.561	5.34
363.01	5.35
363.459	5.34
363.908	5.35
364.357	5.36
364.806	5.35
365.255	5.36
365.703	5.36
366.152	5.37
366.601	5.39
367.05	5.38
367.498	5.38
367.947	5.38
368.395	5.39
368.844	5.38
369.292	5.38
369.74	5.39
370.189	5.39
370.637	5.4
371.085	5.42
371.533	5.41
371.981	5.42
372.429	5.43
372.877	5.44
373.325	5.44
373.773	5.46
374.221	5.47
374.669	5.48
375.116	5.48
375.564	5.48
376.012	5.48
376.459	5.5
376.907	5.51
377.354	5.52
377.801	5.54
378.249	5.56
378.696	5.57
379.143	5.57
379.591	5.59
380.038	5.62
380.485	5.65
380.932	5.67
381.379	5.68
381.826	5.7
382.273	5.72
382.72	5.75
383.166	5.76
383.613	5.8
384.06	5.83
384.506	5.86
384.953	5.89
385.4	5.92
385.846	5.96
386.292	6.02
386.739	6.07
387.185	6.14
387.631	6.2
388.078	6.25
388.524	6.27
388.97	6.31
389.416	6.35
389.862	6.42
390.308	6.51
390.754	6.6
391.2	6.7
391.645	6.79
392.091	6.85
392.537	6.93
392.983	7.04
393.428	7.23
393.874	7.44
394.319	7.69
394.765	7.92
395.21	8.16
395.655	8.42
396.101	8.69
396.546	8.99
396.991	9.35
397.436	9.71
397.881	10.1
398.326	10.46
398.771	10.81
399.216	11.14
399.661	11.47
400.106	11.77
400.551	12.04
400.995	12.28
401.44	12.48
401.885	12.69
402.329	12.93
402.774	13.15
403.218	13.42
403.663	13.69
404.107	14.01
404.551	14.32
404.995	14.61
405.44	14.9
405.884	15.2
406.328	15.56
406.772	15.96
407.216	16.38
407.66	16.79
408.104	17.15
408.547	17.48
408.991	17.77
409.435	18.08
409.879	18.43
410.322	18.83
410.766	19.26
411.209	19.66
411.653	20.04
412.096	20.34
412.54	20.62
412.983	20.94
413.426	21.27
413.869	21.61
414.312	21.97
414.756	22.32
415.199	22.61
415.642	22.88
416.085	23.12
416.527	23.32
416.97	23.47
417.413	23.55
417.856	23.56
418.298	23.56
418.741	23.6
419.184	23.65
419.626	23.71
420.069	23.84
420.511	23.95
420.953	24.05
421.396	24.19
421.838	24.43
422.28	24.77
422.722	25.08
423.164	25.39
423.606	25.68
424.048	25.89
424.49	26
424.932	25.91
425.374	25.65
425.816	25.23
426.258	24.76
426.699	24.4
427.141	24.28
427.582	24.45
428.024	24.78
428.465	25.11
428.907	25.44
429.348	25.77
429.789	26.19
430.231	26.85
430.672	27.83
431.113	28.96
431.554	30.1
431.995	31.01
432.436	31.66
432.877	32.09
433.318	32.46
433.759	32.87
434.2	33.35
434.64	33.97
435.081	34.61
435.522	35.14
435.962	35.59
436.403	35.93
436.843	36.23
437.284	36.55
437.724	36.94
438.164	37.41
438.604	37.93
439.045	38.51
439.485	39.02
439.925	39.42
440.365	39.78
440.805	40.01
441.245	40.23
441.685	40.45
442.125	40.69
442.564	41.02
443.004	41.37
443.444	41.76
443.883	42.17
444.323	42.6
444.762	43.04
445.202	43.57
445.641	44.13
446.081	44.82
446.52	45.51
446.959	46.19
447.398	46.7
447.837	47.07
448.276	47.23
448.716	47.36
449.154	47.47
449.593	47.58
450.032	47.59
450.471	47.59
450.91	47.47
451.349	47.31
451.787	47.2
452.226	47.15
452.664	47.1
453.103	47.11
453.541	47.11
453.98	47.03
454.418	46.89
454.856	46.71
455.295	46.55
455.733	46.4
456.171	46.29
456.609	46.19
457.047	46.1
457.485	46.1
457.923	46.17
458.361	46.25
458.798	46.42
459.236	46.59
459.674	46.77
460.111	46.9
460.549	47.05
460.987	47.21
461.424	47.4
461.862	47.6
462.299	47.74
462.736	47.88
463.173	48.09
463.611	48.37
464.048	48.72
464.485	49.14
464.922	49.64
465.359	50.12
465.796	50.58
466.233	50.98
466.67	51.47
467.106	52.06
467.543	52.72
467.98	53.41
468.416	53.98
468.853	54.48
469.29	54.99
469.726	55.46
470.162	55.99
470.599	56.57
471.035	57.09
471.471	57.42
471.907	57.65
472.344	57.79
472.78	57.9
473.216	58.07
473.652	58.25
474.088	58.36
474.523	58.45
474.959	58.48
475.395	58.49
475.831	58.49
476.266	58.53
476.702	58.56
477.138	58.58
477.573	58.53
478.008	58.4
478.444	58.19
478.879	57.94
479.314	57.64
479.75	57.29
480.185	56.86
480.62	56.31
481.055	55.54
481.49	54.48
481.925	53.29
482.36	52.17
482.795	51.22
483.229	50.5
483.664	49.95
484.099	49.46
484.534	49.03
484.968	48.7
485.403	48.58
485.837	48.69
486.271	49.05
486.706	49.45
487.14	49.77
487.574	49.89
488.009	49.89
488.443	49.87
488.877	49.82
489.311	49.81
489.745	49.81
490.179	49.82
490.613	49.84
491.046	49.83
491.48	49.9
491.914	50.06
492.348	50.32
492.781	50.54
493.215	50.71
493.648	50.84
494.082	50.91
494.515	50.95
494.948	50.96
495.382	50.96
495.815	50.94
496.248	50.86
496.681	50.73
497.114	50.59
497.547	50.46
497.98	50.42
498.413	50.5
498.846	50.66
499.279	50.8
499.711	50.86
500.144	50.95
500.577	51.16
501.009	51.53
501.442	52.01
501.874	52.52
502.306	53.01
502.739	53.39
503.171	53.69
503.603	53.93
504.036	54.2
504.468	54.63
504.9	55.02
505.332	55.37
505.764	55.63
506.196	55.84
506.627	56.07
507.059	56.39
507.491	56.76
507.923	57.15
508.354	57.51
508.786	57.83
509.217	58.02
509.649	58.2
510.08	58.39
510.512	58.58
510.943	58.83
511.374	59.03
511.805	59.07
512.237	58.89
512.668	58.61
513.099	58.41
513.53	58.26
513.961	58.16
514.391	58.14
514.822	58.26
515.253	58.48
515.684	58.71
516.114	59
516.545	59.45
516.975	60.2
517.406	61.07
517.836	61.92
518.267	62.7
518.697	63.5
519.127	64.29
519.558	64.98
519.988	65.65
520.418	66.26
520.848	66.83
521.278	67.32
521.708	67.46
522.138	67.5
522.567	67.47
522.997	67.54
523.427	67.69
523.857	67.88
524.286	68.14
524.716	68.42
525.145	68.67
525.575	68.91
526.004	69.22
526.433	69.83
526.863	70.53
527.292	71.3
527.721	71.84
528.15	72.16
528.579	72.33
529.008	72.36
529.437	72.32
529.866	72.31
530.295	72.34
530.724	72.41
531.152	72.45
531.581	72.5
532.01	72.47
532.438	72.52
532.867	72.65
533.295	72.83
533.723	73.05
534.152	73.21
534.58	73.31
535.008	73.28
535.436	73.11
535.865	72.86
536.293	72.55
536.721	72.37
537.149	72.3
537.576	72.34
538.004	72.37
538.432	72.36
538.86	72.35
539.287	72.44
539.715	72.65
540.143	72.98
540.57	73.34
540.998	73.8
541.425	74.22
541.852	74.62
542.28	74.91
542.707	75.21
543.134	75.48
543.561	75.71
543.988	75.95
544.415	76.21
544.842	76.42
545.269	76.7
545.696	76.93
546.123	77.14
546.549	77.34
546.976	77.57
547.403	77.81
547.829	78.1
548.256	78.36
548.682	78.53
549.108	78.68
549.535	78.86
549.961	79.01
550.387	79.17
550.813	79.34
551.24	79.51
551.666	79.63
552.092	79.64
552.518	79.59
552.943	79.58
553.369	79.57
553.795	79.48
554.221	79.28
554.646	78.95
555.072	78.59
555.498	78.2
555.923	77.86
556.349	77.58
556.774	77.4
557.199	77.23
557.625	77.03
558.05	76.79
558.475	76.61
558.9	76.5
559.325	76.46
559.75	76.39
560.175	76.31
560.6	76.13
561.025	75.83
561.449	75.4
561.874	74.98
562.299	74.59
562.723	74.29
563.148	73.99
563.572	73.63
563.997	73.22
564.421	72.78
564.846	72.32
565.27	71.91
565.694	71.5
566.118	71.1
566.542	70.69
566.966	70.26
567.39	69.81
567.814	69.4
568.238	69.06
568.662	68.82
569.086	68.62
569.509	68.45
569.933	68.27
570.357	68.1
570.78	67.94
571.204	67.79
571.627	67.66
572.05	67.55
572.474	67.39
572.897	67.19
573.32	66.94
573.743	66.67
574.166	66.36
574.589	66.08
575.012	65.9
575.435	65.75
575.858	65.7
576.281	65.63
576.704	65.55
577.126	65.53
577.549	65.52
577.972	65.56
578.394	65.64
578.817	65.76
579.239	65.87
579.661	65.94
580.084	66.05
580.506	66.04
580.928	66.02
581.35	65.94
581.772	65.8
582.194	65.67
582.616	65.51
583.038	65.38
583.46	65.24
583.882	65
584.303	64.64
584.725	64.1
585.147	63.52
585.568	63.01
585.99	62.67
586.411	62.4
586.833	62.16
587.254	61.92
587.675	61.68
588.096	61.48
588.518	61.34
588.939	61.35
589.36	61.51
589.781	61.73
590.202	61.92
590.623	61.94
591.043	61.92
591.464	61.84
591.885	61.76
592.305	61.69
592.726	61.56
593.147	61.47
593.567	61.27
593.987	61.1
594.408	60.93
594.828	60.77
595.248	60.64
595.669	60.47
596.089	60.25
596.509	60
596.929	59.7
597.349	59.39
597.769	59.08
598.189	58.85
598.608	58.62
599.028	58.42
599.448	58.26
599.867	58.12
600.287	57.97
600.706	57.84
601.126	57.7
601.545	57.59
601.965	57.49
602.384	57.4
602.803	57.28
603.222	57.16
603.641	56.98
604.061	56.75
604.48	56.48
604.898	56.2
605.317	55.92
605.736	55.66
606.155	55.37
606.574	55.09
606.992	54.8
607.411	54.52
607.829	54.2
608.248	53.92
608.666	53.64
609.085	53.35
609.503	53.06
609.921	52.79
610.339	52.53
610.758	52.32
611.176	52.07
611.594	51.77
612.012	51.47
612.43	51.17
612.847	50.87
613.265	50.64
613.683	50.46
614.101	50.31
614.518	50.18
614.936	50.04
615.353	49.91
615.771	49.82
616.188	49.79
616.606	49.78
617.023	49.76
617.44	49.71
617.857	49.59
618.274	49.44
618.691	49.27
619.108	49.07
619.525	48.87
619.942	48.64
620.359	48.38
620.776	48.09
621.192	47.79
621.609	47.52
622.026	47.29
622.442	47.11
622.859	46.91
623.275	46.72
623.691	46.51
624.108	46.31
624.524	46.12
624.94	45.94
625.356	45.75
625.772	45.61
626.188	45.47
626.604	45.29
627.02	45.12
627.436	44.96
627.852	44.84
628.268	44.77
628.683	44.72
629.099	44.69
629.514	44.64
629.93	44.61
630.345	44.6
630.761	44.6
631.176	44.6
631.591	44.57
632.007	44.56
632.422	44.55
632.837	44.54
633.252	44.52
633.667	44.49
634.082	44.5
634.497	44.5
634.911	44.44
635.326	44.35
635.741	44.27
636.155	44.19
636.57	44.09
636.984	43.93
637.399	43.78
637.813	43.62
638.228	43.45
638.642	43.28
639.056	43.12
639.47	42.98
639.884	42.87
640.298	42.75
640.712	42.63
641.126	42.52
641.54	42.43
641.954	42.32
642.368	42.2
642.781	42.06
643.195	41.9
643.609	41.75
644.022	41.6
644.436	41.43
644.849	41.25
645.262	41.06
645.676	40.83
646.089	40.68
646.502	40.57
646.915	40.47
647.328	40.37
647.741	40.27
648.154	40.21
648.567	40.14
648.98	40.07
649.393	40.03
649.805	40
650.218	39.99
650.631	39.91
651.043	39.71
651.456	39.34
651.868	38.88
652.28	38.35
652.693	37.84
653.105	37.44
653.517	37.12
653.929	36.9
654.341	36.73
654.753	36.59
655.165	36.47
655.577	36.43
655.989	36.56
656.401	36.81
656.813	37.15
657.224	37.45
657.636	37.64
658.047	37.78
658.459	37.81
658.87	37.78
659.282	37.72
659.693	37.64
660.104	37.57
660.515	37.45
660.926	37.34
661.338	37.22
661.749	37.06
662.159	36.9
662.57	36.72
662.981	36.53
663.392	36.36
663.803	36.18
664.213	36.03
664.624	35.88
665.035	35.74
665.445	35.6
665.855	35.43
666.266	35.26
666.676	35.09
667.086	34.93
667.497	34.78
667.907	34.61
668.317	34.46
668.727	34.32
669.137	34.16
669.547	34.03
669.956	33.87
670.366	33.75
670.776	33.63
671.186	33.53
671.595	33.42
672.005	33.33
672.414	33.24
672.824	33.18
673.233	33.12
673.642	33.04
674.052	32.98
674.461	32.92
674.87	32.86
675.279	32.83
675.688	32.77
676.097	32.74
676.506	32.7
676.915	32.68
677.323	32.63
677.732	32.61
678.141	32.58
678.549	32.56
678.958	32.56
679.366	32.54
679.775	32.52
680.183	32.52
680.592	32.52
681	32.51
681.408	32.49
681.816	32.43
682.224	32.23
682.632	31.92
683.04	31.46
683.448	30.99
683.856	30.58
684.264	30.22
684.671	29.88
685.079	29.56
685.487	29.3
685.894	29.07
686.302	28.95
686.709	29
687.116	29.24
687.524	29.68
687.931	30.18
688.338	30.67
688.745	31.16
689.152	31.66
689.559	32.14
689.966	32.58
690.373	33.07
690.78	33.5
691.187	33.94
691.593	34.35
692	34.75
692.407	35.17
692.813	35.57
693.22	35.92
693.626	36.3
694.032	36.67
694.439	37.08
694.845	37.42
695.251	37.78
695.657	38.11
696.063	38.41
696.469	38.71
696.875	38.94
697.281	39.18
697.687	39.45
698.093	39.68
698.498	39.96
698.904	40.21
699.31	40.51
699.715	40.82
700.12	41.12
700.526	41.49
700.931	41.83
701.337	42.22
701.742	42.57
702.147	42.91
702.552	43.3
702.957	43.63
703.362	43.99
703.767	44.32
704.172	44.65
704.577	44.97
704.981	45.26
705.386	45.56
705.791	45.84
706.195	46.13
706.6	46.42
707.004	46.67
707.408	46.94
707.813	47.17
708.217	47.39
708.621	47.59
709.025	47.81
709.43	48.03
709.834	48.24
710.237	48.43
710.641	48.63
711.045	48.79
711.449	48.98
711.853	49.15
712.256	49.29
712.66	49.33
713.064	49.32
713.467	49.25
713.87	49.12
714.274	48.94
714.677	48.7
715.08	48.45
715.484	48.23
715.887	47.99
716.29	47.8
716.693	47.71
717.096	47.82
717.499	48.03
717.901	48.32
718.304	48.67
718.707	49.06
719.109	49.49
719.512	49.87
719.915	50.23
720.317	50.56
720.719	50.84
721.122	51.08
721.524	51.21
721.926	51.3
722.328	51.35
722.731	51.38
723.133	51.41
723.535	51.48
723.937	51.59
724.338	51.67
724.74	51.75
725.142	51.81
725.544	51.87
725.945	52
726.347	52.1
726.748	52.21
727.15	52.29
727.551	52.45
727.952	52.59
728.354	52.81
728.755	53.05
729.156	53.31
729.557	53.64
729.958	53.95
730.359	54.19
730.76	54.4
731.161	54.61
731.562	54.82
731.962	54.96
732.363	55.07
732.763	55.17
733.164	55.24
733.564	55.33
733.965	55.33
734.365	55.32
734.766	55.27
735.166	55.2
735.566	55.14
735.966	55.09
736.366	55.02
736.766	55
737.166	54.94
737.566	54.88
737.966	54.78
738.365	54.76
738.765	54.75
739.165	54.78
739.564	54.84
739.964	54.9
740.363	54.94
740.763	54.98
741.162	54.99
741.561	55.06
741.96	55.13
742.36	55.18
742.759	55.22
743.158	55.19
743.557	55.18
743.955	55.2
744.354	55.19
744.753	55.18
745.152	55.13
745.55	55.13
745.949	55.06
746.348	55
746.746	54.95
747.144	54.9
747.543	54.9
747.941	54.89
748.339	54.85
748.737	54.81
749.136	54.82
749.534	54.84
749.932	54.82
750.33	54.81
750.727	54.79
751.125	54.82
751.523	54.82
751.921	54.81
752.318	54.77
752.716	54.71
753.113	54.67
753.511	54.61
753.908	54.56
754.305	54.43
754.703	54.16
755.1	53.58
755.497	52.54
755.894	51.01
756.291	49.12
756.688	47.12
757.085	45.18
757.482	43.38
757.878	41.73
758.275	40.09
758.672	38.47
759.068	36.98
759.465	35.82
759.861	35.21
760.258	35.18
760.654	35.67
761.05	36.44
761.447	37.28
761.843	38.09
762.239	38.89
762.635	39.83
763.031	40.98
763.427	42.23
763.822	43.57
764.218	44.88
764.614	46.18
765.01	47.36
765.405	48.41
765.801	49.39
766.196	50.3
766.592	51.07
766.987	51.72
767.382	52.2
767.778	52.6
768.173	52.9
768.568	53.14
768.963	53.28
769.358	53.41
769.753	53.6
770.148	53.7
770.542	53.69
770.937	53.71
771.332	53.73
771.726	53.72
772.121	53.74
772.515	53.75
772.91	53.74
773.304	53.71
773.699	53.68
774.093	53.6
774.487	53.54
774.881	53.55
775.275	53.49
775.669	53.43
776.063	53.34
776.457	53.23
776.851	53.12
777.245	53.06
777.638	52.99
778.032	52.95
778.425	52.9
778.819	52.82
779.212	52.69
779.606	52.59
779.999	52.46
780.392	52.39
780.786	52.32
781.179	52.27
781.572	52.14
781.965	52.05
782.358	51.9
782.751	51.78
783.143	51.68
783.536	51.63
783.929	51.55
784.322	51.47
784.714	51.36
785.107	51.21
785.499	51.05
785.891	50.92
786.284	50.76
786.676	50.62
787.068	50.45
787.46	50.27
787.852	50.08
788.245	49.88
788.636	49.71
789.028	49.52
789.42	49.32
789.812	49.12
790.204	48.89
790.595	48.73
790.987	48.56
791.378	48.4
791.77	48.29
792.161	48.14
792.553	48.01
792.944	47.92
793.335	47.84
793.726	47.76
794.117	47.69
794.508	47.63
794.899	47.54
795.29	47.42
795.681	47.3
796.072	47.14
796.463	47
796.853	46.85
797.244	46.67
797.634	46.45
798.025	46.27
798.415	46.09
798.806	45.94
799.196	45.73
799.586	45.57
799.976	45.39
800.366	45.17
800.756	45
801.146	44.83
801.536	44.63
801.926	44.49
802.316	44.36
802.706	44.21
803.095	44.07
803.485	43.93
803.874	43.75
804.264	43.62
804.653	43.47
805.043	43.28
805.432	43.06
805.821	42.85
806.21	42.66
806.599	42.48
806.988	42.27
807.377	42.04
807.766	41.84
808.155	41.66
808.544	41.41
808.933	41.22
809.321	40.98
809.71	40.77
810.098	40.49
810.487	40.18
810.875	39.82
811.264	39.48
811.652	39.13
812.04	38.74
812.428	38.34
812.816	38.03
813.204	37.68
813.592	37.37
813.98	37.06
814.368	36.78
814.756	36.55
815.144	36.36
815.531	36.14
815.919	35.97
816.306	35.88
816.694	35.84
817.081	35.73
817.469	35.67
817.856	35.58
818.243	35.45
818.63	35.32
819.017	35.14
819.404	34.96
819.791	34.86
820.178	34.76
820.565	34.62
820.952	34.46
821.339	34.33
821.725	34.2
822.112	34.12
822.498	34.08
822.885	34.05
823.271	34.02
823.657	33.99
824.044	33.87
824.43	33.78
824.816	33.65
825.202	33.51
825.588	33.38
825.974	33.25
826.36	33.1
826.746	32.96
827.132	32.83
827.517	32.69
827.903	32.58
828.289	32.48
828.674	32.36
829.06	32.28
829.445	32.2
829.83	32.1
830.216	32
830.601	31.94
830.986	31.85
831.371	31.79
831.756	31.72
832.141	31.66
832.526	31.59
832.911	31.56
833.295	31.49
833.68	31.43
834.065	31.38
834.449	31.3
834.834	31.21
835.218	31.15
835.603	31.07
835.987	31.03
836.371	30.96
836.755	30.91
837.139	30.83
837.524	30.79
837.908	30.71
838.291	30.66
838.675	30.62
839.059	30.57
839.443	30.52
839.827	30.47
840.21	30.4
840.594	30.33
840.977	30.26
841.361	30.22
841.744	30.16
842.127	30.12
842.511	30.03
842.894	29.98
843.277	29.91
843.66	29.87
844.043	29.81
844.426	29.76
844.809	29.7
845.191	29.63
845.574	29.53
845.957	29.4
846.339	29.3
846.722	29.22
847.104	29.14
847.487	29.09
847.869	28.99
848.252	28.93
848.634	28.85
849.016	28.79
849.398	28.69
849.78	28.58
850.162	28.51
850.544	28.45
850.926	28.35
851.307	28.27
851.689	28.18
852.071	28.12
852.452	28.05
852.834	27.98
853.215	27.93
853.597	27.94
853.978	27.96
854.359	27.96
854.741	27.98
855.122	28
855.503	28.02
855.884	28.01
856.265	28
856.646	27.96
857.026	27.95
857.407	27.91
857.788	27.89
858.169	27.85
858.549	27.84
858.93	27.8
859.31	27.75
859.69	27.68
860.071	27.64
860.451	27.61
860.831	27.59
861.211	27.54
861.591	27.47
861.971	27.35
862.351	27.29
862.731	27.21
863.111	27.11
863.491	27.05
863.87	27
864.25	26.95
864.629	26.86
865.009	26.8
865.388	26.74
865.768	26.72
866.147	26.75
866.526	26.74
866.905	26.73
867.284	26.75
867.663	26.74
868.042	26.74
868.421	26.72
868.8	26.73
869.179	26.72
869.558	26.72
869.936	26.68
870.315	26.64
870.693	26.61
871.072	26.57
871.45	26.53
871.828	26.49
872.207	26.46
872.585	26.45
872.963	26.42
873.341	26.41
873.719	26.39
874.097	26.39
874.475	26.38
874.853	26.36
875.23	26.33
875.608	26.31
875.986	26.28
876.363	26.25
876.741	26.21
877.118	26.18
877.495	26.14
877.873	26.11
878.25	26.08
878.627	26.06
879.004	26.05
879.381	26.03
879.758	25.99
880.135	26.01
880.512	26
880.889	25.99
881.265	25.98
881.642	25.96
882.019	25.94
882.395	25.91
882.772	25.89
883.148	25.84
883.524	25.83
883.901	25.82
884.277	25.78
884.653	25.76
885.029	25.74
885.405	25.71
885.781	25.66
886.157	25.64
886.532	25.64
886.908	25.65
887.284	25.64
887.659	25.61
888.035	25.59
888.411	25.57
888.786	25.53
889.161	25.5
889.537	25.48
889.912	25.48
890.287	25.45
890.662	25.41
891.037	25.33
891.412	25.29
891.787	25.26
892.162	25.21
892.536	25.18
892.911	25.12
893.286	25.06
893.66	25
894.035	24.92
894.409	24.85
894.784	24.78
895.158	24.73
895.532	24.65
895.906	24.58
896.281	24.52
896.655	24.45
897.029	24.38
897.402	24.34
897.776	24.3
898.15	24.26
898.524	24.22
898.898	24.19
899.271	24.16
899.645	24.15
900.018	24.12
900.392	24.11
900.765	24.12
901.138	24.15
901.511	24.16
901.884	24.19
902.258	24.2
902.631	24.23
903.003	24.26
903.376	24.27
903.749	24.28
904.122	24.29
904.495	24.29
904.867	24.24
905.24	24.21
905.612	24.17
905.985	24.13
906.357	24.08
906.729	24.04
907.102	23.99
907.474	23.97
907.846	23.95
908.218	23.9
908.59	23.86
908.962	23.85
909.334	23.83
909.705	23.81
910.077	23.78
910.449	23.78
910.82	23.77
911.192	23.75
911.563	23.72
911.935	23.69
912.306	23.68
912.677	23.7
913.048	23.7
913.419	23.69
913.79	23.65
914.161	23.65
914.532	23.65
914.903	23.64
915.274	23.62
915.645	23.63
916.015	23.67
916.386	23.66
916.756	23.64
917.127	23.65
917.497	23.69
917.868	23.73
918.238	23.75
918.608	23.75
918.978	23.75
919.348	23.74
919.718	23.72
920.088	23.68
920.458	23.71
920.828	23.71
921.198	23.68
921.567	23.63
921.937	23.65
922.306	23.64
922.676	23.61
923.045	23.57
923.415	23.55
923.784	23.55
924.153	23.54
924.522	23.53
924.891	23.49
925.26	23.45
925.629	23.45
925.998	23.37
926.367	23.32
926.736	23.28
927.104	23.27
927.473	23.24
927.842	23.17
928.21	23.08
928.578	22.96
928.947	22.89
929.315	22.8
929.683	22.72
930.051	22.64
930.42	22.52
930.788	22.42
931.156	22.34
931.523	22.23
931.891	22.14
932.259	22.08
932.627	22.03
932.994	21.97
933.362	21.91
933.729	21.82
934.097	21.77
934.464	21.77
934.831	21.8
935.199	21.82
935.566	21.84
935.933	21.91
936.3	21.9
936.667	21.95
937.034	22.02
937.401	22.09
937.767	22.2
938.134	22.22
938.501	22.28
938.867	22.36
939.234	22.4
939.6	22.44
939.967	22.45
940.333	22.53
940.699	22.61
941.065	22.61
941.431	22.63
941.798	22.66
942.163	22.73
942.529	22.73
942.895	22.65
943.261	22.62
943.627	22.65
943.992	22.68
944.358	22.72
944.723	22.67
945.089	22.7
945.454	22.71
945.82	22.69
946.185	22.72
946.55	22.74
946.915	22.75
947.28	22.69
947.645	22.68
948.01	22.68
948.375	22.62
948.74	22.59
949.104	22.61
949.469	22.54
949.834	22.51
950.198	22.51
950.562	22.53
950.927	22.5
951.291	22.51
951.655	22.46
952.02	22.37
952.384	22.42
952.748	22.41
953.112	22.37
953.476	22.4
953.839	22.41
954.203	22.34
954.567	22.26
954.931	22.23
955.294	22.24
955.658	22.24
956.021	22.26
956.385	22.26
956.748	22.23
957.111	22.16
957.474	22.12
957.837	22.13
958.2	22.1
958.563	22.15
958.926	22.15
959.289	22.15
959.652	22.16
960.015	22.16
960.377	22.08
960.74	22.08
961.102	22.08
961.465	22.09
961.827	21.95
962.189	21.97
962.552	21.95
962.914	21.88
963.276	21.82
963.638	21.81
964	21.81
964.362	21.84
964.724	21.85
965.085	21.86
965.447	21.9
965.809	21.96
966.17	22.02
966.532	22.01
966.893	22.17
967.255	22.18
967.616	22.2
967.977	22.24
968.338	22.22
968.699	22.21
969.061	22.19
969.421	22.2
969.782	22.2
970.143	22.15
970.504	22.13
970.865	22.08
971.225	22.08
971.586	22.03
971.946	21.99
972.307	22.03
972.667	22.03
973.027	22.08
973.388	22.09
973.748	22.13
974.108	22.15
974.468	22.16
974.828	22.13
975.188	22.16
975.548	22.21
975.907	22.17
976.267	22.19
976.627	22.23
976.986	22.23
977.346	22.19
977.705	22.21
978.064	22.18
978.424	22.25
978.783	22.31
979.142	22.3
979.501	22.31
979.86	22.37
980.219	22.29
980.578	22.28
980.937	22.29
981.296	22.28
981.654	22.3
982.013	22.41
982.371	22.37
982.73	22.37
983.088	22.37
983.447	22.36
983.805	22.35
984.163	22.36
984.521	22.31
984.879	22.36
985.237	22.43
985.595	22.46
985.953	22.39
986.311	22.37
986.669	22.34
987.026	22.31
987.384	22.28
987.741	22.34
988.099	22.34
988.456	22.4
988.814	22.38
989.171	22.41
989.528	22.36
989.885	22.33
990.242	22.4
990.599	22.37
990.956	22.48
991.313	22.45
991.67	22.45
992.027	22.47
992.383	22.49
992.74	22.42
993.096	22.35
993.453	22.37
993.809	22.43
994.165	22.41
994.522	22.42
994.878	22.36
995.234	22.4
995.59	22.3
995.946	22.34
996.302	22.26
996.658	22.42
997.013	22.43
997.369	22.36
997.725	22.39
998.08	22.37
998.436	22.41
998.791	22.41
999.147	22.41
999.502	22.45
999.857	22.43
1000.212	22.41
1000.567	22.22
1000.922	22.15
1001.277	22.12
1001.632	22.08
1001.987	21.91
1002.342	21.85
1002.696	21.84
1003.051	21.73
1003.406	21.75
1003.76	21.74
1004.114	21.82
1004.469	21.88
1004.823	21.98
1005.177	22.16
1005.531	22.14
1005.885	22.28
1006.239	22.34
1006.593	22.27
1006.947	22.5
1007.301	22.6
1007.655	22.68
1008.008	22.72
1008.362	22.73
1008.715	22.75
1009.069	22.66
1009.422	22.63
1009.776	22.7
1010.129	22.58
1010.482	22.72
1010.835	22.86
1011.188	22.81
1011.541	22.57
1011.894	22.41
1012.247	22.43
1012.6	22.39
1012.952	22.55
1013.305	22.51
1013.657	22.69
1014.01	23.03
1014.362	23.09
1014.715	22.91
1015.067	23.02
1015.419	23.44
1015.771	23.82
1016.123	23.72
1016.475	23.76
1016.827	23.48
1017.179	23.68
1017.531	23.41
1017.883	23.4
1018.234	23.47
1018.586	23.48
1018.938	23.26
1019.289	22.74
1019.64	22.81
1019.992	22.97
1020.343	23.03
1020.694	23.12
1021.045	22.99
1021.396	23.26
1021.747	23.14
1022.098	23.1
1022.449	22.91
1022.8	22.87
1023.151	23.33
1023.501	23.05
1023.852	23.32
1024.202	23.57
1024.553	23.81
1024.903	24.05
1025.253	24.06
1025.604	24.29
1025.954	24.07
1026.304	24.65
1026.654	25.09
1027.004	25.16
1027.354	25.39
1027.703	25.39
1028.053	24.99
1028.403	24.92
1028.753	24.58
1029.102	24.48
1029.452	24.33
1029.801	24.61
1030.15	24.4
1030.499	24.25
897.758	498.82
901.051	504.94
904.343	509.32
907.636	502.53
910.928	496.6
914.22	504.56
917.511	493.23
920.803	470.22
924.094	453.67
927.384	459.83
930.675	445.69
933.965	441.48
937.255	441.48
940.544	423.2
943.834	404.13
947.123	395.99
950.411	375.92
953.7	370.63
956.988	360.37
960.276	343.26
963.563	340.19
966.851	322.01
970.138	316.65
973.424	295.77
976.711	293.99
979.997	282.45
983.283	277.77
986.568	269.23
989.853	261.03
993.138	252.43
996.423	250.93
999.708	241.68
1002.992	243.52
1006.275	237.36
1009.559	234.95
1012.842	227.71
1016.125	222.37
1019.408	217.64
1022.69	216.3
1025.972	215.71
1029.254	209.46
1032.536	204.71
1035.817	198.58
1039.098	196.03
1042.379	192.74
1045.659	190.67
1048.939	189.25
1052.219	187.24
1055.498	183.84
1058.778	180.71
1062.057	176.75
1065.335	177.46
1068.614	174.37
1071.892	173.19
1075.17	169.76
1078.447	167.14
1081.724	166.08
1085.001	162.45
1088.278	161.87
1091.554	162.01
1094.83	160.47
1098.106	157.84
1101.382	156.4
1104.657	156.04
1107.932	155.2
1111.206	155.18
1114.481	153.63
1117.755	152.54
1121.029	152.26
1124.302	149.73
1127.575	146.97
1130.848	146.98
1134.121	145.72
1137.393	145.55
1140.665	144.89
1143.937	143.14
1147.208	141.22
1150.48	140.25
1153.75	139.47
1157.021	138.3
1160.291	138.05
1163.561	137.77
1166.831	137.03
1170.101	137.57
1173.37	135.78
1176.639	134.27
1179.907	134.41
1183.176	133.72
1186.444	133.55
1189.711	132.96
1192.979	133.93
1196.246	134.16
1199.513	133.33
1202.78	132.66
1206.046	132.16
1209.312	133.78
1212.578	134.4
1215.843	135.79
1219.108	136.2
1222.373	138.77
1225.638	140.02
1228.902	142.5
1232.166	146.77
1235.43	148.91
1238.693	153.22
1241.956	155.49
1245.219	158.87
1248.482	160.14
1251.744	160.08
1255.006	161.6
1258.268	157.03
1261.529	156.5
1264.79	152.04
1268.051	148.95
1271.312	148.38
1274.572	144.74
1277.832	142.5
1281.092	140.79
1284.351	138.49
1287.61	138.3
1290.869	136.6
1294.128	136.6
1297.386	136.46
1300.644	136.43
1303.902	134.51
1307.159	134.34
1310.416	135.09
1313.673	136.78
1316.93	137.15
1320.186	138.95
1323.442	140.32
1326.697	143.59
1329.953	143.39
1333.208	146.64
1336.463	151.61
1339.717	155.32
1342.972	160.88
1346.226	164.86
1349.479	166.57
1352.733	173.66
1355.986	177.33
1359.238	180.4
1362.491	181.07
1365.743	189.02
1368.995	190.67
1372.247	191.49
1375.498	190.69
1378.749	196.81
1382	194.74
1385.251	194.08
1388.501	192.04
1391.751	193.86
1395	191.17
1398.25	192.73
1401.499	190.99
1404.748	189.95
1407.996	184.9
1411.244	184.84
1414.492	181.12
1417.74	176.15
1420.987	171.56
1424.234	167.6
1427.481	161.37
1430.728	158.7
1433.974	152.46
1437.22	147.66
1440.465	143.11
1443.711	138.08
1446.956	134.07
1450.201	128.92
1453.445	124.15
1456.689	121.13
1459.933	117.59
1463.177	111.82
1466.42	109.06
1469.663	106.29
1472.906	102.87
1476.148	101.04
1479.391	99.1
1482.633	97.79
1485.874	96.03
1489.115	95.82
1492.356	93.19
1495.597	92.33
1498.838	93.21
1502.078	92.72
1505.318	92.69
1508.557	92.35
1511.797	90.6
1515.036	90.95
1518.274	90.35
1521.513	89.67
1524.751	88.83
1527.989	90.23
1531.227	89.68
1534.464	89.22
1537.701	88.9
1540.938	88.4
1544.174	88.6
1547.41	89.22
1550.646	88.73
1553.882	88.74
1557.117	88.79
1560.352	89.51
1563.587	87.97
1566.821	88.04
1570.055	87.54
1573.289	87.63
1576.523	87.79
1579.756	86.98
1582.989	87.19
1586.222	87.34
1589.454	87.14
1592.686	87.13
1595.918	86.29
1599.15	86.95
1602.381	87.23
1605.612	87.78
1608.843	87.16
1612.073	87.97
1615.303	88.82
1618.533	88.15
1621.762	88.43
1624.992	88.67
1628.221	88.72
1631.449	89.16
1634.678	88.94
1637.906	88.99
1641.134	88.85
1644.361	89.31
1647.588	88.56
1650.815	88.5
1654.042	89.04
1657.269	88.59
1660.495	89.17
1663.72	89.06
1666.946	88.88
1670.171	89.38
1673.396	89.77
1676.621	90.17
1679.845	90.13
1683.069	90.25
1686.293	90.12
1689.517	89.84
1692.74	90.12
1695.963	90.03
1699.185	90.35
1702.408	90.9
1705.63	91.2
1708.852	91.25
1712.073	90.69
1715.294	90.84
1718.515	91.37
1721.736	91.78
1724.956	91.9
1728.176	91.95
1731.396	91.89
1734.616	91.93
1737.835	91.9
1741.054	91.55
1744.272	90.91
1747.491	91.37
1750.709	91.95
1753.927	91.8
1757.144	91.65
1760.361	91.98
1763.578	92.07
1766.795	93.04
1770.011	92.72
1773.227	93.35
1776.443	93.96
1779.658	94.57
1782.874	95.32
1786.089	94.84
1789.303	95.17
1792.518	96.1
1795.732	96.57
1798.945	97.49
1802.159	97.37
1805.372	98.93
1808.585	99
1811.797	99.34
1815.01	100.2
1818.222	100.4
1821.434	101.67
1824.645	102.01
1827.856	102.99
1831.067	103.03
1834.278	104.28
1837.488	104.89
1840.698	105.25
1843.908	105.61
1847.117	107.03
1850.326	107.71
1853.535	107.51
1856.744	108.53
1859.952	109.59
1863.16	109.18
1866.368	109.19
1869.575	109.13
1872.782	108.15
1875.989	108.11
1879.196	107.59
1882.402	105.73
1885.608	106.42
1888.814	106.45
1892.019	107
1895.224	105.25
1898.429	105.09
1901.634	105.91
1904.838	105.43
1908.042	106.65
1911.246	106.13
1914.449	106.7
1917.652	106.82
1920.855	106.84
1924.058	105.69
1927.26	104.47
1930.462	105.36
1933.664	106.06
1936.865	105.31
1940.066	104.67
1943.267	104.17
1946.467	104.71
1949.668	104.42
1952.868	105.58
1956.067	104.98
1959.267	106.01
1962.466	106.44
1965.665	107.19
1968.863	108.2
1972.061	107.83
1975.259	110.9
1978.457	110.57
1981.654	111.64
1984.852	112.67
1988.048	113.3
1991.245	115.65
1994.441	118.77
1997.637	120.46
2000.833	123.26
2004.028	123.14
2007.223	128.44
2010.418	129.58
2013.613	136.84
2016.807	140.18
2020.001	142.81
2023.194	147.3
2026.388	151.26
2029.581	157.81
2032.774	162.51
2035.966	167.83
2039.158	173.85
2042.35	176.05
2045.542	179.78
2048.733	184.87
2051.924	185.58
2055.115	190.23
2058.306	191.55
2061.496	196.25
2064.686	195.06
2067.875	193.88
2071.065	195.9
2074.254	195.81
2077.442	202.08
2080.631	203.25
2083.819	203.33
2087.007	209.49
2090.195	210.9
2093.382	211.45
2096.569	210.57
2099.756	215.57
2102.942	221.85
2106.128	224.37
2109.314	226.74
2112.5	225.53
2115.685	222.96
2118.87	224.55
2122.055	226.28
2125.239	230.44
2128.424	238.36
2131.608	236.45
2134.791	233.91
2137.974	235.75
2141.157	237.49
2144.34	239.58
2147.523	243.26
2150.705	251.53
2153.887	250.16
2157.068	252.32
2160.25	255.94
2163.431	250.09
2166.611	257.47
2169.792	262.96
2172.972	266.39
2176.152	267.31
2179.331	272.72
2182.511	272.43
2185.69	275.56
2188.868	286.2
2192.047	292.2
2195.225	295.4
2198.403	300.84
2201.58	294.2
2204.758	306.42
2207.935	306.62
2211.111	311.7
2214.288	314.16
2217.464	318.86
2220.64	319.12
2223.815	319.25
2226.991	314.74
2230.166	317.01
2233.34	328.06
2236.515	336.08
2239.689	333.13
2242.863	338.96
2246.036	335.34
2249.209	341.83
2252.382	343.73
2255.555	360.22
2258.727	361.15
2261.9	368.65
2265.071	374.55
2268.243	372.35
2271.414	385.86
2274.585	391.67
2277.756	391.01
2280.926	405.28
2284.096	405.58
2287.266	406.53
2290.436	394.33
2293.605	405.8
2296.774	424.33
2299.942	421.66
2303.111	433.74
2306.279	438.24
2309.447	438.76
2312.614	442.96
2315.781	456.34
2318.948	463.49
2322.115	471.22
2325.281	496.31
2328.447	490.27
2331.613	486.61
2334.779	497.39
2337.944	504.22
2341.109	516.7
2344.274	517.15
2347.438	536.42
2350.602	543.8
2353.766	574
2356.929	576.07
2360.092	583.48
2363.255	587
2366.418	602.35
2369.58	613.8
2372.742	606.71
2375.904	603.4
2379.066	623.82
2382.227	661.17
2385.388	655.64
2388.548	628.55
2391.709	617.9
2394.869	645.51
2398.029	644.25
2401.188	645.73
2404.347	663.75
2407.506	691.94
2410.665	668.48
2413.823	670.85
2416.981	662.18
2420.139	633.68
2423.296	680.58
2426.453	729.4
2429.61	684.51
2432.767	730.86
2435.923	751.16
2439.079	729.96
2442.235	746.94
2445.391	763.38
2448.546	760.26
2451.701	794.99
2454.855	846.47
2458.009	755.87
2461.163	768.8
2464.317	781.12
2467.471	768
2470.624	790.98
2473.777	772.98
2476.929	748.95
2480.082	792.75
2483.234	826.53
2486.385	845.09
2489.537	865.83
2492.688	943.46
2495.839	930.23
2498.989	955.2
2502.14	961.2
2505.29	921
2508.439	1028.72
2511.589	1057.64
2514.738	1042.85
2517.887	1031.52
2521.035	968.38
2524.183	955.95
2527.331	950.52
2530.479	929.54
2533.627	955.46
