Data from N_1_hir_il_4n_021_Splice17_01.txt Node
Date: Sat Feb 29 13:41:45 EST 2020
User: sa697716
Spectrometer: FLMS03696
Trigger mode: 0
Integration Time (sec): 3.180400E-1
Scans to average: 20
Electric dark correction enabled: true
Nonlinearity correction enabled: true
Boxcar width: 5
XAxis mode: Wavelengths
Number of Pixels in Spectrum: 2048
>>>>>Begin Spectral Data<<<<<
187.83	88.59
188.298	90.22
188.766	89.48
189.233	82.06
189.701	86.85
190.169	82.67
190.636	85.6
191.104	85.61
191.571	243.13
192.039	259.93
192.506	187.07
192.974	8889.68
193.441	-440.49
193.908	130.64
194.375	130.34
194.842	192.56
195.31	77.28
195.777	112.36
196.244	16.44
196.711	7.24
197.177	4.65
197.644	2.74
198.111	2.64
198.578	3.46
199.045	3.27
199.511	3.8
199.978	4.29
200.445	4.05
200.911	3.9
201.378	4.07
201.844	4.19
202.31	4.49
202.777	4.56
203.243	4.56
203.709	4.78
204.176	4.44
204.642	4.5
205.108	4.17
205.574	4.55
206.04	4.49
206.506	4.47
206.972	4.21
207.438	3.99
207.903	4.32
208.369	4.34
208.835	4.35
209.301	4.77
209.766	4.43
210.232	4.78
210.697	4.98
211.163	5.23
211.628	5.09
212.094	5.14
212.559	5.14
213.024	4.93
213.49	4.88
213.955	4.78
214.42	4.42
214.885	4.42
215.35	4.09
215.815	3.56
216.28	3.11
216.745	3.02
217.21	2.81
217.675	2.46
218.14	2.01
218.604	1.65
219.069	1.46
219.534	1.35
219.998	1.19
220.463	1.08
220.927	0.98
221.392	0.86
221.856	0.76
222.32	0.7
222.785	0.61
223.249	0.62
223.713	0.64
224.177	0.53
224.642	0.5
225.106	0.47
225.57	0.4
226.034	0.4
226.497	0.38
226.961	0.34
227.425	0.28
227.889	0.28
228.353	0.25
228.816	0.24
229.28	0.24
229.744	0.23
230.207	0.23
230.671	0.24
231.134	0.24
231.597	0.22
232.061	0.22
232.524	0.25
232.987	0.24
233.45	0.25
233.914	0.24
234.377	0.25
234.84	0.25
235.303	0.26
235.766	0.26
236.229	0.25
236.691	0.25
237.154	0.25
237.617	0.23
238.08	0.24
238.542	0.22
239.005	0.22
239.468	0.21
239.93	0.2
240.393	0.19
240.855	0.19
241.317	0.19
241.78	0.2
242.242	0.2
242.704	0.2
243.166	0.2
243.629	0.19
244.091	0.19
244.553	0.2
245.015	0.19
245.477	0.18
245.939	0.18
246.4	0.17
246.862	0.16
247.324	0.17
247.786	0.17
248.247	0.17
248.709	0.17
249.17	0.17
249.632	0.15
250.093	0.13
250.555	0.13
251.016	0.13
251.477	0.13
251.939	0.13
252.4	0.13
252.861	0.12
253.322	0.11
253.783	0.12
254.244	0.12
254.705	0.12
255.166	0.14
255.627	0.13
256.088	0.12
256.549	0.13
257.009	0.13
257.47	0.13
257.931	0.13
258.391	0.12
258.852	0.11
259.312	0.11
259.773	0.11
260.233	0.1
260.694	0.1
261.154	0.1
261.614	0.1
262.074	0.1
262.534	0.09
262.994	0.1
263.455	0.11
263.915	0.1
264.374	0.1
264.834	0.1
265.294	0.09
265.754	0.08
266.214	0.08
266.673	0.08
267.133	0.08
267.593	0.08
268.052	0.07
268.512	0.07
268.971	0.07
269.431	0.07
269.89	0.07
270.349	0.07
270.809	0.07
271.268	0.08
271.727	0.07
272.186	0.07
272.645	0.07
273.104	0.06
273.563	0.07
274.022	0.07
274.481	0.07
274.94	0.07
275.399	0.07
275.857	0.08
276.316	0.07
276.775	0.07
277.233	0.08
277.692	0.08
278.15	0.07
278.609	0.07
279.067	0.06
279.525	0.06
279.984	0.06
280.442	0.06
280.9	0.07
281.358	0.07
281.816	0.07
282.274	0.06
282.732	0.06
283.19	0.07
283.648	0.08
284.106	0.07
284.564	0.08
285.021	0.08
285.479	0.08
285.937	0.07
286.394	0.07
286.852	0.08
287.309	0.08
287.767	0.09
288.224	0.08
288.682	0.09
289.139	0.09
289.596	0.09
290.053	0.09
290.511	0.08
290.968	0.09
291.425	0.1
291.882	0.09
292.339	0.09
292.796	0.09
293.252	0.08
293.709	0.08
294.166	0.07
294.623	0.07
295.079	0.08
295.536	0.08
295.992	0.08
296.449	0.08
296.905	0.08
297.362	0.08
297.818	0.08
298.274	0.08
298.731	0.09
299.187	0.09
299.643	0.09
300.099	0.09
300.555	0.09
301.011	0.09
301.467	0.08
301.923	0.09
302.379	0.08
302.835	0.08
303.291	0.08
303.746	0.08
304.202	0.07
304.658	0.07
305.113	0.07
305.569	0.07
306.024	0.07
306.479	0.07
306.935	0.06
307.39	0.06
307.845	0.07
308.301	0.08
308.756	0.09
309.211	0.09
309.666	0.1
310.121	0.1
310.576	0.1
311.031	0.1
311.486	0.11
311.94	0.12
312.395	0.12
312.85	0.12
313.305	0.11
313.759	0.11
314.214	0.1
314.668	0.09
315.123	0.1
315.577	0.1
316.032	0.09
316.486	0.09
316.94	0.08
317.394	0.09
317.849	0.09
318.303	0.09
318.757	0.09
319.211	0.09
319.665	0.1
320.119	0.1
320.572	0.11
321.026	0.11
321.48	0.11
321.934	0.12
322.387	0.12
322.841	0.11
323.295	0.11
323.748	0.11
324.202	0.12
324.655	0.12
325.108	0.12
325.562	0.11
326.015	0.11
326.468	0.11
326.921	0.1
327.374	0.11
327.827	0.11
328.28	0.1
328.733	0.1
329.186	0.1
329.639	0.1
330.092	0.1
330.545	0.1
330.997	0.1
331.45	0.1
331.903	0.1
332.355	0.1
332.808	0.1
333.26	0.11
333.713	0.11
334.165	0.11
334.617	0.11
335.069	0.12
335.522	0.12
335.974	0.12
336.426	0.13
336.878	0.12
337.33	0.11
337.782	0.11
338.234	0.11
338.686	0.11
339.137	0.12
339.589	0.13
340.041	0.13
340.493	0.11
340.944	0.12
341.396	0.12
341.847	0.13
342.299	0.13
342.75	0.14
343.201	0.13
343.653	0.13
344.104	0.13
344.555	0.13
345.006	0.12
345.457	0.13
345.908	0.12
346.359	0.13
346.81	0.13
347.261	0.13
347.712	0.13
348.163	0.14
348.613	0.14
349.064	0.12
349.515	0.11
349.965	0.11
350.416	0.12
350.866	0.12
351.317	0.11
351.767	0.1
352.217	0.1
352.668	0.11
353.118	0.11
353.568	0.12
354.018	0.13
354.468	0.13
354.918	0.13
355.368	0.13
355.818	0.13
356.268	0.13
356.718	0.13
357.168	0.13
357.617	0.12
358.067	0.12
358.517	0.11
358.966	0.12
359.416	0.13
359.865	0.12
360.315	0.13
360.764	0.13
361.213	0.13
361.663	0.13
362.112	0.14
362.561	0.14
363.01	0.15
363.459	0.14
363.908	0.13
364.357	0.13
364.806	0.13
365.255	0.14
365.703	0.14
366.152	0.13
366.601	0.13
367.05	0.13
367.498	0.13
367.947	0.12
368.395	0.14
368.844	0.13
369.292	0.13
369.74	0.14
370.189	0.13
370.637	0.13
371.085	0.14
371.533	0.14
371.981	0.14
372.429	0.14
372.877	0.14
373.325	0.13
373.773	0.13
374.221	0.14
374.669	0.13
375.116	0.13
375.564	0.13
376.012	0.13
376.459	0.13
376.907	0.14
377.354	0.14
377.801	0.14
378.249	0.13
378.696	0.14
379.143	0.14
379.591	0.15
380.038	0.16
380.485	0.17
380.932	0.18
381.379	0.19
381.826	0.19
382.273	0.2
382.72	0.21
383.166	0.24
383.613	0.25
384.06	0.26
384.506	0.28
384.953	0.31
385.4	0.33
385.846	0.36
386.292	0.4
386.739	0.43
387.185	0.48
387.631	0.53
388.078	0.56
388.524	0.58
388.97	0.62
389.416	0.65
389.862	0.7
390.308	0.76
390.754	0.85
391.2	0.93
391.645	1.02
392.091	1.07
392.537	1.13
392.983	1.23
393.428	1.37
393.874	1.55
394.319	1.76
394.765	1.96
395.21	2.18
395.655	2.41
396.101	2.64
396.546	2.91
396.991	3.22
397.436	3.55
397.881	3.9
398.326	4.25
398.771	4.55
399.216	4.87
399.661	5.16
400.106	5.44
400.551	5.68
400.995	5.9
401.44	6.11
401.885	6.32
402.329	6.54
402.774	6.75
403.218	6.99
403.663	7.25
404.107	7.53
404.551	7.84
404.995	8.1
405.44	8.38
405.884	8.67
406.328	8.98
406.772	9.32
407.216	9.71
407.66	10.06
408.104	10.4
408.547	10.7
408.991	10.96
409.435	11.23
409.879	11.56
410.322	11.91
410.766	12.29
411.209	12.66
411.653	12.99
412.096	13.27
412.54	13.55
412.983	13.81
413.426	14.1
413.869	14.4
414.312	14.73
414.756	15.01
415.199	15.25
415.642	15.47
416.085	15.65
416.527	15.81
416.97	15.94
417.413	15.98
417.856	16
418.298	16.02
418.741	16.04
419.184	16.06
419.626	16.14
420.069	16.24
420.511	16.35
420.953	16.47
421.396	16.62
421.838	16.83
422.28	17.11
422.722	17.37
423.164	17.63
423.606	17.88
424.048	18.06
424.49	18.13
424.932	18.07
425.374	17.84
425.816	17.48
426.258	17.07
426.699	16.73
427.141	16.62
427.582	16.77
428.024	17.03
428.465	17.34
428.907	17.63
429.348	17.93
429.789	18.3
430.231	18.86
430.672	19.68
431.113	20.66
431.554	21.63
431.995	22.4
432.436	22.93
432.877	23.33
433.318	23.63
433.759	23.97
434.2	24.37
434.64	24.9
435.081	25.43
435.522	25.9
435.962	26.26
436.403	26.53
436.843	26.77
437.284	27.05
437.724	27.35
438.164	27.72
438.604	28.17
439.045	28.65
439.485	29.07
439.925	29.4
440.365	29.66
440.805	29.85
441.245	30.02
441.685	30.2
442.125	30.38
442.564	30.63
443.004	30.89
443.444	31.19
443.883	31.51
444.323	31.83
444.762	32.17
445.202	32.55
445.641	32.98
446.081	33.56
446.52	34.11
446.959	34.66
447.398	35.1
447.837	35.4
448.276	35.5
448.716	35.53
449.154	35.59
449.593	35.63
450.032	35.65
450.471	35.62
450.91	35.47
451.349	35.31
451.787	35.19
452.226	35.07
452.664	35.02
453.103	35.04
453.541	35.07
453.98	34.99
454.418	34.87
454.856	34.68
455.295	34.54
455.733	34.41
456.171	34.31
456.609	34.21
457.047	34.13
457.485	34.11
457.923	34.13
458.361	34.17
458.798	34.32
459.236	34.48
459.674	34.63
460.111	34.75
460.549	34.88
460.987	35.02
461.424	35.19
461.862	35.35
462.299	35.47
462.736	35.6
463.173	35.79
463.611	35.99
464.048	36.28
464.485	36.66
464.922	37.06
465.359	37.45
465.796	37.82
466.233	38.13
466.67	38.52
467.106	38.99
467.543	39.52
467.98	40.07
468.416	40.56
468.853	40.95
469.29	41.34
469.726	41.73
470.162	42.16
470.599	42.61
471.035	43.04
471.471	43.33
471.907	43.51
472.344	43.62
472.78	43.73
473.216	43.86
473.652	44.01
474.088	44.14
474.523	44.22
474.959	44.25
475.395	44.3
475.831	44.3
476.266	44.36
476.702	44.4
477.138	44.43
477.573	44.38
478.008	44.28
478.444	44.15
478.879	43.96
479.314	43.7
479.75	43.42
480.185	43.08
480.62	42.65
481.055	42.03
481.49	41.2
481.925	40.26
482.36	39.37
482.795	38.59
483.229	37.99
483.664	37.51
484.099	37.14
484.534	36.8
484.968	36.53
485.403	36.43
485.837	36.5
486.271	36.77
486.706	37.11
487.14	37.38
487.574	37.5
488.009	37.52
488.443	37.52
488.877	37.49
489.311	37.48
489.745	37.47
490.179	37.48
490.613	37.49
491.046	37.53
491.48	37.58
491.914	37.69
492.348	37.89
492.781	38.08
493.215	38.22
493.648	38.34
494.082	38.4
494.515	38.42
494.948	38.41
495.382	38.41
495.815	38.34
496.248	38.25
496.681	38.13
497.114	37.98
497.547	37.84
497.98	37.77
498.413	37.8
498.846	37.88
499.279	37.97
499.711	38.03
500.144	38.09
500.577	38.26
501.009	38.54
501.442	38.91
501.874	39.32
502.306	39.7
502.739	40.01
503.171	40.23
503.603	40.42
504.036	40.63
504.468	40.92
504.9	41.22
505.332	41.46
505.764	41.65
506.196	41.79
506.627	41.95
507.059	42.16
507.491	42.42
507.923	42.7
508.354	42.96
508.786	43.18
509.217	43.32
509.649	43.41
510.08	43.53
510.512	43.65
510.943	43.81
511.374	43.92
511.805	43.9
512.237	43.72
512.668	43.41
513.099	43.16
513.53	42.98
513.961	42.85
514.391	42.77
514.822	42.77
515.253	42.86
515.684	42.96
516.114	43.15
516.545	43.43
516.975	43.95
517.406	44.62
517.836	45.25
518.267	45.84
518.697	46.37
519.127	46.93
519.558	47.45
519.988	47.92
520.418	48.36
520.848	48.75
521.278	49.07
521.708	49.11
522.138	49.05
522.567	48.96
522.997	48.92
523.427	48.97
523.857	49.03
524.286	49.15
524.716	49.32
525.145	49.45
525.575	49.52
526.004	49.72
526.433	50.14
526.863	50.63
527.292	51.17
527.721	51.56
528.15	51.76
528.579	51.83
529.008	51.78
529.437	51.69
529.866	51.59
530.295	51.54
530.724	51.54
531.152	51.51
531.581	51.47
532.01	51.38
532.438	51.35
532.867	51.38
533.295	51.49
533.723	51.62
534.152	51.65
534.58	51.67
535.008	51.59
535.436	51.38
535.865	51.06
536.293	50.77
536.721	50.53
537.149	50.41
537.576	50.35
538.004	50.27
538.432	50.19
538.86	50.16
539.287	50.18
539.715	50.32
540.143	50.49
540.57	50.76
540.998	51.05
541.425	51.33
541.852	51.57
542.28	51.77
542.707	51.96
543.134	52.1
543.561	52.21
543.988	52.34
544.415	52.45
544.842	52.57
545.269	52.73
545.696	52.85
546.123	53.01
546.549	53.13
546.976	53.23
547.403	53.35
547.829	53.54
548.256	53.7
548.682	53.78
549.108	53.86
549.535	53.94
549.961	54.02
550.387	54.1
550.813	54.14
551.24	54.22
551.666	54.29
552.092	54.29
552.518	54.17
552.943	54.09
553.369	54.03
553.795	53.91
554.221	53.72
554.646	53.42
555.072	53.1
555.498	52.8
555.923	52.51
556.349	52.25
556.774	52.05
557.199	51.91
557.625	51.72
558.05	51.57
558.475	51.4
558.9	51.32
559.325	51.26
559.75	51.17
560.175	51.06
560.6	50.87
561.025	50.65
561.449	50.34
561.874	50.02
562.299	49.76
562.723	49.49
563.148	49.25
563.572	48.97
563.997	48.66
564.421	48.37
564.846	48.05
565.27	47.78
565.694	47.48
566.118	47.18
566.542	46.88
566.966	46.54
567.39	46.24
567.814	45.97
568.238	45.73
568.662	45.62
569.086	45.5
569.509	45.42
569.933	45.3
570.357	45.2
570.78	45.13
571.204	45.07
571.627	45.04
572.05	44.94
572.474	44.85
572.897	44.71
573.32	44.53
573.743	44.33
574.166	44.09
574.589	43.9
575.012	43.77
575.435	43.67
575.858	43.63
576.281	43.58
576.704	43.56
577.126	43.57
577.549	43.6
577.972	43.65
578.394	43.71
578.817	43.82
579.239	43.95
579.661	44.05
580.084	44.16
580.506	44.22
580.928	44.23
581.35	44.18
581.772	44.1
582.194	43.98
582.616	43.92
583.038	43.85
583.46	43.78
583.882	43.61
584.303	43.36
584.725	42.96
585.147	42.53
585.568	42.18
585.99	41.95
586.411	41.76
586.833	41.64
587.254	41.47
587.675	41.33
588.096	41.22
588.518	41.17
588.939	41.19
589.36	41.35
589.781	41.58
590.202	41.74
590.623	41.84
591.043	41.89
591.464	41.88
591.885	41.89
592.305	41.87
592.726	41.82
593.147	41.79
593.567	41.71
593.987	41.63
594.408	41.54
594.828	41.47
595.248	41.41
595.669	41.35
596.089	41.23
596.509	41.1
596.929	40.96
597.349	40.79
597.769	40.6
598.189	40.49
598.608	40.37
599.028	40.27
599.448	40.21
599.867	40.15
600.287	40.09
600.706	40.04
601.126	40
601.545	39.95
601.965	39.93
602.384	39.92
602.803	39.87
603.222	39.82
603.641	39.74
604.061	39.6
604.48	39.43
604.898	39.27
605.317	39.11
605.736	38.93
606.155	38.78
606.574	38.6
606.992	38.44
607.411	38.28
607.829	38.05
608.248	37.89
608.666	37.73
609.085	37.57
609.503	37.38
609.921	37.21
610.339	37.06
610.758	36.9
611.176	36.77
611.594	36.58
612.012	36.37
612.43	36.22
612.847	36.03
613.265	35.9
613.683	35.78
614.101	35.71
614.518	35.65
614.936	35.57
615.353	35.51
615.771	35.46
616.188	35.48
616.606	35.51
617.023	35.51
617.44	35.5
617.857	35.44
618.274	35.37
618.691	35.26
619.108	35.14
619.525	35.01
619.942	34.85
620.359	34.68
620.776	34.46
621.192	34.24
621.609	34.06
622.026	33.89
622.442	33.78
622.859	33.64
623.275	33.52
623.691	33.37
624.108	33.23
624.524	33.12
624.94	33.02
625.356	32.92
625.772	32.86
626.188	32.76
626.604	32.64
627.02	32.5
627.436	32.39
627.852	32.29
628.268	32.25
628.683	32.21
629.099	32.16
629.514	32.12
629.93	32.1
630.345	32.09
630.761	32.1
631.176	32.12
631.591	32.13
632.007	32.15
632.422	32.18
632.837	32.18
633.252	32.2
633.667	32.24
634.082	32.25
634.497	32.28
634.911	32.25
635.326	32.22
635.741	32.16
636.155	32.1
636.57	32.05
636.984	31.96
637.399	31.88
637.813	31.78
638.228	31.66
638.642	31.58
639.056	31.5
639.47	31.43
639.884	31.38
640.298	31.34
640.712	31.3
641.126	31.25
641.54	31.21
641.954	31.17
642.368	31.1
642.781	31.03
643.195	30.94
643.609	30.82
644.022	30.73
644.436	30.63
644.849	30.5
645.262	30.35
645.676	30.22
646.089	30.12
646.502	30.04
646.915	30.01
647.328	29.96
647.741	29.92
648.154	29.92
648.567	29.91
648.98	29.91
649.393	29.95
649.805	29.99
650.218	30.01
650.631	29.97
651.043	29.87
651.456	29.62
651.868	29.29
652.28	28.89
652.693	28.49
653.105	28.19
653.517	27.96
653.929	27.81
654.341	27.71
654.753	27.66
655.165	27.64
655.577	27.7
655.989	27.87
656.401	28.16
656.813	28.52
657.224	28.86
657.636	29.14
658.047	29.34
658.459	29.44
658.87	29.52
659.282	29.56
659.693	29.6
660.104	29.61
660.515	29.61
660.926	29.63
661.338	29.64
661.749	29.62
662.159	29.58
662.57	29.51
662.981	29.49
663.392	29.45
663.803	29.44
664.213	29.4
664.624	29.4
665.035	29.36
665.445	29.33
665.855	29.28
666.266	29.24
666.676	29.2
667.086	29.16
667.497	29.09
667.907	29.03
668.317	28.96
668.727	28.92
669.137	28.86
669.547	28.83
669.956	28.77
670.366	28.73
670.776	28.68
671.186	28.66
671.595	28.64
672.005	28.66
672.414	28.65
672.824	28.65
673.233	28.65
673.642	28.65
674.052	28.66
674.461	28.69
674.87	28.72
675.279	28.76
675.688	28.78
676.097	28.82
676.506	28.85
676.915	28.89
677.323	28.94
677.732	29
678.141	29.05
678.549	29.09
678.958	29.14
679.366	29.17
679.775	29.2
680.183	29.22
680.592	29.24
681	29.27
681.408	29.28
681.816	29.22
682.224	29.05
682.632	28.74
683.04	28.25
683.448	27.76
683.856	27.32
684.264	26.92
684.671	26.56
685.079	26.21
685.487	25.9
685.894	25.63
686.302	25.45
686.709	25.4
687.116	25.59
687.524	25.98
687.931	26.41
688.338	26.86
688.745	27.28
689.152	27.72
689.559	28.12
689.966	28.49
690.373	28.88
690.78	29.21
691.187	29.52
691.593	29.8
692	30.05
692.407	30.3
692.813	30.55
693.22	30.77
693.626	30.94
694.032	31.15
694.439	31.34
694.845	31.49
695.251	31.66
695.657	31.83
696.063	31.94
696.469	32.03
696.875	32.11
697.281	32.15
697.687	32.18
698.093	32.26
698.498	32.33
698.904	32.43
699.31	32.52
699.715	32.65
700.12	32.77
700.526	32.97
700.931	33.16
701.337	33.36
701.742	33.52
702.147	33.71
702.552	33.9
702.957	34.09
703.362	34.27
703.767	34.44
704.172	34.58
704.577	34.72
704.981	34.84
705.386	34.97
705.791	35.12
706.195	35.27
706.6	35.41
707.004	35.53
707.408	35.65
707.813	35.74
708.217	35.85
708.621	35.96
709.025	36.07
709.43	36.14
709.834	36.25
710.237	36.3
710.641	36.41
711.045	36.49
711.449	36.55
711.853	36.57
712.256	36.57
712.66	36.48
713.064	36.3
713.467	36.07
713.87	35.77
714.274	35.4
714.677	35.01
715.08	34.55
715.484	34.12
715.887	33.75
716.29	33.41
716.693	33.16
717.096	33.15
717.499	33.29
717.901	33.53
718.304	33.89
718.707	34.24
719.109	34.6
719.512	34.95
719.915	35.26
720.317	35.52
720.719	35.76
721.122	35.97
721.524	36.05
721.926	36.05
722.328	36.01
722.731	35.93
723.133	35.89
723.535	35.91
723.937	35.95
724.338	35.99
724.74	36.05
725.142	36.1
725.544	36.14
725.945	36.25
726.347	36.32
726.748	36.4
727.15	36.48
727.551	36.62
727.952	36.77
728.354	36.97
728.755	37.22
729.156	37.51
729.557	37.83
729.958	38.17
730.359	38.43
730.76	38.72
731.161	39.01
731.562	39.26
731.962	39.45
732.363	39.62
732.763	39.75
733.164	39.87
733.564	39.94
733.965	40
734.365	40
734.766	39.96
735.166	39.9
735.566	39.86
735.966	39.87
736.366	39.85
736.766	39.85
737.166	39.86
737.566	39.83
737.966	39.81
738.365	39.81
738.765	39.84
739.165	39.92
739.564	40.04
739.964	40.12
740.363	40.17
740.763	40.25
741.162	40.31
741.561	40.42
741.96	40.52
742.36	40.6
742.759	40.65
743.158	40.7
743.557	40.75
743.955	40.79
744.354	40.85
744.753	40.89
745.152	40.88
745.55	40.88
745.949	40.86
746.348	40.85
746.746	40.84
747.144	40.85
747.543	40.84
747.941	40.83
748.339	40.82
748.737	40.79
749.136	40.76
749.534	40.77
749.932	40.79
750.33	40.82
750.727	40.87
751.125	40.9
751.523	40.89
751.921	40.91
752.318	40.92
752.716	40.91
753.113	40.9
753.511	40.86
753.908	40.83
754.305	40.73
754.703	40.45
755.1	39.79
755.497	38.59
755.894	36.78
756.291	34.52
756.688	32.05
757.085	29.66
757.482	27.47
757.878	25.46
758.275	23.47
758.672	21.49
759.068	19.61
759.465	18.14
759.861	17.34
760.258	17.28
760.654	17.84
761.05	18.79
761.447	19.84
761.843	20.84
762.239	21.85
762.635	22.99
763.031	24.35
763.427	25.9
763.822	27.54
764.218	29.16
764.614	30.71
765.01	32.14
765.405	33.47
765.801	34.67
766.196	35.75
766.592	36.7
766.987	37.47
767.382	38.05
767.778	38.52
768.173	38.85
768.568	39.12
768.963	39.36
769.358	39.56
769.753	39.72
770.148	39.81
770.542	39.82
770.937	39.8
771.332	39.83
771.726	39.84
772.121	39.85
772.515	39.91
772.91	39.91
773.304	39.89
773.699	39.83
774.093	39.74
774.487	39.73
774.881	39.73
775.275	39.73
775.669	39.7
776.063	39.64
776.457	39.56
776.851	39.41
777.245	39.37
777.638	39.32
778.032	39.31
778.425	39.29
778.819	39.22
779.212	39.13
779.606	39.04
779.999	38.93
780.392	38.87
780.786	38.8
781.179	38.77
781.572	38.67
781.965	38.55
782.358	38.41
782.751	38.28
783.143	38.2
783.536	38.12
783.929	38.02
784.322	37.94
784.714	37.83
785.107	37.72
785.499	37.52
785.891	37.37
786.284	37.2
786.676	37.05
787.068	36.88
787.46	36.61
787.852	36.42
788.245	36.2
788.636	35.97
789.028	35.73
789.42	35.5
789.812	35.35
790.204	35.13
790.595	34.94
790.987	34.73
791.378	34.57
791.77	34.47
792.161	34.3
792.553	34.16
792.944	34.05
793.335	33.98
793.726	33.87
794.117	33.75
794.508	33.68
794.899	33.58
795.29	33.48
795.681	33.32
796.072	33.16
796.463	33.02
796.853	32.87
797.244	32.68
797.634	32.48
798.025	32.3
798.415	32.13
798.806	31.9
799.196	31.69
799.586	31.5
799.976	31.33
800.366	31.15
800.756	30.94
801.146	30.73
801.536	30.52
801.926	30.35
802.316	30.18
802.706	30.01
803.095	29.84
803.485	29.66
803.874	29.44
804.264	29.25
804.653	29.03
805.043	28.83
805.432	28.58
805.821	28.35
806.21	28.09
806.599	27.87
806.988	27.58
807.377	27.31
807.766	27.04
808.155	26.78
808.544	26.46
808.933	26.17
809.321	25.87
809.71	25.56
810.098	25.19
810.487	24.78
810.875	24.35
811.264	23.92
811.652	23.48
812.04	23.01
812.428	22.53
812.816	22.1
813.204	21.66
813.592	21.25
813.98	20.87
814.368	20.55
814.756	20.25
815.144	19.96
815.531	19.7
815.919	19.5
816.306	19.37
816.694	19.3
817.081	19.23
817.469	19.16
817.856	19.06
818.243	18.9
818.63	18.71
819.017	18.48
819.404	18.26
819.791	18.13
820.178	17.97
820.565	17.81
820.952	17.62
821.339	17.45
821.725	17.27
822.112	17.15
822.498	17.1
822.885	17.06
823.271	17.06
823.657	17.01
824.044	16.89
824.43	16.75
824.816	16.58
825.202	16.38
825.588	16.22
825.974	16.06
826.36	15.87
826.746	15.69
827.132	15.5
827.517	15.33
827.903	15.2
828.289	15.07
828.674	14.93
829.06	14.81
829.445	14.72
829.83	14.58
830.216	14.45
830.601	14.34
830.986	14.25
831.371	14.19
831.756	14.1
832.141	14.01
832.526	13.92
832.911	13.9
833.295	13.84
833.68	13.79
834.065	13.74
834.449	13.67
834.834	13.62
835.218	13.55
835.603	13.47
835.987	13.39
836.371	13.33
836.755	13.26
837.139	13.18
837.524	13.11
837.908	13.01
838.291	12.92
838.675	12.85
839.059	12.78
839.443	12.7
839.827	12.62
840.21	12.55
840.594	12.46
840.977	12.38
841.361	12.3
841.744	12.22
842.127	12.14
842.511	12.07
842.894	11.98
843.277	11.9
843.66	11.81
844.043	11.74
844.426	11.66
844.809	11.58
845.191	11.48
845.574	11.35
845.957	11.22
846.339	11.1
846.722	11
847.104	10.92
847.487	10.82
847.869	10.73
848.252	10.64
848.634	10.55
849.016	10.47
849.398	10.37
849.78	10.26
850.162	10.14
850.544	10.02
850.926	9.89
851.307	9.77
851.689	9.67
852.071	9.59
852.452	9.51
852.834	9.45
853.215	9.4
853.597	9.38
853.978	9.39
854.359	9.41
854.741	9.45
855.122	9.48
855.503	9.5
855.884	9.49
856.265	9.46
856.646	9.41
857.026	9.38
857.407	9.32
857.788	9.27
858.169	9.24
858.549	9.2
858.93	9.14
859.31	9.07
859.69	9.01
860.071	8.96
860.451	8.9
860.831	8.84
861.211	8.76
861.591	8.68
861.971	8.55
862.351	8.43
862.731	8.3
863.111	8.22
863.491	8.12
863.87	8.02
864.25	7.93
864.629	7.86
865.009	7.79
865.388	7.74
865.768	7.71
866.147	7.73
866.526	7.75
866.905	7.76
867.284	7.76
867.663	7.78
868.042	7.76
868.421	7.75
868.8	7.73
869.179	7.72
869.558	7.7
869.936	7.68
870.315	7.65
870.693	7.6
871.072	7.57
871.45	7.52
871.828	7.48
872.207	7.44
872.585	7.41
872.963	7.39
873.341	7.37
873.719	7.34
874.097	7.31
874.475	7.28
874.853	7.26
875.23	7.25
875.608	7.21
875.986	7.16
876.363	7.15
876.741	7.11
877.118	7.06
877.495	7.02
877.873	6.97
878.25	6.94
878.627	6.9
879.004	6.86
879.381	6.83
879.758	6.79
880.135	6.77
880.512	6.73
880.889	6.71
881.265	6.7
881.642	6.69
882.019	6.66
882.395	6.63
882.772	6.58
883.148	6.56
883.524	6.52
883.901	6.5
884.277	6.47
884.653	6.45
885.029	6.41
885.405	6.36
885.781	6.32
886.157	6.29
886.532	6.27
886.908	6.25
887.284	6.21
887.659	6.21
888.035	6.18
888.411	6.16
888.786	6.12
889.161	6.08
889.537	6.05
889.912	6.02
890.287	5.99
890.662	5.93
891.037	5.88
891.412	5.81
891.787	5.74
892.162	5.67
892.536	5.6
892.911	5.53
893.286	5.46
893.66	5.4
894.035	5.32
894.409	5.23
894.784	5.16
895.158	5.08
895.532	4.99
895.906	4.92
896.281	4.84
896.655	4.77
897.029	4.7
897.402	4.65
897.776	4.57
898.15	4.51
898.524	4.47
898.898	4.45
899.271	4.44
899.645	4.45
900.018	4.46
900.392	4.47
900.765	4.5
901.138	4.52
901.511	4.54
901.884	4.58
902.258	4.62
902.631	4.64
903.003	4.64
903.376	4.64
903.749	4.64
904.122	4.62
904.495	4.57
904.867	4.52
905.24	4.51
905.612	4.46
905.985	4.42
906.357	4.38
906.729	4.33
907.102	4.31
907.474	4.28
907.846	4.23
908.218	4.21
908.59	4.21
908.962	4.2
909.334	4.16
909.705	4.14
910.077	4.1
910.449	4.1
910.82	4.09
911.192	4.08
911.563	4.05
911.935	4.02
912.306	3.99
912.677	3.99
913.048	3.98
913.419	3.96
913.79	3.95
914.161	3.94
914.532	3.92
914.903	3.9
915.274	3.88
915.645	3.9
916.015	3.93
916.386	3.95
916.756	3.91
917.127	3.94
917.497	3.98
917.868	4.01
918.238	4.04
918.608	4.05
918.978	4.07
919.348	4.08
919.718	4.06
920.088	4.04
920.458	4.03
920.828	4.05
921.198	4.02
921.567	3.99
921.937	3.98
922.306	3.95
922.676	3.93
923.045	3.88
923.415	3.85
923.784	3.83
924.153	3.84
924.522	3.83
924.891	3.79
925.26	3.76
925.629	3.74
925.998	3.69
926.367	3.67
926.736	3.64
927.104	3.58
927.473	3.53
927.842	3.46
928.21	3.33
928.578	3.24
928.947	3.16
929.315	3.04
929.683	2.92
930.051	2.83
930.42	2.65
930.788	2.51
931.156	2.42
931.523	2.31
931.891	2.22
932.259	2.16
932.627	2.04
932.994	2.01
933.362	1.98
933.729	1.88
934.097	1.83
934.464	1.89
934.831	1.94
935.199	1.97
935.566	2.05
935.933	2.08
936.3	2.12
936.667	2.23
937.034	2.27
937.401	2.33
937.767	2.5
938.134	2.56
938.501	2.6
938.867	2.66
939.234	2.76
939.6	2.78
939.967	2.84
940.333	2.96
940.699	3.04
941.065	3.05
941.431	3.07
941.798	3.07
942.163	3.12
942.529	3.14
942.895	3.14
943.261	3.11
943.627	3.13
943.992	3.14
944.358	3.03
944.723	2.93
945.089	2.94
945.454	2.94
945.82	2.86
946.185	2.82
946.55	2.8
946.915	2.75
947.28	2.65
947.645	2.65
948.01	2.57
948.375	2.56
948.74	2.62
949.104	2.65
949.469	2.66
949.834	2.66
950.198	2.69
950.562	2.72
950.927	2.74
951.291	2.77
951.655	2.72
952.02	2.68
952.384	2.76
952.748	2.71
953.112	2.64
953.476	2.55
953.839	2.53
954.203	2.46
954.567	2.44
954.931	2.43
955.294	2.44
955.658	2.42
956.021	2.47
956.385	2.41
956.748	2.38
957.111	2.41
957.474	2.47
957.837	2.48
958.2	2.54
958.563	2.62
958.926	2.64
959.289	2.59
959.652	2.64
960.015	2.61
960.377	2.65
960.74	2.69
961.102	2.69
961.465	2.67
961.827	2.68
962.189	2.69
962.552	2.6
962.914	2.59
963.276	2.6
963.638	2.57
964	2.63
964.362	2.62
964.724	2.66
965.085	2.65
965.447	2.74
965.809	2.73
966.17	2.76
966.532	2.82
966.893	2.87
967.255	2.93
967.616	2.99
967.977	3.02
968.338	2.98
968.699	2.99
969.061	3.03
969.421	3.02
969.782	3.03
970.143	3
970.504	2.99
970.865	2.97
971.225	2.97
971.586	2.94
971.946	2.9
972.307	2.92
972.667	2.9
973.027	2.89
973.388	2.84
973.748	2.85
974.108	2.85
974.468	2.86
974.828	2.86
975.188	2.83
975.548	2.83
975.907	2.88
976.267	2.92
976.627	2.91
976.986	2.94
977.346	2.96
977.705	2.94
978.064	2.98
978.424	2.96
978.783	2.98
979.142	3.05
979.501	3.1
979.86	3.08
980.219	3.01
980.578	3.05
980.937	3.03
981.296	3.04
981.654	3.11
982.013	3.07
982.371	3.1
982.73	3.07
983.088	3.01
983.447	2.96
983.805	3.03
984.163	3.05
984.521	3.07
984.879	3.09
985.237	3.15
985.595	3.11
985.953	3.17
986.311	3.2
986.669	3.21
987.026	3.2
987.384	3.2
987.741	3.24
988.099	3.33
988.456	3.36
988.814	3.27
989.171	3.24
989.528	3.3
989.885	3.21
990.242	3.2
990.599	3.13
990.956	3.21
991.313	3.2
991.67	3.13
992.027	3.21
992.383	3.27
992.74	3.25
993.096	3.26
993.453	3.31
993.809	3.3
994.165	3.35
994.522	3.42
994.878	3.36
995.234	3.35
995.59	3.31
995.946	3.17
996.302	2.98
996.658	3.17
997.013	3.17
997.369	3
997.725	3.08
998.08	2.89
998.436	3
998.791	3.03
999.147	3.02
999.502	3.08
999.857	3.08
1000.212	3.17
1000.567	3.05
1000.922	3
1001.277	3.08
1001.632	3.15
1001.987	3.18
1002.342	3.12
1002.696	3.07
1003.051	3.01
1003.406	2.98
1003.76	3.07
1004.114	3.02
1004.469	3.02
1004.823	3
1005.177	3.05
1005.531	2.91
1005.885	2.94
1006.239	2.82
1006.593	2.9
1006.947	3.09
1007.301	3.08
1007.655	3.12
1008.008	3.04
1008.362	3.2
1008.715	3.29
1009.069	3.16
1009.422	3.18
1009.776	3.24
1010.129	3.27
1010.482	3.25
1010.835	3.13
1011.188	3.07
1011.541	2.76
1011.894	2.88
1012.247	2.7
1012.6	2.66
1012.952	2.85
1013.305	2.66
1013.657	2.79
1014.01	3.14
1014.362	3.2
1014.715	3.17
1015.067	3.43
1015.419	3.62
1015.771	3.68
1016.123	3.65
1016.475	3.75
1016.827	3.58
1017.179	3.86
1017.531	3.76
1017.883	3.24
1018.234	3.14
1018.586	3
1018.938	2.69
1019.289	2.68
1019.64	2.87
1019.992	2.9
1020.343	2.82
1020.694	2.88
1021.045	2.78
1021.396	2.83
1021.747	3.28
1022.098	3.54
1022.449	3.94
1022.8	4
1023.151	4.26
1023.501	4.16
1023.852	4.26
1024.202	4.35
1024.553	4.37
1024.903	4.74
1025.253	4.8
1025.604	5.09
1025.954	4.78
1026.304	4.92
1026.654	5.21
1027.004	5.3
1027.354	5.24
1027.703	5.27
1028.053	5.28
1028.403	5.47
1028.753	5.34
1029.102	5.54
1029.452	5.29
1029.801	5.77
1030.15	5.73
1030.499	5.7
897.758	511.55
901.051	519.8
904.343	528.06
907.636	522.26
910.928	512.44
914.22	518.72
917.511	505.52
920.803	484.91
924.094	466.94
927.384	472.41
930.675	454.28
933.965	450.42
937.255	449.56
940.544	427.58
943.834	406.78
947.123	400.86
950.411	381.14
953.7	373.81
956.988	362.74
960.276	346.52
963.563	338.52
966.851	321.58
970.138	316.5
973.424	294.28
976.711	290.13
979.997	279.59
983.283	273.05
986.568	264.02
989.853	255.58
993.138	247.01
996.423	242.49
999.708	236.38
1002.992	236.11
1006.275	227.51
1009.559	227.44
1012.842	219.62
1016.125	212.8
1019.408	209.75
1022.69	207.13
1025.972	206.37
1029.254	199.51
1032.536	196.63
1035.817	189.62
1039.098	187.59
1042.379	184.33
1045.659	181.18
1048.939	179.83
1052.219	176.98
1055.498	172.4
1058.778	169.83
1062.057	166.06
1065.335	166.28
1068.614	163.27
1071.892	161.5
1075.17	157.75
1078.447	155.57
1081.724	153.46
1085.001	150.51
1088.278	150.05
1091.554	149.4
1094.83	147.72
1098.106	145.65
1101.382	144.81
1104.657	143.3
1107.932	143.39
1111.206	142.79
1114.481	140.6
1117.755	139.66
1121.029	139.5
1124.302	137.52
1127.575	135.85
1130.848	135.28
1134.121	133.24
1137.393	132.42
1140.665	131.4
1143.937	129.57
1147.208	128.13
1150.48	127.64
1153.75	126.79
1157.021	125.34
1160.291	124.71
1163.561	124.59
1166.831	123.49
1170.101	123.6
1173.37	122.85
1176.639	121.73
1179.907	121.2
1183.176	120.98
1186.444	120.59
1189.711	119.75
1192.979	121.74
1196.246	121.17
1199.513	120.44
1202.78	121.13
1206.046	120.67
1209.312	121.79
1212.578	122.82
1215.843	125.08
1219.108	125.6
1222.373	128.64
1225.638	130.67
1228.902	132.45
1232.166	137.02
1235.43	139.17
1238.693	143.29
1241.956	146.88
1245.219	149.41
1248.482	150.16
1251.744	149.45
1255.006	150.99
1258.268	146.1
1261.529	145.4
1264.79	141.29
1268.051	137.5
1271.312	136.68
1274.572	133.67
1277.832	130.5
1281.092	129.96
1284.351	127.8
1287.61	127.71
1290.869	126.33
1294.128	126.49
1297.386	126.3
1300.644	125.38
1303.902	125.24
1307.159	125.24
1310.416	125.33
1313.673	127.34
1316.93	127.48
1320.186	129.65
1323.442	131.18
1326.697	133.89
1329.953	134.54
1333.208	138.29
1336.463	144.41
1339.717	147.85
1342.972	153.82
1346.226	158.96
1349.479	160.27
1352.733	167.73
1355.986	169.9
1359.238	173.89
1362.491	175.57
1365.743	183.77
1368.995	185.06
1372.247	186.25
1375.498	185.52
1378.749	191.85
1382	191.03
1385.251	191.19
1388.501	189.76
1391.751	194.62
1395	193.3
1398.25	194.71
1401.499	193.48
1404.748	193.42
1407.996	188.73
1411.244	189.71
1414.492	185.66
1417.74	181.26
1420.987	176.31
1424.234	173.7
1427.481	166.74
1430.728	161.42
1433.974	155.5
1437.22	150.34
1440.465	144.95
1443.711	140.48
1446.956	135.34
1450.201	130.89
1453.445	124.54
1456.689	121.78
1459.933	117.16
1463.177	112.11
1466.42	109.95
1469.663	106.58
1472.906	103.67
1476.148	100.96
1479.391	97.95
1482.633	96.65
1485.874	94.6
1489.115	93.91
1492.356	90.94
1495.597	89.93
1498.838	89.18
1502.078	88.36
1505.318	88.17
1508.557	87.09
1511.797	85.76
1515.036	86.21
1518.274	85.45
1521.513	83.66
1524.751	83.39
1527.989	84.03
1531.227	83.62
1534.464	83.04
1537.701	82.89
1540.938	82.33
1544.174	82.12
1547.41	82.73
1550.646	81.91
1553.882	81.89
1557.117	82.38
1560.352	82.11
1563.587	81.11
1566.821	81.03
1570.055	80.87
1573.289	80.63
1576.523	80.61
1579.756	79.7
1582.989	79.81
1586.222	79.69
1589.454	79.39
1592.686	79.19
1595.918	78.92
1599.15	79.16
1602.381	79.19
1605.612	79.12
1608.843	78.65
1612.073	79.13
1615.303	80.1
1618.533	79.1
1621.762	79.77
1624.992	79.55
1628.221	79.36
1631.449	79.87
1634.678	79.51
1637.906	79.39
1641.134	79.43
1644.361	79.38
1647.588	79.26
1650.815	79.14
1654.042	79.19
1657.269	78.8
1660.495	79.58
1663.72	79.48
1666.946	79.06
1670.171	79.84
1673.396	80.27
1676.621	80.55
1679.845	80.94
1683.069	80.57
1686.293	80.35
1689.517	80.46
1692.74	80.48
1695.963	80.77
1699.185	81.16
1702.408	81.6
1705.63	81.69
1708.852	81.93
1712.073	81.75
1715.294	81.72
1718.515	82.64
1721.736	83.26
1724.956	83.49
1728.176	83.54
1731.396	83.57
1734.616	83.74
1737.835	83.92
1741.054	83.67
1744.272	83.7
1747.491	83.87
1750.709	84.45
1753.927	84.34
1757.144	84.62
1760.361	85.02
1763.578	85.09
1766.795	85.9
1770.011	86.07
1773.227	86.88
1776.443	88.02
1779.658	87.91
1782.874	88.28
1786.089	88.03
1789.303	88.32
1792.518	89.61
1795.732	90.11
1798.945	91.56
1802.159	91.22
1805.372	92.72
1808.585	92.9
1811.797	93.07
1815.01	94.27
1818.222	95.52
1821.434	97.22
1824.645	97.47
1827.856	98.03
1831.067	98.67
1834.278	99.39
1837.488	100.5
1840.698	100.45
1843.908	100.8
1847.117	102.44
1850.326	103.23
1853.535	103.39
1856.744	104.13
1859.952	106.28
1863.16	106.46
1866.368	106.52
1869.575	107.49
1872.782	107.17
1875.989	106.93
1879.196	106.32
1882.402	104.63
1885.608	105.87
1888.814	106.29
1892.019	106.96
1895.224	105.3
1898.429	106.02
1901.634	107.08
1904.838	106.74
1908.042	107.11
1911.246	107.98
1914.449	109.4
1917.652	110.63
1920.855	109.73
1924.058	108.05
1927.26	107.79
1930.462	108.59
1933.664	107.86
1936.865	107.89
1940.066	107.58
1943.267	106.49
1946.467	106.53
1949.668	106.45
1952.868	106.27
1956.067	106.44
1959.267	108.46
1962.466	108.84
1965.665	108.87
1968.863	109.94
1972.061	109.53
1975.259	112.62
1978.457	114.26
1981.654	115.11
1984.852	115.9
1988.048	117.45
1991.245	119.02
1994.441	121.64
1997.637	123.66
2000.833	126.48
2004.028	127.66
2007.223	132.77
2010.418	134.53
2013.613	140.1
2016.807	144.51
2020.001	147.93
2023.194	152.21
2026.388	157.08
2029.581	164.52
2032.774	168.84
2035.966	175.32
2039.158	180.11
2042.35	182.67
2045.542	185.44
2048.733	194.81
2051.924	195.36
2055.115	198.05
2058.306	199.84
2061.496	204.26
2064.686	201.81
2067.875	202.52
2071.065	201.44
2074.254	203.2
2077.442	209.93
2080.631	210.37
2083.819	209.11
2087.007	214.67
2090.195	218.47
2093.382	217.55
2096.569	218.06
2099.756	224.35
2102.942	228.28
2106.128	235.69
2109.314	235.96
2112.5	234.86
2115.685	234.22
2118.87	234.63
2122.055	235.04
2125.239	238.55
2128.424	245.09
2131.608	243.63
2134.791	240.12
2137.974	242.68
2141.157	243.98
2144.34	247.06
2147.523	250.2
2150.705	258.62
2153.887	255.49
2157.068	258.86
2160.25	260.66
2163.431	260.58
2166.611	265.73
2169.792	273.03
2172.972	276.48
2176.152	276.79
2179.331	283.27
2182.511	283.25
2185.69	286.63
2188.868	301.11
2192.047	304.6
2195.225	311.06
2198.403	312.9
2201.58	307.88
2204.758	319.59
2207.935	320.67
2211.111	324.74
2214.288	326.3
2217.464	332.29
2220.64	332.39
2223.815	330.15
2226.991	327.11
2230.166	330.44
2233.34	342.38
2236.515	353.25
2239.689	348.76
2242.863	353.36
2246.036	351.95
2249.209	361.1
2252.382	359.79
2255.555	372.68
2258.727	375.33
2261.9	388.93
2265.071	391.82
2268.243	388.69
2271.414	399.43
2274.585	403.02
2277.756	408.15
2280.926	424.6
2284.096	420.67
2287.266	423
2290.436	413.31
2293.605	424.74
2296.774	437.87
2299.942	434.2
2303.111	447.2
2306.279	454.46
2309.447	458.9
2312.614	458.88
2315.781	467.53
2318.948	478.47
2322.115	488.48
2325.281	517.34
2328.447	511.77
2331.613	513.34
2334.779	530.17
2337.944	536.1
2341.109	546.09
2344.274	549.95
2347.438	569.57
2350.602	578.26
2353.766	613.48
2356.929	615.9
2360.092	621.46
2363.255	624.09
2366.418	635.98
2369.58	646.59
2372.742	646.18
2375.904	644.44
2379.066	666.21
2382.227	697.32
2385.388	695.14
2388.548	659.51
2391.709	652.16
2394.869	675.21
2398.029	681.77
2401.188	680.15
2404.347	695.96
2407.506	721.6
2410.665	697.97
2413.823	699.51
2416.981	700.1
2420.139	667.98
2423.296	718.3
2426.453	764.57
2429.61	724.46
2432.767	767.82
2435.923	797.73
2439.079	768
2442.235	787.59
2445.391	800.88
2448.546	794.15
2451.701	837.88
2454.855	891.53
2458.009	792.44
2461.163	801.59
2464.317	813.09
2467.471	797.23
2470.624	821.41
2473.777	812.74
2476.929	786.28
2480.082	841.37
2483.234	881.99
2486.385	885.17
2489.537	910.81
2492.688	1002.16
2495.839	998.93
2498.989	1030.12
2502.14	1032.06
2505.29	985.88
2508.439	1109.22
2511.589	1135.35
2514.738	1095.67
2517.887	1085.35
2521.035	1030.91
2524.183	1007.09
2527.331	998.4
2530.479	970.24
2533.627	990.28
