Data from N_1_dec_nc_4n_037_Splice17_11.txt Node
Date: Sat Feb 29 13:48:49 EST 2020
User: sa697716
Spectrometer: FLMS03696
Trigger mode: 0
Integration Time (sec): 3.180400E-1
Scans to average: 20
Electric dark correction enabled: true
Nonlinearity correction enabled: true
Boxcar width: 5
XAxis mode: Wavelengths
Number of Pixels in Spectrum: 2048
>>>>>Begin Spectral Data<<<<<
187.83	99.67
188.298	101.38
188.766	96.62
189.233	89.89
189.701	99.49
190.169	88.26
190.636	81.34
191.104	57.29
191.571	130.35
192.039	97.66
192.506	77.39
192.974	6045.82
193.441	-158.7
193.908	81.76
194.375	113.5
194.842	189.35
195.31	74.08
195.777	59.46
196.244	72.32
196.711	79.92
197.177	78.35
197.644	77.8
198.111	78.1
198.578	78.77
199.045	79.56
199.511	79.66
199.978	79.48
200.445	79.15
200.911	79.25
201.378	78.98
201.844	79.38
202.31	79.55
202.777	79.69
203.243	79.79
203.709	79.62
204.176	78.88
204.642	77.94
205.108	77.28
205.574	77.25
206.04	76.65
206.506	75.58
206.972	74.39
207.438	73.48
207.903	72.51
208.369	70.85
208.835	69.68
209.301	68.28
209.766	66.51
210.232	65.28
210.697	63.88
211.163	62.16
211.628	61.13
212.094	59.79
212.559	58.15
213.024	56.7
213.49	55.3
213.955	53.58
214.42	52.06
214.885	50.35
215.35	48.09
215.815	44.68
216.28	41.72
216.745	37.8
217.21	34.07
217.675	30.62
218.14	27.44
218.604	24.53
219.069	22.2
219.534	20.09
219.998	18.41
220.463	17.05
220.927	15.9
221.392	14.85
221.856	14.02
222.32	13.3
222.785	12.69
223.249	12.15
223.713	11.73
224.177	11.26
224.642	10.9
225.106	10.55
225.57	10.16
226.034	9.85
226.497	9.54
226.961	9.24
227.425	8.97
227.889	8.73
228.353	8.48
228.816	8.24
229.28	8.04
229.744	7.85
230.207	7.68
230.671	7.53
231.134	7.38
231.597	7.23
232.061	7.12
232.524	6.98
232.987	6.85
233.45	6.74
233.914	6.64
234.377	6.54
234.84	6.44
235.303	6.36
235.766	6.27
236.229	6.19
236.691	6.12
237.154	6.06
237.617	6
238.08	5.94
238.542	5.87
239.005	5.79
239.468	5.73
239.93	5.67
240.393	5.61
240.855	5.53
241.317	5.48
241.78	5.42
242.242	5.33
242.704	5.27
243.166	5.2
243.629	5.16
244.091	5.1
244.553	5.05
245.015	4.98
245.477	4.91
245.939	4.86
246.4	4.8
246.862	4.75
247.324	4.72
247.786	4.68
248.247	4.64
248.709	4.58
249.17	4.54
249.632	4.49
250.093	4.44
250.555	4.41
251.016	4.37
251.477	4.34
251.939	4.3
252.4	4.25
252.861	4.2
253.322	4.16
253.783	4.15
254.244	4.11
254.705	4.08
255.166	4.06
255.627	4.03
256.088	3.98
256.549	3.94
257.009	3.91
257.47	3.88
257.931	3.85
258.391	3.81
258.852	3.77
259.312	3.74
259.773	3.7
260.233	3.65
260.694	3.62
261.154	3.59
261.614	3.55
262.074	3.51
262.534	3.47
262.994	3.43
263.455	3.4
263.915	3.37
264.374	3.34
264.834	3.31
265.294	3.28
265.754	3.25
266.214	3.22
266.673	3.21
267.133	3.19
267.593	3.17
268.052	3.16
268.512	3.14
268.971	3.11
269.431	3.1
269.89	3.08
270.349	3.07
270.809	3.06
271.268	3.05
271.727	3.04
272.186	3.03
272.645	3.01
273.104	3.01
273.563	3
274.022	2.99
274.481	2.99
274.94	2.97
275.399	2.96
275.857	2.96
276.316	2.95
276.775	2.92
277.233	2.91
277.692	2.91
278.15	2.89
278.609	2.88
279.067	2.88
279.525	2.87
279.984	2.86
280.442	2.87
280.9	2.86
281.358	2.86
281.816	2.87
282.274	2.87
282.732	2.87
283.19	2.88
283.648	2.88
284.106	2.88
284.564	2.88
285.021	2.89
285.479	2.89
285.937	2.88
286.394	2.88
286.852	2.87
287.309	2.87
287.767	2.85
288.224	2.84
288.682	2.82
289.139	2.81
289.596	2.79
290.053	2.77
290.511	2.74
290.968	2.72
291.425	2.7
291.882	2.69
292.339	2.67
292.796	2.66
293.252	2.64
293.709	2.62
294.166	2.61
294.623	2.61
295.079	2.6
295.536	2.59
295.992	2.58
296.449	2.57
296.905	2.56
297.362	2.56
297.818	2.55
298.274	2.54
298.731	2.54
299.187	2.53
299.643	2.52
300.099	2.51
300.555	2.51
301.011	2.5
301.467	2.5
301.923	2.49
302.379	2.49
302.835	2.49
303.291	2.5
303.746	2.49
304.202	2.49
304.658	2.49
305.113	2.49
305.569	2.49
306.024	2.49
306.479	2.49
306.935	2.5
307.39	2.5
307.845	2.5
308.301	2.5
308.756	2.51
309.211	2.52
309.666	2.52
310.121	2.52
310.576	2.52
311.031	2.53
311.486	2.54
311.94	2.54
312.395	2.54
312.85	2.54
313.305	2.54
313.759	2.54
314.214	2.54
314.668	2.54
315.123	2.55
315.577	2.55
316.032	2.55
316.486	2.54
316.94	2.54
317.394	2.53
317.849	2.52
318.303	2.51
318.757	2.5
319.211	2.48
319.665	2.47
320.119	2.46
320.572	2.45
321.026	2.44
321.48	2.43
321.934	2.42
322.387	2.42
322.841	2.41
323.295	2.41
323.748	2.41
324.202	2.41
324.655	2.41
325.108	2.41
325.562	2.41
326.015	2.41
326.468	2.4
326.921	2.4
327.374	2.4
327.827	2.39
328.28	2.39
328.733	2.39
329.186	2.4
329.639	2.39
330.092	2.38
330.545	2.38
330.997	2.39
331.45	2.39
331.903	2.39
332.355	2.39
332.808	2.4
333.26	2.4
333.713	2.42
334.165	2.42
334.617	2.44
335.069	2.45
335.522	2.46
335.974	2.46
336.426	2.47
336.878	2.48
337.33	2.49
337.782	2.5
338.234	2.5
338.686	2.49
339.137	2.49
339.589	2.48
340.041	2.47
340.493	2.45
340.944	2.45
341.396	2.44
341.847	2.43
342.299	2.41
342.75	2.39
343.201	2.38
343.653	2.37
344.104	2.36
344.555	2.35
345.006	2.34
345.457	2.34
345.908	2.33
346.359	2.32
346.81	2.32
347.261	2.31
347.712	2.31
348.163	2.31
348.613	2.31
349.064	2.29
349.515	2.29
349.965	2.29
350.416	2.29
350.866	2.29
351.317	2.29
351.767	2.29
352.217	2.29
352.668	2.29
353.118	2.29
353.568	2.29
354.018	2.3
354.468	2.3
354.918	2.31
355.368	2.32
355.818	2.32
356.268	2.32
356.718	2.32
357.168	2.32
357.617	2.31
358.067	2.31
358.517	2.31
358.966	2.31
359.416	2.32
359.865	2.31
360.315	2.31
360.764	2.31
361.213	2.31
361.663	2.31
362.112	2.32
362.561	2.33
363.01	2.34
363.459	2.34
363.908	2.34
364.357	2.34
364.806	2.34
365.255	2.35
365.703	2.34
366.152	2.35
366.601	2.36
367.05	2.37
367.498	2.39
367.947	2.39
368.395	2.4
368.844	2.41
369.292	2.41
369.74	2.43
370.189	2.43
370.637	2.43
371.085	2.44
371.533	2.44
371.981	2.44
372.429	2.43
372.877	2.43
373.325	2.43
373.773	2.44
374.221	2.44
374.669	2.44
375.116	2.44
375.564	2.45
376.012	2.46
376.459	2.47
376.907	2.48
377.354	2.49
377.801	2.51
378.249	2.51
378.696	2.53
379.143	2.54
379.591	2.56
380.038	2.57
380.485	2.59
380.932	2.59
381.379	2.59
381.826	2.61
382.273	2.62
382.72	2.63
383.166	2.64
383.613	2.64
384.06	2.66
384.506	2.67
384.953	2.68
385.4	2.71
385.846	2.72
386.292	2.74
386.739	2.74
387.185	2.77
387.631	2.79
388.078	2.81
388.524	2.81
388.97	2.83
389.416	2.85
389.862	2.86
390.308	2.87
390.754	2.88
391.2	2.91
391.645	2.94
392.091	2.94
392.537	2.96
392.983	2.98
393.428	3.01
393.874	3.04
394.319	3.06
394.765	3.07
395.21	3.08
395.655	3.09
396.101	3.1
396.546	3.11
396.991	3.11
397.436	3.11
397.881	3.13
398.326	3.15
398.771	3.16
399.216	3.17
399.661	3.2
400.106	3.21
400.551	3.21
400.995	3.2
401.44	3.2
401.885	3.2
402.329	3.21
402.774	3.19
403.218	3.19
403.663	3.17
404.107	3.17
404.551	3.17
404.995	3.17
405.44	3.17
405.884	3.18
406.328	3.18
406.772	3.19
407.216	3.19
407.66	3.21
408.104	3.21
408.547	3.21
408.991	3.22
409.435	3.21
409.879	3.22
410.322	3.22
410.766	3.23
411.209	3.25
411.653	3.24
412.096	3.22
412.54	3.22
412.983	3.24
413.426	3.27
413.869	3.28
414.312	3.3
414.756	3.33
415.199	3.34
415.642	3.36
416.085	3.36
416.527	3.39
416.97	3.4
417.413	3.41
417.856	3.38
418.298	3.36
418.741	3.36
419.184	3.35
419.626	3.34
420.069	3.33
420.511	3.33
420.953	3.33
421.396	3.32
421.838	3.36
422.28	3.38
422.722	3.41
423.164	3.43
423.606	3.44
424.048	3.45
424.49	3.45
424.932	3.44
425.374	3.44
425.816	3.42
426.258	3.42
426.699	3.38
427.141	3.36
427.582	3.34
428.024	3.35
428.465	3.35
428.907	3.35
429.348	3.35
429.789	3.35
430.231	3.36
430.672	3.39
431.113	3.41
431.554	3.43
431.995	3.45
432.436	3.45
432.877	3.44
433.318	3.45
433.759	3.46
434.2	3.49
434.64	3.52
435.081	3.53
435.522	3.55
435.962	3.56
436.403	3.6
436.843	3.6
437.284	3.61
437.724	3.66
438.164	3.67
438.604	3.69
439.045	3.69
439.485	3.69
439.925	3.7
440.365	3.69
440.805	3.68
441.245	3.66
441.685	3.68
442.125	3.69
442.564	3.68
443.004	3.7
443.444	3.71
443.883	3.75
444.323	3.74
444.762	3.77
445.202	3.81
445.641	3.83
446.081	3.85
446.52	3.84
446.959	3.87
447.398	3.9
447.837	3.91
448.276	3.91
448.716	3.91
449.154	3.95
449.593	3.96
450.032	3.97
450.471	3.98
450.91	3.99
451.349	4.01
451.787	4.01
452.226	3.99
452.664	3.97
453.103	3.96
453.541	3.94
453.98	3.91
454.418	3.87
454.856	3.84
455.295	3.83
455.733	3.8
456.171	3.78
456.609	3.77
457.047	3.76
457.485	3.77
457.923	3.76
458.361	3.75
458.798	3.77
459.236	3.77
459.674	3.77
460.111	3.76
460.549	3.77
460.987	3.77
461.424	3.77
461.862	3.8
462.299	3.8
462.736	3.82
463.173	3.82
463.611	3.82
464.048	3.84
464.485	3.86
464.922	3.86
465.359	3.88
465.796	3.87
466.233	3.88
466.67	3.9
467.106	3.88
467.543	3.89
467.98	3.89
468.416	3.89
468.853	3.88
469.29	3.88
469.726	3.88
470.162	3.88
470.599	3.89
471.035	3.88
471.471	3.85
471.907	3.84
472.344	3.82
472.78	3.83
473.216	3.83
473.652	3.8
474.088	3.8
474.523	3.81
474.959	3.78
475.395	3.77
475.831	3.74
476.266	3.75
476.702	3.73
477.138	3.71
477.573	3.68
478.008	3.67
478.444	3.66
478.879	3.64
479.314	3.62
479.75	3.62
480.185	3.59
480.62	3.6
481.055	3.57
481.49	3.55
481.925	3.54
482.36	3.52
482.795	3.51
483.229	3.5
483.664	3.49
484.099	3.48
484.534	3.47
484.968	3.46
485.403	3.46
485.837	3.47
486.271	3.49
486.706	3.5
487.14	3.52
487.574	3.52
488.009	3.55
488.443	3.57
488.877	3.59
489.311	3.6
489.745	3.63
490.179	3.65
490.613	3.67
491.046	3.69
491.48	3.73
491.914	3.76
492.348	3.8
492.781	3.82
493.215	3.86
493.648	3.9
494.082	3.96
494.515	4
494.948	4.05
495.382	4.11
495.815	4.17
496.248	4.22
496.681	4.28
497.114	4.35
497.547	4.43
497.98	4.5
498.413	4.58
498.846	4.68
499.279	4.77
499.711	4.87
500.144	4.95
500.577	5.06
501.009	5.17
501.442	5.29
501.874	5.41
502.306	5.55
502.739	5.68
503.171	5.83
503.603	5.97
504.036	6.12
504.468	6.3
504.9	6.48
505.332	6.66
505.764	6.84
506.196	7.03
506.627	7.23
507.059	7.43
507.491	7.65
507.923	7.88
508.354	8.12
508.786	8.36
509.217	8.58
509.649	8.84
510.08	9.11
510.512	9.36
510.943	9.64
511.374	9.93
511.805	10.21
512.237	10.5
512.668	10.78
513.099	11.09
513.53	11.4
513.961	11.74
514.391	12.04
514.822	12.35
515.253	12.69
515.684	13.01
516.114	13.35
516.545	13.69
516.975	14.05
517.406	14.4
517.836	14.74
518.267	15.09
518.697	15.43
519.127	15.79
519.558	16.13
519.988	16.48
520.418	16.82
520.848	17.14
521.278	17.48
521.708	17.64
522.138	17.95
522.567	18.23
522.997	18.53
523.427	18.81
523.857	19.09
524.286	19.37
524.716	19.64
525.145	19.91
525.575	20.14
526.004	20.38
526.433	20.78
526.863	21.03
527.292	21.26
527.721	21.47
528.15	21.69
528.579	21.91
529.008	22.11
529.437	22.29
529.866	22.46
530.295	22.65
530.724	22.83
531.152	22.98
531.581	23.11
532.01	23.26
532.438	23.39
532.867	23.5
533.295	23.59
533.723	23.72
534.152	23.83
534.58	23.93
535.008	24.02
535.436	24.09
535.865	24.16
536.293	24.23
536.721	24.31
537.149	24.38
537.576	24.47
538.004	24.52
538.432	24.56
538.86	24.62
539.287	24.67
539.715	24.71
540.143	24.74
540.57	24.8
540.998	24.84
541.425	24.88
541.852	24.91
542.28	24.92
542.707	24.96
543.134	24.99
543.561	25
543.988	25.03
544.415	25.08
544.842	25.13
545.269	25.15
545.696	25.18
546.123	25.22
546.549	25.24
546.976	25.27
547.403	25.3
547.829	25.33
548.256	25.35
548.682	25.36
549.108	25.36
549.535	25.35
549.961	25.36
550.387	25.38
550.813	25.36
551.24	25.36
551.666	25.36
552.092	25.37
552.518	25.35
552.943	25.34
553.369	25.32
553.795	25.29
554.221	25.28
554.646	25.24
555.072	25.22
555.498	25.19
555.923	25.14
556.349	25.05
556.774	24.98
557.199	24.92
557.625	24.85
558.05	24.77
558.475	24.68
558.9	24.59
559.325	24.49
559.75	24.37
560.175	24.25
560.6	24.12
561.025	24.01
561.449	23.88
561.874	23.74
562.299	23.59
562.723	23.46
563.148	23.32
563.572	23.17
563.997	23
564.421	22.84
564.846	22.68
565.27	22.52
565.694	22.34
566.118	22.17
566.542	22.02
566.966	21.84
567.39	21.65
567.814	21.46
568.238	21.27
568.662	21.08
569.086	20.9
569.509	20.71
569.933	20.52
570.357	20.34
570.78	20.17
571.204	19.97
571.627	19.78
572.05	19.61
572.474	19.44
572.897	19.29
573.32	19.14
573.743	18.98
574.166	18.83
574.589	18.68
575.012	18.56
575.435	18.4
575.858	18.26
576.281	18.15
576.704	18.03
577.126	17.9
577.549	17.79
577.972	17.67
578.394	17.54
578.817	17.43
579.239	17.32
579.661	17.19
580.084	17.08
580.506	16.98
580.928	16.87
581.35	16.76
581.772	16.69
582.194	16.59
582.616	16.51
583.038	16.44
583.46	16.36
583.882	16.27
584.303	16.19
584.725	16.11
585.147	16.01
585.568	15.93
585.99	15.86
586.411	15.78
586.833	15.7
587.254	15.62
587.675	15.54
588.096	15.49
588.518	15.43
588.939	15.38
589.36	15.32
589.781	15.28
590.202	15.23
590.623	15.17
591.043	15.11
591.464	15.04
591.885	14.99
592.305	14.96
592.726	14.9
593.147	14.85
593.567	14.79
593.987	14.75
594.408	14.7
594.828	14.64
595.248	14.61
595.669	14.59
596.089	14.56
596.509	14.5
596.929	14.45
597.349	14.39
597.769	14.34
598.189	14.3
598.608	14.24
599.028	14.19
599.448	14.17
599.867	14.12
600.287	14.06
600.706	14.01
601.126	13.97
601.545	13.92
601.965	13.87
602.384	13.82
602.803	13.75
603.222	13.69
603.641	13.63
604.061	13.54
604.48	13.47
604.898	13.39
605.317	13.31
605.736	13.22
606.155	13.14
606.574	13.06
606.992	12.97
607.411	12.89
607.829	12.77
608.248	12.71
608.666	12.63
609.085	12.55
609.503	12.47
609.921	12.38
610.339	12.28
610.758	12.2
611.176	12.11
611.594	12.02
612.012	11.95
612.43	11.91
612.847	11.82
613.265	11.74
613.683	11.66
614.101	11.58
614.518	11.5
614.936	11.43
615.353	11.34
615.771	11.28
616.188	11.23
616.606	11.15
617.023	11.09
617.44	11.02
617.857	10.95
618.274	10.89
618.691	10.84
619.108	10.79
619.525	10.74
619.942	10.71
620.359	10.67
620.776	10.63
621.192	10.6
621.609	10.56
622.026	10.53
622.442	10.5
622.859	10.49
623.275	10.47
623.691	10.46
624.108	10.45
624.524	10.41
624.94	10.41
625.356	10.39
625.772	10.37
626.188	10.37
626.604	10.35
627.02	10.34
627.436	10.33
627.852	10.32
628.268	10.29
628.683	10.27
629.099	10.26
629.514	10.24
629.93	10.22
630.345	10.18
630.761	10.14
631.176	10.1
631.591	10.05
632.007	10
632.422	9.95
632.837	9.89
633.252	9.84
633.667	9.76
634.082	9.68
634.497	9.59
634.911	9.5
635.326	9.41
635.741	9.31
636.155	9.2
636.57	9.08
636.984	8.94
637.399	8.81
637.813	8.67
638.228	8.54
638.642	8.42
639.056	8.3
639.47	8.17
639.884	8.04
640.298	7.91
640.712	7.78
641.126	7.65
641.54	7.53
641.954	7.42
642.368	7.29
642.781	7.17
643.195	7.04
643.609	6.92
644.022	6.82
644.436	6.71
644.849	6.61
645.262	6.51
645.676	6.42
646.089	6.33
646.502	6.24
646.915	6.17
647.328	6.11
647.741	6.04
648.154	5.99
648.567	5.94
648.98	5.88
649.393	5.83
649.805	5.79
650.218	5.76
650.631	5.74
651.043	5.71
651.456	5.67
651.868	5.63
652.28	5.6
652.693	5.55
653.105	5.5
653.517	5.47
653.929	5.45
654.341	5.4
654.753	5.36
655.165	5.31
655.577	5.26
655.989	5.19
656.401	5.13
656.813	5.07
657.224	5.03
657.636	4.96
658.047	4.89
658.459	4.81
658.87	4.74
659.282	4.67
659.693	4.6
660.104	4.53
660.515	4.47
660.926	4.41
661.338	4.35
661.749	4.28
662.159	4.23
662.57	4.17
662.981	4.13
663.392	4.08
663.803	4.03
664.213	3.99
664.624	3.96
665.035	3.92
665.445	3.89
665.855	3.87
666.266	3.85
666.676	3.82
667.086	3.79
667.497	3.77
667.907	3.76
668.317	3.73
668.727	3.72
669.137	3.7
669.547	3.72
669.956	3.71
670.366	3.72
670.776	3.72
671.186	3.73
671.595	3.77
672.005	3.79
672.414	3.8
672.824	3.84
673.233	3.87
673.642	3.9
674.052	3.93
674.461	3.96
674.87	3.99
675.279	4.03
675.688	4.07
676.097	4.1
676.506	4.14
676.915	4.18
677.323	4.23
677.732	4.29
678.141	4.34
678.549	4.4
678.958	4.46
679.366	4.52
679.775	4.59
680.183	4.66
680.592	4.74
681	4.81
681.408	4.91
681.816	5
682.224	5.09
682.632	5.22
683.04	5.33
683.448	5.47
683.856	5.62
684.264	5.79
684.671	5.98
685.079	6.18
685.487	6.43
685.894	6.68
686.302	6.94
686.709	7.26
687.116	7.57
687.524	7.92
687.931	8.31
688.338	8.71
688.745	9.14
689.152	9.61
689.559	10.12
689.966	10.63
690.373	11.18
690.78	11.74
691.187	12.32
691.593	12.92
692	13.55
692.407	14.21
692.813	14.89
693.22	15.58
693.626	16.25
694.032	16.94
694.439	17.66
694.845	18.36
695.251	19.07
695.657	19.78
696.063	20.49
696.469	21.22
696.875	21.9
697.281	22.56
697.687	23.24
698.093	23.95
698.498	24.61
698.904	25.29
699.31	25.93
699.715	26.56
700.12	27.19
700.526	27.82
700.931	28.41
701.337	29.01
701.742	29.61
702.147	30.19
702.552	30.75
702.957	31.32
703.362	31.86
703.767	32.39
704.172	32.93
704.577	33.45
704.981	33.97
705.386	34.46
705.791	34.98
706.195	35.48
706.6	35.94
707.004	36.39
707.408	36.82
707.813	37.25
708.217	37.68
708.621	38.11
709.025	38.53
709.43	38.93
709.834	39.36
710.237	39.73
710.641	40.13
711.045	40.51
711.449	40.89
711.853	41.28
712.256	41.64
712.66	42
713.064	42.36
713.467	42.7
713.87	43.06
714.274	43.38
714.677	43.69
715.08	43.99
715.484	44.32
715.887	44.66
716.29	44.95
716.693	45.25
717.096	45.57
717.499	45.86
717.901	46.15
718.304	46.41
718.707	46.69
719.109	46.99
719.512	47.27
719.915	47.51
720.317	47.75
720.719	48
721.122	48.22
721.524	48.45
721.926	48.68
722.328	48.92
722.731	49.13
723.133	49.33
723.535	49.54
723.937	49.74
724.338	49.93
724.74	50.12
725.142	50.25
725.544	50.4
725.945	50.55
726.347	50.73
726.748	50.82
727.15	50.97
727.551	51.17
727.952	51.26
728.354	51.41
728.755	51.57
729.156	51.67
729.557	51.86
729.958	52.02
730.359	52.15
730.76	52.18
731.161	52.33
731.562	52.43
731.962	52.46
732.363	52.57
732.763	52.68
733.164	52.74
733.564	52.84
733.965	52.88
734.365	52.92
734.766	52.99
735.166	53.09
735.566	53.13
735.966	53.17
736.366	53.24
736.766	53.29
737.166	53.29
737.566	53.33
737.966	53.4
738.365	53.46
738.765	53.51
739.165	53.52
739.564	53.54
739.964	53.6
740.363	53.66
740.763	53.7
741.162	53.76
741.561	53.82
741.96	53.86
742.36	53.88
742.759	53.85
743.158	53.88
743.557	53.95
743.955	54.02
744.354	54.08
744.753	54.09
745.152	54.1
745.55	54.14
745.949	54.15
746.348	54.15
746.746	54.15
747.144	54.24
747.543	54.26
747.941	54.31
748.339	54.32
748.737	54.35
749.136	54.41
749.534	54.47
749.932	54.45
750.33	54.46
750.727	54.49
751.125	54.52
751.523	54.5
751.921	54.52
752.318	54.48
752.716	54.44
753.113	54.42
753.511	54.37
753.908	54.34
754.305	54.34
754.703	54.34
755.1	54.33
755.497	54.34
755.894	54.35
756.291	54.33
756.688	54.32
757.085	54.35
757.482	54.34
757.878	54.37
758.275	54.35
758.672	54.37
759.068	54.38
759.465	54.36
759.861	54.35
760.258	54.33
760.654	54.33
761.05	54.32
761.447	54.32
761.843	54.32
762.239	54.3
762.635	54.3
763.031	54.28
763.427	54.23
763.822	54.22
764.218	54.19
764.614	54.2
765.01	54.19
765.405	54.19
765.801	54.14
766.196	54.12
766.592	54.11
766.987	54.09
767.382	54.09
767.778	54.1
768.173	54.1
768.568	54.06
768.963	54.08
769.358	54.06
769.753	54.08
770.148	54.1
770.542	54.11
770.937	54.1
771.332	54.11
771.726	54.08
772.121	54.04
772.515	53.99
772.91	54.01
773.304	53.97
773.699	53.96
774.093	53.91
774.487	53.91
774.881	53.89
775.275	53.91
775.669	53.91
776.063	53.9
776.457	53.93
776.851	53.96
777.245	54.01
777.638	54.03
778.032	54.05
778.425	54.09
778.819	54.1
779.212	54.1
779.606	54.09
779.999	54.07
780.392	54.07
780.786	54.07
781.179	54.09
781.572	54.07
781.965	54.05
782.358	54.04
782.751	54.05
783.143	54.07
783.536	54.08
783.929	54.08
784.322	54.13
784.714	54.14
785.107	54.15
785.499	54.15
785.891	54.18
786.284	54.16
786.676	54.21
787.068	54.19
787.46	54.17
787.852	54.2
788.245	54.22
788.636	54.21
789.028	54.21
789.42	54.21
789.812	54.18
790.204	54.11
790.595	54.12
790.987	54.1
791.378	54.11
791.77	54.11
792.161	54.08
792.553	54.04
792.944	54.04
793.335	54.05
793.726	54.03
794.117	54.04
794.508	54.05
794.899	54.09
795.29	54.08
795.681	54.07
796.072	54.06
796.463	54.06
796.853	54.08
797.244	54.08
797.634	54.08
798.025	54.11
798.415	54.1
798.806	54.16
799.196	54.19
799.586	54.19
799.976	54.18
800.366	54.18
800.756	54.2
801.146	54.18
801.536	54.17
801.926	54.14
802.316	54.17
802.706	54.2
803.095	54.17
803.485	54.13
803.874	54.13
804.264	54.18
804.653	54.17
805.043	54.19
805.432	54.16
805.821	54.15
806.21	54.19
806.599	54.19
806.988	54.19
807.377	54.18
807.766	54.16
808.155	54.16
808.544	54.11
808.933	54.13
809.321	54.11
809.71	54.18
810.098	54.23
810.487	54.24
810.875	54.22
811.264	54.2
811.652	54.21
812.04	54.21
812.428	54.21
812.816	54.2
813.204	54.18
813.592	54.19
813.98	54.12
814.368	54.09
814.756	54.08
815.144	54.05
815.531	54.06
815.919	54.07
816.306	54.06
816.694	54.06
817.081	54.05
817.469	54.05
817.856	54.12
818.243	54.13
818.63	54.15
819.017	54.16
819.404	54.18
819.791	54.22
820.178	54.22
820.565	54.24
820.952	54.25
821.339	54.31
821.725	54.34
822.112	54.29
822.498	54.32
822.885	54.32
823.271	54.36
823.657	54.35
824.044	54.31
824.43	54.33
824.816	54.34
825.202	54.35
825.588	54.32
825.974	54.33
826.36	54.31
826.746	54.33
827.132	54.3
827.517	54.26
827.903	54.28
828.289	54.3
828.674	54.28
829.06	54.31
829.445	54.31
829.83	54.35
830.216	54.35
830.601	54.37
830.986	54.37
831.371	54.43
831.756	54.42
832.141	54.44
832.526	54.44
832.911	54.46
833.295	54.42
833.68	54.41
834.065	54.4
834.449	54.39
834.834	54.39
835.218	54.37
835.603	54.33
835.987	54.34
836.371	54.33
836.755	54.31
837.139	54.29
837.524	54.31
837.908	54.26
838.291	54.24
838.675	54.24
839.059	54.21
839.443	54.2
839.827	54.18
840.21	54.19
840.594	54.17
840.977	54.18
841.361	54.19
841.744	54.2
842.127	54.23
842.511	54.22
842.894	54.17
843.277	54.18
843.66	54.22
844.043	54.23
844.426	54.24
844.809	54.23
845.191	54.2
845.574	54.18
845.957	54.13
846.339	54.13
846.722	54.14
847.104	54.17
847.487	54.19
847.869	54.16
848.252	54.17
848.634	54.15
849.016	54.16
849.398	54.15
849.78	54.13
850.162	54.14
850.544	54.15
850.926	54.13
851.307	54.13
851.689	54.08
852.071	54.07
852.452	54.07
852.834	54.07
853.215	54.05
853.597	54.06
853.978	54.05
854.359	54.05
854.741	54.03
855.122	54.03
855.503	54.04
855.884	54.06
856.265	54.03
856.646	54.03
857.026	54.02
857.407	53.98
857.788	54
858.169	54.03
858.549	54.04
858.93	54.05
859.31	54.04
859.69	54.01
860.071	54
860.451	54.03
860.831	54.02
861.211	54.01
861.591	54.08
861.971	54.04
862.351	54.06
862.731	54.04
863.111	54.03
863.491	54.05
863.87	54.06
864.25	54.08
864.629	54.07
865.009	54.05
865.388	54.02
865.768	53.99
866.147	54.01
866.526	53.99
866.905	53.99
867.284	53.99
867.663	54
868.042	53.98
868.421	53.95
868.8	53.96
869.179	53.98
869.558	54
869.936	53.96
870.315	53.94
870.693	53.98
871.072	53.97
871.45	53.94
871.828	53.92
872.207	53.96
872.585	53.98
872.963	53.95
873.341	53.95
873.719	53.99
874.097	54.03
874.475	54.02
874.853	53.98
875.23	53.97
875.608	54
875.986	54
876.363	54
876.741	54.01
877.118	54.03
877.495	54.02
877.873	53.99
878.25	53.97
878.627	54
879.004	54
879.381	54
879.758	53.97
880.135	53.97
880.512	53.98
880.889	53.95
881.265	53.97
881.642	53.96
882.019	53.98
882.395	53.98
882.772	53.97
883.148	53.94
883.524	53.97
883.901	53.99
884.277	54
884.653	53.99
885.029	53.99
885.405	53.95
885.781	53.91
886.157	53.93
886.532	53.92
886.908	53.94
887.284	53.95
887.659	53.93
888.035	53.91
888.411	53.87
888.786	53.83
889.161	53.81
889.537	53.84
889.912	53.85
890.287	53.83
890.662	53.82
891.037	53.78
891.412	53.73
891.787	53.69
892.162	53.67
892.536	53.68
892.911	53.68
893.286	53.65
893.66	53.63
894.035	53.64
894.409	53.62
894.784	53.59
895.158	53.58
895.532	53.58
895.906	53.58
896.281	53.57
896.655	53.55
897.029	53.51
897.402	53.52
897.776	53.53
898.15	53.52
898.524	53.52
898.898	53.51
899.271	53.51
899.645	53.51
900.018	53.51
900.392	53.54
900.765	53.55
901.138	53.6
901.511	53.59
901.884	53.58
902.258	53.55
902.631	53.55
903.003	53.59
903.376	53.59
903.749	53.62
904.122	53.64
904.495	53.61
904.867	53.6
905.24	53.58
905.612	53.57
905.985	53.57
906.357	53.56
906.729	53.54
907.102	53.5
907.474	53.5
907.846	53.45
908.218	53.43
908.59	53.41
908.962	53.4
909.334	53.39
909.705	53.39
910.077	53.39
910.449	53.41
910.82	53.41
911.192	53.39
911.563	53.37
911.935	53.37
912.306	53.39
912.677	53.41
913.048	53.4
913.419	53.39
913.79	53.4
914.161	53.33
914.532	53.31
914.903	53.29
915.274	53.32
915.645	53.34
916.015	53.4
916.386	53.38
916.756	53.34
917.127	53.36
917.497	53.36
917.868	53.35
918.238	53.4
918.608	53.43
918.978	53.45
919.348	53.44
919.718	53.4
920.088	53.38
920.458	53.42
920.828	53.42
921.198	53.45
921.567	53.46
921.937	53.47
922.306	53.46
922.676	53.48
923.045	53.45
923.415	53.48
923.784	53.5
924.153	53.48
924.522	53.44
924.891	53.44
925.26	53.38
925.629	53.33
925.998	53.33
926.367	53.34
926.736	53.29
927.104	53.3
927.473	53.3
927.842	53.31
928.21	53.38
928.578	53.36
928.947	53.36
929.315	53.4
929.683	53.44
930.051	53.41
930.42	53.4
930.788	53.4
931.156	53.41
931.523	53.41
931.891	53.34
932.259	53.27
932.627	53.26
932.994	53.26
933.362	53.19
933.729	53.16
934.097	53.14
934.464	53.11
934.831	53.11
935.199	53.1
935.566	53.03
935.933	53.1
936.3	53.06
936.667	53.03
937.034	53.02
937.401	53.04
937.767	53.05
938.134	53.06
938.501	53.09
938.867	53.15
939.234	53.22
939.6	53.25
939.967	53.3
940.333	53.46
940.699	53.64
941.065	53.74
941.431	53.86
941.798	53.98
942.163	54.1
942.529	54.2
942.895	54.27
943.261	54.27
943.627	54.32
943.992	54.36
944.358	54.34
944.723	54.24
945.089	54.26
945.454	54.31
945.82	54.24
946.185	54.21
946.55	54.18
946.915	54.15
947.28	54.09
947.645	54.06
948.01	54.01
948.375	53.95
948.74	53.95
949.104	53.93
949.469	53.79
949.834	53.74
950.198	53.61
950.562	53.59
950.927	53.6
951.291	53.52
951.655	53.5
952.02	53.5
952.384	53.54
952.748	53.47
953.112	53.39
953.476	53.42
953.839	53.43
954.203	53.42
954.567	53.37
954.931	53.28
955.294	53.31
955.658	53.29
956.021	53.22
956.385	53.19
956.748	53.17
957.111	53.15
957.474	53.06
957.837	53.05
958.2	53.04
958.563	53.01
958.926	52.98
959.289	52.96
959.652	52.94
960.015	52.95
960.377	52.94
960.74	52.92
961.102	52.91
961.465	52.95
961.827	52.84
962.189	52.84
962.552	52.79
962.914	52.82
963.276	52.81
963.638	52.75
964	52.73
964.362	52.72
964.724	52.72
965.085	52.68
965.447	52.65
965.809	52.62
966.17	52.6
966.532	52.58
966.893	52.59
967.255	52.52
967.616	52.59
967.977	52.53
968.338	52.49
968.699	52.5
969.061	52.49
969.421	52.5
969.782	52.59
970.143	52.61
970.504	52.6
970.865	52.47
971.225	52.51
971.586	52.53
971.946	52.57
972.307	52.58
972.667	52.55
973.027	52.65
973.388	52.65
973.748	52.59
974.108	52.52
974.468	52.58
974.828	52.67
975.188	52.67
975.548	52.55
975.907	52.56
976.267	52.52
976.627	52.53
976.986	52.43
977.346	52.43
977.705	52.49
978.064	52.59
978.424	52.58
978.783	52.58
979.142	52.63
979.501	52.69
979.86	52.75
980.219	52.8
980.578	52.78
980.937	52.9
981.296	52.94
981.654	53.04
982.013	53.03
982.371	53.05
982.73	53.08
983.088	53.06
983.447	53.04
983.805	52.97
984.163	52.98
984.521	52.99
984.879	52.97
985.237	52.96
985.595	52.98
985.953	52.98
986.311	53.01
986.669	53.02
987.026	53.11
987.384	53.18
987.741	53.32
988.099	53.37
988.456	53.41
988.814	53.35
989.171	53.34
989.528	53.17
989.885	53.23
990.242	53.33
990.599	53.34
990.956	53.29
991.313	53.26
991.67	53.18
992.027	53.14
992.383	53.24
992.74	53.28
993.096	53.26
993.453	53.45
993.809	53.48
994.165	53.41
994.522	53.45
994.878	53.39
995.234	53.52
995.59	53.49
995.946	53.58
996.302	53.54
996.658	53.56
997.013	53.67
997.369	53.7
997.725	53.8
998.08	53.81
998.436	53.87
998.791	54.01
999.147	54.03
999.502	54.16
999.857	54.21
1000.212	54.16
1000.567	54.18
1000.922	54.26
1001.277	54.21
1001.632	54.28
1001.987	54.27
1002.342	54.36
1002.696	54.38
1003.051	54.41
1003.406	54.46
1003.76	54.49
1004.114	54.66
1004.469	54.75
1004.823	54.82
1005.177	55.07
1005.531	54.95
1005.885	55.18
1006.239	55.06
1006.593	55.13
1006.947	55.1
1007.301	55.18
1007.655	55.32
1008.008	55.4
1008.362	55.48
1008.715	55.49
1009.069	55.39
1009.422	55.29
1009.776	55.4
1010.129	55.42
1010.482	55.56
1010.835	55.7
1011.188	55.57
1011.541	55.49
1011.894	55.54
1012.247	55.5
1012.6	55.59
1012.952	55.58
1013.305	55.81
1013.657	55.61
1014.01	55.82
1014.362	55.79
1014.715	55.75
1015.067	55.94
1015.419	55.98
1015.771	56.2
1016.123	56.4
1016.475	56.48
1016.827	56.78
1017.179	56.91
1017.531	57.02
1017.883	57.14
1018.234	57.24
1018.586	57.42
1018.938	57.33
1019.289	57.53
1019.64	57.64
1019.992	57.68
1020.343	57.79
1020.694	57.68
1021.045	57.93
1021.396	58.31
1021.747	58.58
1022.098	58.86
1022.449	58.98
1022.8	59.2
1023.151	59.24
1023.501	59.25
1023.852	59.51
1024.202	59.35
1024.553	59.43
1024.903	59.25
1025.253	59.17
1025.604	59.08
1025.954	59.17
1026.304	59.71
1026.654	60.13
1027.004	60.56
1027.354	60.52
1027.703	60.78
1028.053	60.97
1028.403	61.05
1028.753	61.57
1029.102	61.92
1029.452	62.36
1029.801	62.56
1030.15	62.3
1030.499	62.36
897.758	551.24
901.051	565.54
904.343	569.09
907.636	559.9
910.928	550.44
914.22	562.95
917.511	548.93
920.803	528.73
924.094	507.94
927.384	511.99
930.675	495.24
933.965	492.16
937.255	490.47
940.544	470.23
943.834	448.52
947.123	442.71
950.411	417.6
953.7	410.97
956.988	398.57
960.276	378.01
963.563	376.04
966.851	356.05
970.138	349.97
973.424	324.99
976.711	321.94
979.997	311.45
983.283	303.22
986.568	294.05
989.853	285.76
993.138	275.58
996.423	273.18
999.708	263.8
1002.992	264.59
1006.275	258.83
1009.559	257.15
1012.842	248.58
1016.125	241.08
1019.408	237.19
1022.69	235.87
1025.972	234.85
1029.254	227.24
1032.536	223.83
1035.817	216.39
1039.098	215.01
1042.379	208.19
1045.659	205.69
1048.939	203.76
1052.219	201.52
1055.498	197.48
1058.778	193.23
1062.057	188.66
1065.335	189.28
1068.614	185.65
1071.892	182.8
1075.17	179.41
1078.447	177.2
1081.724	175.19
1085.001	172.6
1088.278	171.74
1091.554	170.85
1094.83	169.4
1098.106	167.17
1101.382	166.11
1104.657	166.49
1107.932	165.92
1111.206	164.28
1114.481	163.7
1117.755	161.78
1121.029	160.83
1124.302	158.45
1127.575	156.28
1130.848	155.87
1134.121	154.36
1137.393	154.29
1140.665	152.35
1143.937	150.86
1147.208	148.55
1150.48	146.91
1153.75	147.2
1157.021	145.93
1160.291	145.28
1163.561	145.75
1166.831	143.88
1170.101	143.72
1173.37	143.09
1176.639	141.63
1179.907	142.07
1183.176	142.02
1186.444	141.42
1189.711	140.31
1192.979	141.75
1196.246	141.75
1199.513	140.46
1202.78	141.91
1206.046	141.32
1209.312	140.85
1212.578	141.69
1215.843	143.24
1219.108	144.12
1222.373	147.09
1225.638	148.98
1228.902	151.63
1232.166	155.68
1235.43	158.76
1238.693	162.32
1241.956	166.51
1245.219	171.32
1248.482	173.98
1251.744	172.69
1255.006	173.56
1258.268	168.96
1261.529	168.14
1264.79	163.06
1268.051	160.61
1271.312	158.09
1274.572	154.56
1277.832	150.38
1281.092	148.44
1284.351	144.43
1287.61	144.9
1290.869	143.91
1294.128	143.55
1297.386	142.65
1300.644	142.38
1303.902	141.61
1307.159	141.87
1310.416	142.36
1313.673	144.8
1316.93	145.69
1320.186	148.08
1323.442	150.08
1326.697	152.79
1329.953	153.62
1333.208	159.66
1336.463	165.15
1339.717	168.13
1342.972	174.87
1346.226	180.56
1349.479	181.91
1352.733	189.41
1355.986	192.98
1359.238	196.74
1362.491	198.73
1365.743	207.5
1368.995	207.04
1372.247	207.42
1375.498	206.29
1378.749	213.18
1382	211.23
1385.251	210.96
1388.501	209.68
1391.751	212.2
1395	209.97
1398.25	211.2
1401.499	209.76
1404.748	209.56
1407.996	205.38
1411.244	206.46
1414.492	202.46
1417.74	196.65
1420.987	192.19
1424.234	189.09
1427.481	182.76
1430.728	177.89
1433.974	171.08
1437.22	165.86
1440.465	159.63
1443.711	154.97
1446.956	149.67
1450.201	144.11
1453.445	138.78
1456.689	134.68
1459.933	130.95
1463.177	125.13
1466.42	122.77
1469.663	119.83
1472.906	115.88
1476.148	113.24
1479.391	111.38
1482.633	109.84
1485.874	108.15
1489.115	107.26
1492.356	105.23
1495.597	103.16
1498.838	103.68
1502.078	102.93
1505.318	102.59
1508.557	101.62
1511.797	100.91
1515.036	100.91
1518.274	100.39
1521.513	99.43
1524.751	98.89
1527.989	99.89
1531.227	99.92
1534.464	98.89
1537.701	98.28
1540.938	98.01
1544.174	98.82
1547.41	98.46
1550.646	97.51
1553.882	97.95
1557.117	97.2
1560.352	97.44
1563.587	95.8
1566.821	95.94
1570.055	95.49
1573.289	95.06
1576.523	95.36
1579.756	94.08
1582.989	94.77
1586.222	94.82
1589.454	94.58
1592.686	94.51
1595.918	93.84
1599.15	94.48
1602.381	94.6
1605.612	94.88
1608.843	94.62
1612.073	95.16
1615.303	95.89
1618.533	95.31
1621.762	95.45
1624.992	95.06
1628.221	95.3
1631.449	95.96
1634.678	95.48
1637.906	94.95
1641.134	95.04
1644.361	95.39
1647.588	94.79
1650.815	94.6
1654.042	95.12
1657.269	94.94
1660.495	95.41
1663.72	95.7
1666.946	95.38
1670.171	96.18
1673.396	96.84
1676.621	97.77
1679.845	97.69
1683.069	97.69
1686.293	97.6
1689.517	97.58
1692.74	97.78
1695.963	97.73
1699.185	97.96
1702.408	98.51
1705.63	98.51
1708.852	98.97
1712.073	97.83
1715.294	98.06
1718.515	98.87
1721.736	99.16
1724.956	99.05
1728.176	99.13
1731.396	99.65
1734.616	99.7
1737.835	99.74
1741.054	99.17
1744.272	99
1747.491	99.72
1750.709	100.31
1753.927	100.01
1757.144	100.24
1760.361	100.62
1763.578	101.15
1766.795	101.45
1770.011	101.36
1773.227	101.81
1776.443	103.32
1779.658	103.4
1782.874	104.35
1786.089	104.22
1789.303	104.45
1792.518	105.17
1795.732	106.17
1798.945	106.72
1802.159	106.72
1805.372	108.57
1808.585	109.09
1811.797	109.12
1815.01	110.1
1818.222	110.16
1821.434	111.24
1824.645	112.05
1827.856	113.62
1831.067	113.99
1834.278	115.01
1837.488	116.14
1840.698	117.01
1843.908	117.13
1847.117	118.49
1850.326	119.44
1853.535	119.51
1856.744	120.96
1859.952	122.09
1863.16	121.78
1866.368	120.77
1869.575	121.56
1872.782	120.68
1875.989	120.05
1879.196	119.1
1882.402	117.83
1885.608	118.22
1888.814	117.68
1892.019	117.84
1895.224	115.35
1898.429	115.5
1901.634	116.97
1904.838	116.27
1908.042	116.8
1911.246	115.99
1914.449	116.81
1917.652	117
1920.855	116.85
1924.058	117.16
1927.26	116.37
1930.462	117.4
1933.664	117.21
1936.865	116.74
1940.066	115.92
1943.267	115.52
1946.467	116.43
1949.668	116.39
1952.868	117.33
1956.067	117.11
1959.267	118.3
1962.466	118.79
1965.665	119.68
1968.863	120.29
1972.061	120.79
1975.259	123.98
1978.457	124.13
1981.654	124.88
1984.852	126.54
1988.048	127.6
1991.245	129.35
1994.441	130.87
1997.637	133.43
2000.833	136.62
2004.028	138.08
2007.223	143.07
2010.418	145.06
2013.613	153.12
2016.807	157.77
2020.001	160.67
2023.194	164.6
2026.388	170.39
2029.581	178.33
2032.774	184.86
2035.966	189.49
2039.158	195.72
2042.35	197.5
2045.542	201.23
2048.733	208.15
2051.924	209.21
2055.115	214.05
2058.306	216.41
2061.496	220.44
2064.686	220.53
2067.875	217.99
2071.065	221.84
2074.254	222.51
2077.442	230.02
2080.631	231.23
2083.819	231.96
2087.007	236.41
2090.195	238.94
2093.382	240.68
2096.569	240.97
2099.756	245.83
2102.942	251.88
2106.128	256.35
2109.314	257.15
2112.5	256.66
2115.685	256.24
2118.87	256.45
2122.055	260.68
2125.239	264.82
2128.424	269.69
2131.608	268.39
2134.791	266.49
2137.974	268.36
2141.157	268.43
2144.34	272.34
2147.523	276.46
2150.705	283.64
2153.887	281.59
2157.068	283.67
2160.25	286.98
2163.431	284.87
2166.611	290.81
2169.792	297
2172.972	300.89
2176.152	304.3
2179.331	310.22
2182.511	309.11
2185.69	313.02
2188.868	324.72
2192.047	329.83
2195.225	334.07
2198.403	339.12
2201.58	334.79
2204.758	346
2207.935	348.33
2211.111	352.94
2214.288	354.15
2217.464	359.65
2220.64	362.29
2223.815	363.22
2226.991	358.86
2230.166	362.2
2233.34	375.37
2236.515	382.83
2239.689	379.41
2242.863	384.37
2246.036	381.24
2249.209	390.91
2252.382	389.96
2255.555	403.63
2258.727	406.21
2261.9	416.53
2265.071	419.91
2268.243	416.59
2271.414	430.31
2274.585	437.74
2277.756	440.99
2280.926	454.43
2284.096	450.91
2287.266	456.95
2290.436	446.58
2293.605	455.62
2296.774	475.75
2299.942	480.78
2303.111	495.42
2306.279	502.33
2309.447	499.51
2312.614	500.66
2315.781	515.09
2318.948	528.17
2322.115	534.31
2325.281	563.08
2328.447	562.65
2331.613	562
2334.779	568.09
2337.944	571.76
2341.109	587.57
2344.274	600.74
2347.438	615.87
2350.602	627.94
2353.766	667.3
2356.929	669.73
2360.092	676.64
2363.255	679.07
2366.418	692.57
2369.58	705.04
2372.742	704.86
2375.904	698.83
2379.066	716.91
2382.227	756.69
2385.388	753.91
2388.548	711.93
2391.709	708.88
2394.869	735.86
2398.029	735.89
2401.188	736.8
2404.347	760.52
2407.506	788.27
2410.665	754.06
2413.823	755.38
2416.981	758.39
2420.139	716.43
2423.296	772.84
2426.453	818.01
2429.61	781.43
2432.767	832.64
2435.923	857.71
2439.079	826.92
2442.235	845.67
2445.391	873.36
2448.546	863.69
2451.701	909.8
2454.855	977.52
2458.009	860.24
2461.163	883.03
2464.317	888.21
2467.471	867.3
2470.624	900.44
2473.777	876.3
2476.929	849.65
2480.082	902.93
2483.234	946.72
2486.385	954.97
2489.537	977.51
2492.688	1078.07
2495.839	1066.08
2498.989	1096.32
2502.14	1102.94
2505.29	1050.3
2508.439	1174.13
2511.589	1204.19
2514.738	1175.03
2517.887	1162.55
2521.035	1093.68
2524.183	1076.53
2527.331	1070.17
2530.479	1031.46
2533.627	1053.43
