Data from N_1_div_il_4n_005_Splice17_08.txt Node
Date: Sat Feb 29 13:34:32 EST 2020
User: sa697716
Spectrometer: FLMS03696
Trigger mode: 0
Integration Time (sec): 3.180400E-1
Scans to average: 20
Electric dark correction enabled: true
Nonlinearity correction enabled: true
Boxcar width: 5
XAxis mode: Wavelengths
Number of Pixels in Spectrum: 2048
>>>>>Begin Spectral Data<<<<<
187.83	63.4
188.298	56.55
188.766	52.47
189.233	47.92
189.701	56.58
190.169	56.11
190.636	53.2
191.104	39.17
191.571	7.12
192.039	87.96
192.506	-54.08
192.974	1887.36
193.441	17.04
193.908	19.81
194.375	10.78
194.842	65.37
195.31	36.25
195.777	7.09
196.244	8.87
196.711	12.89
197.177	13.75
197.644	13.64
198.111	13.01
198.578	13.44
199.045	14.07
199.511	14.89
199.978	15.03
200.445	15.61
200.911	15.83
201.378	16.03
201.844	16.51
202.31	16.83
202.777	17.1
203.243	17.76
203.709	17.88
204.176	18
204.642	17.71
205.108	17.85
205.574	18.01
206.04	18.07
206.506	18.17
206.972	18.06
207.438	17.98
207.903	18.46
208.369	18.36
208.835	18.48
209.301	18.51
209.766	18.53
210.232	18.61
210.697	18.37
211.163	18.32
211.628	18.06
212.094	18.24
212.559	18.5
213.024	17.87
213.49	17.65
213.955	17.53
214.42	17.26
214.885	16.95
215.35	16.78
215.815	16.48
216.28	16.24
216.745	15.99
217.21	15.53
217.675	15.03
218.14	14.71
218.604	14.3
219.069	13.97
219.534	13.71
219.998	13.48
220.463	13.27
220.927	13.06
221.392	12.89
221.856	12.67
222.32	12.48
222.785	12.33
223.249	12.22
223.713	12.08
224.177	11.9
224.642	11.76
225.106	11.64
225.57	11.5
226.034	11.41
226.497	11.28
226.961	11.2
227.425	11.09
227.889	10.98
228.353	10.87
228.816	10.79
229.28	10.72
229.744	10.64
230.207	10.55
230.671	10.45
231.134	10.34
231.597	10.26
232.061	10.14
232.524	10.06
232.987	9.96
233.45	9.86
233.914	9.78
234.377	9.7
234.84	9.61
235.303	9.53
235.766	9.44
236.229	9.36
236.691	9.27
237.154	9.2
237.617	9.13
238.08	9.05
238.542	8.98
239.005	8.93
239.468	8.82
239.93	8.75
240.393	8.67
240.855	8.6
241.317	8.55
241.78	8.49
242.242	8.43
242.704	8.36
243.166	8.29
243.629	8.24
244.091	8.16
244.553	8.12
245.015	8.06
245.477	8.01
245.939	7.95
246.4	7.88
246.862	7.84
247.324	7.8
247.786	7.76
248.247	7.73
248.709	7.68
249.17	7.66
249.632	7.61
250.093	7.56
250.555	7.51
251.016	7.48
251.477	7.43
251.939	7.38
252.4	7.32
252.861	7.26
253.322	7.21
253.783	7.16
254.244	7.11
254.705	7.07
255.166	7.04
255.627	7.01
256.088	6.95
256.549	6.92
257.009	6.89
257.47	6.86
257.931	6.83
258.391	6.79
258.852	6.75
259.312	6.71
259.773	6.67
260.233	6.63
260.694	6.59
261.154	6.57
261.614	6.52
262.074	6.49
262.534	6.45
262.994	6.41
263.455	6.39
263.915	6.35
264.374	6.32
264.834	6.29
265.294	6.26
265.754	6.22
266.214	6.19
266.673	6.17
267.133	6.14
267.593	6.12
268.052	6.09
268.512	6.06
268.971	6.04
269.431	6.01
269.89	5.99
270.349	5.97
270.809	5.96
271.268	5.94
271.727	5.91
272.186	5.89
272.645	5.86
273.104	5.84
273.563	5.83
274.022	5.8
274.481	5.78
274.94	5.75
275.399	5.73
275.857	5.71
276.316	5.68
276.775	5.66
277.233	5.64
277.692	5.62
278.15	5.59
278.609	5.56
279.067	5.53
279.525	5.51
279.984	5.48
280.442	5.46
280.9	5.44
281.358	5.42
281.816	5.39
282.274	5.37
282.732	5.35
283.19	5.33
283.648	5.31
284.106	5.29
284.564	5.28
285.021	5.26
285.479	5.25
285.937	5.22
286.394	5.19
286.852	5.18
287.309	5.17
287.767	5.15
288.224	5.14
288.682	5.12
289.139	5.11
289.596	5.1
290.053	5.07
290.511	5.05
290.968	5.03
291.425	5.03
291.882	5.01
292.339	4.99
292.796	4.97
293.252	4.95
293.709	4.93
294.166	4.91
294.623	4.89
295.079	4.88
295.536	4.86
295.992	4.85
296.449	4.84
296.905	4.82
297.362	4.81
297.818	4.8
298.274	4.78
298.731	4.78
299.187	4.76
299.643	4.75
300.099	4.74
300.555	4.72
301.011	4.72
301.467	4.7
301.923	4.69
302.379	4.68
302.835	4.67
303.291	4.66
303.746	4.64
304.202	4.63
304.658	4.61
305.113	4.6
305.569	4.6
306.024	4.58
306.479	4.57
306.935	4.56
307.39	4.55
307.845	4.54
308.301	4.54
308.756	4.55
309.211	4.54
309.666	4.54
310.121	4.54
310.576	4.53
311.031	4.52
311.486	4.52
311.94	4.52
312.395	4.52
312.85	4.5
313.305	4.49
313.759	4.49
314.214	4.49
314.668	4.49
315.123	4.49
315.577	4.48
316.032	4.48
316.486	4.47
316.94	4.46
317.394	4.45
317.849	4.45
318.303	4.44
318.757	4.43
319.211	4.41
319.665	4.4
320.119	4.39
320.572	4.39
321.026	4.38
321.48	4.37
321.934	4.36
322.387	4.35
322.841	4.35
323.295	4.33
323.748	4.33
324.202	4.32
324.655	4.31
325.108	4.3
325.562	4.28
326.015	4.26
326.468	4.25
326.921	4.24
327.374	4.23
327.827	4.23
328.28	4.22
328.733	4.22
329.186	4.22
329.639	4.21
330.092	4.2
330.545	4.21
330.997	4.21
331.45	4.21
331.903	4.21
332.355	4.21
332.808	4.2
333.26	4.21
333.713	4.21
334.165	4.19
334.617	4.2
335.069	4.2
335.522	4.2
335.974	4.2
336.426	4.19
336.878	4.18
337.33	4.18
337.782	4.18
338.234	4.18
338.686	4.17
339.137	4.17
339.589	4.16
340.041	4.16
340.493	4.14
340.944	4.14
341.396	4.14
341.847	4.14
342.299	4.12
342.75	4.11
343.201	4.09
343.653	4.08
344.104	4.07
344.555	4.06
345.006	4.05
345.457	4.05
345.908	4.04
346.359	4.04
346.81	4.05
347.261	4.03
347.712	4.03
348.163	4.02
348.613	4.02
349.064	4.02
349.515	4.01
349.965	4.01
350.416	4
350.866	4
351.317	3.98
351.767	3.97
352.217	3.97
352.668	3.98
353.118	3.99
353.568	3.99
354.018	4.01
354.468	4
354.918	4
355.368	4.01
355.818	4.01
356.268	4.02
356.718	4.01
357.168	4
357.617	4
358.067	3.98
358.517	3.98
358.966	3.97
359.416	3.99
359.865	3.99
360.315	3.99
360.764	3.99
361.213	3.98
361.663	3.99
362.112	4.02
362.561	4.02
363.01	4.04
363.459	4.05
363.908	4.05
364.357	4.05
364.806	4.05
365.255	4.04
365.703	4.04
366.152	4.05
366.601	4.05
367.05	4.05
367.498	4.05
367.947	4.04
368.395	4.04
368.844	4.03
369.292	4.03
369.74	4.04
370.189	4.05
370.637	4.06
371.085	4.07
371.533	4.08
371.981	4.08
372.429	4.08
372.877	4.09
373.325	4.1
373.773	4.11
374.221	4.12
374.669	4.13
375.116	4.14
375.564	4.15
376.012	4.16
376.459	4.17
376.907	4.18
377.354	4.2
377.801	4.21
378.249	4.24
378.696	4.25
379.143	4.26
379.591	4.27
380.038	4.3
380.485	4.32
380.932	4.32
381.379	4.33
381.826	4.36
382.273	4.37
382.72	4.39
383.166	4.4
383.613	4.43
384.06	4.45
384.506	4.47
384.953	4.48
385.4	4.5
385.846	4.52
386.292	4.54
386.739	4.55
387.185	4.59
387.631	4.61
388.078	4.63
388.524	4.64
388.97	4.66
389.416	4.68
389.862	4.69
390.308	4.72
390.754	4.74
391.2	4.76
391.645	4.79
392.091	4.81
392.537	4.83
392.983	4.86
393.428	4.89
393.874	4.92
394.319	4.96
394.765	4.98
395.21	4.99
395.655	5.02
396.101	5.03
396.546	5.05
396.991	5.06
397.436	5.06
397.881	5.07
398.326	5.09
398.771	5.11
399.216	5.13
399.661	5.15
400.106	5.18
400.551	5.2
400.995	5.21
401.44	5.22
401.885	5.25
402.329	5.29
402.774	5.3
403.218	5.31
403.663	5.31
404.107	5.32
404.551	5.34
404.995	5.34
405.44	5.36
405.884	5.38
406.328	5.39
406.772	5.41
407.216	5.42
407.66	5.45
408.104	5.46
408.547	5.49
408.991	5.49
409.435	5.51
409.879	5.52
410.322	5.52
410.766	5.54
411.209	5.58
411.653	5.57
412.096	5.59
412.54	5.59
412.983	5.61
413.426	5.62
413.869	5.65
414.312	5.67
414.756	5.7
415.199	5.71
415.642	5.74
416.085	5.75
416.527	5.76
416.97	5.79
417.413	5.8
417.856	5.81
418.298	5.81
418.741	5.81
419.184	5.81
419.626	5.82
420.069	5.82
420.511	5.82
420.953	5.83
421.396	5.84
421.838	5.84
422.28	5.87
422.722	5.88
423.164	5.89
423.606	5.9
424.048	5.9
424.49	5.92
424.932	5.92
425.374	5.93
425.816	5.92
426.258	5.93
426.699	5.91
427.141	5.88
427.582	5.88
428.024	5.88
428.465	5.88
428.907	5.89
429.348	5.87
429.789	5.88
430.231	5.89
430.672	5.91
431.113	5.91
431.554	5.93
431.995	5.95
432.436	5.95
432.877	5.96
433.318	5.98
433.759	5.99
434.2	6
434.64	6.01
435.081	5.98
435.522	5.99
435.962	5.99
436.403	6
436.843	6.01
437.284	6.03
437.724	6.04
438.164	6.05
438.604	6.05
439.045	6.07
439.485	6.07
439.925	6.1
440.365	6.09
440.805	6.12
441.245	6.11
441.685	6.14
442.125	6.15
442.564	6.18
443.004	6.2
443.444	6.22
443.883	6.23
444.323	6.25
444.762	6.29
445.202	6.34
445.641	6.37
446.081	6.39
446.52	6.38
446.959	6.39
447.398	6.42
447.837	6.44
448.276	6.43
448.716	6.44
449.154	6.47
449.593	6.47
450.032	6.45
450.471	6.45
450.91	6.48
451.349	6.5
451.787	6.5
452.226	6.49
452.664	6.48
453.103	6.49
453.541	6.51
453.98	6.5
454.418	6.5
454.856	6.51
455.295	6.5
455.733	6.5
456.171	6.49
456.609	6.5
457.047	6.5
457.485	6.52
457.923	6.52
458.361	6.51
458.798	6.53
459.236	6.52
459.674	6.54
460.111	6.55
460.549	6.54
460.987	6.56
461.424	6.56
461.862	6.56
462.299	6.54
462.736	6.57
463.173	6.56
463.611	6.56
464.048	6.57
464.485	6.57
464.922	6.58
465.359	6.6
465.796	6.59
466.233	6.6
466.67	6.61
467.106	6.61
467.543	6.58
467.98	6.58
468.416	6.57
468.853	6.57
469.29	6.54
469.726	6.53
470.162	6.5
470.599	6.49
471.035	6.49
471.471	6.48
471.907	6.48
472.344	6.49
472.78	6.5
473.216	6.5
473.652	6.5
474.088	6.53
474.523	6.53
474.959	6.55
475.395	6.54
475.831	6.54
476.266	6.55
476.702	6.57
477.138	6.56
477.573	6.55
478.008	6.54
478.444	6.53
478.879	6.52
479.314	6.52
479.75	6.52
480.185	6.51
480.62	6.5
481.055	6.48
481.49	6.46
481.925	6.46
482.36	6.46
482.795	6.45
483.229	6.46
483.664	6.45
484.099	6.45
484.534	6.44
484.968	6.44
485.403	6.45
485.837	6.46
486.271	6.46
486.706	6.46
487.14	6.47
487.574	6.48
488.009	6.49
488.443	6.51
488.877	6.54
489.311	6.55
489.745	6.57
490.179	6.6
490.613	6.62
491.046	6.64
491.48	6.67
491.914	6.69
492.348	6.71
492.781	6.73
493.215	6.75
493.648	6.78
494.082	6.81
494.515	6.84
494.948	6.88
495.382	6.9
495.815	6.95
496.248	6.98
496.681	7.02
497.114	7.06
497.547	7.11
497.98	7.16
498.413	7.2
498.846	7.24
499.279	7.3
499.711	7.34
500.144	7.4
500.577	7.46
501.009	7.53
501.442	7.62
501.874	7.7
502.306	7.78
502.739	7.86
503.171	7.97
503.603	8.08
504.036	8.18
504.468	8.3
504.9	8.42
505.332	8.54
505.764	8.66
506.196	8.77
506.627	8.91
507.059	9.04
507.491	9.18
507.923	9.31
508.354	9.46
508.786	9.62
509.217	9.77
509.649	9.95
510.08	10.14
510.512	10.31
510.943	10.51
511.374	10.69
511.805	10.88
512.237	11.07
512.668	11.27
513.099	11.48
513.53	11.69
513.961	11.92
514.391	12.14
514.822	12.35
515.253	12.58
515.684	12.79
516.114	13.04
516.545	13.29
516.975	13.55
517.406	13.81
517.836	14.05
518.267	14.31
518.697	14.57
519.127	14.84
519.558	15.09
519.988	15.34
520.418	15.61
520.848	15.86
521.278	16.11
521.708	16.45
522.138	16.68
522.567	16.9
522.997	17.13
523.427	17.35
523.857	17.55
524.286	17.77
524.716	17.98
525.145	18.19
525.575	18.37
526.004	18.56
526.433	18.64
526.863	18.83
527.292	19.03
527.721	19.2
528.15	19.36
528.579	19.53
529.008	19.68
529.437	19.83
529.866	19.94
530.295	20.09
530.724	20.24
531.152	20.37
531.581	20.49
532.01	20.58
532.438	20.68
532.867	20.78
533.295	20.87
533.723	20.96
534.152	21.06
534.58	21.14
535.008	21.21
535.436	21.25
535.865	21.31
536.293	21.37
536.721	21.44
537.149	21.48
537.576	21.53
538.004	21.59
538.432	21.63
538.86	21.66
539.287	21.71
539.715	21.74
540.143	21.77
540.57	21.81
540.998	21.86
541.425	21.89
541.852	21.95
542.28	21.96
542.707	21.98
543.134	22.02
543.561	22.04
543.988	22.06
544.415	22.11
544.842	22.14
545.269	22.17
545.696	22.18
546.123	22.2
546.549	22.2
546.976	22.22
547.403	22.23
547.829	22.24
548.256	22.25
548.682	22.24
549.108	22.24
549.535	22.23
549.961	22.22
550.387	22.22
550.813	22.2
551.24	22.21
551.666	22.21
552.092	22.2
552.518	22.17
552.943	22.15
553.369	22.13
553.795	22.1
554.221	22.08
554.646	22.03
555.072	21.99
555.498	21.96
555.923	21.93
556.349	21.87
556.774	21.83
557.199	21.78
557.625	21.71
558.05	21.64
558.475	21.57
558.9	21.5
559.325	21.43
559.75	21.35
560.175	21.24
560.6	21.12
561.025	21.01
561.449	20.89
561.874	20.78
562.299	20.68
562.723	20.56
563.148	20.42
563.572	20.3
563.997	20.17
564.421	20.03
564.846	19.92
565.27	19.78
565.694	19.65
566.118	19.51
566.542	19.37
566.966	19.23
567.39	19.08
567.814	18.94
568.238	18.77
568.662	18.65
569.086	18.51
569.509	18.36
569.933	18.21
570.357	18.06
570.78	17.92
571.204	17.77
571.627	17.62
572.05	17.49
572.474	17.37
572.897	17.25
573.32	17.11
573.743	16.96
574.166	16.82
574.589	16.7
575.012	16.59
575.435	16.46
575.858	16.35
576.281	16.24
576.704	16.15
577.126	16.04
577.549	15.94
577.972	15.83
578.394	15.73
578.817	15.64
579.239	15.56
579.661	15.47
580.084	15.37
580.506	15.28
580.928	15.19
581.35	15.11
581.772	15.04
582.194	14.96
582.616	14.88
583.038	14.83
583.46	14.76
583.882	14.71
584.303	14.65
584.725	14.6
585.147	14.53
585.568	14.46
585.99	14.41
586.411	14.35
586.833	14.31
587.254	14.27
587.675	14.22
588.096	14.17
588.518	14.11
588.939	14.07
589.36	14.03
589.781	13.99
590.202	13.97
590.623	13.93
591.043	13.89
591.464	13.85
591.885	13.81
592.305	13.78
592.726	13.74
593.147	13.72
593.567	13.67
593.987	13.65
594.408	13.63
594.828	13.6
595.248	13.57
595.669	13.55
596.089	13.53
596.509	13.5
596.929	13.46
597.349	13.43
597.769	13.4
598.189	13.38
598.608	13.36
599.028	13.33
599.448	13.31
599.867	13.27
600.287	13.22
600.706	13.17
601.126	13.14
601.545	13.1
601.965	13.07
602.384	13.04
602.803	12.97
603.222	12.92
603.641	12.89
604.061	12.83
604.48	12.8
604.898	12.74
605.317	12.7
605.736	12.65
606.155	12.58
606.574	12.52
606.992	12.44
607.411	12.4
607.829	12.3
608.248	12.22
608.666	12.15
609.085	12.07
609.503	12.01
609.921	11.93
610.339	11.87
610.758	11.8
611.176	11.72
611.594	11.66
612.012	11.6
612.43	11.58
612.847	11.51
613.265	11.45
613.683	11.38
614.101	11.32
614.518	11.25
614.936	11.2
615.353	11.14
615.771	11.09
616.188	11.04
616.606	11
617.023	10.93
617.44	10.89
617.857	10.84
618.274	10.8
618.691	10.77
619.108	10.74
619.525	10.68
619.942	10.66
620.359	10.63
620.776	10.59
621.192	10.55
621.609	10.53
622.026	10.5
622.442	10.49
622.859	10.47
623.275	10.46
623.691	10.44
624.108	10.43
624.524	10.41
624.94	10.4
625.356	10.39
625.772	10.4
626.188	10.39
626.604	10.37
627.02	10.36
627.436	10.36
627.852	10.35
628.268	10.35
628.683	10.35
629.099	10.35
629.514	10.34
629.93	10.33
630.345	10.3
630.761	10.28
631.176	10.26
631.591	10.23
632.007	10.19
632.422	10.16
632.837	10.12
633.252	10.09
633.667	10.03
634.082	9.99
634.497	9.93
634.911	9.89
635.326	9.83
635.741	9.77
636.155	9.71
636.57	9.66
636.984	9.58
637.399	9.5
637.813	9.42
638.228	9.35
638.642	9.27
639.056	9.2
639.47	9.12
639.884	9.05
640.298	8.98
640.712	8.9
641.126	8.81
641.54	8.75
641.954	8.69
642.368	8.63
642.781	8.57
643.195	8.49
643.609	8.43
644.022	8.36
644.436	8.29
644.849	8.22
645.262	8.18
645.676	8.11
646.089	8.05
646.502	7.97
646.915	7.91
647.328	7.85
647.741	7.81
648.154	7.76
648.567	7.73
648.98	7.71
649.393	7.67
649.805	7.63
650.218	7.62
650.631	7.59
651.043	7.57
651.456	7.56
651.868	7.54
652.28	7.54
652.693	7.52
653.105	7.49
653.517	7.45
653.929	7.43
654.341	7.41
654.753	7.38
655.165	7.36
655.577	7.32
655.989	7.26
656.401	7.21
656.813	7.15
657.224	7.11
657.636	7.08
658.047	7.04
658.459	6.98
658.87	6.93
659.282	6.9
659.693	6.85
660.104	6.81
660.515	6.78
660.926	6.75
661.338	6.71
661.749	6.65
662.159	6.6
662.57	6.56
662.981	6.52
663.392	6.47
663.803	6.44
664.213	6.41
664.624	6.38
665.035	6.36
665.445	6.34
665.855	6.32
666.266	6.33
666.676	6.32
667.086	6.3
667.497	6.3
667.907	6.29
668.317	6.29
668.727	6.28
669.137	6.29
669.547	6.29
669.956	6.27
670.366	6.28
670.776	6.27
671.186	6.28
671.595	6.3
672.005	6.33
672.414	6.35
672.824	6.36
673.233	6.38
673.642	6.39
674.052	6.41
674.461	6.43
674.87	6.45
675.279	6.49
675.688	6.51
676.097	6.53
676.506	6.54
676.915	6.56
677.323	6.59
677.732	6.62
678.141	6.64
678.549	6.66
678.958	6.7
679.366	6.72
679.775	6.75
680.183	6.8
680.592	6.85
681	6.87
681.408	6.92
681.816	6.96
682.224	7.02
682.632	7.1
683.04	7.17
683.448	7.24
683.856	7.33
684.264	7.43
684.671	7.52
685.079	7.62
685.487	7.76
685.894	7.9
686.302	8.05
686.709	8.2
687.116	8.38
687.524	8.58
687.931	8.78
688.338	9.02
688.745	9.27
689.152	9.54
689.559	9.85
689.966	10.16
690.373	10.5
690.78	10.87
691.187	11.26
691.593	11.65
692	12.07
692.407	12.52
692.813	12.97
693.22	13.43
693.626	13.91
694.032	14.39
694.439	14.91
694.845	15.41
695.251	15.92
695.657	16.43
696.063	16.95
696.469	17.48
696.875	18
697.281	18.52
697.687	19.09
698.093	19.62
698.498	20.16
698.904	20.68
699.31	21.22
699.715	21.77
700.12	22.32
700.526	22.86
700.931	23.4
701.337	23.94
701.742	24.45
702.147	24.95
702.552	25.49
702.957	25.99
703.362	26.52
703.767	27.03
704.172	27.54
704.577	28.04
704.981	28.55
705.386	29.01
705.791	29.51
706.195	30.01
706.6	30.5
707.004	30.97
707.408	31.46
707.813	31.92
708.217	32.37
708.621	32.8
709.025	33.25
709.43	33.67
709.834	34.14
710.237	34.56
710.641	34.98
711.045	35.39
711.449	35.79
711.853	36.2
712.256	36.59
712.66	37
713.064	37.4
713.467	37.8
713.87	38.19
714.274	38.59
714.677	38.95
715.08	39.3
715.484	39.65
715.887	40
716.29	40.37
716.693	40.75
717.096	41.1
717.499	41.47
717.901	41.78
718.304	42.09
718.707	42.39
719.109	42.75
719.512	43.1
719.915	43.43
720.317	43.76
720.719	44.02
721.122	44.31
721.524	44.58
721.926	44.84
722.328	45.12
722.731	45.42
723.133	45.68
723.535	45.95
723.937	46.2
724.338	46.42
724.74	46.64
725.142	46.93
725.544	47.13
725.945	47.37
726.347	47.61
726.748	47.81
727.15	47.98
727.551	48.18
727.952	48.33
728.354	48.54
728.755	48.74
729.156	48.93
729.557	49.07
729.958	49.27
730.359	49.42
730.76	49.56
731.161	49.72
731.562	49.89
731.962	50.04
732.363	50.17
732.763	50.3
733.164	50.38
733.564	50.49
733.965	50.58
734.365	50.68
734.766	50.77
735.166	50.83
735.566	50.91
735.966	50.98
736.366	51.04
736.766	51.14
737.166	51.21
737.566	51.28
737.966	51.34
738.365	51.44
738.765	51.52
739.165	51.58
739.564	51.68
739.964	51.74
740.363	51.82
740.763	51.87
741.162	51.91
741.561	51.98
741.96	52.06
742.36	52.14
742.759	52.17
743.158	52.18
743.557	52.23
743.955	52.28
744.354	52.38
744.753	52.43
745.152	52.49
745.55	52.53
745.949	52.57
746.348	52.61
746.746	52.64
747.144	52.68
747.543	52.75
747.941	52.81
748.339	52.86
748.737	52.87
749.136	52.9
749.534	52.95
749.932	52.97
750.33	53
750.727	53.02
751.125	53.04
751.523	53.05
751.921	53.08
752.318	53.07
752.716	53.08
753.113	53.08
753.511	53.07
753.908	53.06
754.305	53.07
754.703	53.07
755.1	53.08
755.497	53.09
755.894	53.12
756.291	53.11
756.688	53.13
757.085	53.13
757.482	53.14
757.878	53.16
758.275	53.15
758.672	53.18
759.068	53.2
759.465	53.21
759.861	53.18
760.258	53.16
760.654	53.16
761.05	53.16
761.447	53.13
761.843	53.13
762.239	53.09
762.635	53.08
763.031	53.07
763.427	53.03
763.822	52.98
764.218	52.98
764.614	52.98
765.01	52.94
765.405	52.93
765.801	52.92
766.196	52.89
766.592	52.91
766.987	52.93
767.382	52.9
767.778	52.91
768.173	52.92
768.568	52.87
768.963	52.85
769.358	52.85
769.753	52.87
770.148	52.89
770.542	52.87
770.937	52.85
771.332	52.84
771.726	52.85
772.121	52.83
772.515	52.83
772.91	52.87
773.304	52.88
773.699	52.87
774.093	52.83
774.487	52.83
774.881	52.85
775.275	52.87
775.669	52.86
776.063	52.83
776.457	52.84
776.851	52.82
777.245	52.81
777.638	52.81
778.032	52.85
778.425	52.85
778.819	52.84
779.212	52.86
779.606	52.86
779.999	52.83
780.392	52.86
780.786	52.84
781.179	52.88
781.572	52.88
781.965	52.89
782.358	52.83
782.751	52.85
783.143	52.83
783.536	52.85
783.929	52.83
784.322	52.84
784.714	52.86
785.107	52.91
785.499	52.89
785.891	52.89
786.284	52.87
786.676	52.92
787.068	52.92
787.46	52.92
787.852	52.91
788.245	52.91
788.636	52.9
789.028	52.85
789.42	52.81
789.812	52.8
790.204	52.76
790.595	52.75
790.987	52.71
791.378	52.7
791.77	52.75
792.161	52.74
792.553	52.72
792.944	52.75
793.335	52.77
793.726	52.78
794.117	52.79
794.508	52.86
794.899	52.88
795.29	52.92
795.681	52.92
796.072	52.9
796.463	52.9
796.853	52.89
797.244	52.89
797.634	52.9
798.025	52.9
798.415	52.92
798.806	52.88
799.196	52.93
799.586	52.87
799.976	52.84
800.366	52.85
800.756	52.81
801.146	52.84
801.536	52.81
801.926	52.79
802.316	52.82
802.706	52.83
803.095	52.84
803.485	52.81
803.874	52.85
804.264	52.92
804.653	52.9
805.043	52.94
805.432	52.92
805.821	52.93
806.21	52.94
806.599	52.95
806.988	52.93
807.377	52.94
807.766	52.93
808.155	52.97
808.544	52.93
808.933	52.93
809.321	52.93
809.71	52.97
810.098	52.96
810.487	52.95
810.875	52.9
811.264	52.89
811.652	52.9
812.04	52.91
812.428	52.92
812.816	52.94
813.204	52.94
813.592	52.9
813.98	52.88
814.368	52.89
814.756	52.91
815.144	52.95
815.531	53
815.919	52.97
816.306	52.97
816.694	52.96
817.081	52.92
817.469	52.93
817.856	52.98
818.243	53.05
818.63	53.1
819.017	53.1
819.404	53.1
819.791	53.08
820.178	53.1
820.565	53.1
820.952	53.12
821.339	53.13
821.725	53.17
822.112	53.19
822.498	53.17
822.885	53.14
823.271	53.19
823.657	53.2
824.044	53.19
824.43	53.23
824.816	53.27
825.202	53.29
825.588	53.31
825.974	53.32
826.36	53.32
826.746	53.34
827.132	53.36
827.517	53.34
827.903	53.35
828.289	53.39
828.674	53.36
829.06	53.36
829.445	53.36
829.83	53.37
830.216	53.37
830.601	53.36
830.986	53.36
831.371	53.36
831.756	53.36
832.141	53.41
832.526	53.41
832.911	53.44
833.295	53.43
833.68	53.44
834.065	53.46
834.449	53.44
834.834	53.43
835.218	53.44
835.603	53.45
835.987	53.44
836.371	53.42
836.755	53.4
837.139	53.39
837.524	53.39
837.908	53.36
838.291	53.36
838.675	53.36
839.059	53.39
839.443	53.36
839.827	53.37
840.21	53.36
840.594	53.36
840.977	53.36
841.361	53.37
841.744	53.37
842.127	53.38
842.511	53.37
842.894	53.37
843.277	53.34
843.66	53.37
844.043	53.38
844.426	53.41
844.809	53.4
845.191	53.42
845.574	53.42
845.957	53.4
846.339	53.39
846.722	53.39
847.104	53.41
847.487	53.44
847.869	53.41
848.252	53.4
848.634	53.41
849.016	53.42
849.398	53.4
849.78	53.4
850.162	53.43
850.544	53.44
850.926	53.4
851.307	53.38
851.689	53.34
852.071	53.33
852.452	53.34
852.834	53.31
853.215	53.31
853.597	53.32
853.978	53.29
854.359	53.29
854.741	53.27
855.122	53.3
855.503	53.31
855.884	53.32
856.265	53.33
856.646	53.31
857.026	53.29
857.407	53.27
857.788	53.28
858.169	53.29
858.549	53.29
858.93	53.31
859.31	53.31
859.69	53.31
860.071	53.3
860.451	53.32
860.831	53.32
861.211	53.31
861.591	53.34
861.971	53.3
862.351	53.35
862.731	53.34
863.111	53.32
863.491	53.33
863.87	53.31
864.25	53.32
864.629	53.3
865.009	53.31
865.388	53.33
865.768	53.31
866.147	53.33
866.526	53.28
866.905	53.28
867.284	53.33
867.663	53.32
868.042	53.32
868.421	53.32
868.8	53.31
869.179	53.31
869.558	53.27
869.936	53.28
870.315	53.29
870.693	53.32
871.072	53.32
871.45	53.29
871.828	53.31
872.207	53.33
872.585	53.33
872.963	53.33
873.341	53.31
873.719	53.35
874.097	53.33
874.475	53.29
874.853	53.25
875.23	53.24
875.608	53.24
875.986	53.21
876.363	53.19
876.741	53.19
877.118	53.2
877.495	53.2
877.873	53.15
878.25	53.17
878.627	53.19
879.004	53.2
879.381	53.2
879.758	53.18
880.135	53.2
880.512	53.21
880.889	53.19
881.265	53.21
881.642	53.21
882.019	53.25
882.395	53.23
882.772	53.22
883.148	53.22
883.524	53.25
883.901	53.25
884.277	53.22
884.653	53.23
885.029	53.23
885.405	53.23
885.781	53.24
886.157	53.23
886.532	53.23
886.908	53.23
887.284	53.25
887.659	53.23
888.035	53.25
888.411	53.26
888.786	53.27
889.161	53.29
889.537	53.3
889.912	53.29
890.287	53.28
890.662	53.28
891.037	53.27
891.412	53.25
891.787	53.25
892.162	53.21
892.536	53.19
892.911	53.18
893.286	53.14
893.66	53.1
894.035	53.09
894.409	53.1
894.784	53.12
895.158	53.14
895.532	53.14
895.906	53.14
896.281	53.15
896.655	53.15
897.029	53.15
897.402	53.16
897.776	53.17
898.15	53.16
898.524	53.16
898.898	53.13
899.271	53.11
899.645	53.1
900.018	53.07
900.392	53.08
900.765	53.09
901.138	53.08
901.511	53.07
901.884	53.08
902.258	53.06
902.631	53.04
903.003	53.02
903.376	53
903.749	53
904.122	53
904.495	52.95
904.867	52.91
905.24	52.9
905.612	52.9
905.985	52.89
906.357	52.89
906.729	52.88
907.102	52.89
907.474	52.88
907.846	52.85
908.218	52.85
908.59	52.85
908.962	52.82
909.334	52.79
909.705	52.74
910.077	52.71
910.449	52.72
910.82	52.67
911.192	52.65
911.563	52.63
911.935	52.58
912.306	52.55
912.677	52.53
913.048	52.54
913.419	52.52
913.79	52.52
914.161	52.52
914.532	52.49
914.903	52.49
915.274	52.46
915.645	52.45
916.015	52.47
916.386	52.43
916.756	52.4
917.127	52.38
917.497	52.37
917.868	52.37
918.238	52.38
918.608	52.36
918.978	52.34
919.348	52.33
919.718	52.31
920.088	52.31
920.458	52.38
920.828	52.4
921.198	52.37
921.567	52.37
921.937	52.36
922.306	52.35
922.676	52.34
923.045	52.32
923.415	52.32
923.784	52.32
924.153	52.34
924.522	52.32
924.891	52.29
925.26	52.29
925.629	52.29
925.998	52.29
926.367	52.26
926.736	52.24
927.104	52.25
927.473	52.25
927.842	52.21
928.21	52.22
928.578	52.21
928.947	52.18
929.315	52.21
929.683	52.23
930.051	52.19
930.42	52.19
930.788	52.17
931.156	52.15
931.523	52.16
931.891	52.14
932.259	52.05
932.627	51.95
932.994	51.91
933.362	51.87
933.729	51.8
934.097	51.71
934.464	51.62
934.831	51.6
935.199	51.55
935.566	51.43
935.933	51.51
936.3	51.45
936.667	51.38
937.034	51.38
937.401	51.32
937.767	51.26
938.134	51.25
938.501	51.2
938.867	51.16
939.234	51.14
939.6	51.1
939.967	50.87
940.333	50.92
940.699	51.01
941.065	50.95
941.431	50.94
941.798	50.95
942.163	51.05
942.529	51.02
942.895	50.98
943.261	50.9
943.627	51.03
943.992	51.1
944.358	51.1
944.723	51.03
945.089	51.04
945.454	51.1
945.82	51.06
946.185	51.02
946.55	51.19
946.915	51.21
947.28	51.28
947.645	51.2
948.01	51.2
948.375	51.21
948.74	51.24
949.104	51.21
949.469	51.08
949.834	51.07
950.198	51.03
950.562	50.93
950.927	50.96
951.291	50.9
951.655	50.83
952.02	50.75
952.384	50.76
952.748	50.77
953.112	50.78
953.476	50.81
953.839	50.77
954.203	50.69
954.567	50.65
954.931	50.63
955.294	50.62
955.658	50.59
956.021	50.64
956.385	50.6
956.748	50.6
957.111	50.53
957.474	50.57
957.837	50.57
958.2	50.56
958.563	50.55
958.926	50.52
959.289	50.49
959.652	50.53
960.015	50.51
960.377	50.46
960.74	50.4
961.102	50.37
961.465	50.37
961.827	50.31
962.189	50.33
962.552	50.34
962.914	50.3
963.276	50.3
963.638	50.22
964	50.19
964.362	50.24
964.724	50.26
965.085	50.31
965.447	50.19
965.809	50.16
966.17	50.13
966.532	50.11
966.893	50.03
967.255	49.99
967.616	50.01
967.977	50.04
968.338	49.93
968.699	49.9
969.061	49.73
969.421	49.77
969.782	49.83
970.143	49.83
970.504	49.78
970.865	49.8
971.225	49.84
971.586	49.85
971.946	49.78
972.307	49.79
972.667	49.76
973.027	49.86
973.388	49.83
973.748	49.81
974.108	49.79
974.468	49.81
974.828	49.86
975.188	49.79
975.548	49.75
975.907	49.74
976.267	49.72
976.627	49.75
976.986	49.67
977.346	49.69
977.705	49.66
978.064	49.69
978.424	49.68
978.783	49.65
979.142	49.64
979.501	49.6
979.86	49.6
980.219	49.53
980.578	49.46
980.937	49.55
981.296	49.52
981.654	49.55
982.013	49.49
982.371	49.47
982.73	49.49
983.088	49.43
983.447	49.52
983.805	49.46
984.163	49.48
984.521	49.4
984.879	49.39
985.237	49.47
985.595	49.35
985.953	49.28
986.311	49.29
986.669	49.22
987.026	49.27
987.384	49.25
987.741	49.36
988.099	49.33
988.456	49.39
988.814	49.41
989.171	49.25
989.528	49.18
989.885	49.21
990.242	49.31
990.599	49.37
990.956	49.46
991.313	49.45
991.67	49.38
992.027	49.5
992.383	49.59
992.74	49.48
993.096	49.42
993.453	49.56
993.809	49.62
994.165	49.49
994.522	49.49
994.878	49.35
995.234	49.31
995.59	49.16
995.946	49.04
996.302	48.94
996.658	48.87
997.013	49.03
997.369	48.83
997.725	48.8
998.08	48.84
998.436	48.74
998.791	48.71
999.147	48.74
999.502	48.78
999.857	48.87
1000.212	48.79
1000.567	48.86
1000.922	48.7
1001.277	48.75
1001.632	48.68
1001.987	48.55
1002.342	48.48
1002.696	48.53
1003.051	48.32
1003.406	48.3
1003.76	48.08
1004.114	48.21
1004.469	48.23
1004.823	48.28
1005.177	48.31
1005.531	48.12
1005.885	48.16
1006.239	48.02
1006.593	47.79
1006.947	47.76
1007.301	47.71
1007.655	47.8
1008.008	47.63
1008.362	47.56
1008.715	47.5
1009.069	47.37
1009.422	47.56
1009.776	47.43
1010.129	47.36
1010.482	47.52
1010.835	47.57
1011.188	47.47
1011.541	47.26
1011.894	47.3
1012.247	47.28
1012.6	47.24
1012.952	47.21
1013.305	46.84
1013.657	46.8
1014.01	46.99
1014.362	46.86
1014.715	46.75
1015.067	46.76
1015.419	46.86
1015.771	46.92
1016.123	46.74
1016.475	46.67
1016.827	46.62
1017.179	46.9
1017.531	46.59
1017.883	46.5
1018.234	46.71
1018.586	46.57
1018.938	46.52
1019.289	46.66
1019.64	46.66
1019.992	46.64
1020.343	46.43
1020.694	46.4
1021.045	46.17
1021.396	46.24
1021.747	46.26
1022.098	46.08
1022.449	46.14
1022.8	45.88
1023.151	45.65
1023.501	45.52
1023.852	45.63
1024.202	45.91
1024.553	45.78
1024.903	45.71
1025.253	45.97
1025.604	46.11
1025.954	45.78
1026.304	45.89
1026.654	46.04
1027.004	46.01
1027.354	45.93
1027.703	45.74
1028.053	45.39
1028.403	45.25
1028.753	45.27
1029.102	45.27
1029.452	45.14
1029.801	45.41
1030.15	45.42
1030.499	45.48
897.758	678.82
901.051	690.84
904.343	696.91
907.636	688.95
910.928	678.11
914.22	686.85
917.511	674.63
920.803	650.99
924.094	621.79
927.384	625.03
930.675	603.39
933.965	597.32
937.255	592.92
940.544	567.75
943.834	538.15
947.123	528.4
950.411	502.6
953.7	491.82
956.988	476.72
960.276	454.81
963.563	448.5
966.851	425.12
970.138	417.11
973.424	389.74
976.711	382.32
979.997	368.9
983.283	363.18
986.568	350.13
989.853	340.19
993.138	327.25
996.423	322.62
999.708	312.71
1002.992	313.67
1006.275	301.91
1009.559	299.56
1012.842	291.16
1016.125	282.57
1019.408	275.99
1022.69	272.28
1025.972	269.77
1029.254	262.15
1032.536	257.67
1035.817	248.21
1039.098	243.63
1042.379	241.15
1045.659	236.36
1048.939	233.9
1052.219	230.93
1055.498	226
1058.778	223.12
1062.057	218.49
1065.335	217.73
1068.614	213.22
1071.892	211.28
1075.17	207.34
1078.447	204.07
1081.724	203.1
1085.001	199.07
1088.278	196.53
1091.554	195.21
1094.83	193.4
1098.106	190.35
1101.382	188.85
1104.657	187.75
1107.932	186.83
1111.206	185.08
1114.481	183.02
1117.755	180.99
1121.029	180.29
1124.302	178.67
1127.575	175.35
1130.848	174.82
1134.121	172.46
1137.393	171.7
1140.665	169.79
1143.937	167.63
1147.208	165.59
1150.48	163.34
1153.75	162.99
1157.021	161.38
1160.291	160.31
1163.561	160.83
1166.831	158.96
1170.101	158.82
1173.37	157.41
1176.639	156.41
1179.907	156.77
1183.176	156.48
1186.444	157.17
1189.711	155.82
1192.979	156.89
1196.246	157.37
1199.513	155.74
1202.78	156.36
1206.046	156.07
1209.312	157.06
1212.578	158.41
1215.843	160.19
1219.108	161.59
1222.373	163.63
1225.638	166.4
1228.902	170.51
1232.166	175.97
1235.43	178.5
1238.693	184.1
1241.956	188.22
1245.219	193.07
1248.482	194.33
1251.744	193.53
1255.006	193.94
1258.268	189.72
1261.529	188.02
1264.79	182.16
1268.051	177.4
1271.312	177.34
1274.572	172.99
1277.832	168.38
1281.092	166.26
1284.351	162.98
1287.61	162.95
1290.869	161.36
1294.128	160.21
1297.386	159.84
1300.644	159.44
1303.902	159.14
1307.159	157.84
1310.416	158.74
1313.673	161.26
1316.93	162.4
1320.186	165.14
1323.442	166.9
1326.697	171.29
1329.953	174.46
1333.208	179.82
1336.463	187.1
1339.717	190.73
1342.972	199.79
1346.226	205.45
1349.479	207.7
1352.733	217.33
1355.986	222.16
1359.238	227.68
1362.491	229.56
1365.743	236.02
1368.995	237.78
1372.247	238.79
1375.498	238.27
1378.749	246.64
1382	247.76
1385.251	246.68
1388.501	245.45
1391.751	248.6
1395	248.36
1398.25	250.5
1401.499	249.83
1404.748	249.98
1407.996	244.1
1411.244	245.3
1414.492	240.71
1417.74	233.95
1420.987	229.08
1424.234	223.59
1427.481	217.8
1430.728	210.64
1433.974	203.87
1437.22	195.86
1440.465	189.92
1443.711	184.01
1446.956	178.09
1450.201	170.8
1453.445	163.87
1456.689	158.66
1459.933	153.68
1463.177	145.42
1466.42	142.29
1469.663	137.66
1472.906	134.49
1476.148	130.43
1479.391	127.66
1482.633	125.04
1485.874	122.88
1489.115	120.75
1492.356	118.65
1495.597	117.05
1498.838	115.86
1502.078	114.89
1505.318	114.36
1508.557	113.42
1511.797	112.02
1515.036	111.45
1518.274	110.68
1521.513	109.17
1524.751	108.68
1527.989	109.48
1531.227	109.15
1534.464	109.3
1537.701	107.34
1540.938	106.88
1544.174	106.15
1547.41	106.32
1550.646	106.17
1553.882	106.25
1557.117	105.49
1560.352	104.44
1563.587	103.14
1566.821	102.92
1570.055	102.27
1573.289	102.1
1576.523	102.42
1579.756	102.21
1582.989	101.39
1586.222	100.44
1589.454	99.83
1592.686	100.21
1595.918	100.41
1599.15	100.44
1602.381	100.4
1605.612	100.19
1608.843	100.73
1612.073	100.5
1615.303	100.78
1618.533	100.81
1621.762	101.6
1624.992	101.68
1628.221	101.26
1631.449	101.95
1634.678	101.58
1637.906	101.38
1641.134	102.27
1644.361	102.11
1647.588	102
1650.815	102.3
1654.042	102.68
1657.269	101.91
1660.495	102.77
1663.72	102.8
1666.946	102.48
1670.171	103.19
1673.396	104.24
1676.621	103.73
1679.845	104.51
1683.069	104.06
1686.293	103.36
1689.517	103.66
1692.74	104.32
1695.963	104.69
1699.185	104.97
1702.408	105.17
1705.63	105.25
1708.852	105.67
1712.073	105.28
1715.294	104.79
1718.515	106.17
1721.736	106.82
1724.956	106.99
1728.176	107.04
1731.396	107.1
1734.616	107.13
1737.835	107.71
1741.054	106.32
1744.272	106.73
1747.491	107.35
1750.709	107.69
1753.927	107.52
1757.144	107.95
1760.361	107.77
1763.578	108.49
1766.795	108.76
1770.011	109.64
1773.227	109.85
1776.443	112.14
1779.658	111.81
1782.874	112.95
1786.089	113.27
1789.303	113.66
1792.518	114.77
1795.732	115.53
1798.945	116.38
1802.159	116.68
1805.372	118.14
1808.585	118.93
1811.797	119.44
1815.01	120.18
1818.222	120.59
1821.434	122.31
1824.645	123.18
1827.856	124.66
1831.067	125.34
1834.278	127.06
1837.488	127.86
1840.698	128.59
1843.908	129.07
1847.117	131.23
1850.326	132.62
1853.535	133.82
1856.744	134.75
1859.952	136.04
1863.16	136.74
1866.368	136.72
1869.575	137.51
1872.782	138.18
1875.989	137.89
1879.196	138.16
1882.402	137.3
1885.608	138.45
1888.814	138.24
1892.019	139.86
1895.224	138.85
1898.429	138.86
1901.634	141.14
1904.838	141.11
1908.042	142.41
1911.246	142.31
1914.449	143.33
1917.652	143.87
1920.855	144.19
1924.058	142.58
1927.26	142.68
1930.462	143.47
1933.664	143.42
1936.865	142.74
1940.066	142.42
1943.267	140.77
1946.467	142.84
1949.668	142.36
1952.868	142.68
1956.067	141.9
1959.267	143.37
1962.466	143.43
1965.665	144.5
1968.863	145.82
1972.061	147.08
1975.259	149.49
1978.457	151.19
1981.654	150.98
1984.852	153.06
1988.048	154.57
1991.245	157.12
1994.441	160.86
1997.637	165.08
2000.833	167.81
2004.028	169.98
2007.223	174.87
2010.418	178.15
2013.613	186.31
2016.807	192.08
2020.001	194.65
2023.194	198.91
2026.388	206.51
2029.581	216.17
2032.774	220.76
2035.966	227.89
2039.158	234.14
2042.35	237.78
2045.542	241.78
2048.733	249.98
2051.924	252.94
2055.115	258.3
2058.306	261.9
2061.496	265.98
2064.686	265.58
2067.875	265.25
2071.065	267.23
2074.254	268.88
2077.442	276.09
2080.631	278.35
2083.819	278.86
2087.007	285.89
2090.195	291.09
2093.382	290.62
2096.569	289.95
2099.756	294.4
2102.942	300.18
2106.128	308.27
2109.314	307.91
2112.5	308.61
2115.685	307.35
2118.87	308.26
2122.055	307.59
2125.239	312.74
2128.424	321.42
2131.608	319.01
2134.791	318.89
2137.974	320.34
2141.157	322.15
2144.34	326.31
2147.523	328.43
2150.705	337.65
2153.887	334.46
2157.068	338.23
2160.25	342.47
2163.431	339.87
2166.611	346.95
2169.792	355.86
2172.972	360.24
2176.152	360.97
2179.331	369.11
2182.511	372.87
2185.69	376.87
2188.868	392.11
2192.047	400.12
2195.225	402.29
2198.403	409.56
2201.58	406.24
2204.758	416.76
2207.935	420.56
2211.111	428.82
2214.288	430.58
2217.464	435.35
2220.64	437.42
2223.815	439.09
2226.991	435.03
2230.166	439.27
2233.34	453.91
2236.515	463.84
2239.689	457.41
2242.863	468.04
2246.036	459.61
2249.209	473.84
2252.382	473.59
2255.555	489.65
2258.727	492.37
2261.9	509.45
2265.071	516.68
2268.243	514.36
2271.414	530.06
2274.585	540.79
2277.756	535.88
2280.926	564.96
2284.096	559.16
2287.266	561.6
2290.436	551.92
2293.605	566.05
2296.774	584.87
2299.942	583.19
2303.111	598.35
2306.279	613.27
2309.447	619.85
2312.614	620.93
2315.781	632.74
2318.948	645.01
2322.115	658.63
2325.281	692.47
2328.447	686.68
2331.613	684.91
2334.779	701
2337.944	706.58
2341.109	716.59
2344.274	723.34
2347.438	747.39
2350.602	756.65
2353.766	801.51
2356.929	803.7
2360.092	816.47
2363.255	819.14
2366.418	833.25
2369.58	845.48
2372.742	851.83
2375.904	846.99
2379.066	865.69
2382.227	930.36
2385.388	927.03
2388.548	879.43
2391.709	874.91
2394.869	906.89
2398.029	907.35
2401.188	910.38
2404.347	939.19
2407.506	965.92
2410.665	931.72
2413.823	936.6
2416.981	925.51
2420.139	874.99
2423.296	948.88
2426.453	1002.4
2429.61	960.87
2432.767	1030.74
2435.923	1062.7
2439.079	1025.99
2442.235	1050.82
2445.391	1077.66
2448.546	1067.32
2451.701	1120.45
2454.855	1205.97
2458.009	1058.99
2461.163	1087.7
2464.317	1090.19
2467.471	1062.14
2470.624	1099.95
2473.777	1085.9
2476.929	1049.39
2480.082	1127.59
2483.234	1182.01
2486.385	1201.61
2489.537	1230.16
2492.688	1369.08
2495.839	1340.38
2498.989	1377.04
2502.14	1384.94
2505.29	1315.34
2508.439	1459.46
2511.589	1498.46
2514.738	1443.9
2517.887	1432.56
2521.035	1346.77
2524.183	1325.84
2527.331	1303.32
2530.479	1269.66
2533.627	1298.28
