Data from N_1_dec_on_6n_017_Splice17_20.txt Node
Date: Sat Feb 29 13:40:43 EST 2020
User: sa697716
Spectrometer: FLMS03696
Trigger mode: 0
Integration Time (sec): 3.180400E-1
Scans to average: 20
Electric dark correction enabled: true
Nonlinearity correction enabled: true
Boxcar width: 5
XAxis mode: Wavelengths
Number of Pixels in Spectrum: 2048
>>>>>Begin Spectral Data<<<<<
187.83	99.19
188.298	87.9
188.766	68.3
189.233	60.98
189.701	64.21
190.169	74.76
190.636	65.2
191.104	42.28
191.571	-172.31
192.039	19.04
192.506	251.75
192.974	6666.32
193.441	-216.55
193.908	59.51
194.375	16.95
194.842	-37.2
195.31	22.14
195.777	13.56
196.244	11.84
196.711	19.61
197.177	20.1
197.644	21.28
198.111	21.51
198.578	21.23
199.045	21.79
199.511	22.56
199.978	23.31
200.445	23.6
200.911	23.76
201.378	23.91
201.844	24.55
202.31	25.2
202.777	25.27
203.243	26.17
203.709	26.43
204.176	26.32
204.642	26.08
205.108	26.18
205.574	26.29
206.04	26.17
206.506	26.31
206.972	25.89
207.438	25.42
207.903	25.47
208.369	24.98
208.835	25.01
209.301	24.73
209.766	24.44
210.232	24.33
210.697	24.14
211.163	24.14
211.628	23.77
212.094	23.55
212.559	23.52
213.024	22.97
213.49	22.57
213.955	22.49
214.42	22.04
214.885	21.74
215.35	20.96
215.815	20.23
216.28	19.42
216.745	18.61
217.21	17.87
217.675	17.05
218.14	16.49
218.604	15.74
219.069	15.11
219.534	14.72
219.998	14.21
220.463	13.92
220.927	13.59
221.392	13.28
221.856	13.05
222.32	12.79
222.785	12.61
223.249	12.42
223.713	12.26
224.177	12.1
224.642	11.92
225.106	11.79
225.57	11.61
226.034	11.51
226.497	11.38
226.961	11.23
227.425	11.1
227.889	10.96
228.353	10.83
228.816	10.73
229.28	10.61
229.744	10.51
230.207	10.42
230.671	10.32
231.134	10.2
231.597	10.1
232.061	10.02
232.524	9.94
232.987	9.84
233.45	9.75
233.914	9.66
234.377	9.59
234.84	9.51
235.303	9.42
235.766	9.34
236.229	9.26
236.691	9.18
237.154	9.1
237.617	9.02
238.08	8.96
238.542	8.87
239.005	8.8
239.468	8.71
239.93	8.63
240.393	8.56
240.855	8.5
241.317	8.43
241.78	8.36
242.242	8.28
242.704	8.2
243.166	8.14
243.629	8.08
244.091	8.02
244.553	7.97
245.015	7.91
245.477	7.86
245.939	7.81
246.4	7.76
246.862	7.71
247.324	7.68
247.786	7.65
248.247	7.59
248.709	7.55
249.17	7.5
249.632	7.45
250.093	7.4
250.555	7.35
251.016	7.3
251.477	7.25
251.939	7.22
252.4	7.18
252.861	7.14
253.322	7.11
253.783	7.09
254.244	7.05
254.705	7.02
255.166	7
255.627	6.97
256.088	6.93
256.549	6.92
257.009	6.88
257.47	6.85
257.931	6.8
258.391	6.77
258.852	6.72
259.312	6.69
259.773	6.65
260.233	6.62
260.694	6.58
261.154	6.54
261.614	6.5
262.074	6.46
262.534	6.42
262.994	6.39
263.455	6.35
263.915	6.33
264.374	6.3
264.834	6.27
265.294	6.23
265.754	6.21
266.214	6.19
266.673	6.17
267.133	6.15
267.593	6.13
268.052	6.1
268.512	6.08
268.971	6.05
269.431	6.04
269.89	6.02
270.349	6
270.809	5.99
271.268	5.97
271.727	5.95
272.186	5.93
272.645	5.92
273.104	5.9
273.563	5.89
274.022	5.87
274.481	5.85
274.94	5.82
275.399	5.8
275.857	5.78
276.316	5.75
276.775	5.73
277.233	5.7
277.692	5.67
278.15	5.65
278.609	5.63
279.067	5.61
279.525	5.58
279.984	5.58
280.442	5.56
280.9	5.55
281.358	5.54
281.816	5.53
282.274	5.52
282.732	5.52
283.19	5.51
283.648	5.5
284.106	5.49
284.564	5.5
285.021	5.5
285.479	5.5
285.937	5.49
286.394	5.48
286.852	5.47
287.309	5.47
287.767	5.47
288.224	5.46
288.682	5.46
289.139	5.45
289.596	5.43
290.053	5.4
290.511	5.38
290.968	5.37
291.425	5.36
291.882	5.34
292.339	5.33
292.796	5.3
293.252	5.29
293.709	5.27
294.166	5.26
294.623	5.24
295.079	5.24
295.536	5.23
295.992	5.21
296.449	5.2
296.905	5.18
297.362	5.16
297.818	5.15
298.274	5.14
298.731	5.13
299.187	5.12
299.643	5.11
300.099	5.1
300.555	5.08
301.011	5.07
301.467	5.06
301.923	5.06
302.379	5.04
302.835	5.03
303.291	5.02
303.746	5.01
304.202	5
304.658	4.99
305.113	4.98
305.569	4.97
306.024	4.96
306.479	4.95
306.935	4.93
307.39	4.93
307.845	4.92
308.301	4.92
308.756	4.92
309.211	4.92
309.666	4.93
310.121	4.94
310.576	4.94
311.031	4.94
311.486	4.94
311.94	4.94
312.395	4.95
312.85	4.95
313.305	4.96
313.759	4.96
314.214	4.95
314.668	4.94
315.123	4.93
315.577	4.93
316.032	4.93
316.486	4.92
316.94	4.92
317.394	4.91
317.849	4.91
318.303	4.89
318.757	4.87
319.211	4.87
319.665	4.86
320.119	4.85
320.572	4.84
321.026	4.84
321.48	4.84
321.934	4.83
322.387	4.81
322.841	4.79
323.295	4.78
323.748	4.77
324.202	4.77
324.655	4.75
325.108	4.74
325.562	4.72
326.015	4.7
326.468	4.68
326.921	4.66
327.374	4.66
327.827	4.65
328.28	4.65
328.733	4.64
329.186	4.63
329.639	4.62
330.092	4.62
330.545	4.62
330.997	4.61
331.45	4.61
331.903	4.61
332.355	4.61
332.808	4.61
333.26	4.6
333.713	4.61
334.165	4.61
334.617	4.62
335.069	4.63
335.522	4.63
335.974	4.63
336.426	4.64
336.878	4.64
337.33	4.64
337.782	4.64
338.234	4.64
338.686	4.63
339.137	4.63
339.589	4.62
340.041	4.61
340.493	4.6
340.944	4.6
341.396	4.6
341.847	4.59
342.299	4.58
342.75	4.56
343.201	4.55
343.653	4.54
344.104	4.53
344.555	4.52
345.006	4.51
345.457	4.5
345.908	4.49
346.359	4.47
346.81	4.47
347.261	4.46
347.712	4.46
348.163	4.45
348.613	4.45
349.064	4.43
349.515	4.43
349.965	4.42
350.416	4.42
350.866	4.42
351.317	4.42
351.767	4.41
352.217	4.41
352.668	4.42
353.118	4.43
353.568	4.43
354.018	4.45
354.468	4.45
354.918	4.46
355.368	4.47
355.818	4.47
356.268	4.47
356.718	4.49
357.168	4.49
357.617	4.5
358.067	4.49
358.517	4.49
358.966	4.5
359.416	4.52
359.865	4.52
360.315	4.54
360.764	4.56
361.213	4.58
361.663	4.6
362.112	4.63
362.561	4.65
363.01	4.67
363.459	4.69
363.908	4.72
364.357	4.74
364.806	4.76
365.255	4.79
365.703	4.81
366.152	4.83
366.601	4.84
367.05	4.85
367.498	4.86
367.947	4.88
368.395	4.91
368.844	4.92
369.292	4.93
369.74	4.95
370.189	4.95
370.637	4.95
371.085	4.97
371.533	4.99
371.981	5.02
372.429	5.03
372.877	5.04
373.325	5.04
373.773	5.05
374.221	5.06
374.669	5.08
375.116	5.1
375.564	5.12
376.012	5.14
376.459	5.14
376.907	5.16
377.354	5.18
377.801	5.21
378.249	5.23
378.696	5.27
379.143	5.29
379.591	5.3
380.038	5.32
380.485	5.35
380.932	5.35
381.379	5.37
381.826	5.38
382.273	5.39
382.72	5.39
383.166	5.41
383.613	5.41
384.06	5.41
384.506	5.43
384.953	5.43
385.4	5.43
385.846	5.43
386.292	5.45
386.739	5.44
387.185	5.45
387.631	5.45
388.078	5.46
388.524	5.44
388.97	5.44
389.416	5.43
389.862	5.43
390.308	5.42
390.754	5.44
391.2	5.44
391.645	5.44
392.091	5.45
392.537	5.44
392.983	5.43
393.428	5.45
393.874	5.46
394.319	5.46
394.765	5.46
395.21	5.45
395.655	5.43
396.101	5.43
396.546	5.44
396.991	5.44
397.436	5.42
397.881	5.42
398.326	5.42
398.771	5.43
399.216	5.43
399.661	5.43
400.106	5.45
400.551	5.45
400.995	5.42
401.44	5.39
401.885	5.37
402.329	5.39
402.774	5.37
403.218	5.35
403.663	5.31
404.107	5.3
404.551	5.29
404.995	5.28
405.44	5.26
405.884	5.26
406.328	5.26
406.772	5.26
407.216	5.26
407.66	5.26
408.104	5.25
408.547	5.25
408.991	5.23
409.435	5.22
409.879	5.2
410.322	5.2
410.766	5.2
411.209	5.2
411.653	5.19
412.096	5.17
412.54	5.16
412.983	5.16
413.426	5.16
413.869	5.17
414.312	5.19
414.756	5.21
415.199	5.2
415.642	5.22
416.085	5.23
416.527	5.25
416.97	5.25
417.413	5.25
417.856	5.23
418.298	5.22
418.741	5.21
419.184	5.19
419.626	5.18
420.069	5.17
420.511	5.16
420.953	5.14
421.396	5.11
421.838	5.13
422.28	5.14
422.722	5.15
423.164	5.15
423.606	5.15
424.048	5.14
424.49	5.15
424.932	5.14
425.374	5.13
425.816	5.12
426.258	5.11
426.699	5.09
427.141	5.07
427.582	5.05
428.024	5.05
428.465	5.05
428.907	5.06
429.348	5.05
429.789	5.07
430.231	5.07
430.672	5.08
431.113	5.09
431.554	5.11
431.995	5.12
432.436	5.12
432.877	5.12
433.318	5.12
433.759	5.13
434.2	5.14
434.64	5.13
435.081	5.12
435.522	5.15
435.962	5.16
436.403	5.15
436.843	5.16
437.284	5.19
437.724	5.22
438.164	5.23
438.604	5.23
439.045	5.24
439.485	5.23
439.925	5.23
440.365	5.22
440.805	5.21
441.245	5.22
441.685	5.22
442.125	5.22
442.564	5.22
443.004	5.23
443.444	5.26
443.883	5.26
444.323	5.28
444.762	5.32
445.202	5.36
445.641	5.38
446.081	5.42
446.52	5.43
446.959	5.44
447.398	5.49
447.837	5.52
448.276	5.54
448.716	5.56
449.154	5.59
449.593	5.6
450.032	5.59
450.471	5.61
450.91	5.59
451.349	5.61
451.787	5.61
452.226	5.57
452.664	5.56
453.103	5.53
453.541	5.53
453.98	5.52
454.418	5.5
454.856	5.48
455.295	5.47
455.733	5.48
456.171	5.47
456.609	5.47
457.047	5.47
457.485	5.48
457.923	5.48
458.361	5.48
458.798	5.48
459.236	5.48
459.674	5.49
460.111	5.5
460.549	5.5
460.987	5.5
461.424	5.49
461.862	5.49
462.299	5.49
462.736	5.49
463.173	5.49
463.611	5.5
464.048	5.5
464.485	5.51
464.922	5.49
465.359	5.51
465.796	5.5
466.233	5.5
466.67	5.51
467.106	5.5
467.543	5.51
467.98	5.5
468.416	5.49
468.853	5.47
469.29	5.48
469.726	5.48
470.162	5.48
470.599	5.49
471.035	5.49
471.471	5.48
471.907	5.48
472.344	5.48
472.78	5.48
473.216	5.48
473.652	5.48
474.088	5.48
474.523	5.47
474.959	5.45
475.395	5.43
475.831	5.42
476.266	5.43
476.702	5.42
477.138	5.4
477.573	5.37
478.008	5.36
478.444	5.35
478.879	5.34
479.314	5.34
479.75	5.35
480.185	5.34
480.62	5.34
481.055	5.34
481.49	5.34
481.925	5.35
482.36	5.35
482.795	5.34
483.229	5.36
483.664	5.36
484.099	5.35
484.534	5.33
484.968	5.33
485.403	5.32
485.837	5.32
486.271	5.31
486.706	5.3
487.14	5.31
487.574	5.32
488.009	5.33
488.443	5.34
488.877	5.35
489.311	5.37
489.745	5.38
490.179	5.4
490.613	5.42
491.046	5.45
491.48	5.48
491.914	5.5
492.348	5.51
492.781	5.54
493.215	5.55
493.648	5.57
494.082	5.61
494.515	5.65
494.948	5.68
495.382	5.72
495.815	5.74
496.248	5.78
496.681	5.82
497.114	5.86
497.547	5.9
497.98	5.96
498.413	6.01
498.846	6.05
499.279	6.11
499.711	6.16
500.144	6.21
500.577	6.27
501.009	6.33
501.442	6.41
501.874	6.49
502.306	6.58
502.739	6.66
503.171	6.74
503.603	6.84
504.036	6.94
504.468	7.06
504.9	7.18
505.332	7.3
505.764	7.43
506.196	7.56
506.627	7.69
507.059	7.82
507.491	7.97
507.923	8.13
508.354	8.28
508.786	8.44
509.217	8.6
509.649	8.79
510.08	8.97
510.512	9.17
510.943	9.36
511.374	9.56
511.805	9.77
512.237	9.99
512.668	10.21
513.099	10.45
513.53	10.69
513.961	10.92
514.391	11.16
514.822	11.39
515.253	11.64
515.684	11.88
516.114	12.13
516.545	12.39
516.975	12.66
517.406	12.92
517.836	13.18
518.267	13.46
518.697	13.74
519.127	14.01
519.558	14.29
519.988	14.56
520.418	14.84
520.848	15.09
521.278	15.36
521.708	15.49
522.138	15.73
522.567	15.98
522.997	16.22
523.427	16.44
523.857	16.68
524.286	16.91
524.716	17.14
525.145	17.36
525.575	17.58
526.004	17.79
526.433	18.12
526.863	18.32
527.292	18.51
527.721	18.7
528.15	18.87
528.579	19.04
529.008	19.21
529.437	19.36
529.866	19.51
530.295	19.66
530.724	19.8
531.152	19.91
531.581	20.05
532.01	20.17
532.438	20.27
532.867	20.4
533.295	20.5
533.723	20.6
534.152	20.68
534.58	20.78
535.008	20.84
535.436	20.92
535.865	20.99
536.293	21.07
536.721	21.12
537.149	21.17
537.576	21.22
538.004	21.27
538.432	21.31
538.86	21.35
539.287	21.39
539.715	21.43
540.143	21.44
540.57	21.49
540.998	21.51
541.425	21.53
541.852	21.58
542.28	21.58
542.707	21.61
543.134	21.63
543.561	21.63
543.988	21.65
544.415	21.7
544.842	21.73
545.269	21.77
545.696	21.78
546.123	21.81
546.549	21.83
546.976	21.87
547.403	21.88
547.829	21.91
548.256	21.95
548.682	21.97
549.108	21.96
549.535	21.98
549.961	21.95
550.387	21.96
550.813	21.95
551.24	21.93
551.666	21.93
552.092	21.93
552.518	21.91
552.943	21.9
553.369	21.86
553.795	21.85
554.221	21.82
554.646	21.8
555.072	21.75
555.498	21.71
555.923	21.66
556.349	21.58
556.774	21.51
557.199	21.44
557.625	21.37
558.05	21.3
558.475	21.2
558.9	21.09
559.325	20.99
559.75	20.89
560.175	20.8
560.6	20.7
561.025	20.6
561.449	20.48
561.874	20.36
562.299	20.25
562.723	20.12
563.148	19.98
563.572	19.86
563.997	19.73
564.421	19.57
564.846	19.41
565.27	19.25
565.694	19.09
566.118	18.94
566.542	18.77
566.966	18.6
567.39	18.43
567.814	18.27
568.238	18.1
568.662	17.92
569.086	17.76
569.509	17.61
569.933	17.44
570.357	17.28
570.78	17.13
571.204	16.96
571.627	16.8
572.05	16.66
572.474	16.53
572.897	16.38
573.32	16.25
573.743	16.13
574.166	15.99
574.589	15.86
575.012	15.75
575.435	15.61
575.858	15.5
576.281	15.4
576.704	15.3
577.126	15.18
577.549	15.09
577.972	14.99
578.394	14.87
578.817	14.77
579.239	14.69
579.661	14.6
580.084	14.53
580.506	14.45
580.928	14.36
581.35	14.27
581.772	14.19
582.194	14.11
582.616	14.04
583.038	13.97
583.46	13.91
583.882	13.84
584.303	13.76
584.725	13.68
585.147	13.59
585.568	13.52
585.99	13.47
586.411	13.4
586.833	13.33
587.254	13.28
587.675	13.23
588.096	13.19
588.518	13.14
588.939	13.09
589.36	13.05
589.781	13
590.202	12.95
590.623	12.9
591.043	12.85
591.464	12.8
591.885	12.74
592.305	12.7
592.726	12.64
593.147	12.6
593.567	12.56
593.987	12.53
594.408	12.5
594.828	12.46
595.248	12.43
595.669	12.41
596.089	12.38
596.509	12.34
596.929	12.3
597.349	12.26
597.769	12.23
598.189	12.21
598.608	12.17
599.028	12.13
599.448	12.11
599.867	12.08
600.287	12.03
600.706	12.01
601.126	11.98
601.545	11.95
601.965	11.91
602.384	11.87
602.803	11.82
603.222	11.77
603.641	11.72
604.061	11.67
604.48	11.61
604.898	11.55
605.317	11.5
605.736	11.45
606.155	11.38
606.574	11.32
606.992	11.25
607.411	11.19
607.829	11.09
608.248	11.03
608.666	10.97
609.085	10.91
609.503	10.85
609.921	10.77
610.339	10.71
610.758	10.66
611.176	10.6
611.594	10.55
612.012	10.49
612.43	10.48
612.847	10.42
613.265	10.35
613.683	10.29
614.101	10.24
614.518	10.19
614.936	10.13
615.353	10.07
615.771	10.02
616.188	9.98
616.606	9.93
617.023	9.87
617.44	9.83
617.857	9.78
618.274	9.74
618.691	9.71
619.108	9.66
619.525	9.61
619.942	9.59
620.359	9.54
620.776	9.51
621.192	9.49
621.609	9.48
622.026	9.46
622.442	9.44
622.859	9.43
623.275	9.42
623.691	9.41
624.108	9.41
624.524	9.38
624.94	9.38
625.356	9.38
625.772	9.36
626.188	9.35
626.604	9.33
627.02	9.33
627.436	9.32
627.852	9.3
628.268	9.29
628.683	9.28
629.099	9.26
629.514	9.24
629.93	9.21
630.345	9.17
630.761	9.13
631.176	9.11
631.591	9.07
632.007	9.04
632.422	9
632.837	8.95
633.252	8.91
633.667	8.85
634.082	8.81
634.497	8.75
634.911	8.69
635.326	8.64
635.741	8.56
636.155	8.48
636.57	8.4
636.984	8.32
637.399	8.22
637.813	8.12
638.228	8.04
638.642	7.93
639.056	7.84
639.47	7.75
639.884	7.65
640.298	7.55
640.712	7.46
641.126	7.37
641.54	7.29
641.954	7.22
642.368	7.15
642.781	7.06
643.195	6.97
643.609	6.9
644.022	6.82
644.436	6.77
644.849	6.7
645.262	6.65
645.676	6.6
646.089	6.54
646.502	6.49
646.915	6.43
647.328	6.39
647.741	6.34
648.154	6.31
648.567	6.28
648.98	6.25
649.393	6.22
649.805	6.18
650.218	6.16
650.631	6.15
651.043	6.13
651.456	6.12
651.868	6.09
652.28	6.1
652.693	6.08
653.105	6.05
653.517	6.03
653.929	6.01
654.341	6
654.753	5.96
655.165	5.94
655.577	5.91
655.989	5.88
656.401	5.86
656.813	5.82
657.224	5.8
657.636	5.77
658.047	5.75
658.459	5.72
658.87	5.68
659.282	5.67
659.693	5.63
660.104	5.6
660.515	5.57
660.926	5.54
661.338	5.51
661.749	5.48
662.159	5.46
662.57	5.43
662.981	5.4
663.392	5.39
663.803	5.36
664.213	5.34
664.624	5.34
665.035	5.32
665.445	5.32
665.855	5.31
666.266	5.29
666.676	5.28
667.086	5.28
667.497	5.28
667.907	5.28
668.317	5.27
668.727	5.28
669.137	5.28
669.547	5.29
669.956	5.3
670.366	5.32
670.776	5.34
671.186	5.36
671.595	5.39
672.005	5.42
672.414	5.46
672.824	5.5
673.233	5.54
673.642	5.56
674.052	5.59
674.461	5.63
674.87	5.67
675.279	5.71
675.688	5.74
676.097	5.78
676.506	5.82
676.915	5.86
677.323	5.9
677.732	5.95
678.141	6
678.549	6.05
678.958	6.11
679.366	6.16
679.775	6.21
680.183	6.27
680.592	6.34
681	6.4
681.408	6.45
681.816	6.52
682.224	6.59
682.632	6.66
683.04	6.73
683.448	6.8
683.856	6.89
684.264	6.99
684.671	7.1
685.079	7.22
685.487	7.35
685.894	7.49
686.302	7.66
686.709	7.82
687.116	8.02
687.524	8.25
687.931	8.5
688.338	8.77
688.745	9.07
689.152	9.38
689.559	9.72
689.966	10.07
690.373	10.48
690.78	10.89
691.187	11.32
691.593	11.77
692	12.25
692.407	12.74
692.813	13.25
693.22	13.78
693.626	14.33
694.032	14.89
694.439	15.5
694.845	16.07
695.251	16.69
695.657	17.31
696.063	17.94
696.469	18.55
696.875	19.16
697.281	19.77
697.687	20.42
698.093	21.05
698.498	21.67
698.904	22.3
699.31	22.93
699.715	23.56
700.12	24.17
700.526	24.8
700.931	25.42
701.337	26.04
701.742	26.64
702.147	27.23
702.552	27.85
702.957	28.46
703.362	29.03
703.767	29.59
704.172	30.15
704.577	30.71
704.981	31.26
705.386	31.82
705.791	32.36
706.195	32.92
706.6	33.44
707.004	33.97
707.408	34.47
707.813	34.98
708.217	35.5
708.621	36.01
709.025	36.51
709.43	36.99
709.834	37.48
710.237	37.95
710.641	38.42
711.045	38.89
711.449	39.33
711.853	39.78
712.256	40.2
712.66	40.65
713.064	41.07
713.467	41.52
713.87	41.98
714.274	42.42
714.677	42.82
715.08	43.21
715.484	43.63
715.887	44.05
716.29	44.43
716.693	44.82
717.096	45.22
717.499	45.6
717.901	45.95
718.304	46.29
718.707	46.6
719.109	46.98
719.512	47.36
719.915	47.68
720.317	48.02
720.719	48.35
721.122	48.67
721.524	48.97
721.926	49.27
722.328	49.59
722.731	49.87
723.133	50.17
723.535	50.45
723.937	50.73
724.338	50.97
724.74	51.23
725.142	51.5
725.544	51.76
725.945	52.01
726.347	52.24
726.748	52.41
727.15	52.64
727.551	52.83
727.952	53.03
728.354	53.23
728.755	53.45
729.156	53.63
729.557	53.8
729.958	53.98
730.359	54.12
730.76	54.26
731.161	54.44
731.562	54.6
731.962	54.75
732.363	54.88
732.763	55.02
733.164	55.1
733.564	55.23
733.965	55.32
734.365	55.38
734.766	55.49
735.166	55.57
735.566	55.66
735.966	55.69
736.366	55.77
736.766	55.84
737.166	55.93
737.566	56.05
737.966	56.13
738.365	56.24
738.765	56.33
739.165	56.38
739.564	56.47
739.964	56.54
740.363	56.66
740.763	56.71
741.162	56.72
741.561	56.76
741.96	56.82
742.36	56.84
742.759	56.84
743.158	56.87
743.557	56.92
743.955	57
744.354	57.05
744.753	57.11
745.152	57.17
745.55	57.27
745.949	57.31
746.348	57.34
746.746	57.38
747.144	57.48
747.543	57.53
747.941	57.61
748.339	57.65
748.737	57.71
749.136	57.73
749.534	57.76
749.932	57.77
750.33	57.79
750.727	57.79
751.125	57.82
751.523	57.8
751.921	57.82
752.318	57.82
752.716	57.81
753.113	57.79
753.511	57.74
753.908	57.73
754.305	57.73
754.703	57.72
755.1	57.71
755.497	57.7
755.894	57.71
756.291	57.72
756.688	57.7
757.085	57.71
757.482	57.73
757.878	57.8
758.275	57.82
758.672	57.85
759.068	57.86
759.465	57.9
759.861	57.92
760.258	57.92
760.654	57.91
761.05	57.92
761.447	57.89
761.843	57.85
762.239	57.84
762.635	57.82
763.031	57.81
763.427	57.79
763.822	57.76
764.218	57.74
764.614	57.72
765.01	57.68
765.405	57.64
765.801	57.64
766.196	57.6
766.592	57.56
766.987	57.54
767.382	57.5
767.778	57.51
768.173	57.51
768.568	57.53
768.963	57.5
769.358	57.5
769.753	57.52
770.148	57.52
770.542	57.52
770.937	57.5
771.332	57.49
771.726	57.46
772.121	57.41
772.515	57.37
772.91	57.34
773.304	57.34
773.699	57.31
774.093	57.28
774.487	57.29
774.881	57.29
775.275	57.31
775.669	57.31
776.063	57.32
776.457	57.31
776.851	57.28
777.245	57.28
777.638	57.26
778.032	57.28
778.425	57.27
778.819	57.25
779.212	57.21
779.606	57.18
779.999	57.15
780.392	57.17
780.786	57.17
781.179	57.23
781.572	57.22
781.965	57.24
782.358	57.23
782.751	57.26
783.143	57.27
783.536	57.35
783.929	57.4
784.322	57.46
784.714	57.43
785.107	57.47
785.499	57.47
785.891	57.49
786.284	57.47
786.676	57.5
787.068	57.48
787.46	57.49
787.852	57.44
788.245	57.43
788.636	57.37
789.028	57.39
789.42	57.41
789.812	57.41
790.204	57.37
790.595	57.41
790.987	57.39
791.378	57.37
791.77	57.39
792.161	57.4
792.553	57.38
792.944	57.43
793.335	57.43
793.726	57.4
794.117	57.38
794.508	57.42
794.899	57.39
795.29	57.4
795.681	57.43
796.072	57.41
796.463	57.44
796.853	57.46
797.244	57.46
797.634	57.42
798.025	57.47
798.415	57.49
798.806	57.49
799.196	57.53
799.586	57.53
799.976	57.53
800.366	57.52
800.756	57.5
801.146	57.51
801.536	57.49
801.926	57.53
802.316	57.5
802.706	57.51
803.095	57.51
803.485	57.49
803.874	57.46
804.264	57.5
804.653	57.52
805.043	57.53
805.432	57.5
805.821	57.47
806.21	57.5
806.599	57.56
806.988	57.57
807.377	57.55
807.766	57.52
808.155	57.55
808.544	57.53
808.933	57.5
809.321	57.5
809.71	57.53
810.098	57.56
810.487	57.55
810.875	57.49
811.264	57.47
811.652	57.48
812.04	57.51
812.428	57.51
812.816	57.53
813.204	57.55
813.592	57.52
813.98	57.53
814.368	57.56
814.756	57.56
815.144	57.61
815.531	57.61
815.919	57.6
816.306	57.62
816.694	57.64
817.081	57.64
817.469	57.66
817.856	57.73
818.243	57.75
818.63	57.76
819.017	57.78
819.404	57.79
819.791	57.81
820.178	57.86
820.565	57.87
820.952	57.89
821.339	57.91
821.725	57.95
822.112	57.96
822.498	57.98
822.885	57.99
823.271	58.02
823.657	58.05
824.044	58.05
824.43	58.08
824.816	58.07
825.202	58.04
825.588	58.06
825.974	58.04
826.36	58.02
826.746	58.03
827.132	58.02
827.517	58.03
827.903	57.99
828.289	57.99
828.674	57.96
829.06	58
829.445	58.03
829.83	58.02
830.216	58.01
830.601	58.02
830.986	58.02
831.371	58.05
831.756	58.04
832.141	58.07
832.526	58.05
832.911	58.1
833.295	58.08
833.68	58.07
834.065	58.08
834.449	58.09
834.834	58.08
835.218	58.09
835.603	58.08
835.987	58.05
836.371	58.03
836.755	58.06
837.139	58.03
837.524	58.04
837.908	58.03
838.291	58.02
838.675	58.01
839.059	58
839.443	57.98
839.827	57.95
840.21	58.01
840.594	58.03
840.977	58.02
841.361	58.04
841.744	58.06
842.127	58.06
842.511	58.02
842.894	58.02
843.277	58.03
843.66	58.04
844.043	58.07
844.426	58.05
844.809	58.04
845.191	58.03
845.574	57.99
845.957	57.94
846.339	57.95
846.722	57.98
847.104	58
847.487	58.01
847.869	58
848.252	58
848.634	58.02
849.016	58
849.398	58.01
849.78	58.01
850.162	58.03
850.544	58.05
850.926	58.03
851.307	58.05
851.689	58
852.071	58
852.452	58
852.834	57.93
853.215	57.96
853.597	57.97
853.978	57.94
854.359	57.92
854.741	57.9
855.122	57.9
855.503	57.89
855.884	57.92
856.265	57.91
856.646	57.88
857.026	57.92
857.407	57.87
857.788	57.88
858.169	57.89
858.549	57.95
858.93	57.96
859.31	57.93
859.69	57.9
860.071	57.89
860.451	57.9
860.831	57.89
861.211	57.87
861.591	57.91
861.971	57.91
862.351	57.95
862.731	57.91
863.111	57.87
863.491	57.91
863.87	57.94
864.25	57.95
864.629	57.97
865.009	57.98
865.388	58
865.768	58
866.147	57.99
866.526	57.97
866.905	57.97
867.284	58.01
867.663	57.99
868.042	57.98
868.421	57.96
868.8	57.93
869.179	57.94
869.558	57.92
869.936	57.92
870.315	57.91
870.693	57.91
871.072	57.9
871.45	57.9
871.828	57.92
872.207	57.93
872.585	57.96
872.963	57.96
873.341	57.98
873.719	57.96
874.097	57.92
874.475	57.94
874.853	57.9
875.23	57.91
875.608	57.92
875.986	57.9
876.363	57.9
876.741	57.86
877.118	57.87
877.495	57.85
877.873	57.88
878.25	57.9
878.627	57.89
879.004	57.92
879.381	57.93
879.758	57.89
880.135	57.89
880.512	57.88
880.889	57.89
881.265	57.89
881.642	57.89
882.019	57.91
882.395	57.89
882.772	57.91
883.148	57.9
883.524	57.91
883.901	57.9
884.277	57.92
884.653	57.95
885.029	57.94
885.405	57.95
885.781	57.94
886.157	57.92
886.532	57.9
886.908	57.91
887.284	57.93
887.659	57.93
888.035	57.94
888.411	57.92
888.786	57.88
889.161	57.89
889.537	57.9
889.912	57.89
890.287	57.87
890.662	57.89
891.037	57.88
891.412	57.87
891.787	57.86
892.162	57.86
892.536	57.87
892.911	57.84
893.286	57.81
893.66	57.78
894.035	57.79
894.409	57.8
894.784	57.78
895.158	57.77
895.532	57.74
895.906	57.73
896.281	57.7
896.655	57.7
897.029	57.72
897.402	57.76
897.776	57.76
898.15	57.74
898.524	57.72
898.898	57.72
899.271	57.71
899.645	57.68
900.018	57.64
900.392	57.65
900.765	57.63
901.138	57.63
901.511	57.59
901.884	57.58
902.258	57.58
902.631	57.58
903.003	57.6
903.376	57.58
903.749	57.61
904.122	57.64
904.495	57.61
904.867	57.57
905.24	57.57
905.612	57.53
905.985	57.5
906.357	57.45
906.729	57.39
907.102	57.34
907.474	57.33
907.846	57.31
908.218	57.26
908.59	57.24
908.962	57.23
909.334	57.19
909.705	57.18
910.077	57.17
910.449	57.2
910.82	57.18
911.192	57.17
911.563	57.13
911.935	57.1
912.306	57.1
912.677	57.11
913.048	57.12
913.419	57.11
913.79	57.13
914.161	57.11
914.532	57.08
914.903	57.11
915.274	57.1
915.645	57.11
916.015	57.08
916.386	57.08
916.756	57.06
917.127	57.03
917.497	57.02
917.868	56.97
918.238	56.98
918.608	56.95
918.978	56.92
919.348	56.91
919.718	56.89
920.088	56.92
920.458	56.97
920.828	56.98
921.198	57
921.567	57.02
921.937	57.04
922.306	57.03
922.676	57.08
923.045	57.09
923.415	57.09
923.784	57.09
924.153	57.03
924.522	56.98
924.891	56.95
925.26	56.91
925.629	56.91
925.998	56.88
926.367	56.87
926.736	56.8
927.104	56.8
927.473	56.76
927.842	56.75
928.21	56.8
928.578	56.77
928.947	56.75
929.315	56.76
929.683	56.76
930.051	56.75
930.42	56.73
930.788	56.73
931.156	56.71
931.523	56.69
931.891	56.64
932.259	56.57
932.627	56.49
932.994	56.46
933.362	56.37
933.729	56.24
934.097	56.16
934.464	56.11
934.831	56.06
935.199	55.99
935.566	55.94
935.933	55.87
936.3	55.76
936.667	55.74
937.034	55.68
937.401	55.63
937.767	55.61
938.134	55.59
938.501	55.58
938.867	55.54
939.234	55.54
939.6	55.54
939.967	55.56
940.333	55.66
940.699	55.7
941.065	55.76
941.431	55.81
941.798	55.85
942.163	55.92
942.529	55.87
942.895	55.93
943.261	55.95
943.627	55.99
943.992	56.07
944.358	56.04
944.723	56.02
945.089	56.06
945.454	56.13
945.82	56.1
946.185	56.1
946.55	56.19
946.915	56.1
947.28	56.03
947.645	56.04
948.01	56.01
948.375	56.1
948.74	56.15
949.104	56.16
949.469	56.04
949.834	56.04
950.198	56.01
950.562	55.96
950.927	56
951.291	55.97
951.655	55.88
952.02	55.87
952.384	55.87
952.748	55.83
953.112	55.83
953.476	55.85
953.839	55.82
954.203	55.74
954.567	55.74
954.931	55.75
955.294	55.8
955.658	55.77
956.021	55.71
956.385	55.68
956.748	55.62
957.111	55.53
957.474	55.55
957.837	55.52
958.2	55.47
958.563	55.39
958.926	55.35
959.289	55.35
959.652	55.4
960.015	55.47
960.377	55.38
960.74	55.31
961.102	55.26
961.465	55.19
961.827	55.17
962.189	55.19
962.552	55.26
962.914	55.18
963.276	55.13
963.638	55.08
964	54.98
964.362	55.01
964.724	55.08
965.085	55.17
965.447	55.12
965.809	55.07
966.17	55.05
966.532	54.99
966.893	55
967.255	54.94
967.616	54.97
967.977	54.97
968.338	54.86
968.699	54.75
969.061	54.63
969.421	54.67
969.782	54.7
970.143	54.63
970.504	54.62
970.865	54.6
971.225	54.66
971.586	54.61
971.946	54.58
972.307	54.66
972.667	54.68
973.027	54.74
973.388	54.71
973.748	54.73
974.108	54.85
974.468	54.88
974.828	54.91
975.188	54.86
975.548	54.89
975.907	54.89
976.267	54.89
976.627	54.92
976.986	54.87
977.346	54.85
977.705	54.84
978.064	54.8
978.424	54.77
978.783	54.77
979.142	54.74
979.501	54.62
979.86	54.65
980.219	54.48
980.578	54.48
980.937	54.54
981.296	54.53
981.654	54.52
982.013	54.53
982.371	54.47
982.73	54.38
983.088	54.33
983.447	54.38
983.805	54.26
984.163	54.41
984.521	54.31
984.879	54.21
985.237	54.26
985.595	54.25
985.953	54.12
986.311	54.22
986.669	54.3
987.026	54.35
987.384	54.42
987.741	54.59
988.099	54.52
988.456	54.55
988.814	54.61
989.171	54.54
989.528	54.51
989.885	54.53
990.242	54.51
990.599	54.46
990.956	54.43
991.313	54.39
991.67	54.24
992.027	54.14
992.383	54.23
992.74	54.03
993.096	53.99
993.453	53.94
993.809	53.97
994.165	53.88
994.522	53.85
994.878	53.9
995.234	53.82
995.59	53.87
995.946	53.97
996.302	53.87
996.658	54.1
997.013	54.12
997.369	54.22
997.725	54.32
998.08	54.29
998.436	54.33
998.791	54.28
999.147	54.39
999.502	54.39
999.857	54.42
1000.212	54.29
1000.567	54.18
1000.922	54.17
1001.277	54.11
1001.632	54.04
1001.987	53.97
1002.342	53.93
1002.696	53.89
1003.051	53.68
1003.406	53.48
1003.76	53.56
1004.114	53.7
1004.469	53.58
1004.823	53.55
1005.177	53.61
1005.531	53.46
1005.885	53.53
1006.239	53.43
1006.593	53.39
1006.947	53.42
1007.301	53.62
1007.655	53.56
1008.008	53.5
1008.362	53.65
1008.715	53.7
1009.069	53.44
1009.422	53.33
1009.776	53.39
1010.129	53.27
1010.482	53.29
1010.835	53.28
1011.188	53.03
1011.541	52.86
1011.894	52.68
1012.247	52.39
1012.6	52.44
1012.952	52.63
1013.305	52.67
1013.657	52.46
1014.01	52.42
1014.362	52.33
1014.715	52.22
1015.067	52.42
1015.419	52.46
1015.771	52.88
1016.123	52.95
1016.475	52.89
1016.827	52.84
1017.179	52.82
1017.531	52.83
1017.883	52.98
1018.234	53.07
1018.586	53.18
1018.938	53.08
1019.289	52.86
1019.64	52.59
1019.992	52.82
1020.343	52.69
1020.694	52.6
1021.045	52.56
1021.396	52.5
1021.747	52.69
1022.098	52.48
1022.449	52.42
1022.8	52.27
1023.151	52.28
1023.501	52.39
1023.852	52.14
1024.202	52.13
1024.553	51.92
1024.903	51.99
1025.253	51.98
1025.604	51.87
1025.954	51.91
1026.304	52.1
1026.654	52.2
1027.004	52.31
1027.354	51.87
1027.703	51.98
1028.053	51.4
1028.403	51.74
1028.753	51.72
1029.102	51.9
1029.452	51.79
1029.801	51.97
1030.15	51.77
1030.499	51.71
897.758	564.2
901.051	578.14
904.343	584.52
907.636	574.71
910.928	564.26
914.22	572.84
917.511	560.25
920.803	537.03
924.094	516.67
927.384	520.81
930.675	503.37
933.965	497.82
937.255	496.49
940.544	473.77
943.834	454.79
947.123	446.93
950.411	426.65
953.7	417.38
956.988	405
960.276	385.55
963.563	380.68
966.851	362.81
970.138	357.35
973.424	332.6
976.711	326.61
979.997	318.78
983.283	311.2
986.568	299.68
989.853	292.03
993.138	282.5
996.423	279.29
999.708	270.13
1002.992	270.63
1006.275	264.17
1009.559	262.62
1012.842	254.93
1016.125	244.37
1019.408	240.42
1022.69	238.93
1025.972	238.2
1029.254	231.57
1032.536	227.97
1035.817	220.1
1039.098	217.42
1042.379	212.85
1045.659	209.01
1048.939	208.6
1052.219	204.76
1055.498	202.05
1058.778	198.5
1062.057	194.24
1065.335	194.39
1068.614	190.73
1071.892	189.67
1075.17	185.4
1078.447	182.38
1081.724	181.49
1085.001	177.59
1088.278	176.77
1091.554	176.33
1094.83	175.31
1098.106	171.71
1101.382	171.35
1104.657	170.64
1107.932	169.97
1111.206	169.52
1114.481	168.04
1117.755	166.45
1121.029	166.23
1124.302	164.9
1127.575	161.91
1130.848	161
1134.121	159.23
1137.393	158
1140.665	156.72
1143.937	155.32
1147.208	153.75
1150.48	152.08
1153.75	151.68
1157.021	150.47
1160.291	150.59
1163.561	149.83
1166.831	148.78
1170.101	149.07
1173.37	148.25
1176.639	146.93
1179.907	146.66
1183.176	146.06
1186.444	146.15
1189.711	144.7
1192.979	146.53
1196.246	145.46
1199.513	144.78
1202.78	144.92
1206.046	144.88
1209.312	145.48
1212.578	146.7
1215.843	148.32
1219.108	149.73
1222.373	151.76
1225.638	154.26
1228.902	156.3
1232.166	160.45
1235.43	163.4
1238.693	168.9
1241.956	171.87
1245.219	175.27
1248.482	176.56
1251.744	175.77
1255.006	176.5
1258.268	172.59
1261.529	171.7
1264.79	166.93
1268.051	163.87
1271.312	162.32
1274.572	157.66
1277.832	154.8
1281.092	153.29
1284.351	150.46
1287.61	150.57
1290.869	149.11
1294.128	148.67
1297.386	148.03
1300.644	147.85
1303.902	147.54
1307.159	147.7
1310.416	148.35
1313.673	150.45
1316.93	150.94
1320.186	153.35
1323.442	154.6
1326.697	157.74
1329.953	158.56
1333.208	163.21
1336.463	168.73
1339.717	171.76
1342.972	178.56
1346.226	183.97
1349.479	184.99
1352.733	192.92
1355.986	196.5
1359.238	201.25
1362.491	202.49
1365.743	211.16
1368.995	210.84
1372.247	211.05
1375.498	209.89
1378.749	216.66
1382	214.25
1385.251	214.41
1388.501	213.5
1391.751	215.99
1395	214.32
1398.25	215.67
1401.499	213.74
1404.748	214.51
1407.996	209
1411.244	210.29
1414.492	205.45
1417.74	199.63
1420.987	194.7
1424.234	190.16
1427.481	182.88
1430.728	177.36
1433.974	171.95
1437.22	165.77
1440.465	161.38
1443.711	156.84
1446.956	151.89
1450.201	146.26
1453.445	140.8
1456.689	136.92
1459.933	132.24
1463.177	127.34
1466.42	124.32
1469.663	120.35
1472.906	117.26
1476.148	114.04
1479.391	111.78
1482.633	109.91
1485.874	108.37
1489.115	107.43
1492.356	105.29
1495.597	104.22
1498.838	103.58
1502.078	103.46
1505.318	103.5
1508.557	102.24
1511.797	100.99
1515.036	101.31
1518.274	100.56
1521.513	99.29
1524.751	98.61
1527.989	99.6
1531.227	99.46
1534.464	99.26
1537.701	98.41
1540.938	97.94
1544.174	98.08
1547.41	98.75
1550.646	98.02
1553.882	98.3
1557.117	98.32
1560.352	98.27
1563.587	97.45
1566.821	97.51
1570.055	96.88
1573.289	97.04
1576.523	97.1
1579.756	96.85
1582.989	96.35
1586.222	96.43
1589.454	96.14
1592.686	96.76
1595.918	96.58
1599.15	96.47
1602.381	96.79
1605.612	97.02
1608.843	96.65
1612.073	97.22
1615.303	97.79
1618.533	97.16
1621.762	97.62
1624.992	97.65
1628.221	96.84
1631.449	97.63
1634.678	96.9
1637.906	96.81
1641.134	97.16
1644.361	97.48
1647.588	97.14
1650.815	97.05
1654.042	97.54
1657.269	97.21
1660.495	97.86
1663.72	97.92
1666.946	97.64
1670.171	98.82
1673.396	99.28
1676.621	99.37
1679.845	99.6
1683.069	99.26
1686.293	99.1
1689.517	99.24
1692.74	99.25
1695.963	99.64
1699.185	99.81
1702.408	100.19
1705.63	100.14
1708.852	100.35
1712.073	99.8
1715.294	99.66
1718.515	100.7
1721.736	101.06
1724.956	100.84
1728.176	100.81
1731.396	100.63
1734.616	100.83
1737.835	100.69
1741.054	100.5
1744.272	99.87
1747.491	100.71
1750.709	100.95
1753.927	100.56
1757.144	100.52
1760.361	100.94
1763.578	101.5
1766.795	102.32
1770.011	102.65
1773.227	103.48
1776.443	104.18
1779.658	104.95
1782.874	105.34
1786.089	105.69
1789.303	105.87
1792.518	107.42
1795.732	108.16
1798.945	108.94
1802.159	108.87
1805.372	110.11
1808.585	110.46
1811.797	111.23
1815.01	111.8
1818.222	112.09
1821.434	113.67
1824.645	114.42
1827.856	115.23
1831.067	115.37
1834.278	116.88
1837.488	117.65
1840.698	118.04
1843.908	118.26
1847.117	119.31
1850.326	119.9
1853.535	120.31
1856.744	120.74
1859.952	122.13
1863.16	121.93
1866.368	121.58
1869.575	121.65
1872.782	120.34
1875.989	119.07
1879.196	119.26
1882.402	117.52
1885.608	118.55
1888.814	118.27
1892.019	117.74
1895.224	115.44
1898.429	115.58
1901.634	116.8
1904.838	116.68
1908.042	117.36
1911.246	117.72
1914.449	117.59
1917.652	118.18
1920.855	117.7
1924.058	116.89
1927.26	116.81
1930.462	117.79
1933.664	117.99
1936.865	117.63
1940.066	115.79
1943.267	115.16
1946.467	116.21
1949.668	116.47
1952.868	117.27
1956.067	116.81
1959.267	118.16
1962.466	118.67
1965.665	119
1968.863	120.82
1972.061	120.61
1975.259	124.28
1978.457	125.5
1981.654	127.04
1984.852	127.67
1988.048	128.63
1991.245	131.18
1994.441	133.88
1997.637	136.42
2000.833	139.87
2004.028	140.46
2007.223	145.81
2010.418	148.11
2013.613	154.69
2016.807	158.28
2020.001	161.16
2023.194	166.79
2026.388	172.02
2029.581	179.53
2032.774	184.64
2035.966	190.34
2039.158	195.17
2042.35	198.03
2045.542	201.44
2048.733	209.14
2051.924	211.63
2055.115	215.42
2058.306	216.86
2061.496	220.63
2064.686	219.76
2067.875	219.65
2071.065	220.17
2074.254	220.68
2077.442	229.18
2080.631	231.19
2083.819	231
2087.007	237.44
2090.195	240.23
2093.382	240.37
2096.569	240.29
2099.756	246.24
2102.942	250.99
2106.128	257.77
2109.314	260.98
2112.5	258.97
2115.685	257.19
2118.87	258.26
2122.055	256.71
2125.239	263.8
2128.424	269.64
2131.608	268.9
2134.791	265.85
2137.974	269.24
2141.157	271.11
2144.34	273.55
2147.523	275.17
2150.705	283.53
2153.887	280.44
2157.068	283.5
2160.25	285.92
2163.431	284.52
2166.611	288.62
2169.792	296.82
2172.972	300
2176.152	299.85
2179.331	305.58
2182.511	307.56
2185.69	311.45
2188.868	325.27
2192.047	331.66
2195.225	335.45
2198.403	341.88
2201.58	336.51
2204.758	348.35
2207.935	348.34
2211.111	354.57
2214.288	357.9
2217.464	363.46
2220.64	364.18
2223.815	363.32
2226.991	357.73
2230.166	359.71
2233.34	370.11
2236.515	383.12
2239.689	379.86
2242.863	385.92
2246.036	382.39
2249.209	389.86
2252.382	389.97
2255.555	403.82
2258.727	406.19
2261.9	420.07
2265.071	427.86
2268.243	422.2
2271.414	434.2
2274.585	439.29
2277.756	441.96
2280.926	457.6
2284.096	458.4
2287.266	457.76
2290.436	450.03
2293.605	462.01
2296.774	480.82
2299.942	477.93
2303.111	493.67
2306.279	501.08
2309.447	504.6
2312.614	506.25
2315.781	520.06
2318.948	528.28
2322.115	540.65
2325.281	568.28
2328.447	563.14
2331.613	562.81
2334.779	575.36
2337.944	580.16
2341.109	593.22
2344.274	595.76
2347.438	617.38
2350.602	626.15
2353.766	660.81
2356.929	665.26
2360.092	670.22
2363.255	671.44
2366.418	682.12
2369.58	693.97
2372.742	694.15
2375.904	689.75
2379.066	711.55
2382.227	753.12
2385.388	749.2
2388.548	717.03
2391.709	704.27
2394.869	726.09
2398.029	735.39
2401.188	734.2
2404.347	755.18
2407.506	782
2410.665	757.86
2413.823	761.51
2416.981	756.02
2420.139	723.11
2423.296	778.72
2426.453	834.34
2429.61	794.89
2432.767	842.14
2435.923	872.24
2439.079	839.15
2442.235	861.8
2445.391	875.56
2448.546	865.48
2451.701	912.19
2454.855	973.2
2458.009	855.04
2461.163	872.64
2464.317	877.04
2467.471	861.04
2470.624	888.87
2473.777	874.89
2476.929	850.83
2480.082	909.47
2483.234	952.29
2486.385	956.79
2489.537	982.67
2492.688	1087.97
2495.839	1068.64
2498.989	1104.48
2502.14	1106.25
2505.29	1053.03
2508.439	1183.37
2511.589	1205.52
2514.738	1169.13
2517.887	1160.49
2521.035	1098.32
2524.183	1073.94
2527.331	1062.89
2530.479	1033.86
2533.627	1062.12
