Data from N_1_div_pa_2n_001_Splice17_20.txt Node
Date: Sat Feb 29 13:33:12 EST 2020
User: sa697716
Spectrometer: FLMS03696
Trigger mode: 0
Integration Time (sec): 3.180400E-1
Scans to average: 20
Electric dark correction enabled: true
Nonlinearity correction enabled: true
Boxcar width: 5
XAxis mode: Wavelengths
Number of Pixels in Spectrum: 2048
>>>>>Begin Spectral Data<<<<<
187.83	70.68
188.298	72.65
188.766	69.42
189.233	58.31
189.701	73.69
190.169	75.52
190.636	75.83
191.104	57.12
191.571	-68.3
192.039	31.21
192.506	156.02
192.974	3810.16
193.441	223.71
193.908	49.28
194.375	-0.31
194.842	79.67
195.31	77.51
195.777	98.6
196.244	30.84
196.711	15.16
197.177	13.71
197.644	13.56
198.111	13.22
198.578	14.83
199.045	15.48
199.511	15.8
199.978	15.77
200.445	15.95
200.911	16.07
201.378	16.17
201.844	16.66
202.31	17.48
202.777	18.13
203.243	18.6
203.709	18.79
204.176	18.34
204.642	18.24
205.108	18.42
205.574	18.52
206.04	18.61
206.506	18.48
206.972	18.31
207.438	17.89
207.903	17.99
208.369	17.84
208.835	17.97
209.301	18.01
209.766	18.25
210.232	18.19
210.697	18.15
211.163	17.97
211.628	17.88
212.094	18.35
212.559	18.31
213.024	17.91
213.49	17.8
213.955	17.53
214.42	17.19
214.885	16.7
215.35	16.7
215.815	16.43
216.28	16.08
216.745	15.63
217.21	14.9
217.675	14.56
218.14	14.05
218.604	13.5
219.069	13.16
219.534	12.93
219.998	12.65
220.463	12.41
220.927	12.1
221.392	11.93
221.856	11.81
222.32	11.65
222.785	11.48
223.249	11.36
223.713	11.25
224.177	11.06
224.642	10.92
225.106	10.81
225.57	10.65
226.034	10.58
226.497	10.42
226.961	10.25
227.425	10.12
227.889	9.97
228.353	9.84
228.816	9.74
229.28	9.62
229.744	9.5
230.207	9.4
230.671	9.29
231.134	9.17
231.597	9.05
232.061	8.97
232.524	8.9
232.987	8.81
233.45	8.71
233.914	8.62
234.377	8.54
234.84	8.45
235.303	8.34
235.766	8.24
236.229	8.17
236.691	8.11
237.154	8.02
237.617	7.91
238.08	7.84
238.542	7.77
239.005	7.69
239.468	7.6
239.93	7.55
240.393	7.48
240.855	7.41
241.317	7.34
241.78	7.27
242.242	7.2
242.704	7.14
243.166	7.08
243.629	7.03
244.091	6.97
244.553	6.92
245.015	6.87
245.477	6.82
245.939	6.77
246.4	6.71
246.862	6.66
247.324	6.63
247.786	6.58
248.247	6.52
248.709	6.46
249.17	6.42
249.632	6.37
250.093	6.31
250.555	6.28
251.016	6.25
251.477	6.2
251.939	6.16
252.4	6.11
252.861	6.08
253.322	6.05
253.783	6.03
254.244	5.97
254.705	5.94
255.166	5.91
255.627	5.88
256.088	5.84
256.549	5.81
257.009	5.78
257.47	5.75
257.931	5.72
258.391	5.69
258.852	5.65
259.312	5.63
259.773	5.59
260.233	5.56
260.694	5.52
261.154	5.49
261.614	5.46
262.074	5.43
262.534	5.39
262.994	5.37
263.455	5.34
263.915	5.31
264.374	5.28
264.834	5.25
265.294	5.22
265.754	5.2
266.214	5.18
266.673	5.15
267.133	5.13
267.593	5.11
268.052	5.09
268.512	5.06
268.971	5.05
269.431	5.03
269.89	5.02
270.349	5
270.809	5
271.268	4.98
271.727	4.96
272.186	4.95
272.645	4.93
273.104	4.91
273.563	4.9
274.022	4.88
274.481	4.87
274.94	4.85
275.399	4.83
275.857	4.8
276.316	4.78
276.775	4.76
277.233	4.73
277.692	4.72
278.15	4.7
278.609	4.68
279.067	4.66
279.525	4.63
279.984	4.61
280.442	4.59
280.9	4.57
281.358	4.55
281.816	4.54
282.274	4.52
282.732	4.5
283.19	4.49
283.648	4.48
284.106	4.47
284.564	4.46
285.021	4.45
285.479	4.44
285.937	4.42
286.394	4.4
286.852	4.38
287.309	4.37
287.767	4.36
288.224	4.34
288.682	4.32
289.139	4.3
289.596	4.28
290.053	4.26
290.511	4.24
290.968	4.22
291.425	4.22
291.882	4.2
292.339	4.19
292.796	4.17
293.252	4.15
293.709	4.14
294.166	4.12
294.623	4.11
295.079	4.09
295.536	4.07
295.992	4.06
296.449	4.04
296.905	4.03
297.362	4.02
297.818	4.01
298.274	4
298.731	3.99
299.187	3.98
299.643	3.96
300.099	3.96
300.555	3.95
301.011	3.94
301.467	3.93
301.923	3.92
302.379	3.91
302.835	3.9
303.291	3.89
303.746	3.88
304.202	3.86
304.658	3.86
305.113	3.84
305.569	3.84
306.024	3.83
306.479	3.81
306.935	3.81
307.39	3.8
307.845	3.78
308.301	3.77
308.756	3.77
309.211	3.76
309.666	3.75
310.121	3.75
310.576	3.74
311.031	3.73
311.486	3.72
311.94	3.71
312.395	3.7
312.85	3.7
313.305	3.69
313.759	3.69
314.214	3.68
314.668	3.68
315.123	3.67
315.577	3.66
316.032	3.66
316.486	3.65
316.94	3.65
317.394	3.64
317.849	3.64
318.303	3.62
318.757	3.6
319.211	3.59
319.665	3.58
320.119	3.58
320.572	3.57
321.026	3.55
321.48	3.54
321.934	3.54
322.387	3.53
322.841	3.52
323.295	3.52
323.748	3.51
324.202	3.51
324.655	3.5
325.108	3.49
325.562	3.48
326.015	3.47
326.468	3.46
326.921	3.45
327.374	3.43
327.827	3.42
328.28	3.41
328.733	3.4
329.186	3.4
329.639	3.39
330.092	3.38
330.545	3.39
330.997	3.38
331.45	3.38
331.903	3.38
332.355	3.38
332.808	3.38
333.26	3.39
333.713	3.39
334.165	3.37
334.617	3.38
335.069	3.39
335.522	3.38
335.974	3.38
336.426	3.38
336.878	3.37
337.33	3.37
337.782	3.37
338.234	3.36
338.686	3.35
339.137	3.35
339.589	3.33
340.041	3.32
340.493	3.31
340.944	3.3
341.396	3.29
341.847	3.28
342.299	3.27
342.75	3.25
343.201	3.24
343.653	3.23
344.104	3.22
344.555	3.22
345.006	3.21
345.457	3.2
345.908	3.19
346.359	3.19
346.81	3.19
347.261	3.18
347.712	3.18
348.163	3.18
348.613	3.17
349.064	3.15
349.515	3.14
349.965	3.14
350.416	3.13
350.866	3.12
351.317	3.1
351.767	3.1
352.217	3.09
352.668	3.09
353.118	3.09
353.568	3.09
354.018	3.09
354.468	3.08
354.918	3.08
355.368	3.08
355.818	3.08
356.268	3.08
356.718	3.08
357.168	3.07
357.617	3.06
358.067	3.05
358.517	3.04
358.966	3.03
359.416	3.05
359.865	3.04
360.315	3.04
360.764	3.04
361.213	3.03
361.663	3.03
362.112	3.04
362.561	3.05
363.01	3.05
363.459	3.04
363.908	3.04
364.357	3.03
364.806	3.02
365.255	3.01
365.703	3.01
366.152	3.01
366.601	3.01
367.05	3.01
367.498	3
367.947	3
368.395	3
368.844	2.99
369.292	2.99
369.74	3
370.189	3
370.637	3
371.085	3
371.533	2.99
371.981	2.99
372.429	2.98
372.877	2.98
373.325	2.98
373.773	2.97
374.221	2.98
374.669	2.97
375.116	2.96
375.564	2.96
376.012	2.96
376.459	2.97
376.907	2.98
377.354	2.99
377.801	2.99
378.249	3
378.696	3.02
379.143	3.03
379.591	3.03
380.038	3.05
380.485	3.06
380.932	3.06
381.379	3.06
381.826	3.07
382.273	3.07
382.72	3.08
383.166	3.08
383.613	3.09
384.06	3.1
384.506	3.11
384.953	3.12
385.4	3.13
385.846	3.13
386.292	3.14
386.739	3.14
387.185	3.17
387.631	3.18
388.078	3.2
388.524	3.19
388.97	3.21
389.416	3.21
389.862	3.23
390.308	3.24
390.754	3.26
391.2	3.29
391.645	3.3
392.091	3.31
392.537	3.32
392.983	3.33
393.428	3.35
393.874	3.37
394.319	3.39
394.765	3.4
395.21	3.4
395.655	3.42
396.101	3.43
396.546	3.44
396.991	3.46
397.436	3.46
397.881	3.47
398.326	3.49
398.771	3.5
399.216	3.52
399.661	3.54
400.106	3.57
400.551	3.57
400.995	3.56
401.44	3.55
401.885	3.55
402.329	3.56
402.774	3.56
403.218	3.57
403.663	3.56
404.107	3.56
404.551	3.57
404.995	3.56
405.44	3.58
405.884	3.58
406.328	3.59
406.772	3.61
407.216	3.61
407.66	3.62
408.104	3.63
408.547	3.64
408.991	3.64
409.435	3.63
409.879	3.63
410.322	3.63
410.766	3.64
411.209	3.64
411.653	3.62
412.096	3.63
412.54	3.63
412.983	3.63
413.426	3.64
413.869	3.64
414.312	3.67
414.756	3.68
415.199	3.68
415.642	3.7
416.085	3.71
416.527	3.73
416.97	3.74
417.413	3.73
417.856	3.74
418.298	3.73
418.741	3.73
419.184	3.71
419.626	3.71
420.069	3.7
420.511	3.7
420.953	3.71
421.396	3.72
421.838	3.73
422.28	3.74
422.722	3.74
423.164	3.75
423.606	3.75
424.048	3.74
424.49	3.76
424.932	3.75
425.374	3.75
425.816	3.72
426.258	3.7
426.699	3.69
427.141	3.68
427.582	3.68
428.024	3.69
428.465	3.69
428.907	3.7
429.348	3.69
429.789	3.7
430.231	3.71
430.672	3.73
431.113	3.76
431.554	3.77
431.995	3.77
432.436	3.76
432.877	3.74
433.318	3.76
433.759	3.76
434.2	3.77
434.64	3.77
435.081	3.78
435.522	3.79
435.962	3.8
436.403	3.8
436.843	3.8
437.284	3.81
437.724	3.84
438.164	3.84
438.604	3.85
439.045	3.86
439.485	3.87
439.925	3.86
440.365	3.84
440.805	3.83
441.245	3.84
441.685	3.87
442.125	3.88
442.564	3.88
443.004	3.88
443.444	3.88
443.883	3.89
444.323	3.88
444.762	3.91
445.202	3.95
445.641	3.97
446.081	3.99
446.52	3.98
446.959	3.99
447.398	4.03
447.837	4.06
448.276	4.08
448.716	4.09
449.154	4.13
449.593	4.13
450.032	4.12
450.471	4.11
450.91	4.1
451.349	4.14
451.787	4.14
452.226	4.11
452.664	4.1
453.103	4.1
453.541	4.11
453.98	4.1
454.418	4.11
454.856	4.1
455.295	4.1
455.733	4.1
456.171	4.09
456.609	4.1
457.047	4.11
457.485	4.1
457.923	4.1
458.361	4.08
458.798	4.08
459.236	4.06
459.674	4.06
460.111	4.07
460.549	4.07
460.987	4.08
461.424	4.07
461.862	4.07
462.299	4.08
462.736	4.08
463.173	4.1
463.611	4.12
464.048	4.14
464.485	4.15
464.922	4.14
465.359	4.13
465.796	4.12
466.233	4.12
466.67	4.12
467.106	4.1
467.543	4.1
467.98	4.09
468.416	4.08
468.853	4.08
469.29	4.07
469.726	4.08
470.162	4.09
470.599	4.09
471.035	4.1
471.471	4.1
471.907	4.1
472.344	4.09
472.78	4.1
473.216	4.1
473.652	4.09
474.088	4.08
474.523	4.08
474.959	4.08
475.395	4.08
475.831	4.07
476.266	4.08
476.702	4.08
477.138	4.09
477.573	4.08
478.008	4.08
478.444	4.09
478.879	4.1
479.314	4.1
479.75	4.1
480.185	4.09
480.62	4.09
481.055	4.08
481.49	4.07
481.925	4.06
482.36	4.06
482.795	4.06
483.229	4.05
483.664	4.03
484.099	4.03
484.534	4.02
484.968	4.03
485.403	4.03
485.837	4.03
486.271	4.03
486.706	4.03
487.14	4.04
487.574	4.05
488.009	4.07
488.443	4.08
488.877	4.1
489.311	4.12
489.745	4.14
490.179	4.16
490.613	4.19
491.046	4.22
491.48	4.25
491.914	4.28
492.348	4.32
492.781	4.36
493.215	4.38
493.648	4.42
494.082	4.47
494.515	4.5
494.948	4.55
495.382	4.6
495.815	4.66
496.248	4.71
496.681	4.77
497.114	4.83
497.547	4.89
497.98	4.97
498.413	5.04
498.846	5.11
499.279	5.19
499.711	5.26
500.144	5.34
500.577	5.43
501.009	5.52
501.442	5.63
501.874	5.73
502.306	5.84
502.739	5.94
503.171	6.07
503.603	6.2
504.036	6.34
504.468	6.49
504.9	6.65
505.332	6.81
505.764	6.97
506.196	7.13
506.627	7.3
507.059	7.49
507.491	7.68
507.923	7.87
508.354	8.06
508.786	8.27
509.217	8.47
509.649	8.68
510.08	8.91
510.512	9.13
510.943	9.37
511.374	9.61
511.805	9.86
512.237	10.09
512.668	10.34
513.099	10.61
513.53	10.87
513.961	11.15
514.391	11.42
514.822	11.7
515.253	12
515.684	12.26
516.114	12.56
516.545	12.85
516.975	13.18
517.406	13.48
517.836	13.78
518.267	14.09
518.697	14.4
519.127	14.7
519.558	15
519.988	15.3
520.418	15.6
520.848	15.88
521.278	16.18
521.708	16.56
522.138	16.82
522.567	17.09
522.997	17.35
523.427	17.61
523.857	17.85
524.286	18.1
524.716	18.34
525.145	18.58
525.575	18.81
526.004	19.02
526.433	19.12
526.863	19.36
527.292	19.56
527.721	19.77
528.15	19.95
528.579	20.13
529.008	20.31
529.437	20.47
529.866	20.61
530.295	20.77
530.724	20.93
531.152	21.08
531.581	21.2
532.01	21.33
532.438	21.45
532.867	21.57
533.295	21.66
533.723	21.77
534.152	21.85
534.58	21.93
535.008	22
535.436	22.07
535.865	22.12
536.293	22.18
536.721	22.25
537.149	22.29
537.576	22.35
538.004	22.4
538.432	22.44
538.86	22.49
539.287	22.56
539.715	22.6
540.143	22.62
540.57	22.66
540.998	22.71
541.425	22.73
541.852	22.78
542.28	22.8
542.707	22.85
543.134	22.88
543.561	22.92
543.988	22.94
544.415	22.97
544.842	23.02
545.269	23.06
545.696	23.09
546.123	23.11
546.549	23.13
546.976	23.16
547.403	23.16
547.829	23.17
548.256	23.19
548.682	23.21
549.108	23.22
549.535	23.23
549.961	23.23
550.387	23.22
550.813	23.22
551.24	23.21
551.666	23.21
552.092	23.2
552.518	23.19
552.943	23.16
553.369	23.15
553.795	23.12
554.221	23.08
554.646	23.03
555.072	22.99
555.498	22.93
555.923	22.89
556.349	22.82
556.774	22.75
557.199	22.68
557.625	22.61
558.05	22.51
558.475	22.44
558.9	22.35
559.325	22.26
559.75	22.18
560.175	22.08
560.6	21.97
561.025	21.86
561.449	21.74
561.874	21.61
562.299	21.49
562.723	21.36
563.148	21.22
563.572	21.09
563.997	20.94
564.421	20.78
564.846	20.64
565.27	20.49
565.694	20.32
566.118	20.18
566.542	20.03
566.966	19.86
567.39	19.71
567.814	19.55
568.238	19.37
568.662	19.21
569.086	19.07
569.509	18.89
569.933	18.72
570.357	18.56
570.78	18.4
571.204	18.25
571.627	18.1
572.05	17.95
572.474	17.8
572.897	17.66
573.32	17.51
573.743	17.35
574.166	17.22
574.589	17.08
575.012	16.96
575.435	16.82
575.858	16.69
576.281	16.57
576.704	16.43
577.126	16.32
577.549	16.21
577.972	16.1
578.394	16.01
578.817	15.89
579.239	15.79
579.661	15.7
580.084	15.61
580.506	15.5
580.928	15.4
581.35	15.32
581.772	15.22
582.194	15.11
582.616	15.02
583.038	14.94
583.46	14.87
583.882	14.79
584.303	14.7
584.725	14.62
585.147	14.55
585.568	14.47
585.99	14.42
586.411	14.36
586.833	14.31
587.254	14.27
587.675	14.21
588.096	14.15
588.518	14.1
588.939	14.06
589.36	14
589.781	13.95
590.202	13.92
590.623	13.86
591.043	13.8
591.464	13.74
591.885	13.69
592.305	13.66
592.726	13.61
593.147	13.58
593.567	13.53
593.987	13.51
594.408	13.47
594.828	13.42
595.248	13.38
595.669	13.36
596.089	13.34
596.509	13.29
596.929	13.24
597.349	13.21
597.769	13.15
598.189	13.14
598.608	13.09
599.028	13.06
599.448	13.04
599.867	13.01
600.287	12.96
600.706	12.91
601.126	12.87
601.545	12.82
601.965	12.78
602.384	12.74
602.803	12.67
603.222	12.61
603.641	12.56
604.061	12.5
604.48	12.44
604.898	12.38
605.317	12.32
605.736	12.25
606.155	12.18
606.574	12.11
606.992	12.02
607.411	11.96
607.829	11.85
608.248	11.77
608.666	11.67
609.085	11.59
609.503	11.51
609.921	11.43
610.339	11.37
610.758	11.31
611.176	11.24
611.594	11.17
612.012	11.09
612.43	11.07
612.847	10.99
613.265	10.94
613.683	10.86
614.101	10.79
614.518	10.72
614.936	10.63
615.353	10.55
615.771	10.49
616.188	10.43
616.606	10.36
617.023	10.28
617.44	10.23
617.857	10.16
618.274	10.12
618.691	10.07
619.108	10.03
619.525	9.99
619.942	9.95
620.359	9.91
620.776	9.87
621.192	9.85
621.609	9.83
622.026	9.81
622.442	9.78
622.859	9.76
623.275	9.76
623.691	9.74
624.108	9.71
624.524	9.69
624.94	9.68
625.356	9.67
625.772	9.66
626.188	9.65
626.604	9.62
627.02	9.61
627.436	9.59
627.852	9.57
628.268	9.55
628.683	9.54
629.099	9.53
629.514	9.51
629.93	9.49
630.345	9.45
630.761	9.42
631.176	9.42
631.591	9.39
632.007	9.35
632.422	9.3
632.837	9.26
633.252	9.2
633.667	9.14
634.082	9.09
634.497	9.02
634.911	8.95
635.326	8.87
635.741	8.8
636.155	8.71
636.57	8.64
636.984	8.54
637.399	8.44
637.813	8.33
638.228	8.23
638.642	8.12
639.056	8.02
639.47	7.91
639.884	7.8
640.298	7.67
640.712	7.56
641.126	7.44
641.54	7.34
641.954	7.25
642.368	7.15
642.781	7.05
643.195	6.95
643.609	6.86
644.022	6.78
644.436	6.68
644.849	6.59
645.262	6.51
645.676	6.43
646.089	6.36
646.502	6.27
646.915	6.2
647.328	6.13
647.741	6.06
648.154	6.02
648.567	5.97
648.98	5.93
649.393	5.89
649.805	5.84
650.218	5.79
650.631	5.76
651.043	5.72
651.456	5.7
651.868	5.66
652.28	5.64
652.693	5.58
653.105	5.54
653.517	5.5
653.929	5.47
654.341	5.46
654.753	5.41
655.165	5.37
655.577	5.32
655.989	5.26
656.401	5.2
656.813	5.15
657.224	5.11
657.636	5.06
658.047	5
658.459	4.93
658.87	4.86
659.282	4.82
659.693	4.76
660.104	4.71
660.515	4.65
660.926	4.61
661.338	4.55
661.749	4.48
662.159	4.43
662.57	4.38
662.981	4.34
663.392	4.28
663.803	4.23
664.213	4.19
664.624	4.16
665.035	4.13
665.445	4.09
665.855	4.07
666.266	4.06
666.676	4.02
667.086	4
667.497	3.98
667.907	3.96
668.317	3.94
668.727	3.92
669.137	3.92
669.547	3.92
669.956	3.91
670.366	3.91
670.776	3.91
671.186	3.93
671.595	3.95
672.005	3.96
672.414	3.97
672.824	4.01
673.233	4.03
673.642	4.04
674.052	4.05
674.461	4.08
674.87	4.1
675.279	4.13
675.688	4.16
676.097	4.19
676.506	4.21
676.915	4.25
677.323	4.28
677.732	4.32
678.141	4.36
678.549	4.41
678.958	4.46
679.366	4.49
679.775	4.54
680.183	4.59
680.592	4.64
681	4.7
681.408	4.77
681.816	4.83
682.224	4.9
682.632	5.01
683.04	5.1
683.448	5.19
683.856	5.32
684.264	5.45
684.671	5.59
685.079	5.76
685.487	5.96
685.894	6.16
686.302	6.38
686.709	6.61
687.116	6.87
687.524	7.16
687.931	7.47
688.338	7.8
688.745	8.16
689.152	8.53
689.559	8.94
689.966	9.38
690.373	9.83
690.78	10.3
691.187	10.8
691.593	11.3
692	11.83
692.407	12.37
692.813	12.95
693.22	13.52
693.626	14.11
694.032	14.7
694.439	15.3
694.845	15.91
695.251	16.51
695.657	17.13
696.063	17.74
696.469	18.38
696.875	18.99
697.281	19.58
697.687	20.23
698.093	20.85
698.498	21.44
698.904	22.03
699.31	22.61
699.715	23.23
700.12	23.8
700.526	24.39
700.931	24.93
701.337	25.5
701.742	26.05
702.147	26.58
702.552	27.09
702.957	27.63
703.362	28.16
703.767	28.65
704.172	29.15
704.577	29.65
704.981	30.13
705.386	30.61
705.791	31.08
706.195	31.54
706.6	31.98
707.004	32.44
707.408	32.86
707.813	33.31
708.217	33.71
708.621	34.13
709.025	34.53
709.43	34.9
709.834	35.3
710.237	35.67
710.641	36.06
711.045	36.44
711.449	36.81
711.853	37.17
712.256	37.5
712.66	37.89
713.064	38.22
713.467	38.58
713.87	38.95
714.274	39.3
714.677	39.65
715.08	39.95
715.484	40.3
715.887	40.6
716.29	40.94
716.693	41.25
717.096	41.53
717.499	41.83
717.901	42.09
718.304	42.35
718.707	42.61
719.109	42.89
719.512	43.17
719.915	43.42
720.317	43.68
720.719	43.9
721.122	44.1
721.524	44.37
721.926	44.6
722.328	44.85
722.731	45.05
723.133	45.26
723.535	45.44
723.937	45.63
724.338	45.82
724.74	46
725.142	46.24
725.544	46.43
725.945	46.6
726.347	46.74
726.748	46.84
727.15	46.98
727.551	47.15
727.952	47.27
728.354	47.41
728.755	47.54
729.156	47.68
729.557	47.76
729.958	47.89
730.359	47.99
730.76	48.08
731.161	48.25
731.562	48.37
731.962	48.48
732.363	48.6
732.763	48.71
733.164	48.81
733.564	48.85
733.965	48.92
734.365	48.98
734.766	49.02
735.166	49.1
735.566	49.15
735.966	49.22
736.366	49.23
736.766	49.26
737.166	49.29
737.566	49.32
737.966	49.41
738.365	49.48
738.765	49.56
739.165	49.64
739.564	49.7
739.964	49.76
740.363	49.78
740.763	49.87
741.162	49.91
741.561	49.95
741.96	50.03
742.36	50.06
742.759	50.06
743.158	50.06
743.557	50.11
743.955	50.16
744.354	50.18
744.753	50.23
745.152	50.23
745.55	50.27
745.949	50.31
746.348	50.33
746.746	50.32
747.144	50.36
747.543	50.38
747.941	50.42
748.339	50.44
748.737	50.48
749.136	50.5
749.534	50.53
749.932	50.56
750.33	50.53
750.727	50.55
751.125	50.59
751.523	50.59
751.921	50.61
752.318	50.64
752.716	50.63
753.113	50.65
753.511	50.66
753.908	50.66
754.305	50.65
754.703	50.69
755.1	50.67
755.497	50.67
755.894	50.68
756.291	50.69
756.688	50.66
757.085	50.63
757.482	50.6
757.878	50.63
758.275	50.65
758.672	50.65
759.068	50.66
759.465	50.67
759.861	50.65
760.258	50.66
760.654	50.66
761.05	50.69
761.447	50.71
761.843	50.68
762.239	50.63
762.635	50.6
763.031	50.61
763.427	50.59
763.822	50.56
764.218	50.56
764.614	50.54
765.01	50.53
765.405	50.47
765.801	50.46
766.196	50.44
766.592	50.44
766.987	50.45
767.382	50.42
767.778	50.42
768.173	50.43
768.568	50.42
768.963	50.44
769.358	50.42
769.753	50.44
770.148	50.44
770.542	50.45
770.937	50.45
771.332	50.45
771.726	50.44
772.121	50.44
772.515	50.42
772.91	50.43
773.304	50.41
773.699	50.4
774.093	50.36
774.487	50.37
774.881	50.37
775.275	50.38
775.669	50.38
776.063	50.37
776.457	50.34
776.851	50.33
777.245	50.33
777.638	50.32
778.032	50.32
778.425	50.37
778.819	50.33
779.212	50.35
779.606	50.32
779.999	50.33
780.392	50.31
780.786	50.33
781.179	50.35
781.572	50.35
781.965	50.34
782.358	50.35
782.751	50.32
783.143	50.32
783.536	50.33
783.929	50.33
784.322	50.32
784.714	50.32
785.107	50.3
785.499	50.28
785.891	50.27
786.284	50.27
786.676	50.27
787.068	50.28
787.46	50.28
787.852	50.28
788.245	50.29
788.636	50.29
789.028	50.29
789.42	50.28
789.812	50.28
790.204	50.23
790.595	50.24
790.987	50.21
791.378	50.22
791.77	50.26
792.161	50.24
792.553	50.23
792.944	50.26
793.335	50.27
793.726	50.3
794.117	50.28
794.508	50.3
794.899	50.3
795.29	50.3
795.681	50.27
796.072	50.23
796.463	50.27
796.853	50.25
797.244	50.21
797.634	50.19
798.025	50.2
798.415	50.24
798.806	50.27
799.196	50.27
799.586	50.28
799.976	50.31
800.366	50.34
800.756	50.31
801.146	50.35
801.536	50.36
801.926	50.35
802.316	50.33
802.706	50.33
803.095	50.31
803.485	50.33
803.874	50.3
804.264	50.32
804.653	50.27
805.043	50.27
805.432	50.23
805.821	50.22
806.21	50.24
806.599	50.28
806.988	50.27
807.377	50.29
807.766	50.26
808.155	50.31
808.544	50.27
808.933	50.29
809.321	50.27
809.71	50.3
810.098	50.28
810.487	50.27
810.875	50.22
811.264	50.21
811.652	50.18
812.04	50.21
812.428	50.21
812.816	50.22
813.204	50.19
813.592	50.21
813.98	50.2
814.368	50.23
814.756	50.22
815.144	50.25
815.531	50.24
815.919	50.23
816.306	50.2
816.694	50.21
817.081	50.22
817.469	50.28
817.856	50.3
818.243	50.29
818.63	50.29
819.017	50.3
819.404	50.29
819.791	50.31
820.178	50.32
820.565	50.33
820.952	50.3
821.339	50.33
821.725	50.34
822.112	50.33
822.498	50.37
822.885	50.37
823.271	50.4
823.657	50.39
824.044	50.39
824.43	50.43
824.816	50.46
825.202	50.46
825.588	50.43
825.974	50.41
826.36	50.42
826.746	50.43
827.132	50.4
827.517	50.41
827.903	50.44
828.289	50.47
828.674	50.46
829.06	50.46
829.445	50.5
829.83	50.54
830.216	50.52
830.601	50.52
830.986	50.53
831.371	50.57
831.756	50.55
832.141	50.57
832.526	50.56
832.911	50.58
833.295	50.6
833.68	50.61
834.065	50.61
834.449	50.62
834.834	50.61
835.218	50.6
835.603	50.59
835.987	50.6
836.371	50.58
836.755	50.59
837.139	50.56
837.524	50.53
837.908	50.48
838.291	50.46
838.675	50.46
839.059	50.49
839.443	50.49
839.827	50.51
840.21	50.54
840.594	50.56
840.977	50.55
841.361	50.56
841.744	50.58
842.127	50.58
842.511	50.61
842.894	50.58
843.277	50.56
843.66	50.56
844.043	50.55
844.426	50.53
844.809	50.49
845.191	50.48
845.574	50.46
845.957	50.42
846.339	50.44
846.722	50.42
847.104	50.44
847.487	50.45
847.869	50.47
848.252	50.47
848.634	50.48
849.016	50.5
849.398	50.48
849.78	50.49
850.162	50.51
850.544	50.51
850.926	50.51
851.307	50.52
851.689	50.51
852.071	50.5
852.452	50.48
852.834	50.45
853.215	50.46
853.597	50.49
853.978	50.5
854.359	50.49
854.741	50.48
855.122	50.48
855.503	50.48
855.884	50.5
856.265	50.5
856.646	50.5
857.026	50.52
857.407	50.47
857.788	50.46
858.169	50.43
858.549	50.47
858.93	50.43
859.31	50.43
859.69	50.4
860.071	50.38
860.451	50.35
860.831	50.34
861.211	50.32
861.591	50.34
861.971	50.3
862.351	50.33
862.731	50.3
863.111	50.34
863.491	50.34
863.87	50.35
864.25	50.35
864.629	50.35
865.009	50.35
865.388	50.35
865.768	50.36
866.147	50.4
866.526	50.41
866.905	50.4
867.284	50.38
867.663	50.37
868.042	50.34
868.421	50.31
868.8	50.3
869.179	50.33
869.558	50.32
869.936	50.31
870.315	50.29
870.693	50.3
871.072	50.3
871.45	50.31
871.828	50.33
872.207	50.4
872.585	50.4
872.963	50.39
873.341	50.38
873.719	50.4
874.097	50.4
874.475	50.36
874.853	50.32
875.23	50.32
875.608	50.33
875.986	50.31
876.363	50.26
876.741	50.28
877.118	50.25
877.495	50.26
877.873	50.24
878.25	50.21
878.627	50.23
879.004	50.24
879.381	50.23
879.758	50.19
880.135	50.17
880.512	50.19
880.889	50.18
881.265	50.23
881.642	50.21
882.019	50.22
882.395	50.24
882.772	50.27
883.148	50.28
883.524	50.29
883.901	50.3
884.277	50.31
884.653	50.3
885.029	50.3
885.405	50.3
885.781	50.29
886.157	50.28
886.532	50.28
886.908	50.28
887.284	50.3
887.659	50.3
888.035	50.32
888.411	50.33
888.786	50.32
889.161	50.34
889.537	50.33
889.912	50.33
890.287	50.34
890.662	50.34
891.037	50.32
891.412	50.31
891.787	50.29
892.162	50.27
892.536	50.29
892.911	50.28
893.286	50.22
893.66	50.22
894.035	50.22
894.409	50.22
894.784	50.2
895.158	50.21
895.532	50.19
895.906	50.19
896.281	50.16
896.655	50.13
897.029	50.13
897.402	50.16
897.776	50.15
898.15	50.15
898.524	50.15
898.898	50.15
899.271	50.12
899.645	50.12
900.018	50.07
900.392	50.08
900.765	50.07
901.138	50.05
901.511	50.03
901.884	50.01
902.258	49.96
902.631	49.94
903.003	49.93
903.376	49.9
903.749	49.9
904.122	49.91
904.495	49.92
904.867	49.9
905.24	49.86
905.612	49.82
905.985	49.8
906.357	49.78
906.729	49.74
907.102	49.74
907.474	49.74
907.846	49.72
908.218	49.73
908.59	49.69
908.962	49.67
909.334	49.69
909.705	49.71
910.077	49.69
910.449	49.73
910.82	49.73
911.192	49.7
911.563	49.7
911.935	49.66
912.306	49.63
912.677	49.63
913.048	49.65
913.419	49.64
913.79	49.64
914.161	49.66
914.532	49.67
914.903	49.67
915.274	49.7
915.645	49.69
916.015	49.71
916.386	49.7
916.756	49.69
917.127	49.66
917.497	49.67
917.868	49.69
918.238	49.69
918.608	49.68
918.978	49.64
919.348	49.62
919.718	49.6
920.088	49.6
920.458	49.66
920.828	49.66
921.198	49.66
921.567	49.64
921.937	49.66
922.306	49.65
922.676	49.63
923.045	49.65
923.415	49.65
923.784	49.67
924.153	49.64
924.522	49.63
924.891	49.62
925.26	49.62
925.629	49.63
925.998	49.57
926.367	49.51
926.736	49.51
927.104	49.5
927.473	49.5
927.842	49.44
928.21	49.43
928.578	49.39
928.947	49.4
929.315	49.38
929.683	49.38
930.051	49.38
930.42	49.42
930.788	49.41
931.156	49.39
931.523	49.4
931.891	49.39
932.259	49.36
932.627	49.35
932.994	49.34
933.362	49.33
933.729	49.28
934.097	49.3
934.464	49.25
934.831	49.19
935.199	49.22
935.566	49.18
935.933	49.2
936.3	49.17
936.667	49.1
937.034	49.1
937.401	49.06
937.767	49.02
938.134	48.95
938.501	48.93
938.867	48.93
939.234	48.86
939.6	48.78
939.967	48.71
940.333	48.75
940.699	48.79
941.065	48.68
941.431	48.7
941.798	48.73
942.163	48.76
942.529	48.71
942.895	48.7
943.261	48.7
943.627	48.71
943.992	48.76
944.358	48.65
944.723	48.62
945.089	48.64
945.454	48.66
945.82	48.65
946.185	48.57
946.55	48.67
946.915	48.65
947.28	48.62
947.645	48.62
948.01	48.6
948.375	48.67
948.74	48.62
949.104	48.61
949.469	48.48
949.834	48.49
950.198	48.53
950.562	48.45
950.927	48.41
951.291	48.48
951.655	48.52
952.02	48.49
952.384	48.52
952.748	48.59
953.112	48.63
953.476	48.67
953.839	48.64
954.203	48.56
954.567	48.61
954.931	48.67
955.294	48.59
955.658	48.53
956.021	48.53
956.385	48.51
956.748	48.47
957.111	48.39
957.474	48.4
957.837	48.43
958.2	48.47
958.563	48.37
958.926	48.33
959.289	48.39
959.652	48.35
960.015	48.33
960.377	48.28
960.74	48.27
961.102	48.3
961.465	48.34
961.827	48.27
962.189	48.3
962.552	48.27
962.914	48.21
963.276	48.13
963.638	48.13
964	48.12
964.362	48.11
964.724	48.1
965.085	48.09
965.447	47.99
965.809	47.93
966.17	47.89
966.532	47.91
966.893	47.94
967.255	47.9
967.616	47.9
967.977	47.89
968.338	47.94
968.699	47.93
969.061	47.88
969.421	47.9
969.782	47.92
970.143	47.92
970.504	48.01
970.865	47.96
971.225	48.03
971.586	48.11
971.946	48.15
972.307	48.08
972.667	48.07
973.027	48.14
973.388	48.12
973.748	48.19
974.108	48.22
974.468	48.15
974.828	48.23
975.188	48.19
975.548	48.12
975.907	48.13
976.267	48.13
976.627	48.14
976.986	48.05
977.346	48.05
977.705	48.01
978.064	48
978.424	47.94
978.783	47.85
979.142	47.76
979.501	47.77
979.86	47.79
980.219	47.75
980.578	47.67
980.937	47.67
981.296	47.62
981.654	47.61
982.013	47.56
982.371	47.57
982.73	47.52
983.088	47.53
983.447	47.52
983.805	47.41
984.163	47.38
984.521	47.36
984.879	47.36
985.237	47.52
985.595	47.54
985.953	47.49
986.311	47.51
986.669	47.6
987.026	47.65
987.384	47.66
987.741	47.67
988.099	47.74
988.456	47.83
988.814	47.89
989.171	47.73
989.528	47.63
989.885	47.62
990.242	47.64
990.599	47.61
990.956	47.59
991.313	47.57
991.67	47.59
992.027	47.56
992.383	47.61
992.74	47.52
993.096	47.52
993.453	47.47
993.809	47.44
994.165	47.42
994.522	47.41
994.878	47.35
995.234	47.26
995.59	47.15
995.946	47.09
996.302	46.87
996.658	46.9
997.013	46.86
997.369	46.98
997.725	47
998.08	46.93
998.436	47.05
998.791	47.14
999.147	47.12
999.502	47.08
999.857	47.08
1000.212	47
1000.567	46.88
1000.922	46.83
1001.277	46.79
1001.632	46.89
1001.987	46.77
1002.342	46.64
1002.696	46.43
1003.051	46.39
1003.406	46.36
1003.76	46.36
1004.114	46.41
1004.469	46.32
1004.823	46.45
1005.177	46.45
1005.531	46.09
1005.885	46.17
1006.239	46
1006.593	46.09
1006.947	46.05
1007.301	46.25
1007.655	46.17
1008.008	46.28
1008.362	46.32
1008.715	46.27
1009.069	46.01
1009.422	46.27
1009.776	46.18
1010.129	46.02
1010.482	46.17
1010.835	46.39
1011.188	46.08
1011.541	45.94
1011.894	45.77
1012.247	45.78
1012.6	45.66
1012.952	45.74
1013.305	45.49
1013.657	45.6
1014.01	45.88
1014.362	45.82
1014.715	45.61
1015.067	45.76
1015.419	45.98
1015.771	46.24
1016.123	45.89
1016.475	45.85
1016.827	45.96
1017.179	46.17
1017.531	46.09
1017.883	46.02
1018.234	45.77
1018.586	45.72
1018.938	45.73
1019.289	45.42
1019.64	45.24
1019.992	45.64
1020.343	45.54
1020.694	45.23
1021.045	45.1
1021.396	45.02
1021.747	44.98
1022.098	45.12
1022.449	44.85
1022.8	44.65
1023.151	44.79
1023.501	44.68
1023.852	44.52
1024.202	44.49
1024.553	44.21
1024.903	44.14
1025.253	44.05
1025.604	44.02
1025.954	43.37
1026.304	44.09
1026.654	43.99
1027.004	43.86
1027.354	43.65
1027.703	43.43
1028.053	43.11
1028.403	43.84
1028.753	43.72
1029.102	43.62
1029.452	43.41
1029.801	43.8
1030.15	43.2
1030.499	43.21
897.758	700.24
901.051	713.16
904.343	718.11
907.636	705.64
910.928	695.63
914.22	704.78
917.511	692.31
920.803	665.88
924.094	637.5
927.384	642.07
930.675	619.81
933.965	612.63
937.255	613.99
940.544	588.22
943.834	560.52
947.123	549.87
950.411	524.97
953.7	512.71
956.988	495.02
960.276	472.32
963.563	467
966.851	443.86
970.138	435.46
973.424	402.62
976.711	397.44
979.997	384.96
983.283	378.37
986.568	364.33
989.853	352.28
993.138	341.76
996.423	335.9
999.708	324.82
1002.992	325.46
1006.275	314.25
1009.559	313.27
1012.842	303
1016.125	292.92
1019.408	286.1
1022.69	282.93
1025.972	281.78
1029.254	274.02
1032.536	269.65
1035.817	260.6
1039.098	256.6
1042.379	252.6
1045.659	247.75
1048.939	245.48
1052.219	241.29
1055.498	236.86
1058.778	233.29
1062.057	229.04
1065.335	227.16
1068.614	223.03
1071.892	220.42
1075.17	214.86
1078.447	212.24
1081.724	210.52
1085.001	207.09
1088.278	205.24
1091.554	204.19
1094.83	202.32
1098.106	198.98
1101.382	198.19
1104.657	197.73
1107.932	196.67
1111.206	195.78
1114.481	193.81
1117.755	192.34
1121.029	191.35
1124.302	189.74
1127.575	186.42
1130.848	186.2
1134.121	182.84
1137.393	182.01
1140.665	180.15
1143.937	178.41
1147.208	175.9
1150.48	173.5
1153.75	172.45
1157.021	170.79
1160.291	170.47
1163.561	170.01
1166.831	168.01
1170.101	168.62
1173.37	167.17
1176.639	165.78
1179.907	165.54
1183.176	165.59
1186.444	166.3
1189.711	165.22
1192.979	166.08
1196.246	166.11
1199.513	164.95
1202.78	165.89
1206.046	165.43
1209.312	166.93
1212.578	167.98
1215.843	170.43
1219.108	171.39
1222.373	173.74
1225.638	176.32
1228.902	180.51
1232.166	185.64
1235.43	189.03
1238.693	194.45
1241.956	198.29
1245.219	203.12
1248.482	204.65
1251.744	203.76
1255.006	206.22
1258.268	200.86
1261.529	199.53
1264.79	192.89
1268.051	189.45
1271.312	187.88
1274.572	183.5
1277.832	179.38
1281.092	176.32
1284.351	172.77
1287.61	172.63
1290.869	170.51
1294.128	170.32
1297.386	169.19
1300.644	170.37
1303.902	168.9
1307.159	168.12
1310.416	169.09
1313.673	171.95
1316.93	173.38
1320.186	176.64
1323.442	178.71
1326.697	182.83
1329.953	184.28
1333.208	191.32
1336.463	197.45
1339.717	202.04
1342.972	212.43
1346.226	217.81
1349.479	220.11
1352.733	230.02
1355.986	234.24
1359.238	239.8
1362.491	242.84
1365.743	252.23
1368.995	253.04
1372.247	252.35
1375.498	251.34
1378.749	259.12
1382	259.11
1385.251	259.18
1388.501	257.17
1391.751	260.89
1395	260.4
1398.25	261.01
1401.499	261.71
1404.748	261.15
1407.996	258.21
1411.244	259.33
1414.492	253.56
1417.74	248.15
1420.987	242.39
1424.234	237.67
1427.481	230.01
1430.728	223.73
1433.974	217.03
1437.22	207.39
1440.465	202.16
1443.711	196.24
1446.956	189.8
1450.201	183.47
1453.445	175.92
1456.689	170.45
1459.933	164.81
1463.177	157.75
1466.42	154.11
1469.663	148.97
1472.906	145.89
1476.148	140.39
1479.391	136.56
1482.633	134.26
1485.874	131.57
1489.115	129.83
1492.356	127.48
1495.597	126.17
1498.838	125.07
1502.078	123.83
1505.318	123.68
1508.557	122.8
1511.797	121.82
1515.036	122
1518.274	121.1
1521.513	119.71
1524.751	118.82
1527.989	119.46
1531.227	119.4
1534.464	118.95
1537.701	117.89
1540.938	117.14
1544.174	117.19
1547.41	117.06
1550.646	116.6
1553.882	116.82
1557.117	115.99
1560.352	115.26
1563.587	114.05
1566.821	113.8
1570.055	112.87
1573.289	112.52
1576.523	112.64
1579.756	111.59
1582.989	111.87
1586.222	111.15
1589.454	110.59
1592.686	110.69
1595.918	110.71
1599.15	110.64
1602.381	110.39
1605.612	110.79
1608.843	110.8
1612.073	110.91
1615.303	111.27
1618.533	110.55
1621.762	111.63
1624.992	111.31
1628.221	111.18
1631.449	111.71
1634.678	111.6
1637.906	111.55
1641.134	111.92
1644.361	111.73
1647.588	111.89
1650.815	111.97
1654.042	111.93
1657.269	111.01
1660.495	112.06
1663.72	112.04
1666.946	111.85
1670.171	112.44
1673.396	113.65
1676.621	113.57
1679.845	114.13
1683.069	113.72
1686.293	112.95
1689.517	113.55
1692.74	113.98
1695.963	114.04
1699.185	114.59
1702.408	114.79
1705.63	114.75
1708.852	114.95
1712.073	114.31
1715.294	113.95
1718.515	114.8
1721.736	115.79
1724.956	116.24
1728.176	116.05
1731.396	116.62
1734.616	116.53
1737.835	117
1741.054	116.61
1744.272	116.12
1747.491	117.14
1750.709	117.62
1753.927	117.74
1757.144	117.88
1760.361	117.78
1763.578	118.91
1766.795	119.11
1770.011	119.84
1773.227	120.55
1776.443	121.73
1779.658	122.14
1782.874	122.74
1786.089	124
1789.303	124.14
1792.518	125.28
1795.732	125.96
1798.945	126.95
1802.159	127.16
1805.372	129.03
1808.585	129.38
1811.797	131
1815.01	132.25
1818.222	133.21
1821.434	133.68
1824.645	134.79
1827.856	136.8
1831.067	137.83
1834.278	139.15
1837.488	140.53
1840.698	140.9
1843.908	141.64
1847.117	142.64
1850.326	144.01
1853.535	144.41
1856.744	146.61
1859.952	148.24
1863.16	148.4
1866.368	148.17
1869.575	148.56
1872.782	148.92
1875.989	147.71
1879.196	147.3
1882.402	146.11
1885.608	146.65
1888.814	147.1
1892.019	147.59
1895.224	145.77
1898.429	145.78
1901.634	147.1
1904.838	147.19
1908.042	147.6
1911.246	148.42
1914.449	149.57
1917.652	150.15
1920.855	150.71
1924.058	149.05
1927.26	148.5
1930.462	149.35
1933.664	149.02
1936.865	148.76
1940.066	148.18
1943.267	146.47
1946.467	147.62
1949.668	146.79
1952.868	148.07
1956.067	146.83
1959.267	148.89
1962.466	148.97
1965.665	150.23
1968.863	151.98
1972.061	153.23
1975.259	155.66
1978.457	157.91
1981.654	158.91
1984.852	161.04
1988.048	161.91
1991.245	165.02
1994.441	168.28
1997.637	172.15
2000.833	175.38
2004.028	177.16
2007.223	182.65
2010.418	186.85
2013.613	194.42
2016.807	199.61
2020.001	203.87
2023.194	209.51
2026.388	215.57
2029.581	225.51
2032.774	232
2035.966	239.1
2039.158	246.29
2042.35	249.67
2045.542	254.03
2048.733	265.99
2051.924	268.84
2055.115	273.47
2058.306	275.86
2061.496	282.44
2064.686	283.79
2067.875	281.24
2071.065	284.29
2074.254	285.49
2077.442	294.38
2080.631	296.21
2083.819	294.39
2087.007	299.8
2090.195	305.02
2093.382	304.5
2096.569	304.32
2099.756	307.64
2102.942	315.74
2106.128	322.3
2109.314	322.07
2112.5	320.86
2115.685	322.5
2118.87	322.63
2122.055	324.81
2125.239	330
2128.424	338.39
2131.608	337.5
2134.791	336.85
2137.974	339.53
2141.157	343.22
2144.34	348.26
2147.523	351.44
2150.705	358.69
2153.887	355.63
2157.068	359.81
2160.25	362.46
2163.431	362.49
2166.611	367.84
2169.792	376.67
2172.972	380.39
2176.152	378.48
2179.331	387.48
2182.511	388.95
2185.69	393.69
2188.868	409.57
2192.047	418.3
2195.225	424.68
2198.403	430.57
2201.58	424.54
2204.758	437.17
2207.935	440.14
2211.111	450.14
2214.288	451.65
2217.464	457.37
2220.64	456.98
2223.815	457.89
2226.991	455.69
2230.166	457.67
2233.34	472.38
2236.515	487.87
2239.689	480.25
2242.863	488.19
2246.036	480.1
2249.209	495.1
2252.382	494.33
2255.555	511.97
2258.727	515.23
2261.9	527.19
2265.071	537.03
2268.243	531.75
2271.414	546.5
2274.585	559.94
2277.756	561.06
2280.926	581.48
2284.096	580.75
2287.266	584.94
2290.436	575.57
2293.605	589.55
2296.774	611.21
2299.942	609.02
2303.111	624.89
2306.279	641.13
2309.447	642.9
2312.614	640.33
2315.781	661.86
2318.948	668.33
2322.115	679.56
2325.281	717.18
2328.447	715.07
2331.613	711.11
2334.779	726.85
2337.944	734.35
2341.109	742.96
2344.274	748.99
2347.438	777.21
2350.602	787.25
2353.766	831.27
2356.929	836.49
2360.092	844.29
2363.255	844.02
2366.418	863.76
2369.58	877.99
2372.742	878.67
2375.904	874.54
2379.066	899.03
2382.227	951.16
2385.388	950.39
2388.548	908.65
2391.709	900.47
2394.869	933.26
2398.029	935.31
2401.188	931.77
2404.347	960.07
2407.506	994.22
2410.665	961.54
2413.823	962.94
2416.981	957.2
2420.139	907.37
2423.296	981.54
2426.453	1040.57
2429.61	993.12
2432.767	1059.79
2435.923	1101.47
2439.079	1055.03
2442.235	1082.24
2445.391	1100.31
2448.546	1097.31
2451.701	1161.43
2454.855	1241.74
2458.009	1091.76
2461.163	1113.66
2464.317	1129.65
2467.471	1097.19
2470.624	1136.53
2473.777	1127.51
2476.929	1090.2
2480.082	1173.41
2483.234	1228.76
2486.385	1241.83
2489.537	1273.92
2492.688	1408.14
2495.839	1388.94
2498.989	1421.28
2502.14	1436.52
2505.29	1361.06
2508.439	1510.36
2511.589	1550.49
2514.738	1503.36
2517.887	1487.17
2521.035	1395.76
2524.183	1370.18
2527.331	1352.78
2530.479	1315.69
2533.627	1345.55
