Data from N_1_div_pa_2n_001_Splice17_14.txt Node
Date: Sat Feb 29 13:33:00 EST 2020
User: sa697716
Spectrometer: FLMS03696
Trigger mode: 0
Integration Time (sec): 3.180400E-1
Scans to average: 20
Electric dark correction enabled: true
Nonlinearity correction enabled: true
Boxcar width: 5
XAxis mode: Wavelengths
Number of Pixels in Spectrum: 2048
>>>>>Begin Spectral Data<<<<<
187.83	79.63
188.298	77.16
188.766	81.71
189.233	67.54
189.701	75.72
190.169	81.16
190.636	83.94
191.104	55.27
191.571	-208.21
192.039	83.64
192.506	35.64
192.974	460.99
193.441	187.11
193.908	42.74
194.375	14.22
194.842	71.91
195.31	103.32
195.777	160.89
196.244	47.45
196.711	19.59
197.177	17.14
197.644	17.11
198.111	16.26
198.578	15.86
199.045	16.58
199.511	16.62
199.978	17.26
200.445	16.7
200.911	16.66
201.378	16.5
201.844	17.01
202.31	17.47
202.777	17.54
203.243	18.2
203.709	18.25
204.176	17.7
204.642	17.7
205.108	17.35
205.574	17.76
206.04	17.99
206.506	18.33
206.972	18.08
207.438	18.07
207.903	18.5
208.369	18.3
208.835	18.65
209.301	19.08
209.766	19.33
210.232	19.43
210.697	19.53
211.163	19.54
211.628	19.57
212.094	19.68
212.559	19.55
213.024	18.97
213.49	18.78
213.955	18.66
214.42	18.38
214.885	17.72
215.35	17.31
215.815	17.06
216.28	16.43
216.745	15.75
217.21	15.09
217.675	14.61
218.14	14.13
218.604	13.56
219.069	13.22
219.534	12.92
219.998	12.63
220.463	12.43
220.927	12.15
221.392	11.98
221.856	11.81
222.32	11.65
222.785	11.5
223.249	11.38
223.713	11.31
224.177	11.14
224.642	11.02
225.106	10.88
225.57	10.75
226.034	10.64
226.497	10.48
226.961	10.36
227.425	10.21
227.889	10.07
228.353	9.93
228.816	9.79
229.28	9.67
229.744	9.56
230.207	9.47
230.671	9.35
231.134	9.22
231.597	9.13
232.061	9.01
232.524	8.94
232.987	8.85
233.45	8.76
233.914	8.68
234.377	8.6
234.84	8.51
235.303	8.42
235.766	8.35
236.229	8.28
236.691	8.19
237.154	8.12
237.617	8.04
238.08	7.96
238.542	7.9
239.005	7.82
239.468	7.73
239.93	7.65
240.393	7.57
240.855	7.48
241.317	7.4
241.78	7.34
242.242	7.26
242.704	7.2
243.166	7.15
243.629	7.07
244.091	7.01
244.553	6.96
245.015	6.92
245.477	6.86
245.939	6.82
246.4	6.76
246.862	6.72
247.324	6.68
247.786	6.64
248.247	6.58
248.709	6.54
249.17	6.5
249.632	6.45
250.093	6.4
250.555	6.36
251.016	6.33
251.477	6.28
251.939	6.24
252.4	6.2
252.861	6.15
253.322	6.11
253.783	6.08
254.244	6.04
254.705	6
255.166	5.96
255.627	5.92
256.088	5.88
256.549	5.85
257.009	5.82
257.47	5.79
257.931	5.75
258.391	5.72
258.852	5.67
259.312	5.64
259.773	5.61
260.233	5.58
260.694	5.56
261.154	5.52
261.614	5.49
262.074	5.46
262.534	5.42
262.994	5.39
263.455	5.37
263.915	5.34
264.374	5.32
264.834	5.3
265.294	5.27
265.754	5.24
266.214	5.22
266.673	5.2
267.133	5.18
267.593	5.17
268.052	5.14
268.512	5.12
268.971	5.1
269.431	5.08
269.89	5.06
270.349	5.04
270.809	5.02
271.268	5.01
271.727	4.99
272.186	4.98
272.645	4.95
273.104	4.93
273.563	4.92
274.022	4.91
274.481	4.89
274.94	4.87
275.399	4.85
275.857	4.83
276.316	4.81
276.775	4.78
277.233	4.76
277.692	4.75
278.15	4.73
278.609	4.71
279.067	4.68
279.525	4.66
279.984	4.64
280.442	4.62
280.9	4.61
281.358	4.59
281.816	4.57
282.274	4.56
282.732	4.54
283.19	4.53
283.648	4.51
284.106	4.5
284.564	4.49
285.021	4.48
285.479	4.46
285.937	4.43
286.394	4.41
286.852	4.39
287.309	4.38
287.767	4.37
288.224	4.35
288.682	4.34
289.139	4.32
289.596	4.3
290.053	4.27
290.511	4.26
290.968	4.26
291.425	4.24
291.882	4.23
292.339	4.21
292.796	4.2
293.252	4.18
293.709	4.16
294.166	4.15
294.623	4.14
295.079	4.13
295.536	4.12
295.992	4.11
296.449	4.1
296.905	4.07
297.362	4.06
297.818	4.05
298.274	4.04
298.731	4.03
299.187	4.01
299.643	4
300.099	3.99
300.555	3.98
301.011	3.97
301.467	3.96
301.923	3.95
302.379	3.94
302.835	3.92
303.291	3.91
303.746	3.9
304.202	3.89
304.658	3.87
305.113	3.85
305.569	3.84
306.024	3.83
306.479	3.82
306.935	3.81
307.39	3.8
307.845	3.8
308.301	3.79
308.756	3.79
309.211	3.79
309.666	3.79
310.121	3.79
310.576	3.78
311.031	3.77
311.486	3.76
311.94	3.74
312.395	3.74
312.85	3.73
313.305	3.72
313.759	3.71
314.214	3.7
314.668	3.7
315.123	3.68
315.577	3.68
316.032	3.67
316.486	3.66
316.94	3.66
317.394	3.65
317.849	3.64
318.303	3.62
318.757	3.61
319.211	3.6
319.665	3.59
320.119	3.58
320.572	3.58
321.026	3.58
321.48	3.57
321.934	3.57
322.387	3.56
322.841	3.56
323.295	3.56
323.748	3.55
324.202	3.55
324.655	3.54
325.108	3.53
325.562	3.51
326.015	3.5
326.468	3.48
326.921	3.47
327.374	3.47
327.827	3.46
328.28	3.45
328.733	3.44
329.186	3.43
329.639	3.42
330.092	3.41
330.545	3.41
330.997	3.41
331.45	3.41
331.903	3.41
332.355	3.4
332.808	3.39
333.26	3.39
333.713	3.4
334.165	3.39
334.617	3.39
335.069	3.39
335.522	3.38
335.974	3.38
336.426	3.38
336.878	3.37
337.33	3.37
337.782	3.37
338.234	3.37
338.686	3.36
339.137	3.36
339.589	3.35
340.041	3.34
340.493	3.34
340.944	3.33
341.396	3.32
341.847	3.31
342.299	3.29
342.75	3.27
343.201	3.26
343.653	3.25
344.104	3.23
344.555	3.22
345.006	3.21
345.457	3.2
345.908	3.19
346.359	3.18
346.81	3.18
347.261	3.18
347.712	3.18
348.163	3.17
348.613	3.16
349.064	3.15
349.515	3.14
349.965	3.13
350.416	3.12
350.866	3.12
351.317	3.11
351.767	3.1
352.217	3.09
352.668	3.08
353.118	3.09
353.568	3.1
354.018	3.11
354.468	3.11
354.918	3.12
355.368	3.12
355.818	3.11
356.268	3.11
356.718	3.11
357.168	3.1
357.617	3.1
358.067	3.08
358.517	3.06
358.966	3.06
359.416	3.06
359.865	3.05
360.315	3.05
360.764	3.05
361.213	3.05
361.663	3.04
362.112	3.04
362.561	3.05
363.01	3.06
363.459	3.05
363.908	3.04
364.357	3.04
364.806	3.04
365.255	3.03
365.703	3.03
366.152	3.03
366.601	3.04
367.05	3.04
367.498	3.03
367.947	3.03
368.395	3.03
368.844	3.03
369.292	3.02
369.74	3.03
370.189	3.02
370.637	3.02
371.085	3.02
371.533	3.02
371.981	3.02
372.429	3.02
372.877	3.02
373.325	3.01
373.773	3.01
374.221	3.01
374.669	3.01
375.116	3
375.564	2.99
376.012	2.99
376.459	2.99
376.907	3
377.354	3
377.801	3
378.249	3.02
378.696	3.03
379.143	3.04
379.591	3.05
380.038	3.06
380.485	3.08
380.932	3.09
381.379	3.1
381.826	3.11
382.273	3.11
382.72	3.11
383.166	3.12
383.613	3.12
384.06	3.12
384.506	3.14
384.953	3.14
385.4	3.14
385.846	3.15
386.292	3.15
386.739	3.15
387.185	3.17
387.631	3.19
388.078	3.21
388.524	3.21
388.97	3.24
389.416	3.23
389.862	3.24
390.308	3.26
390.754	3.27
391.2	3.3
391.645	3.31
392.091	3.33
392.537	3.33
392.983	3.35
393.428	3.36
393.874	3.37
394.319	3.4
394.765	3.41
395.21	3.42
395.655	3.44
396.101	3.45
396.546	3.46
396.991	3.46
397.436	3.46
397.881	3.47
398.326	3.5
398.771	3.52
399.216	3.53
399.661	3.54
400.106	3.56
400.551	3.56
400.995	3.56
401.44	3.56
401.885	3.57
402.329	3.58
402.774	3.58
403.218	3.58
403.663	3.57
404.107	3.58
404.551	3.59
404.995	3.58
405.44	3.58
405.884	3.58
406.328	3.6
406.772	3.61
407.216	3.62
407.66	3.63
408.104	3.63
408.547	3.64
408.991	3.64
409.435	3.64
409.879	3.65
410.322	3.66
410.766	3.66
411.209	3.67
411.653	3.65
412.096	3.65
412.54	3.65
412.983	3.67
413.426	3.68
413.869	3.68
414.312	3.7
414.756	3.71
415.199	3.72
415.642	3.73
416.085	3.74
416.527	3.76
416.97	3.77
417.413	3.78
417.856	3.76
418.298	3.75
418.741	3.75
419.184	3.73
419.626	3.72
420.069	3.72
420.511	3.71
420.953	3.7
421.396	3.7
421.838	3.72
422.28	3.73
422.722	3.75
423.164	3.76
423.606	3.76
424.048	3.76
424.49	3.78
424.932	3.78
425.374	3.77
425.816	3.77
426.258	3.75
426.699	3.71
427.141	3.69
427.582	3.69
428.024	3.69
428.465	3.7
428.907	3.7
429.348	3.7
429.789	3.72
430.231	3.74
430.672	3.75
431.113	3.78
431.554	3.8
431.995	3.82
432.436	3.83
432.877	3.82
433.318	3.83
433.759	3.83
434.2	3.82
434.64	3.82
435.081	3.82
435.522	3.83
435.962	3.83
436.403	3.84
436.843	3.85
437.284	3.84
437.724	3.87
438.164	3.86
438.604	3.86
439.045	3.88
439.485	3.9
439.925	3.88
440.365	3.86
440.805	3.85
441.245	3.84
441.685	3.84
442.125	3.86
442.564	3.87
443.004	3.89
443.444	3.9
443.883	3.91
444.323	3.9
444.762	3.93
445.202	3.97
445.641	3.99
446.081	4.02
446.52	4.03
446.959	4.05
447.398	4.08
447.837	4.1
448.276	4.11
448.716	4.12
449.154	4.14
449.593	4.16
450.032	4.17
450.471	4.16
450.91	4.15
451.349	4.17
451.787	4.15
452.226	4.13
452.664	4.11
453.103	4.12
453.541	4.12
453.98	4.13
454.418	4.11
454.856	4.09
455.295	4.09
455.733	4.11
456.171	4.1
456.609	4.11
457.047	4.11
457.485	4.12
457.923	4.12
458.361	4.12
458.798	4.12
459.236	4.13
459.674	4.15
460.111	4.17
460.549	4.16
460.987	4.17
461.424	4.15
461.862	4.15
462.299	4.14
462.736	4.14
463.173	4.14
463.611	4.14
464.048	4.14
464.485	4.12
464.922	4.1
465.359	4.13
465.796	4.12
466.233	4.11
466.67	4.13
467.106	4.12
467.543	4.12
467.98	4.12
468.416	4.12
468.853	4.12
469.29	4.13
469.726	4.15
470.162	4.13
470.599	4.13
471.035	4.15
471.471	4.13
471.907	4.13
472.344	4.13
472.78	4.14
473.216	4.11
473.652	4.11
474.088	4.1
474.523	4.09
474.959	4.08
475.395	4.08
475.831	4.07
476.266	4.07
476.702	4.07
477.138	4.06
477.573	4.04
478.008	4.05
478.444	4.05
478.879	4.05
479.314	4.04
479.75	4.05
480.185	4.05
480.62	4.04
481.055	4.05
481.49	4.05
481.925	4.04
482.36	4.05
482.795	4.03
483.229	4.02
483.664	4.02
484.099	4.02
484.534	4.02
484.968	4.03
485.403	4.04
485.837	4.04
486.271	4.04
486.706	4.04
487.14	4.06
487.574	4.08
488.009	4.1
488.443	4.12
488.877	4.15
489.311	4.16
489.745	4.17
490.179	4.19
490.613	4.23
491.046	4.26
491.48	4.29
491.914	4.31
492.348	4.35
492.781	4.37
493.215	4.4
493.648	4.44
494.082	4.49
494.515	4.54
494.948	4.59
495.382	4.62
495.815	4.68
496.248	4.74
496.681	4.8
497.114	4.84
497.547	4.91
497.98	4.98
498.413	5.04
498.846	5.11
499.279	5.18
499.711	5.26
500.144	5.35
500.577	5.44
501.009	5.53
501.442	5.63
501.874	5.74
502.306	5.85
502.739	5.96
503.171	6.09
503.603	6.22
504.036	6.36
504.468	6.5
504.9	6.66
505.332	6.83
505.764	6.98
506.196	7.16
506.627	7.34
507.059	7.53
507.491	7.72
507.923	7.92
508.354	8.12
508.786	8.33
509.217	8.54
509.649	8.75
510.08	8.98
510.512	9.2
510.943	9.44
511.374	9.68
511.805	9.91
512.237	10.17
512.668	10.41
513.099	10.68
513.53	10.95
513.961	11.24
514.391	11.5
514.822	11.77
515.253	12.06
515.684	12.33
516.114	12.64
516.545	12.94
516.975	13.24
517.406	13.55
517.836	13.83
518.267	14.13
518.697	14.45
519.127	14.75
519.558	15.05
519.988	15.34
520.418	15.65
520.848	15.93
521.278	16.22
521.708	16.61
522.138	16.89
522.567	17.18
522.997	17.44
523.427	17.68
523.857	17.94
524.286	18.2
524.716	18.44
525.145	18.68
525.575	18.91
526.004	19.12
526.433	19.23
526.863	19.45
527.292	19.66
527.721	19.85
528.15	20.04
528.579	20.22
529.008	20.39
529.437	20.57
529.866	20.71
530.295	20.87
530.724	21.03
531.152	21.18
531.581	21.31
532.01	21.42
532.438	21.55
532.867	21.65
533.295	21.77
533.723	21.87
534.152	21.98
534.58	22.07
535.008	22.14
535.436	22.2
535.865	22.25
536.293	22.31
536.721	22.37
537.149	22.43
537.576	22.5
538.004	22.55
538.432	22.58
538.86	22.62
539.287	22.68
539.715	22.74
540.143	22.77
540.57	22.83
540.998	22.88
541.425	22.91
541.852	22.94
542.28	22.95
542.707	22.99
543.134	23.02
543.561	23.04
543.988	23.05
544.415	23.07
544.842	23.1
545.269	23.12
545.696	23.13
546.123	23.15
546.549	23.18
546.976	23.22
547.403	23.23
547.829	23.26
548.256	23.27
548.682	23.29
549.108	23.31
549.535	23.33
549.961	23.33
550.387	23.32
550.813	23.31
551.24	23.32
551.666	23.31
552.092	23.29
552.518	23.27
552.943	23.27
553.369	23.25
553.795	23.21
554.221	23.18
554.646	23.16
555.072	23.12
555.498	23.08
555.923	23.01
556.349	22.94
556.774	22.88
557.199	22.82
557.625	22.72
558.05	22.64
558.475	22.56
558.9	22.48
559.325	22.38
559.75	22.28
560.175	22.18
560.6	22.06
561.025	21.96
561.449	21.83
561.874	21.69
562.299	21.57
562.723	21.44
563.148	21.29
563.572	21.14
563.997	21
564.421	20.86
564.846	20.71
565.27	20.56
565.694	20.41
566.118	20.26
566.542	20.11
566.966	19.96
567.39	19.8
567.814	19.63
568.238	19.46
568.662	19.29
569.086	19.13
569.509	18.98
569.933	18.81
570.357	18.64
570.78	18.47
571.204	18.31
571.627	18.14
572.05	17.98
572.474	17.85
572.897	17.7
573.32	17.55
573.743	17.41
574.166	17.25
574.589	17.11
575.012	16.98
575.435	16.85
575.858	16.73
576.281	16.61
576.704	16.49
577.126	16.37
577.549	16.26
577.972	16.15
578.394	16.03
578.817	15.94
579.239	15.83
579.661	15.75
580.084	15.64
580.506	15.54
580.928	15.44
581.35	15.36
581.772	15.28
582.194	15.19
582.616	15.12
583.038	15.04
583.46	14.96
583.882	14.88
584.303	14.8
584.725	14.73
585.147	14.66
585.568	14.59
585.99	14.52
586.411	14.45
586.833	14.37
587.254	14.3
587.675	14.26
588.096	14.21
588.518	14.15
588.939	14.11
589.36	14.06
589.781	14
590.202	13.95
590.623	13.88
591.043	13.83
591.464	13.79
591.885	13.76
592.305	13.7
592.726	13.65
593.147	13.61
593.567	13.57
593.987	13.54
594.408	13.51
594.828	13.46
595.248	13.45
595.669	13.43
596.089	13.39
596.509	13.35
596.929	13.31
597.349	13.28
597.769	13.25
598.189	13.22
598.608	13.16
599.028	13.12
599.448	13.1
599.867	13.05
600.287	13.01
600.706	12.98
601.126	12.95
601.545	12.91
601.965	12.87
602.384	12.8
602.803	12.73
603.222	12.68
603.641	12.62
604.061	12.56
604.48	12.49
604.898	12.43
605.317	12.36
605.736	12.29
606.155	12.22
606.574	12.14
606.992	12.07
607.411	12.02
607.829	11.9
608.248	11.83
608.666	11.76
609.085	11.69
609.503	11.61
609.921	11.52
610.339	11.46
610.758	11.38
611.176	11.3
611.594	11.23
612.012	11.14
612.43	11.12
612.847	11.04
613.265	10.97
613.683	10.9
614.101	10.82
614.518	10.75
614.936	10.67
615.353	10.6
615.771	10.53
616.188	10.48
616.606	10.42
617.023	10.35
617.44	10.31
617.857	10.23
618.274	10.17
618.691	10.14
619.108	10.1
619.525	10.05
619.942	10
620.359	9.97
620.776	9.92
621.192	9.89
621.609	9.86
622.026	9.83
622.442	9.82
622.859	9.8
623.275	9.77
623.691	9.75
624.108	9.74
624.524	9.73
624.94	9.72
625.356	9.72
625.772	9.71
626.188	9.71
626.604	9.68
627.02	9.67
627.436	9.66
627.852	9.65
628.268	9.63
628.683	9.61
629.099	9.58
629.514	9.55
629.93	9.51
630.345	9.48
630.761	9.44
631.176	9.42
631.591	9.38
632.007	9.34
632.422	9.3
632.837	9.26
633.252	9.21
633.667	9.15
634.082	9.11
634.497	9.05
634.911	8.98
635.326	8.9
635.741	8.81
636.155	8.72
636.57	8.64
636.984	8.54
637.399	8.44
637.813	8.34
638.228	8.24
638.642	8.13
639.056	8.02
639.47	7.91
639.884	7.81
640.298	7.7
640.712	7.58
641.126	7.47
641.54	7.36
641.954	7.27
642.368	7.16
642.781	7.06
643.195	6.95
643.609	6.85
644.022	6.76
644.436	6.66
644.849	6.57
645.262	6.48
645.676	6.4
646.089	6.32
646.502	6.24
646.915	6.17
647.328	6.11
647.741	6.06
648.154	6.03
648.567	5.99
648.98	5.95
649.393	5.91
649.805	5.87
650.218	5.83
650.631	5.79
651.043	5.77
651.456	5.73
651.868	5.7
652.28	5.66
652.693	5.61
653.105	5.57
653.517	5.51
653.929	5.49
654.341	5.47
654.753	5.43
655.165	5.39
655.577	5.34
655.989	5.28
656.401	5.22
656.813	5.17
657.224	5.11
657.636	5.06
658.047	5.01
658.459	4.94
658.87	4.87
659.282	4.81
659.693	4.75
660.104	4.7
660.515	4.65
660.926	4.6
661.338	4.55
661.749	4.48
662.159	4.42
662.57	4.38
662.981	4.33
663.392	4.29
663.803	4.25
664.213	4.2
664.624	4.16
665.035	4.11
665.445	4.09
665.855	4.06
666.266	4.06
666.676	4.05
667.086	4.02
667.497	3.99
667.907	3.97
668.317	3.94
668.727	3.94
669.137	3.93
669.547	3.95
669.956	3.93
670.366	3.93
670.776	3.94
671.186	3.93
671.595	3.94
672.005	3.96
672.414	3.99
672.824	4.02
673.233	4.04
673.642	4.06
674.052	4.08
674.461	4.11
674.87	4.12
675.279	4.14
675.688	4.17
676.097	4.2
676.506	4.23
676.915	4.25
677.323	4.29
677.732	4.31
678.141	4.35
678.549	4.37
678.958	4.42
679.366	4.46
679.775	4.52
680.183	4.58
680.592	4.63
681	4.69
681.408	4.77
681.816	4.84
682.224	4.92
682.632	5.02
683.04	5.12
683.448	5.22
683.856	5.33
684.264	5.46
684.671	5.6
685.079	5.76
685.487	5.94
685.894	6.14
686.302	6.36
686.709	6.6
687.116	6.85
687.524	7.14
687.931	7.46
688.338	7.81
688.745	8.15
689.152	8.55
689.559	8.96
689.966	9.39
690.373	9.85
690.78	10.32
691.187	10.83
691.593	11.34
692	11.86
692.407	12.41
692.813	12.97
693.22	13.55
693.626	14.13
694.032	14.72
694.439	15.34
694.845	15.92
695.251	16.54
695.657	17.16
696.063	17.79
696.469	18.44
696.875	19.05
697.281	19.66
697.687	20.3
698.093	20.91
698.498	21.53
698.904	22.14
699.31	22.75
699.715	23.37
700.12	23.93
700.526	24.49
700.931	25.05
701.337	25.61
701.742	26.16
702.147	26.71
702.552	27.25
702.957	27.77
703.362	28.26
703.767	28.77
704.172	29.24
704.577	29.75
704.981	30.25
705.386	30.72
705.791	31.19
706.195	31.65
706.6	32.08
707.004	32.5
707.408	32.92
707.813	33.36
708.217	33.78
708.621	34.19
709.025	34.6
709.43	34.98
709.834	35.39
710.237	35.77
710.641	36.19
711.045	36.56
711.449	36.94
711.853	37.32
712.256	37.7
712.66	38.06
713.064	38.4
713.467	38.74
713.87	39.1
714.274	39.42
714.677	39.75
715.08	40.05
715.484	40.39
715.887	40.72
716.29	41.01
716.693	41.3
717.096	41.61
717.499	41.91
717.901	42.18
718.304	42.44
718.707	42.7
719.109	42.98
719.512	43.25
719.915	43.48
720.317	43.73
720.719	43.99
721.122	44.22
721.524	44.43
721.926	44.67
722.328	44.88
722.731	45.11
723.133	45.32
723.535	45.52
723.937	45.71
724.338	45.91
724.74	46.06
725.142	46.28
725.544	46.45
725.945	46.65
726.347	46.81
726.748	46.95
727.15	47.1
727.551	47.29
727.952	47.41
728.354	47.58
728.755	47.71
729.156	47.84
729.557	47.93
729.958	48.05
730.359	48.13
730.76	48.27
731.161	48.41
731.562	48.51
731.962	48.59
732.363	48.69
732.763	48.79
733.164	48.88
733.564	48.99
733.965	49.06
734.365	49.13
734.766	49.22
735.166	49.22
735.566	49.25
735.966	49.33
736.366	49.36
736.766	49.42
737.166	49.45
737.566	49.51
737.966	49.56
738.365	49.6
738.765	49.69
739.165	49.7
739.564	49.82
739.964	49.86
740.363	49.91
740.763	49.95
741.162	50.01
741.561	50.07
741.96	50.12
742.36	50.15
742.759	50.17
743.158	50.17
743.557	50.24
743.955	50.28
744.354	50.32
744.753	50.36
745.152	50.41
745.55	50.42
745.949	50.41
746.348	50.43
746.746	50.45
747.144	50.5
747.543	50.54
747.941	50.59
748.339	50.62
748.737	50.65
749.136	50.66
749.534	50.66
749.932	50.7
750.33	50.71
750.727	50.71
751.125	50.73
751.523	50.74
751.921	50.78
752.318	50.75
752.716	50.74
753.113	50.75
753.511	50.74
753.908	50.74
754.305	50.73
754.703	50.74
755.1	50.77
755.497	50.79
755.894	50.78
756.291	50.74
756.688	50.74
757.085	50.71
757.482	50.69
757.878	50.69
758.275	50.7
758.672	50.71
759.068	50.69
759.465	50.66
759.861	50.63
760.258	50.61
760.654	50.61
761.05	50.62
761.447	50.64
761.843	50.61
762.239	50.6
762.635	50.6
763.031	50.6
763.427	50.59
763.822	50.58
764.218	50.59
764.614	50.59
765.01	50.59
765.405	50.57
765.801	50.56
766.196	50.6
766.592	50.58
766.987	50.58
767.382	50.57
767.778	50.6
768.173	50.62
768.568	50.6
768.963	50.61
769.358	50.58
769.753	50.63
770.148	50.64
770.542	50.62
770.937	50.63
771.332	50.59
771.726	50.58
772.121	50.52
772.515	50.5
772.91	50.48
773.304	50.46
773.699	50.45
774.093	50.41
774.487	50.41
774.881	50.41
775.275	50.41
775.669	50.43
776.063	50.43
776.457	50.44
776.851	50.41
777.245	50.42
777.638	50.4
778.032	50.43
778.425	50.44
778.819	50.43
779.212	50.42
779.606	50.43
779.999	50.42
780.392	50.4
780.786	50.41
781.179	50.45
781.572	50.44
781.965	50.43
782.358	50.37
782.751	50.35
783.143	50.34
783.536	50.38
783.929	50.39
784.322	50.39
784.714	50.38
785.107	50.39
785.499	50.38
785.891	50.4
786.284	50.41
786.676	50.46
787.068	50.47
787.46	50.46
787.852	50.44
788.245	50.43
788.636	50.45
789.028	50.44
789.42	50.42
789.812	50.42
790.204	50.37
790.595	50.37
790.987	50.37
791.378	50.34
791.77	50.35
792.161	50.38
792.553	50.38
792.944	50.4
793.335	50.42
793.726	50.43
794.117	50.42
794.508	50.45
794.899	50.46
795.29	50.44
795.681	50.44
796.072	50.43
796.463	50.44
796.853	50.42
797.244	50.41
797.634	50.4
798.025	50.39
798.415	50.42
798.806	50.42
799.196	50.47
799.586	50.49
799.976	50.5
800.366	50.5
800.756	50.45
801.146	50.44
801.536	50.4
801.926	50.38
802.316	50.38
802.706	50.35
803.095	50.37
803.485	50.38
803.874	50.36
804.264	50.35
804.653	50.31
805.043	50.32
805.432	50.32
805.821	50.33
806.21	50.36
806.599	50.37
806.988	50.38
807.377	50.36
807.766	50.31
808.155	50.32
808.544	50.31
808.933	50.31
809.321	50.31
809.71	50.34
810.098	50.35
810.487	50.35
810.875	50.34
811.264	50.36
811.652	50.38
812.04	50.4
812.428	50.38
812.816	50.39
813.204	50.41
813.592	50.43
813.98	50.4
814.368	50.4
814.756	50.4
815.144	50.4
815.531	50.38
815.919	50.35
816.306	50.34
816.694	50.36
817.081	50.36
817.469	50.37
817.856	50.38
818.243	50.39
818.63	50.4
819.017	50.41
819.404	50.41
819.791	50.41
820.178	50.43
820.565	50.43
820.952	50.43
821.339	50.46
821.725	50.46
822.112	50.47
822.498	50.46
822.885	50.47
823.271	50.48
823.657	50.48
824.044	50.48
824.43	50.5
824.816	50.52
825.202	50.49
825.588	50.5
825.974	50.5
826.36	50.5
826.746	50.55
827.132	50.51
827.517	50.53
827.903	50.54
828.289	50.55
828.674	50.54
829.06	50.55
829.445	50.58
829.83	50.55
830.216	50.55
830.601	50.6
830.986	50.58
831.371	50.66
831.756	50.64
832.141	50.68
832.526	50.66
832.911	50.68
833.295	50.69
833.68	50.7
834.065	50.74
834.449	50.74
834.834	50.69
835.218	50.68
835.603	50.64
835.987	50.65
836.371	50.64
836.755	50.67
837.139	50.66
837.524	50.65
837.908	50.64
838.291	50.65
838.675	50.64
839.059	50.64
839.443	50.66
839.827	50.66
840.21	50.66
840.594	50.65
840.977	50.65
841.361	50.66
841.744	50.66
842.127	50.66
842.511	50.64
842.894	50.64
843.277	50.62
843.66	50.61
844.043	50.63
844.426	50.64
844.809	50.6
845.191	50.58
845.574	50.56
845.957	50.53
846.339	50.54
846.722	50.54
847.104	50.55
847.487	50.57
847.869	50.56
848.252	50.55
848.634	50.57
849.016	50.58
849.398	50.6
849.78	50.6
850.162	50.62
850.544	50.63
850.926	50.61
851.307	50.62
851.689	50.62
852.071	50.62
852.452	50.61
852.834	50.59
853.215	50.61
853.597	50.61
853.978	50.58
854.359	50.57
854.741	50.57
855.122	50.58
855.503	50.58
855.884	50.57
856.265	50.57
856.646	50.56
857.026	50.55
857.407	50.5
857.788	50.5
858.169	50.52
858.549	50.53
858.93	50.52
859.31	50.52
859.69	50.52
860.071	50.53
860.451	50.53
860.831	50.54
861.211	50.55
861.591	50.59
861.971	50.59
862.351	50.61
862.731	50.57
863.111	50.58
863.491	50.57
863.87	50.52
864.25	50.51
864.629	50.48
865.009	50.45
865.388	50.42
865.768	50.4
866.147	50.41
866.526	50.4
866.905	50.44
867.284	50.42
867.663	50.43
868.042	50.46
868.421	50.44
868.8	50.47
869.179	50.5
869.558	50.51
869.936	50.52
870.315	50.48
870.693	50.48
871.072	50.44
871.45	50.45
871.828	50.44
872.207	50.44
872.585	50.44
872.963	50.4
873.341	50.41
873.719	50.44
874.097	50.41
874.475	50.4
874.853	50.4
875.23	50.41
875.608	50.38
875.986	50.4
876.363	50.38
876.741	50.4
877.118	50.42
877.495	50.39
877.873	50.33
878.25	50.36
878.627	50.37
879.004	50.36
879.381	50.33
879.758	50.34
880.135	50.33
880.512	50.35
880.889	50.34
881.265	50.37
881.642	50.36
882.019	50.38
882.395	50.36
882.772	50.38
883.148	50.39
883.524	50.4
883.901	50.38
884.277	50.39
884.653	50.41
885.029	50.4
885.405	50.4
885.781	50.4
886.157	50.41
886.532	50.44
886.908	50.46
887.284	50.46
887.659	50.5
888.035	50.51
888.411	50.5
888.786	50.5
889.161	50.5
889.537	50.51
889.912	50.48
890.287	50.45
890.662	50.45
891.037	50.41
891.412	50.39
891.787	50.38
892.162	50.36
892.536	50.37
892.911	50.35
893.286	50.32
893.66	50.31
894.035	50.32
894.409	50.32
894.784	50.3
895.158	50.32
895.532	50.33
895.906	50.31
896.281	50.32
896.655	50.28
897.029	50.27
897.402	50.3
897.776	50.29
898.15	50.29
898.524	50.29
898.898	50.26
899.271	50.23
899.645	50.2
900.018	50.18
900.392	50.18
900.765	50.17
901.138	50.17
901.511	50.16
901.884	50.14
902.258	50.12
902.631	50.11
903.003	50.11
903.376	50.09
903.749	50.09
904.122	50.07
904.495	50.05
904.867	50.05
905.24	50.03
905.612	49.99
905.985	49.97
906.357	49.95
906.729	49.94
907.102	49.9
907.474	49.91
907.846	49.9
908.218	49.88
908.59	49.85
908.962	49.83
909.334	49.83
909.705	49.82
910.077	49.82
910.449	49.82
910.82	49.78
911.192	49.79
911.563	49.76
911.935	49.73
912.306	49.72
912.677	49.74
913.048	49.76
913.419	49.73
913.79	49.72
914.161	49.73
914.532	49.74
914.903	49.77
915.274	49.77
915.645	49.81
916.015	49.82
916.386	49.81
916.756	49.76
917.127	49.74
917.497	49.77
917.868	49.79
918.238	49.81
918.608	49.78
918.978	49.77
919.348	49.74
919.718	49.69
920.088	49.71
920.458	49.75
920.828	49.78
921.198	49.78
921.567	49.75
921.937	49.74
922.306	49.71
922.676	49.71
923.045	49.74
923.415	49.75
923.784	49.78
924.153	49.76
924.522	49.71
924.891	49.7
925.26	49.68
925.629	49.68
925.998	49.65
926.367	49.65
926.736	49.62
927.104	49.57
927.473	49.57
927.842	49.58
928.21	49.6
928.578	49.61
928.947	49.62
929.315	49.6
929.683	49.59
930.051	49.57
930.42	49.56
930.788	49.59
931.156	49.62
931.523	49.6
931.891	49.52
932.259	49.44
932.627	49.38
932.994	49.37
933.362	49.33
933.729	49.3
934.097	49.31
934.464	49.29
934.831	49.24
935.199	49.2
935.566	49.15
935.933	49.17
936.3	49.15
936.667	49.15
937.034	49.12
937.401	49.14
937.767	49.1
938.134	49
938.501	48.93
938.867	48.9
939.234	48.93
939.6	48.94
939.967	48.95
940.333	48.94
940.699	48.92
941.065	48.88
941.431	48.82
941.798	48.81
942.163	48.88
942.529	48.93
942.895	48.86
943.261	48.84
943.627	48.82
943.992	48.82
944.358	48.79
944.723	48.76
945.089	48.84
945.454	48.86
945.82	48.87
946.185	48.93
946.55	48.9
946.915	49.02
947.28	48.97
947.645	48.95
948.01	48.95
948.375	49.01
948.74	48.97
949.104	48.91
949.469	48.89
949.834	48.9
950.198	48.85
950.562	48.82
950.927	48.73
951.291	48.68
951.655	48.68
952.02	48.65
952.384	48.62
952.748	48.73
953.112	48.73
953.476	48.69
953.839	48.63
954.203	48.67
954.567	48.73
954.931	48.69
955.294	48.75
955.658	48.72
956.021	48.72
956.385	48.74
956.748	48.65
957.111	48.59
957.474	48.61
957.837	48.69
958.2	48.62
958.563	48.61
958.926	48.56
959.289	48.53
959.652	48.56
960.015	48.54
960.377	48.5
960.74	48.48
961.102	48.5
961.465	48.51
961.827	48.43
962.189	48.41
962.552	48.33
962.914	48.4
963.276	48.41
963.638	48.32
964	48.33
964.362	48.34
964.724	48.35
965.085	48.36
965.447	48.29
965.809	48.25
966.17	48.19
966.532	48.27
966.893	48.23
967.255	48.17
967.616	48.2
967.977	48.18
968.338	48.17
968.699	48.13
969.061	48.09
969.421	48.07
969.782	48.17
970.143	48.18
970.504	48.08
970.865	48.04
971.225	48.09
971.586	48.13
971.946	48.11
972.307	48.02
972.667	48.07
973.027	48.12
973.388	48.18
973.748	48.11
974.108	48.11
974.468	48.19
974.828	48.27
975.188	48.21
975.548	48.18
975.907	48.29
976.267	48.33
976.627	48.29
976.986	48.28
977.346	48.21
977.705	48.17
978.064	48.21
978.424	48.14
978.783	48.04
979.142	48.03
979.501	48.03
979.86	47.94
980.219	47.91
980.578	47.96
980.937	47.95
981.296	47.92
981.654	47.9
982.013	47.95
982.371	47.93
982.73	47.91
983.088	47.88
983.447	47.85
983.805	47.86
984.163	47.92
984.521	47.82
984.879	47.78
985.237	47.85
985.595	47.9
985.953	47.79
986.311	47.78
986.669	47.79
987.026	47.81
987.384	47.78
987.741	47.77
988.099	47.69
988.456	47.78
988.814	47.71
989.171	47.65
989.528	47.56
989.885	47.45
990.242	47.5
990.599	47.5
990.956	47.47
991.313	47.55
991.67	47.47
992.027	47.57
992.383	47.45
992.74	47.44
993.096	47.48
993.453	47.53
993.809	47.63
994.165	47.65
994.522	47.61
994.878	47.55
995.234	47.38
995.59	47.25
995.946	47.07
996.302	47.02
996.658	47.08
997.013	46.97
997.369	46.93
997.725	46.93
998.08	46.83
998.436	46.88
998.791	46.84
999.147	46.9
999.502	46.94
999.857	46.94
1000.212	46.97
1000.567	46.91
1000.922	46.88
1001.277	46.89
1001.632	46.88
1001.987	46.92
1002.342	46.88
1002.696	47.01
1003.051	46.93
1003.406	46.78
1003.76	46.8
1004.114	46.93
1004.469	46.87
1004.823	46.95
1005.177	46.94
1005.531	46.69
1005.885	46.63
1006.239	46.57
1006.593	46.46
1006.947	46.36
1007.301	46.58
1007.655	46.71
1008.008	46.64
1008.362	46.69
1008.715	46.67
1009.069	46.54
1009.422	46.59
1009.776	46.55
1010.129	46.42
1010.482	46.59
1010.835	46.67
1011.188	46.53
1011.541	46.21
1011.894	46.11
1012.247	45.94
1012.6	45.82
1012.952	45.81
1013.305	45.88
1013.657	45.81
1014.01	46.02
1014.362	45.77
1014.715	45.67
1015.067	45.87
1015.419	46.11
1015.771	46.03
1016.123	46.04
1016.475	46
1016.827	46.08
1017.179	46
1017.531	45.92
1017.883	45.85
1018.234	46.09
1018.586	46.23
1018.938	46.01
1019.289	45.79
1019.64	45.81
1019.992	45.99
1020.343	45.94
1020.694	45.81
1021.045	45.73
1021.396	45.61
1021.747	45.35
1022.098	44.99
1022.449	44.85
1022.8	44.92
1023.151	45.09
1023.501	45.2
1023.852	44.89
1024.202	44.95
1024.553	44.76
1024.903	45.03
1025.253	45.2
1025.604	45.44
1025.954	45.43
1026.304	45.66
1026.654	45.87
1027.004	45.62
1027.354	45.31
1027.703	45.21
1028.053	44.59
1028.403	44.97
1028.753	44.68
1029.102	44.7
1029.452	44.51
1029.801	44.6
1030.15	44.26
1030.499	43.63
897.758	710.77
901.051	724.69
904.343	725.81
907.636	717.08
910.928	704.77
914.22	715.71
917.511	706.05
920.803	672.52
924.094	645.37
927.384	649.56
930.675	627.86
933.965	621.06
937.255	619.83
940.544	595.93
943.834	564.24
947.123	553.89
950.411	527.32
953.7	513.29
956.988	499.54
960.276	475.27
963.563	470.87
966.851	446.67
970.138	436.41
973.424	404.59
976.711	398.44
979.997	387.33
983.283	380.57
986.568	366.54
989.853	354.13
993.138	343.33
996.423	337.84
999.708	326.94
1002.992	327.71
1006.275	316.31
1009.559	314.99
1012.842	304.67
1016.125	294.35
1019.408	287.83
1022.69	284.16
1025.972	284.6
1029.254	275.4
1032.536	271.25
1035.817	261.37
1039.098	257.01
1042.379	253.6
1045.659	248.72
1048.939	246.39
1052.219	242.65
1055.498	239.09
1058.778	235.29
1062.057	229.41
1065.335	228.52
1068.614	223.77
1071.892	222.22
1075.17	216.91
1078.447	214.3
1081.724	212.17
1085.001	209.63
1088.278	206.46
1091.554	204.29
1094.83	202.86
1098.106	200.12
1101.382	199.13
1104.657	199.11
1107.932	197.75
1111.206	195.99
1114.481	193.37
1117.755	192.44
1121.029	190.94
1124.302	189.56
1127.575	186.78
1130.848	186.4
1134.121	183.46
1137.393	182.81
1140.665	180.34
1143.937	178.5
1147.208	176.66
1150.48	175.07
1153.75	173.38
1157.021	172.15
1160.291	172.11
1163.561	171.19
1166.831	169.62
1170.101	169.51
1173.37	168.02
1176.639	167.13
1179.907	166.09
1183.176	166.76
1186.444	166.99
1189.711	166.36
1192.979	166.92
1196.246	166.63
1199.513	166.1
1202.78	166.46
1206.046	166.76
1209.312	167.02
1212.578	168.26
1215.843	171.18
1219.108	171.92
1222.373	174.9
1225.638	177.6
1228.902	181.35
1232.166	187.33
1235.43	190.79
1238.693	196.7
1241.956	200.33
1245.219	206.77
1248.482	208.05
1251.744	207.21
1255.006	207.91
1258.268	202.55
1261.529	201.01
1264.79	195.48
1268.051	190.59
1271.312	187.99
1274.572	183.84
1277.832	179.32
1281.092	176.64
1284.351	172.82
1287.61	172.98
1290.869	171.21
1294.128	170.67
1297.386	169.23
1300.644	169.03
1303.902	168.73
1307.159	168.68
1310.416	169.1
1313.673	172.01
1316.93	173.13
1320.186	176.22
1323.442	178.59
1326.697	182.3
1329.953	183.73
1333.208	191.05
1336.463	197.92
1339.717	202.17
1342.972	212.79
1346.226	218.68
1349.479	220.77
1352.733	230.99
1355.986	235.35
1359.238	240.46
1362.491	244.38
1365.743	254.04
1368.995	253.8
1372.247	253.21
1375.498	251.67
1378.749	258.38
1382	258.52
1385.251	258.45
1388.501	256.77
1391.751	260.76
1395	259.65
1398.25	260.45
1401.499	259.84
1404.748	261.05
1407.996	258.39
1411.244	259.73
1414.492	255.11
1417.74	249.05
1420.987	242.61
1424.234	239.3
1427.481	230.74
1430.728	223.97
1433.974	216.76
1437.22	208.5
1440.465	203.3
1443.711	197.18
1446.956	190.93
1450.201	183.66
1453.445	176.71
1456.689	172.12
1459.933	165.14
1463.177	158.5
1466.42	155.04
1469.663	150.12
1472.906	146.96
1476.148	141.17
1479.391	137.37
1482.633	134.92
1485.874	132.36
1489.115	130.26
1492.356	127.35
1495.597	126.35
1498.838	125.24
1502.078	124.33
1505.318	124.15
1508.557	123.31
1511.797	122.03
1515.036	122.24
1518.274	121.47
1521.513	119.62
1524.751	118.87
1527.989	120.21
1531.227	119.65
1534.464	119.24
1537.701	118.05
1540.938	117.56
1544.174	117.02
1547.41	117.07
1550.646	116.62
1553.882	116.76
1557.117	116.56
1560.352	115.68
1563.587	114.14
1566.821	114.11
1570.055	113.32
1573.289	112.58
1576.523	112.86
1579.756	111.96
1582.989	112.09
1586.222	111.24
1589.454	110.95
1592.686	110.71
1595.918	110.86
1599.15	110.89
1602.381	110.84
1605.612	111.14
1608.843	111.69
1612.073	111.59
1615.303	111.87
1618.533	111.32
1621.762	111.87
1624.992	111.33
1628.221	111.38
1631.449	112.03
1634.678	111.67
1637.906	111.67
1641.134	111.93
1644.361	111.52
1647.588	111.62
1650.815	111.86
1654.042	112.32
1657.269	111.86
1660.495	112.79
1663.72	112.95
1666.946	112.56
1670.171	113.33
1673.396	113.93
1676.621	114.16
1679.845	114.56
1683.069	114.41
1686.293	113.72
1689.517	113.7
1692.74	114.28
1695.963	114.39
1699.185	114.88
1702.408	115.02
1705.63	114.96
1708.852	115.72
1712.073	114.97
1715.294	114.89
1718.515	115.82
1721.736	116.73
1724.956	117.01
1728.176	116.84
1731.396	117.58
1734.616	117.55
1737.835	118.1
1741.054	117.95
1744.272	117.21
1747.491	117.98
1750.709	118.32
1753.927	118.07
1757.144	118.31
1760.361	118.79
1763.578	119.41
1766.795	119.73
1770.011	120.06
1773.227	121.01
1776.443	121.84
1779.658	122.63
1782.874	122.67
1786.089	124.06
1789.303	124.12
1792.518	125.36
1795.732	125.94
1798.945	127.72
1802.159	127.38
1805.372	129.21
1808.585	129.7
1811.797	131.11
1815.01	131.46
1818.222	133.38
1821.434	133.92
1824.645	135
1827.856	136.89
1831.067	137.23
1834.278	138.42
1837.488	139.92
1840.698	140.63
1843.908	140.81
1847.117	142.66
1850.326	144.48
1853.535	145.12
1856.744	146.72
1859.952	148.3
1863.16	148.48
1866.368	149.34
1869.575	149.3
1872.782	150.02
1875.989	148.87
1879.196	148.53
1882.402	147.12
1885.608	147.69
1888.814	147.29
1892.019	148.09
1895.224	146.35
1898.429	146.19
1901.634	146.91
1904.838	147.8
1908.042	148.15
1911.246	148.08
1914.449	149.21
1917.652	149.63
1920.855	150.05
1924.058	149.03
1927.26	148.65
1930.462	149.52
1933.664	149.12
1936.865	149.26
1940.066	147.49
1943.267	146.41
1946.467	147.15
1949.668	146.92
1952.868	147.88
1956.067	146.9
1959.267	148.84
1962.466	149.17
1965.665	150.82
1968.863	152.4
1972.061	152.78
1975.259	156.53
1978.457	157.58
1981.654	159.58
1984.852	161.23
1988.048	162.38
1991.245	165.03
1994.441	168.12
1997.637	172.64
2000.833	175.44
2004.028	177.28
2007.223	183.18
2010.418	186.49
2013.613	195.16
2016.807	200.21
2020.001	204.73
2023.194	210.26
2026.388	217.09
2029.581	227.46
2032.774	233.01
2035.966	240.26
2039.158	247.63
2042.35	251.89
2045.542	256.37
2048.733	264.91
2051.924	268.18
2055.115	272.58
2058.306	275.63
2061.496	280.74
2064.686	281.87
2067.875	280.53
2071.065	282.97
2074.254	284.01
2077.442	292.19
2080.631	294.07
2083.819	295.1
2087.007	301.73
2090.195	306.03
2093.382	305.36
2096.569	306.51
2099.756	309.94
2102.942	316.36
2106.128	324.48
2109.314	324.92
2112.5	324.16
2115.685	325.65
2118.87	326.38
2122.055	326.97
2125.239	333.47
2128.424	342.93
2131.608	339.71
2134.791	339.74
2137.974	342.28
2141.157	344.47
2144.34	349.56
2147.523	352.39
2150.705	359.13
2153.887	355.38
2157.068	360.32
2160.25	362.42
2163.431	359.21
2166.611	367.41
2169.792	375.46
2172.972	379.89
2176.152	378.29
2179.331	387.25
2182.511	389.38
2185.69	394.13
2188.868	409.19
2192.047	416.03
2195.225	422.12
2198.403	429.4
2201.58	422.51
2204.758	437.34
2207.935	439.9
2211.111	449.14
2214.288	451.21
2217.464	456.48
2220.64	456.42
2223.815	459.54
2226.991	459.04
2230.166	462.29
2233.34	476.86
2236.515	491.55
2239.689	478.77
2242.863	486.46
2246.036	480.08
2249.209	495.52
2252.382	493.41
2255.555	512.25
2258.727	514.6
2261.9	526.69
2265.071	533.75
2268.243	529.82
2271.414	545.68
2274.585	560.14
2277.756	563.17
2280.926	585.61
2284.096	581.4
2287.266	587.35
2290.436	574.15
2293.605	587.6
2296.774	611.8
2299.942	612.31
2303.111	628.29
2306.279	642.39
2309.447	644.91
2312.614	643.76
2315.781	662.07
2318.948	672.2
2322.115	685.2
2325.281	725.34
2328.447	721.46
2331.613	715.59
2334.779	728.46
2337.944	740.42
2341.109	752.01
2344.274	757.4
2347.438	784.09
2350.602	793.94
2353.766	835.11
2356.929	839.23
2360.092	846.38
2363.255	850.14
2366.418	866.52
2369.58	882.32
2372.742	880.5
2375.904	875.8
2379.066	903.99
2382.227	951.49
2385.388	954.81
2388.548	915.02
2391.709	906.33
2394.869	941.27
2398.029	939.97
2401.188	939.16
2404.347	969.75
2407.506	1002.56
2410.665	967.24
2413.823	970.2
2416.981	968.4
2420.139	914.51
2423.296	986.51
2426.453	1050.61
2429.61	1004.17
2432.767	1073.35
2435.923	1115.82
2439.079	1063.67
2442.235	1090.95
2445.391	1114.72
2448.546	1109.49
2451.701	1164.87
2454.855	1248.59
2458.009	1100.75
2461.163	1114.62
2464.317	1122.78
2467.471	1093.94
2470.624	1134.1
2473.777	1129.93
2476.929	1089.46
2480.082	1169.3
2483.234	1221.55
2486.385	1244.5
2489.537	1274.66
2492.688	1409.22
2495.839	1394.1
2498.989	1428.37
2502.14	1442.49
2505.29	1368.01
2508.439	1514.19
2511.589	1559.09
2514.738	1508.07
2517.887	1492.21
2521.035	1397.86
2524.183	1369.05
2527.331	1353.6
2530.479	1313.67
2533.627	1349.28
