Data from N_1_hir_il_4n_021_Splice17_18.txt Node
Date: Sat Feb 29 13:42:18 EST 2020
User: sa697716
Spectrometer: FLMS03696
Trigger mode: 0
Integration Time (sec): 3.180400E-1
Scans to average: 20
Electric dark correction enabled: true
Nonlinearity correction enabled: true
Boxcar width: 5
XAxis mode: Wavelengths
Number of Pixels in Spectrum: 2048
>>>>>Begin Spectral Data<<<<<
187.83	90.59
188.298	103.32
188.766	100.94
189.233	103.71
189.701	115.78
190.169	107.13
190.636	108.23
191.104	115.24
191.571	315.16
192.039	265.59
192.506	-273.57
192.974	-3334.15
193.441	70.99
193.908	78.12
194.375	181.46
194.842	283.68
195.31	129.29
195.777	90.7
196.244	18.74
196.711	16.32
197.177	16.76
197.644	16.16
198.111	16.35
198.578	16.59
199.045	16.41
199.511	16.5
199.978	17.46
200.445	17.35
200.911	17.92
201.378	18.79
201.844	19.49
202.31	19.54
202.777	20.11
203.243	20.6
203.709	21.06
204.176	21.28
204.642	21.32
205.108	20.86
205.574	21.69
206.04	21.73
206.506	21.26
206.972	21.16
207.438	21.05
207.903	21.08
208.369	20.87
208.835	20.65
209.301	21.01
209.766	21.29
210.232	21.99
210.697	21.77
211.163	21.56
211.628	21.66
212.094	21.58
212.559	21.75
213.024	21.71
213.49	21.64
213.955	21.77
214.42	21.59
214.885	21.2
215.35	20.8
215.815	20.58
216.28	20.67
216.745	20.7
217.21	20.77
217.675	20.69
218.14	20.41
218.604	20.29
219.069	20.09
219.534	19.89
219.998	19.79
220.463	19.68
220.927	19.58
221.392	19.4
221.856	19.23
222.32	19.02
222.785	18.82
223.249	18.68
223.713	18.53
224.177	18.38
224.642	18.26
225.106	18.1
225.57	17.91
226.034	17.72
226.497	17.53
226.961	17.34
227.425	17.12
227.889	16.96
228.353	16.8
228.816	16.64
229.28	16.42
229.744	16.24
230.207	16.07
230.671	15.89
231.134	15.74
231.597	15.56
232.061	15.43
232.524	15.28
232.987	15.13
233.45	14.96
233.914	14.79
234.377	14.67
234.84	14.51
235.303	14.37
235.766	14.23
236.229	14.09
236.691	13.98
237.154	13.85
237.617	13.72
238.08	13.59
238.542	13.47
239.005	13.35
239.468	13.22
239.93	13.11
240.393	13
240.855	12.88
241.317	12.78
241.78	12.67
242.242	12.57
242.704	12.48
243.166	12.4
243.629	12.31
244.091	12.23
244.553	12.15
245.015	12.06
245.477	11.97
245.939	11.9
246.4	11.81
246.862	11.73
247.324	11.66
247.786	11.59
248.247	11.51
248.709	11.44
249.17	11.38
249.632	11.3
250.093	11.24
250.555	11.2
251.016	11.16
251.477	11.12
251.939	11.09
252.4	11.04
252.861	11
253.322	10.96
253.783	10.94
254.244	10.89
254.705	10.87
255.166	10.85
255.627	10.8
256.088	10.76
256.549	10.7
257.009	10.66
257.47	10.64
257.931	10.6
258.391	10.56
258.852	10.52
259.312	10.5
259.773	10.47
260.233	10.44
260.694	10.41
261.154	10.37
261.614	10.34
262.074	10.32
262.534	10.29
262.994	10.27
263.455	10.26
263.915	10.24
264.374	10.21
264.834	10.18
265.294	10.15
265.754	10.13
266.214	10.12
266.673	10.1
267.133	10.07
267.593	10.06
268.052	10.04
268.512	10.01
268.971	9.99
269.431	9.97
269.89	9.96
270.349	9.95
270.809	9.94
271.268	9.93
271.727	9.91
272.186	9.89
272.645	9.85
273.104	9.84
273.563	9.82
274.022	9.8
274.481	9.78
274.94	9.75
275.399	9.72
275.857	9.69
276.316	9.66
276.775	9.62
277.233	9.59
277.692	9.57
278.15	9.54
278.609	9.5
279.067	9.47
279.525	9.43
279.984	9.4
280.442	9.36
280.9	9.33
281.358	9.29
281.816	9.26
282.274	9.22
282.732	9.19
283.19	9.15
283.648	9.11
284.106	9.09
284.564	9.06
285.021	9.02
285.479	8.99
285.937	8.95
286.394	8.92
286.852	8.89
287.309	8.87
287.767	8.85
288.224	8.83
288.682	8.81
289.139	8.79
289.596	8.77
290.053	8.74
290.511	8.7
290.968	8.69
291.425	8.68
291.882	8.66
292.339	8.62
292.796	8.59
293.252	8.57
293.709	8.55
294.166	8.52
294.623	8.5
295.079	8.48
295.536	8.46
295.992	8.44
296.449	8.42
296.905	8.4
297.362	8.39
297.818	8.37
298.274	8.35
298.731	8.33
299.187	8.32
299.643	8.3
300.099	8.27
300.555	8.25
301.011	8.23
301.467	8.21
301.923	8.19
302.379	8.18
302.835	8.16
303.291	8.14
303.746	8.13
304.202	8.11
304.658	8.09
305.113	8.07
305.569	8.06
306.024	8.04
306.479	8.02
306.935	7.99
307.39	7.97
307.845	7.95
308.301	7.94
308.756	7.93
309.211	7.91
309.666	7.9
310.121	7.89
310.576	7.88
311.031	7.87
311.486	7.87
311.94	7.87
312.395	7.88
312.85	7.87
313.305	7.85
313.759	7.83
314.214	7.82
314.668	7.81
315.123	7.8
315.577	7.79
316.032	7.77
316.486	7.76
316.94	7.74
317.394	7.72
317.849	7.7
318.303	7.69
318.757	7.68
319.211	7.67
319.665	7.67
320.119	7.65
320.572	7.65
321.026	7.64
321.48	7.63
321.934	7.63
322.387	7.62
322.841	7.61
323.295	7.6
323.748	7.58
324.202	7.56
324.655	7.55
325.108	7.52
325.562	7.49
326.015	7.47
326.468	7.45
326.921	7.43
327.374	7.42
327.827	7.41
328.28	7.39
328.733	7.38
329.186	7.37
329.639	7.36
330.092	7.35
330.545	7.35
330.997	7.35
331.45	7.34
331.903	7.32
332.355	7.31
332.808	7.3
333.26	7.3
333.713	7.3
334.165	7.29
334.617	7.28
335.069	7.26
335.522	7.26
335.974	7.26
336.426	7.25
336.878	7.24
337.33	7.22
337.782	7.22
338.234	7.22
338.686	7.21
339.137	7.2
339.589	7.2
340.041	7.19
340.493	7.17
340.944	7.16
341.396	7.16
341.847	7.14
342.299	7.12
342.75	7.09
343.201	7.07
343.653	7.05
344.104	7.04
344.555	7.03
345.006	7.02
345.457	7.01
345.908	6.99
346.359	6.98
346.81	6.98
347.261	6.97
347.712	6.97
348.163	6.97
348.613	6.95
349.064	6.92
349.515	6.91
349.965	6.89
350.416	6.88
350.866	6.87
351.317	6.86
351.767	6.85
352.217	6.84
352.668	6.83
353.118	6.82
353.568	6.82
354.018	6.82
354.468	6.81
354.918	6.81
355.368	6.8
355.818	6.8
356.268	6.8
356.718	6.79
357.168	6.78
357.617	6.76
358.067	6.76
358.517	6.75
358.966	6.75
359.416	6.77
359.865	6.76
360.315	6.76
360.764	6.75
361.213	6.74
361.663	6.73
362.112	6.75
362.561	6.75
363.01	6.76
363.459	6.75
363.908	6.75
364.357	6.75
364.806	6.75
365.255	6.75
365.703	6.75
366.152	6.75
366.601	6.76
367.05	6.77
367.498	6.78
367.947	6.76
368.395	6.78
368.844	6.78
369.292	6.76
369.74	6.78
370.189	6.78
370.637	6.79
371.085	6.81
371.533	6.81
371.981	6.81
372.429	6.81
372.877	6.83
373.325	6.83
373.773	6.85
374.221	6.87
374.669	6.87
375.116	6.88
375.564	6.89
376.012	6.91
376.459	6.93
376.907	6.94
377.354	6.95
377.801	6.97
378.249	6.98
378.696	6.99
379.143	7.01
379.591	7.03
380.038	7.06
380.485	7.08
380.932	7.08
381.379	7.08
381.826	7.1
382.273	7.11
382.72	7.12
383.166	7.16
383.613	7.19
384.06	7.21
384.506	7.22
384.953	7.24
385.4	7.25
385.846	7.27
386.292	7.3
386.739	7.31
387.185	7.34
387.631	7.36
388.078	7.37
388.524	7.36
388.97	7.36
389.416	7.38
389.862	7.38
390.308	7.39
390.754	7.41
391.2	7.41
391.645	7.43
392.091	7.44
392.537	7.46
392.983	7.48
393.428	7.5
393.874	7.54
394.319	7.56
394.765	7.57
395.21	7.58
395.655	7.59
396.101	7.6
396.546	7.61
396.991	7.6
397.436	7.61
397.881	7.61
398.326	7.63
398.771	7.63
399.216	7.65
399.661	7.67
400.106	7.7
400.551	7.7
400.995	7.71
401.44	7.71
401.885	7.73
402.329	7.73
402.774	7.72
403.218	7.71
403.663	7.7
404.107	7.71
404.551	7.72
404.995	7.7
405.44	7.7
405.884	7.7
406.328	7.71
406.772	7.71
407.216	7.72
407.66	7.73
408.104	7.72
408.547	7.72
408.991	7.7
409.435	7.69
409.879	7.68
410.322	7.68
410.766	7.67
411.209	7.66
411.653	7.65
412.096	7.64
412.54	7.62
412.983	7.62
413.426	7.64
413.869	7.65
414.312	7.65
414.756	7.66
415.199	7.66
415.642	7.68
416.085	7.69
416.527	7.69
416.97	7.7
417.413	7.7
417.856	7.69
418.298	7.67
418.741	7.65
419.184	7.66
419.626	7.63
420.069	7.63
420.511	7.61
420.953	7.59
421.396	7.58
421.838	7.59
422.28	7.6
422.722	7.6
423.164	7.61
423.606	7.61
424.048	7.6
424.49	7.61
424.932	7.61
425.374	7.61
425.816	7.59
426.258	7.58
426.699	7.54
427.141	7.51
427.582	7.5
428.024	7.47
428.465	7.46
428.907	7.46
429.348	7.45
429.789	7.43
430.231	7.42
430.672	7.42
431.113	7.41
431.554	7.43
431.995	7.41
432.436	7.39
432.877	7.38
433.318	7.36
433.759	7.34
434.2	7.31
434.64	7.32
435.081	7.3
435.522	7.3
435.962	7.29
436.403	7.28
436.843	7.29
437.284	7.29
437.724	7.31
438.164	7.31
438.604	7.31
439.045	7.31
439.485	7.28
439.925	7.26
440.365	7.22
440.805	7.2
441.245	7.19
441.685	7.18
442.125	7.16
442.564	7.14
443.004	7.13
443.444	7.13
443.883	7.11
444.323	7.1
444.762	7.11
445.202	7.14
445.641	7.14
446.081	7.15
446.52	7.12
446.959	7.12
447.398	7.14
447.837	7.16
448.276	7.16
448.716	7.17
449.154	7.19
449.593	7.2
450.032	7.19
450.471	7.18
450.91	7.17
451.349	7.17
451.787	7.16
452.226	7.12
452.664	7.1
453.103	7.08
453.541	7.07
453.98	7.06
454.418	7.05
454.856	7.01
455.295	7.01
455.733	6.99
456.171	6.99
456.609	6.99
457.047	6.99
457.485	6.99
457.923	6.98
458.361	6.97
458.798	6.97
459.236	6.97
459.674	6.97
460.111	6.99
460.549	6.99
460.987	6.99
461.424	6.97
461.862	6.97
462.299	6.95
462.736	6.96
463.173	6.97
463.611	6.94
464.048	6.94
464.485	6.94
464.922	6.9
465.359	6.9
465.796	6.89
466.233	6.9
466.67	6.91
467.106	6.91
467.543	6.92
467.98	6.92
468.416	6.94
468.853	6.93
469.29	6.93
469.726	6.95
470.162	6.94
470.599	6.94
471.035	6.92
471.471	6.92
471.907	6.92
472.344	6.89
472.78	6.88
473.216	6.88
473.652	6.86
474.088	6.86
474.523	6.87
474.959	6.85
475.395	6.86
475.831	6.87
476.266	6.86
476.702	6.86
477.138	6.86
477.573	6.86
478.008	6.84
478.444	6.85
478.879	6.84
479.314	6.83
479.75	6.84
480.185	6.82
480.62	6.82
481.055	6.82
481.49	6.8
481.925	6.8
482.36	6.79
482.795	6.79
483.229	6.8
483.664	6.79
484.099	6.79
484.534	6.79
484.968	6.79
485.403	6.78
485.837	6.77
486.271	6.78
486.706	6.78
487.14	6.78
487.574	6.79
488.009	6.78
488.443	6.79
488.877	6.8
489.311	6.8
489.745	6.82
490.179	6.83
490.613	6.83
491.046	6.85
491.48	6.87
491.914	6.88
492.348	6.89
492.781	6.91
493.215	6.91
493.648	6.93
494.082	6.95
494.515	6.97
494.948	6.99
495.382	7.01
495.815	7.03
496.248	7.05
496.681	7.08
497.114	7.1
497.547	7.13
497.98	7.16
498.413	7.19
498.846	7.21
499.279	7.24
499.711	7.26
500.144	7.31
500.577	7.34
501.009	7.37
501.442	7.42
501.874	7.46
502.306	7.5
502.739	7.55
503.171	7.6
503.603	7.66
504.036	7.72
504.468	7.8
504.9	7.87
505.332	7.95
505.764	8.03
506.196	8.1
506.627	8.18
507.059	8.27
507.491	8.35
507.923	8.45
508.354	8.54
508.786	8.64
509.217	8.72
509.649	8.81
510.08	8.92
510.512	9.01
510.943	9.13
511.374	9.25
511.805	9.36
512.237	9.48
512.668	9.61
513.099	9.73
513.53	9.86
513.961	10.01
514.391	10.13
514.822	10.27
515.253	10.42
515.684	10.55
516.114	10.7
516.545	10.85
516.975	11.01
517.406	11.16
517.836	11.32
518.267	11.48
518.697	11.64
519.127	11.82
519.558	11.98
519.988	12.14
520.418	12.3
520.848	12.46
521.278	12.63
521.708	12.64
522.138	12.78
522.567	12.91
522.997	13.05
523.427	13.2
523.857	13.33
524.286	13.47
524.716	13.6
525.145	13.74
525.575	13.86
526.004	13.98
526.433	14.23
526.863	14.37
527.292	14.5
527.721	14.62
528.15	14.71
528.579	14.82
529.008	14.9
529.437	14.99
529.866	15.06
530.295	15.15
530.724	15.24
531.152	15.34
531.581	15.41
532.01	15.48
532.438	15.54
532.867	15.62
533.295	15.69
533.723	15.75
534.152	15.8
534.58	15.86
535.008	15.89
535.436	15.94
535.865	15.96
536.293	15.99
536.721	16.02
537.149	16.05
537.576	16.08
538.004	16.09
538.432	16.12
538.86	16.17
539.287	16.19
539.715	16.22
540.143	16.24
540.57	16.26
540.998	16.29
541.425	16.31
541.852	16.34
542.28	16.34
542.707	16.39
543.134	16.39
543.561	16.38
543.988	16.4
544.415	16.42
544.842	16.42
545.269	16.45
545.696	16.45
546.123	16.46
546.549	16.47
546.976	16.49
547.403	16.47
547.829	16.49
548.256	16.51
548.682	16.53
549.108	16.54
549.535	16.57
549.961	16.56
550.387	16.55
550.813	16.53
551.24	16.53
551.666	16.53
552.092	16.52
552.518	16.51
552.943	16.48
553.369	16.45
553.795	16.41
554.221	16.37
554.646	16.35
555.072	16.33
555.498	16.29
555.923	16.26
556.349	16.22
556.774	16.19
557.199	16.14
557.625	16.09
558.05	16.04
558.475	16.01
558.9	15.96
559.325	15.9
559.75	15.83
560.175	15.78
560.6	15.71
561.025	15.66
561.449	15.57
561.874	15.5
562.299	15.43
562.723	15.37
563.148	15.26
563.572	15.19
563.997	15.1
564.421	15.02
564.846	14.94
565.27	14.83
565.694	14.72
566.118	14.63
566.542	14.55
566.966	14.45
567.39	14.36
567.814	14.27
568.238	14.16
568.662	14.06
569.086	13.96
569.509	13.86
569.933	13.77
570.357	13.67
570.78	13.58
571.204	13.48
571.627	13.39
572.05	13.29
572.474	13.21
572.897	13.11
573.32	13.02
573.743	12.93
574.166	12.85
574.589	12.76
575.012	12.69
575.435	12.61
575.858	12.54
576.281	12.47
576.704	12.41
577.126	12.33
577.549	12.29
577.972	12.25
578.394	12.19
578.817	12.14
579.239	12.09
579.661	12.03
580.084	11.97
580.506	11.92
580.928	11.84
581.35	11.79
581.772	11.75
582.194	11.7
582.616	11.66
583.038	11.6
583.46	11.56
583.882	11.52
584.303	11.48
584.725	11.44
585.147	11.39
585.568	11.35
585.99	11.32
586.411	11.27
586.833	11.22
587.254	11.2
587.675	11.16
588.096	11.13
588.518	11.1
588.939	11.08
589.36	11.07
589.781	11.05
590.202	11.03
590.623	11.01
591.043	10.99
591.464	10.96
591.885	10.92
592.305	10.9
592.726	10.88
593.147	10.85
593.567	10.82
593.987	10.8
594.408	10.77
594.828	10.76
595.248	10.73
595.669	10.73
596.089	10.73
596.509	10.72
596.929	10.68
597.349	10.65
597.769	10.63
598.189	10.63
598.608	10.6
599.028	10.58
599.448	10.57
599.867	10.55
600.287	10.51
600.706	10.48
601.126	10.45
601.545	10.43
601.965	10.4
602.384	10.39
602.803	10.34
603.222	10.32
603.641	10.29
604.061	10.25
604.48	10.21
604.898	10.17
605.317	10.15
605.736	10.12
606.155	10.08
606.574	10.04
606.992	9.98
607.411	9.95
607.829	9.87
608.248	9.84
608.666	9.8
609.085	9.76
609.503	9.72
609.921	9.66
610.339	9.62
610.758	9.59
611.176	9.55
611.594	9.52
612.012	9.47
612.43	9.47
612.847	9.43
613.265	9.4
613.683	9.37
614.101	9.33
614.518	9.29
614.936	9.25
615.353	9.22
615.771	9.18
616.188	9.15
616.606	9.13
617.023	9.1
617.44	9.07
617.857	9.03
618.274	9
618.691	8.98
619.108	8.96
619.525	8.93
619.942	8.91
620.359	8.91
620.776	8.9
621.192	8.88
621.609	8.85
622.026	8.84
622.442	8.83
622.859	8.81
623.275	8.8
623.691	8.8
624.108	8.81
624.524	8.8
624.94	8.78
625.356	8.76
625.772	8.76
626.188	8.77
626.604	8.76
627.02	8.74
627.436	8.74
627.852	8.73
628.268	8.72
628.683	8.7
629.099	8.71
629.514	8.7
629.93	8.69
630.345	8.68
630.761	8.66
631.176	8.65
631.591	8.65
632.007	8.63
632.422	8.61
632.837	8.58
633.252	8.57
633.667	8.52
634.082	8.5
634.497	8.46
634.911	8.42
635.326	8.38
635.741	8.34
636.155	8.3
636.57	8.27
636.984	8.2
637.399	8.14
637.813	8.09
638.228	8.04
638.642	8
639.056	7.96
639.47	7.92
639.884	7.86
640.298	7.8
640.712	7.75
641.126	7.7
641.54	7.66
641.954	7.65
642.368	7.61
642.781	7.56
643.195	7.5
643.609	7.47
644.022	7.43
644.436	7.39
644.849	7.35
645.262	7.32
645.676	7.28
646.089	7.24
646.502	7.19
646.915	7.16
647.328	7.14
647.741	7.12
648.154	7.1
648.567	7.07
648.98	7.05
649.393	7.04
649.805	7.02
650.218	7.01
650.631	7
651.043	6.98
651.456	6.97
651.868	6.96
652.28	6.94
652.693	6.91
653.105	6.9
653.517	6.88
653.929	6.88
654.341	6.86
654.753	6.83
655.165	6.81
655.577	6.78
655.989	6.75
656.401	6.72
656.813	6.69
657.224	6.68
657.636	6.66
658.047	6.65
658.459	6.61
658.87	6.58
659.282	6.58
659.693	6.56
660.104	6.54
660.515	6.53
660.926	6.51
661.338	6.5
661.749	6.47
662.159	6.44
662.57	6.4
662.981	6.38
663.392	6.36
663.803	6.32
664.213	6.3
664.624	6.29
665.035	6.27
665.445	6.26
665.855	6.25
666.266	6.24
666.676	6.23
667.086	6.23
667.497	6.21
667.907	6.21
668.317	6.21
668.727	6.22
669.137	6.22
669.547	6.22
669.956	6.21
670.366	6.21
670.776	6.21
671.186	6.21
671.595	6.23
672.005	6.25
672.414	6.26
672.824	6.26
673.233	6.27
673.642	6.27
674.052	6.27
674.461	6.29
674.87	6.3
675.279	6.32
675.688	6.32
676.097	6.34
676.506	6.35
676.915	6.37
677.323	6.4
677.732	6.41
678.141	6.45
678.549	6.48
678.958	6.5
679.366	6.52
679.775	6.55
680.183	6.58
680.592	6.61
681	6.64
681.408	6.67
681.816	6.69
682.224	6.73
682.632	6.78
683.04	6.82
683.448	6.87
683.856	6.91
684.264	6.98
684.671	7.04
685.079	7.1
685.487	7.17
685.894	7.26
686.302	7.36
686.709	7.46
687.116	7.57
687.524	7.68
687.931	7.81
688.338	7.95
688.745	8.11
689.152	8.27
689.559	8.45
689.966	8.65
690.373	8.85
690.78	9.06
691.187	9.29
691.593	9.51
692	9.77
692.407	10.04
692.813	10.32
693.22	10.59
693.626	10.89
694.032	11.19
694.439	11.5
694.845	11.81
695.251	12.14
695.657	12.47
696.063	12.82
696.469	13.15
696.875	13.49
697.281	13.83
697.687	14.19
698.093	14.56
698.498	14.93
698.904	15.3
699.31	15.66
699.715	16.04
700.12	16.41
700.526	16.76
700.931	17.14
701.337	17.5
701.742	17.88
702.147	18.25
702.552	18.58
702.957	18.94
703.362	19.3
703.767	19.64
704.172	19.98
704.577	20.32
704.981	20.67
705.386	21
705.791	21.36
706.195	21.68
706.6	21.99
707.004	22.33
707.408	22.67
707.813	22.98
708.217	23.3
708.621	23.6
709.025	23.93
709.43	24.21
709.834	24.57
710.237	24.85
710.641	25.17
711.045	25.46
711.449	25.75
711.853	26.04
712.256	26.35
712.66	26.66
713.064	26.95
713.467	27.22
713.87	27.53
714.274	27.79
714.677	28.07
715.08	28.32
715.484	28.6
715.887	28.88
716.29	29.14
716.693	29.38
717.096	29.63
717.499	29.92
717.901	30.17
718.304	30.44
718.707	30.66
719.109	30.91
719.512	31.16
719.915	31.39
720.317	31.62
720.719	31.83
721.122	32.04
721.524	32.28
721.926	32.47
722.328	32.65
722.731	32.83
723.133	33.03
723.535	33.23
723.937	33.41
724.338	33.59
724.74	33.76
725.142	33.9
725.544	34.07
725.945	34.21
726.347	34.36
726.748	34.52
727.15	34.68
727.551	34.82
727.952	34.95
728.354	35.11
728.755	35.25
729.156	35.39
729.557	35.56
729.958	35.68
730.359	35.83
730.76	35.96
731.161	36.09
731.562	36.19
731.962	36.3
732.363	36.39
732.763	36.48
733.164	36.56
733.564	36.66
733.965	36.73
734.365	36.81
734.766	36.86
735.166	36.92
735.566	36.95
735.966	37.01
736.366	37.06
736.766	37.1
737.166	37.16
737.566	37.21
737.966	37.28
738.365	37.35
738.765	37.42
739.165	37.44
739.564	37.51
739.964	37.56
740.363	37.61
740.763	37.66
741.162	37.71
741.561	37.76
741.96	37.81
742.36	37.81
742.759	37.84
743.158	37.85
743.557	37.91
743.955	37.95
744.354	38
744.753	38.05
745.152	38.08
745.55	38.12
745.949	38.16
746.348	38.19
746.746	38.21
747.144	38.25
747.543	38.27
747.941	38.28
748.339	38.32
748.737	38.35
749.136	38.37
749.534	38.38
749.932	38.39
750.33	38.37
750.727	38.39
751.125	38.41
751.523	38.41
751.921	38.45
752.318	38.45
752.716	38.45
753.113	38.46
753.511	38.41
753.908	38.42
754.305	38.39
754.703	38.39
755.1	38.36
755.497	38.37
755.894	38.38
756.291	38.35
756.688	38.34
757.085	38.32
757.482	38.33
757.878	38.36
758.275	38.37
758.672	38.41
759.068	38.43
759.465	38.45
759.861	38.43
760.258	38.4
760.654	38.41
761.05	38.42
761.447	38.42
761.843	38.39
762.239	38.38
762.635	38.37
763.031	38.35
763.427	38.35
763.822	38.33
764.218	38.34
764.614	38.35
765.01	38.35
765.405	38.36
765.801	38.37
766.196	38.38
766.592	38.4
766.987	38.42
767.382	38.44
767.778	38.44
768.173	38.45
768.568	38.46
768.963	38.47
769.358	38.46
769.753	38.48
770.148	38.46
770.542	38.47
770.937	38.45
771.332	38.45
771.726	38.43
772.121	38.44
772.515	38.42
772.91	38.41
773.304	38.41
773.699	38.39
774.093	38.34
774.487	38.35
774.881	38.34
775.275	38.35
775.669	38.34
776.063	38.33
776.457	38.33
776.851	38.32
777.245	38.35
777.638	38.34
778.032	38.35
778.425	38.37
778.819	38.38
779.212	38.34
779.606	38.34
779.999	38.34
780.392	38.35
780.786	38.34
781.179	38.38
781.572	38.35
781.965	38.32
782.358	38.3
782.751	38.3
783.143	38.29
783.536	38.36
783.929	38.36
784.322	38.38
784.714	38.38
785.107	38.38
785.499	38.33
785.891	38.34
786.284	38.37
786.676	38.38
787.068	38.4
787.46	38.37
787.852	38.32
788.245	38.28
788.636	38.26
789.028	38.27
789.42	38.25
789.812	38.28
790.204	38.24
790.595	38.21
790.987	38.2
791.378	38.18
791.77	38.2
792.161	38.21
792.553	38.26
792.944	38.26
793.335	38.27
793.726	38.26
794.117	38.23
794.508	38.25
794.899	38.27
795.29	38.29
795.681	38.28
796.072	38.29
796.463	38.23
796.853	38.2
797.244	38.21
797.634	38.21
798.025	38.25
798.415	38.27
798.806	38.28
799.196	38.29
799.586	38.27
799.976	38.28
800.366	38.27
800.756	38.33
801.146	38.33
801.536	38.31
801.926	38.28
802.316	38.27
802.706	38.25
803.095	38.21
803.485	38.21
803.874	38.2
804.264	38.23
804.653	38.2
805.043	38.21
805.432	38.18
805.821	38.18
806.21	38.18
806.599	38.18
806.988	38.18
807.377	38.19
807.766	38.17
808.155	38.17
808.544	38.12
808.933	38.13
809.321	38.09
809.71	38.17
810.098	38.14
810.487	38.13
810.875	38.1
811.264	38.1
811.652	38.12
812.04	38.12
812.428	38.12
812.816	38.12
813.204	38.12
813.592	38.12
813.98	38.07
814.368	38.07
814.756	38.09
815.144	38.13
815.531	38.11
815.919	38.07
816.306	38.07
816.694	38.09
817.081	38.09
817.469	38.09
817.856	38.09
818.243	38.08
818.63	38.11
819.017	38.13
819.404	38.08
819.791	38.09
820.178	38.1
820.565	38.11
820.952	38.08
821.339	38.1
821.725	38.12
822.112	38.12
822.498	38.15
822.885	38.14
823.271	38.15
823.657	38.17
824.044	38.19
824.43	38.21
824.816	38.2
825.202	38.24
825.588	38.24
825.974	38.22
826.36	38.22
826.746	38.22
827.132	38.22
827.517	38.19
827.903	38.19
828.289	38.16
828.674	38.14
829.06	38.15
829.445	38.13
829.83	38.12
830.216	38.12
830.601	38.12
830.986	38.11
831.371	38.11
831.756	38.09
832.141	38.09
832.526	38.1
832.911	38.12
833.295	38.12
833.68	38.12
834.065	38.14
834.449	38.13
834.834	38.11
835.218	38.09
835.603	38.09
835.987	38.09
836.371	38.07
836.755	38.04
837.139	38.03
837.524	38.03
837.908	38.01
838.291	37.99
838.675	38
839.059	38.01
839.443	37.99
839.827	37.98
840.21	38
840.594	38.04
840.977	38.06
841.361	38.06
841.744	38.06
842.127	38.07
842.511	38.08
842.894	38.07
843.277	38.04
843.66	38.05
844.043	38.06
844.426	38.03
844.809	38
845.191	37.98
845.574	37.97
845.957	37.93
846.339	37.93
846.722	37.92
847.104	37.91
847.487	37.92
847.869	37.91
848.252	37.9
848.634	37.91
849.016	37.93
849.398	37.94
849.78	37.93
850.162	37.95
850.544	37.96
850.926	37.95
851.307	37.97
851.689	37.95
852.071	37.97
852.452	37.97
852.834	37.95
853.215	37.94
853.597	37.95
853.978	37.94
854.359	37.94
854.741	37.94
855.122	37.93
855.503	37.93
855.884	37.94
856.265	37.9
856.646	37.88
857.026	37.9
857.407	37.87
857.788	37.87
858.169	37.87
858.549	37.88
858.93	37.87
859.31	37.87
859.69	37.85
860.071	37.87
860.451	37.89
860.831	37.91
861.211	37.91
861.591	37.93
861.971	37.91
862.351	37.91
862.731	37.92
863.111	37.9
863.491	37.91
863.87	37.91
864.25	37.91
864.629	37.88
865.009	37.87
865.388	37.86
865.768	37.88
866.147	37.9
866.526	37.88
866.905	37.88
867.284	37.9
867.663	37.89
868.042	37.87
868.421	37.85
868.8	37.88
869.179	37.89
869.558	37.89
869.936	37.84
870.315	37.83
870.693	37.83
871.072	37.82
871.45	37.8
871.828	37.82
872.207	37.85
872.585	37.83
872.963	37.81
873.341	37.82
873.719	37.81
874.097	37.83
874.475	37.83
874.853	37.85
875.23	37.87
875.608	37.89
875.986	37.87
876.363	37.84
876.741	37.84
877.118	37.86
877.495	37.85
877.873	37.88
878.25	37.89
878.627	37.89
879.004	37.88
879.381	37.86
879.758	37.81
880.135	37.84
880.512	37.86
880.889	37.86
881.265	37.89
881.642	37.89
882.019	37.87
882.395	37.85
882.772	37.83
883.148	37.83
883.524	37.85
883.901	37.88
884.277	37.88
884.653	37.87
885.029	37.91
885.405	37.89
885.781	37.9
886.157	37.91
886.532	37.92
886.908	37.94
887.284	37.96
887.659	37.96
888.035	37.96
888.411	37.95
888.786	37.97
889.161	37.95
889.537	37.96
889.912	37.93
890.287	37.92
890.662	37.92
891.037	37.9
891.412	37.87
891.787	37.85
892.162	37.83
892.536	37.82
892.911	37.79
893.286	37.75
893.66	37.73
894.035	37.73
894.409	37.73
894.784	37.73
895.158	37.73
895.532	37.73
895.906	37.74
896.281	37.74
896.655	37.74
897.029	37.73
897.402	37.76
897.776	37.75
898.15	37.74
898.524	37.72
898.898	37.69
899.271	37.69
899.645	37.69
900.018	37.67
900.392	37.67
900.765	37.66
901.138	37.67
901.511	37.67
901.884	37.69
902.258	37.68
902.631	37.72
903.003	37.72
903.376	37.72
903.749	37.74
904.122	37.76
904.495	37.78
904.867	37.77
905.24	37.77
905.612	37.73
905.985	37.73
906.357	37.74
906.729	37.76
907.102	37.76
907.474	37.76
907.846	37.72
908.218	37.71
908.59	37.69
908.962	37.67
909.334	37.68
909.705	37.7
910.077	37.7
910.449	37.7
910.82	37.67
911.192	37.67
911.563	37.65
911.935	37.67
912.306	37.66
912.677	37.66
913.048	37.7
913.419	37.7
913.79	37.69
914.161	37.69
914.532	37.69
914.903	37.7
915.274	37.7
915.645	37.72
916.015	37.72
916.386	37.71
916.756	37.71
917.127	37.71
917.497	37.71
917.868	37.71
918.238	37.74
918.608	37.71
918.978	37.69
919.348	37.69
919.718	37.67
920.088	37.68
920.458	37.69
920.828	37.7
921.198	37.7
921.567	37.7
921.937	37.7
922.306	37.68
922.676	37.71
923.045	37.67
923.415	37.69
923.784	37.71
924.153	37.73
924.522	37.72
924.891	37.7
925.26	37.69
925.629	37.69
925.998	37.65
926.367	37.68
926.736	37.66
927.104	37.69
927.473	37.7
927.842	37.66
928.21	37.64
928.578	37.63
928.947	37.63
929.315	37.62
929.683	37.61
930.051	37.65
930.42	37.62
930.788	37.64
931.156	37.63
931.523	37.6
931.891	37.59
932.259	37.55
932.627	37.52
932.994	37.52
933.362	37.48
933.729	37.43
934.097	37.44
934.464	37.39
934.831	37.33
935.199	37.3
935.566	37.28
935.933	37.28
936.3	37.25
936.667	37.25
937.034	37.19
937.401	37.17
937.767	37.19
938.134	37.12
938.501	37.05
938.867	37.12
939.234	37.13
939.6	37.09
939.967	37.09
940.333	37.13
940.699	37.15
941.065	37.18
941.431	37.2
941.798	37.19
942.163	37.23
942.529	37.28
942.895	37.21
943.261	37.24
943.627	37.25
943.992	37.31
944.358	37.33
944.723	37.3
945.089	37.34
945.454	37.34
945.82	37.29
946.185	37.25
946.55	37.29
946.915	37.31
947.28	37.31
947.645	37.29
948.01	37.22
948.375	37.18
948.74	37.22
949.104	37.25
949.469	37.18
949.834	37.23
950.198	37.3
950.562	37.25
950.927	37.25
951.291	37.22
951.655	37.24
952.02	37.23
952.384	37.24
952.748	37.21
953.112	37.16
953.476	37.26
953.839	37.24
954.203	37.18
954.567	37.19
954.931	37.19
955.294	37.26
955.658	37.23
956.021	37.25
956.385	37.3
956.748	37.29
957.111	37.26
957.474	37.26
957.837	37.27
958.2	37.28
958.563	37.27
958.926	37.22
959.289	37.16
959.652	37.18
960.015	37.16
960.377	37.12
960.74	37.13
961.102	37.17
961.465	37.15
961.827	37.09
962.189	37.07
962.552	37.02
962.914	36.98
963.276	36.97
963.638	36.93
964	36.92
964.362	36.92
964.724	36.95
965.085	36.95
965.447	36.9
965.809	36.9
966.17	36.92
966.532	37.02
966.893	37.13
967.255	37.11
967.616	37.2
967.977	37.18
968.338	37.14
968.699	37.06
969.061	37.07
969.421	37.09
969.782	37.13
970.143	37.13
970.504	37.1
970.865	37.05
971.225	37.02
971.586	37.03
971.946	37.15
972.307	37.18
972.667	37.27
973.027	37.26
973.388	37.2
973.748	37.22
974.108	37.22
974.468	37.21
974.828	37.23
975.188	37.26
975.548	37.2
975.907	37.15
976.267	37.14
976.627	37.09
976.986	37.07
977.346	37.19
977.705	37.2
978.064	37.28
978.424	37.31
978.783	37.35
979.142	37.28
979.501	37.27
979.86	37.19
980.219	37.14
980.578	37.17
980.937	37.18
981.296	37.14
981.654	37.15
982.013	37.11
982.371	37.12
982.73	37.08
983.088	37.15
983.447	37.15
983.805	37.15
984.163	37.18
984.521	37.14
984.879	37.16
985.237	37.27
985.595	37.3
985.953	37.23
986.311	37.22
986.669	37.2
987.026	37.22
987.384	37.29
987.741	37.43
988.099	37.5
988.456	37.52
988.814	37.44
989.171	37.37
989.528	37.42
989.885	37.4
990.242	37.38
990.599	37.49
990.956	37.55
991.313	37.53
991.67	37.43
992.027	37.43
992.383	37.43
992.74	37.45
993.096	37.36
993.453	37.27
993.809	37.28
994.165	37.32
994.522	37.15
994.878	37.08
995.234	37.09
995.59	37.06
995.946	37
996.302	36.98
996.658	37.01
997.013	37.06
997.369	37
997.725	37.04
998.08	37.02
998.436	37.17
998.791	37.07
999.147	37.05
999.502	37.07
999.857	37.09
1000.212	37.07
1000.567	37.18
1000.922	37.15
1001.277	37.09
1001.632	37.02
1001.987	36.88
1002.342	36.8
1002.696	36.88
1003.051	36.79
1003.406	36.82
1003.76	36.89
1004.114	36.97
1004.469	36.83
1004.823	36.95
1005.177	37.18
1005.531	37.18
1005.885	37.28
1006.239	37.25
1006.593	37.23
1006.947	37.24
1007.301	37.19
1007.655	37.12
1008.008	37.09
1008.362	37.2
1008.715	37.1
1009.069	36.9
1009.422	36.83
1009.776	37.13
1010.129	37.15
1010.482	37.06
1010.835	37.21
1011.188	37.03
1011.541	36.87
1011.894	36.84
1012.247	36.69
1012.6	36.75
1012.952	36.76
1013.305	36.84
1013.657	36.45
1014.01	36.54
1014.362	36.75
1014.715	36.55
1015.067	36.86
1015.419	37.14
1015.771	37.32
1016.123	37.19
1016.475	37.2
1016.827	37.3
1017.179	37.39
1017.531	37.5
1017.883	37.17
1018.234	36.97
1018.586	37.1
1018.938	36.75
1019.289	36.36
1019.64	36.34
1019.992	36.48
1020.343	36.39
1020.694	36.17
1021.045	35.81
1021.396	35.8
1021.747	35.87
1022.098	35.9
1022.449	35.87
1022.8	35.99
1023.151	35.84
1023.501	35.43
1023.852	35.43
1024.202	35.54
1024.553	35.52
1024.903	35.95
1025.253	36.19
1025.604	36.46
1025.954	36.51
1026.304	36.89
1026.654	37.2
1027.004	37.41
1027.354	37.43
1027.703	37.06
1028.053	36.44
1028.403	36.73
1028.753	36.61
1029.102	36.18
1029.452	35.87
1029.801	35.78
1030.15	35.38
1030.499	35.02
897.758	511.51
901.051	524.95
904.343	529.81
907.636	522.12
910.928	510.31
914.22	518.5
917.511	504.84
920.803	484
924.094	463.89
927.384	469.81
930.675	452.84
933.965	449.88
937.255	444.64
940.544	424.41
943.834	403.95
947.123	400.21
950.411	378.97
953.7	372.93
956.988	359.5
960.276	344.41
963.563	340.64
966.851	321.49
970.138	316.58
973.424	294.55
976.711	291.2
979.997	282.15
983.283	274.45
986.568	266.15
989.853	258.48
993.138	249.24
996.423	245.52
999.708	235.8
1002.992	237.58
1006.275	229.23
1009.559	228.82
1012.842	222.01
1016.125	214.38
1019.408	209.34
1022.69	208.89
1025.972	206.66
1029.254	199.93
1032.536	197.01
1035.817	190.73
1039.098	187.7
1042.379	185.24
1045.659	181.7
1048.939	179.59
1052.219	177.87
1055.498	175.59
1058.778	171.19
1062.057	168.23
1065.335	168.26
1068.614	164.85
1071.892	162.83
1075.17	160.18
1078.447	157.4
1081.724	155.76
1085.001	153.23
1088.278	151.17
1091.554	151.34
1094.83	148.86
1098.106	146.52
1101.382	145.53
1104.657	144.99
1107.932	144.95
1111.206	143.47
1114.481	141.11
1117.755	140.51
1121.029	139.81
1124.302	137.95
1127.575	135.49
1130.848	135.81
1134.121	133.89
1137.393	133.81
1140.665	131.82
1143.937	130
1147.208	128.41
1150.48	128.04
1153.75	127.89
1157.021	125.81
1160.291	125.47
1163.561	124.35
1166.831	124.03
1170.101	124.28
1173.37	123.76
1176.639	122.73
1179.907	122.75
1183.176	122.63
1186.444	122.48
1189.711	121.06
1192.979	122.47
1196.246	123
1199.513	122.24
1202.78	122.02
1206.046	121.54
1209.312	121.88
1212.578	123.17
1215.843	124.46
1219.108	125.98
1222.373	128.21
1225.638	130.34
1228.902	132.85
1232.166	136.21
1235.43	139
1238.693	143.56
1241.956	146.6
1245.219	150.21
1248.482	150.99
1251.744	151.4
1255.006	151.26
1258.268	146.25
1261.529	145.52
1264.79	142.02
1268.051	138.3
1271.312	137.85
1274.572	134.47
1277.832	131.65
1281.092	130.45
1284.351	127.98
1287.61	127.77
1290.869	126.43
1294.128	126.96
1297.386	127.01
1300.644	125.77
1303.902	125.69
1307.159	125.12
1310.416	125.66
1313.673	127.27
1316.93	127.53
1320.186	129.32
1323.442	130.95
1326.697	134.87
1329.953	134.65
1333.208	138.13
1336.463	144.66
1339.717	147.89
1342.972	154.89
1346.226	159.32
1349.479	160.56
1352.733	167.87
1355.986	171.9
1359.238	175.11
1362.491	174.95
1365.743	185.23
1368.995	185.73
1372.247	185.82
1375.498	185.9
1378.749	191.37
1382	189.38
1385.251	190.29
1388.501	188.86
1391.751	191.5
1395	191.51
1398.25	193.37
1401.499	191.52
1404.748	192.18
1407.996	187.46
1411.244	187.98
1414.492	183.78
1417.74	180.9
1420.987	176.32
1424.234	172.77
1427.481	167.22
1430.728	161.34
1433.974	155.46
1437.22	150.51
1440.465	145.62
1443.711	141.86
1446.956	136.33
1450.201	131.84
1453.445	125.62
1456.689	122.27
1459.933	118.43
1463.177	113.06
1466.42	110.36
1469.663	107.68
1472.906	103.91
1476.148	100.98
1479.391	98.72
1482.633	97.65
1485.874	95.59
1489.115	94.77
1492.356	92.37
1495.597	90.94
1498.838	90.34
1502.078	89.87
1505.318	89.33
1508.557	88.28
1511.797	87.32
1515.036	86.92
1518.274	86.04
1521.513	84.83
1524.751	84.29
1527.989	84.63
1531.227	84.41
1534.464	83.7
1537.701	83.44
1540.938	82.83
1544.174	83.15
1547.41	83.43
1550.646	82.82
1553.882	83.01
1557.117	82.98
1560.352	82.82
1563.587	82.17
1566.821	82.13
1570.055	82.06
1573.289	81.69
1576.523	81.99
1579.756	81.42
1582.989	81
1586.222	81.16
1589.454	80.27
1592.686	79.73
1595.918	79.96
1599.15	79.84
1602.381	80.03
1605.612	79.89
1608.843	79.33
1612.073	79.96
1615.303	80.16
1618.533	79.65
1621.762	79.48
1624.992	80.61
1628.221	80.6
1631.449	81.06
1634.678	80.34
1637.906	80.08
1641.134	79.96
1644.361	80.58
1647.588	79.52
1650.815	79.92
1654.042	79.88
1657.269	80.58
1660.495	80.51
1663.72	80.79
1666.946	79.66
1670.171	80.87
1673.396	81.2
1676.621	81.88
1679.845	82
1683.069	82.17
1686.293	81.66
1689.517	82.43
1692.74	81.85
1695.963	82.12
1699.185	82.22
1702.408	83.11
1705.63	82.88
1708.852	83.28
1712.073	82.51
1715.294	82.48
1718.515	83.24
1721.736	83.94
1724.956	83.7
1728.176	83.66
1731.396	83.81
1734.616	84.27
1737.835	84.18
1741.054	84.16
1744.272	84.05
1747.491	84.71
1750.709	85.23
1753.927	85.12
1757.144	85.47
1760.361	85.34
1763.578	85.97
1766.795	86.46
1770.011	86.46
1773.227	87.01
1776.443	87.95
1779.658	87.86
1782.874	88.13
1786.089	87.8
1789.303	88.25
1792.518	89.14
1795.732	90.31
1798.945	91.26
1802.159	91.11
1805.372	92.32
1808.585	92.77
1811.797	93.08
1815.01	94.41
1818.222	95.22
1821.434	97.25
1824.645	97.54
1827.856	98.44
1831.067	98.62
1834.278	99.67
1837.488	100.59
1840.698	100.96
1843.908	101.25
1847.117	103.03
1850.326	103.77
1853.535	104.73
1856.744	104.95
1859.952	106.77
1863.16	106.84
1866.368	107.42
1869.575	107.57
1872.782	106.97
1875.989	106.8
1879.196	107.21
1882.402	105.23
1885.608	106.47
1888.814	106.14
1892.019	107.04
1895.224	105.41
1898.429	106.05
1901.634	106.52
1904.838	106.97
1908.042	108.29
1911.246	108.89
1914.449	109.44
1917.652	110.54
1920.855	109.9
1924.058	108.95
1927.26	108.42
1930.462	108.98
1933.664	108.51
1936.865	108.26
1940.066	108.06
1943.267	106.6
1946.467	107.74
1949.668	107.26
1952.868	107.17
1956.067	107.05
1959.267	109.26
1962.466	109.67
1965.665	109.86
1968.863	111.3
1972.061	111.23
1975.259	113.38
1978.457	114.84
1981.654	115.26
1984.852	116.35
1988.048	118.18
1991.245	119.92
1994.441	120.8
1997.637	123.17
2000.833	126.93
2004.028	127.81
2007.223	132.56
2010.418	134.55
2013.613	141.85
2016.807	145.09
2020.001	148.47
2023.194	152.85
2026.388	157.04
2029.581	164.86
2032.774	170.32
2035.966	175.25
2039.158	180.07
2042.35	182.72
2045.542	185.92
2048.733	191.12
2051.924	192.55
2055.115	195.53
2058.306	196.96
2061.496	202.31
2064.686	200.58
2067.875	201.5
2071.065	201.83
2074.254	203.21
2077.442	211.24
2080.631	211.35
2083.819	212.07
2087.007	219.16
2090.195	223.69
2093.382	222.48
2096.569	222.1
2099.756	228.41
2102.942	231.35
2106.128	237.2
2109.314	238.38
2112.5	235.88
2115.685	237.07
2118.87	237.38
2122.055	236.72
2125.239	239.67
2128.424	246.53
2131.608	245.05
2134.791	241.37
2137.974	243
2141.157	243.99
2144.34	245.74
2147.523	247.82
2150.705	253.87
2153.887	253.14
2157.068	254.63
2160.25	258.41
2163.431	258.26
2166.611	262.59
2169.792	271.24
2172.972	272.58
2176.152	276.36
2179.331	282.81
2182.511	284.65
2185.69	287.01
2188.868	299.22
2192.047	304.09
2195.225	308.1
2198.403	308.7
2201.58	307.67
2204.758	316.63
2207.935	321.76
2211.111	325.14
2214.288	325.55
2217.464	330.82
2220.64	334.71
2223.815	333.84
2226.991	329.63
2230.166	333.24
2233.34	346.66
2236.515	356.55
2239.689	349.22
2242.863	355.42
2246.036	351.95
2249.209	358.9
2252.382	360.31
2255.555	370
2258.727	372.11
2261.9	386.31
2265.071	390.31
2268.243	386.29
2271.414	396.25
2274.585	405.78
2277.756	406.99
2280.926	423.17
2284.096	424.26
2287.266	423.88
2290.436	418.5
2293.605	427.72
2296.774	443.11
2299.942	442.07
2303.111	456.23
2306.279	460.55
2309.447	466.81
2312.614	465.43
2315.781	477.62
2318.948	483.62
2322.115	495.6
2325.281	517.41
2328.447	514.27
2331.613	513.94
2334.779	524.47
2337.944	531.97
2341.109	544.46
2344.274	542.59
2347.438	566.65
2350.602	571.12
2353.766	611.61
2356.929	611.04
2360.092	621.81
2363.255	623.75
2366.418	634.86
2369.58	643.08
2372.742	640.26
2375.904	638.79
2379.066	659.53
2382.227	691.42
2385.388	692.45
2388.548	653.42
2391.709	651.98
2394.869	674.28
2398.029	674.45
2401.188	676.39
2404.347	693.34
2407.506	718.19
2410.665	695.82
2413.823	698.33
2416.981	696.33
2420.139	663.54
2423.296	716.81
2426.453	761.2
2429.61	719.95
2432.767	772.26
2435.923	799.16
2439.079	769.22
2442.235	792.29
2445.391	809.16
2448.546	807.2
2451.701	845.04
2454.855	901.18
2458.009	801.21
2461.163	808.84
2464.317	820.05
2467.471	801.69
2470.624	822.89
2473.777	821.4
2476.929	792.9
2480.082	846.07
2483.234	880.12
2486.385	896.02
2489.537	918.82
2492.688	1009.38
2495.839	993.96
2498.989	1026.07
2502.14	1032.4
2505.29	984.2
2508.439	1096.04
2511.589	1121.38
2514.738	1083.54
2517.887	1077.73
2521.035	1018.47
2524.183	993.77
2527.331	982.3
2530.479	963.31
2533.627	983.78
