Data from N_1_div_oh_2n_025_Splice17_20.txt Node
Date: Sat Feb 29 13:44:11 EST 2020
User: sa697716
Spectrometer: FLMS03696
Trigger mode: 0
Integration Time (sec): 3.180400E-1
Scans to average: 20
Electric dark correction enabled: true
Nonlinearity correction enabled: true
Boxcar width: 5
XAxis mode: Wavelengths
Number of Pixels in Spectrum: 2048
>>>>>Begin Spectral Data<<<<<
187.83	87.35
188.298	85.83
188.766	81.39
189.233	71.68
189.701	85.77
190.169	81.4
190.636	94.22
191.104	76.66
191.571	115.53
192.039	153.43
192.506	85.15
192.974	5814.35
193.441	-125.28
193.908	29.59
194.375	0.16
194.842	101.28
195.31	42.78
195.777	67.85
196.244	29.36
196.711	28.76
197.177	28.96
197.644	29.8
198.111	29.6
198.578	30.53
199.045	32.26
199.511	32.28
199.978	32.7
200.445	32.45
200.911	32.48
201.378	32.28
201.844	33
202.31	33.69
202.777	34.07
203.243	34.42
203.709	34.46
204.176	34
204.642	33.89
205.108	33.59
205.574	33.83
206.04	34.04
206.506	34.22
206.972	33.47
207.438	32.6
207.903	32.27
208.369	31.67
208.835	31.41
209.301	31.26
209.766	30.77
210.232	30.47
210.697	29.97
211.163	29.32
211.628	28.49
212.094	28.36
212.559	28.34
213.024	27.65
213.49	27.22
213.955	26.83
214.42	25.81
214.885	25.04
215.35	24.36
215.815	23.17
216.28	21.95
216.745	20.84
217.21	19.55
217.675	18.31
218.14	17.23
218.604	16.08
219.069	15.06
219.534	14.31
219.998	13.62
220.463	13.01
220.927	12.55
221.392	12.17
221.856	11.81
222.32	11.51
222.785	11.17
223.249	10.89
223.713	10.71
224.177	10.51
224.642	10.35
225.106	10.17
225.57	9.97
226.034	9.82
226.497	9.61
226.961	9.44
227.425	9.23
227.889	9.09
228.353	8.92
228.816	8.77
229.28	8.58
229.744	8.43
230.207	8.31
230.671	8.2
231.134	8.08
231.597	7.99
232.061	7.9
232.524	7.81
232.987	7.69
233.45	7.59
233.914	7.49
234.377	7.44
234.84	7.36
235.303	7.27
235.766	7.19
236.229	7.1
236.691	7.03
237.154	6.94
237.617	6.87
238.08	6.8
238.542	6.74
239.005	6.67
239.468	6.59
239.93	6.52
240.393	6.46
240.855	6.38
241.317	6.32
241.78	6.26
242.242	6.19
242.704	6.12
243.166	6.07
243.629	6.01
244.091	5.97
244.553	5.92
245.015	5.87
245.477	5.82
245.939	5.77
246.4	5.7
246.862	5.66
247.324	5.64
247.786	5.59
248.247	5.55
248.709	5.51
249.17	5.47
249.632	5.42
250.093	5.36
250.555	5.32
251.016	5.29
251.477	5.25
251.939	5.22
252.4	5.17
252.861	5.13
253.322	5.09
253.783	5.07
254.244	5.03
254.705	5
255.166	4.99
255.627	4.95
256.088	4.91
256.549	4.88
257.009	4.84
257.47	4.81
257.931	4.78
258.391	4.74
258.852	4.68
259.312	4.65
259.773	4.61
260.233	4.57
260.694	4.55
261.154	4.52
261.614	4.49
262.074	4.47
262.534	4.43
262.994	4.41
263.455	4.38
263.915	4.37
264.374	4.33
264.834	4.31
265.294	4.29
265.754	4.26
266.214	4.25
266.673	4.23
267.133	4.2
267.593	4.18
268.052	4.16
268.512	4.14
268.971	4.12
269.431	4.11
269.89	4.09
270.349	4.08
270.809	4.06
271.268	4.05
271.727	4.03
272.186	4.02
272.645	4.01
273.104	3.99
273.563	3.98
274.022	3.96
274.481	3.95
274.94	3.94
275.399	3.93
275.857	3.91
276.316	3.9
276.775	3.88
277.233	3.86
277.692	3.85
278.15	3.83
278.609	3.82
279.067	3.8
279.525	3.78
279.984	3.77
280.442	3.75
280.9	3.74
281.358	3.73
281.816	3.72
282.274	3.71
282.732	3.7
283.19	3.7
283.648	3.7
284.106	3.69
284.564	3.68
285.021	3.67
285.479	3.66
285.937	3.64
286.394	3.63
286.852	3.62
287.309	3.62
287.767	3.61
288.224	3.59
288.682	3.58
289.139	3.57
289.596	3.56
290.053	3.53
290.511	3.52
290.968	3.51
291.425	3.49
291.882	3.48
292.339	3.45
292.796	3.44
293.252	3.42
293.709	3.4
294.166	3.39
294.623	3.39
295.079	3.37
295.536	3.37
295.992	3.36
296.449	3.35
296.905	3.34
297.362	3.32
297.818	3.31
298.274	3.31
298.731	3.3
299.187	3.29
299.643	3.28
300.099	3.28
300.555	3.27
301.011	3.26
301.467	3.24
301.923	3.24
302.379	3.24
302.835	3.23
303.291	3.22
303.746	3.22
304.202	3.21
304.658	3.2
305.113	3.19
305.569	3.18
306.024	3.18
306.479	3.18
306.935	3.18
307.39	3.18
307.845	3.17
308.301	3.17
308.756	3.17
309.211	3.18
309.666	3.18
310.121	3.18
310.576	3.18
311.031	3.17
311.486	3.18
311.94	3.18
312.395	3.18
312.85	3.18
313.305	3.18
313.759	3.17
314.214	3.16
314.668	3.16
315.123	3.16
315.577	3.16
316.032	3.15
316.486	3.14
316.94	3.14
317.394	3.13
317.849	3.12
318.303	3.11
318.757	3.11
319.211	3.1
319.665	3.1
320.119	3.1
320.572	3.1
321.026	3.09
321.48	3.08
321.934	3.07
322.387	3.07
322.841	3.07
323.295	3.06
323.748	3.06
324.202	3.05
324.655	3.04
325.108	3.02
325.562	3.01
326.015	3.01
326.468	3
326.921	2.99
327.374	2.99
327.827	2.99
328.28	2.98
328.733	2.98
329.186	2.98
329.639	2.97
330.092	2.97
330.545	2.98
330.997	2.99
331.45	2.99
331.903	2.98
332.355	2.98
332.808	2.98
333.26	2.98
333.713	3
334.165	3
334.617	3
335.069	3
335.522	3
335.974	3
336.426	3.01
336.878	3.01
337.33	3
337.782	3
338.234	3
338.686	2.99
339.137	2.99
339.589	3
340.041	2.99
340.493	2.96
340.944	2.96
341.396	2.95
341.847	2.95
342.299	2.94
342.75	2.92
343.201	2.91
343.653	2.9
344.104	2.89
344.555	2.87
345.006	2.86
345.457	2.87
345.908	2.86
346.359	2.86
346.81	2.86
347.261	2.86
347.712	2.86
348.163	2.85
348.613	2.84
349.064	2.83
349.515	2.82
349.965	2.82
350.416	2.81
350.866	2.81
351.317	2.8
351.767	2.79
352.217	2.79
352.668	2.8
353.118	2.8
353.568	2.81
354.018	2.82
354.468	2.81
354.918	2.82
355.368	2.83
355.818	2.83
356.268	2.84
356.718	2.84
357.168	2.83
357.617	2.83
358.067	2.82
358.517	2.82
358.966	2.82
359.416	2.83
359.865	2.83
360.315	2.82
360.764	2.83
361.213	2.82
361.663	2.83
362.112	2.83
362.561	2.84
363.01	2.84
363.459	2.84
363.908	2.83
364.357	2.84
364.806	2.83
365.255	2.83
365.703	2.82
366.152	2.81
366.601	2.81
367.05	2.81
367.498	2.81
367.947	2.8
368.395	2.81
368.844	2.81
369.292	2.8
369.74	2.82
370.189	2.81
370.637	2.81
371.085	2.81
371.533	2.82
371.981	2.82
372.429	2.82
372.877	2.82
373.325	2.81
373.773	2.81
374.221	2.8
374.669	2.79
375.116	2.8
375.564	2.8
376.012	2.8
376.459	2.79
376.907	2.8
377.354	2.8
377.801	2.81
378.249	2.82
378.696	2.83
379.143	2.84
379.591	2.85
380.038	2.86
380.485	2.88
380.932	2.88
381.379	2.89
381.826	2.9
382.273	2.91
382.72	2.91
383.166	2.92
383.613	2.92
384.06	2.93
384.506	2.94
384.953	2.96
385.4	2.95
385.846	2.97
386.292	2.98
386.739	2.99
387.185	3.01
387.631	3.03
388.078	3.05
388.524	3.06
388.97	3.09
389.416	3.1
389.862	3.12
390.308	3.15
390.754	3.18
391.2	3.21
391.645	3.25
392.091	3.27
392.537	3.3
392.983	3.33
393.428	3.37
393.874	3.39
394.319	3.41
394.765	3.42
395.21	3.43
395.655	3.46
396.101	3.49
396.546	3.5
396.991	3.51
397.436	3.5
397.881	3.52
398.326	3.55
398.771	3.57
399.216	3.6
399.661	3.63
400.106	3.66
400.551	3.66
400.995	3.66
401.44	3.66
401.885	3.67
402.329	3.69
402.774	3.69
403.218	3.68
403.663	3.69
404.107	3.69
404.551	3.69
404.995	3.68
405.44	3.7
405.884	3.71
406.328	3.72
406.772	3.74
407.216	3.74
407.66	3.74
408.104	3.74
408.547	3.74
408.991	3.73
409.435	3.73
409.879	3.74
410.322	3.74
410.766	3.74
411.209	3.74
411.653	3.74
412.096	3.74
412.54	3.75
412.983	3.76
413.426	3.77
413.869	3.79
414.312	3.82
414.756	3.83
415.199	3.85
415.642	3.87
416.085	3.88
416.527	3.9
416.97	3.91
417.413	3.91
417.856	3.9
418.298	3.88
418.741	3.88
419.184	3.86
419.626	3.85
420.069	3.84
420.511	3.83
420.953	3.83
421.396	3.83
421.838	3.84
422.28	3.86
422.722	3.89
423.164	3.9
423.606	3.91
424.048	3.91
424.49	3.92
424.932	3.92
425.374	3.91
425.816	3.9
426.258	3.88
426.699	3.85
427.141	3.82
427.582	3.82
428.024	3.82
428.465	3.84
428.907	3.85
429.348	3.84
429.789	3.85
430.231	3.84
430.672	3.86
431.113	3.87
431.554	3.88
431.995	3.93
432.436	3.93
432.877	3.92
433.318	3.89
433.759	3.9
434.2	3.91
434.64	3.92
435.081	3.93
435.522	3.93
435.962	3.95
436.403	3.96
436.843	3.97
437.284	3.98
437.724	4.02
438.164	4.05
438.604	4.06
439.045	4.07
439.485	4.09
439.925	4.1
440.365	4.1
440.805	4.1
441.245	4.09
441.685	4.1
442.125	4.09
442.564	4.09
443.004	4.1
443.444	4.11
443.883	4.11
444.323	4.11
444.762	4.15
445.202	4.18
445.641	4.21
446.081	4.25
446.52	4.26
446.959	4.29
447.398	4.33
447.837	4.37
448.276	4.38
448.716	4.42
449.154	4.44
449.593	4.45
450.032	4.45
450.471	4.44
450.91	4.46
451.349	4.47
451.787	4.46
452.226	4.43
452.664	4.4
453.103	4.39
453.541	4.37
453.98	4.35
454.418	4.35
454.856	4.34
455.295	4.34
455.733	4.32
456.171	4.32
456.609	4.32
457.047	4.33
457.485	4.33
457.923	4.34
458.361	4.35
458.798	4.37
459.236	4.36
459.674	4.36
460.111	4.36
460.549	4.36
460.987	4.35
461.424	4.35
461.862	4.36
462.299	4.37
462.736	4.37
463.173	4.37
463.611	4.36
464.048	4.38
464.485	4.38
464.922	4.39
465.359	4.4
465.796	4.39
466.233	4.4
466.67	4.4
467.106	4.39
467.543	4.39
467.98	4.39
468.416	4.41
468.853	4.39
469.29	4.4
469.726	4.38
470.162	4.37
470.599	4.37
471.035	4.37
471.471	4.36
471.907	4.37
472.344	4.38
472.78	4.37
473.216	4.37
473.652	4.37
474.088	4.38
474.523	4.39
474.959	4.39
475.395	4.4
475.831	4.4
476.266	4.4
476.702	4.39
477.138	4.38
477.573	4.36
478.008	4.36
478.444	4.34
478.879	4.32
479.314	4.31
479.75	4.32
480.185	4.3
480.62	4.3
481.055	4.29
481.49	4.28
481.925	4.28
482.36	4.27
482.795	4.25
483.229	4.26
483.664	4.26
484.099	4.26
484.534	4.27
484.968	4.27
485.403	4.27
485.837	4.27
486.271	4.29
486.706	4.29
487.14	4.31
487.574	4.33
488.009	4.36
488.443	4.37
488.877	4.4
489.311	4.42
489.745	4.45
490.179	4.48
490.613	4.52
491.046	4.56
491.48	4.61
491.914	4.64
492.348	4.69
492.781	4.72
493.215	4.75
493.648	4.8
494.082	4.86
494.515	4.91
494.948	4.96
495.382	5.01
495.815	5.08
496.248	5.14
496.681	5.21
497.114	5.29
497.547	5.37
497.98	5.46
498.413	5.54
498.846	5.63
499.279	5.73
499.711	5.83
500.144	5.93
500.577	6.06
501.009	6.17
501.442	6.31
501.874	6.44
502.306	6.58
502.739	6.73
503.171	6.89
503.603	7.06
504.036	7.22
504.468	7.41
504.9	7.6
505.332	7.78
505.764	7.98
506.196	8.19
506.627	8.4
507.059	8.63
507.491	8.86
507.923	9.1
508.354	9.34
508.786	9.58
509.217	9.83
509.649	10.1
510.08	10.39
510.512	10.66
510.943	10.96
511.374	11.25
511.805	11.54
512.237	11.85
512.668	12.16
513.099	12.49
513.53	12.82
513.961	13.16
514.391	13.46
514.822	13.8
515.253	14.12
515.684	14.45
516.114	14.8
516.545	15.15
516.975	15.5
517.406	15.86
517.836	16.2
518.267	16.56
518.697	16.92
519.127	17.29
519.558	17.63
519.988	17.98
520.418	18.32
520.848	18.65
521.278	19
521.708	19.19
522.138	19.48
522.567	19.78
522.997	20.07
523.427	20.35
523.857	20.64
524.286	20.93
524.716	21.18
525.145	21.43
525.575	21.68
526.004	21.9
526.433	22.26
526.863	22.53
527.292	22.76
527.721	22.97
528.15	23.16
528.579	23.34
529.008	23.52
529.437	23.72
529.866	23.89
530.295	24.05
530.724	24.21
531.152	24.35
531.581	24.47
532.01	24.6
532.438	24.74
532.867	24.86
533.295	24.98
533.723	25.1
534.152	25.2
534.58	25.3
535.008	25.38
535.436	25.47
535.865	25.55
536.293	25.65
536.721	25.7
537.149	25.76
537.576	25.84
538.004	25.89
538.432	25.94
538.86	25.99
539.287	26.04
539.715	26.11
540.143	26.15
540.57	26.19
540.998	26.22
541.425	26.27
541.852	26.31
542.28	26.33
542.707	26.38
543.134	26.43
543.561	26.43
543.988	26.46
544.415	26.48
544.842	26.5
545.269	26.54
545.696	26.57
546.123	26.59
546.549	26.62
546.976	26.65
547.403	26.66
547.829	26.67
548.256	26.72
548.682	26.74
549.108	26.76
549.535	26.78
549.961	26.8
550.387	26.8
550.813	26.8
551.24	26.8
551.666	26.81
552.092	26.81
552.518	26.79
552.943	26.78
553.369	26.75
553.795	26.71
554.221	26.67
554.646	26.65
555.072	26.6
555.498	26.56
555.923	26.52
556.349	26.45
556.774	26.38
557.199	26.33
557.625	26.25
558.05	26.17
558.475	26.09
558.9	26.02
559.325	25.91
559.75	25.83
560.175	25.71
560.6	25.59
561.025	25.48
561.449	25.36
561.874	25.24
562.299	25.13
562.723	25.01
563.148	24.88
563.572	24.74
563.997	24.6
564.421	24.43
564.846	24.29
565.27	24.14
565.694	23.97
566.118	23.8
566.542	23.64
566.966	23.45
567.39	23.27
567.814	23.09
568.238	22.92
568.662	22.75
569.086	22.59
569.509	22.41
569.933	22.23
570.357	22.05
570.78	21.89
571.204	21.7
571.627	21.55
572.05	21.39
572.474	21.22
572.897	21.07
573.32	20.89
573.743	20.74
574.166	20.58
574.589	20.42
575.012	20.3
575.435	20.17
575.858	20.03
576.281	19.9
576.704	19.77
577.126	19.64
577.549	19.51
577.972	19.41
578.394	19.28
578.817	19.15
579.239	19.06
579.661	18.95
580.084	18.85
580.506	18.76
580.928	18.66
581.35	18.56
581.772	18.49
582.194	18.4
582.616	18.33
583.038	18.24
583.46	18.17
583.882	18.09
584.303	18.02
584.725	17.93
585.147	17.83
585.568	17.74
585.99	17.68
586.411	17.6
586.833	17.53
587.254	17.45
587.675	17.4
588.096	17.36
588.518	17.28
588.939	17.22
589.36	17.18
589.781	17.14
590.202	17.09
590.623	17.03
591.043	16.98
591.464	16.93
591.885	16.89
592.305	16.86
592.726	16.81
593.147	16.78
593.567	16.72
593.987	16.7
594.408	16.67
594.828	16.62
595.248	16.61
595.669	16.58
596.089	16.56
596.509	16.49
596.929	16.44
597.349	16.39
597.769	16.34
598.189	16.32
598.608	16.27
599.028	16.22
599.448	16.19
599.867	16.13
600.287	16.08
600.706	16.03
601.126	15.99
601.545	15.96
601.965	15.92
602.384	15.89
602.803	15.81
603.222	15.74
603.641	15.7
604.061	15.65
604.48	15.58
604.898	15.52
605.317	15.43
605.736	15.36
606.155	15.28
606.574	15.2
606.992	15.1
607.411	15.03
607.829	14.91
608.248	14.82
608.666	14.72
609.085	14.63
609.503	14.54
609.921	14.46
610.339	14.37
610.758	14.27
611.176	14.16
611.594	14.08
612.012	13.98
612.43	13.94
612.847	13.86
613.265	13.78
613.683	13.69
614.101	13.6
614.518	13.52
614.936	13.45
615.353	13.38
615.771	13.31
616.188	13.23
616.606	13.17
617.023	13.09
617.44	13.02
617.857	12.94
618.274	12.88
618.691	12.84
619.108	12.8
619.525	12.74
619.942	12.7
620.359	12.65
620.776	12.62
621.192	12.6
621.609	12.56
622.026	12.54
622.442	12.51
622.859	12.49
623.275	12.48
623.691	12.45
624.108	12.45
624.524	12.42
624.94	12.41
625.356	12.4
625.772	12.39
626.188	12.39
626.604	12.35
627.02	12.33
627.436	12.32
627.852	12.3
628.268	12.29
628.683	12.27
629.099	12.25
629.514	12.22
629.93	12.17
630.345	12.14
630.761	12.1
631.176	12.08
631.591	12.05
632.007	11.99
632.422	11.93
632.837	11.85
633.252	11.78
633.667	11.69
634.082	11.61
634.497	11.53
634.911	11.42
635.326	11.31
635.741	11.19
636.155	11.08
636.57	10.95
636.984	10.81
637.399	10.66
637.813	10.51
638.228	10.36
638.642	10.21
639.056	10.06
639.47	9.92
639.884	9.75
640.298	9.58
640.712	9.4
641.126	9.25
641.54	9.1
641.954	8.97
642.368	8.83
642.781	8.69
643.195	8.54
643.609	8.41
644.022	8.27
644.436	8.15
644.849	8.04
645.262	7.94
645.676	7.84
646.089	7.74
646.502	7.63
646.915	7.54
647.328	7.47
647.741	7.39
648.154	7.32
648.567	7.27
648.98	7.22
649.393	7.18
649.805	7.12
650.218	7.08
650.631	7.03
651.043	7
651.456	6.98
651.868	6.93
652.28	6.9
652.693	6.84
653.105	6.8
653.517	6.74
653.929	6.69
654.341	6.65
654.753	6.59
655.165	6.54
655.577	6.46
655.989	6.38
656.401	6.33
656.813	6.25
657.224	6.19
657.636	6.13
658.047	6.06
658.459	5.97
658.87	5.88
659.282	5.81
659.693	5.73
660.104	5.66
660.515	5.58
660.926	5.51
661.338	5.43
661.749	5.34
662.159	5.27
662.57	5.21
662.981	5.14
663.392	5.08
663.803	5.03
664.213	4.97
664.624	4.92
665.035	4.88
665.445	4.84
665.855	4.82
666.266	4.79
666.676	4.76
667.086	4.73
667.497	4.71
667.907	4.69
668.317	4.67
668.727	4.65
669.137	4.64
669.547	4.65
669.956	4.64
670.366	4.63
670.776	4.63
671.186	4.63
671.595	4.65
672.005	4.67
672.414	4.69
672.824	4.71
673.233	4.73
673.642	4.74
674.052	4.76
674.461	4.78
674.87	4.81
675.279	4.84
675.688	4.86
676.097	4.9
676.506	4.93
676.915	4.96
677.323	5.01
677.732	5.07
678.141	5.13
678.549	5.18
678.958	5.25
679.366	5.31
679.775	5.38
680.183	5.46
680.592	5.53
681	5.62
681.408	5.72
681.816	5.81
682.224	5.92
682.632	6.05
683.04	6.19
683.448	6.33
683.856	6.52
684.264	6.71
684.671	6.94
685.079	7.19
685.487	7.45
685.894	7.75
686.302	8.07
686.709	8.42
687.116	8.82
687.524	9.24
687.931	9.7
688.338	10.19
688.745	10.73
689.152	11.26
689.559	11.84
689.966	12.45
690.373	13.11
690.78	13.77
691.187	14.46
691.593	15.16
692	15.91
692.407	16.66
692.813	17.42
693.22	18.18
693.626	18.95
694.032	19.75
694.439	20.57
694.845	21.38
695.251	22.19
695.657	23
696.063	23.8
696.469	24.58
696.875	25.37
697.281	26.14
697.687	26.94
698.093	27.72
698.498	28.48
698.904	29.22
699.31	29.94
699.715	30.68
700.12	31.39
700.526	32.1
700.931	32.77
701.337	33.43
701.742	34.07
702.147	34.7
702.552	35.34
702.957	35.94
703.362	36.54
703.767	37.14
704.172	37.7
704.577	38.26
704.981	38.83
705.386	39.39
705.791	39.96
706.195	40.51
706.6	41.03
707.004	41.58
707.408	42.1
707.813	42.61
708.217	43.08
708.621	43.58
709.025	44.09
709.43	44.54
709.834	45.01
710.237	45.46
710.641	45.94
711.045	46.35
711.449	46.77
711.853	47.18
712.256	47.59
712.66	48
713.064	48.4
713.467	48.75
713.87	49.13
714.274	49.48
714.677	49.84
715.08	50.16
715.484	50.53
715.887	50.88
716.29	51.2
716.693	51.52
717.096	51.85
717.499	52.15
717.901	52.48
718.304	52.77
718.707	53.08
719.109	53.36
719.512	53.68
719.915	53.95
720.317	54.21
720.719	54.47
721.122	54.73
721.524	55.01
721.926	55.25
722.328	55.47
722.731	55.75
723.133	55.95
723.535	56.17
723.937	56.35
724.338	56.53
724.74	56.71
725.142	56.83
725.544	57.01
725.945	57.15
726.347	57.35
726.748	57.48
727.15	57.6
727.551	57.75
727.952	57.92
728.354	58.08
728.755	58.24
729.156	58.39
729.557	58.59
729.958	58.73
730.359	58.84
730.76	58.93
731.161	59.05
731.562	59.18
731.962	59.32
732.363	59.4
732.763	59.47
733.164	59.54
733.564	59.58
733.965	59.67
734.365	59.73
734.766	59.83
735.166	59.9
735.566	59.93
735.966	59.97
736.366	60.01
736.766	60.07
737.166	60.18
737.566	60.22
737.966	60.32
738.365	60.39
738.765	60.47
739.165	60.48
739.564	60.51
739.964	60.56
740.363	60.64
740.763	60.68
741.162	60.68
741.561	60.71
741.96	60.81
742.36	60.84
742.759	60.86
743.158	60.84
743.557	60.9
743.955	60.98
744.354	61.04
744.753	61.07
745.152	61.1
745.55	61.18
745.949	61.18
746.348	61.2
746.746	61.21
747.144	61.26
747.543	61.33
747.941	61.37
748.339	61.42
748.737	61.48
749.136	61.5
749.534	61.56
749.932	61.57
750.33	61.6
750.727	61.61
751.125	61.63
751.523	61.6
751.921	61.61
752.318	61.66
752.716	61.64
753.113	61.61
753.511	61.59
753.908	61.55
754.305	61.53
754.703	61.49
755.1	61.46
755.497	61.43
755.894	61.42
756.291	61.37
756.688	61.31
757.085	61.27
757.482	61.25
757.878	61.26
758.275	61.25
758.672	61.28
759.068	61.28
759.465	61.27
759.861	61.24
760.258	61.21
760.654	61.22
761.05	61.23
761.447	61.22
761.843	61.2
762.239	61.17
762.635	61.14
763.031	61.15
763.427	61.15
763.822	61.14
764.218	61.16
764.614	61.19
765.01	61.23
765.405	61.24
765.801	61.27
766.196	61.3
766.592	61.32
766.987	61.39
767.382	61.39
767.778	61.41
768.173	61.44
768.568	61.44
768.963	61.44
769.358	61.4
769.753	61.41
770.148	61.4
770.542	61.35
770.937	61.35
771.332	61.3
771.726	61.26
772.121	61.22
772.515	61.24
772.91	61.26
773.304	61.26
773.699	61.26
774.093	61.2
774.487	61.18
774.881	61.21
775.275	61.24
775.669	61.22
776.063	61.21
776.457	61.22
776.851	61.17
777.245	61.18
777.638	61.2
778.032	61.2
778.425	61.26
778.819	61.27
779.212	61.25
779.606	61.23
779.999	61.22
780.392	61.22
780.786	61.2
781.179	61.24
781.572	61.21
781.965	61.2
782.358	61.15
782.751	61.12
783.143	61.12
783.536	61.14
783.929	61.15
784.322	61.17
784.714	61.19
785.107	61.22
785.499	61.19
785.891	61.18
786.284	61.16
786.676	61.19
787.068	61.16
787.46	61.14
787.852	61.16
788.245	61.13
788.636	61.14
789.028	61.1
789.42	61.06
789.812	61.08
790.204	61.03
790.595	61.01
790.987	61
791.378	61
791.77	60.99
792.161	60.94
792.553	60.95
792.944	60.92
793.335	60.98
793.726	60.97
794.117	60.96
794.508	61.03
794.899	61.01
795.29	61.02
795.681	61.03
796.072	61.04
796.463	61.02
796.853	61.04
797.244	61.05
797.634	61.01
798.025	61.04
798.415	61.05
798.806	61.04
799.196	61.07
799.586	61.1
799.976	61.12
800.366	61.14
800.756	61.18
801.146	61.15
801.536	61.16
801.926	61.16
802.316	61.19
802.706	61.2
803.095	61.2
803.485	61.19
803.874	61.17
804.264	61.21
804.653	61.19
805.043	61.2
805.432	61.18
805.821	61.15
806.21	61.21
806.599	61.21
806.988	61.19
807.377	61.22
807.766	61.25
808.155	61.28
808.544	61.26
808.933	61.28
809.321	61.33
809.71	61.39
810.098	61.42
810.487	61.4
810.875	61.41
811.264	61.42
811.652	61.44
812.04	61.43
812.428	61.46
812.816	61.47
813.204	61.45
813.592	61.44
813.98	61.43
814.368	61.45
814.756	61.46
815.144	61.47
815.531	61.48
815.919	61.44
816.306	61.45
816.694	61.44
817.081	61.4
817.469	61.45
817.856	61.49
818.243	61.51
818.63	61.53
819.017	61.54
819.404	61.52
819.791	61.52
820.178	61.54
820.565	61.54
820.952	61.52
821.339	61.56
821.725	61.57
822.112	61.56
822.498	61.55
822.885	61.53
823.271	61.57
823.657	61.57
824.044	61.57
824.43	61.57
824.816	61.58
825.202	61.6
825.588	61.59
825.974	61.59
826.36	61.58
826.746	61.6
827.132	61.55
827.517	61.53
827.903	61.53
828.289	61.53
828.674	61.54
829.06	61.54
829.445	61.57
829.83	61.57
830.216	61.56
830.601	61.57
830.986	61.58
831.371	61.65
831.756	61.62
832.141	61.63
832.526	61.62
832.911	61.63
833.295	61.64
833.68	61.64
834.065	61.68
834.449	61.68
834.834	61.67
835.218	61.65
835.603	61.65
835.987	61.65
836.371	61.7
836.755	61.7
837.139	61.69
837.524	61.71
837.908	61.69
838.291	61.66
838.675	61.68
839.059	61.67
839.443	61.67
839.827	61.66
840.21	61.69
840.594	61.67
840.977	61.68
841.361	61.7
841.744	61.7
842.127	61.71
842.511	61.67
842.894	61.64
843.277	61.64
843.66	61.62
844.043	61.62
844.426	61.59
844.809	61.57
845.191	61.57
845.574	61.56
845.957	61.52
846.339	61.49
846.722	61.52
847.104	61.56
847.487	61.59
847.869	61.62
848.252	61.61
848.634	61.63
849.016	61.63
849.398	61.63
849.78	61.63
850.162	61.64
850.544	61.66
850.926	61.62
851.307	61.6
851.689	61.57
852.071	61.55
852.452	61.55
852.834	61.51
853.215	61.52
853.597	61.52
853.978	61.5
854.359	61.5
854.741	61.5
855.122	61.54
855.503	61.52
855.884	61.47
856.265	61.48
856.646	61.45
857.026	61.48
857.407	61.45
857.788	61.45
858.169	61.46
858.549	61.47
858.93	61.44
859.31	61.43
859.69	61.41
860.071	61.45
860.451	61.45
860.831	61.45
861.211	61.41
861.591	61.41
861.971	61.39
862.351	61.39
862.731	61.38
863.111	61.4
863.491	61.41
863.87	61.41
864.25	61.41
864.629	61.37
865.009	61.38
865.388	61.39
865.768	61.38
866.147	61.4
866.526	61.39
866.905	61.4
867.284	61.38
867.663	61.36
868.042	61.34
868.421	61.33
868.8	61.35
869.179	61.36
869.558	61.36
869.936	61.37
870.315	61.35
870.693	61.37
871.072	61.37
871.45	61.37
871.828	61.37
872.207	61.38
872.585	61.39
872.963	61.35
873.341	61.36
873.719	61.35
874.097	61.35
874.475	61.38
874.853	61.36
875.23	61.34
875.608	61.35
875.986	61.35
876.363	61.34
876.741	61.31
877.118	61.35
877.495	61.3
877.873	61.31
878.25	61.32
878.627	61.29
879.004	61.3
879.381	61.29
879.758	61.27
880.135	61.26
880.512	61.26
880.889	61.28
881.265	61.29
881.642	61.29
882.019	61.27
882.395	61.27
882.772	61.28
883.148	61.3
883.524	61.29
883.901	61.31
884.277	61.33
884.653	61.37
885.029	61.39
885.405	61.38
885.781	61.39
886.157	61.4
886.532	61.39
886.908	61.42
887.284	61.42
887.659	61.44
888.035	61.44
888.411	61.42
888.786	61.39
889.161	61.36
889.537	61.37
889.912	61.36
890.287	61.33
890.662	61.35
891.037	61.29
891.412	61.26
891.787	61.25
892.162	61.23
892.536	61.22
892.911	61.19
893.286	61.14
893.66	61.14
894.035	61.11
894.409	61.1
894.784	61.07
895.158	61.07
895.532	61.05
895.906	61.04
896.281	61.01
896.655	61.01
897.029	60.99
897.402	61
897.776	60.94
898.15	60.95
898.524	60.92
898.898	60.88
899.271	60.87
899.645	60.89
900.018	60.86
900.392	60.89
900.765	60.9
901.138	60.95
901.511	60.93
901.884	60.96
902.258	60.96
902.631	61
903.003	61.01
903.376	61
903.749	61.02
904.122	61.04
904.495	61
904.867	60.94
905.24	60.9
905.612	60.9
905.985	60.89
906.357	60.85
906.729	60.78
907.102	60.77
907.474	60.76
907.846	60.67
908.218	60.6
908.59	60.53
908.962	60.53
909.334	60.48
909.705	60.46
910.077	60.41
910.449	60.42
910.82	60.41
911.192	60.4
911.563	60.38
911.935	60.37
912.306	60.4
912.677	60.46
913.048	60.45
913.419	60.45
913.79	60.43
914.161	60.41
914.532	60.41
914.903	60.41
915.274	60.39
915.645	60.38
916.015	60.38
916.386	60.35
916.756	60.34
917.127	60.31
917.497	60.3
917.868	60.3
918.238	60.34
918.608	60.35
918.978	60.34
919.348	60.29
919.718	60.28
920.088	60.25
920.458	60.26
920.828	60.24
921.198	60.29
921.567	60.24
921.937	60.24
922.306	60.21
922.676	60.14
923.045	60.17
923.415	60.19
923.784	60.18
924.153	60.2
924.522	60.16
924.891	60.13
925.26	60.06
925.629	60.1
925.998	60.08
926.367	60.07
926.736	60.04
927.104	60.01
927.473	59.99
927.842	59.96
928.21	59.96
928.578	59.94
928.947	59.93
929.315	59.95
929.683	59.94
930.051	59.93
930.42	59.9
930.788	59.91
931.156	59.85
931.523	59.87
931.891	59.82
932.259	59.76
932.627	59.68
932.994	59.6
933.362	59.47
933.729	59.34
934.097	59.29
934.464	59.26
934.831	59.19
935.199	59.14
935.566	58.97
935.933	58.94
936.3	58.83
936.667	58.81
937.034	58.77
937.401	58.77
937.767	58.72
938.134	58.65
938.501	58.56
938.867	58.49
939.234	58.49
939.6	58.5
939.967	58.47
940.333	58.52
940.699	58.6
941.065	58.68
941.431	58.8
941.798	58.89
942.163	58.97
942.529	59
942.895	59.11
943.261	59.15
943.627	59.19
943.992	59.28
944.358	59.31
944.723	59.31
945.089	59.39
945.454	59.34
945.82	59.37
946.185	59.38
946.55	59.55
946.915	59.54
947.28	59.52
947.645	59.59
948.01	59.59
948.375	59.59
948.74	59.51
949.104	59.5
949.469	59.44
949.834	59.34
950.198	59.26
950.562	59.07
950.927	59.05
951.291	58.98
951.655	59.01
952.02	58.92
952.384	59.01
952.748	58.99
953.112	58.91
953.476	58.92
953.839	58.98
954.203	58.92
954.567	58.88
954.931	58.88
955.294	58.88
955.658	58.77
956.021	58.79
956.385	58.65
956.748	58.66
957.111	58.6
957.474	58.59
957.837	58.58
958.2	58.55
958.563	58.56
958.926	58.47
959.289	58.5
959.652	58.57
960.015	58.5
960.377	58.5
960.74	58.45
961.102	58.42
961.465	58.4
961.827	58.26
962.189	58.24
962.552	58.2
962.914	58.17
963.276	58.11
963.638	58.03
964	58
964.362	57.97
964.724	57.94
965.085	58
965.447	57.89
965.809	57.87
966.17	57.89
966.532	57.94
966.893	57.93
967.255	57.86
967.616	57.81
967.977	57.82
968.338	57.78
968.699	57.78
969.061	57.67
969.421	57.69
969.782	57.71
970.143	57.71
970.504	57.7
970.865	57.68
971.225	57.65
971.586	57.65
971.946	57.61
972.307	57.62
972.667	57.65
973.027	57.71
973.388	57.69
973.748	57.78
974.108	57.71
974.468	57.7
974.828	57.77
975.188	57.77
975.548	57.79
975.907	57.85
976.267	57.83
976.627	57.75
976.986	57.72
977.346	57.69
977.705	57.6
978.064	57.64
978.424	57.58
978.783	57.56
979.142	57.55
979.501	57.47
979.86	57.43
980.219	57.31
980.578	57.36
980.937	57.41
981.296	57.42
981.654	57.43
982.013	57.32
982.371	57.23
982.73	57.12
983.088	57.17
983.447	57.19
983.805	57.15
984.163	57.18
984.521	57.05
984.879	57.07
985.237	57.16
985.595	57.19
985.953	57.18
986.311	57.31
986.669	57.49
987.026	57.41
987.384	57.41
987.741	57.42
988.099	57.54
988.456	57.51
988.814	57.42
989.171	57.23
989.528	57.13
989.885	57.17
990.242	57.11
990.599	56.9
990.956	56.92
991.313	56.87
991.67	56.94
992.027	56.78
992.383	56.86
992.74	56.74
993.096	56.78
993.453	56.71
993.809	56.67
994.165	56.7
994.522	56.67
994.878	56.65
995.234	56.67
995.59	56.51
995.946	56.46
996.302	56.43
996.658	56.52
997.013	56.58
997.369	56.72
997.725	56.84
998.08	56.72
998.436	56.72
998.791	56.75
999.147	56.63
999.502	56.59
999.857	56.68
1000.212	56.61
1000.567	56.56
1000.922	56.43
1001.277	56.18
1001.632	56.11
1001.987	56.16
1002.342	56.2
1002.696	56.18
1003.051	56.1
1003.406	56.07
1003.76	56.01
1004.114	56.09
1004.469	56.01
1004.823	56.08
1005.177	56.33
1005.531	56.29
1005.885	56.2
1006.239	56.1
1006.593	55.92
1006.947	55.96
1007.301	55.93
1007.655	56.03
1008.008	55.81
1008.362	55.72
1008.715	55.81
1009.069	55.52
1009.422	55.25
1009.776	55.26
1010.129	55.19
1010.482	55.38
1010.835	55.5
1011.188	55.5
1011.541	55.21
1011.894	55.3
1012.247	55.49
1012.6	55.22
1012.952	55.26
1013.305	55.34
1013.657	55.09
1014.01	55.42
1014.362	55.5
1014.715	55.25
1015.067	55.37
1015.419	55.52
1015.771	55.72
1016.123	55.72
1016.475	55.92
1016.827	56.16
1017.179	56.31
1017.531	56.48
1017.883	56.22
1018.234	55.98
1018.586	56.03
1018.938	55.76
1019.289	55.62
1019.64	55.44
1019.992	55.16
1020.343	54.88
1020.694	54.83
1021.045	54.8
1021.396	54.77
1021.747	54.81
1022.098	54.77
1022.449	54.85
1022.8	54.93
1023.151	55
1023.501	55.1
1023.852	55.03
1024.202	55.03
1024.553	54.82
1024.903	54.66
1025.253	54.81
1025.604	54.77
1025.954	54.51
1026.304	54.84
1026.654	55.07
1027.004	55.17
1027.354	54.96
1027.703	55.05
1028.053	54.99
1028.403	54.53
1028.753	54.93
1029.102	54.56
1029.452	54.31
1029.801	54.37
1030.15	54.04
1030.499	53.72
897.758	494.39
901.051	496.57
904.343	511.93
907.636	505.47
910.928	494.33
914.22	502.38
917.511	489.61
920.803	472.14
924.094	453.4
927.384	457.27
930.675	445.73
933.965	440.54
937.255	443.76
940.544	419.13
943.834	400.56
947.123	395.72
950.411	376.3
953.7	372.54
956.988	359.2
960.276	344.41
963.563	339.4
966.851	320.23
970.138	315.78
973.424	295.08
976.711	293.09
979.997	281.45
983.283	277.35
986.568	268.89
989.853	261.16
993.138	252.43
996.423	249.42
999.708	243.06
1002.992	245.04
1006.275	236.79
1009.559	235.66
1012.842	227.7
1016.125	223.92
1019.408	218.3
1022.69	215.7
1025.972	214.2
1029.254	209.27
1032.536	205.99
1035.817	199.52
1039.098	197.71
1042.379	194.58
1045.659	191.85
1048.939	191.29
1052.219	187.51
1055.498	184.93
1058.778	183.18
1062.057	179.43
1065.335	179.11
1068.614	175.29
1071.892	173.55
1075.17	169.29
1078.447	167.77
1081.724	166.35
1085.001	163.06
1088.278	162.19
1091.554	161.24
1094.83	159.73
1098.106	157.77
1101.382	156.34
1104.657	156.69
1107.932	156.38
1111.206	155.61
1114.481	152.94
1117.755	151.86
1121.029	151.08
1124.302	149.61
1127.575	147.88
1130.848	147.63
1134.121	145.8
1137.393	145.49
1140.665	144.68
1143.937	142.63
1147.208	142.27
1150.48	141.85
1153.75	140.95
1157.021	139.75
1160.291	139.21
1163.561	139.11
1166.831	137.59
1170.101	138.1
1173.37	137.36
1176.639	135.19
1179.907	135.41
1183.176	134.62
1186.444	134.9
1189.711	134.12
1192.979	135.51
1196.246	135.16
1199.513	134.42
1202.78	135.17
1206.046	134.63
1209.312	134.97
1212.578	136.47
1215.843	137.46
1219.108	138.41
1222.373	140.79
1225.638	142.64
1228.902	144.42
1232.166	148.3
1235.43	150.23
1238.693	153.7
1241.956	156.82
1245.219	160.45
1248.482	160.97
1251.744	161.45
1255.006	161.59
1258.268	157.26
1261.529	156.97
1264.79	153.25
1268.051	151.36
1271.312	149.74
1274.572	146.39
1277.832	143.44
1281.092	141.74
1284.351	139.85
1287.61	139.72
1290.869	138.58
1294.128	138.42
1297.386	137.32
1300.644	137.02
1303.902	136.21
1307.159	135.92
1310.416	136.59
1313.673	138.6
1316.93	139.05
1320.186	141.07
1323.442	141.77
1326.697	144.63
1329.953	144.97
1333.208	148.89
1336.463	154.86
1339.717	157.36
1342.972	163.08
1346.226	167.91
1349.479	169.15
1352.733	176.23
1355.986	178.74
1359.238	183.19
1362.491	183.45
1365.743	191.88
1368.995	193.59
1372.247	191.33
1375.498	190.6
1378.749	196.77
1382	193.23
1385.251	192.68
1388.501	191.49
1391.751	193.56
1395	192.03
1398.25	193.53
1401.499	191.29
1404.748	189.99
1407.996	186.19
1411.244	186.2
1414.492	183.29
1417.74	178.53
1420.987	174.28
1424.234	170.84
1427.481	164.34
1430.728	159.65
1433.974	154.24
1437.22	149.22
1440.465	143.91
1443.711	140.15
1446.956	134.71
1450.201	130.16
1453.445	124.8
1456.689	121.68
1459.933	117.86
1463.177	112.96
1466.42	110.78
1469.663	108.27
1472.906	104.76
1476.148	102.11
1479.391	100.79
1482.633	99.91
1485.874	98.29
1489.115	98.17
1492.356	95.67
1495.597	94.49
1498.838	94.59
1502.078	93.88
1505.318	93.68
1508.557	93.26
1511.797	92.63
1515.036	91.99
1518.274	90.87
1521.513	90.75
1524.751	90.03
1527.989	90.96
1531.227	90.73
1534.464	90.37
1537.701	89.8
1540.938	89.35
1544.174	89.38
1547.41	89.83
1550.646	89.46
1553.882	90.36
1557.117	89.54
1560.352	90.43
1563.587	89.53
1566.821	89.53
1570.055	89.01
1573.289	89.56
1576.523	89.69
1579.756	88.8
1582.989	89.42
1586.222	89.47
1589.454	89.23
1592.686	88.96
1595.918	88.41
1599.15	88.6
1602.381	89.32
1605.612	90.04
1608.843	89.42
1612.073	89.98
1615.303	91.26
1618.533	90.06
1621.762	90.72
1624.992	90.98
1628.221	91.14
1631.449	91.79
1634.678	91.02
1637.906	90.82
1641.134	90.6
1644.361	91.06
1647.588	90.37
1650.815	90.16
1654.042	90.71
1657.269	90.08
1660.495	90.41
1663.72	90.93
1666.946	90.35
1670.171	91.47
1673.396	91.97
1676.621	92.25
1679.845	92.58
1683.069	92.51
1686.293	92.28
1689.517	92.52
1692.74	92.73
1695.963	92.76
1699.185	92.75
1702.408	93.32
1705.63	92.97
1708.852	93.12
1712.073	92.56
1715.294	92.23
1718.515	92.84
1721.736	93.3
1724.956	93.04
1728.176	93.22
1731.396	93.17
1734.616	93.17
1737.835	93.04
1741.054	93.45
1744.272	92.59
1747.491	93.13
1750.709	93.71
1753.927	93.8
1757.144	93.71
1760.361	94
1763.578	94.33
1766.795	95.05
1770.011	94.92
1773.227	95.12
1776.443	95.8
1779.658	96.17
1782.874	96.74
1786.089	96.43
1789.303	96.66
1792.518	97.41
1795.732	98.16
1798.945	98.78
1802.159	98.69
1805.372	100.19
1808.585	100.64
1811.797	101.07
1815.01	102.09
1818.222	102.48
1821.434	104.37
1824.645	104.44
1827.856	105.87
1831.067	105.78
1834.278	106.85
1837.488	107.24
1840.698	107.8
1843.908	108.12
1847.117	109.37
1850.326	109.54
1853.535	109.8
1856.744	109.79
1859.952	111.43
1863.16	110.6
1866.368	109.93
1869.575	110.6
1872.782	109.48
1875.989	108.07
1879.196	107.73
1882.402	105.62
1885.608	106.32
1888.814	105.52
1892.019	104.87
1895.224	102.95
1898.429	102.79
1901.634	103.84
1904.838	103.06
1908.042	103.74
1911.246	104.02
1914.449	104.26
1917.652	103.89
1920.855	103.88
1924.058	102.74
1927.26	102.48
1930.462	102.96
1933.664	103.51
1936.865	103.4
1940.066	101.57
1943.267	100.8
1946.467	102.93
1949.668	101.75
1952.868	103.48
1956.067	103.31
1959.267	103.95
1962.466	104.39
1965.665	105.31
1968.863	106.07
1972.061	106.67
1975.259	109.96
1978.457	111.35
1981.654	110.53
1984.852	112.16
1988.048	112.75
1991.245	115.86
1994.441	119.26
1997.637	121.02
2000.833	124.15
2004.028	124.08
2007.223	128.42
2010.418	129.76
2013.613	136.48
2016.807	140.36
2020.001	143.84
2023.194	147.58
2026.388	150.93
2029.581	156.27
2032.774	161.45
2035.966	166.34
2039.158	172.71
2042.35	174.75
2045.542	179.54
2048.733	184.35
2051.924	187.05
2055.115	189.5
2058.306	192.01
2061.496	196
2064.686	198.63
2067.875	196.47
2071.065	198.36
2074.254	199.16
2077.442	206.03
2080.631	205.44
2083.819	206.32
2087.007	210.28
2090.195	214.7
2093.382	213.45
2096.569	212.85
2099.756	217.81
2102.942	223.69
2106.128	227.22
2109.314	227.5
2112.5	226.14
2115.685	226.12
2118.87	227.16
2122.055	228.76
2125.239	232.8
2128.424	239.28
2131.608	237.22
2134.791	233.29
2137.974	235.95
2141.157	235.72
2144.34	238.39
2147.523	243.05
2150.705	249.79
2153.887	248.21
2157.068	250.39
2160.25	250.65
2163.431	249.4
2166.611	255.74
2169.792	260.28
2172.972	263.78
2176.152	266.3
2179.331	272.84
2182.511	270.7
2185.69	275.53
2188.868	283.55
2192.047	288.58
2195.225	294.92
2198.403	299.02
2201.58	293.56
2204.758	306.37
2207.935	306.76
2211.111	312.71
2214.288	313.51
2217.464	319.05
2220.64	318.41
2223.815	320.4
2226.991	318.35
2230.166	321.4
2233.34	330.31
2236.515	338.73
2239.689	336.61
2242.863	339.65
2246.036	338.11
2249.209	346.71
2252.382	346.16
2255.555	358.47
2258.727	360.96
2261.9	371
2265.071	375.97
2268.243	372.26
2271.414	383.37
2274.585	388.62
2277.756	392.03
2280.926	401.41
2284.096	402.12
2287.266	402.67
2290.436	396.2
2293.605	405.61
2296.774	418.49
2299.942	417.31
2303.111	432.11
2306.279	439.82
2309.447	439.69
2312.614	443.61
2315.781	454.42
2318.948	459.99
2322.115	468.88
2325.281	493.8
2328.447	487.3
2331.613	486.65
2334.779	495.62
2337.944	501.01
2341.109	512.03
2344.274	517.57
2347.438	529.57
2350.602	541.36
2353.766	575.21
2356.929	576.66
2360.092	578.12
2363.255	587.38
2366.418	598.69
2369.58	611.66
2372.742	606.97
2375.904	603.04
2379.066	622.13
2382.227	657.96
2385.388	659.31
2388.548	628.28
2391.709	622.12
2394.869	647.92
2398.029	644.74
2401.188	645.57
2404.347	659.39
2407.506	686.65
2410.665	660.9
2413.823	662.54
2416.981	662.04
2420.139	625.99
2423.296	671.69
2426.453	718.31
2429.61	689.47
2432.767	733.68
2435.923	757.98
2439.079	735.89
2442.235	756.45
2445.391	780.56
2448.546	772.73
2451.701	812.17
2454.855	869.78
2458.009	774.65
2461.163	786.33
2464.317	792.65
2467.471	779.86
2470.624	795.7
2473.777	782.67
2476.929	753.78
2480.082	798.55
2483.234	837.89
2486.385	843.96
2489.537	864.49
2492.688	949.63
2495.839	940.79
2498.989	966.93
2502.14	969.27
2505.29	933.57
2508.439	1050.05
2511.589	1080.71
2514.738	1044.88
2517.887	1035.78
2521.035	978.19
2524.183	969.9
2527.331	957.22
2530.479	931.41
2533.627	948
