Data from N_1_hir_wi_4n_041_Splice17_09.txt Node
Date: Sat Feb 29 13:50:21 EST 2020
User: sa697716
Spectrometer: FLMS03696
Trigger mode: 0
Integration Time (sec): 3.180400E-1
Scans to average: 20
Electric dark correction enabled: true
Nonlinearity correction enabled: true
Boxcar width: 5
XAxis mode: Wavelengths
Number of Pixels in Spectrum: 2048
>>>>>Begin Spectral Data<<<<<
187.83	108.34
188.298	116.81
188.766	107.99
189.233	95.3
189.701	102.87
190.169	98.53
190.636	87.36
191.104	60.52
191.571	121.75
192.039	136.9
192.506	91.84
192.974	4353.35
193.441	-369.01
193.908	134.97
194.375	87.32
194.842	161.14
195.31	58.82
195.777	40.99
196.244	61
196.711	74.26
197.177	73.15
197.644	74.17
198.111	75.7
198.578	76.11
199.045	76.22
199.511	76.21
199.978	76.83
200.445	77.07
200.911	76.92
201.378	77.04
201.844	77.84
202.31	78.43
202.777	78.4
203.243	78.05
203.709	77.66
204.176	77.22
204.642	77.26
205.108	76.3
205.574	76.33
206.04	75.78
206.506	75.14
206.972	73.97
207.438	72.71
207.903	71.97
208.369	70.56
208.835	69.86
209.301	68.97
209.766	67.58
210.232	66.37
210.697	64.6
211.163	63.12
211.628	61.86
212.094	60.82
212.559	59.69
213.024	58.51
213.49	57.35
213.955	55.9
214.42	54.31
214.885	52.22
215.35	50.26
215.815	47.72
216.28	45.11
216.745	41.8
217.21	38.54
217.675	35.52
218.14	32.54
218.604	30.02
219.069	27.86
219.534	25.99
219.998	24.57
220.463	23.31
220.927	22.22
221.392	21.24
221.856	20.43
222.32	19.7
222.785	19.1
223.249	18.59
223.713	18.15
224.177	17.71
224.642	17.32
225.106	16.93
225.57	16.57
226.034	16.27
226.497	15.96
226.961	15.66
227.425	15.38
227.889	15.09
228.353	14.83
228.816	14.59
229.28	14.33
229.744	14.09
230.207	13.9
230.671	13.68
231.134	13.47
231.597	13.27
232.061	13.08
232.524	12.91
232.987	12.74
233.45	12.57
233.914	12.41
234.377	12.29
234.84	12.16
235.303	12.01
235.766	11.89
236.229	11.79
236.691	11.69
237.154	11.62
237.617	11.53
238.08	11.42
238.542	11.32
239.005	11.23
239.468	11.11
239.93	11.04
240.393	10.97
240.855	10.86
241.317	10.76
241.78	10.68
242.242	10.57
242.704	10.49
243.166	10.42
243.629	10.37
244.091	10.27
244.553	10.21
245.015	10.14
245.477	10.05
245.939	10
246.4	9.93
246.862	9.87
247.324	9.81
247.786	9.75
248.247	9.69
248.709	9.63
249.17	9.6
249.632	9.56
250.093	9.49
250.555	9.46
251.016	9.42
251.477	9.38
251.939	9.33
252.4	9.3
252.861	9.25
253.322	9.21
253.783	9.17
254.244	9.12
254.705	9.07
255.166	9.04
255.627	8.99
256.088	8.95
256.549	8.91
257.009	8.87
257.47	8.82
257.931	8.78
258.391	8.74
258.852	8.69
259.312	8.66
259.773	8.61
260.233	8.57
260.694	8.53
261.154	8.49
261.614	8.44
262.074	8.41
262.534	8.37
262.994	8.33
263.455	8.3
263.915	8.27
264.374	8.23
264.834	8.21
265.294	8.18
265.754	8.15
266.214	8.13
266.673	8.11
267.133	8.08
267.593	8.07
268.052	8.05
268.512	8.02
268.971	8
269.431	7.99
269.89	7.96
270.349	7.95
270.809	7.94
271.268	7.93
271.727	7.91
272.186	7.9
272.645	7.89
273.104	7.87
273.563	7.87
274.022	7.86
274.481	7.84
274.94	7.83
275.399	7.82
275.857	7.81
276.316	7.79
276.775	7.77
277.233	7.75
277.692	7.73
278.15	7.72
278.609	7.7
279.067	7.68
279.525	7.67
279.984	7.65
280.442	7.64
280.9	7.62
281.358	7.6
281.816	7.59
282.274	7.59
282.732	7.58
283.19	7.58
283.648	7.57
284.106	7.56
284.564	7.57
285.021	7.56
285.479	7.55
285.937	7.54
286.394	7.53
286.852	7.53
287.309	7.53
287.767	7.52
288.224	7.5
288.682	7.5
289.139	7.49
289.596	7.47
290.053	7.45
290.511	7.44
290.968	7.43
291.425	7.42
291.882	7.41
292.339	7.38
292.796	7.37
293.252	7.35
293.709	7.34
294.166	7.33
294.623	7.32
295.079	7.31
295.536	7.3
295.992	7.29
296.449	7.29
296.905	7.28
297.362	7.28
297.818	7.28
298.274	7.27
298.731	7.27
299.187	7.27
299.643	7.27
300.099	7.27
300.555	7.27
301.011	7.27
301.467	7.27
301.923	7.27
302.379	7.27
302.835	7.27
303.291	7.26
303.746	7.26
304.202	7.25
304.658	7.24
305.113	7.24
305.569	7.24
306.024	7.23
306.479	7.23
306.935	7.22
307.39	7.22
307.845	7.22
308.301	7.23
308.756	7.23
309.211	7.23
309.666	7.24
310.121	7.25
310.576	7.25
311.031	7.26
311.486	7.27
311.94	7.27
312.395	7.27
312.85	7.28
313.305	7.28
313.759	7.28
314.214	7.29
314.668	7.3
315.123	7.31
315.577	7.31
316.032	7.31
316.486	7.3
316.94	7.3
317.394	7.29
317.849	7.28
318.303	7.27
318.757	7.26
319.211	7.24
319.665	7.23
320.119	7.21
320.572	7.21
321.026	7.2
321.48	7.2
321.934	7.2
322.387	7.2
322.841	7.19
323.295	7.18
323.748	7.18
324.202	7.17
324.655	7.15
325.108	7.14
325.562	7.12
326.015	7.11
326.468	7.08
326.921	7.07
327.374	7.07
327.827	7.06
328.28	7.06
328.733	7.05
329.186	7.06
329.639	7.06
330.092	7.06
330.545	7.07
330.997	7.07
331.45	7.07
331.903	7.07
332.355	7.07
332.808	7.07
333.26	7.07
333.713	7.08
334.165	7.07
334.617	7.07
335.069	7.07
335.522	7.06
335.974	7.06
336.426	7.08
336.878	7.08
337.33	7.08
337.782	7.08
338.234	7.07
338.686	7.06
339.137	7.07
339.589	7.06
340.041	7.07
340.493	7.05
340.944	7.03
341.396	7.03
341.847	7.01
342.299	6.98
342.75	6.95
343.201	6.93
343.653	6.92
344.104	6.9
344.555	6.88
345.006	6.85
345.457	6.83
345.908	6.82
346.359	6.8
346.81	6.79
347.261	6.77
347.712	6.76
348.163	6.76
348.613	6.74
349.064	6.73
349.515	6.71
349.965	6.7
350.416	6.7
350.866	6.68
351.317	6.66
351.767	6.65
352.217	6.65
352.668	6.64
353.118	6.64
353.568	6.64
354.018	6.65
354.468	6.65
354.918	6.66
355.368	6.66
355.818	6.65
356.268	6.65
356.718	6.66
357.168	6.65
357.617	6.65
358.067	6.65
358.517	6.64
358.966	6.63
359.416	6.64
359.865	6.64
360.315	6.63
360.764	6.64
361.213	6.63
361.663	6.62
362.112	6.62
362.561	6.62
363.01	6.63
363.459	6.63
363.908	6.62
364.357	6.61
364.806	6.59
365.255	6.6
365.703	6.6
366.152	6.61
366.601	6.61
367.05	6.61
367.498	6.62
367.947	6.6
368.395	6.6
368.844	6.6
369.292	6.59
369.74	6.6
370.189	6.6
370.637	6.59
371.085	6.59
371.533	6.58
371.981	6.58
372.429	6.57
372.877	6.57
373.325	6.56
373.773	6.56
374.221	6.57
374.669	6.56
375.116	6.55
375.564	6.55
376.012	6.56
376.459	6.57
376.907	6.57
377.354	6.59
377.801	6.61
378.249	6.63
378.696	6.64
379.143	6.66
379.591	6.67
380.038	6.69
380.485	6.72
380.932	6.73
381.379	6.74
381.826	6.74
382.273	6.75
382.72	6.76
383.166	6.77
383.613	6.78
384.06	6.79
384.506	6.8
384.953	6.8
385.4	6.8
385.846	6.81
386.292	6.82
386.739	6.83
387.185	6.85
387.631	6.86
388.078	6.87
388.524	6.87
388.97	6.88
389.416	6.89
389.862	6.91
390.308	6.91
390.754	6.93
391.2	6.94
391.645	6.97
392.091	6.97
392.537	6.98
392.983	7
393.428	7.03
393.874	7.05
394.319	7.07
394.765	7.09
395.21	7.11
395.655	7.13
396.101	7.14
396.546	7.16
396.991	7.18
397.436	7.18
397.881	7.2
398.326	7.23
398.771	7.25
399.216	7.27
399.661	7.28
400.106	7.31
400.551	7.31
400.995	7.32
401.44	7.32
401.885	7.32
402.329	7.32
402.774	7.31
403.218	7.3
403.663	7.3
404.107	7.31
404.551	7.32
404.995	7.31
405.44	7.32
405.884	7.33
406.328	7.34
406.772	7.35
407.216	7.37
407.66	7.38
408.104	7.39
408.547	7.39
408.991	7.38
409.435	7.37
409.879	7.36
410.322	7.37
410.766	7.38
411.209	7.39
411.653	7.38
412.096	7.37
412.54	7.37
412.983	7.37
413.426	7.39
413.869	7.41
414.312	7.43
414.756	7.46
415.199	7.46
415.642	7.47
416.085	7.47
416.527	7.51
416.97	7.54
417.413	7.53
417.856	7.53
418.298	7.51
418.741	7.51
419.184	7.51
419.626	7.49
420.069	7.51
420.511	7.51
420.953	7.5
421.396	7.5
421.838	7.51
422.28	7.54
422.722	7.56
423.164	7.57
423.606	7.57
424.048	7.56
424.49	7.56
424.932	7.53
425.374	7.52
425.816	7.49
426.258	7.47
426.699	7.42
427.141	7.4
427.582	7.38
428.024	7.38
428.465	7.38
428.907	7.4
429.348	7.39
429.789	7.39
430.231	7.39
430.672	7.41
431.113	7.43
431.554	7.46
431.995	7.47
432.436	7.46
432.877	7.45
433.318	7.44
433.759	7.43
434.2	7.44
434.64	7.46
435.081	7.46
435.522	7.45
435.962	7.45
436.403	7.48
436.843	7.47
437.284	7.5
437.724	7.51
438.164	7.51
438.604	7.51
439.045	7.51
439.485	7.51
439.925	7.5
440.365	7.49
440.805	7.48
441.245	7.46
441.685	7.47
442.125	7.44
442.564	7.44
443.004	7.42
443.444	7.4
443.883	7.39
444.323	7.36
444.762	7.37
445.202	7.39
445.641	7.39
446.081	7.39
446.52	7.34
446.959	7.34
447.398	7.36
447.837	7.38
448.276	7.38
448.716	7.4
449.154	7.42
449.593	7.42
450.032	7.39
450.471	7.38
450.91	7.38
451.349	7.4
451.787	7.39
452.226	7.35
452.664	7.3
453.103	7.27
453.541	7.24
453.98	7.19
454.418	7.15
454.856	7.12
455.295	7.08
455.733	7.05
456.171	7.02
456.609	7.01
457.047	6.98
457.485	6.97
457.923	6.96
458.361	6.94
458.798	6.95
459.236	6.95
459.674	6.94
460.111	6.95
460.549	6.94
460.987	6.95
461.424	6.95
461.862	6.95
462.299	6.95
462.736	6.96
463.173	6.97
463.611	6.97
464.048	6.98
464.485	6.98
464.922	6.97
465.359	6.99
465.796	6.97
466.233	6.98
466.67	7.01
467.106	7
467.543	7.02
467.98	7.01
468.416	7.01
468.853	7.03
469.29	7.03
469.726	7.02
470.162	7
470.599	6.98
471.035	6.98
471.471	6.95
471.907	6.95
472.344	6.93
472.78	6.93
473.216	6.91
473.652	6.87
474.088	6.88
474.523	6.89
474.959	6.88
475.395	6.89
475.831	6.87
476.266	6.86
476.702	6.84
477.138	6.81
477.573	6.78
478.008	6.77
478.444	6.75
478.879	6.73
479.314	6.71
479.75	6.68
480.185	6.64
480.62	6.62
481.055	6.6
481.49	6.57
481.925	6.56
482.36	6.54
482.795	6.53
483.229	6.5
483.664	6.48
484.099	6.47
484.534	6.46
484.968	6.46
485.403	6.43
485.837	6.43
486.271	6.43
486.706	6.4
487.14	6.4
487.574	6.38
488.009	6.38
488.443	6.37
488.877	6.36
489.311	6.35
489.745	6.35
490.179	6.35
490.613	6.35
491.046	6.35
491.48	6.38
491.914	6.37
492.348	6.38
492.781	6.38
493.215	6.4
493.648	6.41
494.082	6.42
494.515	6.43
494.948	6.43
495.382	6.44
495.815	6.45
496.248	6.45
496.681	6.45
497.114	6.46
497.547	6.47
497.98	6.47
498.413	6.48
498.846	6.5
499.279	6.5
499.711	6.52
500.144	6.54
500.577	6.56
501.009	6.59
501.442	6.63
501.874	6.65
502.306	6.68
502.739	6.71
503.171	6.73
503.603	6.76
504.036	6.81
504.468	6.85
504.9	6.9
505.332	6.95
505.764	6.99
506.196	7.04
506.627	7.1
507.059	7.17
507.491	7.24
507.923	7.31
508.354	7.39
508.786	7.46
509.217	7.53
509.649	7.61
510.08	7.7
510.512	7.78
510.943	7.88
511.374	7.98
511.805	8.06
512.237	8.16
512.668	8.27
513.099	8.38
513.53	8.51
513.961	8.64
514.391	8.76
514.822	8.89
515.253	9.01
515.684	9.14
516.114	9.28
516.545	9.43
516.975	9.58
517.406	9.73
517.836	9.87
518.267	10.02
518.697	10.18
519.127	10.34
519.558	10.49
519.988	10.66
520.418	10.82
520.848	10.97
521.278	11.13
521.708	11.16
522.138	11.3
522.567	11.45
522.997	11.6
523.427	11.76
523.857	11.92
524.286	12.08
524.716	12.21
525.145	12.37
525.575	12.51
526.004	12.66
526.433	12.93
526.863	13.08
527.292	13.22
527.721	13.35
528.15	13.47
528.579	13.6
529.008	13.7
529.437	13.81
529.866	13.9
530.295	14.01
530.724	14.12
531.152	14.23
531.581	14.3
532.01	14.4
532.438	14.48
532.867	14.55
533.295	14.62
533.723	14.69
534.152	14.79
534.58	14.84
535.008	14.9
535.436	14.94
535.865	14.97
536.293	15.03
536.721	15.07
537.149	15.1
537.576	15.14
538.004	15.17
538.432	15.2
538.86	15.23
539.287	15.26
539.715	15.3
540.143	15.33
540.57	15.36
540.998	15.38
541.425	15.41
541.852	15.45
542.28	15.47
542.707	15.51
543.134	15.54
543.561	15.54
543.988	15.57
544.415	15.59
544.842	15.61
545.269	15.64
545.696	15.66
546.123	15.67
546.549	15.7
546.976	15.73
547.403	15.74
547.829	15.76
548.256	15.78
548.682	15.78
549.108	15.79
549.535	15.8
549.961	15.8
550.387	15.79
550.813	15.78
551.24	15.77
551.666	15.78
552.092	15.77
552.518	15.75
552.943	15.73
553.369	15.71
553.795	15.69
554.221	15.66
554.646	15.63
555.072	15.63
555.498	15.6
555.923	15.54
556.349	15.47
556.774	15.41
557.199	15.38
557.625	15.32
558.05	15.27
558.475	15.2
558.9	15.14
559.325	15.07
559.75	14.98
560.175	14.91
560.6	14.84
561.025	14.77
561.449	14.67
561.874	14.57
562.299	14.46
562.723	14.35
563.148	14.25
563.572	14.15
563.997	14.05
564.421	13.94
564.846	13.83
565.27	13.72
565.694	13.61
566.118	13.51
566.542	13.4
566.966	13.3
567.39	13.19
567.814	13.07
568.238	12.94
568.662	12.83
569.086	12.71
569.509	12.59
569.933	12.48
570.357	12.36
570.78	12.25
571.204	12.13
571.627	12.02
572.05	11.9
572.474	11.81
572.897	11.71
573.32	11.61
573.743	11.52
574.166	11.42
574.589	11.34
575.012	11.26
575.435	11.18
575.858	11.11
576.281	11.05
576.704	10.98
577.126	10.91
577.549	10.87
577.972	10.81
578.394	10.73
578.817	10.67
579.239	10.62
579.661	10.57
580.084	10.52
580.506	10.47
580.928	10.42
581.35	10.39
581.772	10.36
582.194	10.29
582.616	10.25
583.038	10.22
583.46	10.19
583.882	10.15
584.303	10.11
584.725	10.06
585.147	10.01
585.568	9.98
585.99	9.93
586.411	9.89
586.833	9.85
587.254	9.82
587.675	9.78
588.096	9.76
588.518	9.72
588.939	9.68
589.36	9.66
589.781	9.65
590.202	9.62
590.623	9.59
591.043	9.56
591.464	9.53
591.885	9.49
592.305	9.49
592.726	9.45
593.147	9.42
593.567	9.42
593.987	9.41
594.408	9.37
594.828	9.36
595.248	9.35
595.669	9.33
596.089	9.33
596.509	9.3
596.929	9.26
597.349	9.22
597.769	9.21
598.189	9.18
598.608	9.15
599.028	9.12
599.448	9.09
599.867	9.06
600.287	9.02
600.706	8.99
601.126	8.95
601.545	8.93
601.965	8.91
602.384	8.88
602.803	8.85
603.222	8.81
603.641	8.78
604.061	8.74
604.48	8.71
604.898	8.68
605.317	8.66
605.736	8.63
606.155	8.59
606.574	8.57
606.992	8.52
607.411	8.49
607.829	8.42
608.248	8.38
608.666	8.34
609.085	8.3
609.503	8.26
609.921	8.22
610.339	8.19
610.758	8.16
611.176	8.12
611.594	8.07
612.012	8.03
612.43	8.04
612.847	8.02
613.265	7.99
613.683	7.96
614.101	7.93
614.518	7.9
614.936	7.87
615.353	7.83
615.771	7.8
616.188	7.79
616.606	7.77
617.023	7.74
617.44	7.7
617.857	7.67
618.274	7.65
618.691	7.63
619.108	7.61
619.525	7.59
619.942	7.58
620.359	7.57
620.776	7.56
621.192	7.55
621.609	7.55
622.026	7.54
622.442	7.53
622.859	7.52
623.275	7.52
623.691	7.51
624.108	7.51
624.524	7.5
624.94	7.47
625.356	7.47
625.772	7.46
626.188	7.46
626.604	7.44
627.02	7.44
627.436	7.43
627.852	7.42
628.268	7.41
628.683	7.4
629.099	7.4
629.514	7.4
629.93	7.39
630.345	7.37
630.761	7.35
631.176	7.35
631.591	7.34
632.007	7.32
632.422	7.31
632.837	7.29
633.252	7.28
633.667	7.26
634.082	7.24
634.497	7.2
634.911	7.18
635.326	7.15
635.741	7.12
636.155	7.09
636.57	7.06
636.984	7
637.399	6.96
637.813	6.9
638.228	6.85
638.642	6.82
639.056	6.79
639.47	6.76
639.884	6.73
640.298	6.69
640.712	6.66
641.126	6.62
641.54	6.6
641.954	6.58
642.368	6.56
642.781	6.54
643.195	6.51
643.609	6.49
644.022	6.46
644.436	6.42
644.849	6.41
645.262	6.38
645.676	6.36
646.089	6.34
646.502	6.32
646.915	6.3
647.328	6.27
647.741	6.26
648.154	6.25
648.567	6.23
648.98	6.23
649.393	6.22
649.805	6.21
650.218	6.21
650.631	6.2
651.043	6.19
651.456	6.2
651.868	6.2
652.28	6.19
652.693	6.16
653.105	6.15
653.517	6.14
653.929	6.14
654.341	6.14
654.753	6.12
655.165	6.12
655.577	6.1
655.989	6.08
656.401	6.07
656.813	6.06
657.224	6.05
657.636	6.06
658.047	6.05
658.459	6.02
658.87	6
659.282	6
659.693	5.98
660.104	5.98
660.515	5.98
660.926	5.99
661.338	5.97
661.749	5.95
662.159	5.94
662.57	5.93
662.981	5.92
663.392	5.9
663.803	5.9
664.213	5.9
664.624	5.9
665.035	5.9
665.445	5.89
665.855	5.9
666.266	5.93
666.676	5.93
667.086	5.93
667.497	5.93
667.907	5.92
668.317	5.92
668.727	5.91
669.137	5.92
669.547	5.94
669.956	5.93
670.366	5.94
670.776	5.94
671.186	5.95
671.595	5.97
672.005	5.99
672.414	6.01
672.824	6.03
673.233	6.06
673.642	6.07
674.052	6.08
674.461	6.1
674.87	6.11
675.279	6.13
675.688	6.16
676.097	6.18
676.506	6.21
676.915	6.24
677.323	6.26
677.732	6.27
678.141	6.3
678.549	6.32
678.958	6.33
679.366	6.35
679.775	6.37
680.183	6.39
680.592	6.41
681	6.41
681.408	6.42
681.816	6.43
682.224	6.45
682.632	6.48
683.04	6.49
683.448	6.52
683.856	6.54
684.264	6.57
684.671	6.61
685.079	6.65
685.487	6.7
685.894	6.75
686.302	6.8
686.709	6.84
687.116	6.9
687.524	6.99
687.931	7.07
688.338	7.18
688.745	7.3
689.152	7.43
689.559	7.55
689.966	7.7
690.373	7.87
690.78	8.07
691.187	8.28
691.593	8.51
692	8.75
692.407	9
692.813	9.27
693.22	9.56
693.626	9.86
694.032	10.17
694.439	10.51
694.845	10.86
695.251	11.22
695.657	11.59
696.063	11.97
696.469	12.37
696.875	12.77
697.281	13.17
697.687	13.61
698.093	14.03
698.498	14.48
698.904	14.92
699.31	15.36
699.715	15.82
700.12	16.29
700.526	16.78
700.931	17.26
701.337	17.73
701.742	18.19
702.147	18.66
702.552	19.15
702.957	19.63
703.362	20.11
703.767	20.6
704.172	21.09
704.577	21.57
704.981	22.02
705.386	22.48
705.791	22.96
706.195	23.44
706.6	23.89
707.004	24.35
707.408	24.82
707.813	25.3
708.217	25.74
708.621	26.21
709.025	26.67
709.43	27.12
709.834	27.59
710.237	28.02
710.641	28.51
711.045	28.96
711.449	29.41
711.853	29.86
712.256	30.3
712.66	30.77
713.064	31.19
713.467	31.61
713.87	32.07
714.274	32.51
714.677	32.96
715.08	33.38
715.484	33.85
715.887	34.28
716.29	34.68
716.693	35.09
717.096	35.49
717.499	35.93
717.901	36.36
718.304	36.77
718.707	37.14
719.109	37.54
719.512	37.94
719.915	38.3
720.317	38.69
720.719	39.08
721.122	39.47
721.524	39.86
721.926	40.21
722.328	40.55
722.731	40.88
723.133	41.23
723.535	41.58
723.937	41.88
724.338	42.18
724.74	42.51
725.142	42.76
725.544	43.01
725.945	43.27
726.347	43.53
726.748	43.77
727.15	44.02
727.551	44.3
727.952	44.53
728.354	44.8
728.755	45.05
729.156	45.27
729.557	45.55
729.958	45.78
730.359	46.02
730.76	46.22
731.161	46.44
731.562	46.65
731.962	46.82
732.363	46.99
732.763	47.16
733.164	47.31
733.564	47.47
733.965	47.58
734.365	47.71
734.766	47.85
735.166	47.96
735.566	48.07
735.966	48.17
736.366	48.27
736.766	48.36
737.166	48.47
737.566	48.58
737.966	48.7
738.365	48.84
738.765	48.99
739.165	49.05
739.564	49.17
739.964	49.27
740.363	49.4
740.763	49.5
741.162	49.59
741.561	49.69
741.96	49.78
742.36	49.85
742.759	49.86
743.158	49.9
743.557	49.99
743.955	50.1
744.354	50.18
744.753	50.23
745.152	50.27
745.55	50.34
745.949	50.36
746.348	50.42
746.746	50.47
747.144	50.58
747.543	50.62
747.941	50.71
748.339	50.73
748.737	50.77
749.136	50.78
749.534	50.87
749.932	50.92
750.33	50.96
750.727	51.01
751.125	51.04
751.523	51.07
751.921	51.12
752.318	51.14
752.716	51.18
753.113	51.2
753.511	51.21
753.908	51.19
754.305	51.21
754.703	51.23
755.1	51.19
755.497	51.2
755.894	51.17
756.291	51.14
756.688	51.08
757.085	51.04
757.482	51.03
757.878	51.04
758.275	51.06
758.672	51.05
759.068	51.04
759.465	51.05
759.861	51.01
760.258	50.99
760.654	51
761.05	51.02
761.447	51.02
761.843	51.01
762.239	51
762.635	50.97
763.031	50.97
763.427	50.99
763.822	51.01
764.218	51.05
764.614	51.09
765.01	51.1
765.405	51.12
765.801	51.12
766.196	51.15
766.592	51.2
766.987	51.22
767.382	51.22
767.778	51.23
768.173	51.24
768.568	51.24
768.963	51.24
769.358	51.26
769.753	51.3
770.148	51.3
770.542	51.29
770.937	51.26
771.332	51.3
771.726	51.31
772.121	51.29
772.515	51.29
772.91	51.28
773.304	51.29
773.699	51.28
774.093	51.26
774.487	51.29
774.881	51.33
775.275	51.37
775.669	51.38
776.063	51.37
776.457	51.38
776.851	51.36
777.245	51.4
777.638	51.38
778.032	51.41
778.425	51.43
778.819	51.43
779.212	51.39
779.606	51.36
779.999	51.35
780.392	51.38
780.786	51.39
781.179	51.43
781.572	51.4
781.965	51.43
782.358	51.39
782.751	51.39
783.143	51.41
783.536	51.43
783.929	51.47
784.322	51.48
784.714	51.48
785.107	51.48
785.499	51.5
785.891	51.51
786.284	51.51
786.676	51.55
787.068	51.54
787.46	51.53
787.852	51.51
788.245	51.46
788.636	51.42
789.028	51.41
789.42	51.4
789.812	51.35
790.204	51.3
790.595	51.32
790.987	51.32
791.378	51.32
791.77	51.36
792.161	51.39
792.553	51.42
792.944	51.46
793.335	51.46
793.726	51.44
794.117	51.46
794.508	51.51
794.899	51.5
795.29	51.48
795.681	51.47
796.072	51.43
796.463	51.4
796.853	51.38
797.244	51.39
797.634	51.37
798.025	51.41
798.415	51.41
798.806	51.43
799.196	51.44
799.586	51.42
799.976	51.42
800.366	51.44
800.756	51.45
801.146	51.45
801.536	51.41
801.926	51.39
802.316	51.37
802.706	51.38
803.095	51.37
803.485	51.42
803.874	51.42
804.264	51.47
804.653	51.44
805.043	51.46
805.432	51.42
805.821	51.44
806.21	51.48
806.599	51.5
806.988	51.46
807.377	51.46
807.766	51.41
808.155	51.42
808.544	51.35
808.933	51.36
809.321	51.37
809.71	51.38
810.098	51.36
810.487	51.32
810.875	51.32
811.264	51.34
811.652	51.29
812.04	51.27
812.428	51.24
812.816	51.3
813.204	51.26
813.592	51.21
813.98	51.19
814.368	51.18
814.756	51.22
815.144	51.22
815.531	51.2
815.919	51.22
816.306	51.22
816.694	51.24
817.081	51.17
817.469	51.23
817.856	51.25
818.243	51.26
818.63	51.32
819.017	51.3
819.404	51.27
819.791	51.28
820.178	51.28
820.565	51.25
820.952	51.24
821.339	51.29
821.725	51.27
822.112	51.27
822.498	51.29
822.885	51.26
823.271	51.26
823.657	51.27
824.044	51.3
824.43	51.3
824.816	51.33
825.202	51.3
825.588	51.31
825.974	51.31
826.36	51.3
826.746	51.33
827.132	51.32
827.517	51.32
827.903	51.35
828.289	51.34
828.674	51.34
829.06	51.37
829.445	51.44
829.83	51.4
830.216	51.41
830.601	51.41
830.986	51.37
831.371	51.39
831.756	51.37
832.141	51.36
832.526	51.32
832.911	51.32
833.295	51.3
833.68	51.26
834.065	51.29
834.449	51.26
834.834	51.25
835.218	51.26
835.603	51.24
835.987	51.24
836.371	51.26
836.755	51.29
837.139	51.25
837.524	51.25
837.908	51.26
838.291	51.26
838.675	51.29
839.059	51.29
839.443	51.28
839.827	51.26
840.21	51.29
840.594	51.27
840.977	51.26
841.361	51.31
841.744	51.33
842.127	51.35
842.511	51.34
842.894	51.3
843.277	51.29
843.66	51.31
844.043	51.33
844.426	51.3
844.809	51.29
845.191	51.27
845.574	51.23
845.957	51.2
846.339	51.16
846.722	51.14
847.104	51.14
847.487	51.16
847.869	51.13
848.252	51.13
848.634	51.15
849.016	51.17
849.398	51.2
849.78	51.2
850.162	51.22
850.544	51.24
850.926	51.22
851.307	51.24
851.689	51.19
852.071	51.19
852.452	51.18
852.834	51.16
853.215	51.16
853.597	51.16
853.978	51.13
854.359	51.12
854.741	51.12
855.122	51.14
855.503	51.15
855.884	51.19
856.265	51.19
856.646	51.16
857.026	51.18
857.407	51.12
857.788	51.12
858.169	51.13
858.549	51.11
858.93	51.11
859.31	51.06
859.69	51.01
860.071	51.01
860.451	51
860.831	51.02
861.211	51
861.591	51.04
861.971	51.04
862.351	51.03
862.731	51.03
863.111	51.03
863.491	51.08
863.87	51.09
864.25	51.07
864.629	51.07
865.009	51.06
865.388	51.05
865.768	51.04
866.147	51.01
866.526	51.01
866.905	51.01
867.284	50.99
867.663	51.01
868.042	51.03
868.421	51.02
868.8	51.04
869.179	51.05
869.558	51.05
869.936	51.04
870.315	51.03
870.693	51.05
871.072	51.02
871.45	51.01
871.828	50.97
872.207	50.97
872.585	50.96
872.963	50.94
873.341	50.94
873.719	50.93
874.097	50.93
874.475	50.96
874.853	50.94
875.23	50.98
875.608	51
875.986	51.02
876.363	51.03
876.741	51.04
877.118	51.03
877.495	51.04
877.873	51.05
878.25	51.06
878.627	51.05
879.004	51.08
879.381	51.05
879.758	51.03
880.135	51
880.512	50.98
880.889	50.98
881.265	50.99
881.642	50.99
882.019	50.97
882.395	50.99
882.772	50.97
883.148	50.95
883.524	50.96
883.901	50.96
884.277	50.97
884.653	50.99
885.029	50.99
885.405	50.98
885.781	50.93
886.157	50.92
886.532	50.88
886.908	50.9
887.284	50.91
887.659	50.91
888.035	50.91
888.411	50.9
888.786	50.87
889.161	50.86
889.537	50.86
889.912	50.86
890.287	50.86
890.662	50.86
891.037	50.84
891.412	50.82
891.787	50.8
892.162	50.76
892.536	50.77
892.911	50.74
893.286	50.72
893.66	50.71
894.035	50.73
894.409	50.73
894.784	50.71
895.158	50.7
895.532	50.72
895.906	50.72
896.281	50.72
896.655	50.7
897.029	50.71
897.402	50.71
897.776	50.71
898.15	50.7
898.524	50.67
898.898	50.66
899.271	50.65
899.645	50.62
900.018	50.61
900.392	50.63
900.765	50.65
901.138	50.63
901.511	50.62
901.884	50.62
902.258	50.6
902.631	50.61
903.003	50.6
903.376	50.57
903.749	50.6
904.122	50.59
904.495	50.57
904.867	50.55
905.24	50.56
905.612	50.55
905.985	50.54
906.357	50.53
906.729	50.52
907.102	50.52
907.474	50.56
907.846	50.51
908.218	50.5
908.59	50.47
908.962	50.44
909.334	50.45
909.705	50.47
910.077	50.46
910.449	50.48
910.82	50.47
911.192	50.48
911.563	50.46
911.935	50.44
912.306	50.44
912.677	50.46
913.048	50.46
913.419	50.47
913.79	50.45
914.161	50.47
914.532	50.48
914.903	50.49
915.274	50.46
915.645	50.44
916.015	50.48
916.386	50.49
916.756	50.47
917.127	50.48
917.497	50.48
917.868	50.5
918.238	50.5
918.608	50.5
918.978	50.49
919.348	50.5
919.718	50.53
920.088	50.51
920.458	50.55
920.828	50.53
921.198	50.54
921.567	50.5
921.937	50.46
922.306	50.44
922.676	50.45
923.045	50.42
923.415	50.42
923.784	50.44
924.153	50.44
924.522	50.4
924.891	50.44
925.26	50.44
925.629	50.45
925.998	50.52
926.367	50.51
926.736	50.44
927.104	50.46
927.473	50.46
927.842	50.43
928.21	50.45
928.578	50.43
928.947	50.4
929.315	50.4
929.683	50.42
930.051	50.37
930.42	50.35
930.788	50.38
931.156	50.37
931.523	50.36
931.891	50.31
932.259	50.22
932.627	50.2
932.994	50.18
933.362	50.15
933.729	50.09
934.097	50.07
934.464	50.11
934.831	50.09
935.199	50.09
935.566	50.06
935.933	50.12
936.3	50.14
936.667	50.14
937.034	50.15
937.401	50.12
937.767	50.13
938.134	50.14
938.501	50.08
938.867	50.11
939.234	50.14
939.6	50.21
939.967	50.21
940.333	50.36
940.699	50.51
941.065	50.59
941.431	50.63
941.798	50.76
942.163	50.81
942.529	50.92
942.895	51.03
943.261	51.02
943.627	51.06
943.992	51.15
944.358	51.11
944.723	51.05
945.089	51.08
945.454	51.22
945.82	51.21
946.185	51.19
946.55	51.24
946.915	51.21
947.28	51.2
947.645	51.21
948.01	51.13
948.375	51.13
948.74	51.05
949.104	51.03
949.469	50.95
949.834	50.91
950.198	50.94
950.562	50.86
950.927	50.84
951.291	50.8
951.655	50.74
952.02	50.71
952.384	50.71
952.748	50.73
953.112	50.71
953.476	50.7
953.839	50.64
954.203	50.55
954.567	50.52
954.931	50.46
955.294	50.39
955.658	50.3
956.021	50.3
956.385	50.28
956.748	50.22
957.111	50.21
957.474	50.19
957.837	50.24
958.2	50.13
958.563	50.09
958.926	50.01
959.289	50.03
959.652	50.11
960.015	50.05
960.377	50.03
960.74	50.04
961.102	49.94
961.465	49.88
961.827	49.79
962.189	49.86
962.552	49.82
962.914	49.86
963.276	49.84
963.638	49.72
964	49.69
964.362	49.62
964.724	49.63
965.085	49.7
965.447	49.65
965.809	49.63
966.17	49.63
966.532	49.69
966.893	49.72
967.255	49.69
967.616	49.73
967.977	49.77
968.338	49.75
968.699	49.72
969.061	49.65
969.421	49.65
969.782	49.67
970.143	49.64
970.504	49.59
970.865	49.5
971.225	49.56
971.586	49.62
971.946	49.62
972.307	49.61
972.667	49.66
973.027	49.71
973.388	49.69
973.748	49.71
974.108	49.73
974.468	49.74
974.828	49.86
975.188	49.8
975.548	49.74
975.907	49.8
976.267	49.86
976.627	49.82
976.986	49.79
977.346	49.83
977.705	49.75
978.064	49.75
978.424	49.8
978.783	49.82
979.142	49.86
979.501	49.88
979.86	49.79
980.219	49.68
980.578	49.72
980.937	49.8
981.296	49.79
981.654	49.92
982.013	50.01
982.371	50
982.73	49.9
983.088	49.87
983.447	49.87
983.805	49.93
984.163	50.04
984.521	50.02
984.879	49.99
985.237	50.06
985.595	50.09
985.953	50.01
986.311	49.97
986.669	50.03
987.026	50.11
987.384	50.2
987.741	50.33
988.099	50.31
988.456	50.3
988.814	50.33
989.171	50.33
989.528	50.33
989.885	50.32
990.242	50.42
990.599	50.39
990.956	50.43
991.313	50.39
991.67	50.32
992.027	50.4
992.383	50.51
992.74	50.5
993.096	50.47
993.453	50.42
993.809	50.53
994.165	50.6
994.522	50.71
994.878	50.59
995.234	50.5
995.59	50.41
995.946	50.5
996.302	50.33
996.658	50.28
997.013	50.44
997.369	50.53
997.725	50.6
998.08	50.55
998.436	50.55
998.791	50.56
999.147	50.77
999.502	50.86
999.857	50.85
1000.212	51.02
1000.567	51.09
1000.922	50.98
1001.277	50.98
1001.632	50.98
1001.987	50.93
1002.342	51.04
1002.696	51.16
1003.051	51.07
1003.406	50.99
1003.76	50.89
1004.114	50.97
1004.469	51.11
1004.823	51.38
1005.177	51.53
1005.531	51.44
1005.885	51.5
1006.239	51.37
1006.593	51.37
1006.947	51.31
1007.301	51.71
1007.655	51.79
1008.008	51.64
1008.362	51.67
1008.715	51.65
1009.069	51.67
1009.422	51.78
1009.776	52.08
1010.129	51.96
1010.482	52.25
1010.835	52.6
1011.188	52.39
1011.541	52.27
1011.894	52.54
1012.247	52.7
1012.6	52.66
1012.952	52.5
1013.305	52.49
1013.657	52.52
1014.01	52.97
1014.362	52.87
1014.715	52.74
1015.067	53.03
1015.419	53.27
1015.771	53.45
1016.123	53.38
1016.475	53.84
1016.827	54.15
1017.179	54.63
1017.531	54.59
1017.883	54.59
1018.234	54.77
1018.586	55.04
1018.938	55.04
1019.289	55.1
1019.64	55.11
1019.992	55.48
1020.343	55.15
1020.694	55.18
1021.045	55.1
1021.396	55
1021.747	55.01
1022.098	55.26
1022.449	55.44
1022.8	55.42
1023.151	55.68
1023.501	55.95
1023.852	55.9
1024.202	56.08
1024.553	56.06
1024.903	56.16
1025.253	56.58
1025.604	56.86
1025.954	56.78
1026.304	57.16
1026.654	57.6
1027.004	57.74
1027.354	57.66
1027.703	57.61
1028.053	57.39
1028.403	57.84
1028.753	58.3
1029.102	58.11
1029.452	58.07
1029.801	58.09
1030.15	57.7
1030.499	57.51
897.758	596.99
901.051	604.94
904.343	611.92
907.636	600.53
910.928	592.83
914.22	603.34
917.511	589.08
920.803	567.38
924.094	546.19
927.384	551.79
930.675	532.92
933.965	528.44
937.255	532.36
940.544	508
943.834	486.26
947.123	478.26
950.411	451.22
953.7	443.14
956.988	430.94
960.276	406.51
963.563	401.31
966.851	383.46
970.138	374.97
973.424	347.33
976.711	344.2
979.997	333.68
983.283	324.41
986.568	314.96
989.853	308.15
993.138	296.45
996.423	294.37
999.708	284.83
1002.992	284.52
1006.275	278.36
1009.559	275.52
1012.842	267.79
1016.125	257.53
1019.408	253.91
1022.69	252.74
1025.972	248.81
1029.254	242.7
1032.536	238.96
1035.817	230.55
1039.098	226.95
1042.379	221.55
1045.659	218.39
1048.939	215.18
1052.219	213.1
1055.498	208.85
1058.778	204.31
1062.057	199.87
1065.335	198.94
1068.614	195.09
1071.892	193.29
1075.17	190.48
1078.447	187.23
1081.724	185.66
1085.001	182.32
1088.278	181.95
1091.554	180.68
1094.83	179.46
1098.106	177.25
1101.382	174.92
1104.657	175.14
1107.932	173.96
1111.206	172.07
1114.481	170.17
1117.755	169.23
1121.029	168.68
1124.302	165.3
1127.575	163.47
1130.848	162.69
1134.121	160.38
1137.393	160.8
1140.665	158.78
1143.937	157.25
1147.208	154.89
1150.48	154.2
1153.75	152.75
1157.021	150.87
1160.291	150.63
1163.561	150.87
1166.831	148.98
1170.101	149.31
1173.37	148.05
1176.639	146.72
1179.907	146.96
1183.176	147.16
1186.444	146.43
1189.711	145.7
1192.979	147.74
1196.246	147.47
1199.513	145.83
1202.78	146.95
1206.046	146.35
1209.312	147.1
1212.578	148.03
1215.843	149.59
1219.108	150.68
1222.373	153.74
1225.638	156.33
1228.902	159.11
1232.166	164.08
1235.43	166.96
1238.693	171.29
1241.956	175.6
1245.219	180.53
1248.482	182.07
1251.744	181.68
1255.006	181.85
1258.268	177.38
1261.529	175.51
1264.79	171.59
1268.051	167.96
1271.312	166.47
1274.572	162.51
1277.832	158.87
1281.092	155.76
1284.351	152.96
1287.61	152.85
1290.869	151.64
1294.128	151.13
1297.386	150.13
1300.644	148.89
1303.902	148.3
1307.159	148.28
1310.416	149.03
1313.673	151.06
1316.93	152.08
1320.186	154.34
1323.442	156.35
1326.697	159.34
1329.953	160.67
1333.208	167.14
1336.463	172.66
1339.717	176.29
1342.972	183.42
1346.226	189.64
1349.479	191.15
1352.733	200.33
1355.986	203.26
1359.238	207.23
1362.491	209.01
1365.743	217.52
1368.995	217.75
1372.247	219.34
1375.498	218.23
1378.749	226.39
1382	223.35
1385.251	223.92
1388.501	222.55
1391.751	226.24
1395	224.31
1398.25	227
1401.499	225.75
1404.748	225.91
1407.996	220.9
1411.244	222.46
1414.492	216.52
1417.74	211.85
1420.987	207.2
1424.234	204.09
1427.481	195.27
1430.728	191.66
1433.974	184.03
1437.22	178.3
1440.465	171.93
1443.711	166.92
1446.956	161.03
1450.201	156
1453.445	148.82
1456.689	144.63
1459.933	138.88
1463.177	134.44
1466.42	130.81
1469.663	127.92
1472.906	123.91
1476.148	120.56
1479.391	118.16
1482.633	116.36
1485.874	113.27
1489.115	113.14
1492.356	110.03
1495.597	109.05
1498.838	108.3
1502.078	107.51
1505.318	106.71
1508.557	106.09
1511.797	105.09
1515.036	104.4
1518.274	104.04
1521.513	103.51
1524.751	102.72
1527.989	103.7
1531.227	103.23
1534.464	102.83
1537.701	101.71
1540.938	101.23
1544.174	101.34
1547.41	100.89
1550.646	100.54
1553.882	100.32
1557.117	99.49
1560.352	99.6
1563.587	98.02
1566.821	98.1
1570.055	97.59
1573.289	97.59
1576.523	97.69
1579.756	96.52
1582.989	97.32
1586.222	96.86
1589.454	96.65
1592.686	97.14
1595.918	96.39
1599.15	96.96
1602.381	97.03
1605.612	97.02
1608.843	96.61
1612.073	97.28
1615.303	98.07
1618.533	97.33
1621.762	97.71
1624.992	97.96
1628.221	97.53
1631.449	98.07
1634.678	97.73
1637.906	97.79
1641.134	97.93
1644.361	98.13
1647.588	97.5
1650.815	97.32
1654.042	98.06
1657.269	97.52
1660.495	97.71
1663.72	97.75
1666.946	97.83
1670.171	98.61
1673.396	98.75
1676.621	99.31
1679.845	99.94
1683.069	99.41
1686.293	99.44
1689.517	99.06
1692.74	99.71
1695.963	99.53
1699.185	99.89
1702.408	99.99
1705.63	100.13
1708.852	101.05
1712.073	100.4
1715.294	100.1
1718.515	101.24
1721.736	101.41
1724.956	101.91
1728.176	101.91
1731.396	102.4
1734.616	102.53
1737.835	102.73
1741.054	102.73
1744.272	101.73
1747.491	102.07
1750.709	102.72
1753.927	103.09
1757.144	102.89
1760.361	103.01
1763.578	103.72
1766.795	104.2
1770.011	104.71
1773.227	105.31
1776.443	106.01
1779.658	106.99
1782.874	107.65
1786.089	107.9
1789.303	107.89
1792.518	109.82
1795.732	110.16
1798.945	111.17
1802.159	111.58
1805.372	112.96
1808.585	113.43
1811.797	114.28
1815.01	114.63
1818.222	115.68
1821.434	116.97
1824.645	117.61
1827.856	118.82
1831.067	119.96
1834.278	120.51
1837.488	121.97
1840.698	122.58
1843.908	122.99
1847.117	124.72
1850.326	126.34
1853.535	125.96
1856.744	127.42
1859.952	129.11
1863.16	128.79
1866.368	128.14
1869.575	129.54
1872.782	129.16
1875.989	129.19
1879.196	128.88
1882.402	126.8
1885.608	127.64
1888.814	128.28
1892.019	128.85
1895.224	127.1
1898.429	127.69
1901.634	129.33
1904.838	129.06
1908.042	129.42
1911.246	128.44
1914.449	129.68
1917.652	130.14
1920.855	129.81
1924.058	129.64
1927.26	128.49
1930.462	129.39
1933.664	129.61
1936.865	128.31
1940.066	127.56
1943.267	126.88
1946.467	128
1949.668	128.16
1952.868	128.89
1956.067	128.56
1959.267	129.4
1962.466	129.97
1965.665	130.75
1968.863	131.54
1972.061	132.57
1975.259	135.15
1978.457	135.72
1981.654	136.56
1984.852	137.23
1988.048	138.34
1991.245	140.43
1994.441	142.64
1997.637	146.22
2000.833	149.3
2004.028	149.88
2007.223	155.5
2010.418	157.12
2013.613	164.46
2016.807	169.14
2020.001	172.35
2023.194	179.26
2026.388	184.75
2029.581	193.94
2032.774	198.59
2035.966	205.17
2039.158	212.48
2042.35	214.12
2045.542	219.28
2048.733	228.38
2051.924	229.39
2055.115	234.67
2058.306	234.7
2061.496	240.28
2064.686	239.62
2067.875	238.23
2071.065	239.77
2074.254	240.74
2077.442	248.4
2080.631	252.26
2083.819	251.32
2087.007	257.65
2090.195	259.31
2093.382	260.35
2096.569	260.41
2099.756	265.78
2102.942	272.3
2106.128	278.25
2109.314	277.78
2112.5	278.14
2115.685	275.57
2118.87	276.73
2122.055	278.65
2125.239	284.29
2128.424	291.47
2131.608	288.22
2134.791	286.13
2137.974	287.63
2141.157	289.57
2144.34	292.91
2147.523	298.13
2150.705	305.03
2153.887	300.7
2157.068	304.56
2160.25	308.14
2163.431	304.6
2166.611	312.96
2169.792	318.6
2172.972	325.48
2176.152	325.96
2179.331	333.91
2182.511	333.14
2185.69	336.46
2188.868	353.97
2192.047	358.48
2195.225	364.46
2198.403	370.94
2201.58	364.02
2204.758	379.34
2207.935	378.84
2211.111	387.97
2214.288	388.9
2217.464	395.32
2220.64	397.51
2223.815	398.24
2226.991	395.44
2230.166	397.81
2233.34	412.25
2236.515	423.9
2239.689	415.24
2242.863	423.15
2246.036	418.86
2249.209	432.47
2252.382	429.12
2255.555	446.72
2258.727	446.68
2261.9	462.06
2265.071	468.06
2268.243	460.99
2271.414	478.48
2274.585	489.66
2277.756	490.95
2280.926	505.63
2284.096	499.15
2287.266	505.15
2290.436	493.23
2293.605	505.83
2296.774	523.35
2299.942	523.03
2303.111	541.3
2306.279	543.68
2309.447	544.56
2312.614	542.49
2315.781	561.7
2318.948	571.51
2322.115	581.84
2325.281	611.67
2328.447	609.16
2331.613	605.78
2334.779	615.64
2337.944	624.07
2341.109	644.57
2344.274	650.13
2347.438	669.16
2350.602	675.33
2353.766	717.64
2356.929	719.13
2360.092	730.9
2363.255	733.09
2366.418	750.02
2369.58	765.13
2372.742	759.1
2375.904	752.26
2379.066	775.33
2382.227	824.3
2385.388	823.54
2388.548	783.53
2391.709	777.43
2394.869	798.88
2398.029	804.12
2401.188	799.34
2404.347	823.42
2407.506	852.28
2410.665	821.22
2413.823	824.21
2416.981	821.51
2420.139	781.06
2423.296	839.6
2426.453	891
2429.61	854.27
2432.767	905.06
2435.923	941.32
2439.079	903.1
2442.235	925.8
2445.391	946.34
2448.546	938.8
2451.701	990.7
2454.855	1054.14
2458.009	939.93
2461.163	960.09
2464.317	966.55
2467.471	946.82
2470.624	977.94
2473.777	957.77
2476.929	929.14
2480.082	995.89
2483.234	1043.38
2486.385	1056.27
2489.537	1086.65
2492.688	1178.73
2495.839	1163.23
2498.989	1198.79
2502.14	1205.16
2505.29	1147.41
2508.439	1292.8
2511.589	1325.21
2514.738	1274.45
2517.887	1262.61
2521.035	1182.69
2524.183	1167.89
2527.331	1169.28
2530.479	1134.97
2533.627	1160.09
