Data from N_1_hir_il_4n_021_Splice17_20.txt Node
Date: Sat Feb 29 13:42:23 EST 2020
User: sa697716
Spectrometer: FLMS03696
Trigger mode: 0
Integration Time (sec): 3.180400E-1
Scans to average: 20
Electric dark correction enabled: true
Nonlinearity correction enabled: true
Boxcar width: 5
XAxis mode: Wavelengths
Number of Pixels in Spectrum: 2048
>>>>>Begin Spectral Data<<<<<
187.83	66.41
188.298	51.09
188.766	47.11
189.233	39.21
189.701	46.72
190.169	56.16
190.636	48.62
191.104	18.97
191.571	-17.42
192.039	203.61
192.506	-163.91
192.974	2251.26
193.441	210.98
193.908	-17.2
194.375	-97.12
194.842	-37.39
195.31	48.75
195.777	31.54
196.244	13.67
196.711	15.31
197.177	15.24
197.644	16.01
198.111	15.55
198.578	15.34
199.045	16.61
199.511	16.53
199.978	16.99
200.445	17.02
200.911	16.95
201.378	17.35
201.844	18.19
202.31	19.09
202.777	19.09
203.243	19.49
203.709	20.52
204.176	20.25
204.642	20.75
205.108	20.44
205.574	20.77
206.04	21.18
206.506	21.08
206.972	20.86
207.438	20.46
207.903	21.2
208.369	20.97
208.835	20.75
209.301	20.83
209.766	20.96
210.232	21.38
210.697	21.36
211.163	21.56
211.628	21.37
212.094	21.63
212.559	21.73
213.024	21.46
213.49	21.49
213.955	21.19
214.42	21.03
214.885	20.56
215.35	20.62
215.815	20.36
216.28	20.29
216.745	20.38
217.21	20.28
217.675	20.28
218.14	20.05
218.604	19.95
219.069	19.96
219.534	19.79
219.998	19.64
220.463	19.55
220.927	19.48
221.392	19.26
221.856	19.12
222.32	18.94
222.785	18.76
223.249	18.66
223.713	18.52
224.177	18.33
224.642	18.21
225.106	18.07
225.57	17.87
226.034	17.75
226.497	17.6
226.961	17.38
227.425	17.19
227.889	17.03
228.353	16.81
228.816	16.65
229.28	16.43
229.744	16.26
230.207	16.08
230.671	15.92
231.134	15.72
231.597	15.56
232.061	15.41
232.524	15.28
232.987	15.1
233.45	14.96
233.914	14.8
234.377	14.68
234.84	14.54
235.303	14.41
235.766	14.27
236.229	14.13
236.691	13.99
237.154	13.88
237.617	13.73
238.08	13.61
238.542	13.49
239.005	13.36
239.468	13.22
239.93	13.1
240.393	12.98
240.855	12.85
241.317	12.74
241.78	12.64
242.242	12.51
242.704	12.44
243.166	12.35
243.629	12.25
244.091	12.16
244.553	12.08
245.015	11.99
245.477	11.9
245.939	11.84
246.4	11.76
246.862	11.68
247.324	11.63
247.786	11.56
248.247	11.5
248.709	11.45
249.17	11.39
249.632	11.34
250.093	11.28
250.555	11.24
251.016	11.19
251.477	11.14
251.939	11.12
252.4	11.05
252.861	11.01
253.322	10.97
253.783	10.93
254.244	10.9
254.705	10.85
255.166	10.84
255.627	10.79
256.088	10.74
256.549	10.71
257.009	10.66
257.47	10.64
257.931	10.6
258.391	10.56
258.852	10.54
259.312	10.51
259.773	10.48
260.233	10.45
260.694	10.43
261.154	10.41
261.614	10.39
262.074	10.36
262.534	10.32
262.994	10.29
263.455	10.27
263.915	10.23
264.374	10.19
264.834	10.18
265.294	10.14
265.754	10.12
266.214	10.1
266.673	10.07
267.133	10.05
267.593	10.03
268.052	10.01
268.512	9.98
268.971	9.97
269.431	9.96
269.89	9.94
270.349	9.92
270.809	9.89
271.268	9.88
271.727	9.86
272.186	9.84
272.645	9.82
273.104	9.8
273.563	9.78
274.022	9.75
274.481	9.72
274.94	9.7
275.399	9.67
275.857	9.64
276.316	9.6
276.775	9.57
277.233	9.53
277.692	9.5
278.15	9.46
278.609	9.43
279.067	9.39
279.525	9.36
279.984	9.33
280.442	9.3
280.9	9.27
281.358	9.24
281.816	9.22
282.274	9.18
282.732	9.15
283.19	9.13
283.648	9.1
284.106	9.06
284.564	9.03
285.021	9
285.479	8.99
285.937	8.95
286.394	8.92
286.852	8.9
287.309	8.88
287.767	8.86
288.224	8.84
288.682	8.81
289.139	8.8
289.596	8.77
290.053	8.74
290.511	8.7
290.968	8.69
291.425	8.66
291.882	8.65
292.339	8.62
292.796	8.59
293.252	8.56
293.709	8.55
294.166	8.52
294.623	8.49
295.079	8.48
295.536	8.46
295.992	8.44
296.449	8.42
296.905	8.39
297.362	8.37
297.818	8.35
298.274	8.33
298.731	8.3
299.187	8.29
299.643	8.27
300.099	8.25
300.555	8.23
301.011	8.22
301.467	8.2
301.923	8.18
302.379	8.16
302.835	8.14
303.291	8.13
303.746	8.11
304.202	8.1
304.658	8.08
305.113	8.07
305.569	8.05
306.024	8.02
306.479	8
306.935	7.98
307.39	7.96
307.845	7.93
308.301	7.92
308.756	7.91
309.211	7.89
309.666	7.88
310.121	7.86
310.576	7.84
311.031	7.83
311.486	7.83
311.94	7.82
312.395	7.81
312.85	7.81
313.305	7.79
313.759	7.78
314.214	7.76
314.668	7.75
315.123	7.74
315.577	7.73
316.032	7.72
316.486	7.7
316.94	7.69
317.394	7.68
317.849	7.67
318.303	7.66
318.757	7.63
319.211	7.62
319.665	7.61
320.119	7.61
320.572	7.61
321.026	7.6
321.48	7.6
321.934	7.58
322.387	7.57
322.841	7.56
323.295	7.56
323.748	7.56
324.202	7.54
324.655	7.52
325.108	7.49
325.562	7.46
326.015	7.43
326.468	7.42
326.921	7.4
327.374	7.38
327.827	7.36
328.28	7.34
328.733	7.32
329.186	7.31
329.639	7.31
330.092	7.31
330.545	7.31
330.997	7.31
331.45	7.3
331.903	7.29
332.355	7.28
332.808	7.28
333.26	7.26
333.713	7.26
334.165	7.24
334.617	7.23
335.069	7.21
335.522	7.21
335.974	7.21
336.426	7.21
336.878	7.2
337.33	7.19
337.782	7.19
338.234	7.2
338.686	7.19
339.137	7.19
339.589	7.18
340.041	7.17
340.493	7.15
340.944	7.13
341.396	7.12
341.847	7.1
342.299	7.09
342.75	7.07
343.201	7.04
343.653	7.03
344.104	7.01
344.555	7.01
345.006	6.99
345.457	6.99
345.908	6.99
346.359	6.98
346.81	6.97
347.261	6.96
347.712	6.95
348.163	6.95
348.613	6.93
349.064	6.92
349.515	6.9
349.965	6.88
350.416	6.86
350.866	6.85
351.317	6.84
351.767	6.84
352.217	6.83
352.668	6.81
353.118	6.8
353.568	6.8
354.018	6.8
354.468	6.79
354.918	6.8
355.368	6.8
355.818	6.78
356.268	6.77
356.718	6.77
357.168	6.75
357.617	6.74
358.067	6.73
358.517	6.72
358.966	6.72
359.416	6.73
359.865	6.73
360.315	6.72
360.764	6.74
361.213	6.73
361.663	6.73
362.112	6.74
362.561	6.74
363.01	6.75
363.459	6.74
363.908	6.75
364.357	6.74
364.806	6.74
365.255	6.74
365.703	6.73
366.152	6.73
366.601	6.73
367.05	6.73
367.498	6.74
367.947	6.73
368.395	6.75
368.844	6.74
369.292	6.75
369.74	6.76
370.189	6.76
370.637	6.77
371.085	6.78
371.533	6.8
371.981	6.81
372.429	6.82
372.877	6.84
373.325	6.85
373.773	6.87
374.221	6.88
374.669	6.89
375.116	6.91
375.564	6.91
376.012	6.92
376.459	6.94
376.907	6.95
377.354	6.96
377.801	6.98
378.249	6.99
378.696	7
379.143	7.02
379.591	7.03
380.038	7.06
380.485	7.08
380.932	7.09
381.379	7.09
381.826	7.12
382.273	7.12
382.72	7.14
383.166	7.15
383.613	7.17
384.06	7.19
384.506	7.21
384.953	7.22
385.4	7.24
385.846	7.25
386.292	7.27
386.739	7.27
387.185	7.3
387.631	7.31
388.078	7.33
388.524	7.32
388.97	7.33
389.416	7.33
389.862	7.33
390.308	7.34
390.754	7.35
391.2	7.37
391.645	7.4
392.091	7.41
392.537	7.42
392.983	7.44
393.428	7.48
393.874	7.51
394.319	7.54
394.765	7.54
395.21	7.55
395.655	7.56
396.101	7.56
396.546	7.57
396.991	7.58
397.436	7.56
397.881	7.57
398.326	7.57
398.771	7.58
399.216	7.59
399.661	7.62
400.106	7.65
400.551	7.66
400.995	7.67
401.44	7.67
401.885	7.68
402.329	7.69
402.774	7.69
403.218	7.7
403.663	7.68
404.107	7.69
404.551	7.7
404.995	7.68
405.44	7.68
405.884	7.69
406.328	7.68
406.772	7.69
407.216	7.69
407.66	7.69
408.104	7.68
408.547	7.68
408.991	7.67
409.435	7.65
409.879	7.65
410.322	7.66
410.766	7.64
411.209	7.64
411.653	7.63
412.096	7.62
412.54	7.61
412.983	7.61
413.426	7.61
413.869	7.62
414.312	7.63
414.756	7.62
415.199	7.63
415.642	7.66
416.085	7.66
416.527	7.66
416.97	7.67
417.413	7.68
417.856	7.68
418.298	7.67
418.741	7.66
419.184	7.64
419.626	7.64
420.069	7.62
420.511	7.61
420.953	7.61
421.396	7.6
421.838	7.6
422.28	7.6
422.722	7.6
423.164	7.6
423.606	7.61
424.048	7.6
424.49	7.61
424.932	7.61
425.374	7.6
425.816	7.6
426.258	7.58
426.699	7.55
427.141	7.52
427.582	7.5
428.024	7.48
428.465	7.44
428.907	7.45
429.348	7.43
429.789	7.42
430.231	7.39
430.672	7.36
431.113	7.35
431.554	7.35
431.995	7.36
432.436	7.34
432.877	7.33
433.318	7.32
433.759	7.3
434.2	7.28
434.64	7.26
435.081	7.24
435.522	7.25
435.962	7.24
436.403	7.24
436.843	7.23
437.284	7.26
437.724	7.27
438.164	7.26
438.604	7.27
439.045	7.26
439.485	7.26
439.925	7.27
440.365	7.26
440.805	7.25
441.245	7.23
441.685	7.23
442.125	7.19
442.564	7.18
443.004	7.19
443.444	7.16
443.883	7.16
444.323	7.14
444.762	7.12
445.202	7.14
445.641	7.13
446.081	7.14
446.52	7.12
446.959	7.12
447.398	7.12
447.837	7.13
448.276	7.13
448.716	7.16
449.154	7.18
449.593	7.18
450.032	7.17
450.471	7.18
450.91	7.18
451.349	7.19
451.787	7.19
452.226	7.17
452.664	7.13
453.103	7.12
453.541	7.09
453.98	7.06
454.418	7.05
454.856	7.02
455.295	6.99
455.733	6.97
456.171	6.96
456.609	6.96
457.047	6.95
457.485	6.96
457.923	6.96
458.361	6.95
458.798	6.97
459.236	6.97
459.674	6.97
460.111	6.98
460.549	6.98
460.987	6.98
461.424	6.95
461.862	6.96
462.299	6.96
462.736	6.95
463.173	6.95
463.611	6.95
464.048	6.95
464.485	6.95
464.922	6.94
465.359	6.94
465.796	6.92
466.233	6.95
466.67	6.93
467.106	6.91
467.543	6.92
467.98	6.93
468.416	6.92
468.853	6.9
469.29	6.91
469.726	6.91
470.162	6.9
470.599	6.9
471.035	6.87
471.471	6.88
471.907	6.89
472.344	6.88
472.78	6.87
473.216	6.87
473.652	6.87
474.088	6.86
474.523	6.86
474.959	6.85
475.395	6.86
475.831	6.86
476.266	6.86
476.702	6.84
477.138	6.83
477.573	6.81
478.008	6.81
478.444	6.81
478.879	6.8
479.314	6.79
479.75	6.79
480.185	6.77
480.62	6.76
481.055	6.76
481.49	6.76
481.925	6.76
482.36	6.76
482.795	6.75
483.229	6.74
483.664	6.74
484.099	6.75
484.534	6.74
484.968	6.75
485.403	6.75
485.837	6.75
486.271	6.76
486.706	6.75
487.14	6.76
487.574	6.77
488.009	6.78
488.443	6.78
488.877	6.78
489.311	6.79
489.745	6.8
490.179	6.81
490.613	6.82
491.046	6.83
491.48	6.86
491.914	6.87
492.348	6.88
492.781	6.89
493.215	6.9
493.648	6.91
494.082	6.95
494.515	6.96
494.948	6.99
495.382	7.01
495.815	7.03
496.248	7.05
496.681	7.08
497.114	7.1
497.547	7.12
497.98	7.15
498.413	7.18
498.846	7.2
499.279	7.24
499.711	7.26
500.144	7.28
500.577	7.33
501.009	7.37
501.442	7.42
501.874	7.47
502.306	7.51
502.739	7.55
503.171	7.61
503.603	7.67
504.036	7.72
504.468	7.8
504.9	7.87
505.332	7.93
505.764	8
506.196	8.08
506.627	8.16
507.059	8.25
507.491	8.35
507.923	8.45
508.354	8.54
508.786	8.63
509.217	8.72
509.649	8.83
510.08	8.93
510.512	9.05
510.943	9.16
511.374	9.29
511.805	9.39
512.237	9.51
512.668	9.62
513.099	9.74
513.53	9.89
513.961	10.03
514.391	10.18
514.822	10.3
515.253	10.45
515.684	10.57
516.114	10.72
516.545	10.88
516.975	11.03
517.406	11.2
517.836	11.34
518.267	11.49
518.697	11.65
519.127	11.8
519.558	11.97
519.988	12.13
520.418	12.29
520.848	12.43
521.278	12.58
521.708	12.61
522.138	12.74
522.567	12.88
522.997	13.02
523.427	13.16
523.857	13.28
524.286	13.43
524.716	13.55
525.145	13.69
525.575	13.81
526.004	13.92
526.433	14.17
526.863	14.33
527.292	14.45
527.721	14.57
528.15	14.68
528.579	14.78
529.008	14.87
529.437	14.98
529.866	15.06
530.295	15.17
530.724	15.27
531.152	15.36
531.581	15.42
532.01	15.48
532.438	15.54
532.867	15.61
533.295	15.69
533.723	15.76
534.152	15.8
534.58	15.84
535.008	15.88
535.436	15.92
535.865	15.94
536.293	15.97
536.721	16.01
537.149	16.04
537.576	16.08
538.004	16.1
538.432	16.13
538.86	16.16
539.287	16.2
539.715	16.23
540.143	16.24
540.57	16.27
540.998	16.28
541.425	16.31
541.852	16.33
542.28	16.33
542.707	16.35
543.134	16.36
543.561	16.36
543.988	16.37
544.415	16.38
544.842	16.41
545.269	16.44
545.696	16.46
546.123	16.47
546.549	16.48
546.976	16.51
547.403	16.53
547.829	16.54
548.256	16.55
548.682	16.55
549.108	16.56
549.535	16.55
549.961	16.54
550.387	16.53
550.813	16.52
551.24	16.51
551.666	16.5
552.092	16.49
552.518	16.47
552.943	16.46
553.369	16.45
553.795	16.44
554.221	16.41
554.646	16.38
555.072	16.36
555.498	16.32
555.923	16.3
556.349	16.24
556.774	16.21
557.199	16.17
557.625	16.13
558.05	16.08
558.475	16.01
558.9	15.96
559.325	15.9
559.75	15.82
560.175	15.77
560.6	15.7
561.025	15.64
561.449	15.57
561.874	15.49
562.299	15.42
562.723	15.35
563.148	15.27
563.572	15.19
563.997	15.1
564.421	15.02
564.846	14.94
565.27	14.84
565.694	14.75
566.118	14.65
566.542	14.57
566.966	14.46
567.39	14.36
567.814	14.26
568.238	14.16
568.662	14.07
569.086	13.97
569.509	13.86
569.933	13.76
570.357	13.65
570.78	13.55
571.204	13.44
571.627	13.34
572.05	13.25
572.474	13.17
572.897	13.07
573.32	12.98
573.743	12.89
574.166	12.82
574.589	12.74
575.012	12.68
575.435	12.6
575.858	12.55
576.281	12.48
576.704	12.4
577.126	12.33
577.549	12.28
577.972	12.22
578.394	12.16
578.817	12.09
579.239	12.04
579.661	11.97
580.084	11.93
580.506	11.88
580.928	11.83
581.35	11.78
581.772	11.74
582.194	11.67
582.616	11.64
583.038	11.59
583.46	11.56
583.882	11.53
584.303	11.5
584.725	11.44
585.147	11.37
585.568	11.33
585.99	11.3
586.411	11.25
586.833	11.23
587.254	11.2
587.675	11.17
588.096	11.12
588.518	11.09
588.939	11.06
589.36	11.05
589.781	11.04
590.202	11.02
590.623	11
591.043	10.97
591.464	10.94
591.885	10.91
592.305	10.9
592.726	10.88
593.147	10.86
593.567	10.84
593.987	10.82
594.408	10.79
594.828	10.77
595.248	10.75
595.669	10.74
596.089	10.72
596.509	10.69
596.929	10.66
597.349	10.63
597.769	10.61
598.189	10.59
598.608	10.57
599.028	10.54
599.448	10.53
599.867	10.52
600.287	10.5
600.706	10.48
601.126	10.46
601.545	10.44
601.965	10.42
602.384	10.39
602.803	10.36
603.222	10.32
603.641	10.29
604.061	10.25
604.48	10.21
604.898	10.17
605.317	10.14
605.736	10.1
606.155	10.06
606.574	10.02
606.992	9.98
607.411	9.94
607.829	9.87
608.248	9.83
608.666	9.79
609.085	9.75
609.503	9.69
609.921	9.65
610.339	9.62
610.758	9.58
611.176	9.55
611.594	9.51
612.012	9.47
612.43	9.47
612.847	9.43
613.265	9.39
613.683	9.35
614.101	9.31
614.518	9.27
614.936	9.24
615.353	9.2
615.771	9.17
616.188	9.14
616.606	9.11
617.023	9.07
617.44	9.05
617.857	9.02
618.274	9
618.691	8.99
619.108	8.97
619.525	8.94
619.942	8.91
620.359	8.9
620.776	8.87
621.192	8.86
621.609	8.84
622.026	8.82
622.442	8.81
622.859	8.8
623.275	8.79
623.691	8.79
624.108	8.78
624.524	8.77
624.94	8.75
625.356	8.75
625.772	8.75
626.188	8.75
626.604	8.75
627.02	8.75
627.436	8.74
627.852	8.72
628.268	8.72
628.683	8.71
629.099	8.7
629.514	8.71
629.93	8.69
630.345	8.67
630.761	8.65
631.176	8.64
631.591	8.61
632.007	8.59
632.422	8.58
632.837	8.56
633.252	8.53
633.667	8.49
634.082	8.47
634.497	8.41
634.911	8.37
635.326	8.35
635.741	8.3
636.155	8.26
636.57	8.22
636.984	8.16
637.399	8.1
637.813	8.04
638.228	8
638.642	7.96
639.056	7.94
639.47	7.9
639.884	7.84
640.298	7.81
640.712	7.76
641.126	7.71
641.54	7.68
641.954	7.65
642.368	7.62
642.781	7.57
643.195	7.53
643.609	7.48
644.022	7.45
644.436	7.41
644.849	7.37
645.262	7.35
645.676	7.3
646.089	7.27
646.502	7.23
646.915	7.2
647.328	7.19
647.741	7.14
648.154	7.12
648.567	7.09
648.98	7.07
649.393	7.06
649.805	7.02
650.218	7.01
650.631	7
651.043	6.99
651.456	6.96
651.868	6.94
652.28	6.92
652.693	6.9
653.105	6.87
653.517	6.85
653.929	6.84
654.341	6.84
654.753	6.84
655.165	6.82
655.577	6.79
655.989	6.77
656.401	6.75
656.813	6.73
657.224	6.71
657.636	6.7
658.047	6.67
658.459	6.62
658.87	6.58
659.282	6.55
659.693	6.53
660.104	6.51
660.515	6.49
660.926	6.48
661.338	6.45
661.749	6.42
662.159	6.4
662.57	6.38
662.981	6.38
663.392	6.35
663.803	6.33
664.213	6.31
664.624	6.29
665.035	6.26
665.445	6.24
665.855	6.24
666.266	6.24
666.676	6.23
667.086	6.22
667.497	6.2
667.907	6.2
668.317	6.19
668.727	6.19
669.137	6.18
669.547	6.19
669.956	6.2
670.366	6.21
670.776	6.21
671.186	6.22
671.595	6.23
672.005	6.25
672.414	6.26
672.824	6.28
673.233	6.3
673.642	6.31
674.052	6.32
674.461	6.33
674.87	6.34
675.279	6.36
675.688	6.36
676.097	6.37
676.506	6.38
676.915	6.4
677.323	6.41
677.732	6.43
678.141	6.46
678.549	6.49
678.958	6.51
679.366	6.52
679.775	6.55
680.183	6.59
680.592	6.63
681	6.64
681.408	6.68
681.816	6.71
682.224	6.75
682.632	6.78
683.04	6.82
683.448	6.86
683.856	6.93
684.264	6.98
684.671	7.05
685.079	7.11
685.487	7.21
685.894	7.29
686.302	7.38
686.709	7.46
687.116	7.57
687.524	7.68
687.931	7.8
688.338	7.94
688.745	8.09
689.152	8.25
689.559	8.43
689.966	8.6
690.373	8.8
690.78	9.02
691.187	9.26
691.593	9.49
692	9.75
692.407	10.03
692.813	10.31
693.22	10.59
693.626	10.88
694.032	11.17
694.439	11.51
694.845	11.83
695.251	12.15
695.657	12.47
696.063	12.8
696.469	13.14
696.875	13.48
697.281	13.8
697.687	14.16
698.093	14.51
698.498	14.87
698.904	15.22
699.31	15.58
699.715	15.95
700.12	16.33
700.526	16.71
700.931	17.06
701.337	17.43
701.742	17.8
702.147	18.18
702.552	18.57
702.957	18.94
703.362	19.31
703.767	19.65
704.172	20.02
704.577	20.36
704.981	20.72
705.386	21.09
705.791	21.44
706.195	21.77
706.6	22.09
707.004	22.41
707.408	22.73
707.813	23.03
708.217	23.36
708.621	23.66
709.025	24
709.43	24.28
709.834	24.6
710.237	24.89
710.641	25.23
711.045	25.54
711.449	25.83
711.853	26.13
712.256	26.43
712.66	26.72
713.064	27.02
713.467	27.3
713.87	27.59
714.274	27.85
714.677	28.12
715.08	28.35
715.484	28.63
715.887	28.9
716.29	29.17
716.693	29.42
717.096	29.66
717.499	29.91
717.901	30.14
718.304	30.37
718.707	30.59
719.109	30.85
719.512	31.11
719.915	31.33
720.317	31.56
720.719	31.77
721.122	32
721.524	32.23
721.926	32.45
722.328	32.65
722.731	32.88
723.133	33.12
723.535	33.32
723.937	33.49
724.338	33.64
724.74	33.84
725.142	33.97
725.544	34.11
725.945	34.27
726.347	34.42
726.748	34.56
727.15	34.71
727.551	34.84
727.952	34.97
728.354	35.13
728.755	35.3
729.156	35.42
729.557	35.61
729.958	35.76
730.359	35.87
730.76	35.97
731.161	36.09
731.562	36.21
731.962	36.3
732.363	36.38
732.763	36.48
733.164	36.55
733.564	36.63
733.965	36.67
734.365	36.77
734.766	36.86
735.166	36.95
735.566	37
735.966	37.03
736.366	37.09
736.766	37.15
737.166	37.22
737.566	37.26
737.966	37.32
738.365	37.39
738.765	37.42
739.165	37.45
739.564	37.5
739.964	37.55
740.363	37.63
740.763	37.7
741.162	37.72
741.561	37.76
741.96	37.83
742.36	37.88
742.759	37.9
743.158	37.92
743.557	37.97
743.955	38.03
744.354	38.08
744.753	38.09
745.152	38.12
745.55	38.18
745.949	38.18
746.348	38.2
746.746	38.19
747.144	38.25
747.543	38.3
747.941	38.35
748.339	38.36
748.737	38.41
749.136	38.43
749.534	38.44
749.932	38.44
750.33	38.5
750.727	38.51
751.125	38.53
751.523	38.53
751.921	38.53
752.318	38.51
752.716	38.53
753.113	38.51
753.511	38.52
753.908	38.51
754.305	38.51
754.703	38.49
755.1	38.48
755.497	38.49
755.894	38.47
756.291	38.46
756.688	38.47
757.085	38.43
757.482	38.4
757.878	38.41
758.275	38.41
758.672	38.44
759.068	38.44
759.465	38.44
759.861	38.43
760.258	38.47
760.654	38.49
761.05	38.49
761.447	38.51
761.843	38.52
762.239	38.51
762.635	38.54
763.031	38.56
763.427	38.54
763.822	38.53
764.218	38.55
764.614	38.54
765.01	38.5
765.405	38.47
765.801	38.46
766.196	38.44
766.592	38.46
766.987	38.45
767.382	38.42
767.778	38.42
768.173	38.44
768.568	38.41
768.963	38.4
769.358	38.42
769.753	38.47
770.148	38.47
770.542	38.5
770.937	38.49
771.332	38.47
771.726	38.46
772.121	38.47
772.515	38.46
772.91	38.45
773.304	38.44
773.699	38.41
774.093	38.37
774.487	38.36
774.881	38.37
775.275	38.36
775.669	38.36
776.063	38.33
776.457	38.33
776.851	38.28
777.245	38.29
777.638	38.3
778.032	38.31
778.425	38.3
778.819	38.32
779.212	38.31
779.606	38.3
779.999	38.29
780.392	38.32
780.786	38.33
781.179	38.38
781.572	38.36
781.965	38.36
782.358	38.32
782.751	38.34
783.143	38.33
783.536	38.32
783.929	38.33
784.322	38.34
784.714	38.37
785.107	38.36
785.499	38.36
785.891	38.37
786.284	38.37
786.676	38.39
787.068	38.41
787.46	38.41
787.852	38.39
788.245	38.38
788.636	38.37
789.028	38.32
789.42	38.31
789.812	38.31
790.204	38.27
790.595	38.26
790.987	38.26
791.378	38.24
791.77	38.24
792.161	38.27
792.553	38.27
792.944	38.29
793.335	38.32
793.726	38.31
794.117	38.3
794.508	38.32
794.899	38.33
795.29	38.34
795.681	38.34
796.072	38.34
796.463	38.31
796.853	38.32
797.244	38.32
797.634	38.29
798.025	38.32
798.415	38.31
798.806	38.32
799.196	38.33
799.586	38.31
799.976	38.32
800.366	38.3
800.756	38.33
801.146	38.31
801.536	38.28
801.926	38.3
802.316	38.27
802.706	38.3
803.095	38.32
803.485	38.29
803.874	38.27
804.264	38.28
804.653	38.26
805.043	38.23
805.432	38.21
805.821	38.21
806.21	38.2
806.599	38.21
806.988	38.22
807.377	38.21
807.766	38.19
808.155	38.2
808.544	38.17
808.933	38.2
809.321	38.22
809.71	38.28
810.098	38.25
810.487	38.25
810.875	38.22
811.264	38.19
811.652	38.16
812.04	38.19
812.428	38.21
812.816	38.24
813.204	38.23
813.592	38.19
813.98	38.15
814.368	38.18
814.756	38.17
815.144	38.2
815.531	38.19
815.919	38.19
816.306	38.18
816.694	38.19
817.081	38.14
817.469	38.15
817.856	38.2
818.243	38.21
818.63	38.23
819.017	38.24
819.404	38.22
819.791	38.21
820.178	38.24
820.565	38.23
820.952	38.22
821.339	38.24
821.725	38.24
822.112	38.22
822.498	38.25
822.885	38.23
823.271	38.24
823.657	38.27
824.044	38.24
824.43	38.24
824.816	38.23
825.202	38.21
825.588	38.21
825.974	38.2
826.36	38.19
826.746	38.17
827.132	38.14
827.517	38.11
827.903	38.09
828.289	38.11
828.674	38.08
829.06	38.09
829.445	38.12
829.83	38.1
830.216	38.12
830.601	38.13
830.986	38.12
831.371	38.15
831.756	38.15
832.141	38.16
832.526	38.15
832.911	38.18
833.295	38.19
833.68	38.19
834.065	38.21
834.449	38.18
834.834	38.14
835.218	38.15
835.603	38.13
835.987	38.14
836.371	38.13
836.755	38.14
837.139	38.13
837.524	38.12
837.908	38.09
838.291	38.07
838.675	38.09
839.059	38.1
839.443	38.1
839.827	38.09
840.21	38.09
840.594	38.09
840.977	38.07
841.361	38.06
841.744	38.07
842.127	38.06
842.511	38.06
842.894	38.03
843.277	38.05
843.66	38.06
844.043	38.07
844.426	38.08
844.809	38.05
845.191	38.04
845.574	38.05
845.957	38.02
846.339	38.03
846.722	38.03
847.104	38.04
847.487	38.02
847.869	37.97
848.252	37.95
848.634	37.95
849.016	37.98
849.398	38.01
849.78	38.01
850.162	38
850.544	38.02
850.926	38.02
851.307	38.05
851.689	38.04
852.071	38.05
852.452	38.04
852.834	38.03
853.215	38.01
853.597	37.98
853.978	37.96
854.359	37.97
854.741	37.96
855.122	37.96
855.503	37.94
855.884	37.93
856.265	37.93
856.646	37.95
857.026	37.96
857.407	37.93
857.788	37.95
858.169	37.94
858.549	37.96
858.93	37.94
859.31	37.91
859.69	37.9
860.071	37.91
860.451	37.9
860.831	37.9
861.211	37.9
861.591	37.91
861.971	37.87
862.351	37.88
862.731	37.86
863.111	37.88
863.491	37.89
863.87	37.89
864.25	37.91
864.629	37.9
865.009	37.9
865.388	37.88
865.768	37.89
866.147	37.92
866.526	37.93
866.905	37.91
867.284	37.89
867.663	37.88
868.042	37.91
868.421	37.9
868.8	37.89
869.179	37.9
869.558	37.92
869.936	37.92
870.315	37.91
870.693	37.91
871.072	37.92
871.45	37.92
871.828	37.91
872.207	37.93
872.585	37.92
872.963	37.92
873.341	37.92
873.719	37.91
874.097	37.9
874.475	37.91
874.853	37.92
875.23	37.92
875.608	37.91
875.986	37.9
876.363	37.86
876.741	37.86
877.118	37.86
877.495	37.85
877.873	37.84
878.25	37.83
878.627	37.81
879.004	37.81
879.381	37.81
879.758	37.82
880.135	37.84
880.512	37.84
880.889	37.85
881.265	37.9
881.642	37.9
882.019	37.92
882.395	37.93
882.772	37.95
883.148	37.94
883.524	37.96
883.901	37.97
884.277	37.96
884.653	37.96
885.029	37.92
885.405	37.88
885.781	37.89
886.157	37.92
886.532	37.92
886.908	37.93
887.284	37.94
887.659	37.96
888.035	37.95
888.411	37.95
888.786	37.97
889.161	38.02
889.537	38.02
889.912	38.01
890.287	37.98
890.662	37.99
891.037	37.97
891.412	37.94
891.787	37.91
892.162	37.89
892.536	37.87
892.911	37.83
893.286	37.79
893.66	37.79
894.035	37.77
894.409	37.76
894.784	37.75
895.158	37.74
895.532	37.76
895.906	37.76
896.281	37.77
896.655	37.77
897.029	37.77
897.402	37.78
897.776	37.76
898.15	37.76
898.524	37.75
898.898	37.72
899.271	37.7
899.645	37.67
900.018	37.66
900.392	37.67
900.765	37.69
901.138	37.69
901.511	37.67
901.884	37.66
902.258	37.66
902.631	37.67
903.003	37.7
903.376	37.69
903.749	37.73
904.122	37.75
904.495	37.74
904.867	37.71
905.24	37.7
905.612	37.72
905.985	37.75
906.357	37.73
906.729	37.71
907.102	37.71
907.474	37.75
907.846	37.72
908.218	37.69
908.59	37.7
908.962	37.72
909.334	37.73
909.705	37.72
910.077	37.71
910.449	37.73
910.82	37.75
911.192	37.77
911.563	37.72
911.935	37.74
912.306	37.75
912.677	37.76
913.048	37.75
913.419	37.73
913.79	37.71
914.161	37.72
914.532	37.71
914.903	37.69
915.274	37.66
915.645	37.71
916.015	37.71
916.386	37.71
916.756	37.7
917.127	37.72
917.497	37.74
917.868	37.78
918.238	37.8
918.608	37.8
918.978	37.83
919.348	37.8
919.718	37.74
920.088	37.73
920.458	37.74
920.828	37.76
921.198	37.74
921.567	37.71
921.937	37.7
922.306	37.65
922.676	37.64
923.045	37.61
923.415	37.62
923.784	37.63
924.153	37.64
924.522	37.62
924.891	37.61
925.26	37.59
925.629	37.61
925.998	37.61
926.367	37.64
926.736	37.66
927.104	37.68
927.473	37.71
927.842	37.7
928.21	37.7
928.578	37.7
928.947	37.69
929.315	37.7
929.683	37.71
930.051	37.72
930.42	37.72
930.788	37.71
931.156	37.68
931.523	37.64
931.891	37.66
932.259	37.61
932.627	37.58
932.994	37.55
933.362	37.5
933.729	37.45
934.097	37.38
934.464	37.33
934.831	37.32
935.199	37.3
935.566	37.25
935.933	37.19
936.3	37.15
936.667	37.12
937.034	37.11
937.401	37.09
937.767	37.07
938.134	37.01
938.501	36.98
938.867	36.94
939.234	36.97
939.6	36.99
939.967	36.98
940.333	37.02
940.699	37.06
941.065	37.08
941.431	37.09
941.798	37.11
942.163	37.19
942.529	37.18
942.895	37.19
943.261	37.18
943.627	37.22
943.992	37.26
944.358	37.22
944.723	37.17
945.089	37.17
945.454	37.24
945.82	37.26
946.185	37.25
946.55	37.36
946.915	37.36
947.28	37.38
947.645	37.37
948.01	37.4
948.375	37.43
948.74	37.46
949.104	37.49
949.469	37.38
949.834	37.38
950.198	37.38
950.562	37.36
950.927	37.35
951.291	37.29
951.655	37.28
952.02	37.26
952.384	37.29
952.748	37.29
953.112	37.24
953.476	37.32
953.839	37.28
954.203	37.32
954.567	37.27
954.931	37.29
955.294	37.32
955.658	37.26
956.021	37.26
956.385	37.22
956.748	37.2
957.111	37.22
957.474	37.21
957.837	37.19
958.2	37.11
958.563	37.11
958.926	37.08
959.289	37.06
959.652	37.07
960.015	37.05
960.377	37.08
960.74	37.05
961.102	37.01
961.465	36.97
961.827	36.94
962.189	36.93
962.552	36.96
962.914	36.92
963.276	36.89
963.638	36.92
964	36.91
964.362	36.9
964.724	36.93
965.085	36.99
965.447	36.99
965.809	36.98
966.17	37.01
966.532	36.99
966.893	37.05
967.255	37.11
967.616	37.14
967.977	37.07
968.338	37.1
968.699	37.08
969.061	37.02
969.421	36.99
969.782	37.04
970.143	37.04
970.504	37.03
970.865	36.9
971.225	36.91
971.586	36.87
971.946	36.96
972.307	36.94
972.667	36.95
973.027	36.96
973.388	37.04
973.748	37.06
974.108	37.07
974.468	37.08
974.828	37.23
975.188	37.18
975.548	37.2
975.907	37.22
976.267	37.19
976.627	37.19
976.986	37.17
977.346	37.16
977.705	37.16
978.064	37.2
978.424	37.18
978.783	37.15
979.142	37.18
979.501	37.13
979.86	37.02
980.219	37
980.578	37.04
980.937	37.15
981.296	37.16
981.654	37.21
982.013	37.22
982.371	37.25
982.73	37.26
983.088	37.23
983.447	37.25
983.805	37.3
984.163	37.4
984.521	37.35
984.879	37.33
985.237	37.28
985.595	37.17
985.953	37.19
986.311	37.27
986.669	37.2
987.026	37.23
987.384	37.28
987.741	37.28
988.099	37.13
988.456	37.24
988.814	37.17
989.171	37.22
989.528	37.22
989.885	37.09
990.242	37.02
990.599	37.13
990.956	37.11
991.313	37.05
991.67	37.12
992.027	37.22
992.383	37.11
992.74	37.13
993.096	37.06
993.453	37.16
993.809	37.17
994.165	37.22
994.522	37.15
994.878	37.26
995.234	37.35
995.59	37.26
995.946	37.32
996.302	37.32
996.658	37.32
997.013	37.32
997.369	37.34
997.725	37.39
998.08	37.28
998.436	37.31
998.791	37.19
999.147	37.1
999.502	37.06
999.857	36.96
1000.212	36.85
1000.567	36.91
1000.922	36.92
1001.277	36.82
1001.632	36.88
1001.987	36.89
1002.342	36.78
1002.696	36.82
1003.051	36.74
1003.406	36.74
1003.76	36.7
1004.114	36.75
1004.469	36.66
1004.823	36.71
1005.177	36.83
1005.531	36.6
1005.885	36.59
1006.239	36.48
1006.593	36.28
1006.947	36.44
1007.301	36.48
1007.655	36.53
1008.008	36.4
1008.362	36.3
1008.715	36.23
1009.069	35.91
1009.422	35.97
1009.776	35.91
1010.129	36.01
1010.482	36.36
1010.835	36.25
1011.188	36.15
1011.541	35.91
1011.894	36.01
1012.247	36.11
1012.6	35.98
1012.952	36.1
1013.305	36.03
1013.657	35.98
1014.01	36.12
1014.362	35.98
1014.715	35.9
1015.067	36.15
1015.419	36.31
1015.771	36.38
1016.123	36.29
1016.475	36.54
1016.827	36.79
1017.179	36.74
1017.531	36.83
1017.883	36.82
1018.234	36.78
1018.586	36.86
1018.938	36.46
1019.289	36.15
1019.64	36.29
1019.992	36.42
1020.343	36.36
1020.694	35.72
1021.045	35.79
1021.396	35.69
1021.747	35.53
1022.098	35.58
1022.449	35.58
1022.8	35.91
1023.151	36.01
1023.501	35.88
1023.852	35.73
1024.202	35.64
1024.553	36.12
1024.903	35.97
1025.253	35.87
1025.604	35.86
1025.954	35.52
1026.304	35.63
1026.654	35.46
1027.004	35.86
1027.354	35.58
1027.703	35.35
1028.053	34.99
1028.403	34.74
1028.753	34.93
1029.102	35.14
1029.452	35.11
1029.801	35.32
1030.15	35.07
1030.499	35.02
897.758	512.66
901.051	525.62
904.343	529.37
907.636	521.81
910.928	510.36
914.22	518.04
917.511	502.27
920.803	480.92
924.094	462.28
927.384	467.27
930.675	451.23
933.965	447.03
937.255	442.97
940.544	423.29
943.834	403.69
947.123	398.59
950.411	376.73
953.7	371.46
956.988	359.12
960.276	341.51
963.563	337.82
966.851	318.67
970.138	314.21
973.424	292.05
976.711	287.85
979.997	277.18
983.283	270.48
986.568	262.35
989.853	255.59
993.138	245.78
996.423	243.5
999.708	234.15
1002.992	235.8
1006.275	228.25
1009.559	226.81
1012.842	220.62
1016.125	213.76
1019.408	208.88
1022.69	207.37
1025.972	205.42
1029.254	199.49
1032.536	196.8
1035.817	189.88
1039.098	187.67
1042.379	183.93
1045.659	181.11
1048.939	179.1
1052.219	176.77
1055.498	174.44
1058.778	171.43
1062.057	167.51
1065.335	166.81
1068.614	163.61
1071.892	161.78
1075.17	158.56
1078.447	156.15
1081.724	154.4
1085.001	152.16
1088.278	150.74
1091.554	150.52
1094.83	148.19
1098.106	145.97
1101.382	145.24
1104.657	144.06
1107.932	144.34
1111.206	143.24
1114.481	140.91
1117.755	140.49
1121.029	139.33
1124.302	137.32
1127.575	135
1130.848	134.91
1134.121	133.05
1137.393	132.92
1140.665	131.18
1143.937	129.34
1147.208	127.91
1150.48	127.55
1153.75	126.87
1157.021	124.75
1160.291	124.68
1163.561	123.64
1166.831	123.08
1170.101	123.47
1173.37	122.96
1176.639	121.88
1179.907	121.99
1183.176	121.6
1186.444	121.47
1189.711	120.31
1192.979	122.13
1196.246	121.95
1199.513	121
1202.78	121.25
1206.046	120.75
1209.312	120.82
1212.578	122.12
1215.843	123.24
1219.108	124.24
1222.373	126.46
1225.638	128.73
1228.902	130.97
1232.166	134.99
1235.43	138.18
1238.693	142.64
1241.956	145.69
1245.219	148.99
1248.482	150.85
1251.744	150.86
1255.006	151.28
1258.268	146.21
1261.529	145.23
1264.79	141.97
1268.051	138.73
1271.312	137.49
1274.572	134.27
1277.832	131.1
1281.092	130.24
1284.351	127.14
1287.61	127.15
1290.869	125.78
1294.128	126.42
1297.386	126.48
1300.644	124.83
1303.902	124.66
1307.159	124.24
1310.416	124.61
1313.673	126.72
1316.93	127.15
1320.186	128.61
1323.442	130.1
1326.697	134.03
1329.953	134.39
1333.208	137.32
1336.463	144.19
1339.717	146.91
1342.972	154.21
1346.226	158.68
1349.479	159.88
1352.733	167.19
1355.986	171.14
1359.238	174.62
1362.491	175.05
1365.743	183.48
1368.995	185.18
1372.247	185.46
1375.498	185.48
1378.749	191.29
1382	189.38
1385.251	189.56
1388.501	187.19
1391.751	190.53
1395	190.33
1398.25	191.76
1401.499	190.83
1404.748	190.94
1407.996	186.33
1411.244	186.78
1414.492	182.54
1417.74	179.11
1420.987	174.74
1424.234	171.96
1427.481	166.92
1430.728	161.72
1433.974	155.82
1437.22	150.36
1440.465	145.08
1443.711	141.16
1446.956	136.03
1450.201	131.44
1453.445	124.76
1456.689	121.7
1459.933	118.02
1463.177	112.19
1466.42	109.43
1469.663	106.16
1472.906	102.83
1476.148	100.46
1479.391	97.87
1482.633	96.61
1485.874	94.61
1489.115	94.3
1492.356	91.86
1495.597	90.15
1498.838	89.52
1502.078	88.96
1505.318	88.91
1508.557	87.83
1511.797	86.73
1515.036	86.52
1518.274	85.53
1521.513	84.39
1524.751	83.89
1527.989	84.21
1531.227	84.17
1534.464	83.51
1537.701	83.26
1540.938	82.68
1544.174	83.11
1547.41	82.83
1550.646	82.45
1553.882	82.75
1557.117	82.68
1560.352	82.45
1563.587	81.58
1566.821	81.56
1570.055	81.59
1573.289	81.23
1576.523	81.38
1579.756	80.62
1582.989	80.95
1586.222	80.9
1589.454	80.2
1592.686	79.57
1595.918	79.78
1599.15	79.91
1602.381	80.16
1605.612	80.05
1608.843	79.59
1612.073	80.11
1615.303	80.3
1618.533	79.43
1621.762	79.71
1624.992	80.52
1628.221	80.79
1631.449	81.09
1634.678	80.47
1637.906	79.84
1641.134	79.74
1644.361	80.09
1647.588	79.52
1650.815	79.82
1654.042	79.75
1657.269	80.15
1660.495	80.03
1663.72	80.3
1666.946	79.32
1670.171	80.35
1673.396	80.86
1676.621	81.44
1679.845	81.55
1683.069	81.35
1686.293	81.04
1689.517	81.84
1692.74	81.27
1695.963	81.77
1699.185	81.65
1702.408	82.69
1705.63	82.48
1708.852	83.09
1712.073	82.29
1715.294	82.42
1718.515	83.22
1721.736	83.64
1724.956	83.61
1728.176	83.47
1731.396	83.46
1734.616	84.13
1737.835	83.76
1741.054	83.84
1744.272	83.41
1747.491	84.12
1750.709	84.7
1753.927	84.69
1757.144	84.86
1760.361	84.64
1763.578	85.4
1766.795	85.9
1770.011	85.81
1773.227	86.43
1776.443	87.06
1779.658	87.18
1782.874	87.66
1786.089	87.21
1789.303	87.58
1792.518	88.65
1795.732	89.66
1798.945	90.45
1802.159	90.56
1805.372	91.57
1808.585	92.14
1811.797	92.74
1815.01	93.95
1818.222	94.42
1821.434	96.03
1824.645	96.58
1827.856	97.44
1831.067	97.68
1834.278	98.61
1837.488	99.22
1840.698	100.01
1843.908	100.26
1847.117	102
1850.326	102.75
1853.535	103.35
1856.744	104.42
1859.952	105.87
1863.16	106.31
1866.368	106.8
1869.575	107.43
1872.782	106.8
1875.989	106.12
1879.196	106.59
1882.402	104.92
1885.608	106.05
1888.814	106.39
1892.019	107.04
1895.224	105.2
1898.429	105.96
1901.634	106.3
1904.838	106.04
1908.042	107.62
1911.246	108.67
1914.449	109.09
1917.652	109.47
1920.855	109.48
1924.058	108.07
1927.26	107.46
1930.462	108.7
1933.664	107.6
1936.865	108.6
1940.066	108.63
1943.267	107.18
1946.467	107.44
1949.668	107.1
1952.868	107.79
1956.067	107.2
1959.267	109.41
1962.466	109.91
1965.665	109.8
1968.863	111.61
1972.061	110.15
1975.259	112.47
1978.457	114.07
1981.654	114.69
1984.852	115.85
1988.048	117.1
1991.245	118.85
1994.441	120.74
1997.637	122.48
2000.833	126.53
2004.028	126.59
2007.223	132.05
2010.418	134.01
2013.613	140.38
2016.807	144.46
2020.001	147.61
2023.194	152.13
2026.388	155.98
2029.581	163.59
2032.774	169.38
2035.966	173.37
2039.158	179.41
2042.35	182.56
2045.542	185.13
2048.733	190.57
2051.924	191.93
2055.115	194.51
2058.306	196.46
2061.496	201.95
2064.686	199.35
2067.875	199.69
2071.065	199.38
2074.254	200.91
2077.442	208.2
2080.631	208.93
2083.819	209.81
2087.007	216.66
2090.195	221.8
2093.382	220.28
2096.569	220.55
2099.756	225.52
2102.942	228.97
2106.128	236.49
2109.314	236.49
2112.5	233.61
2115.685	234.72
2118.87	234.77
2122.055	233.75
2125.239	236.6
2128.424	242.7
2131.608	241.62
2134.791	238.57
2137.974	241.56
2141.157	241.97
2144.34	244.52
2147.523	246.81
2150.705	253.34
2153.887	251.48
2157.068	253.5
2160.25	256.85
2163.431	256.39
2166.611	260.48
2169.792	268.62
2172.972	270.69
2176.152	273.16
2179.331	280.37
2182.511	281.82
2185.69	284.97
2188.868	298.53
2192.047	302.45
2195.225	306.27
2198.403	308.15
2201.58	305.55
2204.758	317.53
2207.935	320.27
2211.111	325.21
2214.288	324.49
2217.464	329.5
2220.64	332.16
2223.815	330.69
2226.991	326.95
2230.166	330.46
2233.34	342.37
2236.515	354.36
2239.689	346.97
2242.863	351.45
2246.036	348.17
2249.209	356.28
2252.382	356.63
2255.555	368.15
2258.727	371.24
2261.9	385.4
2265.071	390.44
2268.243	386.19
2271.414	394.14
2274.585	402.22
2277.756	405.18
2280.926	422.03
2284.096	421.78
2287.266	422.63
2290.436	414.27
2293.605	422.48
2296.774	437.87
2299.942	435.88
2303.111	450.4
2306.279	456.48
2309.447	461.43
2312.614	462.07
2315.781	471.72
2318.948	479.77
2322.115	492.44
2325.281	515.41
2328.447	510.92
2331.613	509.13
2334.779	521
2337.944	527.54
2341.109	539.79
2344.274	539.59
2347.438	562.52
2350.602	568.47
2353.766	604.76
2356.929	604.17
2360.092	614.36
2363.255	618.75
2366.418	632.46
2369.58	640.61
2372.742	639.13
2375.904	637.19
2379.066	657.93
2382.227	686.41
2385.388	689.7
2388.548	651.98
2391.709	649.83
2394.869	671.73
2398.029	674.02
2401.188	674.22
2404.347	689.98
2407.506	715.36
2410.665	688.11
2413.823	694
2416.981	692.93
2420.139	658.38
2423.296	714.07
2426.453	755.36
2429.61	714.35
2432.767	763.92
2435.923	791.5
2439.079	761.78
2442.235	782.46
2445.391	804.44
2448.546	796.32
2451.701	831.36
2454.855	886.29
2458.009	789.12
2461.163	798.22
2464.317	811.84
2467.471	793.95
2470.624	816.36
2473.777	810.56
2476.929	785.85
2480.082	838.05
2483.234	873.89
2486.385	885.5
2489.537	908.93
2492.688	996.96
2495.839	987.94
2498.989	1016.71
2502.14	1025.22
2505.29	977.91
2508.439	1092.03
2511.589	1116.21
2514.738	1074.63
2517.887	1067.72
2521.035	1015.99
2524.183	990.27
2527.331	976.95
2530.479	954
2533.627	975.4
