Data from N_1_dec_nc_4n_037_Splice17_17.txt Node
Date: Sat Feb 29 13:49:01 EST 2020
User: sa697716
Spectrometer: FLMS03696
Trigger mode: 0
Integration Time (sec): 3.180400E-1
Scans to average: 20
Electric dark correction enabled: true
Nonlinearity correction enabled: true
Boxcar width: 5
XAxis mode: Wavelengths
Number of Pixels in Spectrum: 2048
>>>>>Begin Spectral Data<<<<<
187.83	112.02
188.298	119
188.766	102.39
189.233	87.08
189.701	99.51
190.169	105.1
190.636	109.5
191.104	110.71
191.571	414.59
192.039	263.79
192.506	-181.05
192.974	117.27
193.441	140.41
193.908	24.51
194.375	-7.49
194.842	27.57
195.31	61.28
195.777	52.09
196.244	68.22
196.711	80.92
197.177	77.69
197.644	77.52
198.111	77.97
198.578	78.14
199.045	79.26
199.511	79.55
199.978	80.2
200.445	79.49
200.911	79.73
201.378	79.66
201.844	79.81
202.31	80.24
202.777	80.34
203.243	80
203.709	79.89
204.176	78.77
204.642	78.1
205.108	77.4
205.574	77.67
206.04	77.19
206.506	76.6
206.972	75.6
207.438	74.65
207.903	73.8
208.369	72.21
208.835	71.03
209.301	70.06
209.766	68.28
210.232	66.81
210.697	65.13
211.163	63.26
211.628	61.48
212.094	59.81
212.559	58.27
213.024	56.77
213.49	55.54
213.955	54.11
214.42	52.39
214.885	50.36
215.35	48.12
215.815	45.16
216.28	41.99
216.745	38.65
217.21	35.04
217.675	31.5
218.14	28.27
218.604	25.29
219.069	22.8
219.534	20.62
219.998	18.96
220.463	17.64
220.927	16.44
221.392	15.41
221.856	14.43
222.32	13.69
222.785	13.05
223.249	12.48
223.713	12.08
224.177	11.63
224.642	11.27
225.106	10.89
225.57	10.47
226.034	10.15
226.497	9.84
226.961	9.58
227.425	9.32
227.889	9.05
228.353	8.82
228.816	8.57
229.28	8.33
229.744	8.13
230.207	7.95
230.671	7.78
231.134	7.6
231.597	7.42
232.061	7.28
232.524	7.14
232.987	7
233.45	6.87
233.914	6.77
234.377	6.69
234.84	6.6
235.303	6.5
235.766	6.42
236.229	6.34
236.691	6.31
237.154	6.24
237.617	6.17
238.08	6.12
238.542	6.06
239.005	5.97
239.468	5.89
239.93	5.83
240.393	5.77
240.855	5.7
241.317	5.65
241.78	5.58
242.242	5.51
242.704	5.46
243.166	5.42
243.629	5.37
244.091	5.32
244.553	5.28
245.015	5.22
245.477	5.16
245.939	5.1
246.4	5.03
246.862	4.98
247.324	4.94
247.786	4.89
248.247	4.83
248.709	4.78
249.17	4.74
249.632	4.69
250.093	4.63
250.555	4.59
251.016	4.56
251.477	4.53
251.939	4.48
252.4	4.44
252.861	4.4
253.322	4.36
253.783	4.32
254.244	4.28
254.705	4.24
255.166	4.22
255.627	4.19
256.088	4.15
256.549	4.12
257.009	4.09
257.47	4.05
257.931	4.01
258.391	3.96
258.852	3.92
259.312	3.89
259.773	3.86
260.233	3.82
260.694	3.78
261.154	3.75
261.614	3.71
262.074	3.68
262.534	3.64
262.994	3.61
263.455	3.59
263.915	3.55
264.374	3.51
264.834	3.48
265.294	3.46
265.754	3.43
266.214	3.41
266.673	3.39
267.133	3.36
267.593	3.34
268.052	3.32
268.512	3.3
268.971	3.29
269.431	3.27
269.89	3.25
270.349	3.23
270.809	3.22
271.268	3.22
271.727	3.2
272.186	3.19
272.645	3.18
273.104	3.17
273.563	3.16
274.022	3.16
274.481	3.15
274.94	3.14
275.399	3.13
275.857	3.12
276.316	3.1
276.775	3.09
277.233	3.08
277.692	3.07
278.15	3.06
278.609	3.05
279.067	3.04
279.525	3.03
279.984	3.03
280.442	3.03
280.9	3.03
281.358	3.03
281.816	3.04
282.274	3.03
282.732	3.03
283.19	3.04
283.648	3.04
284.106	3.04
284.564	3.04
285.021	3.03
285.479	3.04
285.937	3.03
286.394	3.02
286.852	3.02
287.309	3.02
287.767	3.01
288.224	3
288.682	2.99
289.139	2.98
289.596	2.97
290.053	2.95
290.511	2.92
290.968	2.9
291.425	2.89
291.882	2.87
292.339	2.84
292.796	2.83
293.252	2.81
293.709	2.8
294.166	2.78
294.623	2.77
295.079	2.76
295.536	2.75
295.992	2.74
296.449	2.73
296.905	2.72
297.362	2.71
297.818	2.7
298.274	2.68
298.731	2.68
299.187	2.67
299.643	2.66
300.099	2.66
300.555	2.65
301.011	2.65
301.467	2.64
301.923	2.64
302.379	2.64
302.835	2.65
303.291	2.64
303.746	2.64
304.202	2.64
304.658	2.64
305.113	2.64
305.569	2.65
306.024	2.65
306.479	2.65
306.935	2.65
307.39	2.66
307.845	2.66
308.301	2.66
308.756	2.67
309.211	2.68
309.666	2.69
310.121	2.68
310.576	2.68
311.031	2.69
311.486	2.69
311.94	2.68
312.395	2.69
312.85	2.69
313.305	2.7
313.759	2.7
314.214	2.7
314.668	2.69
315.123	2.69
315.577	2.69
316.032	2.69
316.486	2.69
316.94	2.69
317.394	2.68
317.849	2.67
318.303	2.66
318.757	2.64
319.211	2.63
319.665	2.62
320.119	2.62
320.572	2.61
321.026	2.6
321.48	2.59
321.934	2.59
322.387	2.58
322.841	2.57
323.295	2.57
323.748	2.57
324.202	2.57
324.655	2.57
325.108	2.55
325.562	2.55
326.015	2.54
326.468	2.53
326.921	2.52
327.374	2.51
327.827	2.51
328.28	2.51
328.733	2.5
329.186	2.5
329.639	2.5
330.092	2.5
330.545	2.5
330.997	2.51
331.45	2.51
331.903	2.52
332.355	2.52
332.808	2.53
333.26	2.54
333.713	2.55
334.165	2.55
334.617	2.56
335.069	2.57
335.522	2.58
335.974	2.58
336.426	2.58
336.878	2.6
337.33	2.61
337.782	2.61
338.234	2.6
338.686	2.61
339.137	2.61
339.589	2.61
340.041	2.6
340.493	2.59
340.944	2.59
341.396	2.58
341.847	2.56
342.299	2.54
342.75	2.52
343.201	2.51
343.653	2.48
344.104	2.47
344.555	2.46
345.006	2.44
345.457	2.44
345.908	2.43
346.359	2.43
346.81	2.43
347.261	2.42
347.712	2.42
348.163	2.41
348.613	2.42
349.064	2.4
349.515	2.4
349.965	2.39
350.416	2.39
350.866	2.39
351.317	2.38
351.767	2.38
352.217	2.39
352.668	2.39
353.118	2.4
353.568	2.39
354.018	2.42
354.468	2.42
354.918	2.44
355.368	2.44
355.818	2.43
356.268	2.43
356.718	2.44
357.168	2.44
357.617	2.44
358.067	2.43
358.517	2.44
358.966	2.44
359.416	2.45
359.865	2.45
360.315	2.46
360.764	2.46
361.213	2.45
361.663	2.45
362.112	2.45
362.561	2.45
363.01	2.47
363.459	2.47
363.908	2.46
364.357	2.47
364.806	2.46
365.255	2.46
365.703	2.47
366.152	2.48
366.601	2.5
367.05	2.5
367.498	2.52
367.947	2.51
368.395	2.53
368.844	2.52
369.292	2.52
369.74	2.53
370.189	2.53
370.637	2.54
371.085	2.55
371.533	2.55
371.981	2.55
372.429	2.54
372.877	2.55
373.325	2.54
373.773	2.55
374.221	2.56
374.669	2.56
375.116	2.57
375.564	2.57
376.012	2.57
376.459	2.58
376.907	2.58
377.354	2.59
377.801	2.6
378.249	2.62
378.696	2.63
379.143	2.64
379.591	2.65
380.038	2.67
380.485	2.69
380.932	2.7
381.379	2.7
381.826	2.72
382.273	2.72
382.72	2.74
383.166	2.74
383.613	2.76
384.06	2.76
384.506	2.77
384.953	2.78
385.4	2.79
385.846	2.8
386.292	2.83
386.739	2.84
387.185	2.87
387.631	2.88
388.078	2.89
388.524	2.89
388.97	2.91
389.416	2.92
389.862	2.94
390.308	2.95
390.754	2.97
391.2	2.99
391.645	3.02
392.091	3.02
392.537	3.03
392.983	3.05
393.428	3.07
393.874	3.1
394.319	3.11
394.765	3.13
395.21	3.14
395.655	3.16
396.101	3.17
396.546	3.18
396.991	3.2
397.436	3.2
397.881	3.22
398.326	3.24
398.771	3.26
399.216	3.28
399.661	3.3
400.106	3.32
400.551	3.32
400.995	3.3
401.44	3.3
401.885	3.3
402.329	3.31
402.774	3.29
403.218	3.29
403.663	3.27
404.107	3.28
404.551	3.27
404.995	3.26
405.44	3.26
405.884	3.28
406.328	3.28
406.772	3.29
407.216	3.29
407.66	3.31
408.104	3.3
408.547	3.3
408.991	3.29
409.435	3.3
409.879	3.3
410.322	3.31
410.766	3.32
411.209	3.33
411.653	3.33
412.096	3.33
412.54	3.33
412.983	3.35
413.426	3.37
413.869	3.38
414.312	3.41
414.756	3.43
415.199	3.45
415.642	3.47
416.085	3.49
416.527	3.5
416.97	3.52
417.413	3.51
417.856	3.51
418.298	3.5
418.741	3.5
419.184	3.48
419.626	3.47
420.069	3.46
420.511	3.46
420.953	3.44
421.396	3.43
421.838	3.43
422.28	3.47
422.722	3.49
423.164	3.49
423.606	3.5
424.048	3.49
424.49	3.5
424.932	3.49
425.374	3.48
425.816	3.47
426.258	3.47
426.699	3.45
427.141	3.42
427.582	3.4
428.024	3.41
428.465	3.41
428.907	3.44
429.348	3.43
429.789	3.44
430.231	3.47
430.672	3.48
431.113	3.51
431.554	3.54
431.995	3.58
432.436	3.59
432.877	3.58
433.318	3.59
433.759	3.6
434.2	3.62
434.64	3.64
435.081	3.64
435.522	3.66
435.962	3.67
436.403	3.68
436.843	3.69
437.284	3.71
437.724	3.75
438.164	3.76
438.604	3.76
439.045	3.77
439.485	3.77
439.925	3.78
440.365	3.76
440.805	3.76
441.245	3.74
441.685	3.74
442.125	3.73
442.564	3.74
443.004	3.76
443.444	3.78
443.883	3.81
444.323	3.81
444.762	3.83
445.202	3.88
445.641	3.9
446.081	3.95
446.52	3.96
446.959	3.98
447.398	4.01
447.837	4.03
448.276	4.04
448.716	4.04
449.154	4.08
449.593	4.09
450.032	4.09
450.471	4.1
450.91	4.08
451.349	4.08
451.787	4.07
452.226	4.04
452.664	4.02
453.103	4
453.541	3.99
453.98	3.96
454.418	3.93
454.856	3.89
455.295	3.88
455.733	3.87
456.171	3.86
456.609	3.85
457.047	3.84
457.485	3.83
457.923	3.84
458.361	3.83
458.798	3.85
459.236	3.85
459.674	3.86
460.111	3.87
460.549	3.87
460.987	3.88
461.424	3.88
461.862	3.88
462.299	3.88
462.736	3.88
463.173	3.88
463.611	3.87
464.048	3.89
464.485	3.88
464.922	3.87
465.359	3.89
465.796	3.88
466.233	3.89
466.67	3.9
467.106	3.9
467.543	3.92
467.98	3.93
468.416	3.94
468.853	3.93
469.29	3.96
469.726	3.95
470.162	3.94
470.599	3.95
471.035	3.95
471.471	3.94
471.907	3.95
472.344	3.93
472.78	3.92
473.216	3.91
473.652	3.9
474.088	3.9
474.523	3.9
474.959	3.89
475.395	3.87
475.831	3.86
476.266	3.86
476.702	3.85
477.138	3.83
477.573	3.8
478.008	3.79
478.444	3.78
478.879	3.76
479.314	3.74
479.75	3.73
480.185	3.72
480.62	3.7
481.055	3.68
481.49	3.67
481.925	3.66
482.36	3.65
482.795	3.64
483.229	3.64
483.664	3.63
484.099	3.63
484.534	3.62
484.968	3.63
485.403	3.63
485.837	3.63
486.271	3.63
486.706	3.63
487.14	3.65
487.574	3.67
488.009	3.68
488.443	3.69
488.877	3.69
489.311	3.71
489.745	3.73
490.179	3.75
490.613	3.77
491.046	3.8
491.48	3.84
491.914	3.86
492.348	3.89
492.781	3.93
493.215	3.96
493.648	4.01
494.082	4.06
494.515	4.1
494.948	4.16
495.382	4.22
495.815	4.28
496.248	4.34
496.681	4.4
497.114	4.47
497.547	4.54
497.98	4.63
498.413	4.71
498.846	4.8
499.279	4.9
499.711	4.99
500.144	5.08
500.577	5.19
501.009	5.29
501.442	5.41
501.874	5.54
502.306	5.67
502.739	5.81
503.171	5.94
503.603	6.09
504.036	6.26
504.468	6.43
504.9	6.61
505.332	6.79
505.764	6.99
506.196	7.19
506.627	7.4
507.059	7.62
507.491	7.84
507.923	8.09
508.354	8.33
508.786	8.57
509.217	8.81
509.649	9.07
510.08	9.34
510.512	9.6
510.943	9.89
511.374	10.18
511.805	10.46
512.237	10.75
512.668	11.03
513.099	11.33
513.53	11.65
513.961	11.99
514.391	12.32
514.822	12.66
515.253	13
515.684	13.33
516.114	13.67
516.545	14.03
516.975	14.39
517.406	14.74
517.836	15.09
518.267	15.42
518.697	15.77
519.127	16.11
519.558	16.43
519.988	16.76
520.418	17.1
520.848	17.44
521.278	17.76
521.708	17.97
522.138	18.28
522.567	18.58
522.997	18.88
523.427	19.18
523.857	19.46
524.286	19.75
524.716	20.04
525.145	20.31
525.575	20.56
526.004	20.82
526.433	21.18
526.863	21.43
527.292	21.68
527.721	21.91
528.15	22.1
528.579	22.33
529.008	22.53
529.437	22.7
529.866	22.86
530.295	23.06
530.724	23.23
531.152	23.39
531.581	23.54
532.01	23.65
532.438	23.77
532.867	23.92
533.295	24.04
533.723	24.15
534.152	24.27
534.58	24.35
535.008	24.42
535.436	24.51
535.865	24.59
536.293	24.67
536.721	24.77
537.149	24.86
537.576	24.91
538.004	24.95
538.432	25.01
538.86	25.06
539.287	25.13
539.715	25.19
540.143	25.22
540.57	25.25
540.998	25.3
541.425	25.31
541.852	25.33
542.28	25.36
542.707	25.4
543.134	25.41
543.561	25.43
543.988	25.46
544.415	25.48
544.842	25.5
545.269	25.55
545.696	25.56
546.123	25.59
546.549	25.64
546.976	25.68
547.403	25.72
547.829	25.74
548.256	25.76
548.682	25.78
549.108	25.79
549.535	25.81
549.961	25.82
550.387	25.82
550.813	25.81
551.24	25.8
551.666	25.81
552.092	25.78
552.518	25.77
552.943	25.77
553.369	25.77
553.795	25.76
554.221	25.73
554.646	25.68
555.072	25.65
555.498	25.61
555.923	25.56
556.349	25.48
556.774	25.41
557.199	25.33
557.625	25.25
558.05	25.14
558.475	25.01
558.9	24.92
559.325	24.84
559.75	24.71
560.175	24.61
560.6	24.49
561.025	24.37
561.449	24.24
561.874	24.12
562.299	23.98
562.723	23.85
563.148	23.72
563.572	23.58
563.997	23.42
564.421	23.25
564.846	23.08
565.27	22.91
565.694	22.71
566.118	22.55
566.542	22.38
566.966	22.21
567.39	22.01
567.814	21.82
568.238	21.62
568.662	21.44
569.086	21.25
569.509	21.07
569.933	20.87
570.357	20.68
570.78	20.5
571.204	20.29
571.627	20.11
572.05	19.95
572.474	19.79
572.897	19.63
573.32	19.47
573.743	19.32
574.166	19.15
574.589	19.01
575.012	18.88
575.435	18.73
575.858	18.61
576.281	18.48
576.704	18.34
577.126	18.22
577.549	18.1
577.972	17.98
578.394	17.86
578.817	17.74
579.239	17.61
579.661	17.52
580.084	17.42
580.506	17.3
580.928	17.18
581.35	17.09
581.772	16.99
582.194	16.88
582.616	16.78
583.038	16.7
583.46	16.62
583.882	16.55
584.303	16.45
584.725	16.37
585.147	16.28
585.568	16.21
585.99	16.11
586.411	16.03
586.833	15.96
587.254	15.89
587.675	15.82
588.096	15.76
588.518	15.71
588.939	15.66
589.36	15.6
589.781	15.55
590.202	15.5
590.623	15.43
591.043	15.38
591.464	15.33
591.885	15.27
592.305	15.23
592.726	15.16
593.147	15.13
593.567	15.06
593.987	15.03
594.408	14.99
594.828	14.95
595.248	14.93
595.669	14.9
596.089	14.86
596.509	14.81
596.929	14.78
597.349	14.73
597.769	14.68
598.189	14.64
598.608	14.57
599.028	14.52
599.448	14.48
599.867	14.42
600.287	14.36
600.706	14.3
601.126	14.25
601.545	14.18
601.965	14.12
602.384	14.06
602.803	14
603.222	13.95
603.641	13.86
604.061	13.8
604.48	13.75
604.898	13.67
605.317	13.6
605.736	13.52
606.155	13.46
606.574	13.39
606.992	13.29
607.411	13.22
607.829	13.09
608.248	13.02
608.666	12.91
609.085	12.82
609.503	12.73
609.921	12.64
610.339	12.57
610.758	12.46
611.176	12.38
611.594	12.3
612.012	12.2
612.43	12.18
612.847	12.09
613.265	12.02
613.683	11.92
614.101	11.84
614.518	11.76
614.936	11.68
615.353	11.6
615.771	11.51
616.188	11.44
616.606	11.38
617.023	11.31
617.44	11.24
617.857	11.17
618.274	11.13
618.691	11.08
619.108	11.02
619.525	10.97
619.942	10.94
620.359	10.91
620.776	10.87
621.192	10.83
621.609	10.78
622.026	10.77
622.442	10.74
622.859	10.71
623.275	10.7
623.691	10.69
624.108	10.66
624.524	10.62
624.94	10.61
625.356	10.61
625.772	10.59
626.188	10.59
626.604	10.56
627.02	10.54
627.436	10.53
627.852	10.51
628.268	10.49
628.683	10.47
629.099	10.47
629.514	10.44
629.93	10.41
630.345	10.37
630.761	10.33
631.176	10.31
631.591	10.27
632.007	10.21
632.422	10.17
632.837	10.11
633.252	10.06
633.667	9.97
634.082	9.9
634.497	9.82
634.911	9.72
635.326	9.62
635.741	9.51
636.155	9.41
636.57	9.3
636.984	9.15
637.399	9.02
637.813	8.89
638.228	8.77
638.642	8.64
639.056	8.51
639.47	8.37
639.884	8.23
640.298	8.1
640.712	7.96
641.126	7.83
641.54	7.7
641.954	7.59
642.368	7.47
642.781	7.35
643.195	7.22
643.609	7.1
644.022	7
644.436	6.89
644.849	6.8
645.262	6.72
645.676	6.62
646.089	6.54
646.502	6.45
646.915	6.37
647.328	6.29
647.741	6.22
648.154	6.16
648.567	6.1
648.98	6.06
649.393	6
649.805	5.95
650.218	5.92
650.631	5.87
651.043	5.84
651.456	5.82
651.868	5.79
652.28	5.77
652.693	5.72
653.105	5.7
653.517	5.65
653.929	5.62
654.341	5.58
654.753	5.54
655.165	5.5
655.577	5.43
655.989	5.36
656.401	5.3
656.813	5.22
657.224	5.16
657.636	5.09
658.047	5.02
658.459	4.95
658.87	4.87
659.282	4.81
659.693	4.74
660.104	4.68
660.515	4.63
660.926	4.55
661.338	4.51
661.749	4.44
662.159	4.38
662.57	4.33
662.981	4.27
663.392	4.22
663.803	4.16
664.213	4.12
664.624	4.08
665.035	4.03
665.445	4
665.855	3.98
666.266	3.97
666.676	3.94
667.086	3.92
667.497	3.91
667.907	3.89
668.317	3.87
668.727	3.87
669.137	3.87
669.547	3.89
669.956	3.9
670.366	3.89
670.776	3.89
671.186	3.9
671.595	3.92
672.005	3.94
672.414	3.97
672.824	4
673.233	4.03
673.642	4.05
674.052	4.07
674.461	4.08
674.87	4.12
675.279	4.16
675.688	4.2
676.097	4.23
676.506	4.27
676.915	4.31
677.323	4.36
677.732	4.42
678.141	4.46
678.549	4.53
678.958	4.61
679.366	4.68
679.775	4.75
680.183	4.83
680.592	4.9
681	4.98
681.408	5.07
681.816	5.16
682.224	5.25
682.632	5.37
683.04	5.48
683.448	5.61
683.856	5.76
684.264	5.93
684.671	6.12
685.079	6.32
685.487	6.55
685.894	6.82
686.302	7.1
686.709	7.4
687.116	7.73
687.524	8.1
687.931	8.49
688.338	8.91
688.745	9.35
689.152	9.83
689.559	10.34
689.966	10.86
690.373	11.41
690.78	11.99
691.187	12.59
691.593	13.2
692	13.82
692.407	14.48
692.813	15.17
693.22	15.85
693.626	16.53
694.032	17.22
694.439	17.94
694.845	18.66
695.251	19.4
695.657	20.12
696.063	20.83
696.469	21.55
696.875	22.25
697.281	22.92
697.687	23.61
698.093	24.29
698.498	24.98
698.904	25.65
699.31	26.3
699.715	26.96
700.12	27.59
700.526	28.23
700.931	28.87
701.337	29.5
701.742	30.11
702.147	30.71
702.552	31.29
702.957	31.87
703.362	32.42
703.767	32.94
704.172	33.48
704.577	34
704.981	34.51
705.386	35.01
705.791	35.51
706.195	35.99
706.6	36.47
707.004	36.94
707.408	37.38
707.813	37.83
708.217	38.29
708.621	38.73
709.025	39.17
709.43	39.6
709.834	40.03
710.237	40.41
710.641	40.8
711.045	41.18
711.449	41.58
711.853	41.95
712.256	42.32
712.66	42.67
713.064	43
713.467	43.36
713.87	43.68
714.274	44.02
714.677	44.36
715.08	44.7
715.484	45.03
715.887	45.34
716.29	45.67
716.693	45.96
717.096	46.28
717.499	46.57
717.901	46.84
718.304	47.13
718.707	47.38
719.109	47.67
719.512	47.96
719.915	48.25
720.317	48.52
720.719	48.76
721.122	49.03
721.524	49.25
721.926	49.5
722.328	49.73
722.731	49.95
723.133	50.14
723.535	50.36
723.937	50.51
724.338	50.69
724.74	50.87
725.142	51
725.544	51.15
725.945	51.33
726.347	51.49
726.748	51.58
727.15	51.75
727.551	51.92
727.952	52.02
728.354	52.18
728.755	52.28
729.156	52.38
729.557	52.53
729.958	52.68
730.359	52.8
730.76	52.88
731.161	53.04
731.562	53.12
731.962	53.21
732.363	53.3
732.763	53.41
733.164	53.49
733.564	53.58
733.965	53.64
734.365	53.69
734.766	53.76
735.166	53.81
735.566	53.84
735.966	53.89
736.366	53.93
736.766	53.99
737.166	54.03
737.566	54.07
737.966	54.14
738.365	54.19
738.765	54.25
739.165	54.27
739.564	54.35
739.964	54.4
740.363	54.46
740.763	54.48
741.162	54.51
741.561	54.53
741.96	54.59
742.36	54.63
742.759	54.65
743.158	54.66
743.557	54.68
743.955	54.71
744.354	54.74
744.753	54.78
745.152	54.81
745.55	54.83
745.949	54.85
746.348	54.88
746.746	54.89
747.144	54.95
747.543	54.98
747.941	55.02
748.339	55.08
748.737	55.15
749.136	55.18
749.534	55.23
749.932	55.27
750.33	55.27
750.727	55.27
751.125	55.32
751.523	55.33
751.921	55.35
752.318	55.36
752.716	55.33
753.113	55.3
753.511	55.26
753.908	55.23
754.305	55.19
754.703	55.16
755.1	55.16
755.497	55.14
755.894	55.12
756.291	55.07
756.688	55.05
757.085	55.05
757.482	55.04
757.878	55.07
758.275	55.06
758.672	55.12
759.068	55.15
759.465	55.17
759.861	55.15
760.258	55.15
760.654	55.19
761.05	55.22
761.447	55.19
761.843	55.17
762.239	55.14
762.635	55.12
763.031	55.1
763.427	55.06
763.822	55
764.218	54.99
764.614	54.96
765.01	54.94
765.405	54.88
765.801	54.89
766.196	54.88
766.592	54.89
766.987	54.88
767.382	54.87
767.778	54.89
768.173	54.92
768.568	54.89
768.963	54.88
769.358	54.87
769.753	54.89
770.148	54.89
770.542	54.86
770.937	54.83
771.332	54.82
771.726	54.8
772.121	54.8
772.515	54.79
772.91	54.81
773.304	54.79
773.699	54.75
774.093	54.75
774.487	54.74
774.881	54.75
775.275	54.77
775.669	54.78
776.063	54.75
776.457	54.74
776.851	54.7
777.245	54.72
777.638	54.75
778.032	54.8
778.425	54.79
778.819	54.79
779.212	54.81
779.606	54.81
779.999	54.8
780.392	54.82
780.786	54.81
781.179	54.84
781.572	54.79
781.965	54.76
782.358	54.71
782.751	54.75
783.143	54.76
783.536	54.77
783.929	54.79
784.322	54.8
784.714	54.82
785.107	54.86
785.499	54.86
785.891	54.91
786.284	54.9
786.676	54.96
787.068	54.91
787.46	54.91
787.852	54.92
788.245	54.9
788.636	54.91
789.028	54.88
789.42	54.83
789.812	54.82
790.204	54.77
790.595	54.8
790.987	54.79
791.378	54.81
791.77	54.83
792.161	54.84
792.553	54.84
792.944	54.84
793.335	54.9
793.726	54.91
794.117	54.9
794.508	54.92
794.899	54.91
795.29	54.89
795.681	54.86
796.072	54.82
796.463	54.83
796.853	54.83
797.244	54.83
797.634	54.79
798.025	54.8
798.415	54.82
798.806	54.82
799.196	54.87
799.586	54.9
799.976	54.91
800.366	54.94
800.756	54.88
801.146	54.88
801.536	54.87
801.926	54.86
802.316	54.85
802.706	54.83
803.095	54.85
803.485	54.82
803.874	54.8
804.264	54.84
804.653	54.81
805.043	54.83
805.432	54.81
805.821	54.8
806.21	54.84
806.599	54.87
806.988	54.9
807.377	54.94
807.766	54.93
808.155	54.94
808.544	54.89
808.933	54.91
809.321	54.95
809.71	55
810.098	55
810.487	54.97
810.875	54.96
811.264	54.96
811.652	54.95
812.04	54.96
812.428	54.94
812.816	54.96
813.204	54.96
813.592	54.94
813.98	54.94
814.368	54.92
814.756	54.9
815.144	54.93
815.531	54.91
815.919	54.87
816.306	54.87
816.694	54.89
817.081	54.9
817.469	54.91
817.856	54.92
818.243	54.9
818.63	54.94
819.017	54.97
819.404	54.96
819.791	55.01
820.178	55.02
820.565	55.04
820.952	55.05
821.339	55.06
821.725	55.07
822.112	55.08
822.498	55.08
822.885	55.08
823.271	55.11
823.657	55.08
824.044	55.02
824.43	55.06
824.816	55.05
825.202	55.05
825.588	55.07
825.974	55.07
826.36	55.05
826.746	55.06
827.132	55.04
827.517	55.03
827.903	55.04
828.289	55.05
828.674	55.02
829.06	55.02
829.445	55.02
829.83	55.02
830.216	55
830.601	55.01
830.986	55.02
831.371	55.03
831.756	55
832.141	55.02
832.526	55.01
832.911	55.04
833.295	55.02
833.68	55.02
834.065	55.03
834.449	55.01
834.834	54.99
835.218	55
835.603	55
835.987	55
836.371	55
836.755	54.99
837.139	54.96
837.524	54.95
837.908	54.94
838.291	54.92
838.675	54.94
839.059	54.96
839.443	54.94
839.827	54.94
840.21	54.98
840.594	54.95
840.977	54.98
841.361	55
841.744	55.02
842.127	54.99
842.511	54.98
842.894	54.95
843.277	54.96
843.66	54.96
844.043	54.98
844.426	54.96
844.809	54.95
845.191	54.94
845.574	54.91
845.957	54.87
846.339	54.89
846.722	54.89
847.104	54.9
847.487	54.89
847.869	54.85
848.252	54.81
848.634	54.82
849.016	54.84
849.398	54.86
849.78	54.87
850.162	54.9
850.544	54.93
850.926	54.9
851.307	54.9
851.689	54.88
852.071	54.91
852.452	54.92
852.834	54.9
853.215	54.92
853.597	54.91
853.978	54.87
854.359	54.84
854.741	54.81
855.122	54.83
855.503	54.82
855.884	54.79
856.265	54.76
856.646	54.73
857.026	54.75
857.407	54.67
857.788	54.68
858.169	54.72
858.549	54.76
858.93	54.75
859.31	54.75
859.69	54.74
860.071	54.77
860.451	54.79
860.831	54.81
861.211	54.78
861.591	54.82
861.971	54.8
862.351	54.8
862.731	54.78
863.111	54.79
863.491	54.81
863.87	54.81
864.25	54.81
864.629	54.79
865.009	54.76
865.388	54.76
865.768	54.78
866.147	54.77
866.526	54.75
866.905	54.71
867.284	54.74
867.663	54.72
868.042	54.71
868.421	54.7
868.8	54.7
869.179	54.73
869.558	54.72
869.936	54.7
870.315	54.71
870.693	54.71
871.072	54.72
871.45	54.67
871.828	54.69
872.207	54.7
872.585	54.71
872.963	54.71
873.341	54.71
873.719	54.73
874.097	54.72
874.475	54.71
874.853	54.72
875.23	54.73
875.608	54.78
875.986	54.76
876.363	54.76
876.741	54.76
877.118	54.75
877.495	54.74
877.873	54.74
878.25	54.75
878.627	54.76
879.004	54.76
879.381	54.76
879.758	54.72
880.135	54.74
880.512	54.74
880.889	54.74
881.265	54.76
881.642	54.74
882.019	54.74
882.395	54.73
882.772	54.72
883.148	54.71
883.524	54.7
883.901	54.71
884.277	54.7
884.653	54.7
885.029	54.7
885.405	54.7
885.781	54.7
886.157	54.71
886.532	54.7
886.908	54.68
887.284	54.68
887.659	54.7
888.035	54.7
888.411	54.68
888.786	54.66
889.161	54.63
889.537	54.61
889.912	54.57
890.287	54.53
890.662	54.54
891.037	54.49
891.412	54.46
891.787	54.44
892.162	54.39
892.536	54.39
892.911	54.34
893.286	54.33
893.66	54.34
894.035	54.37
894.409	54.36
894.784	54.34
895.158	54.37
895.532	54.36
895.906	54.36
896.281	54.34
896.655	54.32
897.029	54.35
897.402	54.37
897.776	54.37
898.15	54.39
898.524	54.37
898.898	54.36
899.271	54.36
899.645	54.37
900.018	54.37
900.392	54.43
900.765	54.45
901.138	54.44
901.511	54.42
901.884	54.39
902.258	54.34
902.631	54.36
903.003	54.34
903.376	54.31
903.749	54.34
904.122	54.33
904.495	54.3
904.867	54.27
905.24	54.27
905.612	54.26
905.985	54.26
906.357	54.27
906.729	54.26
907.102	54.28
907.474	54.29
907.846	54.23
908.218	54.2
908.59	54.15
908.962	54.14
909.334	54.14
909.705	54.13
910.077	54.12
910.449	54.14
910.82	54.13
911.192	54.11
911.563	54.13
911.935	54.14
912.306	54.13
912.677	54.17
913.048	54.15
913.419	54.15
913.79	54.15
914.161	54.14
914.532	54.11
914.903	54.09
915.274	54.06
915.645	54.06
916.015	54.06
916.386	54.08
916.756	54.04
917.127	54.1
917.497	54.08
917.868	54.08
918.238	54.11
918.608	54.12
918.978	54.08
919.348	54.08
919.718	54.06
920.088	54.07
920.458	54.11
920.828	54.14
921.198	54.11
921.567	54.11
921.937	54.09
922.306	54.1
922.676	54.12
923.045	54.13
923.415	54.15
923.784	54.13
924.153	54.1
924.522	54.07
924.891	54.08
925.26	54.07
925.629	54.07
925.998	54.09
926.367	54.06
926.736	54
927.104	54.01
927.473	54.03
927.842	54.05
928.21	54.1
928.578	54.08
928.947	54.05
929.315	54.05
929.683	54.07
930.051	54.05
930.42	54.04
930.788	54.07
931.156	54.06
931.523	54.05
931.891	53.97
932.259	53.9
932.627	53.87
932.994	53.91
933.362	53.86
933.729	53.82
934.097	53.77
934.464	53.75
934.831	53.67
935.199	53.71
935.566	53.66
935.933	53.7
936.3	53.74
936.667	53.72
937.034	53.68
937.401	53.65
937.767	53.63
938.134	53.65
938.501	53.64
938.867	53.77
939.234	53.83
939.6	53.86
939.967	53.95
940.333	53.98
940.699	54.19
941.065	54.23
941.431	54.4
941.798	54.49
942.163	54.69
942.529	54.83
942.895	54.88
943.261	54.88
943.627	55.07
943.992	55.11
944.358	55.06
944.723	54.96
945.089	55.05
945.454	55.11
945.82	55.14
946.185	55.17
946.55	55.17
946.915	55.09
947.28	55.09
947.645	55.03
948.01	55.06
948.375	55.15
948.74	55.1
949.104	55.04
949.469	54.89
949.834	54.85
950.198	54.71
950.562	54.62
950.927	54.57
951.291	54.49
951.655	54.44
952.02	54.34
952.384	54.33
952.748	54.32
953.112	54.3
953.476	54.26
953.839	54.22
954.203	54.19
954.567	54.16
954.931	54.15
955.294	54.14
955.658	54.1
956.021	54.05
956.385	53.99
956.748	53.98
957.111	53.88
957.474	53.93
957.837	53.9
958.2	53.81
958.563	53.76
958.926	53.65
959.289	53.63
959.652	53.58
960.015	53.54
960.377	53.48
960.74	53.46
961.102	53.43
961.465	53.39
961.827	53.25
962.189	53.2
962.552	53.18
962.914	53.17
963.276	53.2
963.638	53.15
964	53.16
964.362	53.14
964.724	53.2
965.085	53.22
965.447	53.19
965.809	53.2
966.17	53.27
966.532	53.33
966.893	53.34
967.255	53.27
967.616	53.35
967.977	53.38
968.338	53.4
968.699	53.3
969.061	53.29
969.421	53.24
969.782	53.37
970.143	53.3
970.504	53.28
970.865	53.32
971.225	53.39
971.586	53.41
971.946	53.32
972.307	53.29
972.667	53.3
973.027	53.41
973.388	53.43
973.748	53.4
974.108	53.43
974.468	53.4
974.828	53.4
975.188	53.34
975.548	53.3
975.907	53.31
976.267	53.33
976.627	53.45
976.986	53.37
977.346	53.36
977.705	53.42
978.064	53.46
978.424	53.46
978.783	53.41
979.142	53.5
979.501	53.51
979.86	53.54
980.219	53.44
980.578	53.36
980.937	53.45
981.296	53.53
981.654	53.51
982.013	53.61
982.371	53.65
982.73	53.72
983.088	53.66
983.447	53.7
983.805	53.78
984.163	53.9
984.521	53.85
984.879	53.83
985.237	53.89
985.595	53.97
985.953	53.85
986.311	53.94
986.669	53.87
987.026	53.89
987.384	53.88
987.741	53.91
988.099	53.92
988.456	53.92
988.814	53.94
989.171	53.84
989.528	53.66
989.885	53.61
990.242	53.66
990.599	53.8
990.956	53.79
991.313	53.79
991.67	53.88
992.027	53.91
992.383	54.01
992.74	54.02
993.096	54.05
993.453	54.19
993.809	54.37
994.165	54.32
994.522	54.3
994.878	54.36
995.234	54.43
995.59	54.26
995.946	54.39
996.302	54.35
996.658	54.3
997.013	54.39
997.369	54.43
997.725	54.48
998.08	54.51
998.436	54.68
998.791	54.72
999.147	54.73
999.502	54.83
999.857	54.74
1000.212	54.79
1000.567	54.93
1000.922	54.99
1001.277	54.98
1001.632	55
1001.987	54.95
1002.342	54.89
1002.696	54.88
1003.051	54.88
1003.406	54.79
1003.76	54.86
1004.114	55.23
1004.469	55.17
1004.823	55.25
1005.177	55.28
1005.531	55.15
1005.885	55.43
1006.239	55.51
1006.593	55.54
1006.947	55.62
1007.301	55.78
1007.655	55.85
1008.008	55.59
1008.362	55.6
1008.715	55.51
1009.069	55.56
1009.422	55.79
1009.776	55.7
1010.129	55.71
1010.482	56.04
1010.835	56.21
1011.188	56.3
1011.541	56.12
1011.894	56.25
1012.247	56.44
1012.6	56.51
1012.952	56.76
1013.305	56.76
1013.657	56.84
1014.01	56.87
1014.362	56.82
1014.715	56.74
1015.067	56.91
1015.419	57.37
1015.771	57.69
1016.123	57.83
1016.475	58.22
1016.827	58.24
1017.179	58.34
1017.531	58.57
1017.883	58.82
1018.234	58.75
1018.586	58.83
1018.938	58.7
1019.289	58.56
1019.64	58.68
1019.992	58.77
1020.343	58.51
1020.694	58.51
1021.045	58.77
1021.396	58.79
1021.747	58.65
1022.098	58.64
1022.449	58.59
1022.8	59
1023.151	59.31
1023.501	59.3
1023.852	59.63
1024.202	59.92
1024.553	60.23
1024.903	60.14
1025.253	60.58
1025.604	60.95
1025.954	61.08
1026.304	61.97
1026.654	61.96
1027.004	62.11
1027.354	62.04
1027.703	61.57
1028.053	61.54
1028.403	61.86
1028.753	62.61
1029.102	62.02
1029.452	61.72
1029.801	61.8
1030.15	61.32
1030.499	61.34
897.758	559.61
901.051	572.69
904.343	577.1
907.636	568.85
910.928	560.4
914.22	570.17
917.511	557.73
920.803	537.26
924.094	518.14
927.384	522.02
930.675	507.32
933.965	501.72
937.255	501.61
940.544	480.25
943.834	461.73
947.123	454.34
950.411	430.24
953.7	422.6
956.988	407.43
960.276	386.16
963.563	384.71
966.851	362.28
970.138	356.19
973.424	331.09
976.711	327.85
979.997	314.76
983.283	307.56
986.568	297.99
989.853	290.47
993.138	280.98
996.423	277.89
999.708	268.66
1002.992	269.5
1006.275	264.96
1009.559	262.45
1012.842	253.16
1016.125	246.88
1019.408	241.58
1022.69	241.19
1025.972	238.71
1029.254	232.67
1032.536	229.47
1035.817	221.61
1039.098	219.62
1042.379	212.38
1045.659	209.5
1048.939	208.49
1052.219	204.8
1055.498	202.35
1058.778	197.31
1062.057	193.01
1065.335	192.69
1068.614	188.52
1071.892	186.21
1075.17	182.58
1078.447	180.74
1081.724	178.39
1085.001	175.13
1088.278	174
1091.554	173.3
1094.83	172.23
1098.106	170.34
1101.382	168.94
1104.657	169.23
1107.932	168.26
1111.206	166.05
1114.481	164.89
1117.755	164.31
1121.029	163.23
1124.302	161.39
1127.575	157.91
1130.848	157.33
1134.121	155.82
1137.393	155.26
1140.665	153.62
1143.937	151.5
1147.208	150.74
1150.48	148.63
1153.75	148.54
1157.021	147.61
1160.291	147.23
1163.561	147.92
1166.831	146.08
1170.101	145.76
1173.37	145.66
1176.639	143.97
1179.907	144.8
1183.176	144.64
1186.444	144.55
1189.711	142.89
1192.979	145
1196.246	144.24
1199.513	143.33
1202.78	144.02
1206.046	143.56
1209.312	143.46
1212.578	144.22
1215.843	145.57
1219.108	146.27
1222.373	148.78
1225.638	150.55
1228.902	152.66
1232.166	157.36
1235.43	159.42
1238.693	164.05
1241.956	168.3
1245.219	172.62
1248.482	174.87
1251.744	174.16
1255.006	174.48
1258.268	170.57
1261.529	170.24
1264.79	165.75
1268.051	162.71
1271.312	160.36
1274.572	157.21
1277.832	152.77
1281.092	150.78
1284.351	147.71
1287.61	147.73
1290.869	146.95
1294.128	146.35
1297.386	145.41
1300.644	144.73
1303.902	144.01
1307.159	144.95
1310.416	144.73
1313.673	147.59
1316.93	148.03
1320.186	150.06
1323.442	152.02
1326.697	155.52
1329.953	156.44
1333.208	162.13
1336.463	167.44
1339.717	170.72
1342.972	177.33
1346.226	182.66
1349.479	183.96
1352.733	192.36
1355.986	196.71
1359.238	200.36
1362.491	200.67
1365.743	209.15
1368.995	209.66
1372.247	210.57
1375.498	209.56
1378.749	216.34
1382	215.77
1385.251	215.36
1388.501	213.16
1391.751	215.34
1395	213.36
1398.25	214.79
1401.499	213.52
1404.748	213.17
1407.996	209
1411.244	209.33
1414.492	204.93
1417.74	198.89
1420.987	194.23
1424.234	191.47
1427.481	183.89
1430.728	179.45
1433.974	172.79
1437.22	168.56
1440.465	162.39
1443.711	157.05
1446.956	152.11
1450.201	146.73
1453.445	140.8
1456.689	136.39
1459.933	132.73
1463.177	127.65
1466.42	124.55
1469.663	121.7
1472.906	116.99
1476.148	114.32
1479.391	112.7
1482.633	110.91
1485.874	108.97
1489.115	108.25
1492.356	106.73
1495.597	104.9
1498.838	104.24
1502.078	103.96
1505.318	103.56
1508.557	102.88
1511.797	102.09
1515.036	101.56
1518.274	100.94
1521.513	100.18
1524.751	99.67
1527.989	100.32
1531.227	99.99
1534.464	99.73
1537.701	99.05
1540.938	98.78
1544.174	99.41
1547.41	98.99
1550.646	98.55
1553.882	99.13
1557.117	98.23
1560.352	98.66
1563.587	96.91
1566.821	97.08
1570.055	96.85
1573.289	96.44
1576.523	96.78
1579.756	95.61
1582.989	96.04
1586.222	96.08
1589.454	95.62
1592.686	95.46
1595.918	94.61
1599.15	95.42
1602.381	95.45
1605.612	95.55
1608.843	95.63
1612.073	95.86
1615.303	96.42
1618.533	96.04
1621.762	96.24
1624.992	96.02
1628.221	96.45
1631.449	96.89
1634.678	96.46
1637.906	96.43
1641.134	96.54
1644.361	96.74
1647.588	96.25
1650.815	96.07
1654.042	96.58
1657.269	95.91
1660.495	96.6
1663.72	96.69
1666.946	96.91
1670.171	97.51
1673.396	98.03
1676.621	98.49
1679.845	98.56
1683.069	98.85
1686.293	98.75
1689.517	98.87
1692.74	99.51
1695.963	99.25
1699.185	99.5
1702.408	99.97
1705.63	99.72
1708.852	100.52
1712.073	99.93
1715.294	99.99
1718.515	100.56
1721.736	100.72
1724.956	100.6
1728.176	100.46
1731.396	101.09
1734.616	101.29
1737.835	100.95
1741.054	101.29
1744.272	100.25
1747.491	100.36
1750.709	101.1
1753.927	100.79
1757.144	101.26
1760.361	101.5
1763.578	101.94
1766.795	102.27
1770.011	102.56
1773.227	102.89
1776.443	103.94
1779.658	104.53
1782.874	106.08
1786.089	105.65
1789.303	105.88
1792.518	106.68
1795.732	107.49
1798.945	108.48
1802.159	108.56
1805.372	109.76
1808.585	110.45
1811.797	111.08
1815.01	111.64
1818.222	111.67
1821.434	113.16
1824.645	114.08
1827.856	115.62
1831.067	115.97
1834.278	116.9
1837.488	118.18
1840.698	118.9
1843.908	119.19
1847.117	119.94
1850.326	121.05
1853.535	121.53
1856.744	122.02
1859.952	123.01
1863.16	122.65
1866.368	122.09
1869.575	123.03
1872.782	122.24
1875.989	121.51
1879.196	121.07
1882.402	119.46
1885.608	120.16
1888.814	118.92
1892.019	120.47
1895.224	118.15
1898.429	118.12
1901.634	119.14
1904.838	118.36
1908.042	118.71
1911.246	118.08
1914.449	118.69
1917.652	118.71
1920.855	118.68
1924.058	118.59
1927.26	117.15
1930.462	118.32
1933.664	118.62
1936.865	118.66
1940.066	117.79
1943.267	117.34
1946.467	118.37
1949.668	118.02
1952.868	119.97
1956.067	119.51
1959.267	121.32
1962.466	121.75
1965.665	122.76
1968.863	122.74
1972.061	123.03
1975.259	127.12
1978.457	127.39
1981.654	128.82
1984.852	130.29
1988.048	130.71
1991.245	132.67
1994.441	134.58
1997.637	137.82
2000.833	140.67
2004.028	142.49
2007.223	147.6
2010.418	148.23
2013.613	155.17
2016.807	159.65
2020.001	162.2
2023.194	167.38
2026.388	172.36
2029.581	181.14
2032.774	186.24
2035.966	191.1
2039.158	197.49
2042.35	199.5
2045.542	203.41
2048.733	212.86
2051.924	213.34
2055.115	218.36
2058.306	219.85
2061.496	223.87
2064.686	222.34
2067.875	222.11
2071.065	224.93
2074.254	224.98
2077.442	232.17
2080.631	234.28
2083.819	232.92
2087.007	239.82
2090.195	242.23
2093.382	244.52
2096.569	245.59
2099.756	250.8
2102.942	254.67
2106.128	260.64
2109.314	261.65
2112.5	261.66
2115.685	260.26
2118.87	261.11
2122.055	262.82
2125.239	267.69
2128.424	272.33
2131.608	269.92
2134.791	267.73
2137.974	269.23
2141.157	270.83
2144.34	274.62
2147.523	278.47
2150.705	286.03
2153.887	283.29
2157.068	285.15
2160.25	288.57
2163.431	286
2166.611	292.89
2169.792	300.18
2172.972	305.75
2176.152	307.15
2179.331	313
2182.511	312.76
2185.69	316.56
2188.868	329.61
2192.047	335.58
2195.225	341.54
2198.403	347.15
2201.58	344.99
2204.758	352.06
2207.935	354.88
2211.111	360.49
2214.288	361.82
2217.464	366.82
2220.64	371.45
2223.815	371.78
2226.991	366.35
2230.166	369.06
2233.34	381
2236.515	389.12
2239.689	387.8
2242.863	391.75
2246.036	390.63
2249.209	398.35
2252.382	398.7
2255.555	413.01
2258.727	415.71
2261.9	427.03
2265.071	432.04
2268.243	425.47
2271.414	438.17
2274.585	446.66
2277.756	450.8
2280.926	461.74
2284.096	462.32
2287.266	465.31
2290.436	452.12
2293.605	462.38
2296.774	482.04
2299.942	484.19
2303.111	501.38
2306.279	509.14
2309.447	509.32
2312.614	508.83
2315.781	521.6
2318.948	533.17
2322.115	541.14
2325.281	570.22
2328.447	569.22
2331.613	570.21
2334.779	577.01
2337.944	585.46
2341.109	597.9
2344.274	605.47
2347.438	623.51
2350.602	638.77
2353.766	677.68
2356.929	682.13
2360.092	688.06
2363.255	688.27
2366.418	700.42
2369.58	716.14
2372.742	712.6
2375.904	706.85
2379.066	729.21
2382.227	772.25
2385.388	765.09
2388.548	724.56
2391.709	717.12
2394.869	743.77
2398.029	745.33
2401.188	748.27
2404.347	768.59
2407.506	793.35
2410.665	767.19
2413.823	766.16
2416.981	764.23
2420.139	725.33
2423.296	784.23
2426.453	828.8
2429.61	796.95
2432.767	849.36
2435.923	868.97
2439.079	844.68
2442.235	867.11
2445.391	886.6
2448.546	881.16
2451.701	924.91
2454.855	991.16
2458.009	878.47
2461.163	903.11
2464.317	901.92
2467.471	886.67
2470.624	916.15
2473.777	891.67
2476.929	862.27
2480.082	917.78
2483.234	963.27
2486.385	973.66
2489.537	997.09
2492.688	1096.05
2495.839	1082.51
2498.989	1111.1
2502.14	1111.39
2505.29	1065.75
2508.439	1190.44
2511.589	1224.42
2514.738	1197.57
2517.887	1185.51
2521.035	1115
2524.183	1095.52
2527.331	1086.1
2530.479	1051.52
2533.627	1078.98
