Data from N_1_hir_il_4n_021_Splice17_16.txt Node
Date: Sat Feb 29 13:42:15 EST 2020
User: sa697716
Spectrometer: FLMS03696
Trigger mode: 0
Integration Time (sec): 3.180400E-1
Scans to average: 20
Electric dark correction enabled: true
Nonlinearity correction enabled: true
Boxcar width: 5
XAxis mode: Wavelengths
Number of Pixels in Spectrum: 2048
>>>>>Begin Spectral Data<<<<<
187.83	83.53
188.298	78.43
188.766	73.48
189.233	75.41
189.701	78.94
190.169	82.96
190.636	80.6
191.104	67.92
191.571	2.29
192.039	180.95
192.506	275.82
192.974	7683.92
193.441	-381.17
193.908	114.99
194.375	118.27
194.842	121.81
195.31	86.01
195.777	90.1
196.244	34.83
196.711	18.78
197.177	14.68
197.644	13.66
198.111	13.78
198.578	14.26
199.045	14
199.511	15.06
199.978	15.57
200.445	15.82
200.911	16.04
201.378	16.16
201.844	16.73
202.31	17.6
202.777	18.11
203.243	18.51
203.709	18.87
204.176	18.81
204.642	19.08
205.108	19.08
205.574	19.83
206.04	20.12
206.506	20.01
206.972	19.81
207.438	19.68
207.903	19.83
208.369	20.03
208.835	20.02
209.301	20.37
209.766	20.48
210.232	20.7
210.697	20.45
211.163	20.29
211.628	20.46
212.094	20.69
212.559	20.48
213.024	20.58
213.49	20.58
213.955	21.03
214.42	21
214.885	20.73
215.35	20.51
215.815	20.05
216.28	20.13
216.745	20.24
217.21	20.07
217.675	20.13
218.14	19.89
218.604	19.66
219.069	19.49
219.534	19.41
219.998	19.33
220.463	19.31
220.927	19.28
221.392	19.16
221.856	18.99
222.32	18.85
222.785	18.7
223.249	18.57
223.713	18.42
224.177	18.21
224.642	18.09
225.106	17.92
225.57	17.74
226.034	17.59
226.497	17.4
226.961	17.22
227.425	17.04
227.889	16.87
228.353	16.67
228.816	16.52
229.28	16.38
229.744	16.2
230.207	16.05
230.671	15.85
231.134	15.68
231.597	15.53
232.061	15.36
232.524	15.24
232.987	15.09
233.45	14.96
233.914	14.81
234.377	14.66
234.84	14.51
235.303	14.36
235.766	14.24
236.229	14.1
236.691	13.97
237.154	13.85
237.617	13.71
238.08	13.58
238.542	13.45
239.005	13.31
239.468	13.17
239.93	13.08
240.393	12.97
240.855	12.84
241.317	12.74
241.78	12.65
242.242	12.53
242.704	12.44
243.166	12.33
243.629	12.25
244.091	12.16
244.553	12.1
245.015	12.01
245.477	11.91
245.939	11.84
246.4	11.76
246.862	11.67
247.324	11.62
247.786	11.54
248.247	11.47
248.709	11.4
249.17	11.35
249.632	11.28
250.093	11.22
250.555	11.18
251.016	11.14
251.477	11.08
251.939	11.05
252.4	11.01
252.861	10.97
253.322	10.95
253.783	10.92
254.244	10.89
254.705	10.85
255.166	10.83
255.627	10.79
256.088	10.74
256.549	10.72
257.009	10.68
257.47	10.65
257.931	10.6
258.391	10.56
258.852	10.53
259.312	10.49
259.773	10.46
260.233	10.43
260.694	10.4
261.154	10.38
261.614	10.35
262.074	10.33
262.534	10.29
262.994	10.26
263.455	10.24
263.915	10.21
264.374	10.19
264.834	10.18
265.294	10.16
265.754	10.13
266.214	10.1
266.673	10.09
267.133	10.07
267.593	10.05
268.052	10.03
268.512	10.02
268.971	10
269.431	9.97
269.89	9.95
270.349	9.93
270.809	9.92
271.268	9.91
271.727	9.87
272.186	9.85
272.645	9.82
273.104	9.81
273.563	9.79
274.022	9.76
274.481	9.73
274.94	9.7
275.399	9.67
275.857	9.65
276.316	9.61
276.775	9.58
277.233	9.55
277.692	9.53
278.15	9.49
278.609	9.46
279.067	9.42
279.525	9.39
279.984	9.36
280.442	9.33
280.9	9.3
281.358	9.27
281.816	9.24
282.274	9.2
282.732	9.18
283.19	9.16
283.648	9.13
284.106	9.09
284.564	9.07
285.021	9.04
285.479	9.01
285.937	8.97
286.394	8.94
286.852	8.92
287.309	8.9
287.767	8.87
288.224	8.83
288.682	8.81
289.139	8.79
289.596	8.77
290.053	8.74
290.511	8.73
290.968	8.71
291.425	8.68
291.882	8.66
292.339	8.64
292.796	8.61
293.252	8.58
293.709	8.56
294.166	8.53
294.623	8.51
295.079	8.49
295.536	8.47
295.992	8.45
296.449	8.43
296.905	8.41
297.362	8.39
297.818	8.38
298.274	8.37
298.731	8.34
299.187	8.33
299.643	8.31
300.099	8.29
300.555	8.27
301.011	8.25
301.467	8.23
301.923	8.21
302.379	8.2
302.835	8.18
303.291	8.16
303.746	8.14
304.202	8.12
304.658	8.1
305.113	8.07
305.569	8.05
306.024	8.04
306.479	8.01
306.935	7.99
307.39	7.96
307.845	7.93
308.301	7.92
308.756	7.91
309.211	7.9
309.666	7.89
310.121	7.89
310.576	7.88
311.031	7.87
311.486	7.87
311.94	7.87
312.395	7.87
312.85	7.86
313.305	7.85
313.759	7.83
314.214	7.82
314.668	7.8
315.123	7.79
315.577	7.77
316.032	7.76
316.486	7.74
316.94	7.71
317.394	7.69
317.849	7.67
318.303	7.65
318.757	7.64
319.211	7.63
319.665	7.61
320.119	7.6
320.572	7.6
321.026	7.6
321.48	7.58
321.934	7.58
322.387	7.58
322.841	7.57
323.295	7.56
323.748	7.55
324.202	7.54
324.655	7.53
325.108	7.51
325.562	7.48
326.015	7.46
326.468	7.44
326.921	7.43
327.374	7.41
327.827	7.39
328.28	7.38
328.733	7.36
329.186	7.35
329.639	7.34
330.092	7.33
330.545	7.33
330.997	7.32
331.45	7.31
331.903	7.3
332.355	7.29
332.808	7.29
333.26	7.27
333.713	7.26
334.165	7.25
334.617	7.24
335.069	7.24
335.522	7.22
335.974	7.23
336.426	7.22
336.878	7.21
337.33	7.21
337.782	7.21
338.234	7.21
338.686	7.21
339.137	7.21
339.589	7.2
340.041	7.19
340.493	7.17
340.944	7.16
341.396	7.15
341.847	7.14
342.299	7.12
342.75	7.09
343.201	7.07
343.653	7.05
344.104	7.03
344.555	7.02
345.006	7
345.457	7
345.908	6.99
346.359	6.98
346.81	6.98
347.261	6.97
347.712	6.97
348.163	6.97
348.613	6.96
349.064	6.94
349.515	6.92
349.965	6.92
350.416	6.9
350.866	6.9
351.317	6.89
351.767	6.87
352.217	6.86
352.668	6.85
353.118	6.83
353.568	6.83
354.018	6.83
354.468	6.82
354.918	6.81
355.368	6.8
355.818	6.78
356.268	6.77
356.718	6.77
357.168	6.77
357.617	6.76
358.067	6.76
358.517	6.75
358.966	6.76
359.416	6.78
359.865	6.77
360.315	6.77
360.764	6.78
361.213	6.77
361.663	6.77
362.112	6.78
362.561	6.78
363.01	6.77
363.459	6.78
363.908	6.76
364.357	6.74
364.806	6.74
365.255	6.74
365.703	6.73
366.152	6.74
366.601	6.74
367.05	6.75
367.498	6.75
367.947	6.75
368.395	6.75
368.844	6.77
369.292	6.76
369.74	6.78
370.189	6.79
370.637	6.8
371.085	6.8
371.533	6.8
371.981	6.81
372.429	6.81
372.877	6.82
373.325	6.83
373.773	6.83
374.221	6.85
374.669	6.87
375.116	6.87
375.564	6.88
376.012	6.89
376.459	6.9
376.907	6.9
377.354	6.92
377.801	6.93
378.249	6.95
378.696	6.96
379.143	6.98
379.591	6.99
380.038	7.02
380.485	7.03
380.932	7.04
381.379	7.05
381.826	7.07
382.273	7.09
382.72	7.12
383.166	7.13
383.613	7.16
384.06	7.17
384.506	7.19
384.953	7.2
385.4	7.22
385.846	7.25
386.292	7.27
386.739	7.29
387.185	7.33
387.631	7.34
388.078	7.37
388.524	7.37
388.97	7.38
389.416	7.39
389.862	7.4
390.308	7.4
390.754	7.41
391.2	7.43
391.645	7.45
392.091	7.44
392.537	7.46
392.983	7.47
393.428	7.49
393.874	7.52
394.319	7.54
394.765	7.55
395.21	7.56
395.655	7.57
396.101	7.58
396.546	7.58
396.991	7.59
397.436	7.58
397.881	7.58
398.326	7.59
398.771	7.59
399.216	7.61
399.661	7.62
400.106	7.66
400.551	7.68
400.995	7.68
401.44	7.69
401.885	7.69
402.329	7.7
402.774	7.7
403.218	7.7
403.663	7.7
404.107	7.72
404.551	7.73
404.995	7.71
405.44	7.71
405.884	7.71
406.328	7.7
406.772	7.71
407.216	7.72
407.66	7.73
408.104	7.73
408.547	7.72
408.991	7.7
409.435	7.67
409.879	7.67
410.322	7.66
410.766	7.65
411.209	7.64
411.653	7.62
412.096	7.59
412.54	7.58
412.983	7.56
413.426	7.55
413.869	7.53
414.312	7.55
414.756	7.56
415.199	7.56
415.642	7.59
416.085	7.61
416.527	7.63
416.97	7.65
417.413	7.66
417.856	7.66
418.298	7.66
418.741	7.66
419.184	7.65
419.626	7.64
420.069	7.63
420.511	7.61
420.953	7.6
421.396	7.58
421.838	7.58
422.28	7.59
422.722	7.6
423.164	7.6
423.606	7.61
424.048	7.59
424.49	7.59
424.932	7.59
425.374	7.59
425.816	7.58
426.258	7.57
426.699	7.54
427.141	7.51
427.582	7.48
428.024	7.46
428.465	7.43
428.907	7.44
429.348	7.44
429.789	7.41
430.231	7.39
430.672	7.36
431.113	7.34
431.554	7.33
431.995	7.32
432.436	7.32
432.877	7.31
433.318	7.31
433.759	7.28
434.2	7.25
434.64	7.24
435.081	7.22
435.522	7.23
435.962	7.24
436.403	7.24
436.843	7.26
437.284	7.26
437.724	7.26
438.164	7.27
438.604	7.28
439.045	7.28
439.485	7.28
439.925	7.27
440.365	7.24
440.805	7.22
441.245	7.21
441.685	7.19
442.125	7.17
442.564	7.16
443.004	7.13
443.444	7.11
443.883	7.1
444.323	7.08
444.762	7.09
445.202	7.11
445.641	7.11
446.081	7.13
446.52	7.11
446.959	7.1
447.398	7.11
447.837	7.15
448.276	7.14
448.716	7.14
449.154	7.16
449.593	7.15
450.032	7.15
450.471	7.16
450.91	7.14
451.349	7.14
451.787	7.13
452.226	7.12
452.664	7.09
453.103	7.09
453.541	7.1
453.98	7.09
454.418	7.07
454.856	7.05
455.295	7.03
455.733	7.02
456.171	7.01
456.609	7.01
457.047	7
457.485	6.98
457.923	6.98
458.361	6.96
458.798	6.96
459.236	6.96
459.674	6.96
460.111	6.96
460.549	6.96
460.987	6.95
461.424	6.94
461.862	6.93
462.299	6.93
462.736	6.93
463.173	6.93
463.611	6.92
464.048	6.92
464.485	6.91
464.922	6.9
465.359	6.9
465.796	6.89
466.233	6.9
466.67	6.92
467.106	6.9
467.543	6.89
467.98	6.89
468.416	6.9
468.853	6.89
469.29	6.9
469.726	6.92
470.162	6.92
470.599	6.93
471.035	6.91
471.471	6.91
471.907	6.92
472.344	6.92
472.78	6.91
473.216	6.89
473.652	6.9
474.088	6.9
474.523	6.89
474.959	6.88
475.395	6.86
475.831	6.87
476.266	6.87
476.702	6.86
477.138	6.85
477.573	6.85
478.008	6.85
478.444	6.85
478.879	6.83
479.314	6.83
479.75	6.83
480.185	6.83
480.62	6.82
481.055	6.8
481.49	6.8
481.925	6.79
482.36	6.78
482.795	6.77
483.229	6.77
483.664	6.77
484.099	6.75
484.534	6.75
484.968	6.74
485.403	6.74
485.837	6.73
486.271	6.74
486.706	6.74
487.14	6.75
487.574	6.75
488.009	6.74
488.443	6.74
488.877	6.76
489.311	6.76
489.745	6.78
490.179	6.79
490.613	6.8
491.046	6.81
491.48	6.84
491.914	6.85
492.348	6.87
492.781	6.88
493.215	6.9
493.648	6.91
494.082	6.93
494.515	6.95
494.948	6.98
495.382	7
495.815	7.03
496.248	7.05
496.681	7.07
497.114	7.09
497.547	7.12
497.98	7.15
498.413	7.19
498.846	7.22
499.279	7.26
499.711	7.27
500.144	7.31
500.577	7.34
501.009	7.37
501.442	7.42
501.874	7.46
502.306	7.52
502.739	7.57
503.171	7.61
503.603	7.67
504.036	7.73
504.468	7.8
504.9	7.88
505.332	7.96
505.764	8.03
506.196	8.11
506.627	8.18
507.059	8.24
507.491	8.34
507.923	8.43
508.354	8.53
508.786	8.62
509.217	8.7
509.649	8.8
510.08	8.9
510.512	9.01
510.943	9.14
511.374	9.26
511.805	9.39
512.237	9.51
512.668	9.62
513.099	9.74
513.53	9.88
513.961	10.03
514.391	10.14
514.822	10.27
515.253	10.41
515.684	10.55
516.114	10.69
516.545	10.84
516.975	10.99
517.406	11.15
517.836	11.31
518.267	11.46
518.697	11.62
519.127	11.79
519.558	11.95
519.988	12.1
520.418	12.26
520.848	12.42
521.278	12.58
521.708	12.6
522.138	12.74
522.567	12.88
522.997	13.04
523.427	13.17
523.857	13.31
524.286	13.46
524.716	13.59
525.145	13.72
525.575	13.85
526.004	13.97
526.433	14.22
526.863	14.34
527.292	14.47
527.721	14.58
528.15	14.66
528.579	14.77
529.008	14.87
529.437	14.96
529.866	15.04
530.295	15.13
530.724	15.22
531.152	15.3
531.581	15.39
532.01	15.46
532.438	15.52
532.867	15.6
533.295	15.65
533.723	15.73
534.152	15.79
534.58	15.84
535.008	15.9
535.436	15.93
535.865	15.96
536.293	16
536.721	16.03
537.149	16.07
537.576	16.1
538.004	16.13
538.432	16.14
538.86	16.17
539.287	16.19
539.715	16.21
540.143	16.24
540.57	16.25
540.998	16.27
541.425	16.28
541.852	16.3
542.28	16.3
542.707	16.32
543.134	16.32
543.561	16.32
543.988	16.33
544.415	16.34
544.842	16.35
545.269	16.38
545.696	16.4
546.123	16.42
546.549	16.44
546.976	16.48
547.403	16.47
547.829	16.51
548.256	16.53
548.682	16.54
549.108	16.55
549.535	16.56
549.961	16.56
550.387	16.54
550.813	16.54
551.24	16.53
551.666	16.52
552.092	16.51
552.518	16.49
552.943	16.48
553.369	16.46
553.795	16.45
554.221	16.43
554.646	16.4
555.072	16.39
555.498	16.35
555.923	16.32
556.349	16.27
556.774	16.22
557.199	16.18
557.625	16.14
558.05	16.1
558.475	16.03
558.9	15.97
559.325	15.91
559.75	15.84
560.175	15.79
560.6	15.71
561.025	15.65
561.449	15.57
561.874	15.5
562.299	15.42
562.723	15.34
563.148	15.25
563.572	15.19
563.997	15.11
564.421	15.01
564.846	14.92
565.27	14.84
565.694	14.75
566.118	14.65
566.542	14.57
566.966	14.48
567.39	14.37
567.814	14.27
568.238	14.15
568.662	14.05
569.086	13.97
569.509	13.87
569.933	13.77
570.357	13.66
570.78	13.57
571.204	13.46
571.627	13.34
572.05	13.26
572.474	13.17
572.897	13.09
573.32	13
573.743	12.92
574.166	12.82
574.589	12.73
575.012	12.66
575.435	12.58
575.858	12.51
576.281	12.45
576.704	12.39
577.126	12.32
577.549	12.27
577.972	12.2
578.394	12.12
578.817	12.07
579.239	12.01
579.661	11.96
580.084	11.9
580.506	11.85
580.928	11.79
581.35	11.74
581.772	11.71
582.194	11.64
582.616	11.6
583.038	11.57
583.46	11.54
583.882	11.52
584.303	11.49
584.725	11.45
585.147	11.39
585.568	11.35
585.99	11.3
586.411	11.26
586.833	11.23
587.254	11.2
587.675	11.16
588.096	11.11
588.518	11.06
588.939	11.03
589.36	11.02
589.781	10.99
590.202	10.98
590.623	10.95
591.043	10.93
591.464	10.9
591.885	10.88
592.305	10.88
592.726	10.86
593.147	10.85
593.567	10.83
593.987	10.81
594.408	10.8
594.828	10.77
595.248	10.77
595.669	10.75
596.089	10.73
596.509	10.7
596.929	10.67
597.349	10.65
597.769	10.63
598.189	10.62
598.608	10.6
599.028	10.57
599.448	10.55
599.867	10.51
600.287	10.48
600.706	10.47
601.126	10.44
601.545	10.41
601.965	10.38
602.384	10.36
602.803	10.31
603.222	10.26
603.641	10.23
604.061	10.2
604.48	10.17
604.898	10.14
605.317	10.1
605.736	10.07
606.155	10.04
606.574	10
606.992	9.96
607.411	9.93
607.829	9.86
608.248	9.81
608.666	9.78
609.085	9.74
609.503	9.7
609.921	9.66
610.339	9.62
610.758	9.57
611.176	9.54
611.594	9.51
612.012	9.46
612.43	9.46
612.847	9.42
613.265	9.39
613.683	9.34
614.101	9.3
614.518	9.26
614.936	9.21
615.353	9.19
615.771	9.15
616.188	9.13
616.606	9.09
617.023	9.07
617.44	9.04
617.857	9.02
618.274	9.01
618.691	9
619.108	8.98
619.525	8.95
619.942	8.92
620.359	8.91
620.776	8.89
621.192	8.89
621.609	8.86
622.026	8.85
622.442	8.82
622.859	8.81
623.275	8.81
623.691	8.8
624.108	8.8
624.524	8.79
624.94	8.77
625.356	8.77
625.772	8.76
626.188	8.76
626.604	8.74
627.02	8.74
627.436	8.73
627.852	8.71
628.268	8.71
628.683	8.7
629.099	8.7
629.514	8.68
629.93	8.67
630.345	8.65
630.761	8.63
631.176	8.64
631.591	8.62
632.007	8.59
632.422	8.57
632.837	8.54
633.252	8.52
633.667	8.48
634.082	8.46
634.497	8.41
634.911	8.37
635.326	8.34
635.741	8.29
636.155	8.25
636.57	8.21
636.984	8.16
637.399	8.1
637.813	8.05
638.228	8
638.642	7.96
639.056	7.92
639.47	7.88
639.884	7.82
640.298	7.77
640.712	7.71
641.126	7.67
641.54	7.62
641.954	7.61
642.368	7.56
642.781	7.53
643.195	7.48
643.609	7.45
644.022	7.43
644.436	7.39
644.849	7.34
645.262	7.31
645.676	7.29
646.089	7.25
646.502	7.21
646.915	7.19
647.328	7.15
647.741	7.11
648.154	7.09
648.567	7.06
648.98	7.05
649.393	7.04
649.805	7.02
650.218	7
650.631	6.99
651.043	6.99
651.456	6.97
651.868	6.96
652.28	6.97
652.693	6.95
653.105	6.93
653.517	6.91
653.929	6.91
654.341	6.89
654.753	6.86
655.165	6.84
655.577	6.8
655.989	6.77
656.401	6.74
656.813	6.71
657.224	6.68
657.636	6.66
658.047	6.64
658.459	6.6
658.87	6.57
659.282	6.55
659.693	6.53
660.104	6.51
660.515	6.49
660.926	6.48
661.338	6.45
661.749	6.42
662.159	6.41
662.57	6.39
662.981	6.37
663.392	6.34
663.803	6.33
664.213	6.31
664.624	6.29
665.035	6.27
665.445	6.25
665.855	6.24
666.266	6.23
666.676	6.2
667.086	6.2
667.497	6.2
667.907	6.2
668.317	6.18
668.727	6.18
669.137	6.17
669.547	6.18
669.956	6.19
670.366	6.2
670.776	6.21
671.186	6.22
671.595	6.22
672.005	6.24
672.414	6.24
672.824	6.26
673.233	6.28
673.642	6.29
674.052	6.29
674.461	6.29
674.87	6.3
675.279	6.32
675.688	6.33
676.097	6.35
676.506	6.36
676.915	6.39
677.323	6.41
677.732	6.44
678.141	6.48
678.549	6.5
678.958	6.54
679.366	6.55
679.775	6.58
680.183	6.62
680.592	6.65
681	6.67
681.408	6.69
681.816	6.72
682.224	6.74
682.632	6.78
683.04	6.82
683.448	6.86
683.856	6.92
684.264	6.97
684.671	7.04
685.079	7.09
685.487	7.18
685.894	7.28
686.302	7.35
686.709	7.45
687.116	7.55
687.524	7.66
687.931	7.78
688.338	7.93
688.745	8.08
689.152	8.23
689.559	8.41
689.966	8.59
690.373	8.79
690.78	9.01
691.187	9.24
691.593	9.48
692	9.74
692.407	10.02
692.813	10.28
693.22	10.57
693.626	10.88
694.032	11.17
694.439	11.5
694.845	11.83
695.251	12.16
695.657	12.48
696.063	12.83
696.469	13.17
696.875	13.49
697.281	13.84
697.687	14.21
698.093	14.56
698.498	14.93
698.904	15.28
699.31	15.64
699.715	16.02
700.12	16.37
700.526	16.73
700.931	17.1
701.337	17.49
701.742	17.83
702.147	18.18
702.552	18.55
702.957	18.9
703.362	19.26
703.767	19.61
704.172	19.96
704.577	20.33
704.981	20.7
705.386	21.04
705.791	21.39
706.195	21.75
706.6	22.07
707.004	22.41
707.408	22.75
707.813	23.06
708.217	23.38
708.621	23.7
709.025	24
709.43	24.27
709.834	24.59
710.237	24.87
710.641	25.19
711.045	25.48
711.449	25.77
711.853	26.07
712.256	26.37
712.66	26.67
713.064	26.95
713.467	27.23
713.87	27.54
714.274	27.81
714.677	28.11
715.08	28.35
715.484	28.64
715.887	28.91
716.29	29.14
716.693	29.36
717.096	29.61
717.499	29.87
717.901	30.12
718.304	30.37
718.707	30.62
719.109	30.85
719.512	31.11
719.915	31.33
720.317	31.54
720.719	31.77
721.122	32.04
721.524	32.28
721.926	32.46
722.328	32.66
722.731	32.85
723.133	33.04
723.535	33.23
723.937	33.37
724.338	33.56
724.74	33.75
725.142	33.93
725.544	34.08
725.945	34.21
726.347	34.39
726.748	34.54
727.15	34.68
727.551	34.83
727.952	34.98
728.354	35.15
728.755	35.31
729.156	35.45
729.557	35.58
729.958	35.71
730.359	35.83
730.76	35.94
731.161	36.06
731.562	36.18
731.962	36.29
732.363	36.38
732.763	36.48
733.164	36.52
733.564	36.59
733.965	36.68
734.365	36.76
734.766	36.84
735.166	36.91
735.566	36.98
735.966	37.02
736.366	37.08
736.766	37.13
737.166	37.19
737.566	37.28
737.966	37.34
738.365	37.38
738.765	37.42
739.165	37.45
739.564	37.5
739.964	37.54
740.363	37.6
740.763	37.66
741.162	37.71
741.561	37.76
741.96	37.8
742.36	37.85
742.759	37.88
743.158	37.89
743.557	37.93
743.955	37.97
744.354	38.02
744.753	38.05
745.152	38.05
745.55	38.07
745.949	38.09
746.348	38.1
746.746	38.1
747.144	38.13
747.543	38.21
747.941	38.26
748.339	38.3
748.737	38.34
749.136	38.36
749.534	38.4
749.932	38.43
750.33	38.45
750.727	38.47
751.125	38.48
751.523	38.49
751.921	38.5
752.318	38.49
752.716	38.5
753.113	38.47
753.511	38.47
753.908	38.47
754.305	38.43
754.703	38.42
755.1	38.39
755.497	38.4
755.894	38.4
756.291	38.37
756.688	38.35
757.085	38.32
757.482	38.33
757.878	38.35
758.275	38.34
758.672	38.37
759.068	38.39
759.465	38.42
759.861	38.4
760.258	38.4
760.654	38.43
761.05	38.42
761.447	38.4
761.843	38.39
762.239	38.38
762.635	38.39
763.031	38.4
763.427	38.39
763.822	38.37
764.218	38.39
764.614	38.36
765.01	38.35
765.405	38.38
765.801	38.41
766.196	38.43
766.592	38.43
766.987	38.43
767.382	38.41
767.778	38.42
768.173	38.43
768.568	38.42
768.963	38.44
769.358	38.43
769.753	38.47
770.148	38.44
770.542	38.43
770.937	38.45
771.332	38.42
771.726	38.4
772.121	38.36
772.515	38.32
772.91	38.31
773.304	38.3
773.699	38.3
774.093	38.25
774.487	38.27
774.881	38.26
775.275	38.23
775.669	38.25
776.063	38.25
776.457	38.28
776.851	38.27
777.245	38.27
777.638	38.26
778.032	38.26
778.425	38.26
778.819	38.25
779.212	38.22
779.606	38.23
779.999	38.21
780.392	38.22
780.786	38.2
781.179	38.21
781.572	38.22
781.965	38.26
782.358	38.24
782.751	38.26
783.143	38.26
783.536	38.32
783.929	38.33
784.322	38.34
784.714	38.32
785.107	38.31
785.499	38.35
785.891	38.33
786.284	38.31
786.676	38.34
787.068	38.3
787.46	38.31
787.852	38.27
788.245	38.23
788.636	38.26
789.028	38.27
789.42	38.28
789.812	38.28
790.204	38.26
790.595	38.26
790.987	38.19
791.378	38.22
791.77	38.22
792.161	38.24
792.553	38.24
792.944	38.21
793.335	38.23
793.726	38.2
794.117	38.17
794.508	38.22
794.899	38.23
795.29	38.28
795.681	38.27
796.072	38.24
796.463	38.23
796.853	38.24
797.244	38.23
797.634	38.2
798.025	38.23
798.415	38.26
798.806	38.23
799.196	38.26
799.586	38.24
799.976	38.22
800.366	38.2
800.756	38.18
801.146	38.19
801.536	38.17
801.926	38.17
802.316	38.18
802.706	38.18
803.095	38.19
803.485	38.12
803.874	38.14
804.264	38.18
804.653	38.2
805.043	38.25
805.432	38.21
805.821	38.22
806.21	38.23
806.599	38.25
806.988	38.23
807.377	38.21
807.766	38.2
808.155	38.21
808.544	38.19
808.933	38.18
809.321	38.17
809.71	38.2
810.098	38.18
810.487	38.18
810.875	38.14
811.264	38.13
811.652	38.14
812.04	38.16
812.428	38.14
812.816	38.12
813.204	38.09
813.592	38.07
813.98	38.05
814.368	38.09
814.756	38.07
815.144	38.07
815.531	38.06
815.919	38.04
816.306	38.04
816.694	38.06
817.081	38.08
817.469	38.09
817.856	38.1
818.243	38.1
818.63	38.08
819.017	38.1
819.404	38.1
819.791	38.12
820.178	38.13
820.565	38.1
820.952	38.09
821.339	38.1
821.725	38.11
822.112	38.12
822.498	38.08
822.885	38.08
823.271	38.07
823.657	38.06
824.044	38.07
824.43	38.06
824.816	38.08
825.202	38.07
825.588	38.04
825.974	38.03
826.36	38.03
826.746	38.07
827.132	38.05
827.517	38.06
827.903	38.05
828.289	38.06
828.674	38.05
829.06	38.06
829.445	38.08
829.83	38.11
830.216	38.11
830.601	38.13
830.986	38.15
831.371	38.16
831.756	38.13
832.141	38.16
832.526	38.13
832.911	38.13
833.295	38.12
833.68	38.13
834.065	38.13
834.449	38.12
834.834	38.08
835.218	38.05
835.603	38.05
835.987	38.06
836.371	38.06
836.755	38.06
837.139	38.06
837.524	38.06
837.908	38.01
838.291	38
838.675	38.01
839.059	38.03
839.443	38.05
839.827	38.04
840.21	38.05
840.594	38.01
840.977	37.99
841.361	38
841.744	38.03
842.127	38.04
842.511	38.04
842.894	38.01
843.277	38.01
843.66	37.99
844.043	37.97
844.426	37.96
844.809	37.98
845.191	37.98
845.574	37.95
845.957	37.92
846.339	37.89
846.722	37.88
847.104	37.9
847.487	37.89
847.869	37.85
848.252	37.89
848.634	37.89
849.016	37.9
849.398	37.88
849.78	37.9
850.162	37.91
850.544	37.94
850.926	37.92
851.307	37.93
851.689	37.9
852.071	37.92
852.452	37.89
852.834	37.89
853.215	37.89
853.597	37.9
853.978	37.89
854.359	37.86
854.741	37.86
855.122	37.87
855.503	37.84
855.884	37.85
856.265	37.84
856.646	37.84
857.026	37.84
857.407	37.82
857.788	37.82
858.169	37.82
858.549	37.85
858.93	37.86
859.31	37.85
859.69	37.83
860.071	37.84
860.451	37.87
860.831	37.86
861.211	37.83
861.591	37.84
861.971	37.82
862.351	37.84
862.731	37.81
863.111	37.79
863.491	37.81
863.87	37.82
864.25	37.82
864.629	37.78
865.009	37.8
865.388	37.82
865.768	37.81
866.147	37.82
866.526	37.82
866.905	37.85
867.284	37.84
867.663	37.83
868.042	37.83
868.421	37.82
868.8	37.84
869.179	37.84
869.558	37.84
869.936	37.86
870.315	37.87
870.693	37.88
871.072	37.85
871.45	37.86
871.828	37.88
872.207	37.9
872.585	37.91
872.963	37.89
873.341	37.88
873.719	37.88
874.097	37.87
874.475	37.86
874.853	37.84
875.23	37.86
875.608	37.85
875.986	37.83
876.363	37.83
876.741	37.82
877.118	37.82
877.495	37.82
877.873	37.82
878.25	37.82
878.627	37.82
879.004	37.82
879.381	37.82
879.758	37.8
880.135	37.8
880.512	37.79
880.889	37.8
881.265	37.83
881.642	37.82
882.019	37.82
882.395	37.84
882.772	37.84
883.148	37.83
883.524	37.81
883.901	37.85
884.277	37.87
884.653	37.89
885.029	37.9
885.405	37.89
885.781	37.89
886.157	37.91
886.532	37.89
886.908	37.89
887.284	37.91
887.659	37.93
888.035	37.92
888.411	37.89
888.786	37.88
889.161	37.88
889.537	37.9
889.912	37.9
890.287	37.89
890.662	37.91
891.037	37.9
891.412	37.88
891.787	37.86
892.162	37.83
892.536	37.81
892.911	37.8
893.286	37.78
893.66	37.74
894.035	37.7
894.409	37.69
894.784	37.65
895.158	37.63
895.532	37.62
895.906	37.63
896.281	37.62
896.655	37.64
897.029	37.61
897.402	37.59
897.776	37.6
898.15	37.65
898.524	37.63
898.898	37.62
899.271	37.63
899.645	37.63
900.018	37.61
900.392	37.61
900.765	37.59
901.138	37.6
901.511	37.61
901.884	37.62
902.258	37.6
902.631	37.63
903.003	37.66
903.376	37.66
903.749	37.69
904.122	37.69
904.495	37.72
904.867	37.76
905.24	37.79
905.612	37.79
905.985	37.78
906.357	37.79
906.729	37.79
907.102	37.81
907.474	37.82
907.846	37.77
908.218	37.77
908.59	37.75
908.962	37.75
909.334	37.73
909.705	37.72
910.077	37.72
910.449	37.7
910.82	37.7
911.192	37.7
911.563	37.68
911.935	37.67
912.306	37.68
912.677	37.68
913.048	37.66
913.419	37.64
913.79	37.63
914.161	37.63
914.532	37.64
914.903	37.62
915.274	37.59
915.645	37.58
916.015	37.58
916.386	37.55
916.756	37.54
917.127	37.54
917.497	37.55
917.868	37.59
918.238	37.59
918.608	37.6
918.978	37.57
919.348	37.57
919.718	37.57
920.088	37.62
920.458	37.7
920.828	37.71
921.198	37.73
921.567	37.71
921.937	37.7
922.306	37.68
922.676	37.71
923.045	37.71
923.415	37.72
923.784	37.73
924.153	37.69
924.522	37.64
924.891	37.63
925.26	37.61
925.629	37.61
925.998	37.58
926.367	37.61
926.736	37.57
927.104	37.57
927.473	37.59
927.842	37.55
928.21	37.58
928.578	37.55
928.947	37.53
929.315	37.54
929.683	37.55
930.051	37.54
930.42	37.48
930.788	37.47
931.156	37.44
931.523	37.42
931.891	37.41
932.259	37.32
932.627	37.27
932.994	37.28
933.362	37.27
933.729	37.22
934.097	37.22
934.464	37.25
934.831	37.22
935.199	37.26
935.566	37.23
935.933	37.25
936.3	37.28
936.667	37.29
937.034	37.26
937.401	37.17
937.767	37.12
938.134	37.08
938.501	37
938.867	36.98
939.234	36.96
939.6	36.91
939.967	36.82
940.333	36.82
940.699	36.83
941.065	36.82
941.431	36.86
941.798	36.96
942.163	36.97
942.529	37.03
942.895	37.08
943.261	37.11
943.627	37.17
943.992	37.26
944.358	37.23
944.723	37.22
945.089	37.25
945.454	37.31
945.82	37.28
946.185	37.32
946.55	37.38
946.915	37.31
947.28	37.27
947.645	37.25
948.01	37.16
948.375	37.26
948.74	37.32
949.104	37.33
949.469	37.29
949.834	37.22
950.198	37.18
950.562	37.12
950.927	37.19
951.291	37.2
951.655	37.12
952.02	37.2
952.384	37.15
952.748	37.11
953.112	37.04
953.476	37.06
953.839	37.1
954.203	37.08
954.567	37.02
954.931	37
955.294	37.02
955.658	37.08
956.021	37.06
956.385	37.1
956.748	37.09
957.111	37.12
957.474	37.19
957.837	37.18
958.2	37.21
958.563	37.25
958.926	37.22
959.289	37.22
959.652	37.24
960.015	37.25
960.377	37.26
960.74	37.21
961.102	37.22
961.465	37.13
961.827	37.11
962.189	37.07
962.552	37.02
962.914	37
963.276	36.98
963.638	36.95
964	36.92
964.362	36.85
964.724	36.89
965.085	36.88
965.447	36.86
965.809	36.82
966.17	36.85
966.532	36.91
966.893	36.91
967.255	36.98
967.616	36.98
967.977	37.03
968.338	37.07
968.699	37.06
969.061	37.03
969.421	37.07
969.782	37.15
970.143	37.18
970.504	37.11
970.865	37.19
971.225	37.12
971.586	37.11
971.946	37.04
972.307	37.03
972.667	37.05
973.027	37.1
973.388	37.03
973.748	36.99
974.108	36.96
974.468	36.99
974.828	36.95
975.188	36.92
975.548	36.88
975.907	36.88
976.267	36.9
976.627	36.9
976.986	36.9
977.346	36.94
977.705	36.96
978.064	36.94
978.424	37
978.783	37
979.142	37.05
979.501	37.05
979.86	37.11
980.219	36.97
980.578	36.95
980.937	36.94
981.296	36.91
981.654	36.9
982.013	36.94
982.371	36.84
982.73	36.77
983.088	36.76
983.447	36.78
983.805	36.75
984.163	36.79
984.521	36.71
984.879	36.74
985.237	36.77
985.595	36.79
985.953	36.76
986.311	36.84
986.669	36.91
987.026	36.82
987.384	36.92
987.741	37.02
988.099	37.09
988.456	37.26
988.814	37.27
989.171	37.26
989.528	37.13
989.885	37.16
990.242	37.14
990.599	37.15
990.956	37.18
991.313	37.01
991.67	36.94
992.027	36.97
992.383	36.99
992.74	36.98
993.096	37.07
993.453	37.16
993.809	37.19
994.165	37.28
994.522	37.25
994.878	37.29
995.234	37.28
995.59	37.19
995.946	37
996.302	36.9
996.658	36.88
997.013	36.83
997.369	36.78
997.725	36.79
998.08	36.63
998.436	36.71
998.791	36.76
999.147	36.81
999.502	36.9
999.857	37.08
1000.212	37.06
1000.567	36.94
1000.922	36.79
1001.277	36.83
1001.632	36.92
1001.987	36.85
1002.342	36.77
1002.696	36.68
1003.051	36.6
1003.406	36.39
1003.76	36.28
1004.114	36.32
1004.469	36.33
1004.823	36.34
1005.177	36.39
1005.531	36.15
1005.885	36.3
1006.239	36.25
1006.593	36.18
1006.947	36.22
1007.301	36.25
1007.655	36.31
1008.008	36.19
1008.362	36.21
1008.715	36.25
1009.069	36.31
1009.422	36.2
1009.776	36
1010.129	36
1010.482	36.27
1010.835	36.27
1011.188	36.35
1011.541	36.2
1011.894	36.33
1012.247	36.21
1012.6	36.19
1012.952	36.02
1013.305	36.02
1013.657	36.13
1014.01	36.21
1014.362	36.03
1014.715	36.03
1015.067	36.08
1015.419	36.26
1015.771	36.38
1016.123	36.25
1016.475	36.27
1016.827	36.27
1017.179	36.5
1017.531	36.56
1017.883	36.56
1018.234	36.63
1018.586	36.58
1018.938	36.45
1019.289	36.29
1019.64	36.29
1019.992	36.62
1020.343	36.61
1020.694	36.5
1021.045	36.04
1021.396	35.88
1021.747	35.6
1022.098	35.71
1022.449	35.61
1022.8	35.43
1023.151	35.39
1023.501	35.14
1023.852	34.85
1024.202	34.84
1024.553	34.7
1024.903	34.86
1025.253	34.89
1025.604	35.15
1025.954	34.72
1026.304	35.15
1026.654	35.37
1027.004	35.23
1027.354	35.13
1027.703	35.46
1028.053	35.36
1028.403	35.51
1028.753	35.71
1029.102	35.48
1029.452	35.03
1029.801	34.88
1030.15	34.45
1030.499	34.34
897.758	512.55
901.051	524.91
904.343	532.04
907.636	520.32
910.928	510.21
914.22	517.63
917.511	504.01
920.803	481.57
924.094	463.77
927.384	468.41
930.675	453.6
933.965	449.2
937.255	445.21
940.544	422.84
943.834	405.81
947.123	401.28
950.411	380.04
953.7	373.35
956.988	360.04
960.276	344.93
963.563	341.04
966.851	322.35
970.138	316.1
973.424	293.4
976.711	291.18
979.997	280.84
983.283	273.9
986.568	265.41
989.853	258.19
993.138	250.03
996.423	245.77
999.708	235.79
1002.992	236.78
1006.275	230.22
1009.559	229.13
1012.842	221.57
1016.125	214.99
1019.408	209.41
1022.69	209.53
1025.972	206.44
1029.254	200.12
1032.536	196.84
1035.817	190.74
1039.098	188.39
1042.379	185.2
1045.659	182.22
1048.939	180.15
1052.219	177.35
1055.498	175.36
1058.778	170.72
1062.057	167.92
1065.335	167.78
1068.614	165.28
1071.892	163.05
1075.17	159.75
1078.447	156.94
1081.724	155.55
1085.001	152.74
1088.278	151.87
1091.554	151.5
1094.83	148.84
1098.106	146.9
1101.382	145.52
1104.657	144.12
1107.932	144.45
1111.206	142.94
1114.481	141.21
1117.755	139.79
1121.029	139.76
1124.302	137.25
1127.575	135.28
1130.848	135.54
1134.121	133.53
1137.393	133.67
1140.665	132.01
1143.937	130.4
1147.208	128.74
1150.48	127.9
1153.75	127.9
1157.021	126.1
1160.291	125.82
1163.561	124.89
1166.831	124.2
1170.101	124.42
1173.37	123.5
1176.639	122.34
1179.907	122.47
1183.176	122.52
1186.444	122.41
1189.711	121.07
1192.979	122.26
1196.246	122.74
1199.513	121.82
1202.78	122.2
1206.046	122.01
1209.312	122.45
1212.578	123.71
1215.843	124.76
1219.108	125.49
1222.373	127.75
1225.638	130.41
1228.902	132.93
1232.166	135.83
1235.43	138.27
1238.693	143.07
1241.956	145.63
1245.219	149.27
1248.482	150.42
1251.744	150.28
1255.006	151.48
1258.268	146.6
1261.529	145.54
1264.79	141.39
1268.051	138.96
1271.312	138.53
1274.572	134.67
1277.832	131.96
1281.092	130.58
1284.351	127.98
1287.61	128.03
1290.869	126.59
1294.128	126.78
1297.386	127.08
1300.644	126.22
1303.902	125.53
1307.159	124.84
1310.416	125.55
1313.673	127.16
1316.93	127.6
1320.186	129.57
1323.442	130.7
1326.697	134.76
1329.953	134.49
1333.208	138.13
1336.463	144.01
1339.717	146.94
1342.972	154.01
1346.226	158.24
1349.479	159.47
1352.733	166.72
1355.986	170.69
1359.238	174.86
1362.491	174.03
1365.743	184.35
1368.995	184.68
1372.247	184.29
1375.498	184.39
1378.749	190.04
1382	189.31
1385.251	189.39
1388.501	188.11
1391.751	190.54
1395	190.36
1398.25	192.71
1401.499	191.01
1404.748	191.27
1407.996	187.4
1411.244	187.95
1414.492	183.8
1417.74	179.66
1420.987	174.9
1424.234	171.76
1427.481	166.71
1430.728	161.71
1433.974	155.05
1437.22	150.22
1440.465	144.8
1443.711	141.1
1446.956	136.28
1450.201	130.93
1453.445	124.66
1456.689	121.71
1459.933	117.63
1463.177	112.27
1466.42	108.76
1469.663	106.17
1472.906	102.64
1476.148	99.8
1479.391	97.44
1482.633	96.1
1485.874	94.47
1489.115	93.71
1492.356	91.47
1495.597	89.91
1498.838	89.38
1502.078	89.1
1505.318	88.8
1508.557	87.85
1511.797	87.12
1515.036	86.78
1518.274	86.01
1521.513	84.81
1524.751	84.35
1527.989	84.77
1531.227	84.76
1534.464	83.73
1537.701	83.53
1540.938	82.95
1544.174	83.19
1547.41	83.15
1550.646	82.93
1553.882	82.84
1557.117	83.24
1560.352	82.82
1563.587	82.18
1566.821	82.25
1570.055	81.92
1573.289	81.9
1576.523	82.01
1579.756	81.12
1582.989	81.19
1586.222	81.2
1589.454	80.56
1592.686	79.63
1595.918	79.68
1599.15	79.56
1602.381	79.77
1605.612	79.86
1608.843	78.83
1612.073	79.7
1615.303	80.06
1618.533	79.24
1621.762	79.33
1624.992	80.02
1628.221	80.17
1631.449	80.8
1634.678	80.01
1637.906	79.96
1641.134	79.63
1644.361	80.24
1647.588	79.37
1650.815	79.6
1654.042	79.57
1657.269	79.75
1660.495	80
1663.72	80.23
1666.946	79.36
1670.171	80.59
1673.396	80.73
1676.621	81.66
1679.845	81.85
1683.069	81.83
1686.293	81.46
1689.517	82.16
1692.74	81.97
1695.963	82.24
1699.185	82.33
1702.408	83.21
1705.63	83.05
1708.852	83.21
1712.073	82.59
1715.294	82.59
1718.515	83.21
1721.736	83.89
1724.956	83.99
1728.176	83.82
1731.396	83.83
1734.616	84.33
1737.835	84.12
1741.054	84.01
1744.272	84.23
1747.491	84.5
1750.709	85.01
1753.927	85.02
1757.144	85.31
1760.361	85.13
1763.578	85.69
1766.795	86.29
1770.011	86.43
1773.227	87.12
1776.443	88.13
1779.658	87.75
1782.874	88.22
1786.089	87.58
1789.303	88.15
1792.518	89.13
1795.732	90.25
1798.945	91.32
1802.159	91.09
1805.372	92.11
1808.585	92.67
1811.797	92.85
1815.01	94.39
1818.222	95.35
1821.434	97.54
1824.645	97.95
1827.856	98.68
1831.067	98.98
1834.278	100
1837.488	100.68
1840.698	101.06
1843.908	101.28
1847.117	103.18
1850.326	103.69
1853.535	104.53
1856.744	105.16
1859.952	106.52
1863.16	106.51
1866.368	106.72
1869.575	107.13
1872.782	106.5
1875.989	106.38
1879.196	106.46
1882.402	104.96
1885.608	106.13
1888.814	105.86
1892.019	106.46
1895.224	105.1
1898.429	106
1901.634	106.5
1904.838	106.73
1908.042	108.51
1911.246	108.82
1914.449	109.58
1917.652	110.09
1920.855	109.44
1924.058	108.6
1927.26	108.24
1930.462	108.53
1933.664	108.12
1936.865	108.07
1940.066	107.83
1943.267	106.33
1946.467	107.32
1949.668	107.22
1952.868	107.07
1956.067	107.23
1959.267	108.88
1962.466	109.36
1965.665	109.89
1968.863	111.28
1972.061	111.39
1975.259	112.85
1978.457	114.5
1981.654	115.1
1984.852	115.85
1988.048	117.55
1991.245	119.22
1994.441	120.34
1997.637	122.77
2000.833	126.26
2004.028	126.81
2007.223	131.09
2010.418	133.85
2013.613	140.63
2016.807	144.05
2020.001	147.4
2023.194	152.23
2026.388	156.5
2029.581	164.73
2032.774	169.74
2035.966	174.93
2039.158	180.08
2042.35	183.61
2045.542	187.05
2048.733	192.19
2051.924	194.62
2055.115	197.34
2058.306	198.28
2061.496	203.29
2064.686	200.56
2067.875	202.11
2071.065	202.56
2074.254	203.98
2077.442	210.58
2080.631	210.56
2083.819	211.27
2087.007	217.16
2090.195	221.29
2093.382	220.38
2096.569	220.23
2099.756	227.13
2102.942	229.47
2106.128	234.91
2109.314	236.6
2112.5	235.29
2115.685	235.87
2118.87	236.83
2122.055	236.18
2125.239	239.95
2128.424	247.2
2131.608	245.77
2134.791	241.77
2137.974	244.09
2141.157	244.83
2144.34	246.22
2147.523	248.39
2150.705	255.09
2153.887	252.72
2157.068	254.66
2160.25	257.83
2163.431	258.08
2166.611	262.35
2169.792	270.85
2172.972	271.43
2176.152	275.25
2179.331	281.57
2182.511	282.41
2185.69	284.17
2188.868	297.9
2192.047	302.88
2195.225	306.68
2198.403	306.6
2201.58	304.86
2204.758	316.77
2207.935	321.75
2211.111	323.4
2214.288	324.74
2217.464	330.16
2220.64	332.81
2223.815	332.02
2226.991	326.75
2230.166	331.19
2233.34	344.52
2236.515	353.99
2239.689	345.15
2242.863	351.73
2246.036	349.74
2249.209	357.34
2252.382	359.15
2255.555	371.3
2258.727	372.93
2261.9	386.67
2265.071	390.63
2268.243	387.66
2271.414	398.04
2274.585	406.51
2277.756	407.67
2280.926	423.37
2284.096	421.66
2287.266	421.26
2290.436	416.34
2293.605	425.49
2296.774	440.85
2299.942	438.29
2303.111	450.33
2306.279	455.78
2309.447	461.18
2312.614	461.2
2315.781	473
2318.948	479.6
2322.115	491.43
2325.281	514.4
2328.447	512.67
2331.613	512.81
2334.779	524.14
2337.944	532.43
2341.109	546.26
2344.274	545.09
2347.438	567.63
2350.602	575.32
2353.766	613.95
2356.929	612.89
2360.092	621.04
2363.255	621.62
2366.418	632.73
2369.58	642.26
2372.742	637.27
2375.904	633.91
2379.066	656.21
2382.227	684.48
2385.388	681.95
2388.548	646.82
2391.709	646.93
2394.869	668.86
2398.029	670.34
2401.188	672.09
2404.347	689.66
2407.506	718.03
2410.665	691.55
2413.823	695.38
2416.981	698.53
2420.139	665.98
2423.296	720.02
2426.453	762.96
2429.61	721.44
2432.767	771.75
2435.923	799.4
2439.079	770.8
2442.235	791.09
2445.391	810.97
2448.546	801.7
2451.701	838.77
2454.855	893.96
2458.009	796.55
2461.163	802.54
2464.317	815.4
2467.471	799.25
2470.624	819.39
2473.777	815.87
2476.929	789.48
2480.082	841.43
2483.234	881.31
2486.385	892.99
2489.537	915.92
2492.688	1002.47
2495.839	994.39
2498.989	1023.42
2502.14	1027.39
2505.29	980.16
2508.439	1086.58
2511.589	1109.32
2514.738	1077.85
2517.887	1070.61
2521.035	1012.62
2524.183	996.4
2527.331	988.06
2530.479	965.03
2533.627	986.48
