Data from N_1_hir_wi_4n_041_Splice17_17.txt Node
Date: Sat Feb 29 13:50:39 EST 2020
User: sa697716
Spectrometer: FLMS03696
Trigger mode: 0
Integration Time (sec): 3.180400E-1
Scans to average: 20
Electric dark correction enabled: true
Nonlinearity correction enabled: true
Boxcar width: 5
XAxis mode: Wavelengths
Number of Pixels in Spectrum: 2048
>>>>>Begin Spectral Data<<<<<
187.83	114.97
188.298	118.76
188.766	103.06
189.233	105.31
189.701	106.55
190.169	110.1
190.636	120.23
191.104	108.42
191.571	268.87
192.039	150.69
192.506	61.69
192.974	3695.15
193.441	-400.33
193.908	42.61
194.375	51.59
194.842	109.18
195.31	77.9
195.777	133.05
196.244	74.35
196.711	72.32
197.177	71.45
197.644	71.29
198.111	72.76
198.578	73.42
199.045	75.13
199.511	76.21
199.978	76.77
200.445	76.92
200.911	76.72
201.378	76.95
201.844	78.27
202.31	78.81
202.777	79.3
203.243	79.38
203.709	78.98
204.176	78.27
204.642	76.95
205.108	75.87
205.574	75.66
206.04	74.91
206.506	74.07
206.972	72.85
207.438	71.64
207.903	70.49
208.369	68.91
208.835	68.37
209.301	67.6
209.766	66.43
210.232	65.75
210.697	64.46
211.163	63.24
211.628	61.91
212.094	60.99
212.559	59.94
213.024	58.82
213.49	57.49
213.955	55.76
214.42	53.97
214.885	52.2
215.35	50.02
215.815	47.36
216.28	44.55
216.745	41.39
217.21	37.94
217.675	34.95
218.14	32.15
218.604	29.64
219.069	27.51
219.534	25.71
219.998	24.19
220.463	22.89
220.927	21.84
221.392	20.85
221.856	20.06
222.32	19.38
222.785	18.79
223.249	18.25
223.713	17.86
224.177	17.42
224.642	17.06
225.106	16.71
225.57	16.34
226.034	15.98
226.497	15.69
226.961	15.42
227.425	15.12
227.889	14.83
228.353	14.6
228.816	14.35
229.28	14.12
229.744	13.91
230.207	13.71
230.671	13.51
231.134	13.33
231.597	13.15
232.061	12.96
232.524	12.8
232.987	12.64
233.45	12.47
233.914	12.3
234.377	12.16
234.84	12.02
235.303	11.91
235.766	11.78
236.229	11.67
236.691	11.57
237.154	11.47
237.617	11.36
238.08	11.26
238.542	11.15
239.005	11.06
239.468	10.96
239.93	10.87
240.393	10.77
240.855	10.7
241.317	10.6
241.78	10.52
242.242	10.44
242.704	10.36
243.166	10.29
243.629	10.24
244.091	10.17
244.553	10.1
245.015	10.02
245.477	9.94
245.939	9.87
246.4	9.79
246.862	9.72
247.324	9.68
247.786	9.62
248.247	9.57
248.709	9.5
249.17	9.46
249.632	9.4
250.093	9.35
250.555	9.31
251.016	9.28
251.477	9.25
251.939	9.21
252.4	9.16
252.861	9.11
253.322	9.07
253.783	9.04
254.244	9
254.705	8.96
255.166	8.94
255.627	8.89
256.088	8.83
256.549	8.79
257.009	8.75
257.47	8.71
257.931	8.66
258.391	8.62
258.852	8.57
259.312	8.54
259.773	8.5
260.233	8.45
260.694	8.41
261.154	8.37
261.614	8.33
262.074	8.29
262.534	8.24
262.994	8.21
263.455	8.19
263.915	8.15
264.374	8.12
264.834	8.08
265.294	8.05
265.754	8.01
266.214	8
266.673	7.98
267.133	7.95
267.593	7.94
268.052	7.92
268.512	7.89
268.971	7.87
269.431	7.86
269.89	7.84
270.349	7.83
270.809	7.82
271.268	7.81
271.727	7.8
272.186	7.78
272.645	7.77
273.104	7.76
273.563	7.74
274.022	7.72
274.481	7.71
274.94	7.69
275.399	7.68
275.857	7.67
276.316	7.65
276.775	7.63
277.233	7.61
277.692	7.6
278.15	7.58
278.609	7.57
279.067	7.55
279.525	7.53
279.984	7.52
280.442	7.51
280.9	7.5
281.358	7.48
281.816	7.47
282.274	7.46
282.732	7.45
283.19	7.45
283.648	7.45
284.106	7.44
284.564	7.44
285.021	7.44
285.479	7.44
285.937	7.44
286.394	7.43
286.852	7.42
287.309	7.41
287.767	7.4
288.224	7.39
288.682	7.39
289.139	7.39
289.596	7.37
290.053	7.36
290.511	7.34
290.968	7.32
291.425	7.31
291.882	7.31
292.339	7.29
292.796	7.28
293.252	7.26
293.709	7.25
294.166	7.23
294.623	7.23
295.079	7.22
295.536	7.21
295.992	7.2
296.449	7.19
296.905	7.17
297.362	7.17
297.818	7.16
298.274	7.16
298.731	7.16
299.187	7.16
299.643	7.15
300.099	7.15
300.555	7.14
301.011	7.14
301.467	7.14
301.923	7.15
302.379	7.15
302.835	7.15
303.291	7.15
303.746	7.14
304.202	7.13
304.658	7.13
305.113	7.13
305.569	7.14
306.024	7.13
306.479	7.13
306.935	7.12
307.39	7.13
307.845	7.13
308.301	7.14
308.756	7.15
309.211	7.16
309.666	7.16
310.121	7.16
310.576	7.16
311.031	7.16
311.486	7.16
311.94	7.17
312.395	7.17
312.85	7.17
313.305	7.18
313.759	7.18
314.214	7.18
314.668	7.18
315.123	7.19
315.577	7.19
316.032	7.19
316.486	7.19
316.94	7.18
317.394	7.18
317.849	7.16
318.303	7.16
318.757	7.14
319.211	7.13
319.665	7.12
320.119	7.11
320.572	7.1
321.026	7.09
321.48	7.09
321.934	7.09
322.387	7.08
322.841	7.08
323.295	7.07
323.748	7.07
324.202	7.05
324.655	7.05
325.108	7.04
325.562	7.03
326.015	7.03
326.468	7.01
326.921	7
327.374	6.99
327.827	6.98
328.28	6.97
328.733	6.96
329.186	6.96
329.639	6.95
330.092	6.96
330.545	6.95
330.997	6.94
331.45	6.94
331.903	6.94
332.355	6.94
332.808	6.94
333.26	6.94
333.713	6.94
334.165	6.95
334.617	6.95
335.069	6.95
335.522	6.96
335.974	6.97
336.426	6.97
336.878	6.98
337.33	6.97
337.782	6.97
338.234	6.96
338.686	6.96
339.137	6.96
339.589	6.95
340.041	6.95
340.493	6.92
340.944	6.91
341.396	6.89
341.847	6.88
342.299	6.87
342.75	6.85
343.201	6.84
343.653	6.82
344.104	6.81
344.555	6.79
345.006	6.77
345.457	6.76
345.908	6.74
346.359	6.74
346.81	6.73
347.261	6.71
347.712	6.69
348.163	6.69
348.613	6.67
349.064	6.64
349.515	6.63
349.965	6.63
350.416	6.61
350.866	6.62
351.317	6.6
351.767	6.6
352.217	6.59
352.668	6.59
353.118	6.59
353.568	6.6
354.018	6.62
354.468	6.61
354.918	6.61
355.368	6.62
355.818	6.6
356.268	6.6
356.718	6.59
357.168	6.59
357.617	6.57
358.067	6.55
358.517	6.54
358.966	6.53
359.416	6.55
359.865	6.53
360.315	6.53
360.764	6.54
361.213	6.54
361.663	6.54
362.112	6.54
362.561	6.54
363.01	6.55
363.459	6.55
363.908	6.54
364.357	6.53
364.806	6.53
365.255	6.53
365.703	6.52
366.152	6.51
366.601	6.52
367.05	6.52
367.498	6.53
367.947	6.52
368.395	6.52
368.844	6.52
369.292	6.51
369.74	6.52
370.189	6.51
370.637	6.51
371.085	6.52
371.533	6.51
371.981	6.51
372.429	6.5
372.877	6.51
373.325	6.52
373.773	6.5
374.221	6.5
374.669	6.5
375.116	6.49
375.564	6.5
376.012	6.49
376.459	6.5
376.907	6.51
377.354	6.51
377.801	6.52
378.249	6.53
378.696	6.56
379.143	6.57
379.591	6.6
380.038	6.62
380.485	6.64
380.932	6.66
381.379	6.66
381.826	6.68
382.273	6.69
382.72	6.7
383.166	6.71
383.613	6.71
384.06	6.73
384.506	6.73
384.953	6.73
385.4	6.73
385.846	6.74
386.292	6.76
386.739	6.76
387.185	6.78
387.631	6.79
388.078	6.81
388.524	6.81
388.97	6.82
389.416	6.83
389.862	6.85
390.308	6.86
390.754	6.87
391.2	6.89
391.645	6.92
392.091	6.93
392.537	6.95
392.983	6.97
393.428	7.01
393.874	7.02
394.319	7.04
394.765	7.05
395.21	7.07
395.655	7.08
396.101	7.09
396.546	7.09
396.991	7.11
397.436	7.1
397.881	7.11
398.326	7.13
398.771	7.15
399.216	7.18
399.661	7.2
400.106	7.22
400.551	7.22
400.995	7.22
401.44	7.22
401.885	7.22
402.329	7.24
402.774	7.23
403.218	7.22
403.663	7.21
404.107	7.22
404.551	7.23
404.995	7.23
405.44	7.24
405.884	7.25
406.328	7.25
406.772	7.26
407.216	7.27
407.66	7.29
408.104	7.29
408.547	7.3
408.991	7.29
409.435	7.29
409.879	7.28
410.322	7.3
410.766	7.31
411.209	7.33
411.653	7.33
412.096	7.33
412.54	7.34
412.983	7.33
413.426	7.36
413.869	7.37
414.312	7.38
414.756	7.41
415.199	7.42
415.642	7.44
416.085	7.46
416.527	7.48
416.97	7.5
417.413	7.49
417.856	7.5
418.298	7.49
418.741	7.48
419.184	7.47
419.626	7.45
420.069	7.44
420.511	7.43
420.953	7.42
421.396	7.43
421.838	7.44
422.28	7.46
422.722	7.47
423.164	7.48
423.606	7.5
424.048	7.48
424.49	7.5
424.932	7.5
425.374	7.48
425.816	7.46
426.258	7.43
426.699	7.39
427.141	7.36
427.582	7.34
428.024	7.34
428.465	7.33
428.907	7.35
429.348	7.34
429.789	7.32
430.231	7.32
430.672	7.33
431.113	7.34
431.554	7.34
431.995	7.35
432.436	7.34
432.877	7.34
433.318	7.32
433.759	7.31
434.2	7.31
434.64	7.32
435.081	7.32
435.522	7.34
435.962	7.35
436.403	7.36
436.843	7.36
437.284	7.38
437.724	7.39
438.164	7.41
438.604	7.41
439.045	7.41
439.485	7.4
439.925	7.4
440.365	7.38
440.805	7.38
441.245	7.36
441.685	7.38
442.125	7.37
442.564	7.38
443.004	7.37
443.444	7.36
443.883	7.36
444.323	7.35
444.762	7.37
445.202	7.4
445.641	7.39
446.081	7.42
446.52	7.37
446.959	7.36
447.398	7.36
447.837	7.38
448.276	7.37
448.716	7.36
449.154	7.36
449.593	7.35
450.032	7.33
450.471	7.32
450.91	7.28
451.349	7.29
451.787	7.26
452.226	7.22
452.664	7.18
453.103	7.17
453.541	7.16
453.98	7.12
454.418	7.08
454.856	7.03
455.295	7.01
455.733	6.99
456.171	6.97
456.609	6.97
457.047	6.96
457.485	6.93
457.923	6.91
458.361	6.87
458.798	6.87
459.236	6.88
459.674	6.88
460.111	6.87
460.549	6.87
460.987	6.87
461.424	6.85
461.862	6.87
462.299	6.88
462.736	6.89
463.173	6.9
463.611	6.91
464.048	6.93
464.485	6.93
464.922	6.92
465.359	6.93
465.796	6.92
466.233	6.95
466.67	6.95
467.106	6.93
467.543	6.93
467.98	6.94
468.416	6.95
468.853	6.94
469.29	6.94
469.726	6.95
470.162	6.93
470.599	6.94
471.035	6.92
471.471	6.9
471.907	6.91
472.344	6.89
472.78	6.88
473.216	6.86
473.652	6.85
474.088	6.85
474.523	6.83
474.959	6.81
475.395	6.79
475.831	6.78
476.266	6.77
476.702	6.76
477.138	6.76
477.573	6.72
478.008	6.69
478.444	6.67
478.879	6.64
479.314	6.63
479.75	6.62
480.185	6.6
480.62	6.58
481.055	6.55
481.49	6.52
481.925	6.5
482.36	6.49
482.795	6.47
483.229	6.46
483.664	6.46
484.099	6.45
484.534	6.44
484.968	6.44
485.403	6.41
485.837	6.41
486.271	6.39
486.706	6.37
487.14	6.38
487.574	6.37
488.009	6.37
488.443	6.35
488.877	6.34
489.311	6.33
489.745	6.33
490.179	6.34
490.613	6.33
491.046	6.34
491.48	6.36
491.914	6.35
492.348	6.35
492.781	6.35
493.215	6.35
493.648	6.36
494.082	6.38
494.515	6.39
494.948	6.39
495.382	6.39
495.815	6.41
496.248	6.42
496.681	6.43
497.114	6.44
497.547	6.46
497.98	6.47
498.413	6.48
498.846	6.49
499.279	6.5
499.711	6.51
500.144	6.54
500.577	6.55
501.009	6.56
501.442	6.6
501.874	6.63
502.306	6.65
502.739	6.67
503.171	6.7
503.603	6.74
504.036	6.77
504.468	6.82
504.9	6.87
505.332	6.92
505.764	6.97
506.196	7.02
506.627	7.07
507.059	7.14
507.491	7.21
507.923	7.28
508.354	7.34
508.786	7.42
509.217	7.48
509.649	7.56
510.08	7.65
510.512	7.73
510.943	7.82
511.374	7.91
511.805	8.01
512.237	8.11
512.668	8.22
513.099	8.34
513.53	8.45
513.961	8.59
514.391	8.71
514.822	8.83
515.253	8.96
515.684	9.08
516.114	9.24
516.545	9.38
516.975	9.53
517.406	9.67
517.836	9.81
518.267	9.96
518.697	10.12
519.127	10.27
519.558	10.43
519.988	10.59
520.418	10.75
520.848	10.91
521.278	11.07
521.708	11.1
522.138	11.24
522.567	11.39
522.997	11.54
523.427	11.69
523.857	11.86
524.286	12
524.716	12.14
525.145	12.3
525.575	12.44
526.004	12.58
526.433	12.84
526.863	13
527.292	13.14
527.721	13.27
528.15	13.38
528.579	13.48
529.008	13.6
529.437	13.72
529.866	13.8
530.295	13.89
530.724	13.99
531.152	14.1
531.581	14.17
532.01	14.26
532.438	14.34
532.867	14.43
533.295	14.51
533.723	14.58
534.152	14.65
534.58	14.71
535.008	14.77
535.436	14.83
535.865	14.87
536.293	14.93
536.721	14.96
537.149	15
537.576	15.04
538.004	15.07
538.432	15.09
538.86	15.13
539.287	15.16
539.715	15.2
540.143	15.22
540.57	15.25
540.998	15.28
541.425	15.3
541.852	15.33
542.28	15.33
542.707	15.37
543.134	15.4
543.561	15.41
543.988	15.44
544.415	15.47
544.842	15.48
545.269	15.52
545.696	15.53
546.123	15.55
546.549	15.55
546.976	15.59
547.403	15.61
547.829	15.62
548.256	15.64
548.682	15.64
549.108	15.65
549.535	15.65
549.961	15.65
550.387	15.64
550.813	15.63
551.24	15.64
551.666	15.63
552.092	15.62
552.518	15.6
552.943	15.59
553.369	15.58
553.795	15.54
554.221	15.53
554.646	15.49
555.072	15.49
555.498	15.47
555.923	15.45
556.349	15.39
556.774	15.33
557.199	15.28
557.625	15.21
558.05	15.15
558.475	15.09
558.9	15.02
559.325	14.94
559.75	14.84
560.175	14.75
560.6	14.65
561.025	14.56
561.449	14.47
561.874	14.38
562.299	14.29
562.723	14.19
563.148	14.1
563.572	14
563.997	13.9
564.421	13.8
564.846	13.7
565.27	13.59
565.694	13.49
566.118	13.39
566.542	13.28
566.966	13.17
567.39	13.05
567.814	12.94
568.238	12.81
568.662	12.71
569.086	12.6
569.509	12.48
569.933	12.37
570.357	12.26
570.78	12.16
571.204	12.04
571.627	11.93
572.05	11.83
572.474	11.73
572.897	11.64
573.32	11.54
573.743	11.45
574.166	11.36
574.589	11.28
575.012	11.2
575.435	11.1
575.858	11.04
576.281	10.97
576.704	10.91
577.126	10.84
577.549	10.78
577.972	10.72
578.394	10.64
578.817	10.58
579.239	10.53
579.661	10.48
580.084	10.43
580.506	10.38
580.928	10.32
581.35	10.29
581.772	10.25
582.194	10.21
582.616	10.18
583.038	10.14
583.46	10.11
583.882	10.07
584.303	10.03
584.725	10
585.147	9.93
585.568	9.89
585.99	9.83
586.411	9.79
586.833	9.75
587.254	9.71
587.675	9.69
588.096	9.65
588.518	9.62
588.939	9.59
589.36	9.56
589.781	9.57
590.202	9.55
590.623	9.52
591.043	9.49
591.464	9.46
591.885	9.43
592.305	9.41
592.726	9.39
593.147	9.39
593.567	9.35
593.987	9.34
594.408	9.3
594.828	9.28
595.248	9.27
595.669	9.27
596.089	9.25
596.509	9.22
596.929	9.19
597.349	9.15
597.769	9.12
598.189	9.11
598.608	9.09
599.028	9.07
599.448	9.04
599.867	9
600.287	8.96
600.706	8.94
601.126	8.92
601.545	8.9
601.965	8.87
602.384	8.84
602.803	8.79
603.222	8.76
603.641	8.72
604.061	8.68
604.48	8.66
604.898	8.64
605.317	8.61
605.736	8.57
606.155	8.54
606.574	8.51
606.992	8.46
607.411	8.45
607.829	8.38
608.248	8.36
608.666	8.33
609.085	8.29
609.503	8.23
609.921	8.2
610.339	8.17
610.758	8.12
611.176	8.08
611.594	8.04
612.012	8
612.43	8.01
612.847	7.97
613.265	7.94
613.683	7.9
614.101	7.88
614.518	7.84
614.936	7.81
615.353	7.79
615.771	7.76
616.188	7.73
616.606	7.7
617.023	7.66
617.44	7.64
617.857	7.6
618.274	7.58
618.691	7.57
619.108	7.55
619.525	7.51
619.942	7.5
620.359	7.49
620.776	7.48
621.192	7.47
621.609	7.45
622.026	7.45
622.442	7.44
622.859	7.43
623.275	7.42
623.691	7.42
624.108	7.43
624.524	7.43
624.94	7.41
625.356	7.41
625.772	7.41
626.188	7.42
626.604	7.41
627.02	7.4
627.436	7.4
627.852	7.39
628.268	7.38
628.683	7.38
629.099	7.38
629.514	7.38
629.93	7.37
630.345	7.34
630.761	7.33
631.176	7.32
631.591	7.32
632.007	7.3
632.422	7.29
632.837	7.28
633.252	7.26
633.667	7.24
634.082	7.22
634.497	7.2
634.911	7.16
635.326	7.14
635.741	7.1
636.155	7.07
636.57	7.04
636.984	7
637.399	6.93
637.813	6.88
638.228	6.85
638.642	6.82
639.056	6.78
639.47	6.76
639.884	6.72
640.298	6.69
640.712	6.65
641.126	6.61
641.54	6.58
641.954	6.58
642.368	6.56
642.781	6.52
643.195	6.49
643.609	6.47
644.022	6.43
644.436	6.41
644.849	6.38
645.262	6.38
645.676	6.34
646.089	6.33
646.502	6.29
646.915	6.28
647.328	6.27
647.741	6.26
648.154	6.24
648.567	6.24
648.98	6.23
649.393	6.21
649.805	6.18
650.218	6.18
650.631	6.18
651.043	6.17
651.456	6.16
651.868	6.15
652.28	6.14
652.693	6.12
653.105	6.11
653.517	6.1
653.929	6.1
654.341	6.1
654.753	6.09
655.165	6.08
655.577	6.05
655.989	6.04
656.401	6.03
656.813	6.02
657.224	6.02
657.636	6.03
658.047	6.02
658.459	6
658.87	5.99
659.282	6
659.693	5.99
660.104	5.99
660.515	5.97
660.926	5.96
661.338	5.97
661.749	5.94
662.159	5.92
662.57	5.91
662.981	5.9
663.392	5.89
663.803	5.87
664.213	5.87
664.624	5.88
665.035	5.88
665.445	5.88
665.855	5.88
666.266	5.88
666.676	5.89
667.086	5.89
667.497	5.89
667.907	5.89
668.317	5.89
668.727	5.88
669.137	5.88
669.547	5.9
669.956	5.91
670.366	5.92
670.776	5.94
671.186	5.95
671.595	5.95
672.005	5.99
672.414	6
672.824	6.03
673.233	6.04
673.642	6.04
674.052	6.04
674.461	6.05
674.87	6.05
675.279	6.06
675.688	6.07
676.097	6.1
676.506	6.11
676.915	6.13
677.323	6.15
677.732	6.17
678.141	6.19
678.549	6.21
678.958	6.24
679.366	6.27
679.775	6.29
680.183	6.31
680.592	6.33
681	6.34
681.408	6.36
681.816	6.37
682.224	6.41
682.632	6.43
683.04	6.45
683.448	6.47
683.856	6.51
684.264	6.54
684.671	6.58
685.079	6.62
685.487	6.68
685.894	6.73
686.302	6.78
686.709	6.82
687.116	6.9
687.524	6.97
687.931	7.05
688.338	7.13
688.745	7.25
689.152	7.37
689.559	7.5
689.966	7.64
690.373	7.81
690.78	8
691.187	8.2
691.593	8.41
692	8.66
692.407	8.91
692.813	9.2
693.22	9.48
693.626	9.77
694.032	10.1
694.439	10.44
694.845	10.79
695.251	11.15
695.657	11.52
696.063	11.91
696.469	12.3
696.875	12.69
697.281	13.08
697.687	13.52
698.093	13.96
698.498	14.39
698.904	14.83
699.31	15.26
699.715	15.74
700.12	16.21
700.526	16.69
700.931	17.16
701.337	17.64
701.742	18.1
702.147	18.57
702.552	19.06
702.957	19.53
703.362	20.02
703.767	20.5
704.172	20.96
704.577	21.42
704.981	21.9
705.386	22.38
705.791	22.86
706.195	23.33
706.6	23.78
707.004	24.23
707.408	24.69
707.813	25.13
708.217	25.59
708.621	26.04
709.025	26.49
709.43	26.91
709.834	27.37
710.237	27.83
710.641	28.28
711.045	28.72
711.449	29.2
711.853	29.65
712.256	30.12
712.66	30.57
713.064	31.02
713.467	31.45
713.87	31.9
714.274	32.33
714.677	32.77
715.08	33.2
715.484	33.64
715.887	34.04
716.29	34.45
716.693	34.82
717.096	35.25
717.499	35.65
717.901	36.06
718.304	36.46
718.707	36.87
719.109	37.26
719.512	37.66
719.915	38.04
720.317	38.41
720.719	38.77
721.122	39.16
721.524	39.51
721.926	39.88
722.328	40.24
722.731	40.56
723.133	40.87
723.535	41.21
723.937	41.54
724.338	41.82
724.74	42.15
725.142	42.42
725.544	42.7
725.945	42.98
726.347	43.26
726.748	43.49
727.15	43.77
727.551	44.05
727.952	44.26
728.354	44.5
728.755	44.76
729.156	44.98
729.557	45.23
729.958	45.44
730.359	45.66
730.76	45.84
731.161	46.06
731.562	46.25
731.962	46.39
732.363	46.59
732.763	46.76
733.164	46.93
733.564	47.08
733.965	47.24
734.365	47.39
734.766	47.53
735.166	47.66
735.566	47.78
735.966	47.92
736.366	48.07
736.766	48.2
737.166	48.29
737.566	48.38
737.966	48.49
738.365	48.6
738.765	48.72
739.165	48.79
739.564	48.89
739.964	48.98
740.363	49.06
740.763	49.1
741.162	49.15
741.561	49.24
741.96	49.33
742.36	49.41
742.759	49.45
743.158	49.46
743.557	49.54
743.955	49.6
744.354	49.68
744.753	49.75
745.152	49.83
745.55	49.94
745.949	50.01
746.348	50.08
746.746	50.11
747.144	50.2
747.543	50.31
747.941	50.36
748.339	50.44
748.737	50.48
749.136	50.51
749.534	50.57
749.932	50.58
750.33	50.6
750.727	50.63
751.125	50.68
751.523	50.7
751.921	50.74
752.318	50.77
752.716	50.74
753.113	50.76
753.511	50.79
753.908	50.8
754.305	50.81
754.703	50.82
755.1	50.81
755.497	50.82
755.894	50.81
756.291	50.76
756.688	50.73
757.085	50.72
757.482	50.71
757.878	50.7
758.275	50.69
758.672	50.7
759.068	50.69
759.465	50.69
759.861	50.65
760.258	50.66
760.654	50.69
761.05	50.74
761.447	50.75
761.843	50.75
762.239	50.75
762.635	50.74
763.031	50.73
763.427	50.76
763.822	50.79
764.218	50.81
764.614	50.84
765.01	50.84
765.405	50.82
765.801	50.84
766.196	50.88
766.592	50.9
766.987	50.93
767.382	50.95
767.778	50.96
768.173	50.98
768.568	50.97
768.963	50.96
769.358	50.97
769.753	51.03
770.148	51.04
770.542	51.01
770.937	50.98
771.332	51
771.726	50.96
772.121	50.96
772.515	50.96
772.91	51
773.304	51
773.699	51.03
774.093	50.99
774.487	51
774.881	51.04
775.275	51.07
775.669	51.06
776.063	51.06
776.457	51.04
776.851	51.02
777.245	51
777.638	51.01
778.032	51.01
778.425	51.04
778.819	51.07
779.212	51.05
779.606	51.05
779.999	51.05
780.392	51.08
780.786	51.09
781.179	51.12
781.572	51.14
781.965	51.15
782.358	51.12
782.751	51.09
783.143	51.07
783.536	51.1
783.929	51.12
784.322	51.14
784.714	51.14
785.107	51.17
785.499	51.17
785.891	51.17
786.284	51.16
786.676	51.17
787.068	51.19
787.46	51.17
787.852	51.17
788.245	51.14
788.636	51.11
789.028	51.12
789.42	51.09
789.812	51.07
790.204	51.04
790.595	51.05
790.987	51.05
791.378	51.03
791.77	51.07
792.161	51.06
792.553	51.07
792.944	51.1
793.335	51.09
793.726	51.06
794.117	51.06
794.508	51.08
794.899	51.1
795.29	51.1
795.681	51.13
796.072	51.1
796.463	51.12
796.853	51.11
797.244	51.1
797.634	51.11
798.025	51.15
798.415	51.15
798.806	51.16
799.196	51.17
799.586	51.19
799.976	51.17
800.366	51.16
800.756	51.14
801.146	51.16
801.536	51.15
801.926	51.15
802.316	51.12
802.706	51.14
803.095	51.1
803.485	51.09
803.874	51.05
804.264	51.1
804.653	51.11
805.043	51.11
805.432	51.06
805.821	51.05
806.21	51.06
806.599	51.11
806.988	51.07
807.377	51.09
807.766	51.07
808.155	51.11
808.544	51.03
808.933	51.02
809.321	51.03
809.71	51.08
810.098	51.09
810.487	51.07
810.875	51.04
811.264	51.08
811.652	51.08
812.04	51.06
812.428	51.03
812.816	51.08
813.204	51.05
813.592	51.03
813.98	51.01
814.368	51
814.756	50.97
815.144	50.97
815.531	50.91
815.919	50.89
816.306	50.87
816.694	50.89
817.081	50.86
817.469	50.88
817.856	50.92
818.243	50.93
818.63	50.94
819.017	50.97
819.404	50.95
819.791	51
820.178	51.01
820.565	51.04
820.952	51.02
821.339	51.06
821.725	51.08
822.112	51.04
822.498	51.02
822.885	50.99
823.271	51
823.657	51.01
824.044	51
824.43	51.03
824.816	51.04
825.202	51.04
825.588	51.04
825.974	51.01
826.36	51.01
826.746	51.03
827.132	51.03
827.517	51.03
827.903	51.03
828.289	51.03
828.674	50.98
829.06	50.99
829.445	51.01
829.83	50.99
830.216	50.99
830.601	51.02
830.986	51.02
831.371	51.05
831.756	51.04
832.141	51.05
832.526	51.02
832.911	51.08
833.295	51.04
833.68	50.98
834.065	51
834.449	51.01
834.834	50.99
835.218	50.96
835.603	50.98
835.987	50.98
836.371	50.96
836.755	50.98
837.139	50.95
837.524	50.97
837.908	50.99
838.291	50.96
838.675	50.96
839.059	50.97
839.443	50.99
839.827	50.95
840.21	50.95
840.594	50.94
840.977	50.93
841.361	50.93
841.744	50.95
842.127	50.95
842.511	50.98
842.894	50.95
843.277	50.94
843.66	50.93
844.043	50.93
844.426	50.92
844.809	50.94
845.191	50.93
845.574	50.92
845.957	50.89
846.339	50.89
846.722	50.87
847.104	50.88
847.487	50.89
847.869	50.9
848.252	50.91
848.634	50.93
849.016	50.92
849.398	50.93
849.78	50.94
850.162	50.96
850.544	50.96
850.926	50.94
851.307	50.94
851.689	50.9
852.071	50.89
852.452	50.9
852.834	50.87
853.215	50.88
853.597	50.88
853.978	50.85
854.359	50.83
854.741	50.84
855.122	50.86
855.503	50.86
855.884	50.86
856.265	50.88
856.646	50.83
857.026	50.85
857.407	50.84
857.788	50.83
858.169	50.81
858.549	50.83
858.93	50.83
859.31	50.81
859.69	50.79
860.071	50.8
860.451	50.78
860.831	50.81
861.211	50.77
861.591	50.78
861.971	50.77
862.351	50.81
862.731	50.78
863.111	50.77
863.491	50.81
863.87	50.81
864.25	50.83
864.629	50.81
865.009	50.79
865.388	50.78
865.768	50.76
866.147	50.77
866.526	50.75
866.905	50.77
867.284	50.8
867.663	50.8
868.042	50.78
868.421	50.76
868.8	50.75
869.179	50.77
869.558	50.81
869.936	50.79
870.315	50.78
870.693	50.79
871.072	50.78
871.45	50.71
871.828	50.67
872.207	50.69
872.585	50.7
872.963	50.72
873.341	50.73
873.719	50.73
874.097	50.76
874.475	50.74
874.853	50.75
875.23	50.75
875.608	50.8
875.986	50.82
876.363	50.79
876.741	50.82
877.118	50.78
877.495	50.77
877.873	50.73
878.25	50.72
878.627	50.76
879.004	50.73
879.381	50.77
879.758	50.7
880.135	50.7
880.512	50.72
880.889	50.68
881.265	50.72
881.642	50.72
882.019	50.74
882.395	50.74
882.772	50.72
883.148	50.73
883.524	50.72
883.901	50.73
884.277	50.71
884.653	50.72
885.029	50.72
885.405	50.7
885.781	50.67
886.157	50.63
886.532	50.62
886.908	50.63
887.284	50.64
887.659	50.63
888.035	50.64
888.411	50.64
888.786	50.62
889.161	50.61
889.537	50.61
889.912	50.6
890.287	50.58
890.662	50.59
891.037	50.55
891.412	50.51
891.787	50.5
892.162	50.48
892.536	50.48
892.911	50.49
893.286	50.45
893.66	50.44
894.035	50.43
894.409	50.46
894.784	50.44
895.158	50.46
895.532	50.46
895.906	50.43
896.281	50.41
896.655	50.39
897.029	50.4
897.402	50.41
897.776	50.42
898.15	50.42
898.524	50.41
898.898	50.41
899.271	50.37
899.645	50.37
900.018	50.35
900.392	50.38
900.765	50.38
901.138	50.35
901.511	50.33
901.884	50.3
902.258	50.33
902.631	50.3
903.003	50.29
903.376	50.28
903.749	50.29
904.122	50.33
904.495	50.32
904.867	50.3
905.24	50.29
905.612	50.27
905.985	50.26
906.357	50.19
906.729	50.18
907.102	50.18
907.474	50.2
907.846	50.17
908.218	50.14
908.59	50.12
908.962	50.14
909.334	50.17
909.705	50.18
910.077	50.18
910.449	50.24
910.82	50.26
911.192	50.27
911.563	50.23
911.935	50.2
912.306	50.21
912.677	50.22
913.048	50.18
913.419	50.16
913.79	50.18
914.161	50.2
914.532	50.2
914.903	50.17
915.274	50.15
915.645	50.18
916.015	50.22
916.386	50.21
916.756	50.16
917.127	50.18
917.497	50.19
917.868	50.16
918.238	50.16
918.608	50.15
918.978	50.13
919.348	50.11
919.718	50.14
920.088	50.12
920.458	50.15
920.828	50.18
921.198	50.19
921.567	50.15
921.937	50.21
922.306	50.21
922.676	50.2
923.045	50.21
923.415	50.27
923.784	50.28
924.153	50.28
924.522	50.28
924.891	50.26
925.26	50.22
925.629	50.25
925.998	50.21
926.367	50.17
926.736	50.2
927.104	50.21
927.473	50.17
927.842	50.13
928.21	50.14
928.578	50.15
928.947	50.15
929.315	50.19
929.683	50.21
930.051	50.21
930.42	50.25
930.788	50.25
931.156	50.24
931.523	50.26
931.891	50.25
932.259	50.19
932.627	50.12
932.994	50.12
933.362	50.09
933.729	50.03
934.097	49.99
934.464	49.95
934.831	49.9
935.199	49.91
935.566	49.83
935.933	49.84
936.3	49.81
936.667	49.82
937.034	49.8
937.401	49.82
937.767	49.85
938.134	49.88
938.501	49.89
938.867	49.94
939.234	50
939.6	50.04
939.967	50.07
940.333	50.18
940.699	50.27
941.065	50.32
941.431	50.38
941.798	50.42
942.163	50.53
942.529	50.57
942.895	50.65
943.261	50.65
943.627	50.85
943.992	50.95
944.358	50.95
944.723	50.92
945.089	50.99
945.454	51.06
945.82	51.09
946.185	51.07
946.55	51.11
946.915	51.03
947.28	50.99
947.645	50.86
948.01	50.8
948.375	50.87
948.74	50.83
949.104	50.8
949.469	50.71
949.834	50.61
950.198	50.5
950.562	50.4
950.927	50.33
951.291	50.3
951.655	50.26
952.02	50.18
952.384	50.11
952.748	50.11
953.112	50.07
953.476	49.98
953.839	49.98
954.203	49.95
954.567	50.03
954.931	50.01
955.294	50
955.658	49.94
956.021	49.94
956.385	49.94
956.748	49.92
957.111	49.84
957.474	49.89
957.837	49.89
958.2	49.91
958.563	49.79
958.926	49.75
959.289	49.7
959.652	49.7
960.015	49.72
960.377	49.68
960.74	49.65
961.102	49.71
961.465	49.7
961.827	49.62
962.189	49.6
962.552	49.57
962.914	49.6
963.276	49.59
963.638	49.58
964	49.59
964.362	49.59
964.724	49.58
965.085	49.53
965.447	49.45
965.809	49.42
966.17	49.38
966.532	49.4
966.893	49.37
967.255	49.3
967.616	49.28
967.977	49.25
968.338	49.2
968.699	49.17
969.061	49.14
969.421	49.15
969.782	49.28
970.143	49.26
970.504	49.21
970.865	49.18
971.225	49.25
971.586	49.31
971.946	49.32
972.307	49.31
972.667	49.34
973.027	49.41
973.388	49.39
973.748	49.31
974.108	49.34
974.468	49.36
974.828	49.39
975.188	49.37
975.548	49.32
975.907	49.23
976.267	49.3
976.627	49.3
976.986	49.25
977.346	49.26
977.705	49.3
978.064	49.3
978.424	49.26
978.783	49.34
979.142	49.32
979.501	49.32
979.86	49.32
980.219	49.22
980.578	49.21
980.937	49.22
981.296	49.21
981.654	49.23
982.013	49.21
982.371	49.29
982.73	49.22
983.088	49.25
983.447	49.27
983.805	49.34
984.163	49.47
984.521	49.41
984.879	49.45
985.237	49.55
985.595	49.54
985.953	49.61
986.311	49.61
986.669	49.64
987.026	49.69
987.384	49.71
987.741	49.71
988.099	49.6
988.456	49.81
988.814	49.86
989.171	49.8
989.528	49.77
989.885	49.73
990.242	49.83
990.599	49.83
990.956	49.96
991.313	49.98
991.67	49.96
992.027	50.06
992.383	50.03
992.74	49.91
993.096	49.89
993.453	50.09
993.809	50.18
994.165	50.12
994.522	50.17
994.878	50.09
995.234	50.12
995.59	50.11
995.946	50.29
996.302	50.15
996.658	50.19
997.013	50.21
997.369	50.09
997.725	50.14
998.08	50.2
998.436	50.25
998.791	50.23
999.147	50.27
999.502	50.39
999.857	50.36
1000.212	50.51
1000.567	50.59
1000.922	50.7
1001.277	50.57
1001.632	50.62
1001.987	50.63
1002.342	50.7
1002.696	50.85
1003.051	50.82
1003.406	50.7
1003.76	50.77
1004.114	50.77
1004.469	50.84
1004.823	50.94
1005.177	51.25
1005.531	51.17
1005.885	51.31
1006.239	51.03
1006.593	50.94
1006.947	50.85
1007.301	51.05
1007.655	50.83
1008.008	50.85
1008.362	50.87
1008.715	50.88
1009.069	50.79
1009.422	50.89
1009.776	50.81
1010.129	51.11
1010.482	51.25
1010.835	51.5
1011.188	51.39
1011.541	51.31
1011.894	51.34
1012.247	51.43
1012.6	51.42
1012.952	51.45
1013.305	51.46
1013.657	51.63
1014.01	51.82
1014.362	51.92
1014.715	52.04
1015.067	52.47
1015.419	52.98
1015.771	53.48
1016.123	53.63
1016.475	53.83
1016.827	54.1
1017.179	54.57
1017.531	54.47
1017.883	54.38
1018.234	54.36
1018.586	54.19
1018.938	54.01
1019.289	53.85
1019.64	53.93
1019.992	54.08
1020.343	53.96
1020.694	53.76
1021.045	53.65
1021.396	53.9
1021.747	54.43
1022.098	54.63
1022.449	54.9
1022.8	55.07
1023.151	55.25
1023.501	55.17
1023.852	55.33
1024.202	55.68
1024.553	56.09
1024.903	56.22
1025.253	56.55
1025.604	56.37
1025.954	56.27
1026.304	56.88
1026.654	57.02
1027.004	57.38
1027.354	57.18
1027.703	56.89
1028.053	56.65
1028.403	56.78
1028.753	56.74
1029.102	56.54
1029.452	56.51
1029.801	56.71
1030.15	56.22
1030.499	56.23
897.758	620.75
901.051	628.12
904.343	633.77
907.636	622.63
910.928	613.32
914.22	623.97
917.511	611.39
920.803	584.02
924.094	561.81
927.384	566.92
930.675	547.4
933.965	541.59
937.255	545.12
940.544	521.6
943.834	498.24
947.123	490.27
950.411	463.55
953.7	456.23
956.988	442.98
960.276	417.24
963.563	411.66
966.851	392.58
970.138	384.03
973.424	356.02
976.711	352.11
979.997	340.44
983.283	331.65
986.568	321.2
989.853	312.83
993.138	301.12
996.423	299.21
999.708	288.17
1002.992	287.67
1006.275	282.53
1009.559	278.19
1012.842	270.38
1016.125	261.96
1019.408	257.59
1022.69	256.17
1025.972	254.04
1029.254	246.78
1032.536	243.03
1035.817	234.7
1039.098	232.25
1042.379	224.84
1045.659	222.66
1048.939	219.23
1052.219	215.98
1055.498	212.2
1058.778	207.25
1062.057	202.94
1065.335	202.16
1068.614	198.11
1071.892	196.02
1075.17	193.79
1078.447	191.39
1081.724	189.09
1085.001	186.65
1088.278	184.26
1091.554	183.61
1094.83	182.34
1098.106	178.45
1101.382	177.66
1104.657	178.07
1107.932	177.1
1111.206	174.38
1114.481	172.72
1117.755	171.65
1121.029	170.2
1124.302	168.33
1127.575	165.71
1130.848	164.83
1134.121	163.64
1137.393	162.98
1140.665	160.82
1143.937	159.67
1147.208	157.16
1150.48	155.97
1153.75	155.53
1157.021	154.15
1160.291	154.15
1163.561	154.29
1166.831	152.23
1170.101	152.04
1173.37	150.26
1176.639	148.92
1179.907	149.1
1183.176	149.53
1186.444	148.97
1189.711	147.59
1192.979	149.18
1196.246	148.93
1199.513	146.93
1202.78	149.06
1206.046	148.59
1209.312	149.91
1212.578	151.15
1215.843	152.66
1219.108	153.72
1222.373	156.76
1225.638	159.84
1228.902	162.78
1232.166	167.28
1235.43	171.04
1238.693	174.68
1241.956	179.41
1245.219	184.53
1248.482	185.95
1251.744	185.76
1255.006	185.15
1258.268	180.3
1261.529	178.69
1264.79	173.9
1268.051	171.35
1271.312	168.8
1274.572	165.27
1277.832	161.14
1281.092	158.42
1284.351	155.02
1287.61	154.79
1290.869	154.23
1294.128	154.03
1297.386	153.17
1300.644	152.56
1303.902	151.24
1307.159	151.83
1310.416	152.22
1313.673	154.26
1316.93	154.85
1320.186	157.28
1323.442	159.6
1326.697	161.96
1329.953	163.29
1333.208	168.71
1336.463	175.21
1339.717	179.19
1342.972	185.29
1346.226	191.49
1349.479	193.45
1352.733	202.67
1355.986	207.14
1359.238	210.57
1362.491	213.3
1365.743	223.19
1368.995	222.97
1372.247	223.46
1375.498	222.22
1378.749	232.63
1382	228.91
1385.251	229.11
1388.501	227.48
1391.751	230.52
1395	229.88
1398.25	231.51
1401.499	229.27
1404.748	230.68
1407.996	225.58
1411.244	226.77
1414.492	221.26
1417.74	216.6
1420.987	210.9
1424.234	208.95
1427.481	200.07
1430.728	195.71
1433.974	188.03
1437.22	182.67
1440.465	175.51
1443.711	170.59
1446.956	165.04
1450.201	158.99
1453.445	152.77
1456.689	148.23
1459.933	142.35
1463.177	137.3
1466.42	133.78
1469.663	130.64
1472.906	126.04
1476.148	123.28
1479.391	120.52
1482.633	118.46
1485.874	115.87
1489.115	115.19
1492.356	112.47
1495.597	111.6
1498.838	110.48
1502.078	109.42
1505.318	108.74
1508.557	108.57
1511.797	107.2
1515.036	106.4
1518.274	106.16
1521.513	104.59
1524.751	103.72
1527.989	105.1
1531.227	104.22
1534.464	104.37
1537.701	102.98
1540.938	102.63
1544.174	102.36
1547.41	102
1550.646	101.95
1553.882	101.69
1557.117	101.95
1560.352	101.82
1563.587	99.98
1566.821	99.94
1570.055	99.13
1573.289	99.36
1576.523	99.39
1579.756	98.63
1582.989	99.2
1586.222	98.52
1589.454	98.03
1592.686	98.31
1595.918	97.69
1599.15	98.16
1602.381	98.03
1605.612	98.2
1608.843	97.89
1612.073	98.55
1615.303	99.01
1618.533	98.54
1621.762	98.91
1624.992	99.25
1628.221	98.56
1631.449	99.21
1634.678	99.26
1637.906	99.5
1641.134	99.54
1644.361	99.84
1647.588	99.07
1650.815	98.96
1654.042	99.49
1657.269	99.16
1660.495	99.55
1663.72	99.64
1666.946	99.34
1670.171	99.82
1673.396	100.17
1676.621	100.67
1679.845	101.06
1683.069	100.69
1686.293	100.61
1689.517	100.52
1692.74	101.01
1695.963	100.94
1699.185	101.27
1702.408	101.51
1705.63	101.75
1708.852	102.31
1712.073	102.1
1715.294	101.65
1718.515	103.27
1721.736	103.22
1724.956	103.63
1728.176	103.67
1731.396	104.27
1734.616	104.19
1737.835	104.72
1741.054	104.38
1744.272	103.99
1747.491	104.13
1750.709	104.88
1753.927	104.65
1757.144	105.13
1760.361	105.27
1763.578	105.98
1766.795	106.31
1770.011	106.85
1773.227	107.67
1776.443	108.38
1779.658	108.93
1782.874	109.55
1786.089	109.83
1789.303	109.97
1792.518	111.55
1795.732	111.73
1798.945	112.58
1802.159	112.97
1805.372	114.52
1808.585	114.64
1811.797	115.58
1815.01	116.22
1818.222	117.09
1821.434	118.37
1824.645	119.13
1827.856	120.03
1831.067	121.59
1834.278	122.23
1837.488	123.42
1840.698	124.26
1843.908	125.08
1847.117	126.63
1850.326	128.06
1853.535	128.46
1856.744	129.88
1859.952	131.94
1863.16	131.76
1866.368	131.17
1869.575	132.54
1872.782	132.22
1875.989	131.69
1879.196	131.17
1882.402	129.61
1885.608	130.22
1888.814	130.19
1892.019	130.53
1895.224	127.92
1898.429	129.75
1901.634	130.71
1904.838	130.82
1908.042	131.26
1911.246	130.55
1914.449	131.62
1917.652	132.83
1920.855	133.04
1924.058	132.74
1927.26	132.51
1930.462	134.38
1933.664	133.2
1936.865	132.97
1940.066	131.69
1943.267	131.35
1946.467	133.18
1949.668	132.8
1952.868	133.44
1956.067	132.92
1959.267	133.01
1962.466	133.56
1965.665	134.18
1968.863	134.94
1972.061	135.62
1975.259	138.25
1978.457	138.74
1981.654	139.27
1984.852	140.37
1988.048	141.06
1991.245	143.72
1994.441	146.52
1997.637	149.92
2000.833	152.73
2004.028	153.96
2007.223	159.24
2010.418	162.15
2013.613	169.72
2016.807	174.91
2020.001	178.32
2023.194	184.81
2026.388	190.71
2029.581	199.64
2032.774	204.46
2035.966	210.35
2039.158	218.23
2042.35	219.69
2045.542	224.26
2048.733	232.28
2051.924	233.01
2055.115	238.71
2058.306	239.01
2061.496	243.85
2064.686	243.87
2067.875	243.28
2071.065	245.97
2074.254	245.67
2077.442	256.38
2080.631	257.63
2083.819	257.8
2087.007	263.94
2090.195	266.09
2093.382	267.65
2096.569	267.37
2099.756	272.66
2102.942	279.42
2106.128	284.89
2109.314	285.48
2112.5	282.62
2115.685	283.34
2118.87	284.48
2122.055	287.54
2125.239	292.81
2128.424	299.67
2131.608	295.61
2134.791	295.36
2137.974	297.43
2141.157	299.22
2144.34	303.26
2147.523	308.76
2150.705	315.57
2153.887	311.44
2157.068	314.44
2160.25	317.01
2163.431	314.12
2166.611	324.95
2169.792	328.87
2172.972	332.65
2176.152	334.22
2179.331	342.28
2182.511	341.54
2185.69	345.64
2188.868	362.48
2192.047	369.03
2195.225	375.07
2198.403	381.64
2201.58	374.28
2204.758	389.42
2207.935	391.85
2211.111	398.44
2214.288	398.92
2217.464	404.68
2220.64	407.7
2223.815	406.93
2226.991	404.86
2230.166	408.3
2233.34	421.37
2236.515	433.38
2239.689	427.56
2242.863	433.56
2246.036	430.34
2249.209	445.55
2252.382	443.18
2255.555	457.61
2258.727	460.61
2261.9	471.75
2265.071	477.75
2268.243	471.2
2271.414	486.5
2274.585	495.62
2277.756	497.27
2280.926	513
2284.096	509.59
2287.266	512.99
2290.436	504.6
2293.605	515.21
2296.774	533.87
2299.942	532.61
2303.111	551.82
2306.279	557.71
2309.447	558.47
2312.614	559.8
2315.781	576.02
2318.948	578.73
2322.115	590.69
2325.281	622.53
2328.447	622.06
2331.613	619.51
2334.779	631.18
2337.944	638.15
2341.109	656.23
2344.274	662.55
2347.438	682.76
2350.602	693.63
2353.766	741.29
2356.929	743.34
2360.092	752.82
2363.255	753.21
2366.418	768.38
2369.58	787.47
2372.742	782.57
2375.904	775.18
2379.066	799.55
2382.227	848.22
2385.388	848.22
2388.548	802.12
2391.709	792.66
2394.869	818.41
2398.029	825.51
2401.188	822.94
2404.347	847.51
2407.506	880.84
2410.665	846.74
2413.823	849.27
2416.981	843.65
2420.139	800.98
2423.296	868.31
2426.453	919.79
2429.61	882.67
2432.767	935.66
2435.923	970.55
2439.079	932.29
2442.235	950.23
2445.391	973.35
2448.546	966.61
2451.701	1024.04
2454.855	1089.84
2458.009	966.5
2461.163	988.69
2464.317	991.74
2467.471	969.81
2470.624	1005.58
2473.777	982.27
2476.929	955.45
2480.082	1019.53
2483.234	1068.06
2486.385	1082.28
2489.537	1113.54
2492.688	1213.49
2495.839	1204.95
2498.989	1236.52
2502.14	1242.53
2505.29	1180.24
2508.439	1330.09
2511.589	1363.21
2514.738	1322.16
2517.887	1309.36
2521.035	1220.05
2524.183	1205.88
2527.331	1203.11
2530.479	1165.7
2533.627	1194.2
