Data from N_1_div_wi_4n_029_Splice17_05.txt Node
Date: Sat Feb 29 13:45:21 EST 2020
User: sa697716
Spectrometer: FLMS03696
Trigger mode: 0
Integration Time (sec): 3.180400E-1
Scans to average: 20
Electric dark correction enabled: true
Nonlinearity correction enabled: true
Boxcar width: 5
XAxis mode: Wavelengths
Number of Pixels in Spectrum: 2048
>>>>>Begin Spectral Data<<<<<
187.83	54.54
188.298	35.31
188.766	23.21
189.233	22.26
189.701	34.9
190.169	52.62
190.636	43.73
191.104	15.31
191.571	-153.95
192.039	21.87
192.506	236.56
192.974	1254.5
193.441	461.33
193.908	-85.66
194.375	-202.77
194.842	-75.67
195.31	51.01
195.777	29.65
196.244	36.98
196.711	36.72
197.177	35.65
197.644	37.03
198.111	35.52
198.578	35.19
199.045	35.2
199.511	34.96
199.978	34.78
200.445	34.57
200.911	34.83
201.378	34.66
201.844	34.79
202.31	35.11
202.777	35.26
203.243	36.42
203.709	37.2
204.176	37.47
204.642	38.16
205.108	38.29
205.574	38.78
206.04	38.66
206.506	38.53
206.972	38.28
207.438	38.13
207.903	37.69
208.369	36.62
208.835	36.09
209.301	36.37
209.766	35.6
210.232	35.34
210.697	35.14
211.163	34.87
211.628	34.59
212.094	34.61
212.559	34.23
213.024	33.73
213.49	33.81
213.955	33.71
214.42	33.15
214.885	32.9
215.35	32.38
215.815	31.49
216.28	30.93
216.745	30.08
217.21	28.96
217.675	28.16
218.14	27.38
218.604	26.56
219.069	25.84
219.534	25.22
219.998	24.63
220.463	24.22
220.927	23.78
221.392	23.35
221.856	23.03
222.32	22.76
222.785	22.48
223.249	22.26
223.713	22.06
224.177	21.8
224.642	21.55
225.106	21.34
225.57	21.11
226.034	20.93
226.497	20.73
226.961	20.51
227.425	20.28
227.889	20.08
228.353	19.85
228.816	19.64
229.28	19.43
229.744	19.25
230.207	19.09
230.671	18.87
231.134	18.68
231.597	18.47
232.061	18.29
232.524	18.12
232.987	17.94
233.45	17.77
233.914	17.59
234.377	17.44
234.84	17.28
235.303	17.11
235.766	16.98
236.229	16.84
236.691	16.75
237.154	16.65
237.617	16.52
238.08	16.41
238.542	16.29
239.005	16.19
239.468	16.07
239.93	15.96
240.393	15.87
240.855	15.76
241.317	15.65
241.78	15.53
242.242	15.39
242.704	15.28
243.166	15.18
243.629	15.08
244.091	14.98
244.553	14.89
245.015	14.81
245.477	14.7
245.939	14.62
246.4	14.55
246.862	14.48
247.324	14.42
247.786	14.34
248.247	14.27
248.709	14.2
249.17	14.14
249.632	14.07
250.093	13.99
250.555	13.94
251.016	13.89
251.477	13.81
251.939	13.76
252.4	13.71
252.861	13.67
253.322	13.63
253.783	13.59
254.244	13.54
254.705	13.49
255.166	13.46
255.627	13.43
256.088	13.37
256.549	13.34
257.009	13.29
257.47	13.27
257.931	13.23
258.391	13.19
258.852	13.16
259.312	13.15
259.773	13.12
260.233	13.09
260.694	13.07
261.154	13.04
261.614	13
262.074	12.99
262.534	12.94
262.994	12.93
263.455	12.9
263.915	12.88
264.374	12.84
264.834	12.82
265.294	12.81
265.754	12.78
266.214	12.78
266.673	12.77
267.133	12.75
267.593	12.75
268.052	12.74
268.512	12.73
268.971	12.73
269.431	12.73
269.89	12.71
270.349	12.71
270.809	12.71
271.268	12.7
271.727	12.69
272.186	12.68
272.645	12.67
273.104	12.66
273.563	12.65
274.022	12.64
274.481	12.63
274.94	12.62
275.399	12.61
275.857	12.6
276.316	12.58
276.775	12.56
277.233	12.54
277.692	12.52
278.15	12.5
278.609	12.48
279.067	12.44
279.525	12.42
279.984	12.4
280.442	12.39
280.9	12.38
281.358	12.36
281.816	12.36
282.274	12.35
282.732	12.34
283.19	12.32
283.648	12.31
284.106	12.3
284.564	12.3
285.021	12.29
285.479	12.28
285.937	12.25
286.394	12.24
286.852	12.23
287.309	12.22
287.767	12.22
288.224	12.21
288.682	12.21
289.139	12.2
289.596	12.18
290.053	12.14
290.511	12.12
290.968	12.11
291.425	12.09
291.882	12.06
292.339	12.04
292.796	12.01
293.252	11.98
293.709	11.96
294.166	11.95
294.623	11.93
295.079	11.93
295.536	11.91
295.992	11.89
296.449	11.88
296.905	11.86
297.362	11.85
297.818	11.83
298.274	11.83
298.731	11.81
299.187	11.79
299.643	11.77
300.099	11.76
300.555	11.75
301.011	11.74
301.467	11.73
301.923	11.72
302.379	11.71
302.835	11.71
303.291	11.7
303.746	11.69
304.202	11.68
304.658	11.68
305.113	11.67
305.569	11.66
306.024	11.65
306.479	11.65
306.935	11.64
307.39	11.63
307.845	11.62
308.301	11.62
308.756	11.63
309.211	11.62
309.666	11.64
310.121	11.63
310.576	11.64
311.031	11.64
311.486	11.65
311.94	11.64
312.395	11.65
312.85	11.65
313.305	11.64
313.759	11.64
314.214	11.63
314.668	11.62
315.123	11.62
315.577	11.62
316.032	11.63
316.486	11.62
316.94	11.62
317.394	11.61
317.849	11.6
318.303	11.59
318.757	11.57
319.211	11.55
319.665	11.54
320.119	11.52
320.572	11.51
321.026	11.48
321.48	11.47
321.934	11.45
322.387	11.44
322.841	11.43
323.295	11.43
323.748	11.41
324.202	11.41
324.655	11.41
325.108	11.39
325.562	11.37
326.015	11.36
326.468	11.34
326.921	11.33
327.374	11.31
327.827	11.29
328.28	11.27
328.733	11.26
329.186	11.25
329.639	11.23
330.092	11.23
330.545	11.22
330.997	11.22
331.45	11.21
331.903	11.2
332.355	11.2
332.808	11.2
333.26	11.21
333.713	11.21
334.165	11.22
334.617	11.22
335.069	11.23
335.522	11.23
335.974	11.25
336.426	11.26
336.878	11.25
337.33	11.25
337.782	11.26
338.234	11.26
338.686	11.25
339.137	11.25
339.589	11.24
340.041	11.24
340.493	11.24
340.944	11.23
341.396	11.21
341.847	11.21
342.299	11.2
342.75	11.17
343.201	11.16
343.653	11.14
344.104	11.12
344.555	11.1
345.006	11.07
345.457	11.05
345.908	11.04
346.359	11.04
346.81	11.03
347.261	11.01
347.712	11.01
348.163	11
348.613	10.99
349.064	10.98
349.515	10.96
349.965	10.96
350.416	10.94
350.866	10.93
351.317	10.91
351.767	10.9
352.217	10.89
352.668	10.89
353.118	10.89
353.568	10.91
354.018	10.92
354.468	10.92
354.918	10.93
355.368	10.94
355.818	10.93
356.268	10.95
356.718	10.95
357.168	10.95
357.617	10.95
358.067	10.95
358.517	10.93
358.966	10.94
359.416	10.95
359.865	10.94
360.315	10.95
360.764	10.96
361.213	10.95
361.663	10.95
362.112	10.97
362.561	10.98
363.01	10.99
363.459	10.98
363.908	10.99
364.357	10.98
364.806	10.99
365.255	11
365.703	10.99
366.152	11.01
366.601	11.01
367.05	11.01
367.498	11.01
367.947	11.02
368.395	11.04
368.844	11.05
369.292	11.07
369.74	11.09
370.189	11.1
370.637	11.13
371.085	11.14
371.533	11.17
371.981	11.19
372.429	11.2
372.877	11.24
373.325	11.25
373.773	11.27
374.221	11.29
374.669	11.3
375.116	11.31
375.564	11.33
376.012	11.35
376.459	11.38
376.907	11.4
377.354	11.43
377.801	11.45
378.249	11.48
378.696	11.5
379.143	11.53
379.591	11.57
380.038	11.6
380.485	11.63
380.932	11.66
381.379	11.67
381.826	11.69
382.273	11.71
382.72	11.74
383.166	11.77
383.613	11.8
384.06	11.81
384.506	11.82
384.953	11.83
385.4	11.85
385.846	11.86
386.292	11.87
386.739	11.89
387.185	11.92
387.631	11.94
388.078	11.95
388.524	11.95
388.97	11.95
389.416	11.96
389.862	11.97
390.308	11.98
390.754	11.99
391.2	12.01
391.645	12.02
392.091	12.02
392.537	12.03
392.983	12.05
393.428	12.08
393.874	12.11
394.319	12.12
394.765	12.14
395.21	12.12
395.655	12.13
396.101	12.13
396.546	12.13
396.991	12.14
397.436	12.12
397.881	12.11
398.326	12.12
398.771	12.13
399.216	12.17
399.661	12.17
400.106	12.21
400.551	12.23
400.995	12.23
401.44	12.21
401.885	12.19
402.329	12.2
402.774	12.19
403.218	12.18
403.663	12.16
404.107	12.16
404.551	12.15
404.995	12.11
405.44	12.09
405.884	12.09
406.328	12.1
406.772	12.11
407.216	12.1
407.66	12.1
408.104	12.08
408.547	12.08
408.991	12.04
409.435	12.02
409.879	12.01
410.322	12.02
410.766	12
411.209	11.99
411.653	11.98
412.096	11.96
412.54	11.96
412.983	11.96
413.426	11.96
413.869	11.98
414.312	12
414.756	12.01
415.199	12
415.642	12.02
416.085	12.04
416.527	12.05
416.97	12.07
417.413	12.06
417.856	12.04
418.298	12
418.741	12
419.184	11.97
419.626	11.95
420.069	11.94
420.511	11.92
420.953	11.89
421.396	11.88
421.838	11.88
422.28	11.88
422.722	11.9
423.164	11.91
423.606	11.92
424.048	11.92
424.49	11.93
424.932	11.93
425.374	11.94
425.816	11.93
426.258	11.9
426.699	11.87
427.141	11.84
427.582	11.83
428.024	11.82
428.465	11.81
428.907	11.82
429.348	11.8
429.789	11.81
430.231	11.8
430.672	11.81
431.113	11.83
431.554	11.86
431.995	11.87
432.436	11.88
432.877	11.89
433.318	11.87
433.759	11.87
434.2	11.88
434.64	11.88
435.081	11.87
435.522	11.89
435.962	11.9
436.403	11.92
436.843	11.94
437.284	11.97
437.724	11.99
438.164	11.99
438.604	12.01
439.045	12.01
439.485	12.01
439.925	12.02
440.365	11.98
440.805	11.98
441.245	11.93
441.685	11.94
442.125	11.91
442.564	11.91
443.004	11.93
443.444	11.92
443.883	11.93
444.323	11.93
444.762	11.95
445.202	12
445.641	12
446.081	12.05
446.52	12.04
446.959	12.06
447.398	12.06
447.837	12.08
448.276	12.09
448.716	12.08
449.154	12.1
449.593	12.11
450.032	12.1
450.471	12.12
450.91	12.12
451.349	12.13
451.787	12.13
452.226	12.11
452.664	12.1
453.103	12.08
453.541	12.08
453.98	12.06
454.418	12.02
454.856	12
455.295	11.99
455.733	11.98
456.171	11.96
456.609	11.95
457.047	11.95
457.485	11.94
457.923	11.96
458.361	11.94
458.798	11.95
459.236	11.97
459.674	11.98
460.111	11.97
460.549	11.94
460.987	11.96
461.424	11.94
461.862	11.96
462.299	11.96
462.736	11.95
463.173	11.97
463.611	11.95
464.048	11.96
464.485	11.95
464.922	11.95
465.359	11.97
465.796	11.96
466.233	11.97
466.67	11.97
467.106	11.95
467.543	11.94
467.98	11.93
468.416	11.96
468.853	11.93
469.29	11.93
469.726	11.93
470.162	11.91
470.599	11.89
471.035	11.9
471.471	11.89
471.907	11.89
472.344	11.9
472.78	11.91
473.216	11.88
473.652	11.86
474.088	11.86
474.523	11.85
474.959	11.83
475.395	11.83
475.831	11.8
476.266	11.79
476.702	11.79
477.138	11.78
477.573	11.75
478.008	11.75
478.444	11.75
478.879	11.73
479.314	11.72
479.75	11.73
480.185	11.7
480.62	11.68
481.055	11.66
481.49	11.64
481.925	11.61
482.36	11.59
482.795	11.58
483.229	11.56
483.664	11.54
484.099	11.52
484.534	11.51
484.968	11.51
485.403	11.5
485.837	11.49
486.271	11.48
486.706	11.49
487.14	11.48
487.574	11.48
488.009	11.49
488.443	11.5
488.877	11.49
489.311	11.48
489.745	11.48
490.179	11.49
490.613	11.49
491.046	11.5
491.48	11.49
491.914	11.5
492.348	11.5
492.781	11.5
493.215	11.51
493.648	11.52
494.082	11.53
494.515	11.53
494.948	11.55
495.382	11.56
495.815	11.57
496.248	11.57
496.681	11.59
497.114	11.6
497.547	11.62
497.98	11.64
498.413	11.65
498.846	11.65
499.279	11.68
499.711	11.69
500.144	11.7
500.577	11.73
501.009	11.76
501.442	11.79
501.874	11.8
502.306	11.83
502.739	11.85
503.171	11.9
503.603	11.95
504.036	11.99
504.468	12.05
504.9	12.13
505.332	12.18
505.764	12.25
506.196	12.31
506.627	12.38
507.059	12.46
507.491	12.54
507.923	12.62
508.354	12.71
508.786	12.8
509.217	12.89
509.649	12.98
510.08	13.1
510.512	13.19
510.943	13.32
511.374	13.43
511.805	13.55
512.237	13.67
512.668	13.79
513.099	13.93
513.53	14.07
513.961	14.21
514.391	14.34
514.822	14.47
515.253	14.64
515.684	14.78
516.114	14.96
516.545	15.13
516.975	15.3
517.406	15.49
517.836	15.64
518.267	15.83
518.697	16.01
519.127	16.21
519.558	16.39
519.988	16.57
520.418	16.76
520.848	16.93
521.278	17.11
521.708	17.16
522.138	17.31
522.567	17.5
522.997	17.66
523.427	17.85
523.857	18.01
524.286	18.19
524.716	18.36
525.145	18.53
525.575	18.69
526.004	18.85
526.433	19.15
526.863	19.31
527.292	19.47
527.721	19.62
528.15	19.74
528.579	19.88
529.008	20.01
529.437	20.14
529.866	20.25
530.295	20.36
530.724	20.48
531.152	20.58
531.581	20.7
532.01	20.79
532.438	20.88
532.867	20.97
533.295	21.07
533.723	21.14
534.152	21.22
534.58	21.29
535.008	21.37
535.436	21.42
535.865	21.47
536.293	21.52
536.721	21.57
537.149	21.62
537.576	21.67
538.004	21.7
538.432	21.72
538.86	21.76
539.287	21.79
539.715	21.82
540.143	21.85
540.57	21.88
540.998	21.91
541.425	21.95
541.852	21.98
542.28	22
542.707	22.04
543.134	22.07
543.561	22.08
543.988	22.1
544.415	22.14
544.842	22.17
545.269	22.19
545.696	22.21
546.123	22.22
546.549	22.22
546.976	22.24
547.403	22.23
547.829	22.23
548.256	22.26
548.682	22.28
549.108	22.28
549.535	22.28
549.961	22.28
550.387	22.28
550.813	22.26
551.24	22.27
551.666	22.28
552.092	22.28
552.518	22.27
552.943	22.25
553.369	22.25
553.795	22.24
554.221	22.2
554.646	22.16
555.072	22.13
555.498	22.11
555.923	22.06
556.349	21.98
556.774	21.94
557.199	21.89
557.625	21.82
558.05	21.73
558.475	21.65
558.9	21.58
559.325	21.5
559.75	21.41
560.175	21.34
560.6	21.24
561.025	21.16
561.449	21.05
561.874	20.97
562.299	20.88
562.723	20.79
563.148	20.69
563.572	20.59
563.997	20.49
564.421	20.39
564.846	20.26
565.27	20.14
565.694	20.02
566.118	19.93
566.542	19.8
566.966	19.68
567.39	19.55
567.814	19.42
568.238	19.28
568.662	19.16
569.086	19.03
569.509	18.92
569.933	18.8
570.357	18.69
570.78	18.56
571.204	18.44
571.627	18.32
572.05	18.22
572.474	18.13
572.897	18.04
573.32	17.93
573.743	17.83
574.166	17.72
574.589	17.63
575.012	17.54
575.435	17.45
575.858	17.37
576.281	17.3
576.704	17.22
577.126	17.13
577.549	17.05
577.972	16.98
578.394	16.9
578.817	16.85
579.239	16.77
579.661	16.69
580.084	16.63
580.506	16.57
580.928	16.49
581.35	16.44
581.772	16.39
582.194	16.33
582.616	16.27
583.038	16.23
583.46	16.17
583.882	16.13
584.303	16.09
584.725	16.05
585.147	15.97
585.568	15.92
585.99	15.86
586.411	15.82
586.833	15.77
587.254	15.74
587.675	15.7
588.096	15.66
588.518	15.61
588.939	15.57
589.36	15.52
589.781	15.49
590.202	15.46
590.623	15.42
591.043	15.37
591.464	15.33
591.885	15.29
592.305	15.27
592.726	15.23
593.147	15.22
593.567	15.18
593.987	15.18
594.408	15.15
594.828	15.12
595.248	15.11
595.669	15.1
596.089	15.08
596.509	15.04
596.929	15.01
597.349	14.99
597.769	14.95
598.189	14.93
598.608	14.89
599.028	14.86
599.448	14.85
599.867	14.81
600.287	14.78
600.706	14.76
601.126	14.74
601.545	14.71
601.965	14.68
602.384	14.66
602.803	14.62
603.222	14.59
603.641	14.57
604.061	14.52
604.48	14.5
604.898	14.47
605.317	14.44
605.736	14.4
606.155	14.36
606.574	14.32
606.992	14.26
607.411	14.24
607.829	14.15
608.248	14.12
608.666	14.07
609.085	14.03
609.503	13.97
609.921	13.91
610.339	13.88
610.758	13.85
611.176	13.82
611.594	13.79
612.012	13.75
612.43	13.75
612.847	13.71
613.265	13.67
613.683	13.62
614.101	13.59
614.518	13.55
614.936	13.5
615.353	13.46
615.771	13.41
616.188	13.38
616.606	13.34
617.023	13.31
617.44	13.27
617.857	13.23
618.274	13.21
618.691	13.2
619.108	13.17
619.525	13.15
619.942	13.13
620.359	13.11
620.776	13.09
621.192	13.07
621.609	13.05
622.026	13.02
622.442	12.99
622.859	12.98
623.275	12.97
623.691	12.95
624.108	12.96
624.524	12.94
624.94	12.94
625.356	12.92
625.772	12.92
626.188	12.93
626.604	12.91
627.02	12.9
627.436	12.9
627.852	12.87
628.268	12.85
628.683	12.82
629.099	12.81
629.514	12.78
629.93	12.76
630.345	12.72
630.761	12.67
631.176	12.65
631.591	12.63
632.007	12.6
632.422	12.57
632.837	12.55
633.252	12.52
633.667	12.48
634.082	12.45
634.497	12.4
634.911	12.37
635.326	12.34
635.741	12.3
636.155	12.24
636.57	12.2
636.984	12.15
637.399	12.08
637.813	12.02
638.228	11.97
638.642	11.92
639.056	11.87
639.47	11.81
639.884	11.76
640.298	11.71
640.712	11.66
641.126	11.6
641.54	11.55
641.954	11.52
642.368	11.46
642.781	11.41
643.195	11.37
643.609	11.32
644.022	11.28
644.436	11.23
644.849	11.2
645.262	11.18
645.676	11.15
646.089	11.1
646.502	11.05
646.915	11.03
647.328	11.01
647.741	10.98
648.154	10.96
648.567	10.95
648.98	10.94
649.393	10.92
649.805	10.9
650.218	10.89
650.631	10.89
651.043	10.9
651.456	10.9
651.868	10.9
652.28	10.89
652.693	10.88
653.105	10.87
653.517	10.86
653.929	10.86
654.341	10.85
654.753	10.84
655.165	10.83
655.577	10.8
655.989	10.79
656.401	10.76
656.813	10.74
657.224	10.72
657.636	10.71
658.047	10.69
658.459	10.67
658.87	10.65
659.282	10.64
659.693	10.63
660.104	10.61
660.515	10.59
660.926	10.57
661.338	10.55
661.749	10.55
662.159	10.53
662.57	10.52
662.981	10.5
663.392	10.48
663.803	10.47
664.213	10.44
664.624	10.45
665.035	10.43
665.445	10.42
665.855	10.44
666.266	10.44
666.676	10.43
667.086	10.44
667.497	10.44
667.907	10.44
668.317	10.43
668.727	10.44
669.137	10.45
669.547	10.47
669.956	10.49
670.366	10.51
670.776	10.52
671.186	10.55
671.595	10.56
672.005	10.58
672.414	10.6
672.824	10.65
673.233	10.69
673.642	10.7
674.052	10.74
674.461	10.76
674.87	10.77
675.279	10.78
675.688	10.81
676.097	10.84
676.506	10.86
676.915	10.91
677.323	10.91
677.732	10.95
678.141	10.97
678.549	11
678.958	11.05
679.366	11.08
679.775	11.12
680.183	11.16
680.592	11.2
681	11.23
681.408	11.25
681.816	11.28
682.224	11.31
682.632	11.37
683.04	11.39
683.448	11.42
683.856	11.46
684.264	11.51
684.671	11.56
685.079	11.62
685.487	11.7
685.894	11.78
686.302	11.86
686.709	11.95
687.116	12.04
687.524	12.16
687.931	12.29
688.338	12.46
688.745	12.62
689.152	12.8
689.559	13.01
689.966	13.21
690.373	13.47
690.78	13.73
691.187	13.99
691.593	14.29
692	14.61
692.407	14.95
692.813	15.3
693.22	15.66
693.626	16.03
694.032	16.42
694.439	16.86
694.845	17.27
695.251	17.72
695.657	18.22
696.063	18.71
696.469	19.19
696.875	19.66
697.281	20.14
697.687	20.66
698.093	21.18
698.498	21.68
698.904	22.18
699.31	22.69
699.715	23.22
700.12	23.71
700.526	24.23
700.931	24.76
701.337	25.29
701.742	25.8
702.147	26.34
702.552	26.86
702.957	27.37
703.362	27.91
703.767	28.41
704.172	28.92
704.577	29.44
704.981	29.93
705.386	30.42
705.791	30.94
706.195	31.45
706.6	31.93
707.004	32.41
707.408	32.92
707.813	33.38
708.217	33.88
708.621	34.34
709.025	34.81
709.43	35.27
709.834	35.75
710.237	36.19
710.641	36.67
711.045	37.09
711.449	37.56
711.853	38.01
712.256	38.46
712.66	38.89
713.064	39.34
713.467	39.77
713.87	40.21
714.274	40.66
714.677	41.07
715.08	41.47
715.484	41.91
715.887	42.3
716.29	42.69
716.693	43.07
717.096	43.49
717.499	43.88
717.901	44.27
718.304	44.64
718.707	44.97
719.109	45.33
719.512	45.67
719.915	46.03
720.317	46.41
720.719	46.75
721.122	47.14
721.524	47.46
721.926	47.81
722.328	48.12
722.731	48.46
723.133	48.77
723.535	49.11
723.937	49.41
724.338	49.66
724.74	49.91
725.142	50.16
725.544	50.38
725.945	50.63
726.347	50.88
726.748	51.14
727.15	51.37
727.551	51.62
727.952	51.8
728.354	52.06
728.755	52.3
729.156	52.53
729.557	52.78
729.958	53.01
730.359	53.21
730.76	53.34
731.161	53.5
731.562	53.7
731.962	53.87
732.363	54.01
732.763	54.16
733.164	54.31
733.564	54.45
733.965	54.55
734.365	54.67
734.766	54.77
735.166	54.92
735.566	55.04
735.966	55.11
736.366	55.18
736.766	55.31
737.166	55.4
737.566	55.49
737.966	55.59
738.365	55.68
738.765	55.77
739.165	55.83
739.564	55.92
739.964	55.98
740.363	56.05
740.763	56.14
741.162	56.2
741.561	56.28
741.96	56.33
742.36	56.4
742.759	56.43
743.158	56.49
743.557	56.59
743.955	56.64
744.354	56.7
744.753	56.76
745.152	56.81
745.55	56.87
745.949	56.9
746.348	56.99
746.746	57
747.144	57.07
747.543	57.12
747.941	57.18
748.339	57.22
748.737	57.28
749.136	57.33
749.534	57.39
749.932	57.41
750.33	57.45
750.727	57.44
751.125	57.49
751.523	57.52
751.921	57.55
752.318	57.55
752.716	57.56
753.113	57.58
753.511	57.55
753.908	57.53
754.305	57.5
754.703	57.48
755.1	57.46
755.497	57.46
755.894	57.45
756.291	57.42
756.688	57.43
757.085	57.43
757.482	57.4
757.878	57.42
758.275	57.43
758.672	57.51
759.068	57.53
759.465	57.57
759.861	57.58
760.258	57.6
760.654	57.6
761.05	57.59
761.447	57.56
761.843	57.52
762.239	57.51
762.635	57.51
763.031	57.45
763.427	57.43
763.822	57.36
764.218	57.33
764.614	57.29
765.01	57.27
765.405	57.22
765.801	57.22
766.196	57.23
766.592	57.22
766.987	57.22
767.382	57.22
767.778	57.22
768.173	57.25
768.568	57.25
768.963	57.26
769.358	57.28
769.753	57.32
770.148	57.34
770.542	57.33
770.937	57.3
771.332	57.27
771.726	57.26
772.121	57.23
772.515	57.21
772.91	57.19
773.304	57.13
773.699	57.12
774.093	57.09
774.487	57.07
774.881	57.04
775.275	57.04
775.669	57.06
776.063	57.01
776.457	56.97
776.851	56.95
777.245	56.95
777.638	56.99
778.032	56.99
778.425	57.02
778.819	57.01
779.212	57.01
779.606	57.04
779.999	57.03
780.392	57.05
780.786	57.08
781.179	57.13
781.572	57.14
781.965	57.14
782.358	57.11
782.751	57.06
783.143	57.09
783.536	57.14
783.929	57.16
784.322	57.16
784.714	57.15
785.107	57.17
785.499	57.19
785.891	57.22
786.284	57.2
786.676	57.26
787.068	57.28
787.46	57.26
787.852	57.28
788.245	57.26
788.636	57.25
789.028	57.25
789.42	57.23
789.812	57.21
790.204	57.14
790.595	57.15
790.987	57.12
791.378	57.13
791.77	57.13
792.161	57.08
792.553	57.08
792.944	57.13
793.335	57.15
793.726	57.15
794.117	57.16
794.508	57.18
794.899	57.19
795.29	57.2
795.681	57.21
796.072	57.22
796.463	57.24
796.853	57.22
797.244	57.19
797.634	57.18
798.025	57.2
798.415	57.21
798.806	57.24
799.196	57.26
799.586	57.22
799.976	57.18
800.366	57.19
800.756	57.19
801.146	57.19
801.536	57.18
801.926	57.19
802.316	57.19
802.706	57.18
803.095	57.18
803.485	57.17
803.874	57.19
804.264	57.21
804.653	57.18
805.043	57.16
805.432	57.13
805.821	57.13
806.21	57.19
806.599	57.22
806.988	57.22
807.377	57.21
807.766	57.21
808.155	57.23
808.544	57.22
808.933	57.26
809.321	57.34
809.71	57.4
810.098	57.39
810.487	57.35
810.875	57.32
811.264	57.35
811.652	57.34
812.04	57.34
812.428	57.35
812.816	57.39
813.204	57.36
813.592	57.32
813.98	57.3
814.368	57.33
814.756	57.35
815.144	57.35
815.531	57.32
815.919	57.31
816.306	57.33
816.694	57.32
817.081	57.31
817.469	57.36
817.856	57.41
818.243	57.41
818.63	57.46
819.017	57.47
819.404	57.49
819.791	57.52
820.178	57.57
820.565	57.59
820.952	57.6
821.339	57.59
821.725	57.6
822.112	57.57
822.498	57.6
822.885	57.59
823.271	57.59
823.657	57.58
824.044	57.57
824.43	57.59
824.816	57.59
825.202	57.59
825.588	57.63
825.974	57.63
826.36	57.64
826.746	57.62
827.132	57.58
827.517	57.61
827.903	57.62
828.289	57.65
828.674	57.6
829.06	57.62
829.445	57.63
829.83	57.61
830.216	57.61
830.601	57.63
830.986	57.64
831.371	57.69
831.756	57.64
832.141	57.68
832.526	57.62
832.911	57.66
833.295	57.68
833.68	57.68
834.065	57.67
834.449	57.68
834.834	57.66
835.218	57.66
835.603	57.64
835.987	57.64
836.371	57.61
836.755	57.62
837.139	57.58
837.524	57.57
837.908	57.55
838.291	57.53
838.675	57.53
839.059	57.54
839.443	57.52
839.827	57.5
840.21	57.54
840.594	57.55
840.977	57.57
841.361	57.59
841.744	57.58
842.127	57.58
842.511	57.61
842.894	57.59
843.277	57.58
843.66	57.59
844.043	57.63
844.426	57.6
844.809	57.57
845.191	57.57
845.574	57.56
845.957	57.53
846.339	57.53
846.722	57.51
847.104	57.51
847.487	57.54
847.869	57.53
848.252	57.51
848.634	57.51
849.016	57.51
849.398	57.51
849.78	57.5
850.162	57.5
850.544	57.52
850.926	57.48
851.307	57.49
851.689	57.44
852.071	57.42
852.452	57.42
852.834	57.41
853.215	57.41
853.597	57.41
853.978	57.39
854.359	57.4
854.741	57.38
855.122	57.4
855.503	57.42
855.884	57.43
856.265	57.45
856.646	57.45
857.026	57.47
857.407	57.46
857.788	57.49
858.169	57.51
858.549	57.51
858.93	57.52
859.31	57.52
859.69	57.48
860.071	57.49
860.451	57.48
860.831	57.47
861.211	57.45
861.591	57.48
861.971	57.43
862.351	57.43
862.731	57.42
863.111	57.42
863.491	57.43
863.87	57.44
864.25	57.45
864.629	57.44
865.009	57.43
865.388	57.44
865.768	57.39
866.147	57.43
866.526	57.44
866.905	57.47
867.284	57.46
867.663	57.45
868.042	57.43
868.421	57.43
868.8	57.45
869.179	57.47
869.558	57.47
869.936	57.48
870.315	57.47
870.693	57.44
871.072	57.39
871.45	57.39
871.828	57.39
872.207	57.4
872.585	57.4
872.963	57.37
873.341	57.37
873.719	57.36
874.097	57.38
874.475	57.35
874.853	57.35
875.23	57.37
875.608	57.37
875.986	57.37
876.363	57.38
876.741	57.35
877.118	57.36
877.495	57.36
877.873	57.38
878.25	57.36
878.627	57.43
879.004	57.45
879.381	57.47
879.758	57.46
880.135	57.48
880.512	57.47
880.889	57.51
881.265	57.53
881.642	57.49
882.019	57.48
882.395	57.48
882.772	57.42
883.148	57.39
883.524	57.4
883.901	57.39
884.277	57.39
884.653	57.38
885.029	57.38
885.405	57.34
885.781	57.35
886.157	57.34
886.532	57.31
886.908	57.35
887.284	57.36
887.659	57.34
888.035	57.34
888.411	57.29
888.786	57.27
889.161	57.23
889.537	57.24
889.912	57.24
890.287	57.23
890.662	57.23
891.037	57.18
891.412	57.15
891.787	57.13
892.162	57.11
892.536	57.12
892.911	57.11
893.286	57.11
893.66	57.09
894.035	57.06
894.409	57.02
894.784	57.02
895.158	57.03
895.532	56.99
895.906	56.98
896.281	56.99
896.655	56.99
897.029	56.98
897.402	56.95
897.776	56.93
898.15	56.94
898.524	56.96
898.898	56.92
899.271	56.9
899.645	56.93
900.018	56.93
900.392	56.9
900.765	56.92
901.138	56.93
901.511	56.94
901.884	56.93
902.258	56.93
902.631	56.94
903.003	56.96
903.376	56.95
903.749	56.95
904.122	56.94
904.495	56.94
904.867	56.87
905.24	56.84
905.612	56.85
905.985	56.83
906.357	56.76
906.729	56.75
907.102	56.73
907.474	56.72
907.846	56.67
908.218	56.66
908.59	56.62
908.962	56.63
909.334	56.64
909.705	56.62
910.077	56.63
910.449	56.68
910.82	56.66
911.192	56.68
911.563	56.68
911.935	56.7
912.306	56.7
912.677	56.73
913.048	56.72
913.419	56.67
913.79	56.66
914.161	56.66
914.532	56.61
914.903	56.59
915.274	56.56
915.645	56.55
916.015	56.54
916.386	56.5
916.756	56.45
917.127	56.45
917.497	56.43
917.868	56.44
918.238	56.42
918.608	56.4
918.978	56.37
919.348	56.35
919.718	56.37
920.088	56.36
920.458	56.42
920.828	56.44
921.198	56.48
921.567	56.46
921.937	56.45
922.306	56.42
922.676	56.42
923.045	56.42
923.415	56.45
923.784	56.4
924.153	56.41
924.522	56.38
924.891	56.37
925.26	56.33
925.629	56.39
925.998	56.38
926.367	56.4
926.736	56.39
927.104	56.41
927.473	56.41
927.842	56.42
928.21	56.43
928.578	56.38
928.947	56.39
929.315	56.41
929.683	56.39
930.051	56.37
930.42	56.33
930.788	56.28
931.156	56.28
931.523	56.25
931.891	56.22
932.259	56.15
932.627	56.08
932.994	56.03
933.362	55.92
933.729	55.83
934.097	55.8
934.464	55.8
934.831	55.77
935.199	55.68
935.566	55.58
935.933	55.53
936.3	55.44
936.667	55.42
937.034	55.36
937.401	55.36
937.767	55.29
938.134	55.28
938.501	55.16
938.867	55.19
939.234	55.23
939.6	55.24
939.967	55.19
940.333	55.29
940.699	55.44
941.065	55.44
941.431	55.47
941.798	55.61
942.163	55.66
942.529	55.74
942.895	55.79
943.261	55.79
943.627	55.85
943.992	55.99
944.358	55.97
944.723	55.9
945.089	56
945.454	56.09
945.82	56.07
946.185	56.07
946.55	56.18
946.915	56.19
947.28	56.21
947.645	56.21
948.01	56.14
948.375	56.17
948.74	56.13
949.104	56.12
949.469	56.05
949.834	56
950.198	55.99
950.562	55.91
950.927	55.91
951.291	55.85
951.655	55.91
952.02	55.92
952.384	55.93
952.748	55.95
953.112	55.94
953.476	55.93
953.839	55.94
954.203	55.84
954.567	55.76
954.931	55.66
955.294	55.69
955.658	55.64
956.021	55.58
956.385	55.56
956.748	55.56
957.111	55.5
957.474	55.55
957.837	55.57
958.2	55.5
958.563	55.53
958.926	55.47
959.289	55.45
959.652	55.47
960.015	55.45
960.377	55.42
960.74	55.36
961.102	55.3
961.465	55.22
961.827	55.11
962.189	55.1
962.552	55.06
962.914	55.11
963.276	55.06
963.638	54.98
964	54.94
964.362	54.88
964.724	54.89
965.085	54.93
965.447	54.82
965.809	54.78
966.17	54.82
966.532	54.8
966.893	54.71
967.255	54.68
967.616	54.67
967.977	54.71
968.338	54.71
968.699	54.66
969.061	54.61
969.421	54.67
969.782	54.69
970.143	54.69
970.504	54.6
970.865	54.56
971.225	54.49
971.586	54.5
971.946	54.46
972.307	54.34
972.667	54.35
973.027	54.37
973.388	54.33
973.748	54.37
974.108	54.26
974.468	54.33
974.828	54.41
975.188	54.47
975.548	54.44
975.907	54.42
976.267	54.53
976.627	54.49
976.986	54.45
977.346	54.46
977.705	54.42
978.064	54.46
978.424	54.38
978.783	54.42
979.142	54.32
979.501	54.29
979.86	54.39
980.219	54.32
980.578	54.38
980.937	54.39
981.296	54.43
981.654	54.53
982.013	54.52
982.371	54.6
982.73	54.49
983.088	54.52
983.447	54.59
983.805	54.48
984.163	54.47
984.521	54.25
984.879	54.26
985.237	54.24
985.595	54.16
985.953	54.19
986.311	54.23
986.669	54.34
987.026	54.39
987.384	54.4
987.741	54.45
988.099	54.48
988.456	54.61
988.814	54.61
989.171	54.59
989.528	54.48
989.885	54.46
990.242	54.4
990.599	54.32
990.956	54.38
991.313	54.24
991.67	54.18
992.027	54.14
992.383	54.2
992.74	54.19
993.096	54.23
993.453	54.36
993.809	54.48
994.165	54.46
994.522	54.49
994.878	54.43
995.234	54.48
995.59	54.44
995.946	54.49
996.302	54.44
996.658	54.5
997.013	54.51
997.369	54.45
997.725	54.4
998.08	54.34
998.436	54.4
998.791	54.28
999.147	54.37
999.502	54.44
999.857	54.33
1000.212	54.3
1000.567	54.09
1000.922	54.03
1001.277	53.96
1001.632	53.96
1001.987	54.01
1002.342	53.91
1002.696	53.98
1003.051	53.79
1003.406	53.81
1003.76	53.91
1004.114	54.02
1004.469	54.16
1004.823	54.21
1005.177	54.37
1005.531	54.22
1005.885	54.16
1006.239	54.13
1006.593	54.14
1006.947	54.18
1007.301	54.14
1007.655	54.25
1008.008	54.09
1008.362	54.16
1008.715	54.09
1009.069	54
1009.422	53.97
1009.776	53.93
1010.129	53.91
1010.482	54.08
1010.835	54.37
1011.188	54.3
1011.541	53.85
1011.894	53.74
1012.247	53.61
1012.6	53.54
1012.952	53.55
1013.305	53.7
1013.657	53.96
1014.01	54.03
1014.362	53.84
1014.715	53.54
1015.067	53.68
1015.419	53.92
1015.771	54.25
1016.123	54.16
1016.475	54.32
1016.827	54.41
1017.179	54.41
1017.531	54.39
1017.883	54.34
1018.234	54.54
1018.586	54.41
1018.938	54.17
1019.289	54.38
1019.64	54.53
1019.992	54.61
1020.343	54.35
1020.694	54.32
1021.045	54.43
1021.396	54.28
1021.747	54.43
1022.098	54.34
1022.449	54.62
1022.8	54.74
1023.151	54.59
1023.501	54.3
1023.852	54.59
1024.202	54.5
1024.553	54
1024.903	53.73
1025.253	53.91
1025.604	53.64
1025.954	53.42
1026.304	53.75
1026.654	53.66
1027.004	53.64
1027.354	53.67
1027.703	53.42
1028.053	53.32
1028.403	53.9
1028.753	54.06
1029.102	53.86
1029.452	54
1029.801	54.01
1030.15	53.51
1030.499	53.68
897.758	499.54
901.051	505.35
904.343	514.15
907.636	503.38
910.928	495.37
914.22	504.23
917.511	494.18
920.803	469.05
924.094	449.93
927.384	456.53
930.675	441.35
933.965	437.76
937.255	438.95
940.544	417.01
943.834	401.72
947.123	395.25
950.411	375.92
953.7	370.35
956.988	361.02
960.276	347.57
963.563	341.57
966.851	324.42
970.138	319.11
973.424	297.74
976.711	296.12
979.997	284.88
983.283	278.68
986.568	269.84
989.853	262.37
993.138	253.72
996.423	251.45
999.708	243.69
1002.992	244.63
1006.275	239.29
1009.559	237.36
1012.842	229.34
1016.125	222.85
1019.408	219.37
1022.69	217.7
1025.972	216.38
1029.254	211.64
1032.536	206.91
1035.817	200.91
1039.098	197.74
1042.379	193.76
1045.659	192.1
1048.939	190.49
1052.219	188.72
1055.498	185.4
1058.778	182.46
1062.057	178.46
1065.335	177.88
1068.614	174.6
1071.892	173.01
1075.17	170.43
1078.447	168.84
1081.724	166.38
1085.001	163.5
1088.278	162.94
1091.554	162.36
1094.83	161.29
1098.106	158.51
1101.382	157.23
1104.657	157.27
1107.932	155.89
1111.206	155.99
1114.481	153.23
1117.755	152.93
1121.029	151.94
1124.302	149.7
1127.575	147.59
1130.848	146.64
1134.121	145.97
1137.393	145.55
1140.665	144.37
1143.937	143.28
1147.208	141.22
1150.48	140.59
1153.75	139.66
1157.021	139.09
1160.291	138.57
1163.561	138.17
1166.831	137.86
1170.101	137.8
1173.37	135.97
1176.639	134.94
1179.907	134.97
1183.176	134.35
1186.444	133.65
1189.711	132.96
1192.979	134.14
1196.246	134.29
1199.513	133.39
1202.78	132.99
1206.046	133.09
1209.312	134.59
1212.578	134.99
1215.843	136.39
1219.108	137.1
1222.373	140
1225.638	141.21
1228.902	143.63
1232.166	147.82
1235.43	149.89
1238.693	153.23
1241.956	155.9
1245.219	159.07
1248.482	160.31
1251.744	160.47
1255.006	161.42
1258.268	157.45
1261.529	157.14
1264.79	152.59
1268.051	149.47
1271.312	148.73
1274.572	146.01
1277.832	142.4
1281.092	141.39
1284.351	139.11
1287.61	138.88
1290.869	137.22
1294.128	137.01
1297.386	136.56
1300.644	136.59
1303.902	135.4
1307.159	135.3
1310.416	135.38
1313.673	138.01
1316.93	138.19
1320.186	139.71
1323.442	140.84
1326.697	144.26
1329.953	144.31
1333.208	147.83
1336.463	152.55
1339.717	155.76
1342.972	161.68
1346.226	166.16
1349.479	167.13
1352.733	173.66
1355.986	177.22
1359.238	180.54
1362.491	181.4
1365.743	188.63
1368.995	190.43
1372.247	190.46
1375.498	189.83
1378.749	195.1
1382	191.57
1385.251	191.97
1388.501	189.5
1391.751	191.74
1395	189.68
1398.25	191.01
1401.499	189.57
1404.748	188.32
1407.996	183.48
1411.244	183.2
1414.492	180.38
1417.74	176.67
1420.987	171.8
1424.234	169.15
1427.481	162.53
1430.728	159.58
1433.974	152.88
1437.22	148.74
1440.465	143.4
1443.711	139.56
1446.956	135.56
1450.201	129.52
1453.445	125.28
1456.689	122.34
1459.933	118.01
1463.177	113.03
1466.42	109.75
1469.663	106.99
1472.906	102.95
1476.148	101.9
1479.391	99.57
1482.633	97.98
1485.874	96.54
1489.115	95.79
1492.356	93.39
1495.597	92.94
1498.838	93.26
1502.078	93.09
1505.318	93
1508.557	92.78
1511.797	91.02
1515.036	91.26
1518.274	90.71
1521.513	89.91
1524.751	89.11
1527.989	90.37
1531.227	89.8
1534.464	89.32
1537.701	89.08
1540.938	88.75
1544.174	88.89
1547.41	89.29
1550.646	88.87
1553.882	89.1
1557.117	89.25
1560.352	89.86
1563.587	88.43
1566.821	88.29
1570.055	88.06
1573.289	88.01
1576.523	88.2
1579.756	87.67
1582.989	87.8
1586.222	88.28
1589.454	87.74
1592.686	87.65
1595.918	87.05
1599.15	87.5
1602.381	87.68
1605.612	88.23
1608.843	87.65
1612.073	88.65
1615.303	89.12
1618.533	88.62
1621.762	88.22
1624.992	89.15
1628.221	89.06
1631.449	89.37
1634.678	89.33
1637.906	89.62
1641.134	89.44
1644.361	89.84
1647.588	89.18
1650.815	89.13
1654.042	89.56
1657.269	89.55
1660.495	89.63
1663.72	89.75
1666.946	89.86
1670.171	90.22
1673.396	90.52
1676.621	90.44
1679.845	90.86
1683.069	90.67
1686.293	90.38
1689.517	90.34
1692.74	90.61
1695.963	90.67
1699.185	90.79
1702.408	91.19
1705.63	91.49
1708.852	92.08
1712.073	91.63
1715.294	91.54
1718.515	91.62
1721.736	92.51
1724.956	92.72
1728.176	92.56
1731.396	92.56
1734.616	92.54
1737.835	92.41
1741.054	92.34
1744.272	91.17
1747.491	91.8
1750.709	92.45
1753.927	92.58
1757.144	92.03
1760.361	91.99
1763.578	92.85
1766.795	93.61
1770.011	93.78
1773.227	94.1
1776.443	94.65
1779.658	95.19
1782.874	96.01
1786.089	95.21
1789.303	95.67
1792.518	96.9
1795.732	97.54
1798.945	97.83
1802.159	97.69
1805.372	98.96
1808.585	99.46
1811.797	99.42
1815.01	100.52
1818.222	100.72
1821.434	102.57
1824.645	102.77
1827.856	103.54
1831.067	103.62
1834.278	104.83
1837.488	105.45
1840.698	105.67
1843.908	106
1847.117	107.65
1850.326	108.35
1853.535	108.05
1856.744	108.26
1859.952	109.65
1863.16	109.33
1866.368	109.02
1869.575	108.87
1872.782	107.81
1875.989	108.27
1879.196	107.73
1882.402	105.66
1885.608	106.63
1888.814	106.33
1892.019	106.65
1895.224	104.87
1898.429	105.57
1901.634	106.55
1904.838	106.31
1908.042	107.52
1911.246	107.01
1914.449	107.38
1917.652	107.96
1920.855	107.38
1924.058	106.93
1927.26	106.66
1930.462	107.19
1933.664	107.16
1936.865	106.39
1940.066	105.2
1943.267	104.31
1946.467	105.31
1949.668	104.89
1952.868	105.81
1956.067	105.57
1959.267	105.69
1962.466	106.28
1965.665	106.91
1968.863	107.66
1972.061	107.51
1975.259	111.42
1978.457	111.81
1981.654	111.86
1984.852	113.32
1988.048	113.77
1991.245	115.54
1994.441	118.97
1997.637	121.02
2000.833	123.98
2004.028	123.62
2007.223	129.03
2010.418	129.48
2013.613	136.68
2016.807	140.15
2020.001	142.78
2023.194	147.9
2026.388	150.88
2029.581	158.13
2032.774	161.45
2035.966	166.5
2039.158	173
2042.35	175.35
2045.542	178.51
2048.733	184.83
2051.924	186.44
2055.115	189.45
2058.306	190.12
2061.496	196.44
2064.686	195.94
2067.875	195.88
2071.065	197.79
2074.254	197.53
2077.442	203.97
2080.631	205.68
2083.819	204.81
2087.007	209.04
2090.195	211.98
2093.382	212.59
2096.569	212.28
2099.756	216.02
2102.942	221.35
2106.128	224.18
2109.314	226.54
2112.5	224.43
2115.685	222.35
2118.87	223.5
2122.055	227.2
2125.239	231.48
2128.424	237.71
2131.608	236.55
2134.791	233.55
2137.974	236.9
2141.157	237.81
2144.34	240.77
2147.523	244.59
2150.705	252.84
2153.887	250.63
2157.068	251.8
2160.25	254.43
2163.431	251.01
2166.611	257.49
2169.792	262.99
2172.972	266.08
2176.152	267.57
2179.331	273.09
2182.511	272.97
2185.69	276.57
2188.868	287.36
2192.047	292.91
2195.225	296.93
2198.403	303.57
2201.58	297.77
2204.758	308.84
2207.935	308.38
2211.111	314.36
2214.288	316.51
2217.464	321.21
2220.64	322.48
2223.815	323.59
2226.991	318.6
2230.166	321.46
2233.34	330.96
2236.515	338.24
2239.689	337.66
2242.863	342.57
2246.036	340.69
2249.209	347.7
2252.382	346.55
2255.555	359.67
2258.727	360.7
2261.9	371.8
2265.071	376.44
2268.243	371.9
2271.414	385.43
2274.585	389.3
2277.756	389.4
2280.926	403.85
2284.096	402.42
2287.266	406.51
2290.436	395.93
2293.605	406.41
2296.774	421.36
2299.942	421.61
2303.111	434.5
2306.279	436.37
2309.447	439.25
2312.614	444.2
2315.781	452.82
2318.948	463.31
2322.115	470.06
2325.281	493.75
2328.447	487.42
2331.613	487.9
2334.779	496.52
2337.944	503.65
2341.109	518.87
2344.274	521.74
2347.438	535.66
2350.602	548.51
2353.766	576.05
2356.929	577.37
2360.092	592.87
2363.255	598.13
2366.418	607.82
2369.58	619.21
2372.742	616.5
2375.904	612.55
2379.066	629.07
2382.227	667.49
2385.388	657.6
2388.548	630.04
2391.709	622.09
2394.869	639.14
2398.029	643.22
2401.188	650.61
2404.347	668.97
2407.506	692.34
2410.665	664.8
2413.823	670.37
2416.981	664.99
2420.139	635.33
2423.296	682.77
2426.453	733.6
2429.61	698.76
2432.767	741.2
2435.923	757.07
2439.079	731.84
2442.235	753.1
2445.391	772.56
2448.546	764.36
2451.701	804.53
2454.855	859.4
2458.009	767.58
2461.163	777.28
2464.317	780.63
2467.471	767.31
2470.624	790.54
2473.777	774.82
2476.929	745.63
2480.082	794
2483.234	831.71
2486.385	846.44
2489.537	867.61
2492.688	945.76
2495.839	931.87
2498.989	958.97
2502.14	959.73
2505.29	921.58
2508.439	1034.87
2511.589	1067.77
2514.738	1044.65
2517.887	1034.99
2521.035	970.78
2524.183	953.56
2527.331	947.61
2530.479	925.59
2533.627	949.45
