Data from N_1_hir_wi_4n_041_Splice17_20.txt Node
Date: Sat Feb 29 13:50:45 EST 2020
User: sa697716
Spectrometer: FLMS03696
Trigger mode: 0
Integration Time (sec): 3.180400E-1
Scans to average: 20
Electric dark correction enabled: true
Nonlinearity correction enabled: true
Boxcar width: 5
XAxis mode: Wavelengths
Number of Pixels in Spectrum: 2048
>>>>>Begin Spectral Data<<<<<
187.83	102.26
188.298	94.08
188.766	96.85
189.233	99.75
189.701	108.47
190.169	108.73
190.636	125.46
191.104	143.82
191.571	477.47
192.039	234.62
192.506	-241.52
192.974	1488.09
193.441	454.86
193.908	28.07
194.375	131.01
194.842	176.51
195.31	64.06
195.777	129.14
196.244	80.92
196.711	74.81
197.177	74.3
197.644	74.63
198.111	74.75
198.578	75.76
199.045	76.05
199.511	75.31
199.978	75.52
200.445	75.59
200.911	75.65
201.378	75.73
201.844	76.16
202.31	76.43
202.777	76.31
203.243	76.57
203.709	76.19
204.176	75.56
204.642	75.2
205.108	74.63
205.574	74.8
206.04	73.91
206.506	73.4
206.972	72.48
207.438	71.67
207.903	71.12
208.369	69.64
208.835	68.63
209.301	67.73
209.766	66.39
210.232	65.27
210.697	63.88
211.163	62.59
211.628	61.19
212.094	60.07
212.559	58.6
213.024	57.23
213.49	55.86
213.955	54.49
214.42	53.04
214.885	51.21
215.35	49.37
215.815	46.75
216.28	43.97
216.745	40.89
217.21	37.72
217.675	34.85
218.14	32.13
218.604	29.58
219.069	27.45
219.534	25.57
219.998	24.16
220.463	22.83
220.927	21.78
221.392	20.83
221.856	20.01
222.32	19.31
222.785	18.65
223.249	18.13
223.713	17.65
224.177	17.2
224.642	16.82
225.106	16.42
225.57	16.03
226.034	15.71
226.497	15.42
226.961	15.11
227.425	14.82
227.889	14.57
228.353	14.29
228.816	14.05
229.28	13.8
229.744	13.59
230.207	13.4
230.671	13.23
231.134	13.02
231.597	12.83
232.061	12.66
232.524	12.52
232.987	12.38
233.45	12.23
233.914	12.09
234.377	11.97
234.84	11.85
235.303	11.72
235.766	11.61
236.229	11.48
236.691	11.38
237.154	11.28
237.617	11.18
238.08	11.07
238.542	10.99
239.005	10.9
239.468	10.8
239.93	10.7
240.393	10.61
240.855	10.52
241.317	10.47
241.78	10.39
242.242	10.29
242.704	10.21
243.166	10.14
243.629	10.06
244.091	9.98
244.553	9.94
245.015	9.87
245.477	9.79
245.939	9.72
246.4	9.64
246.862	9.57
247.324	9.52
247.786	9.46
248.247	9.39
248.709	9.35
249.17	9.29
249.632	9.23
250.093	9.17
250.555	9.13
251.016	9.09
251.477	9.05
251.939	9
252.4	8.96
252.861	8.92
253.322	8.89
253.783	8.85
254.244	8.81
254.705	8.78
255.166	8.76
255.627	8.73
256.088	8.68
256.549	8.64
257.009	8.61
257.47	8.56
257.931	8.51
258.391	8.45
258.852	8.4
259.312	8.36
259.773	8.31
260.233	8.26
260.694	8.22
261.154	8.18
261.614	8.14
262.074	8.11
262.534	8.06
262.994	8.04
263.455	8.01
263.915	7.98
264.374	7.95
264.834	7.92
265.294	7.9
265.754	7.87
266.214	7.86
266.673	7.84
267.133	7.81
267.593	7.8
268.052	7.78
268.512	7.76
268.971	7.74
269.431	7.73
269.89	7.71
270.349	7.69
270.809	7.68
271.268	7.65
271.727	7.64
272.186	7.63
272.645	7.6
273.104	7.59
273.563	7.58
274.022	7.57
274.481	7.55
274.94	7.54
275.399	7.53
275.857	7.52
276.316	7.51
276.775	7.5
277.233	7.48
277.692	7.47
278.15	7.46
278.609	7.45
279.067	7.43
279.525	7.42
279.984	7.4
280.442	7.4
280.9	7.38
281.358	7.37
281.816	7.35
282.274	7.33
282.732	7.32
283.19	7.31
283.648	7.31
284.106	7.3
284.564	7.3
285.021	7.3
285.479	7.29
285.937	7.28
286.394	7.27
286.852	7.26
287.309	7.27
287.767	7.26
288.224	7.25
288.682	7.24
289.139	7.23
289.596	7.22
290.053	7.2
290.511	7.17
290.968	7.16
291.425	7.15
291.882	7.13
292.339	7.12
292.796	7.11
293.252	7.11
293.709	7.09
294.166	7.09
294.623	7.08
295.079	7.07
295.536	7.07
295.992	7.05
296.449	7.05
296.905	7.05
297.362	7.05
297.818	7.04
298.274	7.03
298.731	7.03
299.187	7.02
299.643	7.01
300.099	7.02
300.555	7.02
301.011	7.02
301.467	7.01
301.923	7.01
302.379	7.01
302.835	7
303.291	7
303.746	7
304.202	7
304.658	7
305.113	6.99
305.569	7
306.024	7
306.479	7
306.935	7
307.39	7.01
307.845	7.01
308.301	7.01
308.756	7.01
309.211	7.02
309.666	7.03
310.121	7.03
310.576	7.03
311.031	7.03
311.486	7.03
311.94	7.03
312.395	7.03
312.85	7.04
313.305	7.03
313.759	7.05
314.214	7.05
314.668	7.05
315.123	7.06
315.577	7.06
316.032	7.06
316.486	7.05
316.94	7.05
317.394	7.05
317.849	7.04
318.303	7.03
318.757	7.02
319.211	7
319.665	6.99
320.119	6.98
320.572	6.98
321.026	6.97
321.48	6.96
321.934	6.96
322.387	6.95
322.841	6.94
323.295	6.92
323.748	6.91
324.202	6.91
324.655	6.91
325.108	6.88
325.562	6.87
326.015	6.85
326.468	6.84
326.921	6.82
327.374	6.81
327.827	6.81
328.28	6.81
328.733	6.8
329.186	6.79
329.639	6.78
330.092	6.78
330.545	6.79
330.997	6.8
331.45	6.79
331.903	6.78
332.355	6.79
332.808	6.8
333.26	6.79
333.713	6.81
334.165	6.8
334.617	6.82
335.069	6.82
335.522	6.81
335.974	6.81
336.426	6.82
336.878	6.82
337.33	6.82
337.782	6.81
338.234	6.82
338.686	6.81
339.137	6.81
339.589	6.79
340.041	6.79
340.493	6.78
340.944	6.77
341.396	6.75
341.847	6.75
342.299	6.73
342.75	6.71
343.201	6.68
343.653	6.66
344.104	6.64
344.555	6.63
345.006	6.61
345.457	6.59
345.908	6.58
346.359	6.56
346.81	6.55
347.261	6.54
347.712	6.53
348.163	6.52
348.613	6.5
349.064	6.48
349.515	6.46
349.965	6.45
350.416	6.45
350.866	6.44
351.317	6.44
351.767	6.43
352.217	6.41
352.668	6.41
353.118	6.41
353.568	6.41
354.018	6.43
354.468	6.43
354.918	6.43
355.368	6.43
355.818	6.43
356.268	6.42
356.718	6.43
357.168	6.42
357.617	6.43
358.067	6.42
358.517	6.41
358.966	6.41
359.416	6.43
359.865	6.42
360.315	6.41
360.764	6.41
361.213	6.41
361.663	6.4
362.112	6.41
362.561	6.4
363.01	6.42
363.459	6.41
363.908	6.4
364.357	6.4
364.806	6.4
365.255	6.4
365.703	6.4
366.152	6.4
366.601	6.4
367.05	6.41
367.498	6.4
367.947	6.4
368.395	6.41
368.844	6.41
369.292	6.39
369.74	6.39
370.189	6.38
370.637	6.39
371.085	6.38
371.533	6.38
371.981	6.38
372.429	6.37
372.877	6.37
373.325	6.36
373.773	6.36
374.221	6.36
374.669	6.36
375.116	6.36
375.564	6.35
376.012	6.37
376.459	6.37
376.907	6.38
377.354	6.38
377.801	6.39
378.249	6.39
378.696	6.39
379.143	6.41
379.591	6.43
380.038	6.44
380.485	6.46
380.932	6.48
381.379	6.48
381.826	6.51
382.273	6.52
382.72	6.53
383.166	6.56
383.613	6.57
384.06	6.58
384.506	6.59
384.953	6.6
385.4	6.61
385.846	6.62
386.292	6.63
386.739	6.63
387.185	6.65
387.631	6.67
388.078	6.67
388.524	6.68
388.97	6.7
389.416	6.7
389.862	6.71
390.308	6.72
390.754	6.73
391.2	6.75
391.645	6.77
392.091	6.78
392.537	6.8
392.983	6.82
393.428	6.85
393.874	6.87
394.319	6.89
394.765	6.89
395.21	6.9
395.655	6.93
396.101	6.95
396.546	6.97
396.991	6.98
397.436	6.98
397.881	7
398.326	7.03
398.771	7.04
399.216	7.06
399.661	7.1
400.106	7.13
400.551	7.12
400.995	7.11
401.44	7.11
401.885	7.11
402.329	7.13
402.774	7.13
403.218	7.12
403.663	7.12
404.107	7.14
404.551	7.15
404.995	7.14
405.44	7.14
405.884	7.15
406.328	7.15
406.772	7.15
407.216	7.16
407.66	7.17
408.104	7.17
408.547	7.18
408.991	7.17
409.435	7.17
409.879	7.18
410.322	7.2
410.766	7.21
411.209	7.22
411.653	7.23
412.096	7.23
412.54	7.24
412.983	7.26
413.426	7.26
413.869	7.28
414.312	7.3
414.756	7.3
415.199	7.31
415.642	7.34
416.085	7.35
416.527	7.37
416.97	7.38
417.413	7.36
417.856	7.34
418.298	7.32
418.741	7.31
419.184	7.29
419.626	7.29
420.069	7.29
420.511	7.27
420.953	7.25
421.396	7.25
421.838	7.26
422.28	7.29
422.722	7.31
423.164	7.32
423.606	7.33
424.048	7.32
424.49	7.32
424.932	7.32
425.374	7.32
425.816	7.31
426.258	7.29
426.699	7.28
427.141	7.24
427.582	7.24
428.024	7.23
428.465	7.22
428.907	7.23
429.348	7.22
429.789	7.2
430.231	7.19
430.672	7.19
431.113	7.2
431.554	7.21
431.995	7.22
432.436	7.21
432.877	7.2
433.318	7.19
433.759	7.21
434.2	7.22
434.64	7.23
435.081	7.24
435.522	7.25
435.962	7.26
436.403	7.27
436.843	7.29
437.284	7.28
437.724	7.3
438.164	7.33
438.604	7.32
439.045	7.31
439.485	7.33
439.925	7.32
440.365	7.32
440.805	7.31
441.245	7.27
441.685	7.25
442.125	7.27
442.564	7.25
443.004	7.24
443.444	7.23
443.883	7.21
444.323	7.17
444.762	7.17
445.202	7.18
445.641	7.18
446.081	7.2
446.52	7.19
446.959	7.19
447.398	7.21
447.837	7.21
448.276	7.22
448.716	7.24
449.154	7.25
449.593	7.25
450.032	7.24
450.471	7.24
450.91	7.22
451.349	7.21
451.787	7.18
452.226	7.14
452.664	7.11
453.103	7.08
453.541	7.05
453.98	7.03
454.418	7
454.856	6.97
455.295	6.93
455.733	6.91
456.171	6.89
456.609	6.89
457.047	6.86
457.485	6.85
457.923	6.83
458.361	6.82
458.798	6.81
459.236	6.79
459.674	6.78
460.111	6.79
460.549	6.78
460.987	6.79
461.424	6.79
461.862	6.81
462.299	6.81
462.736	6.81
463.173	6.8
463.611	6.8
464.048	6.82
464.485	6.83
464.922	6.81
465.359	6.82
465.796	6.82
466.233	6.82
466.67	6.82
467.106	6.83
467.543	6.84
467.98	6.85
468.416	6.86
468.853	6.84
469.29	6.85
469.726	6.86
470.162	6.86
470.599	6.84
471.035	6.83
471.471	6.8
471.907	6.8
472.344	6.78
472.78	6.77
473.216	6.75
473.652	6.74
474.088	6.73
474.523	6.71
474.959	6.68
475.395	6.68
475.831	6.68
476.266	6.68
476.702	6.66
477.138	6.64
477.573	6.61
478.008	6.59
478.444	6.58
478.879	6.57
479.314	6.55
479.75	6.56
480.185	6.53
480.62	6.51
481.055	6.49
481.49	6.46
481.925	6.43
482.36	6.41
482.795	6.39
483.229	6.38
483.664	6.36
484.099	6.34
484.534	6.32
484.968	6.3
485.403	6.29
485.837	6.27
486.271	6.26
486.706	6.26
487.14	6.27
487.574	6.27
488.009	6.27
488.443	6.26
488.877	6.26
489.311	6.26
489.745	6.26
490.179	6.27
490.613	6.28
491.046	6.28
491.48	6.29
491.914	6.28
492.348	6.29
492.781	6.28
493.215	6.28
493.648	6.29
494.082	6.3
494.515	6.3
494.948	6.31
495.382	6.3
495.815	6.31
496.248	6.32
496.681	6.33
497.114	6.32
497.547	6.34
497.98	6.37
498.413	6.38
498.846	6.39
499.279	6.41
499.711	6.41
500.144	6.44
500.577	6.45
501.009	6.47
501.442	6.49
501.874	6.52
502.306	6.55
502.739	6.56
503.171	6.6
503.603	6.64
504.036	6.67
504.468	6.73
504.9	6.76
505.332	6.82
505.764	6.88
506.196	6.94
506.627	6.99
507.059	7.05
507.491	7.13
507.923	7.19
508.354	7.26
508.786	7.32
509.217	7.38
509.649	7.48
510.08	7.56
510.512	7.63
510.943	7.72
511.374	7.81
511.805	7.91
512.237	8
512.668	8.1
513.099	8.21
513.53	8.33
513.961	8.47
514.391	8.57
514.822	8.7
515.253	8.83
515.684	8.96
516.114	9.11
516.545	9.26
516.975	9.41
517.406	9.56
517.836	9.71
518.267	9.87
518.697	10.02
519.127	10.2
519.558	10.34
519.988	10.51
520.418	10.65
520.848	10.82
521.278	10.98
521.708	11.01
522.138	11.16
522.567	11.32
522.997	11.47
523.427	11.62
523.857	11.76
524.286	11.92
524.716	12.06
525.145	12.24
525.575	12.38
526.004	12.5
526.433	12.77
526.863	12.9
527.292	13.04
527.721	13.17
528.15	13.29
528.579	13.42
529.008	13.53
529.437	13.64
529.866	13.73
530.295	13.83
530.724	13.96
531.152	14.06
531.581	14.15
532.01	14.23
532.438	14.32
532.867	14.4
533.295	14.45
533.723	14.54
534.152	14.6
534.58	14.66
535.008	14.7
535.436	14.73
535.865	14.78
536.293	14.82
536.721	14.86
537.149	14.89
537.576	14.92
538.004	14.98
538.432	15
538.86	15.04
539.287	15.08
539.715	15.12
540.143	15.17
540.57	15.2
540.998	15.23
541.425	15.26
541.852	15.29
542.28	15.31
542.707	15.34
543.134	15.35
543.561	15.36
543.988	15.38
544.415	15.4
544.842	15.39
545.269	15.42
545.696	15.44
546.123	15.44
546.549	15.46
546.976	15.48
547.403	15.47
547.829	15.5
548.256	15.51
548.682	15.53
549.108	15.54
549.535	15.57
549.961	15.55
550.387	15.55
550.813	15.55
551.24	15.54
551.666	15.55
552.092	15.56
552.518	15.56
552.943	15.55
553.369	15.52
553.795	15.48
554.221	15.45
554.646	15.43
555.072	15.41
555.498	15.38
555.923	15.36
556.349	15.3
556.774	15.23
557.199	15.19
557.625	15.13
558.05	15.07
558.475	15.02
558.9	14.96
559.325	14.88
559.75	14.81
560.175	14.72
560.6	14.64
561.025	14.56
561.449	14.48
561.874	14.38
562.299	14.28
562.723	14.18
563.148	14.08
563.572	13.98
563.997	13.89
564.421	13.77
564.846	13.67
565.27	13.54
565.694	13.42
566.118	13.3
566.542	13.18
566.966	13.09
567.39	12.96
567.814	12.85
568.238	12.73
568.662	12.6
569.086	12.5
569.509	12.38
569.933	12.28
570.357	12.16
570.78	12.06
571.204	11.96
571.627	11.84
572.05	11.77
572.474	11.68
572.897	11.59
573.32	11.5
573.743	11.4
574.166	11.3
574.589	11.21
575.012	11.13
575.435	11.05
575.858	10.98
576.281	10.91
576.704	10.83
577.126	10.75
577.549	10.7
577.972	10.64
578.394	10.58
578.817	10.52
579.239	10.47
579.661	10.43
580.084	10.38
580.506	10.32
580.928	10.28
581.35	10.23
581.772	10.19
582.194	10.13
582.616	10.09
583.038	10.05
583.46	10.02
583.882	9.99
584.303	9.94
584.725	9.9
585.147	9.84
585.568	9.8
585.99	9.77
586.411	9.74
586.833	9.71
587.254	9.69
587.675	9.66
588.096	9.63
588.518	9.6
588.939	9.56
589.36	9.53
589.781	9.51
590.202	9.49
590.623	9.45
591.043	9.42
591.464	9.4
591.885	9.37
592.305	9.36
592.726	9.33
593.147	9.31
593.567	9.3
593.987	9.28
594.408	9.26
594.828	9.24
595.248	9.22
595.669	9.2
596.089	9.17
596.509	9.14
596.929	9.11
597.349	9.09
597.769	9.06
598.189	9.04
598.608	9.02
599.028	8.99
599.448	8.97
599.867	8.93
600.287	8.9
600.706	8.87
601.126	8.85
601.545	8.81
601.965	8.78
602.384	8.76
602.803	8.73
603.222	8.69
603.641	8.66
604.061	8.62
604.48	8.6
604.898	8.58
605.317	8.55
605.736	8.51
606.155	8.48
606.574	8.44
606.992	8.4
607.411	8.37
607.829	8.29
608.248	8.26
608.666	8.22
609.085	8.18
609.503	8.14
609.921	8.1
610.339	8.07
610.758	8.04
611.176	8.02
611.594	7.99
612.012	7.94
612.43	7.96
612.847	7.92
613.265	7.9
613.683	7.85
614.101	7.82
614.518	7.78
614.936	7.76
615.353	7.73
615.771	7.68
616.188	7.66
616.606	7.64
617.023	7.61
617.44	7.59
617.857	7.56
618.274	7.54
618.691	7.53
619.108	7.49
619.525	7.47
619.942	7.44
620.359	7.44
620.776	7.42
621.192	7.4
621.609	7.39
622.026	7.37
622.442	7.37
622.859	7.37
623.275	7.37
623.691	7.37
624.108	7.36
624.524	7.36
624.94	7.35
625.356	7.36
625.772	7.35
626.188	7.35
626.604	7.34
627.02	7.34
627.436	7.32
627.852	7.33
628.268	7.32
628.683	7.31
629.099	7.32
629.514	7.31
629.93	7.29
630.345	7.27
630.761	7.25
631.176	7.26
631.591	7.25
632.007	7.23
632.422	7.21
632.837	7.19
633.252	7.18
633.667	7.15
634.082	7.13
634.497	7.09
634.911	7.07
635.326	7.03
635.741	6.99
636.155	6.95
636.57	6.92
636.984	6.88
637.399	6.83
637.813	6.78
638.228	6.74
638.642	6.71
639.056	6.68
639.47	6.66
639.884	6.62
640.298	6.59
640.712	6.55
641.126	6.53
641.54	6.51
641.954	6.5
642.368	6.47
642.781	6.45
643.195	6.42
643.609	6.4
644.022	6.38
644.436	6.35
644.849	6.34
645.262	6.33
645.676	6.29
646.089	6.26
646.502	6.22
646.915	6.2
647.328	6.19
647.741	6.16
648.154	6.16
648.567	6.15
648.98	6.16
649.393	6.15
649.805	6.14
650.218	6.14
650.631	6.13
651.043	6.12
651.456	6.11
651.868	6.11
652.28	6.1
652.693	6.07
653.105	6.06
653.517	6.04
653.929	6.03
654.341	6.03
654.753	6.01
655.165	6.01
655.577	6
655.989	6
656.401	5.98
656.813	5.98
657.224	5.98
657.636	5.97
658.047	5.95
658.459	5.91
658.87	5.89
659.282	5.89
659.693	5.88
660.104	5.87
660.515	5.86
660.926	5.87
661.338	5.86
661.749	5.84
662.159	5.84
662.57	5.84
662.981	5.84
663.392	5.83
663.803	5.82
664.213	5.81
664.624	5.81
665.035	5.8
665.445	5.79
665.855	5.81
666.266	5.82
666.676	5.81
667.086	5.82
667.497	5.82
667.907	5.83
668.317	5.83
668.727	5.82
669.137	5.82
669.547	5.84
669.956	5.83
670.366	5.83
670.776	5.84
671.186	5.85
671.595	5.85
672.005	5.86
672.414	5.88
672.824	5.91
673.233	5.93
673.642	5.94
674.052	5.95
674.461	5.96
674.87	5.98
675.279	5.99
675.688	6.01
676.097	6.04
676.506	6.05
676.915	6.08
677.323	6.1
677.732	6.11
678.141	6.15
678.549	6.17
678.958	6.21
679.366	6.22
679.775	6.24
680.183	6.26
680.592	6.29
681	6.31
681.408	6.32
681.816	6.32
682.224	6.36
682.632	6.38
683.04	6.4
683.448	6.41
683.856	6.44
684.264	6.47
684.671	6.52
685.079	6.55
685.487	6.59
685.894	6.64
686.302	6.71
686.709	6.77
687.116	6.84
687.524	6.91
687.931	7.01
688.338	7.11
688.745	7.23
689.152	7.33
689.559	7.46
689.966	7.61
690.373	7.78
690.78	7.95
691.187	8.14
691.593	8.35
692	8.59
692.407	8.85
692.813	9.11
693.22	9.39
693.626	9.7
694.032	10.01
694.439	10.35
694.845	10.7
695.251	11.06
695.657	11.43
696.063	11.81
696.469	12.19
696.875	12.58
697.281	12.96
697.687	13.39
698.093	13.8
698.498	14.26
698.904	14.69
699.31	15.14
699.715	15.6
700.12	16.06
700.526	16.54
700.931	17.01
701.337	17.5
701.742	17.98
702.147	18.46
702.552	18.96
702.957	19.41
703.362	19.91
703.767	20.38
704.172	20.84
704.577	21.32
704.981	21.8
705.386	22.27
705.791	22.73
706.195	23.22
706.6	23.67
707.004	24.13
707.408	24.62
707.813	25.07
708.217	25.5
708.621	25.99
709.025	26.46
709.43	26.9
709.834	27.37
710.237	27.83
710.641	28.29
711.045	28.73
711.449	29.19
711.853	29.63
712.256	30.07
712.66	30.54
713.064	30.98
713.467	31.41
713.87	31.84
714.274	32.28
714.677	32.71
715.08	33.12
715.484	33.56
715.887	33.97
716.29	34.39
716.693	34.8
717.096	35.22
717.499	35.63
717.901	36.03
718.304	36.43
718.707	36.84
719.109	37.24
719.512	37.65
719.915	38.01
720.317	38.41
720.719	38.77
721.122	39.16
721.524	39.51
721.926	39.86
722.328	40.2
722.731	40.54
723.133	40.87
723.535	41.19
723.937	41.49
724.338	41.81
724.74	42.09
725.142	42.37
725.544	42.63
725.945	42.92
726.347	43.2
726.748	43.4
727.15	43.66
727.551	43.93
727.952	44.16
728.354	44.39
728.755	44.61
729.156	44.85
729.557	45.09
729.958	45.33
730.359	45.53
730.76	45.71
731.161	45.97
731.562	46.17
731.962	46.34
732.363	46.52
732.763	46.72
733.164	46.89
733.564	47.02
733.965	47.17
734.365	47.3
734.766	47.43
735.166	47.54
735.566	47.64
735.966	47.74
736.366	47.85
736.766	47.99
737.166	48.1
737.566	48.19
737.966	48.32
738.365	48.43
738.765	48.53
739.165	48.63
739.564	48.74
739.964	48.85
740.363	48.96
740.763	49.05
741.162	49.08
741.561	49.16
741.96	49.23
742.36	49.32
742.759	49.38
743.158	49.43
743.557	49.52
743.955	49.59
744.354	49.67
744.753	49.75
745.152	49.81
745.55	49.91
745.949	50
746.348	50.05
746.746	50.08
747.144	50.16
747.543	50.23
747.941	50.3
748.339	50.37
748.737	50.43
749.136	50.43
749.534	50.48
749.932	50.5
750.33	50.51
750.727	50.56
751.125	50.61
751.523	50.64
751.921	50.67
752.318	50.67
752.716	50.7
753.113	50.7
753.511	50.72
753.908	50.74
754.305	50.74
754.703	50.76
755.1	50.78
755.497	50.78
755.894	50.75
756.291	50.7
756.688	50.68
757.085	50.62
757.482	50.6
757.878	50.6
758.275	50.56
758.672	50.58
759.068	50.58
759.465	50.55
759.861	50.54
760.258	50.53
760.654	50.57
761.05	50.59
761.447	50.61
761.843	50.59
762.239	50.59
762.635	50.6
763.031	50.6
763.427	50.59
763.822	50.58
764.218	50.58
764.614	50.6
765.01	50.6
765.405	50.62
765.801	50.65
766.196	50.7
766.592	50.71
766.987	50.77
767.382	50.79
767.778	50.82
768.173	50.87
768.568	50.89
768.963	50.88
769.358	50.91
769.753	50.92
770.148	50.92
770.542	50.93
770.937	50.97
771.332	50.98
771.726	50.95
772.121	50.94
772.515	50.93
772.91	50.93
773.304	50.97
773.699	50.98
774.093	50.97
774.487	50.98
774.881	50.98
775.275	50.99
775.669	51
776.063	51.02
776.457	51.04
776.851	51.03
777.245	51.03
777.638	51.03
778.032	51.02
778.425	51.01
778.819	51.02
779.212	51.02
779.606	50.99
779.999	50.95
780.392	50.94
780.786	50.93
781.179	50.96
781.572	50.96
781.965	50.95
782.358	50.95
782.751	50.97
783.143	50.97
783.536	51
783.929	51.04
784.322	51.06
784.714	51.1
785.107	51.1
785.499	51.11
785.891	51.14
786.284	51.13
786.676	51.14
787.068	51.15
787.46	51.16
787.852	51.16
788.245	51.16
788.636	51.18
789.028	51.16
789.42	51.17
789.812	51.17
790.204	51.13
790.595	51.15
790.987	51.14
791.378	51.14
791.77	51.16
792.161	51.14
792.553	51.09
792.944	51.09
793.335	51.07
793.726	51.04
794.117	50.99
794.508	51.01
794.899	50.99
795.29	51
795.681	51
796.072	50.97
796.463	50.95
796.853	50.94
797.244	50.93
797.634	50.92
798.025	50.91
798.415	50.92
798.806	50.93
799.196	50.95
799.586	50.92
799.976	50.9
800.366	50.89
800.756	50.91
801.146	50.93
801.536	50.93
801.926	50.96
802.316	50.99
802.706	51.04
803.095	51.04
803.485	51.05
803.874	51.06
804.264	51.08
804.653	51.05
805.043	51.06
805.432	51.03
805.821	51.01
806.21	51.01
806.599	51.01
806.988	50.96
807.377	50.95
807.766	50.92
808.155	50.93
808.544	50.9
808.933	50.9
809.321	50.9
809.71	50.93
810.098	50.92
810.487	50.91
810.875	50.89
811.264	50.91
811.652	50.91
812.04	50.92
812.428	50.94
812.816	50.95
813.204	50.96
813.592	50.93
813.98	50.93
814.368	50.93
814.756	50.9
815.144	50.93
815.531	50.89
815.919	50.87
816.306	50.87
816.694	50.86
817.081	50.82
817.469	50.85
817.856	50.88
818.243	50.86
818.63	50.88
819.017	50.89
819.404	50.84
819.791	50.86
820.178	50.86
820.565	50.84
820.952	50.84
821.339	50.88
821.725	50.85
822.112	50.83
822.498	50.84
822.885	50.85
823.271	50.84
823.657	50.88
824.044	50.9
824.43	50.9
824.816	50.91
825.202	50.91
825.588	50.95
825.974	50.95
826.36	50.94
826.746	50.95
827.132	50.9
827.517	50.93
827.903	50.92
828.289	50.93
828.674	50.92
829.06	50.93
829.445	50.95
829.83	50.94
830.216	50.95
830.601	50.95
830.986	50.96
831.371	51
831.756	50.97
832.141	50.96
832.526	50.95
832.911	50.98
833.295	50.98
833.68	50.96
834.065	50.98
834.449	50.96
834.834	50.96
835.218	50.92
835.603	50.91
835.987	50.91
836.371	50.92
836.755	50.92
837.139	50.91
837.524	50.91
837.908	50.89
838.291	50.86
838.675	50.85
839.059	50.82
839.443	50.85
839.827	50.86
840.21	50.87
840.594	50.82
840.977	50.79
841.361	50.78
841.744	50.8
842.127	50.81
842.511	50.8
842.894	50.82
843.277	50.86
843.66	50.85
844.043	50.84
844.426	50.83
844.809	50.86
845.191	50.89
845.574	50.91
845.957	50.85
846.339	50.84
846.722	50.83
847.104	50.79
847.487	50.81
847.869	50.82
848.252	50.81
848.634	50.84
849.016	50.86
849.398	50.87
849.78	50.85
850.162	50.86
850.544	50.89
850.926	50.87
851.307	50.87
851.689	50.83
852.071	50.82
852.452	50.82
852.834	50.79
853.215	50.8
853.597	50.77
853.978	50.76
854.359	50.76
854.741	50.76
855.122	50.78
855.503	50.79
855.884	50.81
856.265	50.79
856.646	50.77
857.026	50.76
857.407	50.68
857.788	50.68
858.169	50.69
858.549	50.7
858.93	50.66
859.31	50.66
859.69	50.63
860.071	50.62
860.451	50.63
860.831	50.63
861.211	50.62
861.591	50.64
861.971	50.64
862.351	50.63
862.731	50.61
863.111	50.62
863.491	50.62
863.87	50.64
864.25	50.64
864.629	50.62
865.009	50.62
865.388	50.63
865.768	50.63
866.147	50.65
866.526	50.65
866.905	50.65
867.284	50.65
867.663	50.65
868.042	50.65
868.421	50.65
868.8	50.66
869.179	50.68
869.558	50.69
869.936	50.71
870.315	50.7
870.693	50.71
871.072	50.71
871.45	50.71
871.828	50.7
872.207	50.74
872.585	50.73
872.963	50.72
873.341	50.73
873.719	50.74
874.097	50.72
874.475	50.72
874.853	50.71
875.23	50.71
875.608	50.7
875.986	50.69
876.363	50.66
876.741	50.67
877.118	50.67
877.495	50.64
877.873	50.59
878.25	50.6
878.627	50.6
879.004	50.62
879.381	50.61
879.758	50.6
880.135	50.62
880.512	50.61
880.889	50.6
881.265	50.62
881.642	50.62
882.019	50.66
882.395	50.65
882.772	50.63
883.148	50.61
883.524	50.62
883.901	50.63
884.277	50.61
884.653	50.63
885.029	50.64
885.405	50.63
885.781	50.63
886.157	50.61
886.532	50.6
886.908	50.61
887.284	50.61
887.659	50.63
888.035	50.63
888.411	50.61
888.786	50.6
889.161	50.57
889.537	50.55
889.912	50.52
890.287	50.51
890.662	50.51
891.037	50.47
891.412	50.46
891.787	50.42
892.162	50.38
892.536	50.38
892.911	50.36
893.286	50.36
893.66	50.35
894.035	50.37
894.409	50.37
894.784	50.39
895.158	50.41
895.532	50.37
895.906	50.37
896.281	50.39
896.655	50.38
897.029	50.39
897.402	50.41
897.776	50.44
898.15	50.44
898.524	50.42
898.898	50.38
899.271	50.38
899.645	50.38
900.018	50.37
900.392	50.35
900.765	50.38
901.138	50.37
901.511	50.34
901.884	50.3
902.258	50.27
902.631	50.3
903.003	50.34
903.376	50.31
903.749	50.35
904.122	50.37
904.495	50.4
904.867	50.37
905.24	50.37
905.612	50.34
905.985	50.32
906.357	50.3
906.729	50.27
907.102	50.28
907.474	50.29
907.846	50.24
908.218	50.2
908.59	50.18
908.962	50.16
909.334	50.13
909.705	50.12
910.077	50.11
910.449	50.13
910.82	50.14
911.192	50.09
911.563	50.07
911.935	50.04
912.306	50.07
912.677	50.06
913.048	50.07
913.419	50.08
913.79	50.09
914.161	50.12
914.532	50.15
914.903	50.15
915.274	50.13
915.645	50.15
916.015	50.15
916.386	50.12
916.756	50.08
917.127	50.07
917.497	50.06
917.868	50.07
918.238	50.07
918.608	50.06
918.978	50.01
919.348	50.02
919.718	50.01
920.088	50.06
920.458	50.11
920.828	50.19
921.198	50.22
921.567	50.21
921.937	50.22
922.306	50.21
922.676	50.2
923.045	50.19
923.415	50.2
923.784	50.2
924.153	50.19
924.522	50.17
924.891	50.13
925.26	50.1
925.629	50.12
925.998	50.09
926.367	50.09
926.736	50.09
927.104	50.13
927.473	50.12
927.842	50.11
928.21	50.13
928.578	50.11
928.947	50.12
929.315	50.14
929.683	50.15
930.051	50.15
930.42	50.13
930.788	50.11
931.156	50.12
931.523	50.12
931.891	50.09
932.259	50.06
932.627	49.98
932.994	49.95
933.362	49.9
933.729	49.85
934.097	49.79
934.464	49.81
934.831	49.78
935.199	49.73
935.566	49.72
935.933	49.73
936.3	49.69
936.667	49.72
937.034	49.66
937.401	49.64
937.767	49.68
938.134	49.79
938.501	49.76
938.867	49.86
939.234	49.9
939.6	49.94
939.967	50.02
940.333	50.11
940.699	50.22
941.065	50.34
941.431	50.46
941.798	50.47
942.163	50.55
942.529	50.66
942.895	50.64
943.261	50.67
943.627	50.68
943.992	50.69
944.358	50.72
944.723	50.76
945.089	50.77
945.454	50.86
945.82	50.84
946.185	50.78
946.55	50.79
946.915	50.77
947.28	50.74
947.645	50.78
948.01	50.81
948.375	50.75
948.74	50.65
949.104	50.68
949.469	50.53
949.834	50.53
950.198	50.39
950.562	50.28
950.927	50.2
951.291	50.12
951.655	50.04
952.02	49.99
952.384	50.04
952.748	50.05
953.112	49.93
953.476	49.91
953.839	49.89
954.203	49.85
954.567	49.87
954.931	49.86
955.294	49.9
955.658	49.87
956.021	49.8
956.385	49.75
956.748	49.7
957.111	49.74
957.474	49.79
957.837	49.8
958.2	49.79
958.563	49.75
958.926	49.68
959.289	49.66
959.652	49.71
960.015	49.68
960.377	49.67
960.74	49.65
961.102	49.6
961.465	49.6
961.827	49.55
962.189	49.56
962.552	49.51
962.914	49.52
963.276	49.51
963.638	49.42
964	49.41
964.362	49.41
964.724	49.39
965.085	49.42
965.447	49.29
965.809	49.25
966.17	49.27
966.532	49.27
966.893	49.22
967.255	49.19
967.616	49.2
967.977	49.28
968.338	49.26
968.699	49.22
969.061	49.17
969.421	49.25
969.782	49.22
970.143	49.22
970.504	49.23
970.865	49.26
971.225	49.22
971.586	49.26
971.946	49.22
972.307	49.15
972.667	49.23
973.027	49.29
973.388	49.29
973.748	49.36
974.108	49.37
974.468	49.37
974.828	49.46
975.188	49.52
975.548	49.49
975.907	49.49
976.267	49.56
976.627	49.52
976.986	49.49
977.346	49.44
977.705	49.39
978.064	49.42
978.424	49.41
978.783	49.39
979.142	49.33
979.501	49.36
979.86	49.33
980.219	49.32
980.578	49.34
980.937	49.35
981.296	49.41
981.654	49.48
982.013	49.43
982.371	49.5
982.73	49.49
983.088	49.51
983.447	49.5
983.805	49.54
984.163	49.53
984.521	49.5
984.879	49.54
985.237	49.65
985.595	49.62
985.953	49.73
986.311	49.67
986.669	49.66
987.026	49.77
987.384	49.79
987.741	49.82
988.099	49.92
988.456	49.92
988.814	49.87
989.171	49.79
989.528	49.82
989.885	49.69
990.242	49.8
990.599	49.78
990.956	49.8
991.313	49.85
991.67	49.97
992.027	49.94
992.383	50.09
992.74	50.12
993.096	50.03
993.453	49.95
993.809	50.05
994.165	50.03
994.522	50.14
994.878	50.17
995.234	50.14
995.59	49.98
995.946	50.02
996.302	49.88
996.658	50
997.013	50.11
997.369	50.23
997.725	50.37
998.08	50.38
998.436	50.36
998.791	50.3
999.147	50.34
999.502	50.48
999.857	50.54
1000.212	50.6
1000.567	50.56
1000.922	50.65
1001.277	50.62
1001.632	50.6
1001.987	50.66
1002.342	50.72
1002.696	50.75
1003.051	50.7
1003.406	50.71
1003.76	50.75
1004.114	50.86
1004.469	50.89
1004.823	50.9
1005.177	51.1
1005.531	50.98
1005.885	51.14
1006.239	51.19
1006.593	51.31
1006.947	51.41
1007.301	51.34
1007.655	51.37
1008.008	51.27
1008.362	51.2
1008.715	51.14
1009.069	51.06
1009.422	51.06
1009.776	51.11
1010.129	50.98
1010.482	51.04
1010.835	51.08
1011.188	51.14
1011.541	51.15
1011.894	51.4
1012.247	51.43
1012.6	51.63
1012.952	51.81
1013.305	51.88
1013.657	51.84
1014.01	52.24
1014.362	52.45
1014.715	52.58
1015.067	52.77
1015.419	52.92
1015.771	53.18
1016.123	53.33
1016.475	53.5
1016.827	53.6
1017.179	53.66
1017.531	53.51
1017.883	53.5
1018.234	53.58
1018.586	53.52
1018.938	53.71
1019.289	53.9
1019.64	53.84
1019.992	54.17
1020.343	54.31
1020.694	54.33
1021.045	54.58
1021.396	54.66
1021.747	54.67
1022.098	54.88
1022.449	55.07
1022.8	55.01
1023.151	54.96
1023.501	55.07
1023.852	55.2
1024.202	55.14
1024.553	55.39
1024.903	55.63
1025.253	56.47
1025.604	56.43
1025.954	56.07
1026.304	56.7
1026.654	56.87
1027.004	57.06
1027.354	57.09
1027.703	57.21
1028.053	57.43
1028.403	57.68
1028.753	57.71
1029.102	57.23
1029.452	57.37
1029.801	57.31
1030.15	56.98
1030.499	57.01
897.758	621.25
901.051	629.22
904.343	637.87
907.636	625.26
910.928	614.69
914.22	626.83
917.511	613
920.803	586.84
924.094	566.74
927.384	570.69
930.675	552.88
933.965	548.49
937.255	553.27
940.544	527.59
943.834	503.94
947.123	497.56
950.411	469.32
953.7	462.22
956.988	448.73
960.276	422.76
963.563	416.78
966.851	394.08
970.138	386.84
973.424	357.63
976.711	354.01
979.997	342.47
983.283	333.19
986.568	321.96
989.853	313.41
993.138	302.12
996.423	300.38
999.708	289.7
1002.992	290.25
1006.275	284.02
1009.559	279.82
1012.842	272.06
1016.125	263.88
1019.408	259.2
1022.69	258.11
1025.972	255.65
1029.254	249.26
1032.536	244.24
1035.817	235.84
1039.098	233.56
1042.379	226.63
1045.659	224.85
1048.939	221.37
1052.219	217.74
1055.498	213.86
1058.778	209.15
1062.057	204.02
1065.335	202.49
1068.614	199.13
1071.892	197.01
1075.17	193.86
1078.447	191.28
1081.724	188.85
1085.001	185.59
1088.278	183.74
1091.554	183.8
1094.83	182.89
1098.106	180.08
1101.382	178.63
1104.657	178.58
1107.932	177.85
1111.206	175.83
1114.481	173.81
1117.755	172.47
1121.029	172.33
1124.302	169.65
1127.575	166.93
1130.848	166.05
1134.121	164.3
1137.393	164.33
1140.665	162.28
1143.937	160.82
1147.208	158.7
1150.48	157.62
1153.75	157.2
1157.021	155.66
1160.291	155.86
1163.561	155.3
1166.831	153.02
1170.101	153.49
1173.37	151.55
1176.639	150.27
1179.907	150.23
1183.176	150.28
1186.444	149.89
1189.711	148.58
1192.979	149.85
1196.246	149.64
1199.513	147.94
1202.78	149.48
1206.046	148.95
1209.312	150.09
1212.578	151.16
1215.843	153.02
1219.108	153.71
1222.373	156.52
1225.638	159.55
1228.902	162.52
1232.166	166.84
1235.43	171.13
1238.693	175.64
1241.956	179.5
1245.219	185.17
1248.482	185.77
1251.744	185.32
1255.006	185.62
1258.268	181
1261.529	179.15
1264.79	174.52
1268.051	172.49
1271.312	169.03
1274.572	165.1
1277.832	161.41
1281.092	158.55
1284.351	155.84
1287.61	155.73
1290.869	154.54
1294.128	153.95
1297.386	153.82
1300.644	152.41
1303.902	151.44
1307.159	152.11
1310.416	152.52
1313.673	154.71
1316.93	154.99
1320.186	157.88
1323.442	159.92
1326.697	163.19
1329.953	164.18
1333.208	169.32
1336.463	176.71
1339.717	180.26
1342.972	187.81
1346.226	193.76
1349.479	195.39
1352.733	205.23
1355.986	209.05
1359.238	213.29
1362.491	215.42
1365.743	226.49
1368.995	225.51
1372.247	226.81
1375.498	225
1378.749	233.72
1382	231.71
1385.251	231.72
1388.501	230.33
1391.751	233.57
1395	232.32
1398.25	234.03
1401.499	232.45
1404.748	234.05
1407.996	228
1411.244	229.37
1414.492	224.04
1417.74	219.88
1420.987	214.52
1424.234	210.72
1427.481	202.75
1430.728	197.68
1433.974	190.7
1437.22	184.48
1440.465	177.4
1443.711	172.11
1446.956	166.8
1450.201	160.6
1453.445	153.38
1456.689	148.58
1459.933	143.92
1463.177	138.11
1466.42	134.98
1469.663	131.25
1472.906	126.9
1476.148	123.84
1479.391	121.29
1482.633	119.24
1485.874	116.57
1489.115	115.7
1492.356	112.83
1495.597	111.54
1498.838	110.38
1502.078	109.51
1505.318	108.91
1508.557	108.5
1511.797	107.57
1515.036	106.46
1518.274	106.38
1521.513	104.81
1524.751	104.17
1527.989	105.73
1531.227	104.75
1534.464	104.91
1537.701	103.49
1540.938	103.2
1544.174	103.3
1547.41	102.59
1550.646	102.44
1553.882	102
1557.117	102.54
1560.352	102.03
1563.587	100.45
1566.821	100.43
1570.055	99.6
1573.289	99.82
1576.523	99.81
1579.756	98.58
1582.989	99.34
1586.222	98.99
1589.454	98.68
1592.686	99.11
1595.918	98.64
1599.15	98.67
1602.381	99.16
1605.612	99.29
1608.843	99
1612.073	99.63
1615.303	100.28
1618.533	99.53
1621.762	100.2
1624.992	100.24
1628.221	99.33
1631.449	99.87
1634.678	100.08
1637.906	99.92
1641.134	100.15
1644.361	100.28
1647.588	99.61
1650.815	99.37
1654.042	100.4
1657.269	99.41
1660.495	99.77
1663.72	99.66
1666.946	99.75
1670.171	100.31
1673.396	100.52
1676.621	101.11
1679.845	101.51
1683.069	101.27
1686.293	101.42
1689.517	101.04
1692.74	101.76
1695.963	101.58
1699.185	102.45
1702.408	102.42
1705.63	102.68
1708.852	103.24
1712.073	102.96
1715.294	102.77
1718.515	103.87
1721.736	103.79
1724.956	104.44
1728.176	104.37
1731.396	105.2
1734.616	105.31
1737.835	106
1741.054	105.13
1744.272	104.98
1747.491	105.26
1750.709	105.56
1753.927	105.71
1757.144	106.05
1760.361	105.78
1763.578	106.76
1766.795	107.09
1770.011	107.16
1773.227	107.99
1776.443	108.98
1779.658	109.45
1782.874	110.11
1786.089	110.33
1789.303	110.46
1792.518	112.06
1795.732	112.38
1798.945	113.1
1802.159	113.51
1805.372	115.07
1808.585	115.52
1811.797	116.41
1815.01	117.54
1818.222	118.24
1821.434	119.89
1824.645	120.68
1827.856	121.6
1831.067	122.97
1834.278	124
1837.488	125.11
1840.698	125.81
1843.908	126.18
1847.117	127.99
1850.326	128.44
1853.535	128.87
1856.744	130.11
1859.952	132.09
1863.16	132.11
1866.368	131.44
1869.575	132.7
1872.782	132.33
1875.989	131.99
1879.196	131.77
1882.402	130.05
1885.608	130.74
1888.814	130.67
1892.019	130.86
1895.224	128.38
1898.429	129.7
1901.634	131.08
1904.838	130.92
1908.042	131.46
1911.246	130.55
1914.449	131.38
1917.652	132.86
1920.855	133.32
1924.058	132.39
1927.26	132.42
1930.462	134.49
1933.664	133.55
1936.865	133.64
1940.066	132.3
1943.267	131.46
1946.467	134.09
1949.668	133.21
1952.868	133.62
1956.067	132.84
1959.267	134.02
1962.466	134.76
1965.665	134.4
1968.863	135.97
1972.061	136.78
1975.259	139.14
1978.457	139.78
1981.654	140.12
1984.852	141.73
1988.048	142.71
1991.245	145.48
1994.441	147.89
1997.637	150.76
2000.833	155.19
2004.028	155.09
2007.223	159.67
2010.418	163.5
2013.613	171.03
2016.807	175.63
2020.001	177.55
2023.194	184.65
2026.388	190.37
2029.581	199.95
2032.774	205.42
2035.966	210.17
2039.158	218.89
2042.35	221.21
2045.542	224.62
2048.733	233.76
2051.924	235.31
2055.115	242.66
2058.306	242.36
2061.496	247.55
2064.686	246.9
2067.875	245.24
2071.065	248.24
2074.254	248.01
2077.442	257.71
2080.631	260.02
2083.819	260.41
2087.007	265.58
2090.195	268.02
2093.382	269.85
2096.569	269.18
2099.756	275.05
2102.942	282.43
2106.128	287.52
2109.314	288.1
2112.5	286.55
2115.685	286.66
2118.87	287.23
2122.055	289.39
2125.239	295.06
2128.424	301.35
2131.608	299.34
2134.791	297.2
2137.974	297.73
2141.157	299.87
2144.34	304.59
2147.523	309.67
2150.705	315.86
2153.887	313.15
2157.068	317.06
2160.25	319.32
2163.431	316.89
2166.611	325.16
2169.792	331.45
2172.972	337.92
2176.152	337.93
2179.331	345.24
2182.511	344.65
2185.69	348.39
2188.868	364.09
2192.047	370.32
2195.225	376.79
2198.403	383.77
2201.58	377.82
2204.758	391.54
2207.935	392.95
2211.111	401.84
2214.288	402.4
2217.464	408.56
2220.64	411.3
2223.815	411.19
2226.991	407.49
2230.166	411.11
2233.34	421.71
2236.515	433.57
2239.689	427.9
2242.863	433.22
2246.036	427.72
2249.209	443.98
2252.382	440.19
2255.555	456.16
2258.727	458.58
2261.9	474.31
2265.071	478.91
2268.243	476.91
2271.414	491.76
2274.585	501.89
2277.756	504.37
2280.926	524.84
2284.096	519.17
2287.266	523.71
2290.436	513.38
2293.605	525.12
2296.774	541.37
2299.942	541.02
2303.111	557.57
2306.279	563.34
2309.447	563.22
2312.614	565.89
2315.781	580.54
2318.948	583.19
2322.115	597.01
2325.281	626.49
2328.447	624.6
2331.613	622.71
2334.779	634.72
2337.944	641.24
2341.109	661.36
2344.274	667.9
2347.438	688.58
2350.602	696.14
2353.766	743.99
2356.929	745.31
2360.092	755.1
2363.255	755.44
2366.418	771.52
2369.58	788.3
2372.742	787.92
2375.904	780.48
2379.066	805.9
2382.227	845.69
2385.388	846.3
2388.548	805.34
2391.709	793.96
2394.869	823.37
2398.029	829.41
2401.188	824.7
2404.347	851.99
2407.506	878.97
2410.665	841.46
2413.823	848.84
2416.981	850.06
2420.139	809.31
2423.296	870.41
2426.453	928.92
2429.61	890.92
2432.767	943.57
2435.923	983.99
2439.079	932.89
2442.235	955.39
2445.391	985
2448.546	970.7
2451.701	1032.65
2454.855	1097.27
2458.009	971.12
2461.163	992.86
2464.317	994.48
2467.471	974.17
2470.624	1005.15
2473.777	996.03
2476.929	968.78
2480.082	1029.01
2483.234	1079.59
2486.385	1091.38
2489.537	1121.07
2492.688	1238.39
2495.839	1212.97
2498.989	1246.92
2502.14	1251.99
2505.29	1192.03
2508.439	1337.43
2511.589	1368.07
2514.738	1322.69
2517.887	1314.33
2521.035	1221.69
2524.183	1212.67
2527.331	1199.92
2530.479	1171.68
2533.627	1201.2
