Data from N_1_dec_nc_4n_037_Splice17_05.txt Node
Date: Sat Feb 29 13:48:38 EST 2020
User: sa697716
Spectrometer: FLMS03696
Trigger mode: 0
Integration Time (sec): 3.180400E-1
Scans to average: 20
Electric dark correction enabled: true
Nonlinearity correction enabled: true
Boxcar width: 5
XAxis mode: Wavelengths
Number of Pixels in Spectrum: 2048
>>>>>Begin Spectral Data<<<<<
187.83	117.76
188.298	136.94
188.766	123.3
189.233	120.77
189.701	124.8
190.169	127.56
190.636	120.87
191.104	101.72
191.571	153.75
192.039	35.26
192.506	255.27
192.974	1043.95
193.441	-404.67
193.908	79.57
194.375	144.81
194.842	196.91
195.31	135.55
195.777	89.92
196.244	69.06
196.711	76.85
197.177	76.55
197.644	75.65
198.111	76.31
198.578	76.68
199.045	77.87
199.511	77.53
199.978	77.96
200.445	77.49
200.911	77.5
201.378	77.4
201.844	77.66
202.31	77.74
202.777	77.6
203.243	77.75
203.709	77.58
204.176	76.91
204.642	76.38
205.108	75.66
205.574	75.58
206.04	75.06
206.506	74.56
206.972	73.6
207.438	72.69
207.903	71.83
208.369	70.48
208.835	69.59
209.301	68.4
209.766	66.98
210.232	65.45
210.697	64.01
211.163	62.4
211.628	60.63
212.094	59.17
212.559	57.87
213.024	56.67
213.49	55.24
213.955	53.59
214.42	51.74
214.885	49.69
215.35	47.52
215.815	44.45
216.28	41.37
216.745	37.87
217.21	34.22
217.675	30.78
218.14	27.51
218.604	24.61
219.069	22.19
219.534	20.27
219.998	18.57
220.463	17.09
220.927	15.94
221.392	14.87
221.856	13.95
222.32	13.22
222.785	12.59
223.249	12.08
223.713	11.63
224.177	11.17
224.642	10.74
225.106	10.38
225.57	10.05
226.034	9.76
226.497	9.49
226.961	9.25
227.425	8.98
227.889	8.72
228.353	8.46
228.816	8.24
229.28	8.01
229.744	7.83
230.207	7.68
230.671	7.53
231.134	7.34
231.597	7.18
232.061	7.03
232.524	6.91
232.987	6.79
233.45	6.67
233.914	6.56
234.377	6.48
234.84	6.36
235.303	6.27
235.766	6.18
236.229	6.1
236.691	6.04
237.154	5.98
237.617	5.9
238.08	5.84
238.542	5.78
239.005	5.72
239.468	5.64
239.93	5.59
240.393	5.52
240.855	5.46
241.317	5.39
241.78	5.34
242.242	5.27
242.704	5.21
243.166	5.16
243.629	5.1
244.091	5.06
244.553	5.02
245.015	4.97
245.477	4.91
245.939	4.86
246.4	4.8
246.862	4.75
247.324	4.71
247.786	4.67
248.247	4.63
248.709	4.58
249.17	4.54
249.632	4.48
250.093	4.43
250.555	4.39
251.016	4.37
251.477	4.33
251.939	4.28
252.4	4.25
252.861	4.21
253.322	4.17
253.783	4.14
254.244	4.1
254.705	4.08
255.166	4.06
255.627	4.02
256.088	3.97
256.549	3.94
257.009	3.91
257.47	3.87
257.931	3.83
258.391	3.79
258.852	3.75
259.312	3.71
259.773	3.67
260.233	3.62
260.694	3.58
261.154	3.55
261.614	3.51
262.074	3.48
262.534	3.44
262.994	3.41
263.455	3.38
263.915	3.35
264.374	3.32
264.834	3.29
265.294	3.27
265.754	3.24
266.214	3.22
266.673	3.19
267.133	3.17
267.593	3.15
268.052	3.13
268.512	3.11
268.971	3.09
269.431	3.07
269.89	3.06
270.349	3.05
270.809	3.04
271.268	3.03
271.727	3.02
272.186	3
272.645	2.99
273.104	2.98
273.563	2.97
274.022	2.96
274.481	2.94
274.94	2.93
275.399	2.93
275.857	2.91
276.316	2.9
276.775	2.89
277.233	2.88
277.692	2.88
278.15	2.87
278.609	2.86
279.067	2.86
279.525	2.86
279.984	2.86
280.442	2.85
280.9	2.85
281.358	2.86
281.816	2.86
282.274	2.85
282.732	2.85
283.19	2.86
283.648	2.86
284.106	2.86
284.564	2.86
285.021	2.86
285.479	2.86
285.937	2.86
286.394	2.85
286.852	2.85
287.309	2.85
287.767	2.84
288.224	2.83
288.682	2.81
289.139	2.8
289.596	2.78
290.053	2.76
290.511	2.73
290.968	2.72
291.425	2.7
291.882	2.68
292.339	2.66
292.796	2.64
293.252	2.63
293.709	2.62
294.166	2.61
294.623	2.6
295.079	2.6
295.536	2.59
295.992	2.58
296.449	2.57
296.905	2.56
297.362	2.55
297.818	2.54
298.274	2.53
298.731	2.52
299.187	2.51
299.643	2.51
300.099	2.51
300.555	2.5
301.011	2.49
301.467	2.49
301.923	2.49
302.379	2.49
302.835	2.49
303.291	2.49
303.746	2.49
304.202	2.49
304.658	2.49
305.113	2.48
305.569	2.48
306.024	2.48
306.479	2.49
306.935	2.49
307.39	2.49
307.845	2.49
308.301	2.48
308.756	2.49
309.211	2.49
309.666	2.49
310.121	2.5
310.576	2.5
311.031	2.5
311.486	2.5
311.94	2.5
312.395	2.51
312.85	2.52
313.305	2.53
313.759	2.54
314.214	2.54
314.668	2.54
315.123	2.54
315.577	2.54
316.032	2.54
316.486	2.53
316.94	2.52
317.394	2.51
317.849	2.5
318.303	2.48
318.757	2.47
319.211	2.46
319.665	2.44
320.119	2.43
320.572	2.43
321.026	2.41
321.48	2.41
321.934	2.4
322.387	2.39
322.841	2.39
323.295	2.38
323.748	2.38
324.202	2.38
324.655	2.38
325.108	2.38
325.562	2.37
326.015	2.37
326.468	2.36
326.921	2.37
327.374	2.37
327.827	2.37
328.28	2.37
328.733	2.37
329.186	2.38
329.639	2.38
330.092	2.37
330.545	2.38
330.997	2.38
331.45	2.39
331.903	2.38
332.355	2.39
332.808	2.39
333.26	2.4
333.713	2.41
334.165	2.41
334.617	2.42
335.069	2.43
335.522	2.44
335.974	2.45
336.426	2.46
336.878	2.46
337.33	2.46
337.782	2.46
338.234	2.46
338.686	2.46
339.137	2.47
339.589	2.46
340.041	2.45
340.493	2.44
340.944	2.42
341.396	2.41
341.847	2.4
342.299	2.39
342.75	2.37
343.201	2.36
343.653	2.35
344.104	2.34
344.555	2.32
345.006	2.31
345.457	2.31
345.908	2.3
346.359	2.3
346.81	2.31
347.261	2.29
347.712	2.3
348.163	2.29
348.613	2.28
349.064	2.27
349.515	2.26
349.965	2.27
350.416	2.26
350.866	2.26
351.317	2.25
351.767	2.25
352.217	2.25
352.668	2.25
353.118	2.26
353.568	2.27
354.018	2.28
354.468	2.28
354.918	2.29
355.368	2.3
355.818	2.29
356.268	2.31
356.718	2.31
357.168	2.32
357.617	2.33
358.067	2.32
358.517	2.31
358.966	2.32
359.416	2.34
359.865	2.33
360.315	2.33
360.764	2.34
361.213	2.33
361.663	2.33
362.112	2.33
362.561	2.34
363.01	2.37
363.459	2.36
363.908	2.35
364.357	2.36
364.806	2.36
365.255	2.37
365.703	2.37
366.152	2.38
366.601	2.38
367.05	2.4
367.498	2.4
367.947	2.39
368.395	2.4
368.844	2.41
369.292	2.41
369.74	2.41
370.189	2.41
370.637	2.42
371.085	2.44
371.533	2.44
371.981	2.44
372.429	2.43
372.877	2.45
373.325	2.44
373.773	2.45
374.221	2.46
374.669	2.46
375.116	2.46
375.564	2.46
376.012	2.46
376.459	2.47
376.907	2.47
377.354	2.49
377.801	2.5
378.249	2.52
378.696	2.54
379.143	2.54
379.591	2.56
380.038	2.59
380.485	2.6
380.932	2.61
381.379	2.62
381.826	2.63
382.273	2.64
382.72	2.65
383.166	2.66
383.613	2.66
384.06	2.68
384.506	2.69
384.953	2.69
385.4	2.72
385.846	2.72
386.292	2.75
386.739	2.77
387.185	2.8
387.631	2.81
388.078	2.83
388.524	2.84
388.97	2.85
389.416	2.87
389.862	2.89
390.308	2.9
390.754	2.92
391.2	2.94
391.645	2.96
392.091	2.97
392.537	2.99
392.983	3
393.428	3.03
393.874	3.06
394.319	3.07
394.765	3.08
395.21	3.09
395.655	3.11
396.101	3.11
396.546	3.12
396.991	3.13
397.436	3.13
397.881	3.15
398.326	3.17
398.771	3.18
399.216	3.19
399.661	3.22
400.106	3.23
400.551	3.23
400.995	3.22
401.44	3.21
401.885	3.22
402.329	3.22
402.774	3.23
403.218	3.22
403.663	3.21
404.107	3.22
404.551	3.21
404.995	3.2
405.44	3.2
405.884	3.21
406.328	3.23
406.772	3.22
407.216	3.24
407.66	3.22
408.104	3.22
408.547	3.22
408.991	3.22
409.435	3.22
409.879	3.23
410.322	3.24
410.766	3.24
411.209	3.25
411.653	3.25
412.096	3.24
412.54	3.25
412.983	3.26
413.426	3.29
413.869	3.3
414.312	3.33
414.756	3.34
415.199	3.37
415.642	3.39
416.085	3.39
416.527	3.41
416.97	3.44
417.413	3.44
417.856	3.42
418.298	3.4
418.741	3.4
419.184	3.39
419.626	3.38
420.069	3.36
420.511	3.36
420.953	3.36
421.396	3.37
421.838	3.37
422.28	3.4
422.722	3.43
423.164	3.43
423.606	3.43
424.048	3.42
424.49	3.44
424.932	3.43
425.374	3.42
425.816	3.41
426.258	3.39
426.699	3.35
427.141	3.32
427.582	3.33
428.024	3.34
428.465	3.35
428.907	3.36
429.348	3.36
429.789	3.37
430.231	3.38
430.672	3.4
431.113	3.42
431.554	3.45
431.995	3.48
432.436	3.48
432.877	3.47
433.318	3.48
433.759	3.5
434.2	3.53
434.64	3.55
435.081	3.55
435.522	3.58
435.962	3.6
436.403	3.64
436.843	3.64
437.284	3.66
437.724	3.69
438.164	3.7
438.604	3.72
439.045	3.72
439.485	3.72
439.925	3.73
440.365	3.72
440.805	3.71
441.245	3.69
441.685	3.72
442.125	3.73
442.564	3.73
443.004	3.75
443.444	3.76
443.883	3.76
444.323	3.77
444.762	3.82
445.202	3.85
445.641	3.88
446.081	3.93
446.52	3.91
446.959	3.92
447.398	3.95
447.837	3.98
448.276	3.98
448.716	4.01
449.154	4.03
449.593	4.02
450.032	4.01
450.471	4.01
450.91	4
451.349	4
451.787	4.02
452.226	3.99
452.664	3.95
453.103	3.95
453.541	3.93
453.98	3.91
454.418	3.89
454.856	3.87
455.295	3.84
455.733	3.82
456.171	3.81
456.609	3.79
457.047	3.78
457.485	3.77
457.923	3.76
458.361	3.75
458.798	3.75
459.236	3.76
459.674	3.76
460.111	3.77
460.549	3.78
460.987	3.77
461.424	3.78
461.862	3.78
462.299	3.8
462.736	3.79
463.173	3.8
463.611	3.8
464.048	3.82
464.485	3.83
464.922	3.82
465.359	3.84
465.796	3.85
466.233	3.87
466.67	3.89
467.106	3.89
467.543	3.91
467.98	3.92
468.416	3.93
468.853	3.94
469.29	3.93
469.726	3.94
470.162	3.92
470.599	3.92
471.035	3.91
471.471	3.89
471.907	3.89
472.344	3.88
472.78	3.86
473.216	3.85
473.652	3.83
474.088	3.83
474.523	3.82
474.959	3.81
475.395	3.82
475.831	3.8
476.266	3.79
476.702	3.77
477.138	3.75
477.573	3.73
478.008	3.72
478.444	3.68
478.879	3.65
479.314	3.63
479.75	3.62
480.185	3.6
480.62	3.58
481.055	3.56
481.49	3.56
481.925	3.54
482.36	3.53
482.795	3.52
483.229	3.53
483.664	3.53
484.099	3.53
484.534	3.52
484.968	3.53
485.403	3.52
485.837	3.53
486.271	3.52
486.706	3.53
487.14	3.54
487.574	3.55
488.009	3.56
488.443	3.57
488.877	3.58
489.311	3.59
489.745	3.61
490.179	3.65
490.613	3.67
491.046	3.71
491.48	3.75
491.914	3.78
492.348	3.81
492.781	3.85
493.215	3.89
493.648	3.93
494.082	3.99
494.515	4.03
494.948	4.07
495.382	4.12
495.815	4.18
496.248	4.24
496.681	4.31
497.114	4.38
497.547	4.45
497.98	4.53
498.413	4.61
498.846	4.7
499.279	4.79
499.711	4.87
500.144	4.98
500.577	5.08
501.009	5.17
501.442	5.28
501.874	5.41
502.306	5.53
502.739	5.66
503.171	5.8
503.603	5.95
504.036	6.11
504.468	6.28
504.9	6.45
505.332	6.63
505.764	6.81
506.196	7.01
506.627	7.19
507.059	7.41
507.491	7.63
507.923	7.85
508.354	8.08
508.786	8.31
509.217	8.53
509.649	8.79
510.08	9.04
510.512	9.3
510.943	9.59
511.374	9.87
511.805	10.15
512.237	10.44
512.668	10.73
513.099	11.03
513.53	11.35
513.961	11.69
514.391	12
514.822	12.33
515.253	12.66
515.684	12.98
516.114	13.33
516.545	13.67
516.975	14.03
517.406	14.37
517.836	14.71
518.267	15.05
518.697	15.39
519.127	15.75
519.558	16.09
519.988	16.42
520.418	16.75
520.848	17.07
521.278	17.4
521.708	17.57
522.138	17.88
522.567	18.18
522.997	18.49
523.427	18.78
523.857	19.05
524.286	19.34
524.716	19.6
525.145	19.88
525.575	20.14
526.004	20.39
526.433	20.77
526.863	21.02
527.292	21.24
527.721	21.46
528.15	21.66
528.579	21.89
529.008	22.08
529.437	22.27
529.866	22.43
530.295	22.61
530.724	22.79
531.152	22.95
531.581	23.1
532.01	23.26
532.438	23.39
532.867	23.53
533.295	23.63
533.723	23.76
534.152	23.87
534.58	23.98
535.008	24.07
535.436	24.15
535.865	24.22
536.293	24.3
536.721	24.35
537.149	24.44
537.576	24.51
538.004	24.58
538.432	24.6
538.86	24.65
539.287	24.71
539.715	24.74
540.143	24.77
540.57	24.83
540.998	24.88
541.425	24.92
541.852	24.95
542.28	24.97
542.707	24.99
543.134	25.04
543.561	25.07
543.988	25.12
544.415	25.17
544.842	25.21
545.269	25.24
545.696	25.25
546.123	25.28
546.549	25.31
546.976	25.34
547.403	25.36
547.829	25.38
548.256	25.4
548.682	25.39
549.108	25.4
549.535	25.41
549.961	25.42
550.387	25.42
550.813	25.43
551.24	25.41
551.666	25.41
552.092	25.42
552.518	25.4
552.943	25.4
553.369	25.4
553.795	25.37
554.221	25.34
554.646	25.3
555.072	25.27
555.498	25.22
555.923	25.18
556.349	25.12
556.774	25.05
557.199	25
557.625	24.91
558.05	24.82
558.475	24.72
558.9	24.63
559.325	24.53
559.75	24.4
560.175	24.28
560.6	24.16
561.025	24.03
561.449	23.9
561.874	23.76
562.299	23.61
562.723	23.48
563.148	23.34
563.572	23.17
563.997	23.03
564.421	22.86
564.846	22.7
565.27	22.53
565.694	22.37
566.118	22.18
566.542	22
566.966	21.83
567.39	21.63
567.814	21.46
568.238	21.28
568.662	21.11
569.086	20.94
569.509	20.76
569.933	20.58
570.357	20.39
570.78	20.22
571.204	20.05
571.627	19.88
572.05	19.71
572.474	19.53
572.897	19.36
573.32	19.19
573.743	19.03
574.166	18.87
574.589	18.72
575.012	18.59
575.435	18.43
575.858	18.29
576.281	18.16
576.704	18.05
577.126	17.93
577.549	17.83
577.972	17.7
578.394	17.58
578.817	17.45
579.239	17.36
579.661	17.25
580.084	17.16
580.506	17.05
580.928	16.95
581.35	16.83
581.772	16.74
582.194	16.63
582.616	16.55
583.038	16.46
583.46	16.39
583.882	16.29
584.303	16.19
584.725	16.11
585.147	16.03
585.568	15.95
585.99	15.89
586.411	15.81
586.833	15.74
587.254	15.67
587.675	15.6
588.096	15.54
588.518	15.47
588.939	15.42
589.36	15.36
589.781	15.3
590.202	15.25
590.623	15.18
591.043	15.12
591.464	15.07
591.885	15.02
592.305	14.99
592.726	14.94
593.147	14.9
593.567	14.84
593.987	14.82
594.408	14.77
594.828	14.71
595.248	14.68
595.669	14.64
596.089	14.59
596.509	14.55
596.929	14.5
597.349	14.45
597.769	14.41
598.189	14.39
598.608	14.32
599.028	14.27
599.448	14.24
599.867	14.19
600.287	14.15
600.706	14.1
601.126	14.04
601.545	13.98
601.965	13.93
602.384	13.86
602.803	13.78
603.222	13.71
603.641	13.65
604.061	13.58
604.48	13.5
604.898	13.42
605.317	13.33
605.736	13.27
606.155	13.19
606.574	13.11
606.992	13.03
607.411	12.95
607.829	12.84
608.248	12.76
608.666	12.68
609.085	12.61
609.503	12.51
609.921	12.43
610.339	12.35
610.758	12.27
611.176	12.18
611.594	12.1
612.012	12
612.43	11.96
612.847	11.88
613.265	11.8
613.683	11.72
614.101	11.64
614.518	11.56
614.936	11.49
615.353	11.41
615.771	11.34
616.188	11.27
616.606	11.21
617.023	11.14
617.44	11.07
617.857	11.01
618.274	10.95
618.691	10.9
619.108	10.86
619.525	10.8
619.942	10.74
620.359	10.7
620.776	10.67
621.192	10.64
621.609	10.6
622.026	10.57
622.442	10.53
622.859	10.52
623.275	10.5
623.691	10.48
624.108	10.45
624.524	10.44
624.94	10.42
625.356	10.4
625.772	10.39
626.188	10.39
626.604	10.38
627.02	10.37
627.436	10.36
627.852	10.34
628.268	10.33
628.683	10.31
629.099	10.3
629.514	10.28
629.93	10.26
630.345	10.21
630.761	10.17
631.176	10.14
631.591	10.08
632.007	10.03
632.422	9.99
632.837	9.93
633.252	9.87
633.667	9.79
634.082	9.7
634.497	9.61
634.911	9.54
635.326	9.44
635.741	9.34
636.155	9.24
636.57	9.12
636.984	8.98
637.399	8.84
637.813	8.71
638.228	8.59
638.642	8.47
639.056	8.34
639.47	8.21
639.884	8.07
640.298	7.95
640.712	7.81
641.126	7.68
641.54	7.56
641.954	7.46
642.368	7.34
642.781	7.21
643.195	7.07
643.609	6.96
644.022	6.84
644.436	6.73
644.849	6.61
645.262	6.52
645.676	6.43
646.089	6.34
646.502	6.26
646.915	6.18
647.328	6.12
647.741	6.07
648.154	6.03
648.567	5.98
648.98	5.94
649.393	5.9
649.805	5.86
650.218	5.83
650.631	5.79
651.043	5.75
651.456	5.73
651.868	5.68
652.28	5.66
652.693	5.62
653.105	5.58
653.517	5.54
653.929	5.5
654.341	5.46
654.753	5.4
655.165	5.36
655.577	5.3
655.989	5.23
656.401	5.18
656.813	5.1
657.224	5.03
657.636	4.97
658.047	4.91
658.459	4.82
658.87	4.76
659.282	4.7
659.693	4.63
660.104	4.56
660.515	4.48
660.926	4.42
661.338	4.36
661.749	4.29
662.159	4.22
662.57	4.16
662.981	4.11
663.392	4.05
663.803	4
664.213	3.94
664.624	3.92
665.035	3.89
665.445	3.85
665.855	3.84
666.266	3.84
666.676	3.81
667.086	3.8
667.497	3.79
667.907	3.78
668.317	3.77
668.727	3.77
669.137	3.75
669.547	3.76
669.956	3.76
670.366	3.75
670.776	3.74
671.186	3.76
671.595	3.78
672.005	3.8
672.414	3.82
672.824	3.86
673.233	3.9
673.642	3.93
674.052	3.95
674.461	3.99
674.87	4.04
675.279	4.08
675.688	4.1
676.097	4.13
676.506	4.17
676.915	4.22
677.323	4.26
677.732	4.32
678.141	4.36
678.549	4.43
678.958	4.49
679.366	4.54
679.775	4.61
680.183	4.69
680.592	4.76
681	4.84
681.408	4.92
681.816	5.01
682.224	5.11
682.632	5.22
683.04	5.35
683.448	5.48
683.856	5.64
684.264	5.81
684.671	6
685.079	6.2
685.487	6.44
685.894	6.7
686.302	6.99
686.709	7.29
687.116	7.63
687.524	7.97
687.931	8.35
688.338	8.78
688.745	9.23
689.152	9.71
689.559	10.23
689.966	10.75
690.373	11.32
690.78	11.88
691.187	12.48
691.593	13.09
692	13.74
692.407	14.4
692.813	15.07
693.22	15.74
693.626	16.44
694.032	17.13
694.439	17.85
694.845	18.53
695.251	19.25
695.657	19.96
696.063	20.67
696.469	21.36
696.875	22.05
697.281	22.72
697.687	23.42
698.093	24.1
698.498	24.78
698.904	25.45
699.31	26.1
699.715	26.73
700.12	27.36
700.526	27.99
700.931	28.6
701.337	29.22
701.742	29.8
702.147	30.35
702.552	30.91
702.957	31.45
703.362	31.98
703.767	32.5
704.172	33
704.577	33.51
704.981	34.01
705.386	34.5
705.791	34.99
706.195	35.48
706.6	35.97
707.004	36.4
707.408	36.86
707.813	37.32
708.217	37.75
708.621	38.18
709.025	38.59
709.43	38.99
709.834	39.4
710.237	39.77
710.641	40.15
711.045	40.52
711.449	40.89
711.853	41.22
712.256	41.57
712.66	41.94
713.064	42.3
713.467	42.66
713.87	42.99
714.274	43.32
714.677	43.67
715.08	43.97
715.484	44.3
715.887	44.6
716.29	44.95
716.693	45.24
717.096	45.55
717.499	45.83
717.901	46.08
718.304	46.36
718.707	46.62
719.109	46.88
719.512	47.2
719.915	47.47
720.317	47.74
720.719	47.97
721.122	48.22
721.524	48.45
721.926	48.69
722.328	48.92
722.731	49.13
723.133	49.33
723.535	49.53
723.937	49.69
724.338	49.85
724.74	50.01
725.142	50.15
725.544	50.31
725.945	50.46
726.347	50.65
726.748	50.76
727.15	50.91
727.551	51.08
727.952	51.2
728.354	51.34
728.755	51.5
729.156	51.67
729.557	51.82
729.958	51.93
730.359	52.04
730.76	52.1
731.161	52.26
731.562	52.38
731.962	52.48
732.363	52.57
732.763	52.68
733.164	52.73
733.564	52.78
733.965	52.82
734.365	52.91
734.766	52.99
735.166	53.05
735.566	53.06
735.966	53.12
736.366	53.14
736.766	53.2
737.166	53.26
737.566	53.31
737.966	53.38
738.365	53.46
738.765	53.53
739.165	53.54
739.564	53.6
739.964	53.66
740.363	53.71
740.763	53.77
741.162	53.81
741.561	53.83
741.96	53.87
742.36	53.9
742.759	53.91
743.158	53.87
743.557	53.93
743.955	53.96
744.354	54.02
744.753	54.05
745.152	54.03
745.55	54.07
745.949	54.06
746.348	54.08
746.746	54.08
747.144	54.12
747.543	54.18
747.941	54.22
748.339	54.28
748.737	54.29
749.136	54.3
749.534	54.37
749.932	54.37
750.33	54.41
750.727	54.43
751.125	54.45
751.523	54.44
751.921	54.45
752.318	54.42
752.716	54.41
753.113	54.41
753.511	54.39
753.908	54.35
754.305	54.3
754.703	54.26
755.1	54.25
755.497	54.25
755.894	54.25
756.291	54.21
756.688	54.23
757.085	54.22
757.482	54.19
757.878	54.2
758.275	54.19
758.672	54.25
759.068	54.29
759.465	54.27
759.861	54.27
760.258	54.26
760.654	54.28
761.05	54.28
761.447	54.25
761.843	54.26
762.239	54.22
762.635	54.22
763.031	54.2
763.427	54.18
763.822	54.17
764.218	54.14
764.614	54.14
765.01	54.13
765.405	54.1
765.801	54.07
766.196	54.01
766.592	54.02
766.987	54.04
767.382	54.01
767.778	53.99
768.173	53.98
768.568	53.96
768.963	53.94
769.358	53.9
769.753	53.92
770.148	53.92
770.542	53.97
770.937	53.98
771.332	53.95
771.726	53.96
772.121	53.95
772.515	53.93
772.91	53.96
773.304	53.94
773.699	53.98
774.093	53.97
774.487	53.98
774.881	53.97
775.275	53.98
775.669	53.98
776.063	53.96
776.457	53.95
776.851	53.93
777.245	53.94
777.638	53.96
778.032	53.93
778.425	53.93
778.819	53.91
779.212	53.9
779.606	53.89
779.999	53.89
780.392	53.94
780.786	53.97
781.179	54.02
781.572	54.01
781.965	54.01
782.358	54
782.751	54
783.143	54.01
783.536	54.07
783.929	54.08
784.322	54.11
784.714	54.09
785.107	54.09
785.499	54.09
785.891	54.11
786.284	54.09
786.676	54.13
787.068	54.13
787.46	54.1
787.852	54.08
788.245	54.08
788.636	54.05
789.028	54.06
789.42	54.01
789.812	54.03
790.204	53.97
790.595	53.97
790.987	53.96
791.378	53.96
791.77	53.98
792.161	53.94
792.553	53.97
792.944	53.99
793.335	53.99
793.726	53.99
794.117	53.93
794.508	54
794.899	53.99
795.29	53.97
795.681	53.99
796.072	54
796.463	54.04
796.853	54.04
797.244	54
797.634	53.97
798.025	53.97
798.415	54.01
798.806	54
799.196	54.05
799.586	54.03
799.976	54.03
800.366	54.04
800.756	54.03
801.146	54.03
801.536	54.04
801.926	54.04
802.316	54.07
802.706	54.05
803.095	54.05
803.485	54.06
803.874	54.07
804.264	54.07
804.653	54.05
805.043	54.04
805.432	54
805.821	53.99
806.21	54.01
806.599	54.04
806.988	54.07
807.377	54.09
807.766	54.05
808.155	54.07
808.544	54.06
808.933	54.07
809.321	54.1
809.71	54.15
810.098	54.14
810.487	54.15
810.875	54.15
811.264	54.13
811.652	54.11
812.04	54.12
812.428	54.1
812.816	54.11
813.204	54.07
813.592	54.02
813.98	54.02
814.368	54.03
814.756	54.02
815.144	53.97
815.531	53.95
815.919	53.94
816.306	53.95
816.694	53.98
817.081	53.97
817.469	54.02
817.856	54.07
818.243	54.07
818.63	54.12
819.017	54.13
819.404	54.12
819.791	54.14
820.178	54.15
820.565	54.19
820.952	54.19
821.339	54.23
821.725	54.24
822.112	54.23
822.498	54.23
822.885	54.22
823.271	54.24
823.657	54.27
824.044	54.23
824.43	54.24
824.816	54.2
825.202	54.19
825.588	54.18
825.974	54.15
826.36	54.12
826.746	54.13
827.132	54.09
827.517	54.08
827.903	54.07
828.289	54.07
828.674	54.06
829.06	54.1
829.445	54.13
829.83	54.13
830.216	54.11
830.601	54.16
830.986	54.15
831.371	54.19
831.756	54.17
832.141	54.2
832.526	54.2
832.911	54.21
833.295	54.21
833.68	54.21
834.065	54.2
834.449	54.19
834.834	54.13
835.218	54.12
835.603	54.08
835.987	54.09
836.371	54.07
836.755	54.07
837.139	54.03
837.524	53.98
837.908	53.94
838.291	53.94
838.675	53.96
839.059	53.96
839.443	53.94
839.827	53.94
840.21	53.96
840.594	53.95
840.977	53.96
841.361	53.97
841.744	53.99
842.127	53.99
842.511	53.98
842.894	53.93
843.277	53.96
843.66	53.97
844.043	54
844.426	53.98
844.809	53.99
845.191	54
845.574	53.98
845.957	53.95
846.339	53.94
846.722	53.94
847.104	53.97
847.487	53.99
847.869	53.98
848.252	53.94
848.634	53.93
849.016	53.93
849.398	53.94
849.78	53.93
850.162	53.96
850.544	53.97
850.926	53.93
851.307	53.95
851.689	53.91
852.071	53.89
852.452	53.9
852.834	53.88
853.215	53.86
853.597	53.85
853.978	53.87
854.359	53.85
854.741	53.86
855.122	53.86
855.503	53.86
855.884	53.87
856.265	53.86
856.646	53.85
857.026	53.87
857.407	53.83
857.788	53.84
858.169	53.82
858.549	53.87
858.93	53.85
859.31	53.84
859.69	53.81
860.071	53.79
860.451	53.82
860.831	53.78
861.211	53.76
861.591	53.79
861.971	53.75
862.351	53.76
862.731	53.73
863.111	53.74
863.491	53.76
863.87	53.79
864.25	53.81
864.629	53.8
865.009	53.82
865.388	53.82
865.768	53.83
866.147	53.84
866.526	53.82
866.905	53.82
867.284	53.83
867.663	53.81
868.042	53.79
868.421	53.76
868.8	53.75
869.179	53.74
869.558	53.75
869.936	53.74
870.315	53.74
870.693	53.77
871.072	53.75
871.45	53.73
871.828	53.74
872.207	53.77
872.585	53.77
872.963	53.79
873.341	53.78
873.719	53.77
874.097	53.78
874.475	53.79
874.853	53.77
875.23	53.8
875.608	53.81
875.986	53.81
876.363	53.78
876.741	53.78
877.118	53.76
877.495	53.78
877.873	53.77
878.25	53.74
878.627	53.74
879.004	53.74
879.381	53.72
879.758	53.7
880.135	53.69
880.512	53.7
880.889	53.73
881.265	53.77
881.642	53.76
882.019	53.79
882.395	53.82
882.772	53.81
883.148	53.81
883.524	53.82
883.901	53.81
884.277	53.82
884.653	53.79
885.029	53.8
885.405	53.77
885.781	53.76
886.157	53.76
886.532	53.73
886.908	53.72
887.284	53.71
887.659	53.7
888.035	53.72
888.411	53.69
888.786	53.68
889.161	53.66
889.537	53.67
889.912	53.65
890.287	53.62
890.662	53.64
891.037	53.6
891.412	53.58
891.787	53.59
892.162	53.56
892.536	53.56
892.911	53.55
893.286	53.52
893.66	53.51
894.035	53.5
894.409	53.5
894.784	53.49
895.158	53.51
895.532	53.51
895.906	53.47
896.281	53.46
896.655	53.44
897.029	53.45
897.402	53.46
897.776	53.45
898.15	53.44
898.524	53.42
898.898	53.38
899.271	53.37
899.645	53.36
900.018	53.34
900.392	53.39
900.765	53.42
901.138	53.45
901.511	53.43
901.884	53.42
902.258	53.42
902.631	53.43
903.003	53.46
903.376	53.47
903.749	53.49
904.122	53.51
904.495	53.46
904.867	53.45
905.24	53.42
905.612	53.43
905.985	53.41
906.357	53.43
906.729	53.42
907.102	53.4
907.474	53.38
907.846	53.34
908.218	53.36
908.59	53.33
908.962	53.31
909.334	53.3
909.705	53.34
910.077	53.33
910.449	53.34
910.82	53.35
911.192	53.35
911.563	53.37
911.935	53.35
912.306	53.33
912.677	53.38
913.048	53.37
913.419	53.33
913.79	53.28
914.161	53.24
914.532	53.18
914.903	53.17
915.274	53.16
915.645	53.14
916.015	53.17
916.386	53.15
916.756	53.1
917.127	53.08
917.497	53.11
917.868	53.17
918.238	53.24
918.608	53.25
918.978	53.23
919.348	53.21
919.718	53.22
920.088	53.24
920.458	53.29
920.828	53.33
921.198	53.37
921.567	53.35
921.937	53.34
922.306	53.3
922.676	53.32
923.045	53.3
923.415	53.33
923.784	53.29
924.153	53.28
924.522	53.22
924.891	53.17
925.26	53.14
925.629	53.12
925.998	53.12
926.367	53.1
926.736	53.05
927.104	53.09
927.473	53.12
927.842	53.12
928.21	53.13
928.578	53.11
928.947	53.11
929.315	53.13
929.683	53.14
930.051	53.11
930.42	53.13
930.788	53.17
931.156	53.16
931.523	53.11
931.891	53.1
932.259	53.06
932.627	53.04
932.994	53.05
933.362	53.04
933.729	53.02
934.097	53.04
934.464	52.99
934.831	52.98
935.199	52.99
935.566	52.94
935.933	52.98
936.3	52.94
936.667	53
937.034	52.98
937.401	52.98
937.767	53.06
938.134	53.03
938.501	53.04
938.867	53.15
939.234	53.19
939.6	53.26
939.967	53.29
940.333	53.43
940.699	53.59
941.065	53.7
941.431	53.75
941.798	53.81
942.163	53.9
942.529	54.05
942.895	54.04
943.261	54.09
943.627	54.18
943.992	54.17
944.358	54.21
944.723	54.16
945.089	54.19
945.454	54.22
945.82	54.24
946.185	54.25
946.55	54.27
946.915	54.22
947.28	54.15
947.645	54.14
948.01	54.14
948.375	54.12
948.74	54.06
949.104	54.08
949.469	53.96
949.834	53.92
950.198	53.82
950.562	53.73
950.927	53.72
951.291	53.71
951.655	53.63
952.02	53.54
952.384	53.54
952.748	53.53
953.112	53.48
953.476	53.49
953.839	53.48
954.203	53.41
954.567	53.45
954.931	53.39
955.294	53.4
955.658	53.39
956.021	53.41
956.385	53.33
956.748	53.3
957.111	53.2
957.474	53.23
957.837	53.21
958.2	53.19
958.563	53.09
958.926	53.06
959.289	53.04
959.652	53.04
960.015	53.07
960.377	53.08
960.74	53.04
961.102	53.04
961.465	53
961.827	52.92
962.189	52.96
962.552	52.95
962.914	53
963.276	52.94
963.638	52.9
964	52.87
964.362	52.83
964.724	52.81
965.085	52.79
965.447	52.69
965.809	52.6
966.17	52.56
966.532	52.59
966.893	52.51
967.255	52.51
967.616	52.51
967.977	52.54
968.338	52.53
968.699	52.53
969.061	52.62
969.421	52.65
969.782	52.77
970.143	52.74
970.504	52.7
970.865	52.62
971.225	52.6
971.586	52.65
971.946	52.62
972.307	52.64
972.667	52.67
973.027	52.64
973.388	52.63
973.748	52.57
974.108	52.63
974.468	52.68
974.828	52.83
975.188	52.86
975.548	52.85
975.907	52.86
976.267	52.85
976.627	52.82
976.986	52.84
977.346	52.85
977.705	52.9
978.064	52.88
978.424	52.81
978.783	52.8
979.142	52.78
979.501	52.74
979.86	52.76
980.219	52.73
980.578	52.72
980.937	52.69
981.296	52.69
981.654	52.78
982.013	52.83
982.371	52.81
982.73	52.7
983.088	52.72
983.447	52.81
983.805	52.76
984.163	52.83
984.521	52.8
984.879	52.85
985.237	52.96
985.595	52.98
985.953	53.03
986.311	53.14
986.669	53.3
987.026	53.3
987.384	53.23
987.741	53.25
988.099	53.25
988.456	53.25
988.814	53.28
989.171	53.19
989.528	53.1
989.885	53.08
990.242	53.1
990.599	53.06
990.956	53.16
991.313	53.23
991.67	53.31
992.027	53.21
992.383	53.3
992.74	53.32
993.096	53.43
993.453	53.44
993.809	53.52
994.165	53.59
994.522	53.63
994.878	53.64
995.234	53.61
995.59	53.62
995.946	53.86
996.302	53.8
996.658	53.79
997.013	53.83
997.369	53.98
997.725	54.07
998.08	54.14
998.436	54.24
998.791	54.23
999.147	54.41
999.502	54.41
999.857	54.4
1000.212	54.47
1000.567	54.63
1000.922	54.58
1001.277	54.57
1001.632	54.54
1001.987	54.4
1002.342	54.41
1002.696	54.6
1003.051	54.48
1003.406	54.45
1003.76	54.5
1004.114	54.66
1004.469	54.58
1004.823	54.74
1005.177	54.8
1005.531	54.73
1005.885	54.9
1006.239	54.95
1006.593	54.82
1006.947	54.78
1007.301	55.15
1007.655	55.19
1008.008	55.16
1008.362	55.13
1008.715	55.05
1009.069	55
1009.422	55.02
1009.776	54.99
1010.129	54.98
1010.482	55.17
1010.835	55.24
1011.188	55.06
1011.541	54.99
1011.894	55.06
1012.247	55.19
1012.6	55.34
1012.952	55.58
1013.305	55.76
1013.657	56
1014.01	56.24
1014.362	56.27
1014.715	56.16
1015.067	56.47
1015.419	56.81
1015.771	57.13
1016.123	57.12
1016.475	57.35
1016.827	57.53
1017.179	57.63
1017.531	57.56
1017.883	57.72
1018.234	57.79
1018.586	58.32
1018.938	57.87
1019.289	57.8
1019.64	57.95
1019.992	58.33
1020.343	58.4
1020.694	58.2
1021.045	58.17
1021.396	58.24
1021.747	58.05
1022.098	58.27
1022.449	58.17
1022.8	58.69
1023.151	58.79
1023.501	58.62
1023.852	58.83
1024.202	58.97
1024.553	58.82
1024.903	58.78
1025.253	59.14
1025.604	59.37
1025.954	58.94
1026.304	59.66
1026.654	59.47
1027.004	59.62
1027.354	59.59
1027.703	59.32
1028.053	58.96
1028.403	59.32
1028.753	59.82
1029.102	59.76
1029.452	59.79
1029.801	60.22
1030.15	59.74
1030.499	59.92
897.758	541.78
901.051	556.47
904.343	558.59
907.636	550.45
910.928	541.52
914.22	550.36
917.511	535.18
920.803	515.29
924.094	493
927.384	498.74
930.675	481.66
933.965	479.63
937.255	475.93
940.544	457.7
943.834	437.02
947.123	430.64
950.411	409.3
953.7	403.41
956.988	390.58
960.276	369.91
963.563	368.15
966.851	349.44
970.138	342.96
973.424	319.54
976.711	316.18
979.997	305.73
983.283	298.02
986.568	288.49
989.853	280.12
993.138	269.43
996.423	269.61
999.708	259.58
1002.992	260.37
1006.275	253.31
1009.559	251.49
1012.842	242.15
1016.125	235.67
1019.408	232.47
1022.69	230.65
1025.972	228.99
1029.254	223.1
1032.536	218.73
1035.817	210.91
1039.098	209.01
1042.379	204.02
1045.659	201.42
1048.939	200.14
1052.219	197.15
1055.498	192.75
1058.778	188.96
1062.057	185.53
1065.335	185.85
1068.614	182.02
1071.892	180.16
1075.17	177.01
1078.447	174.9
1081.724	173.22
1085.001	169.7
1088.278	169.53
1091.554	168.55
1094.83	167.31
1098.106	165.28
1101.382	164.23
1104.657	164.18
1107.932	163.51
1111.206	161.69
1114.481	160.3
1117.755	158.51
1121.029	158.68
1124.302	155.74
1127.575	153.73
1130.848	153.46
1134.121	151.41
1137.393	150.87
1140.665	149.83
1143.937	148.43
1147.208	146.85
1150.48	145.91
1153.75	145.69
1157.021	144.34
1160.291	143.41
1163.561	143.93
1166.831	142.04
1170.101	141.67
1173.37	140.86
1176.639	139.31
1179.907	139.41
1183.176	139.41
1186.444	138.71
1189.711	138.07
1192.979	139.32
1196.246	139.57
1199.513	138.48
1202.78	139.34
1206.046	139.15
1209.312	139.57
1212.578	140.21
1215.843	141.96
1219.108	142.3
1222.373	144.87
1225.638	146.88
1228.902	149.07
1232.166	153.72
1235.43	156.23
1238.693	159.83
1241.956	164.34
1245.219	167.96
1248.482	170.73
1251.744	170.12
1255.006	170.53
1258.268	166.04
1261.529	164.91
1264.79	161.24
1268.051	157.72
1271.312	155.51
1274.572	152.44
1277.832	148.55
1281.092	145.94
1284.351	142.48
1287.61	142.48
1290.869	141.49
1294.128	141.27
1297.386	141.07
1300.644	139.97
1303.902	139.85
1307.159	139.39
1310.416	140.01
1313.673	141.93
1316.93	143.18
1320.186	146.05
1323.442	147.86
1326.697	150.7
1329.953	151.4
1333.208	157.21
1336.463	162.9
1339.717	165.21
1342.972	172.52
1346.226	177.82
1349.479	178.86
1352.733	187.26
1355.986	188.96
1359.238	192.48
1362.491	195.48
1365.743	203.23
1368.995	202.42
1372.247	202.41
1375.498	201.57
1378.749	208.65
1382	206.75
1385.251	206.52
1388.501	204.91
1391.751	208.26
1395	206
1398.25	206.63
1401.499	207.18
1404.748	206.41
1407.996	200.52
1411.244	200.99
1414.492	197.89
1417.74	192.3
1420.987	187.52
1424.234	184.34
1427.481	177.43
1430.728	173.28
1433.974	166.35
1437.22	160.73
1440.465	154.98
1443.711	151.65
1446.956	146.86
1450.201	141.16
1453.445	135.75
1456.689	132.4
1459.933	127.89
1463.177	122.69
1466.42	120.5
1469.663	117.39
1472.906	113.51
1476.148	111.1
1479.391	108.96
1482.633	107.64
1485.874	105.95
1489.115	105.14
1492.356	102.84
1495.597	101.95
1498.838	101.63
1502.078	100.84
1505.318	100.81
1508.557	100.33
1511.797	99.25
1515.036	99.24
1518.274	98.98
1521.513	97.69
1524.751	97.11
1527.989	98.09
1531.227	97.79
1534.464	97.37
1537.701	96.61
1540.938	96.45
1544.174	96.27
1547.41	96.21
1550.646	95.67
1553.882	95.8
1557.117	95.26
1560.352	95.68
1563.587	94.38
1566.821	94.4
1570.055	93.79
1573.289	93.77
1576.523	93.67
1579.756	93.29
1582.989	93.53
1586.222	93.6
1589.454	92.89
1592.686	93.11
1595.918	92.33
1599.15	92.79
1602.381	92.61
1605.612	93.07
1608.843	92.69
1612.073	93.57
1615.303	93.87
1618.533	93.7
1621.762	93.41
1624.992	93.53
1628.221	93.52
1631.449	93.97
1634.678	93.55
1637.906	93.95
1641.134	93.74
1644.361	94.07
1647.588	93.28
1650.815	93.25
1654.042	93.66
1657.269	93.56
1660.495	94.25
1663.72	94.21
1666.946	94.31
1670.171	94.97
1673.396	94.94
1676.621	96.12
1679.845	95.79
1683.069	95.91
1686.293	95.87
1689.517	95.61
1692.74	96.17
1695.963	95.76
1699.185	96.22
1702.408	96.54
1705.63	96.56
1708.852	97.33
1712.073	96.37
1715.294	96.69
1718.515	97.66
1721.736	97.68
1724.956	97.93
1728.176	97.79
1731.396	98.54
1734.616	98.78
1737.835	98.57
1741.054	98.57
1744.272	98.06
1747.491	98.54
1750.709	98.9
1753.927	98.57
1757.144	98.89
1760.361	99.18
1763.578	99.37
1766.795	99.97
1770.011	99.13
1773.227	100.12
1776.443	101.04
1779.658	101.3
1782.874	102.25
1786.089	102.38
1789.303	102.59
1792.518	103.16
1795.732	104.41
1798.945	105.52
1802.159	105.25
1805.372	107.88
1808.585	107.72
1811.797	108.16
1815.01	109.03
1818.222	109.39
1821.434	110.59
1824.645	111
1827.856	112.85
1831.067	112.89
1834.278	113.78
1837.488	114.84
1840.698	115.27
1843.908	115.97
1847.117	117.4
1850.326	118.25
1853.535	118.34
1856.744	119.45
1859.952	120.25
1863.16	119.83
1866.368	119.29
1869.575	120.19
1872.782	119.08
1875.989	118.6
1879.196	117.55
1882.402	115.56
1885.608	116.13
1888.814	115.3
1892.019	115.51
1895.224	113.84
1898.429	113.74
1901.634	114.76
1904.838	113.79
1908.042	114.39
1911.246	113.18
1914.449	114.18
1917.652	114.16
1920.855	114.29
1924.058	113.87
1927.26	112.76
1930.462	114.38
1933.664	114.37
1936.865	113.15
1940.066	113.1
1943.267	112.8
1946.467	114.16
1949.668	113.65
1952.868	114.63
1956.067	114.13
1959.267	115.32
1962.466	115.7
1965.665	116.01
1968.863	117.1
1972.061	118.6
1975.259	120.49
1978.457	121.27
1981.654	121.45
1984.852	123.05
1988.048	124.75
1991.245	126.64
1994.441	128.8
1997.637	131.3
2000.833	134.56
2004.028	135.21
2007.223	140.17
2010.418	142.83
2013.613	148.78
2016.807	153.87
2020.001	156.23
2023.194	161.13
2026.388	165.25
2029.581	173.33
2032.774	179.89
2035.966	184.69
2039.158	191.35
2042.35	191.36
2045.542	196.08
2048.733	204.75
2051.924	206.12
2055.115	209.04
2058.306	210.26
2061.496	215.74
2064.686	215.5
2067.875	213.92
2071.065	216.46
2074.254	216.46
2077.442	224.38
2080.631	225.15
2083.819	224.94
2087.007	229.22
2090.195	233.95
2093.382	234.92
2096.569	235.11
2099.756	239
2102.942	244.13
2106.128	248.13
2109.314	250.29
2112.5	250.41
2115.685	250.54
2118.87	250.84
2122.055	253.21
2125.239	257.96
2128.424	263.83
2131.608	261.06
2134.791	259.98
2137.974	262.1
2141.157	263.89
2144.34	266.43
2147.523	269.89
2150.705	275.19
2153.887	272.77
2157.068	275.76
2160.25	279.24
2163.431	275.96
2166.611	284.21
2169.792	290.22
2172.972	293.94
2176.152	295.48
2179.331	301.09
2182.511	302.48
2185.69	306.56
2188.868	318.84
2192.047	325.43
2195.225	329.11
2198.403	336.83
2201.58	330.32
2204.758	343.03
2207.935	345.15
2211.111	351.33
2214.288	354.62
2217.464	357.38
2220.64	358.8
2223.815	360.32
2226.991	353.73
2230.166	357.84
2233.34	368.56
2236.515	376.63
2239.689	371.81
2242.863	376.49
2246.036	372.27
2249.209	382.23
2252.382	382.05
2255.555	396.27
2258.727	399.37
2261.9	410.91
2265.071	414.76
2268.243	408.83
2271.414	423.15
2274.585	430.61
2277.756	435.43
2280.926	448.74
2284.096	443.19
2287.266	448.31
2290.436	439.65
2293.605	445.4
2296.774	465.02
2299.942	467.73
2303.111	483.06
2306.279	489.39
2309.447	489.05
2312.614	486.66
2315.781	501.87
2318.948	513.77
2322.115	521.58
2325.281	547.09
2328.447	547.25
2331.613	545.75
2334.779	552.61
2337.944	560.25
2341.109	576.8
2344.274	584.2
2347.438	600.6
2350.602	613.47
2353.766	650.88
2356.929	652.68
2360.092	661.1
2363.255	665.05
2366.418	678.18
2369.58	692.53
2372.742	688.02
2375.904	681.28
2379.066	702.49
2382.227	739.76
2385.388	737.19
2388.548	698.53
2391.709	693.49
2394.869	717.73
2398.029	722.34
2401.188	718.53
2404.347	742.25
2407.506	769.75
2410.665	740.79
2413.823	740.44
2416.981	743.89
2420.139	702.95
2423.296	756.4
2426.453	801.4
2429.61	764.93
2432.767	811.36
2435.923	842.02
2439.079	807.4
2442.235	831.98
2445.391	850.93
2448.546	846.31
2451.701	888.08
2454.855	949.35
2458.009	843.13
2461.163	864.65
2464.317	870.69
2467.471	851.65
2470.624	880.51
2473.777	865.66
2476.929	833.21
2480.082	894.46
2483.234	935.53
2486.385	943.01
2489.537	967.55
2492.688	1065.94
2495.839	1046.36
2498.989	1076.66
2502.14	1080.55
2505.29	1033.79
2508.439	1151.63
2511.589	1182.01
2514.738	1143.93
2517.887	1137.74
2521.035	1069.04
2524.183	1054.66
2527.331	1045.78
2530.479	1016.83
2533.627	1039.01
