Data from N_1_dec_oh_4n_013_Splice17_02.txt Node
Date: Sat Feb 29 13:38:15 EST 2020
User: sa697716
Spectrometer: FLMS03696
Trigger mode: 0
Integration Time (sec): 3.180400E-1
Scans to average: 20
Electric dark correction enabled: true
Nonlinearity correction enabled: true
Boxcar width: 5
XAxis mode: Wavelengths
Number of Pixels in Spectrum: 2048
>>>>>Begin Spectral Data<<<<<
187.83	69.47
188.298	64.74
188.766	63.07
189.233	55.53
189.701	68.97
190.169	72.16
190.636	84.14
191.104	66.68
191.571	151.37
192.039	65.64
192.506	203.75
192.974	5003.16
193.441	-436.23
193.908	81.09
194.375	55.33
194.842	118.36
195.31	37.08
195.777	78.7
196.244	12.68
196.711	14.91
197.177	13.39
197.644	14.16
198.111	14.33
198.578	13.9
199.045	14.9
199.511	15.49
199.978	16.74
200.445	17.15
200.911	17.34
201.378	17.62
201.844	18.38
202.31	18.88
202.777	19.1
203.243	19.49
203.709	20.07
204.176	19.99
204.642	19.96
205.108	19.42
205.574	20.04
206.04	19.64
206.506	19.36
206.972	18.9
207.438	18.7
207.903	19.1
208.369	18.72
208.835	18.49
209.301	18.54
209.766	18.63
210.232	18.71
210.697	18.34
211.163	18.25
211.628	18.02
212.094	18.02
212.559	18.04
213.024	17.4
213.49	17.49
213.955	17.5
214.42	16.95
214.885	16.5
215.35	16.15
215.815	15.61
216.28	15.32
216.745	14.95
217.21	14.27
217.675	13.69
218.14	13.1
218.604	12.42
219.069	11.99
219.534	11.73
219.998	11.39
220.463	11.11
220.927	10.9
221.392	10.66
221.856	10.42
222.32	10.24
222.785	10.05
223.249	9.93
223.713	9.82
224.177	9.62
224.642	9.48
225.106	9.33
225.57	9.18
226.034	9.05
226.497	8.91
226.961	8.78
227.425	8.64
227.889	8.53
228.353	8.4
228.816	8.31
229.28	8.19
229.744	8.1
230.207	8.01
230.671	7.9
231.134	7.8
231.597	7.71
232.061	7.63
232.524	7.55
232.987	7.46
233.45	7.38
233.914	7.28
234.377	7.22
234.84	7.14
235.303	7.08
235.766	7.01
236.229	6.95
236.691	6.88
237.154	6.81
237.617	6.75
238.08	6.67
238.542	6.61
239.005	6.54
239.468	6.46
239.93	6.4
240.393	6.32
240.855	6.24
241.317	6.17
241.78	6.12
242.242	6.06
242.704	6
243.166	5.94
243.629	5.89
244.091	5.84
244.553	5.81
245.015	5.77
245.477	5.71
245.939	5.67
246.4	5.62
246.862	5.58
247.324	5.55
247.786	5.52
248.247	5.48
248.709	5.44
249.17	5.4
249.632	5.36
250.093	5.3
250.555	5.27
251.016	5.24
251.477	5.2
251.939	5.16
252.4	5.11
252.861	5.08
253.322	5.05
253.783	5.03
254.244	5
254.705	4.97
255.166	4.96
255.627	4.93
256.088	4.91
256.549	4.89
257.009	4.87
257.47	4.85
257.931	4.82
258.391	4.8
258.852	4.76
259.312	4.74
259.773	4.72
260.233	4.69
260.694	4.68
261.154	4.66
261.614	4.64
262.074	4.61
262.534	4.58
262.994	4.56
263.455	4.53
263.915	4.51
264.374	4.49
264.834	4.47
265.294	4.45
265.754	4.41
266.214	4.39
266.673	4.37
267.133	4.35
267.593	4.34
268.052	4.31
268.512	4.29
268.971	4.28
269.431	4.26
269.89	4.24
270.349	4.22
270.809	4.22
271.268	4.2
271.727	4.18
272.186	4.17
272.645	4.15
273.104	4.14
273.563	4.13
274.022	4.11
274.481	4.1
274.94	4.08
275.399	4.07
275.857	4.05
276.316	4.04
276.775	4.02
277.233	4.01
277.692	4
278.15	3.99
278.609	3.97
279.067	3.95
279.525	3.94
279.984	3.93
280.442	3.91
280.9	3.9
281.358	3.89
281.816	3.88
282.274	3.87
282.732	3.86
283.19	3.84
283.648	3.83
284.106	3.82
284.564	3.82
285.021	3.81
285.479	3.8
285.937	3.79
286.394	3.78
286.852	3.77
287.309	3.76
287.767	3.75
288.224	3.73
288.682	3.72
289.139	3.71
289.596	3.69
290.053	3.67
290.511	3.65
290.968	3.64
291.425	3.63
291.882	3.62
292.339	3.61
292.796	3.59
293.252	3.58
293.709	3.56
294.166	3.55
294.623	3.54
295.079	3.54
295.536	3.53
295.992	3.52
296.449	3.5
296.905	3.49
297.362	3.48
297.818	3.48
298.274	3.47
298.731	3.46
299.187	3.45
299.643	3.44
300.099	3.43
300.555	3.42
301.011	3.42
301.467	3.41
301.923	3.4
302.379	3.4
302.835	3.39
303.291	3.39
303.746	3.38
304.202	3.37
304.658	3.36
305.113	3.35
305.569	3.35
306.024	3.34
306.479	3.33
306.935	3.33
307.39	3.32
307.845	3.31
308.301	3.31
308.756	3.31
309.211	3.31
309.666	3.31
310.121	3.29
310.576	3.28
311.031	3.27
311.486	3.27
311.94	3.26
312.395	3.25
312.85	3.25
313.305	3.23
313.759	3.23
314.214	3.23
314.668	3.22
315.123	3.22
315.577	3.22
316.032	3.21
316.486	3.21
316.94	3.21
317.394	3.2
317.849	3.2
318.303	3.19
318.757	3.17
319.211	3.16
319.665	3.15
320.119	3.14
320.572	3.14
321.026	3.12
321.48	3.12
321.934	3.12
322.387	3.11
322.841	3.1
323.295	3.1
323.748	3.1
324.202	3.09
324.655	3.08
325.108	3.08
325.562	3.07
326.015	3.06
326.468	3.05
326.921	3.03
327.374	3.03
327.827	3.02
328.28	3.01
328.733	3.01
329.186	3.01
329.639	3
330.092	2.99
330.545	2.99
330.997	2.98
331.45	2.98
331.903	2.97
332.355	2.97
332.808	2.97
333.26	2.97
333.713	2.97
334.165	2.95
334.617	2.96
335.069	2.96
335.522	2.97
335.974	2.97
336.426	2.98
336.878	2.97
337.33	2.96
337.782	2.96
338.234	2.97
338.686	2.96
339.137	2.97
339.589	2.95
340.041	2.96
340.493	2.93
340.944	2.93
341.396	2.92
341.847	2.92
342.299	2.91
342.75	2.89
343.201	2.88
343.653	2.86
344.104	2.85
344.555	2.84
345.006	2.83
345.457	2.84
345.908	2.84
346.359	2.83
346.81	2.84
347.261	2.84
347.712	2.83
348.163	2.82
348.613	2.82
349.064	2.82
349.515	2.81
349.965	2.8
350.416	2.8
350.866	2.79
351.317	2.78
351.767	2.78
352.217	2.77
352.668	2.77
353.118	2.78
353.568	2.78
354.018	2.79
354.468	2.79
354.918	2.81
355.368	2.82
355.818	2.81
356.268	2.82
356.718	2.82
357.168	2.82
357.617	2.83
358.067	2.83
358.517	2.83
358.966	2.83
359.416	2.84
359.865	2.84
360.315	2.85
360.764	2.86
361.213	2.87
361.663	2.88
362.112	2.91
362.561	2.94
363.01	2.96
363.459	2.97
363.908	2.99
364.357	3.01
364.806	3.04
365.255	3.08
365.703	3.1
366.152	3.13
366.601	3.16
367.05	3.19
367.498	3.22
367.947	3.25
368.395	3.3
368.844	3.34
369.292	3.38
369.74	3.44
370.189	3.47
370.637	3.53
371.085	3.59
371.533	3.64
371.981	3.69
372.429	3.74
372.877	3.8
373.325	3.86
373.773	3.93
374.221	3.98
374.669	4.04
375.116	4.1
375.564	4.16
376.012	4.22
376.459	4.29
376.907	4.36
377.354	4.42
377.801	4.5
378.249	4.58
378.696	4.65
379.143	4.74
379.591	4.8
380.038	4.89
380.485	4.97
380.932	5.04
381.379	5.11
381.826	5.17
382.273	5.25
382.72	5.31
383.166	5.37
383.613	5.44
384.06	5.5
384.506	5.57
384.953	5.62
385.4	5.68
385.846	5.73
386.292	5.79
386.739	5.84
387.185	5.91
387.631	5.96
388.078	6.02
388.524	6.05
388.97	6.1
389.416	6.14
389.862	6.18
390.308	6.21
390.754	6.24
391.2	6.28
391.645	6.32
392.091	6.34
392.537	6.37
392.983	6.39
393.428	6.43
393.874	6.45
394.319	6.47
394.765	6.48
395.21	6.5
395.655	6.52
396.101	6.52
396.546	6.52
396.991	6.53
397.436	6.51
397.881	6.5
398.326	6.5
398.771	6.5
399.216	6.49
399.661	6.49
400.106	6.49
400.551	6.47
400.995	6.46
401.44	6.44
401.885	6.43
402.329	6.43
402.774	6.42
403.218	6.4
403.663	6.36
404.107	6.35
404.551	6.34
404.995	6.32
405.44	6.3
405.884	6.28
406.328	6.25
406.772	6.24
407.216	6.23
407.66	6.22
408.104	6.19
408.547	6.19
408.991	6.15
409.435	6.12
409.879	6.1
410.322	6.08
410.766	6.08
411.209	6.06
411.653	6.03
412.096	6.01
412.54	5.99
412.983	5.98
413.426	5.98
413.869	5.97
414.312	5.97
414.756	5.97
415.199	5.97
415.642	5.96
416.085	5.96
416.527	5.96
416.97	5.96
417.413	5.94
417.856	5.92
418.298	5.88
418.741	5.87
419.184	5.85
419.626	5.83
420.069	5.82
420.511	5.79
420.953	5.78
421.396	5.78
421.838	5.77
422.28	5.8
422.722	5.81
423.164	5.81
423.606	5.8
424.048	5.78
424.49	5.78
424.932	5.77
425.374	5.76
425.816	5.73
426.258	5.71
426.699	5.68
427.141	5.64
427.582	5.62
428.024	5.61
428.465	5.61
428.907	5.62
429.348	5.6
429.789	5.59
430.231	5.59
430.672	5.59
431.113	5.61
431.554	5.62
431.995	5.62
432.436	5.62
432.877	5.62
433.318	5.61
433.759	5.6
434.2	5.59
434.64	5.6
435.081	5.61
435.522	5.62
435.962	5.62
436.403	5.62
436.843	5.62
437.284	5.63
437.724	5.66
438.164	5.69
438.604	5.72
439.045	5.75
439.485	5.78
439.925	5.78
440.365	5.8
440.805	5.8
441.245	5.82
441.685	5.86
442.125	5.87
442.564	5.88
443.004	5.9
443.444	5.92
443.883	5.94
444.323	5.95
444.762	6
445.202	6.04
445.641	6.09
446.081	6.14
446.52	6.15
446.959	6.17
447.398	6.24
447.837	6.28
448.276	6.31
448.716	6.33
449.154	6.37
449.593	6.38
450.032	6.38
450.471	6.4
450.91	6.4
451.349	6.43
451.787	6.45
452.226	6.44
452.664	6.43
453.103	6.44
453.541	6.45
453.98	6.45
454.418	6.46
454.856	6.44
455.295	6.44
455.733	6.44
456.171	6.44
456.609	6.45
457.047	6.44
457.485	6.46
457.923	6.48
458.361	6.49
458.798	6.5
459.236	6.52
459.674	6.55
460.111	6.56
460.549	6.57
460.987	6.59
461.424	6.6
461.862	6.61
462.299	6.63
462.736	6.63
463.173	6.65
463.611	6.65
464.048	6.66
464.485	6.65
464.922	6.65
465.359	6.66
465.796	6.65
466.233	6.67
466.67	6.68
467.106	6.65
467.543	6.66
467.98	6.66
468.416	6.64
468.853	6.64
469.29	6.66
469.726	6.67
470.162	6.67
470.599	6.67
471.035	6.67
471.471	6.68
471.907	6.69
472.344	6.71
472.78	6.69
473.216	6.7
473.652	6.7
474.088	6.7
474.523	6.71
474.959	6.7
475.395	6.7
475.831	6.7
476.266	6.7
476.702	6.7
477.138	6.68
477.573	6.69
478.008	6.69
478.444	6.7
478.879	6.69
479.314	6.69
479.75	6.7
480.185	6.69
480.62	6.7
481.055	6.7
481.49	6.69
481.925	6.7
482.36	6.69
482.795	6.69
483.229	6.7
483.664	6.72
484.099	6.74
484.534	6.74
484.968	6.77
485.403	6.78
485.837	6.8
486.271	6.84
486.706	6.87
487.14	6.92
487.574	6.95
488.009	7
488.443	7.03
488.877	7.08
489.311	7.12
489.745	7.18
490.179	7.25
490.613	7.31
491.046	7.38
491.48	7.46
491.914	7.52
492.348	7.61
492.781	7.69
493.215	7.77
493.648	7.85
494.082	7.95
494.515	8.03
494.948	8.13
495.382	8.23
495.815	8.33
496.248	8.44
496.681	8.55
497.114	8.65
497.547	8.77
497.98	8.9
498.413	9.04
498.846	9.19
499.279	9.34
499.711	9.49
500.144	9.64
500.577	9.81
501.009	9.98
501.442	10.17
501.874	10.36
502.306	10.56
502.739	10.75
503.171	10.95
503.603	11.16
504.036	11.36
504.468	11.59
504.9	11.85
505.332	12.07
505.764	12.31
506.196	12.57
506.627	12.83
507.059	13.11
507.491	13.39
507.923	13.67
508.354	13.97
508.786	14.29
509.217	14.57
509.649	14.87
510.08	15.19
510.512	15.52
510.943	15.86
511.374	16.2
511.805	16.52
512.237	16.84
512.668	17.16
513.099	17.51
513.53	17.84
513.961	18.2
514.391	18.54
514.822	18.89
515.253	19.23
515.684	19.56
516.114	19.9
516.545	20.28
516.975	20.64
517.406	21.02
517.836	21.36
518.267	21.74
518.697	22.08
519.127	22.45
519.558	22.82
519.988	23.15
520.418	23.49
520.848	23.82
521.278	24.14
521.708	24.55
522.138	24.83
522.567	25.12
522.997	25.37
523.427	25.64
523.857	25.89
524.286	26.14
524.716	26.42
525.145	26.68
525.575	26.92
526.004	27.16
526.433	27.3
526.863	27.54
527.292	27.78
527.721	28
528.15	28.21
528.579	28.41
529.008	28.59
529.437	28.76
529.866	28.9
530.295	29.06
530.724	29.22
531.152	29.37
531.581	29.48
532.01	29.59
532.438	29.72
532.867	29.85
533.295	29.96
533.723	30.07
534.152	30.16
534.58	30.26
535.008	30.34
535.436	30.42
535.865	30.47
536.293	30.54
536.721	30.61
537.149	30.67
537.576	30.74
538.004	30.8
538.432	30.84
538.86	30.9
539.287	30.95
539.715	30.98
540.143	31.02
540.57	31.07
540.998	31.13
541.425	31.17
541.852	31.21
542.28	31.25
542.707	31.28
543.134	31.31
543.561	31.31
543.988	31.35
544.415	31.41
544.842	31.44
545.269	31.49
545.696	31.51
546.123	31.54
546.549	31.55
546.976	31.57
547.403	31.6
547.829	31.65
548.256	31.7
548.682	31.71
549.108	31.73
549.535	31.77
549.961	31.74
550.387	31.76
550.813	31.76
551.24	31.77
551.666	31.76
552.092	31.77
552.518	31.73
552.943	31.72
553.369	31.7
553.795	31.66
554.221	31.62
554.646	31.61
555.072	31.57
555.498	31.52
555.923	31.5
556.349	31.45
556.774	31.37
557.199	31.33
557.625	31.26
558.05	31.18
558.475	31.1
558.9	31.05
559.325	30.96
559.75	30.86
560.175	30.79
560.6	30.68
561.025	30.58
561.449	30.46
561.874	30.32
562.299	30.21
562.723	30.08
563.148	29.96
563.572	29.82
563.997	29.69
564.421	29.55
564.846	29.39
565.27	29.24
565.694	29.09
566.118	28.94
566.542	28.83
566.966	28.69
567.39	28.54
567.814	28.38
568.238	28.19
568.662	28.03
569.086	27.88
569.509	27.73
569.933	27.58
570.357	27.42
570.78	27.27
571.204	27.09
571.627	26.92
572.05	26.78
572.474	26.66
572.897	26.52
573.32	26.36
573.743	26.21
574.166	26.07
574.589	25.93
575.012	25.79
575.435	25.66
575.858	25.54
576.281	25.43
576.704	25.3
577.126	25.16
577.549	25.06
577.972	24.96
578.394	24.86
578.817	24.76
579.239	24.68
579.661	24.58
580.084	24.49
580.506	24.4
580.928	24.28
581.35	24.19
581.772	24.1
582.194	24
582.616	23.91
583.038	23.81
583.46	23.72
583.882	23.62
584.303	23.53
584.725	23.44
585.147	23.35
585.568	23.27
585.99	23.21
586.411	23.12
586.833	23.05
587.254	23
587.675	22.92
588.096	22.85
588.518	22.79
588.939	22.73
589.36	22.68
589.781	22.62
590.202	22.57
590.623	22.49
591.043	22.44
591.464	22.37
591.885	22.3
592.305	22.26
592.726	22.2
593.147	22.15
593.567	22.09
593.987	22.05
594.408	22
594.828	21.95
595.248	21.91
595.669	21.88
596.089	21.84
596.509	21.79
596.929	21.72
597.349	21.68
597.769	21.63
598.189	21.59
598.608	21.55
599.028	21.49
599.448	21.44
599.867	21.4
600.287	21.35
600.706	21.31
601.126	21.24
601.545	21.21
601.965	21.15
602.384	21.09
602.803	21.03
603.222	20.96
603.641	20.9
604.061	20.84
604.48	20.78
604.898	20.7
605.317	20.62
605.736	20.57
606.155	20.49
606.574	20.42
606.992	20.36
607.411	20.3
607.829	20.18
608.248	20.1
608.666	20.01
609.085	19.93
609.503	19.85
609.921	19.77
610.339	19.71
610.758	19.62
611.176	19.54
611.594	19.45
612.012	19.36
612.43	19.32
612.847	19.26
613.265	19.17
613.683	19.1
614.101	19
614.518	18.92
614.936	18.84
615.353	18.77
615.771	18.7
616.188	18.64
616.606	18.57
617.023	18.49
617.44	18.41
617.857	18.34
618.274	18.27
618.691	18.21
619.108	18.15
619.525	18.09
619.942	18.05
620.359	18.01
620.776	17.96
621.192	17.93
621.609	17.9
622.026	17.89
622.442	17.87
622.859	17.84
623.275	17.84
623.691	17.82
624.108	17.82
624.524	17.79
624.94	17.76
625.356	17.74
625.772	17.72
626.188	17.72
626.604	17.68
627.02	17.67
627.436	17.67
627.852	17.64
628.268	17.62
628.683	17.58
629.099	17.56
629.514	17.52
629.93	17.49
630.345	17.45
630.761	17.4
631.176	17.35
631.591	17.29
632.007	17.23
632.422	17.16
632.837	17.07
633.252	16.99
633.667	16.89
634.082	16.79
634.497	16.67
634.911	16.55
635.326	16.41
635.741	16.27
636.155	16.15
636.57	15.98
636.984	15.82
637.399	15.64
637.813	15.44
638.228	15.26
638.642	15.08
639.056	14.91
639.47	14.73
639.884	14.55
640.298	14.35
640.712	14.15
641.126	13.95
641.54	13.76
641.954	13.6
642.368	13.44
642.781	13.27
643.195	13.09
643.609	12.92
644.022	12.75
644.436	12.59
644.849	12.44
645.262	12.29
645.676	12.15
646.089	12.02
646.502	11.91
646.915	11.79
647.328	11.69
647.741	11.58
648.154	11.5
648.567	11.43
648.98	11.37
649.393	11.31
649.805	11.25
650.218	11.22
650.631	11.16
651.043	11.11
651.456	11.08
651.868	11.04
652.28	11.01
652.693	10.95
653.105	10.9
653.517	10.85
653.929	10.8
654.341	10.76
654.753	10.7
655.165	10.66
655.577	10.58
655.989	10.49
656.401	10.4
656.813	10.32
657.224	10.24
657.636	10.15
658.047	10.05
658.459	9.94
658.87	9.83
659.282	9.72
659.693	9.61
660.104	9.5
660.515	9.39
660.926	9.29
661.338	9.17
661.749	9.05
662.159	8.94
662.57	8.83
662.981	8.73
663.392	8.63
663.803	8.54
664.213	8.45
664.624	8.37
665.035	8.28
665.445	8.2
665.855	8.13
666.266	8.07
666.676	8.01
667.086	7.96
667.497	7.9
667.907	7.84
668.317	7.79
668.727	7.74
669.137	7.71
669.547	7.7
669.956	7.67
670.366	7.68
670.776	7.66
671.186	7.64
671.595	7.63
672.005	7.64
672.414	7.66
672.824	7.67
673.233	7.7
673.642	7.71
674.052	7.72
674.461	7.75
674.87	7.78
675.279	7.83
675.688	7.87
676.097	7.92
676.506	7.98
676.915	8.05
677.323	8.12
677.732	8.19
678.141	8.28
678.549	8.37
678.958	8.48
679.366	8.58
679.775	8.71
680.183	8.86
680.592	9.02
681	9.18
681.408	9.35
681.816	9.53
682.224	9.75
682.632	9.98
683.04	10.23
683.448	10.48
683.856	10.76
684.264	11.09
684.671	11.44
685.079	11.79
685.487	12.19
685.894	12.62
686.302	13.07
686.709	13.55
687.116	14.06
687.524	14.61
687.931	15.19
688.338	15.77
688.745	16.37
689.152	16.99
689.559	17.64
689.966	18.31
690.373	18.98
690.78	19.67
691.187	20.36
691.593	21.05
692	21.74
692.407	22.44
692.813	23.15
693.22	23.86
693.626	24.55
694.032	25.25
694.439	25.94
694.845	26.62
695.251	27.3
695.657	27.97
696.063	28.62
696.469	29.27
696.875	29.88
697.281	30.48
697.687	31.1
698.093	31.69
698.498	32.27
698.904	32.85
699.31	33.38
699.715	33.94
700.12	34.45
700.526	34.98
700.931	35.49
701.337	35.99
701.742	36.47
702.147	36.95
702.552	37.41
702.957	37.84
703.362	38.28
703.767	38.71
704.172	39.12
704.577	39.53
704.981	39.92
705.386	40.3
705.791	40.69
706.195	41.06
706.6	41.4
707.004	41.74
707.408	42.09
707.813	42.4
708.217	42.72
708.621	43.01
709.025	43.35
709.43	43.64
709.834	43.96
710.237	44.23
710.641	44.51
711.045	44.78
711.449	45.05
711.853	45.33
712.256	45.6
712.66	45.86
713.064	46.08
713.467	46.3
713.87	46.52
714.274	46.74
714.677	46.96
715.08	47.13
715.484	47.33
715.887	47.53
716.29	47.7
716.693	47.88
717.096	48.08
717.499	48.33
717.901	48.49
718.304	48.69
718.707	48.84
719.109	49.02
719.512	49.25
719.915	49.44
720.317	49.63
720.719	49.78
721.122	49.95
721.524	50.1
721.926	50.23
722.328	50.4
722.731	50.54
723.133	50.68
723.535	50.82
723.937	50.93
724.338	51.02
724.74	51.11
725.142	51.26
725.544	51.36
725.945	51.46
726.347	51.55
726.748	51.6
727.15	51.68
727.551	51.77
727.952	51.83
728.354	51.95
728.755	52.05
729.156	52.15
729.557	52.21
729.958	52.33
730.359	52.41
730.76	52.48
731.161	52.58
731.562	52.64
731.962	52.73
732.363	52.79
732.763	52.84
733.164	52.88
733.564	52.94
733.965	52.94
734.365	52.94
734.766	52.96
735.166	52.95
735.566	52.97
735.966	52.98
736.366	52.96
736.766	52.99
737.166	53.03
737.566	53.08
737.966	53.09
738.365	53.17
738.765	53.22
739.165	53.2
739.564	53.27
739.964	53.3
740.363	53.35
740.763	53.39
741.162	53.4
741.561	53.4
741.96	53.41
742.36	53.44
742.759	53.42
743.158	53.4
743.557	53.51
743.955	53.53
744.354	53.56
744.753	53.59
745.152	53.6
745.55	53.62
745.949	53.63
746.348	53.62
746.746	53.61
747.144	53.64
747.543	53.65
747.941	53.63
748.339	53.65
748.737	53.66
749.136	53.66
749.534	53.67
749.932	53.7
750.33	53.72
750.727	53.75
751.125	53.77
751.523	53.74
751.921	53.76
752.318	53.73
752.716	53.72
753.113	53.72
753.511	53.7
753.908	53.7
754.305	53.69
754.703	53.65
755.1	53.64
755.497	53.57
755.894	53.54
756.291	53.47
756.688	53.38
757.085	53.31
757.482	53.21
757.878	53.15
758.275	53.07
758.672	53.02
759.068	52.98
759.465	52.92
759.861	52.92
760.258	52.9
760.654	52.89
761.05	52.93
761.447	52.95
761.843	53
762.239	52.99
762.635	53.02
763.031	53.07
763.427	53.12
763.822	53.12
764.218	53.14
764.614	53.17
765.01	53.21
765.405	53.23
765.801	53.23
766.196	53.25
766.592	53.28
766.987	53.32
767.382	53.31
767.778	53.3
768.173	53.35
768.568	53.34
768.963	53.36
769.358	53.37
769.753	53.4
770.148	53.39
770.542	53.36
770.937	53.34
771.332	53.3
771.726	53.26
772.121	53.23
772.515	53.16
772.91	53.19
773.304	53.12
773.699	53.13
774.093	53.06
774.487	53.06
774.881	53.06
775.275	53.07
775.669	53.07
776.063	53.07
776.457	53.05
776.851	53.03
777.245	53.03
777.638	53.09
778.032	53.07
778.425	53.11
778.819	53.11
779.212	53.09
779.606	53.08
779.999	53.07
780.392	53.06
780.786	53.09
781.179	53.12
781.572	53.07
781.965	53.05
782.358	53.03
782.751	53
783.143	52.97
783.536	53.02
783.929	53.01
784.322	53
784.714	52.99
785.107	52.99
785.499	53
785.891	53.02
786.284	52.99
786.676	53.03
787.068	53.02
787.46	53.03
787.852	53.01
788.245	53
788.636	53.01
789.028	53.02
789.42	52.99
789.812	53.01
790.204	52.96
790.595	52.97
790.987	52.94
791.378	52.95
791.77	52.94
792.161	52.94
792.553	52.97
792.944	52.95
793.335	52.97
793.726	52.94
794.117	52.94
794.508	52.98
794.899	52.97
795.29	52.98
795.681	52.97
796.072	52.99
796.463	52.94
796.853	52.94
797.244	52.93
797.634	52.9
798.025	52.92
798.415	52.89
798.806	52.88
799.196	52.88
799.586	52.86
799.976	52.84
800.366	52.79
800.756	52.81
801.146	52.78
801.536	52.79
801.926	52.78
802.316	52.76
802.706	52.78
803.095	52.76
803.485	52.75
803.874	52.75
804.264	52.79
804.653	52.79
805.043	52.78
805.432	52.75
805.821	52.73
806.21	52.77
806.599	52.77
806.988	52.77
807.377	52.76
807.766	52.77
808.155	52.77
808.544	52.72
808.933	52.71
809.321	52.74
809.71	52.77
810.098	52.76
810.487	52.7
810.875	52.7
811.264	52.69
811.652	52.7
812.04	52.68
812.428	52.67
812.816	52.68
813.204	52.69
813.592	52.67
813.98	52.66
814.368	52.69
814.756	52.76
815.144	52.74
815.531	52.72
815.919	52.71
816.306	52.71
816.694	52.74
817.081	52.73
817.469	52.75
817.856	52.78
818.243	52.77
818.63	52.78
819.017	52.76
819.404	52.79
819.791	52.81
820.178	52.85
820.565	52.85
820.952	52.83
821.339	52.89
821.725	52.9
822.112	52.9
822.498	52.93
822.885	52.96
823.271	52.97
823.657	52.97
824.044	52.96
824.43	52.97
824.816	52.98
825.202	52.99
825.588	52.98
825.974	52.96
826.36	52.94
826.746	52.94
827.132	52.89
827.517	52.9
827.903	52.89
828.289	52.87
828.674	52.87
829.06	52.87
829.445	52.89
829.83	52.88
830.216	52.9
830.601	52.92
830.986	52.93
831.371	52.96
831.756	52.91
832.141	52.94
832.526	52.96
832.911	52.97
833.295	52.97
833.68	52.94
834.065	52.97
834.449	52.96
834.834	52.93
835.218	52.92
835.603	52.93
835.987	52.96
836.371	52.91
836.755	52.91
837.139	52.89
837.524	52.89
837.908	52.86
838.291	52.84
838.675	52.86
839.059	52.87
839.443	52.85
839.827	52.84
840.21	52.86
840.594	52.87
840.977	52.85
841.361	52.85
841.744	52.85
842.127	52.88
842.511	52.87
842.894	52.84
843.277	52.86
843.66	52.86
844.043	52.84
844.426	52.8
844.809	52.8
845.191	52.8
845.574	52.81
845.957	52.79
846.339	52.78
846.722	52.79
847.104	52.82
847.487	52.82
847.869	52.86
848.252	52.86
848.634	52.89
849.016	52.91
849.398	52.89
849.78	52.87
850.162	52.89
850.544	52.9
850.926	52.87
851.307	52.87
851.689	52.83
852.071	52.8
852.452	52.79
852.834	52.76
853.215	52.75
853.597	52.77
853.978	52.75
854.359	52.73
854.741	52.72
855.122	52.75
855.503	52.74
855.884	52.76
856.265	52.74
856.646	52.74
857.026	52.75
857.407	52.73
857.788	52.74
858.169	52.76
858.549	52.8
858.93	52.78
859.31	52.74
859.69	52.72
860.071	52.73
860.451	52.74
860.831	52.75
861.211	52.75
861.591	52.76
861.971	52.73
862.351	52.74
862.731	52.68
863.111	52.68
863.491	52.7
863.87	52.69
864.25	52.69
864.629	52.68
865.009	52.67
865.388	52.65
865.768	52.65
866.147	52.66
866.526	52.65
866.905	52.67
867.284	52.68
867.663	52.66
868.042	52.65
868.421	52.63
868.8	52.63
869.179	52.64
869.558	52.67
869.936	52.63
870.315	52.61
870.693	52.62
871.072	52.6
871.45	52.59
871.828	52.59
872.207	52.61
872.585	52.6
872.963	52.6
873.341	52.6
873.719	52.59
874.097	52.61
874.475	52.64
874.853	52.64
875.23	52.62
875.608	52.61
875.986	52.61
876.363	52.62
876.741	52.63
877.118	52.61
877.495	52.6
877.873	52.57
878.25	52.58
878.627	52.58
879.004	52.57
879.381	52.6
879.758	52.63
880.135	52.61
880.512	52.61
880.889	52.63
881.265	52.67
881.642	52.68
882.019	52.7
882.395	52.7
882.772	52.7
883.148	52.69
883.524	52.7
883.901	52.68
884.277	52.69
884.653	52.69
885.029	52.69
885.405	52.7
885.781	52.65
886.157	52.64
886.532	52.63
886.908	52.65
887.284	52.67
887.659	52.68
888.035	52.7
888.411	52.7
888.786	52.71
889.161	52.74
889.537	52.74
889.912	52.76
890.287	52.75
890.662	52.73
891.037	52.71
891.412	52.68
891.787	52.67
892.162	52.67
892.536	52.67
892.911	52.64
893.286	52.56
893.66	52.53
894.035	52.53
894.409	52.52
894.784	52.51
895.158	52.52
895.532	52.5
895.906	52.49
896.281	52.46
896.655	52.45
897.029	52.41
897.402	52.43
897.776	52.44
898.15	52.44
898.524	52.44
898.898	52.45
899.271	52.44
899.645	52.46
900.018	52.45
900.392	52.45
900.765	52.47
901.138	52.5
901.511	52.49
901.884	52.45
902.258	52.43
902.631	52.44
903.003	52.44
903.376	52.41
903.749	52.41
904.122	52.41
904.495	52.38
904.867	52.33
905.24	52.31
905.612	52.28
905.985	52.22
906.357	52.21
906.729	52.18
907.102	52.15
907.474	52.14
907.846	52.12
908.218	52.09
908.59	52.09
908.962	52.08
909.334	52.04
909.705	52.06
910.077	52.08
910.449	52.06
910.82	52
911.192	51.99
911.563	51.98
911.935	51.94
912.306	51.91
912.677	51.91
913.048	51.91
913.419	51.88
913.79	51.85
914.161	51.84
914.532	51.87
914.903	51.88
915.274	51.9
915.645	51.89
916.015	51.87
916.386	51.86
916.756	51.8
917.127	51.79
917.497	51.81
917.868	51.81
918.238	51.83
918.608	51.83
918.978	51.82
919.348	51.75
919.718	51.75
920.088	51.79
920.458	51.83
920.828	51.86
921.198	51.83
921.567	51.82
921.937	51.84
922.306	51.84
922.676	51.8
923.045	51.77
923.415	51.78
923.784	51.75
924.153	51.74
924.522	51.69
924.891	51.67
925.26	51.68
925.629	51.69
925.998	51.65
926.367	51.61
926.736	51.61
927.104	51.59
927.473	51.64
927.842	51.64
928.21	51.62
928.578	51.6
928.947	51.59
929.315	51.57
929.683	51.59
930.051	51.54
930.42	51.51
930.788	51.48
931.156	51.52
931.523	51.47
931.891	51.44
932.259	51.39
932.627	51.31
932.994	51.25
933.362	51.24
933.729	51.13
934.097	51.13
934.464	51.11
934.831	51.06
935.199	50.98
935.566	50.89
935.933	50.83
936.3	50.77
936.667	50.73
937.034	50.73
937.401	50.6
937.767	50.61
938.134	50.53
938.501	50.47
938.867	50.48
939.234	50.53
939.6	50.49
939.967	50.49
940.333	50.56
940.699	50.65
941.065	50.67
941.431	50.7
941.798	50.73
942.163	50.78
942.529	50.79
942.895	50.74
943.261	50.7
943.627	50.73
943.992	50.72
944.358	50.66
944.723	50.58
945.089	50.56
945.454	50.59
945.82	50.51
946.185	50.53
946.55	50.59
946.915	50.59
947.28	50.57
947.645	50.57
948.01	50.6
948.375	50.7
948.74	50.74
949.104	50.82
949.469	50.82
949.834	50.82
950.198	50.73
950.562	50.69
950.927	50.72
951.291	50.74
951.655	50.75
952.02	50.66
952.384	50.61
952.748	50.62
953.112	50.64
953.476	50.57
953.839	50.59
954.203	50.63
954.567	50.64
954.931	50.62
955.294	50.57
955.658	50.48
956.021	50.48
956.385	50.39
956.748	50.38
957.111	50.29
957.474	50.31
957.837	50.35
958.2	50.29
958.563	50.25
958.926	50.19
959.289	50.23
959.652	50.28
960.015	50.29
960.377	50.34
960.74	50.29
961.102	50.27
961.465	50.26
961.827	50.16
962.189	50.15
962.552	50.12
962.914	50.11
963.276	50.13
963.638	50.09
964	50.06
964.362	50.03
964.724	50.03
965.085	50.03
965.447	50.02
965.809	49.97
966.17	49.98
966.532	49.87
966.893	49.85
967.255	49.71
967.616	49.71
967.977	49.73
968.338	49.67
968.699	49.6
969.061	49.55
969.421	49.52
969.782	49.58
970.143	49.58
970.504	49.67
970.865	49.65
971.225	49.69
971.586	49.69
971.946	49.67
972.307	49.69
972.667	49.81
973.027	49.8
973.388	49.83
973.748	49.78
974.108	49.83
974.468	49.83
974.828	49.88
975.188	49.86
975.548	49.83
975.907	49.93
976.267	49.89
976.627	49.75
976.986	49.73
977.346	49.76
977.705	49.77
978.064	49.76
978.424	49.78
978.783	49.78
979.142	49.78
979.501	49.77
979.86	49.76
980.219	49.72
980.578	49.78
980.937	49.85
981.296	49.76
981.654	49.82
982.013	49.77
982.371	49.69
982.73	49.64
983.088	49.6
983.447	49.58
983.805	49.57
984.163	49.62
984.521	49.53
984.879	49.5
985.237	49.61
985.595	49.51
985.953	49.37
986.311	49.36
986.669	49.37
987.026	49.43
987.384	49.46
987.741	49.37
988.099	49.46
988.456	49.49
988.814	49.45
989.171	49.34
989.528	49.32
989.885	49.37
990.242	49.41
990.599	49.42
990.956	49.37
991.313	49.31
991.67	49.28
992.027	49.14
992.383	49.25
992.74	49.16
993.096	49.14
993.453	49.09
993.809	49.06
994.165	49
994.522	49.04
994.878	49.02
995.234	48.99
995.59	48.94
995.946	49.04
996.302	48.9
996.658	48.97
997.013	48.9
997.369	48.89
997.725	49.01
998.08	48.97
998.436	48.91
998.791	48.77
999.147	48.77
999.502	48.68
999.857	48.52
1000.212	48.51
1000.567	48.53
1000.922	48.55
1001.277	48.56
1001.632	48.5
1001.987	48.41
1002.342	48.36
1002.696	48.58
1003.051	48.46
1003.406	48.45
1003.76	48.43
1004.114	48.56
1004.469	48.54
1004.823	48.54
1005.177	48.58
1005.531	48.35
1005.885	48.63
1006.239	48.6
1006.593	48.3
1006.947	48.25
1007.301	48.28
1007.655	48.25
1008.008	47.96
1008.362	47.76
1008.715	47.79
1009.069	47.58
1009.422	47.66
1009.776	47.38
1010.129	47.12
1010.482	47.2
1010.835	47.37
1011.188	47.2
1011.541	46.98
1011.894	46.98
1012.247	47.07
1012.6	46.82
1012.952	46.92
1013.305	46.79
1013.657	46.8
1014.01	47.25
1014.362	47.25
1014.715	46.96
1015.067	47.24
1015.419	47.33
1015.771	47.43
1016.123	47.39
1016.475	47.69
1016.827	47.82
1017.179	47.9
1017.531	47.88
1017.883	47.72
1018.234	47.67
1018.586	47.9
1018.938	47.62
1019.289	47.76
1019.64	47.81
1019.992	47.83
1020.343	47.28
1020.694	47.09
1021.045	46.88
1021.396	46.74
1021.747	46.52
1022.098	46.55
1022.449	46.43
1022.8	46.25
1023.151	45.87
1023.501	45.69
1023.852	45.46
1024.202	45.77
1024.553	45.51
1024.903	45.57
1025.253	45.78
1025.604	45.78
1025.954	45.46
1026.304	45.68
1026.654	45.7
1027.004	45.81
1027.354	45.61
1027.703	45.18
1028.053	44.92
1028.403	44.97
1028.753	45.19
1029.102	44.98
1029.452	44.95
1029.801	45.19
1030.15	44.84
1030.499	45.01
897.758	665.14
901.051	666.42
904.343	679.04
907.636	668.75
910.928	655.91
914.22	665.58
917.511	651.66
920.803	624.12
924.094	598.08
927.384	602.19
930.675	582.65
933.965	576.04
937.255	578.04
940.544	550.43
943.834	523.14
947.123	514.52
950.411	488.75
953.7	479.08
956.988	464.76
960.276	441.63
963.563	433.62
966.851	412.14
970.138	404.97
973.424	377.64
976.711	372.13
979.997	359.82
983.283	353.45
986.568	341.52
989.853	329.25
993.138	318.04
996.423	315.87
999.708	307.74
1002.992	307.85
1006.275	296.57
1009.559	295.72
1012.842	286.33
1016.125	278.42
1019.408	272.53
1022.69	269.81
1025.972	270.56
1029.254	261.96
1032.536	257.03
1035.817	248.86
1039.098	243.97
1042.379	241.97
1045.659	236.71
1048.939	235.06
1052.219	230.4
1055.498	226.78
1058.778	222.72
1062.057	217.85
1065.335	217.76
1068.614	213.51
1071.892	210.63
1075.17	207.05
1078.447	203.1
1081.724	202.6
1085.001	198.36
1088.278	199.2
1091.554	196.58
1094.83	195.48
1098.106	192.01
1101.382	191.34
1104.657	190.31
1107.932	189.4
1111.206	188.96
1114.481	187.01
1117.755	185.34
1121.029	184.84
1124.302	181.51
1127.575	179.07
1130.848	178.78
1134.121	176.47
1137.393	175.7
1140.665	174.25
1143.937	172.52
1147.208	170.15
1150.48	168.2
1153.75	167.44
1157.021	165.55
1160.291	165.55
1163.561	165.93
1166.831	163.61
1170.101	164
1173.37	162.36
1176.639	161.26
1179.907	160.96
1183.176	160.76
1186.444	161.62
1189.711	159.83
1192.979	161.78
1196.246	161.47
1199.513	160.56
1202.78	160.83
1206.046	160.35
1209.312	161.37
1212.578	162.59
1215.843	164.61
1219.108	166.17
1222.373	168.19
1225.638	171.44
1228.902	174.54
1232.166	180.37
1235.43	183.21
1238.693	188.48
1241.956	192.45
1245.219	197.42
1248.482	198.66
1251.744	197.98
1255.006	198.58
1258.268	194.18
1261.529	192.31
1264.79	187.09
1268.051	181.62
1271.312	180.22
1274.572	176.87
1277.832	172.73
1281.092	170.52
1284.351	167.2
1287.61	167.32
1290.869	165.93
1294.128	164.95
1297.386	163.91
1300.644	163.34
1303.902	163.76
1307.159	162.53
1310.416	162.83
1313.673	165.36
1316.93	166.24
1320.186	168.82
1323.442	170.61
1326.697	173.44
1329.953	175.98
1333.208	182.39
1336.463	189.69
1339.717	192.16
1342.972	202.29
1346.226	208.78
1349.479	210.27
1352.733	219.71
1355.986	223.69
1359.238	228.75
1362.491	232.42
1365.743	239.32
1368.995	239.98
1372.247	242.01
1375.498	241.52
1378.749	248.46
1382	247.13
1385.251	246.85
1388.501	245.26
1391.751	249.28
1395	247.46
1398.25	248.26
1401.499	248.73
1404.748	249.11
1407.996	241.64
1411.244	242.02
1414.492	237.91
1417.74	232.94
1420.987	226.38
1424.234	222.39
1427.481	214.03
1430.728	208.69
1433.974	201.49
1437.22	193.67
1440.465	187.49
1443.711	181.78
1446.956	176.61
1450.201	169.86
1453.445	161.53
1456.689	158.25
1459.933	153.18
1463.177	146.96
1466.42	143.23
1469.663	139.14
1472.906	135.64
1476.148	131.65
1479.391	128.83
1482.633	126.6
1485.874	124.59
1489.115	123.99
1492.356	120.69
1495.597	119.04
1498.838	118.31
1502.078	117.76
1505.318	117.32
1508.557	116.53
1511.797	115.13
1515.036	114.94
1518.274	114.41
1521.513	112.54
1524.751	111.94
1527.989	113.58
1531.227	112.91
1534.464	112.67
1537.701	112.14
1540.938	111.72
1544.174	111.31
1547.41	112.02
1550.646	111.57
1553.882	111.38
1557.117	111.24
1560.352	110.97
1563.587	109.35
1566.821	109.54
1570.055	108.9
1573.289	108.55
1576.523	108.38
1579.756	108.45
1582.989	108.27
1586.222	107.66
1589.454	107.51
1592.686	107.95
1595.918	107.42
1599.15	107.68
1602.381	107.71
1605.612	108.05
1608.843	107.77
1612.073	108.6
1615.303	108.39
1618.533	107.76
1621.762	108.52
1624.992	108.83
1628.221	108.33
1631.449	109.22
1634.678	108.65
1637.906	108.49
1641.134	108.54
1644.361	108.83
1647.588	108.9
1650.815	109.12
1654.042	108.88
1657.269	108.83
1660.495	109.2
1663.72	109.19
1666.946	108.77
1670.171	109.67
1673.396	110.65
1676.621	110.85
1679.845	110.94
1683.069	110.02
1686.293	109.91
1689.517	110.7
1692.74	110.57
1695.963	110.66
1699.185	111.28
1702.408	112.13
1705.63	112.16
1708.852	112.4
1712.073	112.15
1715.294	112.13
1718.515	113.21
1721.736	113.65
1724.956	113.71
1728.176	113.75
1731.396	114.31
1734.616	114.32
1737.835	114.1
1741.054	113.88
1744.272	113.37
1747.491	113.77
1750.709	114.07
1753.927	114.03
1757.144	114.53
1760.361	114.82
1763.578	115.07
1766.795	115.63
1770.011	115.61
1773.227	116.15
1776.443	117.15
1779.658	117.57
1782.874	118.25
1786.089	119.01
1789.303	119.23
1792.518	120.4
1795.732	120.69
1798.945	122.21
1802.159	121.9
1805.372	123.98
1808.585	124.72
1811.797	125.75
1815.01	126.67
1818.222	127.66
1821.434	128.65
1824.645	129.49
1827.856	130.49
1831.067	131.51
1834.278	132.7
1837.488	134.13
1840.698	134.62
1843.908	135.15
1847.117	136.09
1850.326	137.19
1853.535	138.11
1856.744	138.89
1859.952	140.63
1863.16	140.3
1866.368	140.2
1869.575	140.75
1872.782	140.1
1875.989	138.8
1879.196	138.24
1882.402	137.23
1885.608	137.9
1888.814	137.05
1892.019	137.96
1895.224	135.77
1898.429	136.23
1901.634	137.4
1904.838	136.8
1908.042	136.72
1911.246	137.78
1914.449	138.4
1917.652	138.34
1920.855	138.67
1924.058	137.05
1927.26	136.47
1930.462	137.11
1933.664	137.14
1936.865	136.99
1940.066	136.37
1943.267	135.71
1946.467	136
1949.668	136.11
1952.868	137.21
1956.067	136.37
1959.267	138.47
1962.466	138.88
1965.665	140.01
1968.863	140.82
1972.061	141.18
1975.259	143.74
1978.457	145.45
1981.654	147.36
1984.852	149.01
1988.048	149.83
1991.245	152.88
1994.441	154.82
1997.637	158.57
2000.833	162.62
2004.028	163.86
2007.223	169.41
2010.418	174.02
2013.613	180.75
2016.807	185.3
2020.001	188.91
2023.194	194.14
2026.388	201.01
2029.581	210.35
2032.774	215.98
2035.966	221.86
2039.158	229.23
2042.35	231.77
2045.542	234.97
2048.733	244.27
2051.924	246.74
2055.115	251.37
2058.306	254.65
2061.496	257.82
2064.686	259.97
2067.875	257.48
2071.065	259.53
2074.254	261.19
2077.442	270.42
2080.631	272.81
2083.819	274.25
2087.007	278.07
2090.195	281.38
2093.382	281.69
2096.569	282.18
2099.756	286.28
2102.942	293.67
2106.128	300.14
2109.314	301.6
2112.5	300.53
2115.685	297.81
2118.87	297.9
2122.055	300.63
2125.239	307.84
2128.424	315.32
2131.608	310.68
2134.791	310.45
2137.974	312.02
2141.157	314.94
2144.34	318.23
2147.523	321.97
2150.705	331.87
2153.887	326.95
2157.068	331.15
2160.25	333.46
2163.431	332.48
2166.611	341.54
2169.792	348.62
2172.972	354.14
2176.152	353.08
2179.331	360.43
2182.511	361.48
2185.69	365.78
2188.868	385.31
2192.047	390.73
2195.225	394.07
2198.403	398.34
2201.58	393.71
2204.758	406.38
2207.935	408.27
2211.111	415.36
2214.288	417.11
2217.464	422.67
2220.64	423.7
2223.815	422.55
2226.991	419.97
2230.166	423.96
2233.34	439.35
2236.515	449.66
2239.689	442.67
2242.863	450.11
2246.036	447.65
2249.209	458.05
2252.382	458.4
2255.555	474.37
2258.727	475.8
2261.9	487.63
2265.071	496.62
2268.243	491.5
2271.414	510.77
2274.585	519.17
2277.756	522.51
2280.926	540.12
2284.096	542.49
2287.266	543.83
2290.436	531.63
2293.605	544.85
2296.774	565.73
2299.942	562.7
2303.111	577.07
2306.279	585.58
2309.447	590.08
2312.614	590.99
2315.781	605.81
2318.948	613.25
2322.115	625.76
2325.281	662.55
2328.447	656.08
2331.613	658.03
2334.779	671.17
2337.944	681.54
2341.109	693.53
2344.274	701.64
2347.438	721.92
2350.602	731.09
2353.766	773.43
2356.929	778.53
2360.092	787.76
2363.255	792.15
2366.418	802.26
2369.58	817.38
2372.742	814.24
2375.904	807.72
2379.066	830.83
2382.227	877.4
2385.388	878.56
2388.548	826.85
2391.709	817.29
2394.869	845.58
2398.029	852.29
2401.188	850.14
2404.347	873.67
2407.506	905.86
2410.665	873.36
2413.823	877.79
2416.981	875.74
2420.139	829.7
2423.296	906.6
2426.453	962.22
2429.61	912.87
2432.767	970.95
2435.923	1011.36
2439.079	973
2442.235	1001.05
2445.391	1022.23
2448.546	1011.56
2451.701	1060.82
2454.855	1139.39
2458.009	1001.36
2461.163	1021.43
2464.317	1033.34
2467.471	1010.79
2470.624	1044.51
2473.777	1032.49
2476.929	996.1
2480.082	1073.59
2483.234	1124.41
2486.385	1139.11
2489.537	1164.71
2492.688	1289.2
2495.839	1270.97
2498.989	1304.25
2502.14	1315.23
2505.29	1245.45
2508.439	1394.46
2511.589	1424.7
2514.738	1370.43
2517.887	1362.19
2521.035	1279.07
2524.183	1265.6
2527.331	1252.36
2530.479	1219.4
2533.627	1252.02
