Data from N_1_div_pa_2n_001_Splice17_11.txt Node
Date: Sat Feb 29 13:32:54 EST 2020
User: sa697716
Spectrometer: FLMS03696
Trigger mode: 0
Integration Time (sec): 3.180400E-1
Scans to average: 20
Electric dark correction enabled: true
Nonlinearity correction enabled: true
Boxcar width: 5
XAxis mode: Wavelengths
Number of Pixels in Spectrum: 2048
>>>>>Begin Spectral Data<<<<<
187.83	104.75
188.298	114.2
188.766	111.68
189.233	88.6
189.701	102.12
190.169	105.31
190.636	99.99
191.104	91.11
191.571	47.03
192.039	-21
192.506	507.74
192.974	7745.19
193.441	-729.35
193.908	179.99
194.375	77.77
194.842	174.94
195.31	104.79
195.777	99.09
196.244	38.15
196.711	20.29
197.177	14.68
197.644	15.68
198.111	15.67
198.578	16.26
199.045	16.25
199.511	17.44
199.978	17.89
200.445	18.02
200.911	18.03
201.378	17.82
201.844	18.26
202.31	19.26
202.777	19
203.243	20.06
203.709	20.13
204.176	20.1
204.642	19.92
205.108	20.02
205.574	20.29
206.04	20.27
206.506	20.38
206.972	20.21
207.438	19.69
207.903	20.13
208.369	19.39
208.835	19.35
209.301	19.66
209.766	19.47
210.232	19.34
210.697	19.42
211.163	19.41
211.628	19.12
212.094	19.07
212.559	19.35
213.024	18.95
213.49	18.86
213.955	18.58
214.42	18.04
214.885	17.76
215.35	17.26
215.815	16.64
216.28	16.22
216.745	15.87
217.21	15.21
217.675	14.58
218.14	14.03
218.604	13.57
219.069	13.22
219.534	12.89
219.998	12.54
220.463	12.37
220.927	12.12
221.392	11.96
221.856	11.73
222.32	11.54
222.785	11.4
223.249	11.27
223.713	11.11
224.177	10.96
224.642	10.85
225.106	10.74
225.57	10.6
226.034	10.48
226.497	10.32
226.961	10.17
227.425	10.03
227.889	9.89
228.353	9.75
228.816	9.62
229.28	9.5
229.744	9.37
230.207	9.28
230.671	9.16
231.134	9.04
231.597	8.95
232.061	8.86
232.524	8.79
232.987	8.69
233.45	8.61
233.914	8.54
234.377	8.47
234.84	8.39
235.303	8.31
235.766	8.22
236.229	8.16
236.691	8.06
237.154	7.99
237.617	7.9
238.08	7.84
238.542	7.76
239.005	7.68
239.468	7.57
239.93	7.5
240.393	7.42
240.855	7.35
241.317	7.27
241.78	7.22
242.242	7.16
242.704	7.12
243.166	7.05
243.629	7
244.091	6.94
244.553	6.9
245.015	6.87
245.477	6.82
245.939	6.76
246.4	6.71
246.862	6.66
247.324	6.62
247.786	6.57
248.247	6.52
248.709	6.46
249.17	6.42
249.632	6.37
250.093	6.31
250.555	6.26
251.016	6.23
251.477	6.17
251.939	6.13
252.4	6.08
252.861	6.05
253.322	6.01
253.783	5.99
254.244	5.95
254.705	5.91
255.166	5.9
255.627	5.87
256.088	5.83
256.549	5.8
257.009	5.76
257.47	5.73
257.931	5.68
258.391	5.63
258.852	5.59
259.312	5.56
259.773	5.52
260.233	5.48
260.694	5.46
261.154	5.43
261.614	5.4
262.074	5.38
262.534	5.35
262.994	5.33
263.455	5.3
263.915	5.28
264.374	5.26
264.834	5.23
265.294	5.2
265.754	5.17
266.214	5.14
266.673	5.12
267.133	5.1
267.593	5.09
268.052	5.06
268.512	5.05
268.971	5.03
269.431	5.02
269.89	5
270.349	4.98
270.809	4.97
271.268	4.96
271.727	4.94
272.186	4.91
272.645	4.9
273.104	4.87
273.563	4.86
274.022	4.83
274.481	4.81
274.94	4.79
275.399	4.77
275.857	4.75
276.316	4.73
276.775	4.71
277.233	4.69
277.692	4.67
278.15	4.66
278.609	4.64
279.067	4.61
279.525	4.59
279.984	4.58
280.442	4.57
280.9	4.55
281.358	4.53
281.816	4.52
282.274	4.5
282.732	4.49
283.19	4.47
283.648	4.47
284.106	4.46
284.564	4.44
285.021	4.43
285.479	4.41
285.937	4.39
286.394	4.36
286.852	4.36
287.309	4.35
287.767	4.33
288.224	4.32
288.682	4.3
289.139	4.28
289.596	4.27
290.053	4.25
290.511	4.23
290.968	4.21
291.425	4.21
291.882	4.18
292.339	4.17
292.796	4.14
293.252	4.13
293.709	4.11
294.166	4.09
294.623	4.08
295.079	4.07
295.536	4.07
295.992	4.06
296.449	4.05
296.905	4.03
297.362	4.02
297.818	4.01
298.274	4
298.731	3.99
299.187	3.97
299.643	3.96
300.099	3.94
300.555	3.92
301.011	3.91
301.467	3.9
301.923	3.89
302.379	3.88
302.835	3.87
303.291	3.85
303.746	3.85
304.202	3.84
304.658	3.83
305.113	3.82
305.569	3.81
306.024	3.8
306.479	3.79
306.935	3.78
307.39	3.77
307.845	3.76
308.301	3.76
308.756	3.76
309.211	3.76
309.666	3.75
310.121	3.74
310.576	3.72
311.031	3.71
311.486	3.7
311.94	3.7
312.395	3.7
312.85	3.69
313.305	3.68
313.759	3.66
314.214	3.66
314.668	3.66
315.123	3.66
315.577	3.65
316.032	3.65
316.486	3.65
316.94	3.64
317.394	3.62
317.849	3.61
318.303	3.6
318.757	3.59
319.211	3.58
319.665	3.56
320.119	3.55
320.572	3.55
321.026	3.54
321.48	3.53
321.934	3.53
322.387	3.53
322.841	3.52
323.295	3.51
323.748	3.51
324.202	3.51
324.655	3.5
325.108	3.49
325.562	3.47
326.015	3.46
326.468	3.45
326.921	3.44
327.374	3.43
327.827	3.43
328.28	3.42
328.733	3.41
329.186	3.4
329.639	3.4
330.092	3.4
330.545	3.4
330.997	3.4
331.45	3.41
331.903	3.4
332.355	3.4
332.808	3.39
333.26	3.38
333.713	3.38
334.165	3.38
334.617	3.38
335.069	3.37
335.522	3.36
335.974	3.36
336.426	3.34
336.878	3.34
337.33	3.34
337.782	3.34
338.234	3.34
338.686	3.33
339.137	3.32
339.589	3.31
340.041	3.3
340.493	3.29
340.944	3.27
341.396	3.27
341.847	3.27
342.299	3.26
342.75	3.24
343.201	3.23
343.653	3.22
344.104	3.21
344.555	3.21
345.006	3.19
345.457	3.19
345.908	3.19
346.359	3.2
346.81	3.19
347.261	3.18
347.712	3.17
348.163	3.16
348.613	3.15
349.064	3.13
349.515	3.12
349.965	3.11
350.416	3.11
350.866	3.1
351.317	3.08
351.767	3.07
352.217	3.06
352.668	3.06
353.118	3.07
353.568	3.08
354.018	3.09
354.468	3.09
354.918	3.1
355.368	3.1
355.818	3.09
356.268	3.09
356.718	3.09
357.168	3.08
357.617	3.08
358.067	3.07
358.517	3.05
358.966	3.05
359.416	3.05
359.865	3.04
360.315	3.03
360.764	3.03
361.213	3.03
361.663	3.01
362.112	3.02
362.561	3.01
363.01	3.01
363.459	3
363.908	3
364.357	3
364.806	2.99
365.255	3
365.703	2.99
366.152	2.99
366.601	3
367.05	3
367.498	3
367.947	3
368.395	3.01
368.844	3
369.292	3
369.74	3.01
370.189	3
370.637	3
371.085	3
371.533	3
371.981	3
372.429	2.99
372.877	2.99
373.325	2.98
373.773	2.98
374.221	2.98
374.669	2.97
375.116	2.97
375.564	2.97
376.012	2.97
376.459	2.98
376.907	2.99
377.354	2.98
377.801	3
378.249	3.01
378.696	3.02
379.143	3.02
379.591	3.03
380.038	3.05
380.485	3.06
380.932	3.07
381.379	3.07
381.826	3.08
382.273	3.08
382.72	3.09
383.166	3.09
383.613	3.09
384.06	3.1
384.506	3.11
384.953	3.12
385.4	3.13
385.846	3.14
386.292	3.14
386.739	3.14
387.185	3.16
387.631	3.17
388.078	3.18
388.524	3.18
388.97	3.2
389.416	3.21
389.862	3.22
390.308	3.23
390.754	3.24
391.2	3.27
391.645	3.3
392.091	3.32
392.537	3.33
392.983	3.35
393.428	3.37
393.874	3.39
394.319	3.41
394.765	3.43
395.21	3.43
395.655	3.45
396.101	3.46
396.546	3.46
396.991	3.47
397.436	3.47
397.881	3.48
398.326	3.49
398.771	3.51
399.216	3.53
399.661	3.53
400.106	3.56
400.551	3.56
400.995	3.56
401.44	3.56
401.885	3.57
402.329	3.58
402.774	3.58
403.218	3.59
403.663	3.57
404.107	3.57
404.551	3.58
404.995	3.56
405.44	3.56
405.884	3.57
406.328	3.56
406.772	3.57
407.216	3.58
407.66	3.6
408.104	3.58
408.547	3.59
408.991	3.58
409.435	3.59
409.879	3.61
410.322	3.63
410.766	3.65
411.209	3.66
411.653	3.65
412.096	3.64
412.54	3.64
412.983	3.65
413.426	3.68
413.869	3.69
414.312	3.69
414.756	3.69
415.199	3.69
415.642	3.7
416.085	3.71
416.527	3.72
416.97	3.74
417.413	3.73
417.856	3.72
418.298	3.71
418.741	3.71
419.184	3.71
419.626	3.69
420.069	3.69
420.511	3.68
420.953	3.68
421.396	3.68
421.838	3.69
422.28	3.72
422.722	3.74
423.164	3.75
423.606	3.77
424.048	3.75
424.49	3.77
424.932	3.76
425.374	3.76
425.816	3.76
426.258	3.77
426.699	3.75
427.141	3.72
427.582	3.72
428.024	3.71
428.465	3.7
428.907	3.71
429.348	3.71
429.789	3.71
430.231	3.72
430.672	3.72
431.113	3.72
431.554	3.72
431.995	3.75
432.436	3.77
432.877	3.78
433.318	3.79
433.759	3.79
434.2	3.8
434.64	3.8
435.081	3.79
435.522	3.81
435.962	3.82
436.403	3.84
436.843	3.82
437.284	3.81
437.724	3.82
438.164	3.82
438.604	3.83
439.045	3.84
439.485	3.85
439.925	3.85
440.365	3.85
440.805	3.85
441.245	3.83
441.685	3.83
442.125	3.85
442.564	3.84
443.004	3.85
443.444	3.86
443.883	3.86
444.323	3.86
444.762	3.89
445.202	3.92
445.641	3.94
446.081	3.97
446.52	3.97
446.959	3.97
447.398	4.02
447.837	4.05
448.276	4.06
448.716	4.09
449.154	4.12
449.593	4.11
450.032	4.12
450.471	4.13
450.91	4.13
451.349	4.16
451.787	4.17
452.226	4.15
452.664	4.15
453.103	4.14
453.541	4.13
453.98	4.13
454.418	4.13
454.856	4.12
455.295	4.1
455.733	4.1
456.171	4.08
456.609	4.08
457.047	4.07
457.485	4.08
457.923	4.08
458.361	4.06
458.798	4.08
459.236	4.07
459.674	4.06
460.111	4.06
460.549	4.05
460.987	4.06
461.424	4.06
461.862	4.05
462.299	4.05
462.736	4.06
463.173	4.08
463.611	4.08
464.048	4.11
464.485	4.12
464.922	4.13
465.359	4.16
465.796	4.17
466.233	4.17
466.67	4.2
467.106	4.19
467.543	4.19
467.98	4.19
468.416	4.16
468.853	4.13
469.29	4.13
469.726	4.12
470.162	4.1
470.599	4.09
471.035	4.08
471.471	4.05
471.907	4.05
472.344	4.04
472.78	4.04
473.216	4.05
473.652	4.06
474.088	4.08
474.523	4.07
474.959	4.08
475.395	4.06
475.831	4.07
476.266	4.09
476.702	4.09
477.138	4.08
477.573	4.07
478.008	4.06
478.444	4.06
478.879	4.05
479.314	4.04
479.75	4.04
480.185	4.03
480.62	4.02
481.055	4
481.49	3.99
481.925	3.99
482.36	3.99
482.795	3.99
483.229	3.99
483.664	3.99
484.099	3.99
484.534	3.98
484.968	3.98
485.403	3.98
485.837	4
486.271	4.01
486.706	4.01
487.14	4.03
487.574	4.04
488.009	4.05
488.443	4.05
488.877	4.06
489.311	4.09
489.745	4.11
490.179	4.14
490.613	4.17
491.046	4.2
491.48	4.23
491.914	4.26
492.348	4.29
492.781	4.32
493.215	4.36
493.648	4.4
494.082	4.45
494.515	4.48
494.948	4.52
495.382	4.56
495.815	4.61
496.248	4.66
496.681	4.72
497.114	4.77
497.547	4.83
497.98	4.91
498.413	4.99
498.846	5.05
499.279	5.14
499.711	5.22
500.144	5.3
500.577	5.39
501.009	5.49
501.442	5.59
501.874	5.7
502.306	5.8
502.739	5.91
503.171	6.02
503.603	6.16
504.036	6.29
504.468	6.44
504.9	6.59
505.332	6.73
505.764	6.89
506.196	7.06
506.627	7.23
507.059	7.41
507.491	7.6
507.923	7.8
508.354	8
508.786	8.21
509.217	8.4
509.649	8.61
510.08	8.84
510.512	9.05
510.943	9.3
511.374	9.54
511.805	9.79
512.237	10.03
512.668	10.27
513.099	10.53
513.53	10.79
513.961	11.07
514.391	11.34
514.822	11.63
515.253	11.92
515.684	12.18
516.114	12.46
516.545	12.76
516.975	13.05
517.406	13.36
517.836	13.65
518.267	13.94
518.697	14.25
519.127	14.55
519.558	14.84
519.988	15.14
520.418	15.41
520.848	15.7
521.278	15.99
521.708	16.39
522.138	16.64
522.567	16.91
522.997	17.18
523.427	17.43
523.857	17.67
524.286	17.91
524.716	18.14
525.145	18.4
525.575	18.63
526.004	18.84
526.433	18.94
526.863	19.18
527.292	19.39
527.721	19.58
528.15	19.76
528.579	19.98
529.008	20.14
529.437	20.3
529.866	20.44
530.295	20.58
530.724	20.73
531.152	20.87
531.581	21
532.01	21.12
532.438	21.25
532.867	21.36
533.295	21.45
533.723	21.58
534.152	21.68
534.58	21.77
535.008	21.85
535.436	21.91
535.865	21.98
536.293	22.05
536.721	22.1
537.149	22.16
537.576	22.22
538.004	22.26
538.432	22.3
538.86	22.34
539.287	22.39
539.715	22.44
540.143	22.48
540.57	22.51
540.998	22.54
541.425	22.58
541.852	22.6
542.28	22.6
542.707	22.65
543.134	22.68
543.561	22.71
543.988	22.74
544.415	22.76
544.842	22.81
545.269	22.84
545.696	22.85
546.123	22.88
546.549	22.91
546.976	22.96
547.403	22.96
547.829	22.97
548.256	23.01
548.682	23.01
549.108	23.03
549.535	23.03
549.961	23
550.387	23.01
550.813	22.99
551.24	22.98
551.666	22.98
552.092	22.98
552.518	22.95
552.943	22.94
553.369	22.92
553.795	22.89
554.221	22.86
554.646	22.85
555.072	22.83
555.498	22.8
555.923	22.73
556.349	22.65
556.774	22.59
557.199	22.53
557.625	22.44
558.05	22.34
558.475	22.24
558.9	22.17
559.325	22.07
559.75	21.94
560.175	21.83
560.6	21.73
561.025	21.64
561.449	21.52
561.874	21.39
562.299	21.28
562.723	21.17
563.148	21.04
563.572	20.91
563.997	20.76
564.421	20.63
564.846	20.49
565.27	20.33
565.694	20.16
566.118	20.01
566.542	19.88
566.966	19.72
567.39	19.56
567.814	19.38
568.238	19.21
568.662	19.04
569.086	18.87
569.509	18.72
569.933	18.56
570.357	18.4
570.78	18.24
571.204	18.07
571.627	17.92
572.05	17.78
572.474	17.64
572.897	17.49
573.32	17.34
573.743	17.2
574.166	17.05
574.589	16.91
575.012	16.79
575.435	16.66
575.858	16.54
576.281	16.4
576.704	16.28
577.126	16.17
577.549	16.05
577.972	15.96
578.394	15.84
578.817	15.75
579.239	15.65
579.661	15.56
580.084	15.47
580.506	15.37
580.928	15.29
581.35	15.19
581.772	15.13
582.194	15.05
582.616	14.97
583.038	14.89
583.46	14.82
583.882	14.74
584.303	14.66
584.725	14.58
585.147	14.5
585.568	14.43
585.99	14.36
586.411	14.29
586.833	14.23
587.254	14.17
587.675	14.13
588.096	14.06
588.518	14.01
588.939	13.94
589.36	13.88
589.781	13.82
590.202	13.78
590.623	13.73
591.043	13.67
591.464	13.62
591.885	13.56
592.305	13.52
592.726	13.48
593.147	13.45
593.567	13.4
593.987	13.38
594.408	13.34
594.828	13.31
595.248	13.28
595.669	13.26
596.089	13.22
596.509	13.18
596.929	13.14
597.349	13.1
597.769	13.07
598.189	13.04
598.608	13
599.028	12.96
599.448	12.94
599.867	12.89
600.287	12.84
600.706	12.8
601.126	12.77
601.545	12.71
601.965	12.67
602.384	12.61
602.803	12.55
603.222	12.49
603.641	12.44
604.061	12.37
604.48	12.31
604.898	12.23
605.317	12.17
605.736	12.11
606.155	12.05
606.574	11.99
606.992	11.92
607.411	11.86
607.829	11.75
608.248	11.68
608.666	11.6
609.085	11.52
609.503	11.45
609.921	11.38
610.339	11.31
610.758	11.23
611.176	11.14
611.594	11.07
612.012	10.98
612.43	10.97
612.847	10.89
613.265	10.84
613.683	10.76
614.101	10.7
614.518	10.62
614.936	10.54
615.353	10.46
615.771	10.39
616.188	10.33
616.606	10.27
617.023	10.2
617.44	10.14
617.857	10.07
618.274	10.02
618.691	9.98
619.108	9.93
619.525	9.89
619.942	9.86
620.359	9.84
620.776	9.81
621.192	9.77
621.609	9.75
622.026	9.73
622.442	9.71
622.859	9.69
623.275	9.66
623.691	9.63
624.108	9.62
624.524	9.59
624.94	9.57
625.356	9.55
625.772	9.55
626.188	9.54
626.604	9.53
627.02	9.52
627.436	9.52
627.852	9.52
628.268	9.51
628.683	9.5
629.099	9.5
629.514	9.48
629.93	9.47
630.345	9.43
630.761	9.4
631.176	9.37
631.591	9.34
632.007	9.29
632.422	9.25
632.837	9.2
633.252	9.14
633.667	9.07
634.082	9.01
634.497	8.95
634.911	8.89
635.326	8.8
635.741	8.71
636.155	8.62
636.57	8.52
636.984	8.43
637.399	8.32
637.813	8.21
638.228	8.11
638.642	8.01
639.056	7.89
639.47	7.78
639.884	7.67
640.298	7.56
640.712	7.46
641.126	7.35
641.54	7.24
641.954	7.15
642.368	7.05
642.781	6.95
643.195	6.86
643.609	6.76
644.022	6.66
644.436	6.57
644.849	6.49
645.262	6.41
645.676	6.31
646.089	6.24
646.502	6.16
646.915	6.1
647.328	6.03
647.741	5.96
648.154	5.92
648.567	5.89
648.98	5.85
649.393	5.8
649.805	5.76
650.218	5.75
650.631	5.72
651.043	5.68
651.456	5.65
651.868	5.61
652.28	5.59
652.693	5.54
653.105	5.5
653.517	5.47
653.929	5.44
654.341	5.4
654.753	5.34
655.165	5.3
655.577	5.26
655.989	5.19
656.401	5.14
656.813	5.09
657.224	5.03
657.636	4.98
658.047	4.92
658.459	4.85
658.87	4.79
659.282	4.75
659.693	4.68
660.104	4.63
660.515	4.59
660.926	4.54
661.338	4.48
661.749	4.44
662.159	4.39
662.57	4.34
662.981	4.3
663.392	4.24
663.803	4.2
664.213	4.17
664.624	4.13
665.035	4.08
665.445	4.06
665.855	4.04
666.266	4.02
666.676	4
667.086	3.98
667.497	3.96
667.907	3.95
668.317	3.93
668.727	3.93
669.137	3.92
669.547	3.93
669.956	3.91
670.366	3.91
670.776	3.91
671.186	3.9
671.595	3.91
672.005	3.93
672.414	3.95
672.824	3.96
673.233	3.98
673.642	3.99
674.052	4.01
674.461	4.04
674.87	4.06
675.279	4.09
675.688	4.11
676.097	4.14
676.506	4.17
676.915	4.2
677.323	4.23
677.732	4.27
678.141	4.31
678.549	4.34
678.958	4.38
679.366	4.42
679.775	4.47
680.183	4.53
680.592	4.58
681	4.64
681.408	4.71
681.816	4.77
682.224	4.85
682.632	4.94
683.04	5.03
683.448	5.14
683.856	5.26
684.264	5.38
684.671	5.51
685.079	5.67
685.487	5.85
685.894	6.04
686.302	6.26
686.709	6.48
687.116	6.74
687.524	7.02
687.931	7.32
688.338	7.66
688.745	8.02
689.152	8.4
689.559	8.81
689.966	9.24
690.373	9.69
690.78	10.16
691.187	10.66
691.593	11.16
692	11.69
692.407	12.24
692.813	12.8
693.22	13.36
693.626	13.96
694.032	14.56
694.439	15.16
694.845	15.77
695.251	16.4
695.657	17.02
696.063	17.63
696.469	18.26
696.875	18.86
697.281	19.46
697.687	20.09
698.093	20.7
698.498	21.3
698.904	21.88
699.31	22.45
699.715	23.02
700.12	23.59
700.526	24.16
700.931	24.68
701.337	25.24
701.742	25.79
702.147	26.31
702.552	26.81
702.957	27.3
703.362	27.82
703.767	28.32
704.172	28.82
704.577	29.32
704.981	29.8
705.386	30.28
705.791	30.74
706.195	31.19
706.6	31.63
707.004	32.07
707.408	32.52
707.813	32.95
708.217	33.36
708.621	33.75
709.025	34.16
709.43	34.55
709.834	34.99
710.237	35.36
710.641	35.76
711.045	36.12
711.449	36.48
711.853	36.87
712.256	37.21
712.66	37.57
713.064	37.93
713.467	38.27
713.87	38.61
714.274	38.94
714.677	39.25
715.08	39.54
715.484	39.86
715.887	40.18
716.29	40.49
716.693	40.79
717.096	41.08
717.499	41.37
717.901	41.64
718.304	41.89
718.707	42.12
719.109	42.43
719.512	42.71
719.915	42.97
720.317	43.23
720.719	43.46
721.122	43.7
721.524	43.94
721.926	44.17
722.328	44.41
722.731	44.62
723.133	44.83
723.535	45.04
723.937	45.23
724.338	45.38
724.74	45.56
725.142	45.8
725.544	45.96
725.945	46.11
726.347	46.26
726.748	46.38
727.15	46.52
727.551	46.68
727.952	46.78
728.354	46.92
728.755	47.09
729.156	47.21
729.557	47.3
729.958	47.44
730.359	47.57
730.76	47.66
731.161	47.8
731.562	47.92
731.962	47.98
732.363	48.07
732.763	48.2
733.164	48.25
733.564	48.35
733.965	48.37
734.365	48.44
734.766	48.51
735.166	48.58
735.566	48.63
735.966	48.68
736.366	48.75
736.766	48.81
737.166	48.86
737.566	48.92
737.966	48.97
738.365	49.05
738.765	49.08
739.165	49.11
739.564	49.16
739.964	49.22
740.363	49.29
740.763	49.34
741.162	49.4
741.561	49.43
741.96	49.51
742.36	49.56
742.759	49.56
743.158	49.61
743.557	49.66
743.955	49.73
744.354	49.75
744.753	49.76
745.152	49.78
745.55	49.8
745.949	49.82
746.348	49.82
746.746	49.84
747.144	49.9
747.543	49.93
747.941	49.98
748.339	49.99
748.737	50.03
749.136	50.04
749.534	50.08
749.932	50.07
750.33	50.08
750.727	50.08
751.125	50.06
751.523	50.06
751.921	50.07
752.318	50.06
752.716	50.02
753.113	49.98
753.511	50
753.908	49.99
754.305	50.01
754.703	49.98
755.1	50
755.497	50.04
755.894	50.02
756.291	49.98
756.688	49.97
757.085	49.99
757.482	50.03
757.878	50.01
758.275	50.02
758.672	50.03
759.068	50.06
759.465	50.08
759.861	50.04
760.258	50.03
760.654	50.05
761.05	50.05
761.447	50.05
761.843	50.03
762.239	50.03
762.635	50.02
763.031	50.02
763.427	50
763.822	49.95
764.218	49.93
764.614	49.91
765.01	49.9
765.405	49.9
765.801	49.9
766.196	49.93
766.592	49.94
766.987	49.93
767.382	49.91
767.778	49.92
768.173	49.93
768.568	49.9
768.963	49.91
769.358	49.94
769.753	49.95
770.148	49.95
770.542	49.91
770.937	49.88
771.332	49.89
771.726	49.89
772.121	49.84
772.515	49.83
772.91	49.89
773.304	49.91
773.699	49.9
774.093	49.85
774.487	49.86
774.881	49.87
775.275	49.91
775.669	49.88
776.063	49.86
776.457	49.85
776.851	49.85
777.245	49.84
777.638	49.84
778.032	49.8
778.425	49.82
778.819	49.81
779.212	49.79
779.606	49.78
779.999	49.77
780.392	49.79
780.786	49.82
781.179	49.84
781.572	49.81
781.965	49.8
782.358	49.79
782.751	49.76
783.143	49.76
783.536	49.79
783.929	49.82
784.322	49.86
784.714	49.87
785.107	49.85
785.499	49.83
785.891	49.82
786.284	49.77
786.676	49.81
787.068	49.82
787.46	49.81
787.852	49.79
788.245	49.74
788.636	49.71
789.028	49.69
789.42	49.67
789.812	49.71
790.204	49.68
790.595	49.7
790.987	49.7
791.378	49.69
791.77	49.7
792.161	49.66
792.553	49.69
792.944	49.73
793.335	49.74
793.726	49.74
794.117	49.71
794.508	49.76
794.899	49.74
795.29	49.74
795.681	49.73
796.072	49.72
796.463	49.74
796.853	49.74
797.244	49.69
797.634	49.66
798.025	49.66
798.415	49.69
798.806	49.68
799.196	49.73
799.586	49.72
799.976	49.71
800.366	49.69
800.756	49.66
801.146	49.64
801.536	49.66
801.926	49.67
802.316	49.69
802.706	49.7
803.095	49.67
803.485	49.66
803.874	49.65
804.264	49.7
804.653	49.7
805.043	49.71
805.432	49.69
805.821	49.66
806.21	49.7
806.599	49.73
806.988	49.71
807.377	49.69
807.766	49.68
808.155	49.7
808.544	49.67
808.933	49.66
809.321	49.68
809.71	49.71
810.098	49.72
810.487	49.71
810.875	49.66
811.264	49.66
811.652	49.71
812.04	49.72
812.428	49.7
812.816	49.72
813.204	49.73
813.592	49.73
813.98	49.71
814.368	49.74
814.756	49.72
815.144	49.75
815.531	49.73
815.919	49.71
816.306	49.7
816.694	49.73
817.081	49.7
817.469	49.7
817.856	49.72
818.243	49.73
818.63	49.75
819.017	49.77
819.404	49.74
819.791	49.74
820.178	49.73
820.565	49.73
820.952	49.71
821.339	49.77
821.725	49.76
822.112	49.78
822.498	49.79
822.885	49.78
823.271	49.77
823.657	49.81
824.044	49.82
824.43	49.85
824.816	49.86
825.202	49.9
825.588	49.88
825.974	49.87
826.36	49.83
826.746	49.84
827.132	49.82
827.517	49.84
827.903	49.83
828.289	49.84
828.674	49.82
829.06	49.84
829.445	49.83
829.83	49.83
830.216	49.88
830.601	49.9
830.986	49.9
831.371	49.94
831.756	49.9
832.141	49.94
832.526	49.96
832.911	50.01
833.295	50
833.68	50.01
834.065	50.03
834.449	50
834.834	50
835.218	49.96
835.603	49.96
835.987	49.96
836.371	49.95
836.755	49.92
837.139	49.89
837.524	49.88
837.908	49.86
838.291	49.85
838.675	49.88
839.059	49.89
839.443	49.93
839.827	49.93
840.21	49.97
840.594	49.95
840.977	49.95
841.361	50
841.744	50.02
842.127	50.01
842.511	49.99
842.894	49.94
843.277	49.95
843.66	49.98
844.043	50
844.426	49.98
844.809	49.98
845.191	49.98
845.574	49.95
845.957	49.92
846.339	49.91
846.722	49.94
847.104	49.95
847.487	49.94
847.869	49.89
848.252	49.86
848.634	49.85
849.016	49.84
849.398	49.84
849.78	49.84
850.162	49.87
850.544	49.9
850.926	49.89
851.307	49.89
851.689	49.87
852.071	49.88
852.452	49.9
852.834	49.9
853.215	49.92
853.597	49.93
853.978	49.93
854.359	49.91
854.741	49.91
855.122	49.87
855.503	49.9
855.884	49.9
856.265	49.9
856.646	49.87
857.026	49.88
857.407	49.84
857.788	49.85
858.169	49.83
858.549	49.85
858.93	49.83
859.31	49.84
859.69	49.82
860.071	49.82
860.451	49.79
860.831	49.81
861.211	49.79
861.591	49.81
861.971	49.78
862.351	49.8
862.731	49.77
863.111	49.78
863.491	49.79
863.87	49.77
864.25	49.78
864.629	49.8
865.009	49.79
865.388	49.8
865.768	49.78
866.147	49.79
866.526	49.8
866.905	49.83
867.284	49.82
867.663	49.81
868.042	49.81
868.421	49.78
868.8	49.77
869.179	49.77
869.558	49.75
869.936	49.78
870.315	49.77
870.693	49.78
871.072	49.76
871.45	49.74
871.828	49.75
872.207	49.77
872.585	49.76
872.963	49.76
873.341	49.76
873.719	49.76
874.097	49.76
874.475	49.76
874.853	49.73
875.23	49.73
875.608	49.74
875.986	49.77
876.363	49.75
876.741	49.78
877.118	49.78
877.495	49.78
877.873	49.76
878.25	49.72
878.627	49.7
879.004	49.71
879.381	49.68
879.758	49.66
880.135	49.66
880.512	49.66
880.889	49.63
881.265	49.65
881.642	49.64
882.019	49.66
882.395	49.69
882.772	49.72
883.148	49.73
883.524	49.77
883.901	49.77
884.277	49.72
884.653	49.75
885.029	49.77
885.405	49.77
885.781	49.75
886.157	49.77
886.532	49.76
886.908	49.75
887.284	49.76
887.659	49.74
888.035	49.77
888.411	49.8
888.786	49.8
889.161	49.79
889.537	49.78
889.912	49.78
890.287	49.77
890.662	49.77
891.037	49.75
891.412	49.74
891.787	49.75
892.162	49.73
892.536	49.75
892.911	49.73
893.286	49.71
893.66	49.71
894.035	49.71
894.409	49.72
894.784	49.74
895.158	49.73
895.532	49.72
895.906	49.72
896.281	49.69
896.655	49.67
897.029	49.65
897.402	49.65
897.776	49.66
898.15	49.65
898.524	49.63
898.898	49.6
899.271	49.6
899.645	49.56
900.018	49.52
900.392	49.52
900.765	49.5
901.138	49.49
901.511	49.49
901.884	49.45
902.258	49.42
902.631	49.42
903.003	49.42
903.376	49.41
903.749	49.44
904.122	49.45
904.495	49.45
904.867	49.46
905.24	49.44
905.612	49.42
905.985	49.42
906.357	49.4
906.729	49.37
907.102	49.36
907.474	49.36
907.846	49.33
908.218	49.32
908.59	49.31
908.962	49.29
909.334	49.26
909.705	49.27
910.077	49.23
910.449	49.23
910.82	49.23
911.192	49.22
911.563	49.17
911.935	49.16
912.306	49.14
912.677	49.13
913.048	49.14
913.419	49.16
913.79	49.14
914.161	49.16
914.532	49.16
914.903	49.12
915.274	49.11
915.645	49.15
916.015	49.18
916.386	49.19
916.756	49.15
917.127	49.1
917.497	49.1
917.868	49.11
918.238	49.12
918.608	49.13
918.978	49.15
919.348	49.11
919.718	49.04
920.088	49.04
920.458	49.06
920.828	49.09
921.198	49.15
921.567	49.12
921.937	49.12
922.306	49.12
922.676	49.11
923.045	49.12
923.415	49.14
923.784	49.17
924.153	49.16
924.522	49.13
924.891	49.1
925.26	49.09
925.629	49.06
925.998	49.05
926.367	49.02
926.736	48.99
927.104	48.99
927.473	48.99
927.842	48.94
928.21	48.98
928.578	48.96
928.947	48.95
929.315	48.96
929.683	49.03
930.051	49
930.42	48.99
930.788	48.98
931.156	48.94
931.523	48.98
931.891	48.99
932.259	48.94
932.627	48.91
932.994	48.92
933.362	48.86
933.729	48.78
934.097	48.72
934.464	48.72
934.831	48.66
935.199	48.68
935.566	48.6
935.933	48.61
936.3	48.55
936.667	48.51
937.034	48.49
937.401	48.46
937.767	48.41
938.134	48.45
938.501	48.37
938.867	48.44
939.234	48.39
939.6	48.34
939.967	48.23
940.333	48.27
940.699	48.34
941.065	48.26
941.431	48.29
941.798	48.35
942.163	48.36
942.529	48.34
942.895	48.29
943.261	48.25
943.627	48.33
943.992	48.4
944.358	48.35
944.723	48.29
945.089	48.31
945.454	48.4
945.82	48.37
946.185	48.37
946.55	48.44
946.915	48.44
947.28	48.42
947.645	48.39
948.01	48.38
948.375	48.46
948.74	48.51
949.104	48.49
949.469	48.36
949.834	48.4
950.198	48.38
950.562	48.33
950.927	48.32
951.291	48.37
951.655	48.39
952.02	48.31
952.384	48.26
952.748	48.18
953.112	48.18
953.476	48.17
953.839	48.07
954.203	47.99
954.567	47.96
954.931	47.99
955.294	48.04
955.658	47.97
956.021	47.97
956.385	47.96
956.748	47.95
957.111	47.93
957.474	47.94
957.837	48
958.2	48.02
958.563	48.02
958.926	47.98
959.289	47.93
959.652	47.93
960.015	47.95
960.377	47.91
960.74	47.9
961.102	47.88
961.465	47.91
961.827	47.83
962.189	47.78
962.552	47.74
962.914	47.67
963.276	47.7
963.638	47.71
964	47.64
964.362	47.63
964.724	47.67
965.085	47.71
965.447	47.69
965.809	47.67
966.17	47.74
966.532	47.75
966.893	47.77
967.255	47.67
967.616	47.7
967.977	47.75
968.338	47.7
968.699	47.62
969.061	47.58
969.421	47.54
969.782	47.56
970.143	47.53
970.504	47.57
970.865	47.52
971.225	47.52
971.586	47.51
971.946	47.52
972.307	47.61
972.667	47.65
973.027	47.64
973.388	47.6
973.748	47.6
974.108	47.64
974.468	47.58
974.828	47.71
975.188	47.68
975.548	47.61
975.907	47.58
976.267	47.52
976.627	47.52
976.986	47.5
977.346	47.54
977.705	47.58
978.064	47.53
978.424	47.55
978.783	47.41
979.142	47.43
979.501	47.4
979.86	47.41
980.219	47.35
980.578	47.32
980.937	47.29
981.296	47.3
981.654	47.28
982.013	47.24
982.371	47.3
982.73	47.26
983.088	47.24
983.447	47.32
983.805	47.26
984.163	47.21
984.521	47.08
984.879	47.17
985.237	47.15
985.595	47.2
985.953	47.21
986.311	47.14
986.669	47.23
987.026	47.24
987.384	47.17
987.741	47.25
988.099	47.3
988.456	47.43
988.814	47.36
989.171	47.29
989.528	47.1
989.885	47.01
990.242	46.97
990.599	46.93
990.956	47.04
991.313	46.96
991.67	46.86
992.027	47.01
992.383	46.99
992.74	46.97
993.096	47.02
993.453	47.05
993.809	47.06
994.165	47.01
994.522	47.12
994.878	46.92
995.234	46.96
995.59	46.92
995.946	46.73
996.302	46.66
996.658	46.65
997.013	46.68
997.369	46.68
997.725	46.79
998.08	46.76
998.436	46.56
998.791	46.49
999.147	46.51
999.502	46.55
999.857	46.67
1000.212	46.8
1000.567	46.66
1000.922	46.49
1001.277	46.42
1001.632	46.4
1001.987	46.37
1002.342	46.43
1002.696	46.62
1003.051	46.49
1003.406	46.48
1003.76	46.41
1004.114	46.21
1004.469	46.33
1004.823	46.44
1005.177	46.4
1005.531	46.13
1005.885	46.15
1006.239	46.03
1006.593	46.01
1006.947	46.07
1007.301	45.97
1007.655	45.91
1008.008	46.09
1008.362	45.99
1008.715	45.99
1009.069	46.05
1009.422	46.35
1009.776	46.5
1010.129	46.5
1010.482	46.48
1010.835	46.46
1011.188	46.34
1011.541	45.97
1011.894	45.74
1012.247	45.62
1012.6	45.39
1012.952	45.35
1013.305	45.12
1013.657	44.83
1014.01	44.93
1014.362	44.77
1014.715	44.73
1015.067	45.02
1015.419	45.49
1015.771	45.74
1016.123	45.68
1016.475	45.88
1016.827	45.93
1017.179	45.88
1017.531	46.02
1017.883	46.08
1018.234	46.24
1018.586	46.13
1018.938	45.86
1019.289	45.76
1019.64	45.94
1019.992	46.14
1020.343	45.92
1020.694	45.83
1021.045	46.13
1021.396	46.02
1021.747	45.95
1022.098	45.74
1022.449	45.56
1022.8	45.55
1023.151	45.27
1023.501	44.81
1023.852	44.77
1024.202	44.91
1024.553	44.7
1024.903	44.47
1025.253	44.36
1025.604	44.39
1025.954	44.1
1026.304	44.82
1026.654	45.08
1027.004	45.39
1027.354	45.55
1027.703	45.67
1028.053	45.45
1028.403	45.46
1028.753	45.59
1029.102	45.69
1029.452	45.47
1029.801	45.77
1030.15	45.41
1030.499	45.25
897.758	710.7
901.051	724.39
904.343	726.38
907.636	715.67
910.928	703.98
914.22	713.67
917.511	703.88
920.803	676.61
924.094	646.26
927.384	649.92
930.675	630.8
933.965	622.28
937.255	619.56
940.544	595.97
943.834	564.86
947.123	554.78
950.411	528.42
953.7	514.53
956.988	499.34
960.276	476.51
963.563	472.22
966.851	447.27
970.138	437.41
973.424	406.95
976.711	398.93
979.997	387.66
983.283	380.82
986.568	367.24
989.853	355.64
993.138	343.79
996.423	338.73
999.708	326.87
1002.992	327.65
1006.275	316.17
1009.559	315.02
1012.842	305.75
1016.125	295
1019.408	288.87
1022.69	284.82
1025.972	284.3
1029.254	274.94
1032.536	270.42
1035.817	260.64
1039.098	256.81
1042.379	252.73
1045.659	248.18
1048.939	245.92
1052.219	241.98
1055.498	239.11
1058.778	235.59
1062.057	229.28
1065.335	228.41
1068.614	224.11
1071.892	222.35
1075.17	216.67
1078.447	214.46
1081.724	212.16
1085.001	209.47
1088.278	207.54
1091.554	203.9
1094.83	202.33
1098.106	199.64
1101.382	199.17
1104.657	198.66
1107.932	197.29
1111.206	196.21
1114.481	193.5
1117.755	192.48
1121.029	190.9
1124.302	189.13
1127.575	186.86
1130.848	186.76
1134.121	184.12
1137.393	182.83
1140.665	180.52
1143.937	179.19
1147.208	176.82
1150.48	175.35
1153.75	173.93
1157.021	172.34
1160.291	172.34
1163.561	171.55
1166.831	170.01
1170.101	169.95
1173.37	168.54
1176.639	167.54
1179.907	167.3
1183.176	167.52
1186.444	167.78
1189.711	166.87
1192.979	167.36
1196.246	167.02
1199.513	166.93
1202.78	167.14
1206.046	166.85
1209.312	168.04
1212.578	169.08
1215.843	171.44
1219.108	172.41
1222.373	175.24
1225.638	177.69
1228.902	182.32
1232.166	187.77
1235.43	190.77
1238.693	196.08
1241.956	201.21
1245.219	205.99
1248.482	207.05
1251.744	206
1255.006	207.74
1258.268	202.55
1261.529	200.84
1264.79	195.43
1268.051	191.03
1271.312	188.47
1274.572	185
1277.832	180.24
1281.092	177.68
1284.351	174.69
1287.61	174.53
1290.869	172.28
1294.128	171.91
1297.386	171.24
1300.644	170.57
1303.902	170.41
1307.159	169.58
1310.416	170.19
1313.673	172.43
1316.93	174.01
1320.186	176.98
1323.442	179
1326.697	182.85
1329.953	184.71
1333.208	191.43
1336.463	198.14
1339.717	202.38
1342.972	212.51
1346.226	218.41
1349.479	221.12
1352.733	231.25
1355.986	235.38
1359.238	241.09
1362.491	244.58
1365.743	253.21
1368.995	253.35
1372.247	254.4
1375.498	252.39
1378.749	261.19
1382	260.56
1385.251	259.91
1388.501	258.84
1391.751	262.78
1395	262.21
1398.25	263.37
1401.499	263.28
1404.748	263.95
1407.996	259.93
1411.244	261.48
1414.492	256.56
1417.74	250.35
1420.987	244.57
1424.234	240.03
1427.481	232.21
1430.728	225.87
1433.974	218.25
1437.22	210.01
1440.465	204.36
1443.711	198.39
1446.956	191.73
1450.201	183.98
1453.445	176.88
1456.689	172.22
1459.933	166.46
1463.177	159.16
1466.42	155.43
1469.663	150.48
1472.906	146.88
1476.148	141.41
1479.391	137.98
1482.633	135.81
1485.874	133.22
1489.115	131.55
1492.356	128.28
1495.597	126.28
1498.838	125.57
1502.078	124.34
1505.318	124.08
1508.557	123.36
1511.797	122.04
1515.036	121.85
1518.274	120.99
1521.513	119.77
1524.751	118.82
1527.989	119.86
1531.227	119.64
1534.464	119.27
1537.701	118.13
1540.938	117.73
1544.174	117.24
1547.41	117.31
1550.646	116.89
1553.882	117.05
1557.117	116.55
1560.352	116.08
1563.587	114.77
1566.821	114.77
1570.055	113.72
1573.289	113.31
1576.523	113.55
1579.756	112.58
1582.989	112.78
1586.222	111.59
1589.454	111.59
1592.686	111.39
1595.918	111.3
1599.15	111.4
1602.381	111.21
1605.612	111.62
1608.843	111.93
1612.073	112.09
1615.303	112.41
1618.533	111.56
1621.762	112.79
1624.992	112.05
1628.221	112.16
1631.449	112.4
1634.678	112.28
1637.906	111.96
1641.134	112.32
1644.361	111.84
1647.588	111.67
1650.815	111.95
1654.042	112.69
1657.269	111.63
1660.495	112.42
1663.72	112.59
1666.946	112.79
1670.171	113.14
1673.396	114.07
1676.621	114.58
1679.845	115.12
1683.069	114.75
1686.293	114.16
1689.517	114.08
1692.74	114.92
1695.963	115.15
1699.185	115.46
1702.408	115.4
1705.63	115.43
1708.852	116.34
1712.073	114.97
1715.294	114.85
1718.515	116.21
1721.736	116.93
1724.956	117.5
1728.176	117.38
1731.396	118.2
1734.616	117.93
1737.835	118.58
1741.054	118.12
1744.272	117.35
1747.491	118.48
1750.709	118.75
1753.927	118.22
1757.144	118.83
1760.361	118.92
1763.578	119.6
1766.795	119.66
1770.011	120.36
1773.227	120.95
1776.443	122.63
1779.658	123.57
1782.874	123.65
1786.089	124.82
1789.303	125.18
1792.518	126.04
1795.732	126.71
1798.945	128.2
1802.159	128.14
1805.372	130.02
1808.585	130.63
1811.797	131.16
1815.01	131.66
1818.222	133.23
1821.434	133.99
1824.645	135.23
1827.856	137.16
1831.067	137.65
1834.278	138.93
1837.488	140.3
1840.698	141.24
1843.908	141.63
1847.117	143.64
1850.326	144.77
1853.535	145.45
1856.744	147.65
1859.952	148.32
1863.16	148.35
1866.368	149.2
1869.575	149.62
1872.782	149.79
1875.989	148.14
1879.196	148.03
1882.402	146.9
1885.608	147.78
1888.814	147.78
1892.019	147.48
1895.224	146.23
1898.429	146.3
1901.634	147.05
1904.838	147.57
1908.042	147.89
1911.246	148.69
1914.449	149.53
1917.652	150.04
1920.855	150.24
1924.058	148.61
1927.26	148.92
1930.462	149.8
1933.664	149.55
1936.865	149.62
1940.066	148.33
1943.267	147.13
1946.467	147.81
1949.668	147.45
1952.868	147.81
1956.067	147.15
1959.267	149.43
1962.466	149.51
1965.665	151.07
1968.863	152.84
1972.061	153.21
1975.259	156.74
1978.457	157.84
1981.654	159.63
1984.852	161.35
1988.048	162.95
1991.245	165.57
1994.441	169.12
1997.637	172.8
2000.833	175.91
2004.028	176.72
2007.223	183.43
2010.418	186.08
2013.613	195.37
2016.807	200.11
2020.001	204.36
2023.194	210.02
2026.388	216.71
2029.581	226.78
2032.774	233.55
2035.966	240.24
2039.158	248.59
2042.35	251.36
2045.542	256.92
2048.733	265.72
2051.924	269.04
2055.115	274.11
2058.306	276.73
2061.496	282.44
2064.686	282.67
2067.875	281.61
2071.065	284.8
2074.254	285.45
2077.442	294.59
2080.631	295.36
2083.819	295.86
2087.007	301.76
2090.195	304.87
2093.382	305.08
2096.569	305.58
2099.756	310.01
2102.942	316.08
2106.128	323.91
2109.314	323.97
2112.5	322.29
2115.685	324.46
2118.87	325.37
2122.055	326.03
2125.239	334.1
2128.424	341.3
2131.608	339.44
2134.791	339.96
2137.974	340.91
2141.157	343.66
2144.34	349.26
2147.523	353.23
2150.705	359.72
2153.887	357.59
2157.068	363.42
2160.25	365.02
2163.431	363.98
2166.611	371.16
2169.792	378.35
2172.972	384.97
2176.152	381.97
2179.331	391.5
2182.511	392.44
2185.69	396.48
2188.868	411.06
2192.047	418.34
2195.225	424.01
2198.403	430.59
2201.58	425.06
2204.758	438.89
2207.935	439.77
2211.111	451.75
2214.288	452.96
2217.464	458.67
2220.64	461.02
2223.815	462.75
2226.991	461.3
2230.166	464.72
2233.34	480.19
2236.515	493.24
2239.689	483.1
2242.863	492.88
2246.036	483.42
2249.209	500.94
2252.382	498.29
2255.555	518.01
2258.727	520.92
2261.9	532.41
2265.071	542.11
2268.243	536.5
2271.414	552.17
2274.585	565.99
2277.756	566.48
2280.926	590.83
2284.096	585.66
2287.266	593.52
2290.436	578.95
2293.605	592.32
2296.774	617.62
2299.942	613.91
2303.111	632.13
2306.279	647.4
2309.447	648.81
2312.614	650.27
2315.781	666.98
2318.948	675
2322.115	686.43
2325.281	727.21
2328.447	724.25
2331.613	715.7
2334.779	730.83
2337.944	743.74
2341.109	754.07
2344.274	759.28
2347.438	783.83
2350.602	795.61
2353.766	841.85
2356.929	846.07
2360.092	850.18
2363.255	851.79
2366.418	873.25
2369.58	889.48
2372.742	883.31
2375.904	878.56
2379.066	906.49
2382.227	961.57
2385.388	962.86
2388.548	913.82
2391.709	903.61
2394.869	940.99
2398.029	943.82
2401.188	937.58
2404.347	967
2407.506	1000.67
2410.665	967.08
2413.823	972.56
2416.981	964.59
2420.139	911.91
2423.296	988.12
2426.453	1052.32
2429.61	1005.29
2432.767	1068.49
2435.923	1116.02
2439.079	1065.7
2442.235	1091.5
2445.391	1116.65
2448.546	1108.74
2451.701	1164.13
2454.855	1249.79
2458.009	1098.88
2461.163	1117.96
2464.317	1129.68
2467.471	1105.46
2470.624	1139.69
2473.777	1136.79
2476.929	1100.13
2480.082	1178.23
2483.234	1231.79
2486.385	1256.67
2489.537	1284.16
2492.688	1423.73
2495.839	1404.44
2498.989	1432.87
2502.14	1443.34
2505.29	1376.42
2508.439	1529.29
2511.589	1569.19
2514.738	1515.27
2517.887	1502.17
2521.035	1409.66
2524.183	1386.65
2527.331	1370.96
2530.479	1332.78
2533.627	1370.49
