Data from N_1_div_wi_4n_029_Splice17_09.txt Node
Date: Sat Feb 29 13:45:28 EST 2020
User: sa697716
Spectrometer: FLMS03696
Trigger mode: 0
Integration Time (sec): 3.180400E-1
Scans to average: 20
Electric dark correction enabled: true
Nonlinearity correction enabled: true
Boxcar width: 5
XAxis mode: Wavelengths
Number of Pixels in Spectrum: 2048
>>>>>Begin Spectral Data<<<<<
187.83	135.55
188.298	128.44
188.766	125.87
189.233	112
189.701	124.41
190.169	117.99
190.636	139.1
191.104	150.82
191.571	294.31
192.039	200.95
192.506	-368.64
192.974	1065.97
193.441	72.99
193.908	109.09
194.375	58.5
194.842	169.7
195.31	119.21
195.777	177.11
196.244	59.44
196.711	37.36
197.177	32.86
197.644	33.6
198.111	33.12
198.578	32.92
199.045	32.71
199.511	33.37
199.978	34.2
200.445	34.14
200.911	34.69
201.378	34.98
201.844	35.02
202.31	35.94
202.777	36.45
203.243	36.99
203.709	37.33
204.176	37.29
204.642	37.1
205.108	36.7
205.574	36.75
206.04	36.58
206.506	36.2
206.972	36.85
207.438	36.5
207.903	36.36
208.369	35.96
208.835	35.7
209.301	35.57
209.766	35.36
210.232	35.34
210.697	35.17
211.163	34.92
211.628	34.58
212.094	33.79
212.559	33.52
213.024	33.17
213.49	32.82
213.955	32.31
214.42	32.01
214.885	31.83
215.35	31.41
215.815	30.85
216.28	29.97
216.745	29.42
217.21	28.58
217.675	27.78
218.14	27.02
218.604	26.24
219.069	25.65
219.534	24.97
219.998	24.41
220.463	23.96
220.927	23.6
221.392	23.21
221.856	22.9
222.32	22.66
222.785	22.4
223.249	22.16
223.713	21.99
224.177	21.74
224.642	21.59
225.106	21.38
225.57	21.15
226.034	20.9
226.497	20.71
226.961	20.5
227.425	20.27
227.889	20.07
228.353	19.85
228.816	19.66
229.28	19.45
229.744	19.26
230.207	19.09
230.671	18.93
231.134	18.75
231.597	18.55
232.061	18.38
232.524	18.22
232.987	18.05
233.45	17.88
233.914	17.7
234.377	17.56
234.84	17.39
235.303	17.24
235.766	17.09
236.229	16.96
236.691	16.84
237.154	16.71
237.617	16.58
238.08	16.47
238.542	16.35
239.005	16.24
239.468	16.11
239.93	15.99
240.393	15.86
240.855	15.75
241.317	15.64
241.78	15.55
242.242	15.44
242.704	15.33
243.166	15.21
243.629	15.11
244.091	15.02
244.553	14.94
245.015	14.89
245.477	14.8
245.939	14.7
246.4	14.59
246.862	14.51
247.324	14.44
247.786	14.37
248.247	14.3
248.709	14.22
249.17	14.14
249.632	14.07
250.093	13.96
250.555	13.91
251.016	13.87
251.477	13.83
251.939	13.77
252.4	13.72
252.861	13.68
253.322	13.65
253.783	13.61
254.244	13.58
254.705	13.54
255.166	13.54
255.627	13.5
256.088	13.46
256.549	13.42
257.009	13.4
257.47	13.36
257.931	13.31
258.391	13.26
258.852	13.23
259.312	13.19
259.773	13.15
260.233	13.11
260.694	13.08
261.154	13.05
261.614	13.02
262.074	13
262.534	12.97
262.994	12.96
263.455	12.94
263.915	12.92
264.374	12.9
264.834	12.88
265.294	12.85
265.754	12.83
266.214	12.82
266.673	12.81
267.133	12.79
267.593	12.78
268.052	12.77
268.512	12.76
268.971	12.75
269.431	12.75
269.89	12.75
270.349	12.75
270.809	12.75
271.268	12.74
271.727	12.74
272.186	12.73
272.645	12.71
273.104	12.7
273.563	12.69
274.022	12.68
274.481	12.67
274.94	12.65
275.399	12.63
275.857	12.62
276.316	12.6
276.775	12.57
277.233	12.56
277.692	12.54
278.15	12.52
278.609	12.5
279.067	12.47
279.525	12.44
279.984	12.42
280.442	12.41
280.9	12.39
281.358	12.36
281.816	12.35
282.274	12.33
282.732	12.33
283.19	12.32
283.648	12.32
284.106	12.31
284.564	12.31
285.021	12.3
285.479	12.3
285.937	12.29
286.394	12.29
286.852	12.28
287.309	12.28
287.767	12.26
288.224	12.25
288.682	12.24
289.139	12.23
289.596	12.2
290.053	12.17
290.511	12.14
290.968	12.12
291.425	12.09
291.882	12.07
292.339	12.04
292.796	12.02
293.252	12
293.709	11.98
294.166	11.97
294.623	11.97
295.079	11.96
295.536	11.95
295.992	11.92
296.449	11.92
296.905	11.9
297.362	11.91
297.818	11.9
298.274	11.88
298.731	11.87
299.187	11.84
299.643	11.83
300.099	11.83
300.555	11.81
301.011	11.81
301.467	11.8
301.923	11.79
302.379	11.78
302.835	11.77
303.291	11.76
303.746	11.75
304.202	11.74
304.658	11.72
305.113	11.7
305.569	11.7
306.024	11.69
306.479	11.68
306.935	11.68
307.39	11.66
307.845	11.65
308.301	11.64
308.756	11.65
309.211	11.64
309.666	11.64
310.121	11.63
310.576	11.63
311.031	11.62
311.486	11.62
311.94	11.61
312.395	11.62
312.85	11.61
313.305	11.61
313.759	11.61
314.214	11.61
314.668	11.61
315.123	11.62
315.577	11.63
316.032	11.63
316.486	11.62
316.94	11.62
317.394	11.61
317.849	11.61
318.303	11.6
318.757	11.57
319.211	11.56
319.665	11.53
320.119	11.51
320.572	11.5
321.026	11.48
321.48	11.47
321.934	11.46
322.387	11.46
322.841	11.45
323.295	11.43
323.748	11.43
324.202	11.41
324.655	11.41
325.108	11.4
325.562	11.38
326.015	11.37
326.468	11.35
326.921	11.33
327.374	11.3
327.827	11.29
328.28	11.27
328.733	11.24
329.186	11.23
329.639	11.22
330.092	11.21
330.545	11.2
330.997	11.19
331.45	11.19
331.903	11.18
332.355	11.18
332.808	11.18
333.26	11.18
333.713	11.19
334.165	11.2
334.617	11.2
335.069	11.21
335.522	11.22
335.974	11.23
336.426	11.23
336.878	11.23
337.33	11.24
337.782	11.24
338.234	11.24
338.686	11.24
339.137	11.25
339.589	11.24
340.041	11.24
340.493	11.22
340.944	11.21
341.396	11.2
341.847	11.19
342.299	11.17
342.75	11.15
343.201	11.12
343.653	11.1
344.104	11.07
344.555	11.05
345.006	11.03
345.457	11.01
345.908	10.99
346.359	10.97
346.81	10.96
347.261	10.94
347.712	10.93
348.163	10.94
348.613	10.92
349.064	10.9
349.515	10.89
349.965	10.88
350.416	10.87
350.866	10.86
351.317	10.87
351.767	10.85
352.217	10.86
352.668	10.85
353.118	10.86
353.568	10.87
354.018	10.89
354.468	10.88
354.918	10.89
355.368	10.89
355.818	10.89
356.268	10.89
356.718	10.9
357.168	10.89
357.617	10.89
358.067	10.88
358.517	10.88
358.966	10.88
359.416	10.9
359.865	10.89
360.315	10.89
360.764	10.89
361.213	10.88
361.663	10.88
362.112	10.89
362.561	10.9
363.01	10.91
363.459	10.91
363.908	10.91
364.357	10.9
364.806	10.92
365.255	10.94
365.703	10.94
366.152	10.94
366.601	10.95
367.05	10.96
367.498	10.99
367.947	10.99
368.395	11.01
368.844	11.01
369.292	11.03
369.74	11.05
370.189	11.06
370.637	11.09
371.085	11.12
371.533	11.13
371.981	11.15
372.429	11.15
372.877	11.18
373.325	11.2
373.773	11.22
374.221	11.24
374.669	11.26
375.116	11.27
375.564	11.28
376.012	11.3
376.459	11.33
376.907	11.35
377.354	11.38
377.801	11.4
378.249	11.44
378.696	11.47
379.143	11.49
379.591	11.5
380.038	11.54
380.485	11.57
380.932	11.58
381.379	11.61
381.826	11.64
382.273	11.66
382.72	11.68
383.166	11.7
383.613	11.73
384.06	11.75
384.506	11.77
384.953	11.79
385.4	11.81
385.846	11.82
386.292	11.85
386.739	11.86
387.185	11.89
387.631	11.92
388.078	11.93
388.524	11.92
388.97	11.93
389.416	11.95
389.862	11.95
390.308	11.94
390.754	11.96
391.2	11.97
391.645	11.98
392.091	11.98
392.537	11.99
392.983	12.01
393.428	12.03
393.874	12.06
394.319	12.07
394.765	12.08
395.21	12.1
395.655	12.1
396.101	12.1
396.546	12.11
396.991	12.09
397.436	12.07
397.881	12.07
398.326	12.08
398.771	12.09
399.216	12.11
399.661	12.14
400.106	12.15
400.551	12.15
400.995	12.14
401.44	12.13
401.885	12.14
402.329	12.15
402.774	12.12
403.218	12.1
403.663	12.07
404.107	12.07
404.551	12.06
404.995	12.04
405.44	12.05
405.884	12.06
406.328	12.05
406.772	12.06
407.216	12.06
407.66	12.08
408.104	12.08
408.547	12.08
408.991	12.06
409.435	12.03
409.879	12.01
410.322	12
410.766	11.99
411.209	11.98
411.653	11.95
412.096	11.94
412.54	11.93
412.983	11.91
413.426	11.91
413.869	11.91
414.312	11.92
414.756	11.94
415.199	11.95
415.642	11.95
416.085	11.96
416.527	11.97
416.97	11.98
417.413	11.98
417.856	11.96
418.298	11.93
418.741	11.91
419.184	11.89
419.626	11.88
420.069	11.88
420.511	11.86
420.953	11.85
421.396	11.84
421.838	11.83
422.28	11.85
422.722	11.88
423.164	11.89
423.606	11.92
424.048	11.91
424.49	11.92
424.932	11.9
425.374	11.91
425.816	11.9
426.258	11.87
426.699	11.84
427.141	11.78
427.582	11.75
428.024	11.74
428.465	11.73
428.907	11.74
429.348	11.72
429.789	11.73
430.231	11.71
430.672	11.71
431.113	11.74
431.554	11.78
431.995	11.82
432.436	11.83
432.877	11.82
433.318	11.82
433.759	11.83
434.2	11.83
434.64	11.83
435.081	11.84
435.522	11.85
435.962	11.87
436.403	11.89
436.843	11.9
437.284	11.91
437.724	11.93
438.164	11.93
438.604	11.95
439.045	11.96
439.485	11.95
439.925	11.95
440.365	11.93
440.805	11.9
441.245	11.86
441.685	11.86
442.125	11.86
442.564	11.87
443.004	11.85
443.444	11.84
443.883	11.84
444.323	11.87
444.762	11.9
445.202	11.95
445.641	11.97
446.081	12.01
446.52	12.01
446.959	12.03
447.398	12.04
447.837	12.08
448.276	12.1
448.716	12.11
449.154	12.11
449.593	12.1
450.032	12.09
450.471	12.09
450.91	12.09
451.349	12.09
451.787	12.08
452.226	12.03
452.664	12.02
453.103	12.01
453.541	12
453.98	12
454.418	11.99
454.856	11.95
455.295	11.94
455.733	11.93
456.171	11.93
456.609	11.93
457.047	11.93
457.485	11.94
457.923	11.94
458.361	11.92
458.798	11.93
459.236	11.92
459.674	11.94
460.111	11.93
460.549	11.92
460.987	11.91
461.424	11.91
461.862	11.94
462.299	11.92
462.736	11.92
463.173	11.93
463.611	11.92
464.048	11.92
464.485	11.9
464.922	11.92
465.359	11.93
465.796	11.91
466.233	11.92
466.67	11.9
467.106	11.9
467.543	11.89
467.98	11.89
468.416	11.9
468.853	11.89
469.29	11.91
469.726	11.9
470.162	11.9
470.599	11.91
471.035	11.91
471.471	11.9
471.907	11.9
472.344	11.89
472.78	11.89
473.216	11.88
473.652	11.87
474.088	11.86
474.523	11.84
474.959	11.81
475.395	11.79
475.831	11.77
476.266	11.77
476.702	11.76
477.138	11.75
477.573	11.73
478.008	11.71
478.444	11.69
478.879	11.68
479.314	11.68
479.75	11.69
480.185	11.67
480.62	11.67
481.055	11.65
481.49	11.63
481.925	11.6
482.36	11.59
482.795	11.58
483.229	11.58
483.664	11.57
484.099	11.56
484.534	11.53
484.968	11.53
485.403	11.52
485.837	11.51
486.271	11.51
486.706	11.5
487.14	11.5
487.574	11.49
488.009	11.48
488.443	11.48
488.877	11.49
489.311	11.48
489.745	11.5
490.179	11.5
490.613	11.5
491.046	11.51
491.48	11.52
491.914	11.52
492.348	11.52
492.781	11.52
493.215	11.51
493.648	11.51
494.082	11.53
494.515	11.52
494.948	11.53
495.382	11.53
495.815	11.54
496.248	11.55
496.681	11.56
497.114	11.58
497.547	11.6
497.98	11.62
498.413	11.62
498.846	11.63
499.279	11.65
499.711	11.66
500.144	11.68
500.577	11.69
501.009	11.73
501.442	11.76
501.874	11.79
502.306	11.83
502.739	11.86
503.171	11.91
503.603	11.96
504.036	12.02
504.468	12.08
504.9	12.14
505.332	12.21
505.764	12.27
506.196	12.33
506.627	12.4
507.059	12.47
507.491	12.56
507.923	12.65
508.354	12.73
508.786	12.82
509.217	12.9
509.649	13.01
510.08	13.12
510.512	13.21
510.943	13.33
511.374	13.45
511.805	13.57
512.237	13.69
512.668	13.81
513.099	13.96
513.53	14.1
513.961	14.25
514.391	14.38
514.822	14.52
515.253	14.67
515.684	14.81
516.114	14.99
516.545	15.15
516.975	15.33
517.406	15.49
517.836	15.65
518.267	15.84
518.697	16.02
519.127	16.2
519.558	16.37
519.988	16.58
520.418	16.76
520.848	16.94
521.278	17.12
521.708	17.17
522.138	17.35
522.567	17.52
522.997	17.69
523.427	17.87
523.857	18.04
524.286	18.23
524.716	18.38
525.145	18.57
525.575	18.74
526.004	18.91
526.433	19.19
526.863	19.36
527.292	19.52
527.721	19.67
528.15	19.8
528.579	19.95
529.008	20.07
529.437	20.2
529.866	20.31
530.295	20.42
530.724	20.55
531.152	20.66
531.581	20.75
532.01	20.85
532.438	20.96
532.867	21.05
533.295	21.12
533.723	21.21
534.152	21.29
534.58	21.36
535.008	21.43
535.436	21.46
535.865	21.51
536.293	21.57
536.721	21.61
537.149	21.65
537.576	21.71
538.004	21.76
538.432	21.8
538.86	21.84
539.287	21.87
539.715	21.9
540.143	21.94
540.57	21.97
540.998	22
541.425	22.03
541.852	22.05
542.28	22.04
542.707	22.07
543.134	22.07
543.561	22.07
543.988	22.09
544.415	22.1
544.842	22.11
545.269	22.13
545.696	22.15
546.123	22.17
546.549	22.18
546.976	22.21
547.403	22.21
547.829	22.23
548.256	22.27
548.682	22.28
549.108	22.28
549.535	22.3
549.961	22.32
550.387	22.3
550.813	22.3
551.24	22.3
551.666	22.3
552.092	22.29
552.518	22.27
552.943	22.26
553.369	22.26
553.795	22.25
554.221	22.22
554.646	22.18
555.072	22.17
555.498	22.12
555.923	22.08
556.349	22.02
556.774	21.97
557.199	21.94
557.625	21.87
558.05	21.79
558.475	21.72
558.9	21.64
559.325	21.58
559.75	21.49
560.175	21.42
560.6	21.34
561.025	21.27
561.449	21.17
561.874	21.06
562.299	20.96
562.723	20.86
563.148	20.74
563.572	20.65
563.997	20.53
564.421	20.4
564.846	20.28
565.27	20.16
565.694	20.04
566.118	19.93
566.542	19.81
566.966	19.71
567.39	19.58
567.814	19.47
568.238	19.35
568.662	19.23
569.086	19.11
569.509	19
569.933	18.87
570.357	18.74
570.78	18.62
571.204	18.5
571.627	18.37
572.05	18.26
572.474	18.16
572.897	18.04
573.32	17.92
573.743	17.83
574.166	17.72
574.589	17.64
575.012	17.55
575.435	17.45
575.858	17.37
576.281	17.28
576.704	17.22
577.126	17.12
577.549	17.06
577.972	16.99
578.394	16.91
578.817	16.84
579.239	16.77
579.661	16.72
580.084	16.66
580.506	16.6
580.928	16.51
581.35	16.45
581.772	16.41
582.194	16.34
582.616	16.28
583.038	16.23
583.46	16.18
583.882	16.14
584.303	16.08
584.725	16.02
585.147	15.96
585.568	15.92
585.99	15.87
586.411	15.82
586.833	15.78
587.254	15.75
587.675	15.7
588.096	15.67
588.518	15.61
588.939	15.56
589.36	15.53
589.781	15.52
590.202	15.5
590.623	15.46
591.043	15.42
591.464	15.39
591.885	15.35
592.305	15.34
592.726	15.3
593.147	15.29
593.567	15.26
593.987	15.23
594.408	15.2
594.828	15.16
595.248	15.12
595.669	15.12
596.089	15.09
596.509	15.05
596.929	15.01
597.349	14.98
597.769	14.93
598.189	14.91
598.608	14.89
599.028	14.86
599.448	14.84
599.867	14.82
600.287	14.79
600.706	14.77
601.126	14.75
601.545	14.74
601.965	14.71
602.384	14.7
602.803	14.66
603.222	14.62
603.641	14.58
604.061	14.55
604.48	14.5
604.898	14.45
605.317	14.41
605.736	14.36
606.155	14.32
606.574	14.28
606.992	14.23
607.411	14.2
607.829	14.13
608.248	14.1
608.666	14.06
609.085	14.03
609.503	13.98
609.921	13.94
610.339	13.9
610.758	13.86
611.176	13.82
611.594	13.79
612.012	13.75
612.43	13.75
612.847	13.72
613.265	13.67
613.683	13.63
614.101	13.59
614.518	13.56
614.936	13.52
615.353	13.49
615.771	13.46
616.188	13.42
616.606	13.4
617.023	13.36
617.44	13.33
617.857	13.3
618.274	13.26
618.691	13.23
619.108	13.21
619.525	13.17
619.942	13.14
620.359	13.11
620.776	13.08
621.192	13.05
621.609	13.02
622.026	13
622.442	12.99
622.859	12.97
623.275	12.96
623.691	12.95
624.108	12.94
624.524	12.92
624.94	12.92
625.356	12.92
625.772	12.92
626.188	12.92
626.604	12.89
627.02	12.88
627.436	12.88
627.852	12.86
628.268	12.85
628.683	12.84
629.099	12.84
629.514	12.82
629.93	12.79
630.345	12.77
630.761	12.74
631.176	12.73
631.591	12.7
632.007	12.66
632.422	12.64
632.837	12.6
633.252	12.56
633.667	12.52
634.082	12.49
634.497	12.43
634.911	12.37
635.326	12.32
635.741	12.27
636.155	12.22
636.57	12.17
636.984	12.1
637.399	12.03
637.813	11.97
638.228	11.9
638.642	11.85
639.056	11.8
639.47	11.75
639.884	11.69
640.298	11.63
640.712	11.58
641.126	11.52
641.54	11.49
641.954	11.47
642.368	11.43
642.781	11.4
643.195	11.34
643.609	11.3
644.022	11.27
644.436	11.23
644.849	11.21
645.262	11.18
645.676	11.15
646.089	11.12
646.502	11.08
646.915	11.06
647.328	11.04
647.741	11
648.154	10.98
648.567	10.96
648.98	10.95
649.393	10.93
649.805	10.91
650.218	10.9
650.631	10.89
651.043	10.88
651.456	10.87
651.868	10.88
652.28	10.88
652.693	10.87
653.105	10.87
653.517	10.86
653.929	10.85
654.341	10.86
654.753	10.83
655.165	10.82
655.577	10.81
655.989	10.76
656.401	10.72
656.813	10.7
657.224	10.69
657.636	10.68
658.047	10.65
658.459	10.63
658.87	10.61
659.282	10.62
659.693	10.58
660.104	10.56
660.515	10.56
660.926	10.56
661.338	10.56
661.749	10.53
662.159	10.5
662.57	10.51
662.981	10.49
663.392	10.48
663.803	10.46
664.213	10.47
664.624	10.47
665.035	10.46
665.445	10.45
665.855	10.46
666.266	10.47
666.676	10.47
667.086	10.46
667.497	10.45
667.907	10.45
668.317	10.45
668.727	10.44
669.137	10.45
669.547	10.46
669.956	10.47
670.366	10.48
670.776	10.48
671.186	10.49
671.595	10.51
672.005	10.54
672.414	10.56
672.824	10.59
673.233	10.62
673.642	10.63
674.052	10.66
674.461	10.7
674.87	10.72
675.279	10.74
675.688	10.75
676.097	10.79
676.506	10.82
676.915	10.86
677.323	10.89
677.732	10.91
678.141	10.95
678.549	10.99
678.958	11.01
679.366	11.04
679.775	11.07
680.183	11.12
680.592	11.16
681	11.19
681.408	11.21
681.816	11.24
682.224	11.28
682.632	11.34
683.04	11.4
683.448	11.44
683.856	11.49
684.264	11.55
684.671	11.61
685.079	11.66
685.487	11.74
685.894	11.83
686.302	11.91
686.709	12.01
687.116	12.1
687.524	12.2
687.931	12.33
688.338	12.48
688.745	12.64
689.152	12.83
689.559	13.03
689.966	13.24
690.373	13.48
690.78	13.74
691.187	14.01
691.593	14.31
692	14.61
692.407	14.96
692.813	15.32
693.22	15.68
693.626	16.06
694.032	16.46
694.439	16.9
694.845	17.32
695.251	17.74
695.657	18.21
696.063	18.68
696.469	19.17
696.875	19.64
697.281	20.12
697.687	20.65
698.093	21.14
698.498	21.66
698.904	22.17
699.31	22.7
699.715	23.23
700.12	23.73
700.526	24.25
700.931	24.78
701.337	25.31
701.742	25.82
702.147	26.33
702.552	26.87
702.957	27.37
703.362	27.89
703.767	28.39
704.172	28.89
704.577	29.42
704.981	29.94
705.386	30.44
705.791	30.95
706.195	31.46
706.6	31.98
707.004	32.49
707.408	32.99
707.813	33.47
708.217	33.95
708.621	34.43
709.025	34.91
709.43	35.36
709.834	35.84
710.237	36.28
710.641	36.74
711.045	37.16
711.449	37.61
711.853	38.07
712.256	38.55
712.66	39
713.064	39.44
713.467	39.86
713.87	40.29
714.274	40.71
714.677	41.14
715.08	41.55
715.484	42.01
715.887	42.41
716.29	42.8
716.693	43.15
717.096	43.56
717.499	43.95
717.901	44.34
718.304	44.73
718.707	45.07
719.109	45.46
719.512	45.86
719.915	46.18
720.317	46.55
720.719	46.89
721.122	47.25
721.524	47.6
721.926	47.92
722.328	48.25
722.731	48.56
723.133	48.88
723.535	49.21
723.937	49.49
724.338	49.78
724.74	50.05
725.142	50.3
725.544	50.57
725.945	50.82
726.347	51.11
726.748	51.31
727.15	51.54
727.551	51.77
727.952	51.98
728.354	52.18
728.755	52.4
729.156	52.6
729.557	52.85
729.958	53.03
730.359	53.21
730.76	53.38
731.161	53.6
731.562	53.78
731.962	53.95
732.363	54.08
732.763	54.22
733.164	54.38
733.564	54.51
733.965	54.6
734.365	54.75
734.766	54.87
735.166	54.96
735.566	55.05
735.966	55.12
736.366	55.22
736.766	55.32
737.166	55.46
737.566	55.52
737.966	55.63
738.365	55.76
738.765	55.83
739.165	55.89
739.564	55.99
739.964	56.04
740.363	56.14
740.763	56.19
741.162	56.26
741.561	56.31
741.96	56.36
742.36	56.43
742.759	56.46
743.158	56.48
743.557	56.55
743.955	56.63
744.354	56.72
744.753	56.81
745.152	56.87
745.55	56.93
745.949	56.99
746.348	57.03
746.746	57.05
747.144	57.12
747.543	57.18
747.941	57.26
748.339	57.31
748.737	57.37
749.136	57.37
749.534	57.43
749.932	57.46
750.33	57.47
750.727	57.49
751.125	57.51
751.523	57.5
751.921	57.55
752.318	57.54
752.716	57.52
753.113	57.56
753.511	57.6
753.908	57.6
754.305	57.6
754.703	57.61
755.1	57.64
755.497	57.67
755.894	57.67
756.291	57.66
756.688	57.67
757.085	57.67
757.482	57.62
757.878	57.63
758.275	57.61
758.672	57.68
759.068	57.69
759.465	57.67
759.861	57.65
760.258	57.65
760.654	57.64
761.05	57.65
761.447	57.67
761.843	57.65
762.239	57.63
762.635	57.61
763.031	57.57
763.427	57.55
763.822	57.53
764.218	57.5
764.614	57.45
765.01	57.44
765.405	57.36
765.801	57.33
766.196	57.32
766.592	57.32
766.987	57.32
767.382	57.3
767.778	57.29
768.173	57.31
768.568	57.28
768.963	57.31
769.358	57.3
769.753	57.34
770.148	57.32
770.542	57.29
770.937	57.23
771.332	57.21
771.726	57.17
772.121	57.1
772.515	57.07
772.91	57.08
773.304	57.03
773.699	57
774.093	56.97
774.487	56.98
774.881	57.01
775.275	57.06
775.669	57.08
776.063	57.06
776.457	57.09
776.851	57.09
777.245	57.08
777.638	57.12
778.032	57.13
778.425	57.15
778.819	57.13
779.212	57.13
779.606	57.12
779.999	57.11
780.392	57.13
780.786	57.11
781.179	57.12
781.572	57.12
781.965	57.12
782.358	57.09
782.751	57.08
783.143	57.1
783.536	57.14
783.929	57.16
784.322	57.16
784.714	57.18
785.107	57.23
785.499	57.24
785.891	57.29
786.284	57.28
786.676	57.36
787.068	57.38
787.46	57.37
787.852	57.34
788.245	57.33
788.636	57.33
789.028	57.32
789.42	57.3
789.812	57.32
790.204	57.24
790.595	57.24
790.987	57.21
791.378	57.18
791.77	57.19
792.161	57.22
792.553	57.2
792.944	57.24
793.335	57.27
793.726	57.23
794.117	57.21
794.508	57.25
794.899	57.28
795.29	57.3
795.681	57.33
796.072	57.31
796.463	57.26
796.853	57.27
797.244	57.24
797.634	57.24
798.025	57.26
798.415	57.25
798.806	57.26
799.196	57.28
799.586	57.29
799.976	57.25
800.366	57.27
800.756	57.27
801.146	57.23
801.536	57.23
801.926	57.21
802.316	57.24
802.706	57.28
803.095	57.24
803.485	57.22
803.874	57.21
804.264	57.28
804.653	57.28
805.043	57.29
805.432	57.29
805.821	57.26
806.21	57.31
806.599	57.32
806.988	57.3
807.377	57.3
807.766	57.28
808.155	57.27
808.544	57.23
808.933	57.22
809.321	57.24
809.71	57.29
810.098	57.31
810.487	57.29
810.875	57.27
811.264	57.3
811.652	57.33
812.04	57.35
812.428	57.36
812.816	57.38
813.204	57.38
813.592	57.4
813.98	57.41
814.368	57.4
814.756	57.4
815.144	57.41
815.531	57.41
815.919	57.44
816.306	57.46
816.694	57.46
817.081	57.42
817.469	57.47
817.856	57.49
818.243	57.49
818.63	57.55
819.017	57.55
819.404	57.54
819.791	57.54
820.178	57.53
820.565	57.51
820.952	57.53
821.339	57.58
821.725	57.57
822.112	57.6
822.498	57.61
822.885	57.59
823.271	57.6
823.657	57.64
824.044	57.65
824.43	57.68
824.816	57.71
825.202	57.69
825.588	57.69
825.974	57.7
826.36	57.68
826.746	57.68
827.132	57.66
827.517	57.69
827.903	57.69
828.289	57.66
828.674	57.65
829.06	57.65
829.445	57.69
829.83	57.71
830.216	57.71
830.601	57.71
830.986	57.71
831.371	57.75
831.756	57.72
832.141	57.75
832.526	57.77
832.911	57.78
833.295	57.82
833.68	57.8
834.065	57.82
834.449	57.81
834.834	57.79
835.218	57.77
835.603	57.77
835.987	57.8
836.371	57.79
836.755	57.77
837.139	57.74
837.524	57.72
837.908	57.69
838.291	57.66
838.675	57.65
839.059	57.65
839.443	57.65
839.827	57.61
840.21	57.62
840.594	57.57
840.977	57.59
841.361	57.61
841.744	57.6
842.127	57.61
842.511	57.6
842.894	57.6
843.277	57.62
843.66	57.63
844.043	57.65
844.426	57.63
844.809	57.65
845.191	57.64
845.574	57.61
845.957	57.57
846.339	57.55
846.722	57.56
847.104	57.58
847.487	57.57
847.869	57.53
848.252	57.51
848.634	57.52
849.016	57.53
849.398	57.53
849.78	57.54
850.162	57.56
850.544	57.58
850.926	57.56
851.307	57.55
851.689	57.55
852.071	57.58
852.452	57.59
852.834	57.57
853.215	57.54
853.597	57.55
853.978	57.53
854.359	57.53
854.741	57.53
855.122	57.54
855.503	57.55
855.884	57.53
856.265	57.53
856.646	57.52
857.026	57.54
857.407	57.54
857.788	57.55
858.169	57.59
858.549	57.6
858.93	57.57
859.31	57.55
859.69	57.54
860.071	57.53
860.451	57.55
860.831	57.53
861.211	57.5
861.591	57.51
861.971	57.48
862.351	57.49
862.731	57.46
863.111	57.49
863.491	57.51
863.87	57.49
864.25	57.47
864.629	57.44
865.009	57.44
865.388	57.47
865.768	57.47
866.147	57.5
866.526	57.47
866.905	57.49
867.284	57.48
867.663	57.45
868.042	57.44
868.421	57.46
868.8	57.45
869.179	57.44
869.558	57.42
869.936	57.41
870.315	57.38
870.693	57.37
871.072	57.36
871.45	57.37
871.828	57.41
872.207	57.45
872.585	57.46
872.963	57.47
873.341	57.45
873.719	57.48
874.097	57.46
874.475	57.49
874.853	57.48
875.23	57.5
875.608	57.52
875.986	57.49
876.363	57.46
876.741	57.49
877.118	57.46
877.495	57.45
877.873	57.42
878.25	57.42
878.627	57.42
879.004	57.42
879.381	57.41
879.758	57.39
880.135	57.4
880.512	57.42
880.889	57.43
881.265	57.47
881.642	57.49
882.019	57.51
882.395	57.52
882.772	57.49
883.148	57.51
883.524	57.54
883.901	57.5
884.277	57.48
884.653	57.45
885.029	57.41
885.405	57.39
885.781	57.39
886.157	57.39
886.532	57.4
886.908	57.43
887.284	57.44
887.659	57.41
888.035	57.44
888.411	57.4
888.786	57.41
889.161	57.39
889.537	57.4
889.912	57.37
890.287	57.37
890.662	57.35
891.037	57.31
891.412	57.27
891.787	57.26
892.162	57.23
892.536	57.26
892.911	57.23
893.286	57.22
893.66	57.2
894.035	57.2
894.409	57.17
894.784	57.15
895.158	57.16
895.532	57.15
895.906	57.13
896.281	57.09
896.655	57.05
897.029	57.03
897.402	57.03
897.776	57.04
898.15	57.05
898.524	57.03
898.898	56.99
899.271	56.98
899.645	56.97
900.018	56.98
900.392	57.01
900.765	57.02
901.138	57.05
901.511	57.01
901.884	56.98
902.258	56.95
902.631	56.96
903.003	56.99
903.376	56.96
903.749	56.97
904.122	56.92
904.495	56.9
904.867	56.88
905.24	56.86
905.612	56.87
905.985	56.84
906.357	56.82
906.729	56.79
907.102	56.77
907.474	56.76
907.846	56.72
908.218	56.71
908.59	56.69
908.962	56.69
909.334	56.68
909.705	56.66
910.077	56.67
910.449	56.68
910.82	56.65
911.192	56.64
911.563	56.63
911.935	56.63
912.306	56.63
912.677	56.67
913.048	56.66
913.419	56.67
913.79	56.64
914.161	56.62
914.532	56.61
914.903	56.61
915.274	56.62
915.645	56.66
916.015	56.65
916.386	56.64
916.756	56.6
917.127	56.57
917.497	56.57
917.868	56.56
918.238	56.58
918.608	56.56
918.978	56.54
919.348	56.48
919.718	56.46
920.088	56.46
920.458	56.52
920.828	56.53
921.198	56.57
921.567	56.54
921.937	56.56
922.306	56.53
922.676	56.56
923.045	56.54
923.415	56.57
923.784	56.53
924.153	56.54
924.522	56.45
924.891	56.43
925.26	56.38
925.629	56.37
925.998	56.36
926.367	56.37
926.736	56.32
927.104	56.38
927.473	56.42
927.842	56.4
928.21	56.37
928.578	56.41
928.947	56.39
929.315	56.4
929.683	56.38
930.051	56.38
930.42	56.34
930.788	56.32
931.156	56.27
931.523	56.22
931.891	56.17
932.259	56.13
932.627	56.02
932.994	56.01
933.362	55.96
933.729	55.87
934.097	55.83
934.464	55.8
934.831	55.73
935.199	55.66
935.566	55.58
935.933	55.54
936.3	55.46
936.667	55.43
937.034	55.4
937.401	55.32
937.767	55.31
938.134	55.24
938.501	55.17
938.867	55.18
939.234	55.21
939.6	55.18
939.967	55.22
940.333	55.31
940.699	55.39
941.065	55.43
941.431	55.52
941.798	55.55
942.163	55.6
942.529	55.62
942.895	55.74
943.261	55.78
943.627	55.87
943.992	55.94
944.358	55.89
944.723	55.9
945.089	55.89
945.454	55.95
945.82	55.94
946.185	55.97
946.55	56.04
946.915	55.98
947.28	55.94
947.645	55.87
948.01	55.76
948.375	55.79
948.74	55.73
949.104	55.67
949.469	55.62
949.834	55.69
950.198	55.67
950.562	55.71
950.927	55.69
951.291	55.67
951.655	55.71
952.02	55.79
952.384	55.86
952.748	55.88
953.112	55.83
953.476	55.79
953.839	55.76
954.203	55.71
954.567	55.62
954.931	55.59
955.294	55.55
955.658	55.52
956.021	55.45
956.385	55.45
956.748	55.41
957.111	55.44
957.474	55.45
957.837	55.36
958.2	55.33
958.563	55.29
958.926	55.27
959.289	55.32
959.652	55.36
960.015	55.29
960.377	55.18
960.74	55.13
961.102	55.1
961.465	55.08
961.827	54.99
962.189	54.97
962.552	54.92
962.914	54.91
963.276	54.86
963.638	54.75
964	54.81
964.362	54.75
964.724	54.78
965.085	54.81
965.447	54.77
965.809	54.78
966.17	54.8
966.532	54.76
966.893	54.74
967.255	54.67
967.616	54.66
967.977	54.65
968.338	54.69
968.699	54.72
969.061	54.62
969.421	54.6
969.782	54.64
970.143	54.59
970.504	54.57
970.865	54.52
971.225	54.52
971.586	54.53
971.946	54.49
972.307	54.42
972.667	54.33
973.027	54.38
973.388	54.33
973.748	54.27
974.108	54.34
974.468	54.37
974.828	54.4
975.188	54.49
975.548	54.48
975.907	54.48
976.267	54.57
976.627	54.57
976.986	54.48
977.346	54.58
977.705	54.61
978.064	54.65
978.424	54.7
978.783	54.71
979.142	54.59
979.501	54.53
979.86	54.54
980.219	54.48
980.578	54.47
980.937	54.53
981.296	54.54
981.654	54.58
982.013	54.54
982.371	54.51
982.73	54.45
983.088	54.48
983.447	54.51
983.805	54.47
984.163	54.47
984.521	54.39
984.879	54.41
985.237	54.37
985.595	54.37
985.953	54.29
986.311	54.35
986.669	54.44
987.026	54.44
987.384	54.47
987.741	54.52
988.099	54.53
988.456	54.59
988.814	54.55
989.171	54.37
989.528	54.2
989.885	54.19
990.242	54.15
990.599	54.12
990.956	54.09
991.313	53.99
991.67	54
992.027	53.92
992.383	53.93
992.74	53.93
993.096	54.06
993.453	54.18
993.809	54.25
994.165	54.32
994.522	54.28
994.878	54.18
995.234	54.31
995.59	54.05
995.946	54.09
996.302	54.03
996.658	54.11
997.013	54.18
997.369	54.22
997.725	54.24
998.08	54.08
998.436	54.17
998.791	54.3
999.147	54.23
999.502	54.39
999.857	54.38
1000.212	54.45
1000.567	54.4
1000.922	54.27
1001.277	54.15
1001.632	54.08
1001.987	54.05
1002.342	53.89
1002.696	53.97
1003.051	53.76
1003.406	53.78
1003.76	53.77
1004.114	53.82
1004.469	53.67
1004.823	53.7
1005.177	53.84
1005.531	53.62
1005.885	53.63
1006.239	53.8
1006.593	53.68
1006.947	53.95
1007.301	53.91
1007.655	53.97
1008.008	53.75
1008.362	53.81
1008.715	53.76
1009.069	53.56
1009.422	53.62
1009.776	53.58
1010.129	53.37
1010.482	53.58
1010.835	53.53
1011.188	53.47
1011.541	53.12
1011.894	53.18
1012.247	53.2
1012.6	53.38
1012.952	53.52
1013.305	53.54
1013.657	53.62
1014.01	53.7
1014.362	53.57
1014.715	53.32
1015.067	53.6
1015.419	53.9
1015.771	54.19
1016.123	54.15
1016.475	54.13
1016.827	54.26
1017.179	54.44
1017.531	54.26
1017.883	54.32
1018.234	54.11
1018.586	54.44
1018.938	54.13
1019.289	53.98
1019.64	53.95
1019.992	53.96
1020.343	53.77
1020.694	53.41
1021.045	53.44
1021.396	53.55
1021.747	53.7
1022.098	53.95
1022.449	53.67
1022.8	53.8
1023.151	53.9
1023.501	53.8
1023.852	53.83
1024.202	53.9
1024.553	53.85
1024.903	53.69
1025.253	53.52
1025.604	53.05
1025.954	52.62
1026.304	53.21
1026.654	53.46
1027.004	53.59
1027.354	53.56
1027.703	53.49
1028.053	53.32
1028.403	53.61
1028.753	53.6
1029.102	53.99
1029.452	54.3
1029.801	54.62
1030.15	54.31
1030.499	54.04
897.758	500.91
901.051	497.42
904.343	506.49
907.636	498.44
910.928	492.23
914.22	496.46
917.511	485.86
920.803	465.39
924.094	447.99
927.384	454.11
930.675	438.33
933.965	433.79
937.255	441.05
940.544	420.28
943.834	402.96
947.123	395.94
950.411	380.25
953.7	374.3
956.988	362.95
960.276	346.35
963.563	339.86
966.851	323.25
970.138	318.69
973.424	296.16
976.711	292.07
979.997	282.91
983.283	276.37
986.568	266.63
989.853	261.67
993.138	252.57
996.423	250.4
999.708	243.39
1002.992	243.8
1006.275	237.82
1009.559	235.71
1012.842	229.77
1016.125	221.84
1019.408	218.33
1022.69	216.51
1025.972	214.24
1029.254	208.16
1032.536	204.51
1035.817	198.36
1039.098	195.48
1042.379	191.26
1045.659	189.96
1048.939	187.79
1052.219	186.19
1055.498	182.67
1058.778	180.22
1062.057	176.21
1065.335	176.24
1068.614	172.85
1071.892	171.2
1075.17	169.33
1078.447	167.18
1081.724	165.31
1085.001	162.3
1088.278	162.27
1091.554	161.73
1094.83	160.56
1098.106	157.99
1101.382	157.32
1104.657	157.04
1107.932	156.59
1111.206	155.84
1114.481	153.37
1117.755	152.22
1121.029	151.98
1124.302	149.32
1127.575	147.31
1130.848	146.72
1134.121	145.3
1137.393	144.77
1140.665	144.36
1143.937	142.42
1147.208	140.11
1150.48	139.71
1153.75	139.19
1157.021	138.27
1160.291	137.96
1163.561	137.51
1166.831	137.02
1170.101	137.36
1173.37	135.76
1176.639	133.89
1179.907	134.52
1183.176	134.29
1186.444	133.83
1189.711	133
1192.979	134.3
1196.246	134.01
1199.513	133.47
1202.78	133.07
1206.046	132.92
1209.312	134.24
1212.578	135.18
1215.843	136.26
1219.108	137.19
1222.373	140.25
1225.638	141.87
1228.902	143.86
1232.166	147.59
1235.43	149.84
1238.693	153.87
1241.956	156.82
1245.219	159.42
1248.482	160.52
1251.744	160.37
1255.006	161.29
1258.268	156.38
1261.529	155.56
1264.79	151.6
1268.051	149.45
1271.312	148.1
1274.572	144.57
1277.832	141.17
1281.092	140.35
1284.351	137.94
1287.61	137.74
1290.869	136.65
1294.128	136.79
1297.386	136.4
1300.644	136.15
1303.902	135.33
1307.159	135.2
1310.416	135.57
1313.673	137.88
1316.93	138.35
1320.186	139.75
1323.442	141.15
1326.697	143.99
1329.953	143.66
1333.208	147.41
1336.463	152.62
1339.717	154.89
1342.972	160.86
1346.226	165.64
1349.479	167.11
1352.733	173.92
1355.986	176.9
1359.238	180.42
1362.491	180.98
1365.743	188.88
1368.995	189.95
1372.247	189.87
1375.498	189.28
1378.749	195.35
1382	191.9
1385.251	190.96
1388.501	189.39
1391.751	192.25
1395	189.7
1398.25	190.46
1401.499	189.2
1404.748	188.52
1407.996	183.94
1411.244	183.67
1414.492	180.15
1417.74	175.99
1420.987	171.68
1424.234	168.46
1427.481	162.28
1430.728	158.6
1433.974	153.12
1437.22	148.68
1440.465	143.35
1443.711	138.85
1446.956	134.97
1450.201	129.17
1453.445	124.36
1456.689	121.98
1459.933	117.31
1463.177	111.96
1466.42	109.38
1469.663	106.32
1472.906	102.57
1476.148	100.99
1479.391	98.52
1482.633	97.03
1485.874	96.05
1489.115	95.73
1492.356	93.44
1495.597	92.63
1498.838	93.11
1502.078	92.87
1505.318	92.7
1508.557	92.23
1511.797	90.8
1515.036	91.3
1518.274	91.02
1521.513	89.72
1524.751	88.76
1527.989	89.49
1531.227	89.26
1534.464	88.91
1537.701	88.61
1540.938	88.35
1544.174	88.47
1547.41	89.06
1550.646	88.85
1553.882	88.5
1557.117	88.87
1560.352	89.38
1563.587	88.12
1566.821	88.16
1570.055	87.93
1573.289	87.68
1576.523	87.84
1579.756	87.26
1582.989	87.15
1586.222	87.27
1589.454	86.99
1592.686	86.8
1595.918	86.45
1599.15	87.01
1602.381	87.18
1605.612	87.61
1608.843	86.89
1612.073	87.59
1615.303	88.47
1618.533	87.68
1621.762	87.92
1624.992	88.38
1628.221	88.27
1631.449	88.69
1634.678	87.98
1637.906	88.46
1641.134	87.87
1644.361	88.76
1647.588	88.08
1650.815	87.91
1654.042	88.68
1657.269	88.34
1660.495	88.66
1663.72	89.02
1666.946	89.17
1670.171	90.15
1673.396	90.21
1676.621	90.39
1679.845	90.78
1683.069	90.79
1686.293	90.53
1689.517	90.51
1692.74	90.65
1695.963	90.7
1699.185	90.94
1702.408	90.92
1705.63	91.18
1708.852	91.47
1712.073	91.67
1715.294	91.2
1718.515	91.82
1721.736	92.3
1724.956	92.2
1728.176	92.16
1731.396	92.43
1734.616	92.31
1737.835	92.13
1741.054	92.04
1744.272	90.8
1747.491	91.23
1750.709	91.73
1753.927	91.46
1757.144	91.43
1760.361	91.58
1763.578	92.18
1766.795	92.88
1770.011	92.96
1773.227	93.5
1776.443	93.98
1779.658	94.79
1782.874	95.18
1786.089	94.85
1789.303	95.16
1792.518	95.78
1795.732	96.65
1798.945	97.28
1802.159	97.12
1805.372	98.14
1808.585	98.55
1811.797	98.54
1815.01	99.92
1818.222	100.26
1821.434	101.82
1824.645	101.74
1827.856	103.06
1831.067	102.95
1834.278	103.94
1837.488	104.51
1840.698	104.73
1843.908	105.22
1847.117	106.72
1850.326	106.86
1853.535	107.49
1856.744	107.8
1859.952	109.75
1863.16	109.1
1866.368	109.02
1869.575	108.87
1872.782	108.23
1875.989	107.91
1879.196	107.22
1882.402	105.37
1885.608	105.94
1888.814	104.76
1892.019	105.65
1895.224	103.59
1898.429	104.25
1901.634	104.97
1904.838	105.41
1908.042	105.84
1911.246	105.86
1914.449	106.62
1917.652	106.63
1920.855	106.96
1924.058	105.97
1927.26	104.99
1930.462	105.67
1933.664	105.64
1936.865	104.87
1940.066	103.41
1943.267	102.53
1946.467	103.38
1949.668	103.42
1952.868	104.46
1956.067	103.88
1959.267	105.46
1962.466	105.92
1965.665	106.89
1968.863	106.99
1972.061	107.38
1975.259	110.14
1978.457	111.42
1981.654	111.5
1984.852	112.24
1988.048	113.41
1991.245	114.99
1994.441	117.41
1997.637	118.69
2000.833	121.09
2004.028	122
2007.223	126.14
2010.418	128.06
2013.613	133.94
2016.807	137.95
2020.001	140.12
2023.194	144.08
2026.388	148.28
2029.581	154.98
2032.774	160.6
2035.966	164.81
2039.158	171.39
2042.35	174.09
2045.542	176.93
2048.733	183.13
2051.924	184.88
2055.115	188.36
2058.306	190.02
2061.496	193.83
2064.686	193.85
2067.875	192.8
2071.065	194.6
2074.254	194.52
2077.442	201.33
2080.631	202.66
2083.819	202.61
2087.007	206.64
2090.195	210.09
2093.382	210.8
2096.569	211
2099.756	214.97
2102.942	220.14
2106.128	224.15
2109.314	224.26
2112.5	223.38
2115.685	223.34
2118.87	224.01
2122.055	227.31
2125.239	230.34
2128.424	237.43
2131.608	236.24
2134.791	234.23
2137.974	236.43
2141.157	238.2
2144.34	242.22
2147.523	244.56
2150.705	250.77
2153.887	248.16
2157.068	249.4
2160.25	252.62
2163.431	249.65
2166.611	255.82
2169.792	259.46
2172.972	263.61
2176.152	264.4
2179.331	270.7
2182.511	269.64
2185.69	273.98
2188.868	285.84
2192.047	289.79
2195.225	294.99
2198.403	299.05
2201.58	293.81
2204.758	307.42
2207.935	308.19
2211.111	311.89
2214.288	313.54
2217.464	319.28
2220.64	318.34
2223.815	318.17
2226.991	315.65
2230.166	318.32
2233.34	327.67
2236.515	335.32
2239.689	332.05
2242.863	334.3
2246.036	335.71
2249.209	341.72
2252.382	341.67
2255.555	355.36
2258.727	357.01
2261.9	369.09
2265.071	373.2
2268.243	369.93
2271.414	382.99
2274.585	388.74
2277.756	392.04
2280.926	403.43
2284.096	404.33
2287.266	406.95
2290.436	398.9
2293.605	408.76
2296.774	422.69
2299.942	424.25
2303.111	436.04
2306.279	439.27
2309.447	440.92
2312.614	443.31
2315.781	454.8
2318.948	462.93
2322.115	471.2
2325.281	492.76
2328.447	489.63
2331.613	488.93
2334.779	495.34
2337.944	504.3
2341.109	518.89
2344.274	521.31
2347.438	536.9
2350.602	547.46
2353.766	577.47
2356.929	580.81
2360.092	590.58
2363.255	592.57
2366.418	603.76
2369.58	617.42
2372.742	608.93
2375.904	604.94
2379.066	622.07
2382.227	657.91
2385.388	652.76
2388.548	625.9
2391.709	614.12
2394.869	634.47
2398.029	636.4
2401.188	641.07
2404.347	655.84
2407.506	684.03
2410.665	660.06
2413.823	664.52
2416.981	661.24
2420.139	630.25
2423.296	676.5
2426.453	723.2
2429.61	686.9
2432.767	731.92
2435.923	752.2
2439.079	724.72
2442.235	748.73
2445.391	766.46
2448.546	757.18
2451.701	800.82
2454.855	854.25
2458.009	752.87
2461.163	766.75
2464.317	777.67
2467.471	763.05
2470.624	786.23
2473.777	771.6
2476.929	743.27
2480.082	787.05
2483.234	827
2486.385	835.73
2489.537	857.23
2492.688	947.38
2495.839	935.14
2498.989	954.9
2502.14	959.99
2505.29	919.39
2508.439	1032.11
2511.589	1060.47
2514.738	1037.86
2517.887	1028.93
2521.035	964.95
2524.183	946.69
2527.331	937.35
2530.479	914.51
2533.627	941.93
