Data from N_1_dec_va_2n_009_Splice17_09.txt Node
Date: Sat Feb 29 13:36:27 EST 2020
User: sa697716
Spectrometer: FLMS03696
Trigger mode: 0
Integration Time (sec): 3.180400E-1
Scans to average: 20
Electric dark correction enabled: true
Nonlinearity correction enabled: true
Boxcar width: 5
XAxis mode: Wavelengths
Number of Pixels in Spectrum: 2048
>>>>>Begin Spectral Data<<<<<
187.83	78.57
188.298	64.58
188.766	63.59
189.233	42.48
189.701	55.55
190.169	60
190.636	53.31
191.104	42.82
191.571	-30.17
192.039	8.48
192.506	381.22
192.974	8284.76
193.441	275.18
193.908	62.26
194.375	-18.74
194.842	-44.42
195.31	-6.75
195.777	21.84
196.244	38.63
196.711	25.9
197.177	22.99
197.644	22.72
198.111	21.58
198.578	22.06
199.045	22.13
199.511	22.4
199.978	23.5
200.445	23.76
200.911	23.64
201.378	23.33
201.844	23.6
202.31	24.33
202.777	24.43
203.243	25.18
203.709	26.01
204.176	25.49
204.642	25.55
205.108	25.29
205.574	25.39
206.04	25.43
206.506	25.28
206.972	25.25
207.438	24.91
207.903	25.25
208.369	24.87
208.835	25.02
209.301	25.19
209.766	24.75
210.232	24.71
210.697	24.27
211.163	23.87
211.628	23.6
212.094	23.28
212.559	23.32
213.024	22.5
213.49	22.33
213.955	21.68
214.42	21.09
214.885	20.87
215.35	20.49
215.815	20.21
216.28	19.75
216.745	19.22
217.21	18.75
217.675	18
218.14	17.36
218.604	16.57
219.069	16.14
219.534	15.78
219.998	15.36
220.463	15
220.927	14.72
221.392	14.39
221.856	14.12
222.32	13.87
222.785	13.64
223.249	13.46
223.713	13.35
224.177	13.15
224.642	12.98
225.106	12.84
225.57	12.67
226.034	12.54
226.497	12.4
226.961	12.23
227.425	12.05
227.889	11.91
228.353	11.77
228.816	11.61
229.28	11.45
229.744	11.31
230.207	11.18
230.671	11.05
231.134	10.88
231.597	10.75
232.061	10.64
232.524	10.54
232.987	10.42
233.45	10.31
233.914	10.21
234.377	10.1
234.84	10.02
235.303	9.9
235.766	9.81
236.229	9.72
236.691	9.64
237.154	9.56
237.617	9.47
238.08	9.39
238.542	9.3
239.005	9.21
239.468	9.11
239.93	9.02
240.393	8.96
240.855	8.86
241.317	8.77
241.78	8.7
242.242	8.61
242.704	8.53
243.166	8.46
243.629	8.39
244.091	8.32
244.553	8.27
245.015	8.21
245.477	8.12
245.939	8.07
246.4	8.01
246.862	7.94
247.324	7.9
247.786	7.84
248.247	7.78
248.709	7.72
249.17	7.68
249.632	7.62
250.093	7.54
250.555	7.51
251.016	7.46
251.477	7.41
251.939	7.38
252.4	7.33
252.861	7.28
253.322	7.24
253.783	7.2
254.244	7.15
254.705	7.12
255.166	7.1
255.627	7.06
256.088	7.03
256.549	7.01
257.009	6.97
257.47	6.93
257.931	6.9
258.391	6.87
258.852	6.83
259.312	6.8
259.773	6.76
260.233	6.73
260.694	6.7
261.154	6.66
261.614	6.62
262.074	6.59
262.534	6.56
262.994	6.53
263.455	6.51
263.915	6.48
264.374	6.46
264.834	6.43
265.294	6.41
265.754	6.38
266.214	6.36
266.673	6.33
267.133	6.31
267.593	6.29
268.052	6.27
268.512	6.26
268.971	6.25
269.431	6.23
269.89	6.23
270.349	6.21
270.809	6.2
271.268	6.19
271.727	6.18
272.186	6.16
272.645	6.14
273.104	6.12
273.563	6.11
274.022	6.09
274.481	6.07
274.94	6.05
275.399	6.03
275.857	6.01
276.316	5.99
276.775	5.97
277.233	5.96
277.692	5.95
278.15	5.93
278.609	5.91
279.067	5.89
279.525	5.87
279.984	5.86
280.442	5.86
280.9	5.85
281.358	5.84
281.816	5.83
282.274	5.82
282.732	5.8
283.19	5.8
283.648	5.79
284.106	5.78
284.564	5.78
285.021	5.77
285.479	5.76
285.937	5.74
286.394	5.74
286.852	5.73
287.309	5.73
287.767	5.71
288.224	5.7
288.682	5.68
289.139	5.67
289.596	5.64
290.053	5.62
290.511	5.59
290.968	5.57
291.425	5.55
291.882	5.52
292.339	5.5
292.796	5.48
293.252	5.46
293.709	5.45
294.166	5.44
294.623	5.44
295.079	5.43
295.536	5.42
295.992	5.41
296.449	5.41
296.905	5.4
297.362	5.38
297.818	5.38
298.274	5.37
298.731	5.35
299.187	5.33
299.643	5.32
300.099	5.32
300.555	5.31
301.011	5.3
301.467	5.28
301.923	5.27
302.379	5.27
302.835	5.27
303.291	5.26
303.746	5.26
304.202	5.24
304.658	5.23
305.113	5.21
305.569	5.21
306.024	5.21
306.479	5.2
306.935	5.2
307.39	5.19
307.845	5.18
308.301	5.18
308.756	5.18
309.211	5.18
309.666	5.18
310.121	5.19
310.576	5.17
311.031	5.17
311.486	5.17
311.94	5.16
312.395	5.17
312.85	5.16
313.305	5.16
313.759	5.15
314.214	5.14
314.668	5.14
315.123	5.14
315.577	5.14
316.032	5.13
316.486	5.13
316.94	5.12
317.394	5.11
317.849	5.11
318.303	5.1
318.757	5.08
319.211	5.08
319.665	5.07
320.119	5.06
320.572	5.05
321.026	5.05
321.48	5.04
321.934	5.03
322.387	5.03
322.841	5.02
323.295	5.02
323.748	5.01
324.202	5.01
324.655	5.01
325.108	5
325.562	4.99
326.015	4.97
326.468	4.95
326.921	4.94
327.374	4.93
327.827	4.93
328.28	4.92
328.733	4.91
329.186	4.9
329.639	4.89
330.092	4.88
330.545	4.89
330.997	4.89
331.45	4.89
331.903	4.88
332.355	4.87
332.808	4.85
333.26	4.85
333.713	4.85
334.165	4.85
334.617	4.86
335.069	4.86
335.522	4.87
335.974	4.87
336.426	4.87
336.878	4.87
337.33	4.87
337.782	4.88
338.234	4.88
338.686	4.89
339.137	4.87
339.589	4.87
340.041	4.86
340.493	4.84
340.944	4.83
341.396	4.83
341.847	4.82
342.299	4.8
342.75	4.78
343.201	4.76
343.653	4.74
344.104	4.73
344.555	4.71
345.006	4.7
345.457	4.7
345.908	4.68
346.359	4.67
346.81	4.67
347.261	4.67
347.712	4.67
348.163	4.67
348.613	4.66
349.064	4.66
349.515	4.65
349.965	4.64
350.416	4.64
350.866	4.64
351.317	4.63
351.767	4.62
352.217	4.62
352.668	4.61
353.118	4.61
353.568	4.61
354.018	4.62
354.468	4.63
354.918	4.63
355.368	4.63
355.818	4.63
356.268	4.64
356.718	4.64
357.168	4.64
357.617	4.64
358.067	4.63
358.517	4.62
358.966	4.62
359.416	4.62
359.865	4.61
360.315	4.62
360.764	4.61
361.213	4.59
361.663	4.59
362.112	4.59
362.561	4.6
363.01	4.62
363.459	4.6
363.908	4.59
364.357	4.58
364.806	4.57
365.255	4.58
365.703	4.58
366.152	4.59
366.601	4.59
367.05	4.59
367.498	4.59
367.947	4.57
368.395	4.59
368.844	4.59
369.292	4.59
369.74	4.6
370.189	4.59
370.637	4.59
371.085	4.6
371.533	4.6
371.981	4.59
372.429	4.59
372.877	4.6
373.325	4.59
373.773	4.59
374.221	4.6
374.669	4.59
375.116	4.58
375.564	4.58
376.012	4.59
376.459	4.59
376.907	4.6
377.354	4.61
377.801	4.62
378.249	4.64
378.696	4.66
379.143	4.68
379.591	4.7
380.038	4.73
380.485	4.74
380.932	4.75
381.379	4.76
381.826	4.78
382.273	4.79
382.72	4.8
383.166	4.81
383.613	4.82
384.06	4.83
384.506	4.84
384.953	4.84
385.4	4.86
385.846	4.88
386.292	4.91
386.739	4.91
387.185	4.94
387.631	4.95
388.078	4.96
388.524	4.97
388.97	4.99
389.416	5
389.862	5.01
390.308	5.02
390.754	5.02
391.2	5.03
391.645	5.04
392.091	5.05
392.537	5.06
392.983	5.07
393.428	5.09
393.874	5.1
394.319	5.12
394.765	5.13
395.21	5.13
395.655	5.16
396.101	5.17
396.546	5.18
396.991	5.2
397.436	5.2
397.881	5.21
398.326	5.24
398.771	5.26
399.216	5.27
399.661	5.27
400.106	5.29
400.551	5.28
400.995	5.28
401.44	5.26
401.885	5.26
402.329	5.28
402.774	5.27
403.218	5.25
403.663	5.24
404.107	5.24
404.551	5.25
404.995	5.23
405.44	5.22
405.884	5.23
406.328	5.22
406.772	5.22
407.216	5.22
407.66	5.23
408.104	5.21
408.547	5.22
408.991	5.21
409.435	5.21
409.879	5.21
410.322	5.22
410.766	5.22
411.209	5.24
411.653	5.23
412.096	5.22
412.54	5.22
412.983	5.23
413.426	5.25
413.869	5.26
414.312	5.28
414.756	5.28
415.199	5.29
415.642	5.3
416.085	5.31
416.527	5.32
416.97	5.32
417.413	5.31
417.856	5.3
418.298	5.28
418.741	5.29
419.184	5.27
419.626	5.26
420.069	5.26
420.511	5.24
420.953	5.23
421.396	5.23
421.838	5.24
422.28	5.27
422.722	5.29
423.164	5.29
423.606	5.29
424.048	5.29
424.49	5.29
424.932	5.29
425.374	5.29
425.816	5.29
426.258	5.27
426.699	5.25
427.141	5.24
427.582	5.23
428.024	5.24
428.465	5.24
428.907	5.25
429.348	5.26
429.789	5.28
430.231	5.27
430.672	5.3
431.113	5.32
431.554	5.34
431.995	5.35
432.436	5.36
432.877	5.35
433.318	5.35
433.759	5.35
434.2	5.34
434.64	5.35
435.081	5.36
435.522	5.37
435.962	5.39
436.403	5.39
436.843	5.39
437.284	5.41
437.724	5.44
438.164	5.45
438.604	5.48
439.045	5.49
439.485	5.51
439.925	5.51
440.365	5.5
440.805	5.51
441.245	5.5
441.685	5.51
442.125	5.5
442.564	5.5
443.004	5.52
443.444	5.53
443.883	5.56
444.323	5.55
444.762	5.58
445.202	5.62
445.641	5.64
446.081	5.69
446.52	5.7
446.959	5.74
447.398	5.8
447.837	5.82
448.276	5.84
448.716	5.86
449.154	5.9
449.593	5.91
450.032	5.9
450.471	5.91
450.91	5.89
451.349	5.92
451.787	5.91
452.226	5.88
452.664	5.87
453.103	5.87
453.541	5.86
453.98	5.85
454.418	5.83
454.856	5.83
455.295	5.83
455.733	5.83
456.171	5.82
456.609	5.83
457.047	5.82
457.485	5.83
457.923	5.82
458.361	5.82
458.798	5.83
459.236	5.84
459.674	5.85
460.111	5.86
460.549	5.86
460.987	5.85
461.424	5.84
461.862	5.85
462.299	5.85
462.736	5.86
463.173	5.86
463.611	5.85
464.048	5.86
464.485	5.87
464.922	5.86
465.359	5.88
465.796	5.9
466.233	5.91
466.67	5.91
467.106	5.89
467.543	5.89
467.98	5.88
468.416	5.89
468.853	5.87
469.29	5.86
469.726	5.88
470.162	5.86
470.599	5.84
471.035	5.84
471.471	5.83
471.907	5.85
472.344	5.84
472.78	5.83
473.216	5.82
473.652	5.82
474.088	5.81
474.523	5.78
474.959	5.78
475.395	5.78
475.831	5.78
476.266	5.78
476.702	5.77
477.138	5.76
477.573	5.76
478.008	5.77
478.444	5.77
478.879	5.77
479.314	5.76
479.75	5.75
480.185	5.74
480.62	5.73
481.055	5.72
481.49	5.71
481.925	5.71
482.36	5.7
482.795	5.69
483.229	5.69
483.664	5.68
484.099	5.68
484.534	5.69
484.968	5.69
485.403	5.68
485.837	5.69
486.271	5.69
486.706	5.69
487.14	5.71
487.574	5.71
488.009	5.73
488.443	5.73
488.877	5.75
489.311	5.77
489.745	5.79
490.179	5.82
490.613	5.85
491.046	5.88
491.48	5.92
491.914	5.94
492.348	5.97
492.781	6
493.215	6.04
493.648	6.09
494.082	6.13
494.515	6.16
494.948	6.2
495.382	6.25
495.815	6.3
496.248	6.36
496.681	6.41
497.114	6.47
497.547	6.53
497.98	6.61
498.413	6.68
498.846	6.76
499.279	6.84
499.711	6.92
500.144	7.02
500.577	7.1
501.009	7.2
501.442	7.32
501.874	7.43
502.306	7.55
502.739	7.67
503.171	7.79
503.603	7.92
504.036	8.07
504.468	8.23
504.9	8.39
505.332	8.56
505.764	8.72
506.196	8.89
506.627	9.07
507.059	9.26
507.491	9.46
507.923	9.67
508.354	9.88
508.786	10.1
509.217	10.32
509.649	10.56
510.08	10.8
510.512	11.07
510.943	11.34
511.374	11.61
511.805	11.88
512.237	12.15
512.668	12.43
513.099	12.73
513.53	13.04
513.961	13.36
514.391	13.66
514.822	13.97
515.253	14.28
515.684	14.59
516.114	14.93
516.545	15.28
516.975	15.64
517.406	15.98
517.836	16.31
518.267	16.65
518.697	17
519.127	17.35
519.558	17.69
519.988	18.03
520.418	18.37
520.848	18.7
521.278	19.03
521.708	19.44
522.138	19.76
522.567	20.07
522.997	20.37
523.427	20.67
523.857	20.95
524.286	21.25
524.716	21.53
525.145	21.8
525.575	22.07
526.004	22.32
526.433	22.48
526.863	22.73
527.292	22.97
527.721	23.2
528.15	23.4
528.579	23.62
529.008	23.83
529.437	24.03
529.866	24.2
530.295	24.38
530.724	24.58
531.152	24.74
531.581	24.89
532.01	25.05
532.438	25.18
532.867	25.32
533.295	25.43
533.723	25.54
534.152	25.67
534.58	25.79
535.008	25.88
535.436	25.94
535.865	26.02
536.293	26.13
536.721	26.22
537.149	26.29
537.576	26.36
538.004	26.43
538.432	26.48
538.86	26.52
539.287	26.56
539.715	26.61
540.143	26.65
540.57	26.69
540.998	26.71
541.425	26.73
541.852	26.77
542.28	26.8
542.707	26.84
543.134	26.88
543.561	26.9
543.988	26.94
544.415	26.98
544.842	27.02
545.269	27.05
545.696	27.08
546.123	27.1
546.549	27.13
546.976	27.15
547.403	27.17
547.829	27.21
548.256	27.22
548.682	27.19
549.108	27.19
549.535	27.2
549.961	27.2
550.387	27.21
550.813	27.21
551.24	27.2
551.666	27.21
552.092	27.21
552.518	27.18
552.943	27.18
553.369	27.18
553.795	27.17
554.221	27.14
554.646	27.09
555.072	27.05
555.498	26.99
555.923	26.93
556.349	26.83
556.774	26.73
557.199	26.66
557.625	26.56
558.05	26.46
558.475	26.35
558.9	26.25
559.325	26.11
559.75	25.97
560.175	25.83
560.6	25.69
561.025	25.59
561.449	25.44
561.874	25.27
562.299	25.1
562.723	24.96
563.148	24.78
563.572	24.62
563.997	24.45
564.421	24.27
564.846	24.1
565.27	23.88
565.694	23.66
566.118	23.45
566.542	23.27
566.966	23.09
567.39	22.88
567.814	22.67
568.238	22.45
568.662	22.27
569.086	22.08
569.509	21.88
569.933	21.71
570.357	21.52
570.78	21.35
571.204	21.15
571.627	20.96
572.05	20.77
572.474	20.61
572.897	20.43
573.32	20.25
573.743	20.06
574.166	19.9
574.589	19.73
575.012	19.59
575.435	19.43
575.858	19.3
576.281	19.17
576.704	19.04
577.126	18.91
577.549	18.8
577.972	18.68
578.394	18.55
578.817	18.42
579.239	18.32
579.661	18.21
580.084	18.1
580.506	17.98
580.928	17.86
581.35	17.76
581.772	17.67
582.194	17.55
582.616	17.46
583.038	17.36
583.46	17.28
583.882	17.19
584.303	17.09
584.725	17.01
585.147	16.93
585.568	16.85
585.99	16.76
586.411	16.66
586.833	16.58
587.254	16.5
587.675	16.44
588.096	16.36
588.518	16.29
588.939	16.21
589.36	16.13
589.781	16.07
590.202	15.99
590.623	15.94
591.043	15.88
591.464	15.82
591.885	15.76
592.305	15.69
592.726	15.64
593.147	15.59
593.567	15.54
593.987	15.51
594.408	15.45
594.828	15.43
595.248	15.39
595.669	15.36
596.089	15.34
596.509	15.29
596.929	15.25
597.349	15.21
597.769	15.16
598.189	15.12
598.608	15.06
599.028	15.02
599.448	14.98
599.867	14.92
600.287	14.86
600.706	14.8
601.126	14.76
601.545	14.72
601.965	14.67
602.384	14.62
602.803	14.56
603.222	14.51
603.641	14.45
604.061	14.39
604.48	14.33
604.898	14.27
605.317	14.2
605.736	14.14
606.155	14.08
606.574	14
606.992	13.91
607.411	13.85
607.829	13.72
608.248	13.64
608.666	13.55
609.085	13.47
609.503	13.39
609.921	13.3
610.339	13.21
610.758	13.12
611.176	13.04
611.594	12.96
612.012	12.88
612.43	12.85
612.847	12.79
613.265	12.73
613.683	12.65
614.101	12.58
614.518	12.51
614.936	12.45
615.353	12.37
615.771	12.29
616.188	12.24
616.606	12.17
617.023	12.1
617.44	12.01
617.857	11.94
618.274	11.88
618.691	11.83
619.108	11.77
619.525	11.73
619.942	11.69
620.359	11.65
620.776	11.62
621.192	11.58
621.609	11.55
622.026	11.53
622.442	11.51
622.859	11.48
623.275	11.47
623.691	11.45
624.108	11.44
624.524	11.42
624.94	11.41
625.356	11.38
625.772	11.39
626.188	11.39
626.604	11.36
627.02	11.36
627.436	11.36
627.852	11.34
628.268	11.32
628.683	11.29
629.099	11.27
629.514	11.24
629.93	11.22
630.345	11.18
630.761	11.14
631.176	11.11
631.591	11.07
632.007	11
632.422	10.96
632.837	10.88
633.252	10.82
633.667	10.75
634.082	10.69
634.497	10.6
634.911	10.52
635.326	10.42
635.741	10.32
636.155	10.21
636.57	10.12
636.984	9.99
637.399	9.87
637.813	9.74
638.228	9.62
638.642	9.49
639.056	9.34
639.47	9.22
639.884	9.1
640.298	8.98
640.712	8.84
641.126	8.7
641.54	8.57
641.954	8.47
642.368	8.35
642.781	8.25
643.195	8.14
643.609	8.06
644.022	7.94
644.436	7.84
644.849	7.75
645.262	7.67
645.676	7.58
646.089	7.51
646.502	7.43
646.915	7.37
647.328	7.3
647.741	7.24
648.154	7.19
648.567	7.16
648.98	7.13
649.393	7.09
649.805	7.04
650.218	7.02
650.631	6.99
651.043	6.97
651.456	6.95
651.868	6.92
652.28	6.91
652.693	6.87
653.105	6.82
653.517	6.8
653.929	6.77
654.341	6.74
654.753	6.7
655.165	6.66
655.577	6.62
655.989	6.56
656.401	6.52
656.813	6.46
657.224	6.42
657.636	6.38
658.047	6.33
658.459	6.28
658.87	6.24
659.282	6.21
659.693	6.17
660.104	6.13
660.515	6.1
660.926	6.07
661.338	6.03
661.749	5.98
662.159	5.95
662.57	5.92
662.981	5.89
663.392	5.86
663.803	5.83
664.213	5.81
664.624	5.78
665.035	5.75
665.445	5.74
665.855	5.74
666.266	5.74
666.676	5.72
667.086	5.71
667.497	5.71
667.907	5.7
668.317	5.7
668.727	5.71
669.137	5.72
669.547	5.74
669.956	5.76
670.366	5.76
670.776	5.77
671.186	5.8
671.595	5.83
672.005	5.86
672.414	5.9
672.824	5.95
673.233	5.98
673.642	6
674.052	6.03
674.461	6.06
674.87	6.09
675.279	6.15
675.688	6.19
676.097	6.24
676.506	6.3
676.915	6.34
677.323	6.38
677.732	6.44
678.141	6.5
678.549	6.57
678.958	6.64
679.366	6.69
679.775	6.75
680.183	6.82
680.592	6.88
681	6.95
681.408	7.02
681.816	7.08
682.224	7.15
682.632	7.24
683.04	7.33
683.448	7.44
683.856	7.56
684.264	7.68
684.671	7.81
685.079	7.97
685.487	8.15
685.894	8.35
686.302	8.56
686.709	8.82
687.116	9.08
687.524	9.38
687.931	9.69
688.338	10.04
688.745	10.42
689.152	10.84
689.559	11.27
689.966	11.73
690.373	12.24
690.78	12.78
691.187	13.32
691.593	13.9
692	14.5
692.407	15.11
692.813	15.77
693.22	16.45
693.626	17.14
694.032	17.87
694.439	18.6
694.845	19.32
695.251	20.06
695.657	20.79
696.063	21.54
696.469	22.3
696.875	23.07
697.281	23.79
697.687	24.54
698.093	25.28
698.498	26.02
698.904	26.77
699.31	27.52
699.715	28.27
700.12	28.98
700.526	29.69
700.931	30.4
701.337	31.13
701.742	31.86
702.147	32.56
702.552	33.25
702.957	33.92
703.362	34.58
703.767	35.23
704.172	35.85
704.577	36.52
704.981	37.17
705.386	37.78
705.791	38.4
706.195	38.99
706.6	39.57
707.004	40.16
707.408	40.75
707.813	41.34
708.217	41.88
708.621	42.43
709.025	42.96
709.43	43.47
709.834	44.04
710.237	44.55
710.641	45.09
711.045	45.6
711.449	46.09
711.853	46.58
712.256	47.08
712.66	47.55
713.064	48.04
713.467	48.53
713.87	49.02
714.274	49.5
714.677	49.95
715.08	50.37
715.484	50.82
715.887	51.29
716.29	51.69
716.693	52.06
717.096	52.51
717.499	52.91
717.901	53.25
718.304	53.6
718.707	53.92
719.109	54.28
719.512	54.66
719.915	54.98
720.317	55.31
720.719	55.62
721.122	55.94
721.524	56.23
721.926	56.55
722.328	56.89
722.731	57.23
723.133	57.53
723.535	57.83
723.937	58.07
724.338	58.34
724.74	58.59
725.142	58.87
725.544	59.1
725.945	59.35
726.347	59.55
726.748	59.74
727.15	59.91
727.551	60.12
727.952	60.31
728.354	60.51
728.755	60.72
729.156	60.89
729.557	61.06
729.958	61.28
730.359	61.44
730.76	61.57
731.161	61.73
731.562	61.89
731.962	62.02
732.363	62.12
732.763	62.28
733.164	62.39
733.564	62.47
733.965	62.56
734.365	62.64
734.766	62.74
735.166	62.83
735.566	62.92
735.966	63
736.366	63.08
736.766	63.16
737.166	63.21
737.566	63.29
737.966	63.37
738.365	63.48
738.765	63.54
739.165	63.58
739.564	63.66
739.964	63.73
740.363	63.79
740.763	63.82
741.162	63.89
741.561	63.96
741.96	64
742.36	64.06
742.759	64.1
743.158	64.13
743.557	64.19
743.955	64.22
744.354	64.29
744.753	64.35
745.152	64.39
745.55	64.43
745.949	64.45
746.348	64.51
746.746	64.52
747.144	64.55
747.543	64.58
747.941	64.64
748.339	64.7
748.737	64.74
749.136	64.76
749.534	64.79
749.932	64.77
750.33	64.82
750.727	64.8
751.125	64.83
751.523	64.84
751.921	64.9
752.318	64.91
752.716	64.89
753.113	64.83
753.511	64.82
753.908	64.84
754.305	64.84
754.703	64.84
755.1	64.82
755.497	64.84
755.894	64.86
756.291	64.85
756.688	64.83
757.085	64.82
757.482	64.87
757.878	64.9
758.275	64.9
758.672	64.94
759.068	64.94
759.465	64.96
759.861	64.96
760.258	64.91
760.654	64.91
761.05	64.92
761.447	64.92
761.843	64.88
762.239	64.85
762.635	64.84
763.031	64.8
763.427	64.75
763.822	64.73
764.218	64.7
764.614	64.72
765.01	64.7
765.405	64.64
765.801	64.64
766.196	64.65
766.592	64.68
766.987	64.66
767.382	64.68
767.778	64.71
768.173	64.7
768.568	64.69
768.963	64.65
769.358	64.62
769.753	64.69
770.148	64.68
770.542	64.64
770.937	64.61
771.332	64.63
771.726	64.57
772.121	64.53
772.515	64.51
772.91	64.52
773.304	64.51
773.699	64.48
774.093	64.42
774.487	64.4
774.881	64.39
775.275	64.36
775.669	64.35
776.063	64.35
776.457	64.31
776.851	64.31
777.245	64.29
777.638	64.28
778.032	64.32
778.425	64.34
778.819	64.36
779.212	64.37
779.606	64.37
779.999	64.3
780.392	64.31
780.786	64.33
781.179	64.35
781.572	64.33
781.965	64.34
782.358	64.29
782.751	64.25
783.143	64.23
783.536	64.25
783.929	64.3
784.322	64.35
784.714	64.39
785.107	64.44
785.499	64.44
785.891	64.45
786.284	64.42
786.676	64.43
787.068	64.45
787.46	64.46
787.852	64.46
788.245	64.48
788.636	64.48
789.028	64.42
789.42	64.42
789.812	64.4
790.204	64.36
790.595	64.37
790.987	64.4
791.378	64.4
791.77	64.43
792.161	64.44
792.553	64.38
792.944	64.39
793.335	64.44
793.726	64.38
794.117	64.39
794.508	64.41
794.899	64.43
795.29	64.38
795.681	64.38
796.072	64.31
796.463	64.33
796.853	64.31
797.244	64.29
797.634	64.23
798.025	64.26
798.415	64.28
798.806	64.28
799.196	64.29
799.586	64.32
799.976	64.32
800.366	64.38
800.756	64.34
801.146	64.35
801.536	64.38
801.926	64.4
802.316	64.36
802.706	64.37
803.095	64.41
803.485	64.41
803.874	64.41
804.264	64.42
804.653	64.4
805.043	64.44
805.432	64.48
805.821	64.45
806.21	64.49
806.599	64.55
806.988	64.53
807.377	64.51
807.766	64.51
808.155	64.53
808.544	64.51
808.933	64.5
809.321	64.5
809.71	64.5
810.098	64.52
810.487	64.52
810.875	64.5
811.264	64.52
811.652	64.55
812.04	64.55
812.428	64.59
812.816	64.66
813.204	64.66
813.592	64.63
813.98	64.62
814.368	64.62
814.756	64.62
815.144	64.65
815.531	64.64
815.919	64.6
816.306	64.6
816.694	64.57
817.081	64.53
817.469	64.58
817.856	64.63
818.243	64.66
818.63	64.69
819.017	64.72
819.404	64.72
819.791	64.74
820.178	64.78
820.565	64.84
820.952	64.86
821.339	64.92
821.725	64.92
822.112	64.93
822.498	64.92
822.885	64.94
823.271	64.98
823.657	64.99
824.044	65.01
824.43	65.02
824.816	64.98
825.202	64.99
825.588	64.98
825.974	64.96
826.36	64.95
826.746	64.97
827.132	64.94
827.517	64.9
827.903	64.89
828.289	64.88
828.674	64.86
829.06	64.9
829.445	64.93
829.83	64.94
830.216	64.95
830.601	64.95
830.986	64.97
831.371	64.98
831.756	64.99
832.141	65.02
832.526	65.02
832.911	65.08
833.295	65.1
833.68	65.07
834.065	65.09
834.449	65.09
834.834	65.12
835.218	65.11
835.603	65.14
835.987	65.15
836.371	65.16
836.755	65.15
837.139	65.13
837.524	65.1
837.908	65.08
838.291	65.06
838.675	65.06
839.059	65.02
839.443	65
839.827	64.95
840.21	64.96
840.594	64.93
840.977	64.91
841.361	64.9
841.744	64.92
842.127	64.9
842.511	64.89
842.894	64.9
843.277	64.92
843.66	64.91
844.043	64.94
844.426	64.92
844.809	64.93
845.191	64.93
845.574	64.93
845.957	64.89
846.339	64.92
846.722	64.94
847.104	64.92
847.487	64.93
847.869	64.94
848.252	64.92
848.634	64.92
849.016	64.94
849.398	64.92
849.78	64.94
850.162	64.95
850.544	64.95
850.926	64.95
851.307	64.98
851.689	64.95
852.071	64.97
852.452	65
852.834	65
853.215	64.99
853.597	65.03
853.978	65.01
854.359	64.98
854.741	64.97
855.122	64.96
855.503	64.95
855.884	64.95
856.265	64.92
856.646	64.94
857.026	64.93
857.407	64.89
857.788	64.9
858.169	64.9
858.549	64.92
858.93	64.95
859.31	64.96
859.69	64.95
860.071	64.96
860.451	64.98
860.831	64.93
861.211	64.93
861.591	64.97
861.971	64.95
862.351	64.95
862.731	64.95
863.111	64.91
863.491	64.93
863.87	64.9
864.25	64.92
864.629	64.9
865.009	64.89
865.388	64.87
865.768	64.84
866.147	64.87
866.526	64.87
866.905	64.89
867.284	64.91
867.663	64.91
868.042	64.93
868.421	64.89
868.8	64.88
869.179	64.89
869.558	64.9
869.936	64.91
870.315	64.87
870.693	64.88
871.072	64.84
871.45	64.82
871.828	64.81
872.207	64.79
872.585	64.83
872.963	64.83
873.341	64.87
873.719	64.85
874.097	64.85
874.475	64.89
874.853	64.88
875.23	64.89
875.608	64.92
875.986	64.91
876.363	64.88
876.741	64.87
877.118	64.87
877.495	64.84
877.873	64.87
878.25	64.86
878.627	64.84
879.004	64.8
879.381	64.8
879.758	64.76
880.135	64.76
880.512	64.77
880.889	64.76
881.265	64.77
881.642	64.77
882.019	64.79
882.395	64.82
882.772	64.81
883.148	64.8
883.524	64.82
883.901	64.82
884.277	64.8
884.653	64.83
885.029	64.83
885.405	64.81
885.781	64.82
886.157	64.78
886.532	64.73
886.908	64.75
887.284	64.81
887.659	64.83
888.035	64.86
888.411	64.85
888.786	64.85
889.161	64.88
889.537	64.9
889.912	64.85
890.287	64.82
890.662	64.8
891.037	64.78
891.412	64.76
891.787	64.72
892.162	64.7
892.536	64.7
892.911	64.65
893.286	64.58
893.66	64.55
894.035	64.55
894.409	64.57
894.784	64.61
895.158	64.61
895.532	64.6
895.906	64.6
896.281	64.6
896.655	64.59
897.029	64.61
897.402	64.63
897.776	64.66
898.15	64.69
898.524	64.67
898.898	64.61
899.271	64.6
899.645	64.57
900.018	64.52
900.392	64.48
900.765	64.49
901.138	64.5
901.511	64.49
901.884	64.49
902.258	64.47
902.631	64.48
903.003	64.49
903.376	64.46
903.749	64.44
904.122	64.43
904.495	64.46
904.867	64.43
905.24	64.38
905.612	64.37
905.985	64.31
906.357	64.27
906.729	64.24
907.102	64.28
907.474	64.29
907.846	64.32
908.218	64.33
908.59	64.26
908.962	64.24
909.334	64.26
909.705	64.24
910.077	64.24
910.449	64.25
910.82	64.27
911.192	64.21
911.563	64.19
911.935	64.13
912.306	64.1
912.677	64.11
913.048	64.08
913.419	64.03
913.79	63.98
914.161	63.97
914.532	63.94
914.903	63.92
915.274	63.9
915.645	63.9
916.015	63.89
916.386	63.88
916.756	63.83
917.127	63.82
917.497	63.83
917.868	63.87
918.238	63.91
918.608	63.92
918.978	63.93
919.348	63.91
919.718	63.88
920.088	63.87
920.458	63.87
920.828	63.91
921.198	63.96
921.567	63.94
921.937	63.91
922.306	63.86
922.676	63.86
923.045	63.82
923.415	63.82
923.784	63.84
924.153	63.84
924.522	63.85
924.891	63.85
925.26	63.82
925.629	63.83
925.998	63.78
926.367	63.73
926.736	63.67
927.104	63.67
927.473	63.65
927.842	63.6
928.21	63.62
928.578	63.53
928.947	63.48
929.315	63.49
929.683	63.47
930.051	63.49
930.42	63.53
930.788	63.52
931.156	63.47
931.523	63.52
931.891	63.46
932.259	63.35
932.627	63.31
932.994	63.33
933.362	63.24
933.729	63.17
934.097	63.14
934.464	63.07
934.831	63.02
935.199	63.04
935.566	62.9
935.933	62.92
936.3	62.94
936.667	62.92
937.034	62.8
937.401	62.72
937.767	62.66
938.134	62.62
938.501	62.52
938.867	62.55
939.234	62.54
939.6	62.5
939.967	62.47
940.333	62.54
940.699	62.56
941.065	62.6
941.431	62.67
941.798	62.71
942.163	62.72
942.529	62.74
942.895	62.68
943.261	62.62
943.627	62.74
943.992	62.75
944.358	62.72
944.723	62.72
945.089	62.72
945.454	62.77
945.82	62.75
946.185	62.87
946.55	63.02
946.915	62.99
947.28	63
947.645	62.97
948.01	63.01
948.375	63.01
948.74	63.01
949.104	63.07
949.469	62.96
949.834	62.97
950.198	62.8
950.562	62.67
950.927	62.7
951.291	62.61
951.655	62.61
952.02	62.58
952.384	62.58
952.748	62.64
953.112	62.64
953.476	62.7
953.839	62.66
954.203	62.71
954.567	62.72
954.931	62.68
955.294	62.71
955.658	62.62
956.021	62.59
956.385	62.58
956.748	62.53
957.111	62.46
957.474	62.44
957.837	62.47
958.2	62.43
958.563	62.37
958.926	62.38
959.289	62.4
959.652	62.38
960.015	62.35
960.377	62.29
960.74	62.24
961.102	62.27
961.465	62.33
961.827	62.21
962.189	62.16
962.552	62.12
962.914	62.11
963.276	62.08
963.638	62.05
964	62.02
964.362	62.07
964.724	62.03
965.085	61.99
965.447	61.82
965.809	61.84
966.17	61.86
966.532	61.93
966.893	61.87
967.255	61.83
967.616	61.86
967.977	61.91
968.338	61.81
968.699	61.81
969.061	61.8
969.421	61.84
969.782	61.84
970.143	61.81
970.504	61.69
970.865	61.6
971.225	61.57
971.586	61.56
971.946	61.57
972.307	61.6
972.667	61.66
973.027	61.69
973.388	61.65
973.748	61.66
974.108	61.65
974.468	61.78
974.828	61.93
975.188	62.03
975.548	62.02
975.907	61.95
976.267	61.93
976.627	61.86
976.986	61.82
977.346	61.8
977.705	61.82
978.064	61.86
978.424	61.78
978.783	61.76
979.142	61.65
979.501	61.66
979.86	61.61
980.219	61.52
980.578	61.49
980.937	61.55
981.296	61.6
981.654	61.62
982.013	61.52
982.371	61.48
982.73	61.36
983.088	61.32
983.447	61.23
983.805	61.17
984.163	61.21
984.521	61.05
984.879	60.91
985.237	60.96
985.595	60.93
985.953	60.95
986.311	61.01
986.669	60.97
987.026	61
987.384	60.99
987.741	61.1
988.099	61.04
988.456	61.18
988.814	61.23
989.171	61.12
989.528	60.95
989.885	60.85
990.242	60.81
990.599	60.9
990.956	60.77
991.313	60.8
991.67	60.83
992.027	60.9
992.383	60.88
992.74	60.8
993.096	60.76
993.453	60.85
993.809	60.89
994.165	60.99
994.522	60.99
994.878	61.14
995.234	61.16
995.59	61.07
995.946	61.04
996.302	60.81
996.658	60.73
997.013	60.68
997.369	60.59
997.725	60.68
998.08	60.48
998.436	60.48
998.791	60.27
999.147	60.19
999.502	60.08
999.857	60.05
1000.212	60.1
1000.567	60.21
1000.922	60.17
1001.277	60.15
1001.632	60.08
1001.987	60.07
1002.342	59.96
1002.696	60.04
1003.051	60
1003.406	60.05
1003.76	60.11
1004.114	60.33
1004.469	60.24
1004.823	60.25
1005.177	60.43
1005.531	60.2
1005.885	60.37
1006.239	60.27
1006.593	60.17
1006.947	60.16
1007.301	60.03
1007.655	59.97
1008.008	59.8
1008.362	59.73
1008.715	59.72
1009.069	59.52
1009.422	59.53
1009.776	59.32
1010.129	59.28
1010.482	59.47
1010.835	59.51
1011.188	59.33
1011.541	58.88
1011.894	58.9
1012.247	58.84
1012.6	58.86
1012.952	58.83
1013.305	58.8
1013.657	58.78
1014.01	58.91
1014.362	58.78
1014.715	58.56
1015.067	58.86
1015.419	59.26
1015.771	59.2
1016.123	58.94
1016.475	59.15
1016.827	59.23
1017.179	59.42
1017.531	59.15
1017.883	58.98
1018.234	58.78
1018.586	58.76
1018.938	58.7
1019.289	58.45
1019.64	58.53
1019.992	58.84
1020.343	58.44
1020.694	58.17
1021.045	58.08
1021.396	58.03
1021.747	58.14
1022.098	58.42
1022.449	58.39
1022.8	58.27
1023.151	58.12
1023.501	57.95
1023.852	57.9
1024.202	57.85
1024.553	57.56
1024.903	57.41
1025.253	57.35
1025.604	57.11
1025.954	56.67
1026.304	57.16
1026.654	57.23
1027.004	57.59
1027.354	57.54
1027.703	57.68
1028.053	57.2
1028.403	57.43
1028.753	57.57
1029.102	57.59
1029.452	57.39
1029.801	57.24
1030.15	56.63
1030.499	56.35
897.758	690.35
901.051	697.46
904.343	707.84
907.636	693.87
910.928	683.1
914.22	695.84
917.511	681.93
920.803	655.84
924.094	629.98
927.384	633.19
930.675	614.39
933.965	605.23
937.255	603.92
940.544	576.18
943.834	548.99
947.123	539.6
950.411	511.8
953.7	502.49
956.988	485.78
960.276	463.67
963.563	457.43
966.851	434.11
970.138	428.28
973.424	399.82
976.711	395.15
979.997	384.13
983.283	376.81
986.568	363.72
989.853	352.43
993.138	340.27
996.423	335.2
999.708	326.38
1002.992	327.68
1006.275	315.16
1009.559	313.21
1012.842	302.59
1016.125	293.02
1019.408	286.76
1022.69	283.6
1025.972	283.8
1029.254	276.03
1032.536	271.74
1035.817	262.18
1039.098	258.06
1042.379	254.98
1045.659	250.9
1048.939	249.58
1052.219	245.42
1055.498	240.88
1058.778	237.8
1062.057	232.48
1065.335	231.62
1068.614	228.04
1071.892	226.57
1075.17	220.99
1078.447	217.75
1081.724	216.81
1085.001	213.1
1088.278	212.53
1091.554	211.21
1094.83	209.86
1098.106	205.83
1101.382	204.96
1104.657	203.75
1107.932	202.15
1111.206	201.57
1114.481	199.55
1117.755	198.07
1121.029	196.51
1124.302	194.17
1127.575	191.69
1130.848	190.45
1134.121	188.2
1137.393	188.14
1140.665	185.5
1143.937	183.93
1147.208	181.74
1150.48	180.25
1153.75	178.39
1157.021	176.93
1160.291	176.36
1163.561	176.74
1166.831	175.11
1170.101	175.61
1173.37	174.24
1176.639	173.26
1179.907	172.91
1183.176	173.05
1186.444	173.02
1189.711	172.38
1192.979	173.99
1196.246	173.83
1199.513	172.12
1202.78	172.71
1206.046	172.54
1209.312	172.71
1212.578	174.25
1215.843	176.12
1219.108	177.8
1222.373	179.96
1225.638	182.42
1228.902	186.37
1232.166	192.08
1235.43	195.16
1238.693	200.47
1241.956	204.37
1245.219	209.01
1248.482	211.1
1251.744	210.48
1255.006	210.83
1258.268	206.5
1261.529	204.88
1264.79	199.71
1268.051	194.84
1271.312	193.35
1274.572	189.76
1277.832	185.62
1281.092	183.38
1284.351	179.28
1287.61	178.98
1290.869	177.86
1294.128	176.97
1297.386	176.46
1300.644	175.63
1303.902	175.91
1307.159	174.96
1310.416	175.5
1313.673	178.02
1316.93	178.92
1320.186	181.99
1323.442	184.41
1326.697	188.06
1329.953	189.96
1333.208	196.4
1336.463	202.59
1339.717	205.91
1342.972	217.29
1346.226	222.46
1349.479	224.37
1352.733	234.55
1355.986	238.73
1359.238	243.79
1362.491	245.24
1365.743	254.81
1368.995	254.99
1372.247	257.19
1375.498	256.87
1378.749	262.84
1382	263.83
1385.251	262.77
1388.501	261.44
1391.751	265.49
1395	264.3
1398.25	267.08
1401.499	265.45
1404.748	266.21
1407.996	260.12
1411.244	260.16
1414.492	255.67
1417.74	249.47
1420.987	243.77
1424.234	239.44
1427.481	231.64
1430.728	224.98
1433.974	217.17
1437.22	209.68
1440.465	203.77
1443.711	197.94
1446.956	191.35
1450.201	184.36
1453.445	177.21
1456.689	172.74
1459.933	167.37
1463.177	160.69
1466.42	157.41
1469.663	153.33
1472.906	149.61
1476.148	145.68
1479.391	142.59
1482.633	140.98
1485.874	138.92
1489.115	137.27
1492.356	134.99
1495.597	133.2
1498.838	132.7
1502.078	131.75
1505.318	131.27
1508.557	130.47
1511.797	128.75
1515.036	128.72
1518.274	127.99
1521.513	126.35
1524.751	125.55
1527.989	126.55
1531.227	126.4
1534.464	125.55
1537.701	125.04
1540.938	124.42
1544.174	124.49
1547.41	125.06
1550.646	124.62
1553.882	124.48
1557.117	124.1
1560.352	124
1563.587	122.63
1566.821	122.5
1570.055	122
1573.289	121.44
1576.523	121.29
1579.756	120.47
1582.989	120.22
1586.222	119.56
1589.454	118.99
1592.686	119.18
1595.918	118.85
1599.15	118.91
1602.381	118.91
1605.612	118.66
1608.843	118.8
1612.073	119.76
1615.303	119.82
1618.533	119.06
1621.762	119.85
1624.992	120.08
1628.221	119.56
1631.449	120.27
1634.678	119.37
1637.906	119.42
1641.134	119.95
1644.361	119.8
1647.588	119.77
1650.815	120.08
1654.042	120.09
1657.269	119.89
1660.495	120.59
1663.72	120.44
1666.946	120.28
1670.171	121.23
1673.396	121.99
1676.621	122.19
1679.845	122.72
1683.069	121.62
1686.293	121.08
1689.517	121.73
1692.74	121.73
1695.963	121.52
1699.185	122.35
1702.408	122.49
1705.63	122.61
1708.852	123.01
1712.073	122.35
1715.294	121.91
1718.515	123.24
1721.736	123.55
1724.956	124.14
1728.176	124.1
1731.396	125.02
1734.616	124.79
1737.835	124.78
1741.054	124.7
1744.272	124.33
1747.491	124.86
1750.709	125.65
1753.927	125.52
1757.144	126.06
1760.361	125.53
1763.578	126.05
1766.795	126.33
1770.011	126.97
1773.227	128.31
1776.443	129.13
1779.658	129.47
1782.874	130.04
1786.089	130.63
1789.303	130.91
1792.518	132.05
1795.732	132.98
1798.945	133.92
1802.159	133.89
1805.372	135.51
1808.585	135.58
1811.797	136.75
1815.01	137.2
1818.222	138.53
1821.434	139.21
1824.645	140.14
1827.856	141.99
1831.067	142.78
1834.278	143.55
1837.488	144.94
1840.698	145.98
1843.908	145.96
1847.117	146.87
1850.326	148.23
1853.535	148.9
1856.744	150.06
1859.952	151.83
1863.16	151.35
1866.368	151.52
1869.575	152.67
1872.782	152
1875.989	149.96
1879.196	150.23
1882.402	149.43
1885.608	149.62
1888.814	148.52
1892.019	149.1
1895.224	146.43
1898.429	146.42
1901.634	146.87
1904.838	146.69
1908.042	147.22
1911.246	147.97
1914.449	147.44
1917.652	147.96
1920.855	148.43
1924.058	147
1927.26	146.09
1930.462	147.75
1933.664	147.46
1936.865	147.26
1940.066	145.88
1943.267	144.85
1946.467	145.77
1949.668	145.99
1952.868	146.13
1956.067	145.62
1959.267	148.12
1962.466	148.52
1965.665	149.12
1968.863	151.09
1972.061	152.02
1975.259	155.25
1978.457	156.24
1981.654	157.69
1984.852	159.66
1988.048	161.24
1991.245	163.99
1994.441	166.73
1997.637	170.12
2000.833	173.67
2004.028	174.97
2007.223	179.97
2010.418	183.57
2013.613	192.78
2016.807	197.72
2020.001	200.64
2023.194	205.9
2026.388	212.27
2029.581	223.68
2032.774	230.46
2035.966	238.46
2039.158	245.4
2042.35	250.25
2045.542	253.34
2048.733	262.31
2051.924	263.96
2055.115	268.44
2058.306	272
2061.496	278.43
2064.686	276.36
2067.875	275.08
2071.065	275.66
2074.254	277.52
2077.442	284.63
2080.631	288.93
2083.819	288.42
2087.007	295.36
2090.195	301.24
2093.382	299.34
2096.569	299.02
2099.756	303.8
2102.942	309.46
2106.128	316.8
2109.314	317.44
2112.5	317.38
2115.685	315.47
2118.87	315.87
2122.055	315.91
2125.239	322.11
2128.424	330.41
2131.608	327.07
2134.791	328.05
2137.974	331.52
2141.157	334.47
2144.34	338.62
2147.523	341.85
2150.705	351.12
2153.887	346.22
2157.068	350.41
2160.25	354.34
2163.431	353.96
2166.611	362.97
2169.792	369.72
2172.972	371.55
2176.152	371.23
2179.331	378.75
2182.511	380.07
2185.69	384.26
2188.868	402.51
2192.047	409.02
2195.225	411.06
2198.403	419
2201.58	411.54
2204.758	423.73
2207.935	429.75
2211.111	437.16
2214.288	438.89
2217.464	445
2220.64	448.13
2223.815	447.83
2226.991	444.66
2230.166	449.22
2233.34	460.77
2236.515	474.01
2239.689	468.82
2242.863	477.08
2246.036	471.32
2249.209	485.79
2252.382	483.73
2255.555	502.12
2258.727	504.8
2261.9	521.97
2265.071	527.85
2268.243	523.66
2271.414	541.08
2274.585	549.77
2277.756	551.62
2280.926	574.11
2284.096	571.74
2287.266	573.39
2290.436	557.67
2293.605	571.7
2296.774	591.89
2299.942	589.5
2303.111	606.42
2306.279	616.55
2309.447	621.77
2312.614	614.81
2315.781	630.45
2318.948	640.27
2322.115	653.94
2325.281	689.46
2328.447	684.1
2331.613	684.08
2334.779	701
2337.944	710.58
2341.109	723.7
2344.274	725.22
2347.438	757.55
2350.602	762.89
2353.766	806.94
2356.929	812.08
2360.092	826.78
2363.255	828.75
2366.418	840.23
2369.58	856.33
2372.742	852.72
2375.904	846.87
2379.066	875.06
2382.227	920.68
2385.388	923.98
2388.548	877.12
2391.709	869.73
2394.869	892.78
2398.029	900.16
2401.188	897.69
2404.347	924.79
2407.506	957.68
2410.665	922.69
2413.823	927.6
2416.981	926.19
2420.139	873.78
2423.296	944.55
2426.453	997.45
2429.61	953.44
2432.767	1018.09
2435.923	1054.17
2439.079	1010.39
2442.235	1038.44
2445.391	1064.81
2448.546	1053.45
2451.701	1105.92
2454.855	1188.67
2458.009	1043.56
2461.163	1071.61
2464.317	1080.5
2467.471	1055.35
2470.624	1082.3
2473.777	1081.88
2476.929	1041.88
2480.082	1117.36
2483.234	1170.19
2486.385	1188.03
2489.537	1214.1
2492.688	1350.32
2495.839	1331.42
2498.989	1367.33
2502.14	1367.27
2505.29	1315.39
2508.439	1453.74
2511.589	1491.76
2514.738	1439.68
2517.887	1429.26
2521.035	1343.24
2524.183	1324.39
2527.331	1307.12
2530.479	1268.53
2533.627	1300.24
