Data from N_1_dec_va_2n_009_Splice17_17.txt Node
Date: Sat Feb 29 13:36:45 EST 2020
User: sa697716
Spectrometer: FLMS03696
Trigger mode: 0
Integration Time (sec): 3.180400E-1
Scans to average: 20
Electric dark correction enabled: true
Nonlinearity correction enabled: true
Boxcar width: 5
XAxis mode: Wavelengths
Number of Pixels in Spectrum: 2048
>>>>>Begin Spectral Data<<<<<
187.83	100.88
188.298	112.11
188.766	102.34
189.233	102.37
189.701	100.24
190.169	108.01
190.636	105.59
191.104	123.25
191.571	407.57
192.039	368.11
192.506	-161.87
192.974	-2569.25
193.441	746.32
193.908	-10.82
194.375	37.94
194.842	80.33
195.31	51.2
195.777	26.08
196.244	21.11
196.711	19.72
197.177	20.93
197.644	19.51
198.111	19.9
198.578	20.46
199.045	20.94
199.511	20.69
199.978	21.02
200.445	22.07
200.911	22.27
201.378	22.45
201.844	23.43
202.31	24.15
202.777	24.61
203.243	24.9
203.709	25.61
204.176	25.47
204.642	25.55
205.108	25.54
205.574	25.17
206.04	25.24
206.506	25.06
206.972	24.55
207.438	23.99
207.903	24.31
208.369	23.63
208.835	23.43
209.301	23.6
209.766	23.53
210.232	23.23
210.697	23.19
211.163	23
211.628	22.86
212.094	22.92
212.559	22.96
213.024	22.02
213.49	22.38
213.955	22.46
214.42	21.88
214.885	21.51
215.35	21.38
215.815	20.66
216.28	20.02
216.745	19.45
217.21	18.9
217.675	18.1
218.14	17.63
218.604	16.82
219.069	16.18
219.534	15.74
219.998	15.27
220.463	14.9
220.927	14.7
221.392	14.44
221.856	14.19
222.32	13.9
222.785	13.71
223.249	13.56
223.713	13.43
224.177	13.28
224.642	13.13
225.106	12.99
225.57	12.83
226.034	12.68
226.497	12.54
226.961	12.39
227.425	12.21
227.889	12.07
228.353	11.91
228.816	11.78
229.28	11.61
229.744	11.48
230.207	11.36
230.671	11.23
231.134	11.08
231.597	10.95
232.061	10.83
232.524	10.73
232.987	10.59
233.45	10.47
233.914	10.35
234.377	10.27
234.84	10.16
235.303	10.06
235.766	9.94
236.229	9.86
236.691	9.77
237.154	9.67
237.617	9.58
238.08	9.5
238.542	9.43
239.005	9.35
239.468	9.24
239.93	9.18
240.393	9.09
240.855	9.02
241.317	8.93
241.78	8.85
242.242	8.76
242.704	8.69
243.166	8.62
243.629	8.54
244.091	8.47
244.553	8.41
245.015	8.33
245.477	8.27
245.939	8.2
246.4	8.13
246.862	8.08
247.324	8.04
247.786	7.97
248.247	7.91
248.709	7.85
249.17	7.8
249.632	7.74
250.093	7.67
250.555	7.63
251.016	7.58
251.477	7.53
251.939	7.47
252.4	7.41
252.861	7.37
253.322	7.34
253.783	7.32
254.244	7.28
254.705	7.25
255.166	7.22
255.627	7.18
256.088	7.14
256.549	7.12
257.009	7.09
257.47	7.06
257.931	7.03
258.391	6.99
258.852	6.94
259.312	6.9
259.773	6.86
260.233	6.84
260.694	6.81
261.154	6.78
261.614	6.74
262.074	6.72
262.534	6.68
262.994	6.65
263.455	6.63
263.915	6.61
264.374	6.58
264.834	6.56
265.294	6.52
265.754	6.5
266.214	6.47
266.673	6.46
267.133	6.44
267.593	6.42
268.052	6.4
268.512	6.39
268.971	6.37
269.431	6.36
269.89	6.34
270.349	6.33
270.809	6.32
271.268	6.31
271.727	6.29
272.186	6.27
272.645	6.26
273.104	6.24
273.563	6.22
274.022	6.2
274.481	6.18
274.94	6.17
275.399	6.15
275.857	6.13
276.316	6.1
276.775	6.08
277.233	6.07
277.692	6.05
278.15	6.03
278.609	6.02
279.067	6.01
279.525	6
279.984	5.98
280.442	5.98
280.9	5.96
281.358	5.95
281.816	5.94
282.274	5.93
282.732	5.92
283.19	5.91
283.648	5.89
284.106	5.88
284.564	5.88
285.021	5.87
285.479	5.86
285.937	5.84
286.394	5.83
286.852	5.83
287.309	5.82
287.767	5.8
288.224	5.79
288.682	5.77
289.139	5.76
289.596	5.72
290.053	5.7
290.511	5.67
290.968	5.66
291.425	5.64
291.882	5.62
292.339	5.6
292.796	5.58
293.252	5.56
293.709	5.54
294.166	5.53
294.623	5.52
295.079	5.52
295.536	5.51
295.992	5.5
296.449	5.49
296.905	5.48
297.362	5.47
297.818	5.46
298.274	5.45
298.731	5.44
299.187	5.44
299.643	5.42
300.099	5.41
300.555	5.39
301.011	5.38
301.467	5.37
301.923	5.37
302.379	5.36
302.835	5.35
303.291	5.35
303.746	5.34
304.202	5.33
304.658	5.32
305.113	5.32
305.569	5.32
306.024	5.31
306.479	5.3
306.935	5.29
307.39	5.29
307.845	5.28
308.301	5.28
308.756	5.28
309.211	5.29
309.666	5.29
310.121	5.28
310.576	5.28
311.031	5.29
311.486	5.28
311.94	5.28
312.395	5.28
312.85	5.28
313.305	5.27
313.759	5.26
314.214	5.25
314.668	5.25
315.123	5.26
315.577	5.25
316.032	5.24
316.486	5.23
316.94	5.23
317.394	5.22
317.849	5.22
318.303	5.21
318.757	5.2
319.211	5.18
319.665	5.18
320.119	5.16
320.572	5.15
321.026	5.14
321.48	5.13
321.934	5.13
322.387	5.12
322.841	5.11
323.295	5.1
323.748	5.1
324.202	5.1
324.655	5.09
325.108	5.08
325.562	5.06
326.015	5.05
326.468	5.04
326.921	5.03
327.374	5.02
327.827	5.01
328.28	5
328.733	4.99
329.186	4.98
329.639	4.98
330.092	4.98
330.545	4.99
330.997	5
331.45	4.98
331.903	4.98
332.355	4.98
332.808	4.99
333.26	4.99
333.713	5
334.165	5
334.617	5
335.069	5
335.522	4.99
335.974	4.99
336.426	5
336.878	5
337.33	4.99
337.782	4.98
338.234	4.98
338.686	4.96
339.137	4.96
339.589	4.95
340.041	4.95
340.493	4.93
340.944	4.92
341.396	4.91
341.847	4.89
342.299	4.88
342.75	4.85
343.201	4.83
343.653	4.82
344.104	4.8
344.555	4.78
345.006	4.77
345.457	4.76
345.908	4.76
346.359	4.74
346.81	4.74
347.261	4.74
347.712	4.74
348.163	4.75
348.613	4.74
349.064	4.73
349.515	4.73
349.965	4.71
350.416	4.72
350.866	4.72
351.317	4.72
351.767	4.71
352.217	4.72
352.668	4.72
353.118	4.72
353.568	4.73
354.018	4.74
354.468	4.74
354.918	4.74
355.368	4.74
355.818	4.72
356.268	4.73
356.718	4.73
357.168	4.72
357.617	4.71
358.067	4.7
358.517	4.69
358.966	4.69
359.416	4.7
359.865	4.7
360.315	4.7
360.764	4.71
361.213	4.69
361.663	4.69
362.112	4.7
362.561	4.71
363.01	4.71
363.459	4.7
363.908	4.7
364.357	4.7
364.806	4.68
365.255	4.69
365.703	4.68
366.152	4.68
366.601	4.69
367.05	4.68
367.498	4.68
367.947	4.67
368.395	4.68
368.844	4.68
369.292	4.67
369.74	4.68
370.189	4.68
370.637	4.69
371.085	4.71
371.533	4.7
371.981	4.71
372.429	4.7
372.877	4.71
373.325	4.69
373.773	4.69
374.221	4.69
374.669	4.69
375.116	4.69
375.564	4.68
376.012	4.68
376.459	4.68
376.907	4.69
377.354	4.7
377.801	4.71
378.249	4.74
378.696	4.76
379.143	4.77
379.591	4.79
380.038	4.81
380.485	4.82
380.932	4.83
381.379	4.85
381.826	4.87
382.273	4.87
382.72	4.88
383.166	4.89
383.613	4.9
384.06	4.91
384.506	4.92
384.953	4.94
385.4	4.96
385.846	4.96
386.292	4.98
386.739	4.99
387.185	5.02
387.631	5.04
388.078	5.05
388.524	5.05
388.97	5.06
389.416	5.08
389.862	5.08
390.308	5.09
390.754	5.11
391.2	5.14
391.645	5.16
392.091	5.17
392.537	5.19
392.983	5.21
393.428	5.23
393.874	5.26
394.319	5.27
394.765	5.27
395.21	5.27
395.655	5.27
396.101	5.26
396.546	5.27
396.991	5.26
397.436	5.25
397.881	5.26
398.326	5.27
398.771	5.27
399.216	5.29
399.661	5.3
400.106	5.31
400.551	5.32
400.995	5.32
401.44	5.32
401.885	5.32
402.329	5.32
402.774	5.31
403.218	5.31
403.663	5.3
404.107	5.3
404.551	5.3
404.995	5.3
405.44	5.28
405.884	5.29
406.328	5.29
406.772	5.3
407.216	5.31
407.66	5.32
408.104	5.31
408.547	5.31
408.991	5.31
409.435	5.32
409.879	5.33
410.322	5.35
410.766	5.35
411.209	5.35
411.653	5.34
412.096	5.34
412.54	5.34
412.983	5.35
413.426	5.37
413.869	5.38
414.312	5.39
414.756	5.38
415.199	5.39
415.642	5.4
416.085	5.41
416.527	5.43
416.97	5.41
417.413	5.41
417.856	5.39
418.298	5.37
418.741	5.36
419.184	5.33
419.626	5.32
420.069	5.31
420.511	5.31
420.953	5.3
421.396	5.28
421.838	5.31
422.28	5.32
422.722	5.33
423.164	5.32
423.606	5.33
424.048	5.34
424.49	5.34
424.932	5.33
425.374	5.32
425.816	5.31
426.258	5.3
426.699	5.28
427.141	5.27
427.582	5.28
428.024	5.29
428.465	5.28
428.907	5.29
429.348	5.28
429.789	5.31
430.231	5.32
430.672	5.33
431.113	5.36
431.554	5.38
431.995	5.4
432.436	5.4
432.877	5.41
433.318	5.42
433.759	5.42
434.2	5.45
434.64	5.46
435.081	5.46
435.522	5.47
435.962	5.47
436.403	5.51
436.843	5.52
437.284	5.52
437.724	5.54
438.164	5.56
438.604	5.59
439.045	5.58
439.485	5.58
439.925	5.6
440.365	5.59
440.805	5.59
441.245	5.58
441.685	5.61
442.125	5.61
442.564	5.63
443.004	5.64
443.444	5.66
443.883	5.68
444.323	5.69
444.762	5.74
445.202	5.77
445.641	5.79
446.081	5.84
446.52	5.82
446.959	5.84
447.398	5.88
447.837	5.91
448.276	5.94
448.716	5.96
449.154	5.99
449.593	6
450.032	6.02
450.471	6.03
450.91	6.03
451.349	6.05
451.787	6.06
452.226	6.06
452.664	6.04
453.103	6.02
453.541	6.02
453.98	6.01
454.418	6
454.856	5.99
455.295	6
455.733	5.99
456.171	5.98
456.609	5.98
457.047	5.97
457.485	5.98
457.923	6
458.361	6
458.798	6.01
459.236	6.02
459.674	6.03
460.111	6.02
460.549	6.02
460.987	6.02
461.424	6.02
461.862	6.03
462.299	6.02
462.736	6
463.173	6.01
463.611	6
464.048	6.01
464.485	5.99
464.922	6
465.359	6.01
465.796	6.01
466.233	6.02
466.67	6.02
467.106	6.02
467.543	6.01
467.98	6
468.416	6
468.853	5.98
469.29	6
469.726	5.99
470.162	5.98
470.599	5.97
471.035	5.96
471.471	5.95
471.907	5.94
472.344	5.94
472.78	5.93
473.216	5.91
473.652	5.91
474.088	5.9
474.523	5.9
474.959	5.89
475.395	5.9
475.831	5.9
476.266	5.89
476.702	5.88
477.138	5.87
477.573	5.86
478.008	5.87
478.444	5.88
478.879	5.87
479.314	5.86
479.75	5.85
480.185	5.84
480.62	5.83
481.055	5.84
481.49	5.83
481.925	5.84
482.36	5.84
482.795	5.83
483.229	5.83
483.664	5.83
484.099	5.83
484.534	5.84
484.968	5.83
485.403	5.83
485.837	5.83
486.271	5.83
486.706	5.82
487.14	5.83
487.574	5.85
488.009	5.86
488.443	5.88
488.877	5.89
489.311	5.9
489.745	5.93
490.179	5.95
490.613	5.98
491.046	6.01
491.48	6.05
491.914	6.08
492.348	6.1
492.781	6.14
493.215	6.17
493.648	6.21
494.082	6.26
494.515	6.31
494.948	6.36
495.382	6.41
495.815	6.47
496.248	6.54
496.681	6.59
497.114	6.65
497.547	6.71
497.98	6.79
498.413	6.87
498.846	6.94
499.279	7.02
499.711	7.1
500.144	7.2
500.577	7.29
501.009	7.38
501.442	7.49
501.874	7.59
502.306	7.71
502.739	7.82
503.171	7.94
503.603	8.07
504.036	8.2
504.468	8.35
504.9	8.51
505.332	8.68
505.764	8.84
506.196	9.02
506.627	9.22
507.059	9.42
507.491	9.62
507.923	9.82
508.354	10.04
508.786	10.27
509.217	10.48
509.649	10.72
510.08	10.96
510.512	11.2
510.943	11.47
511.374	11.75
511.805	12.02
512.237	12.31
512.668	12.59
513.099	12.89
513.53	13.2
513.961	13.53
514.391	13.84
514.822	14.15
515.253	14.47
515.684	14.79
516.114	15.1
516.545	15.46
516.975	15.79
517.406	16.14
517.836	16.48
518.267	16.81
518.697	17.15
519.127	17.5
519.558	17.85
519.988	18.19
520.418	18.52
520.848	18.85
521.278	19.18
521.708	19.58
522.138	19.9
522.567	20.22
522.997	20.51
523.427	20.82
523.857	21.1
524.286	21.39
524.716	21.65
525.145	21.93
525.575	22.19
526.004	22.44
526.433	22.62
526.863	22.88
527.292	23.12
527.721	23.37
528.15	23.58
528.579	23.79
529.008	24
529.437	24.22
529.866	24.38
530.295	24.57
530.724	24.77
531.152	24.92
531.581	25.06
532.01	25.2
532.438	25.31
532.867	25.45
533.295	25.57
533.723	25.7
534.152	25.78
534.58	25.89
535.008	25.97
535.436	26.04
535.865	26.12
536.293	26.21
536.721	26.28
537.149	26.36
537.576	26.42
538.004	26.47
538.432	26.51
538.86	26.56
539.287	26.61
539.715	26.67
540.143	26.7
540.57	26.74
540.998	26.78
541.425	26.84
541.852	26.88
542.28	26.89
542.707	26.94
543.134	26.97
543.561	27.02
543.988	27.06
544.415	27.08
544.842	27.11
545.269	27.13
545.696	27.14
546.123	27.15
546.549	27.16
546.976	27.2
547.403	27.22
547.829	27.24
548.256	27.27
548.682	27.27
549.108	27.29
549.535	27.31
549.961	27.3
550.387	27.31
550.813	27.31
551.24	27.31
551.666	27.31
552.092	27.29
552.518	27.29
552.943	27.26
553.369	27.24
553.795	27.21
554.221	27.16
554.646	27.14
555.072	27.12
555.498	27.07
555.923	27.01
556.349	26.92
556.774	26.84
557.199	26.74
557.625	26.63
558.05	26.52
558.475	26.4
558.9	26.31
559.325	26.18
559.75	26.03
560.175	25.89
560.6	25.75
561.025	25.62
561.449	25.47
561.874	25.33
562.299	25.18
562.723	25.02
563.148	24.86
563.572	24.7
563.997	24.51
564.421	24.33
564.846	24.14
565.27	23.95
565.694	23.77
566.118	23.59
566.542	23.39
566.966	23.2
567.39	23.01
567.814	22.79
568.238	22.57
568.662	22.38
569.086	22.21
569.509	22.02
569.933	21.84
570.357	21.61
570.78	21.43
571.204	21.26
571.627	21.07
572.05	20.89
572.474	20.73
572.897	20.55
573.32	20.37
573.743	20.19
574.166	20.02
574.589	19.85
575.012	19.72
575.435	19.57
575.858	19.43
576.281	19.27
576.704	19.13
577.126	19
577.549	18.89
577.972	18.77
578.394	18.64
578.817	18.54
579.239	18.42
579.661	18.31
580.084	18.17
580.506	18.05
580.928	17.95
581.35	17.84
581.772	17.74
582.194	17.63
582.616	17.54
583.038	17.47
583.46	17.37
583.882	17.28
584.303	17.18
584.725	17.1
585.147	17
585.568	16.91
585.99	16.85
586.411	16.75
586.833	16.69
587.254	16.6
587.675	16.52
588.096	16.45
588.518	16.38
588.939	16.32
589.36	16.26
589.781	16.21
590.202	16.17
590.623	16.09
591.043	16.05
591.464	16
591.885	15.94
592.305	15.89
592.726	15.83
593.147	15.79
593.567	15.74
593.987	15.7
594.408	15.64
594.828	15.59
595.248	15.55
595.669	15.51
596.089	15.47
596.509	15.42
596.929	15.38
597.349	15.34
597.769	15.28
598.189	15.24
598.608	15.2
599.028	15.15
599.448	15.1
599.867	15.05
600.287	15
600.706	14.96
601.126	14.91
601.545	14.85
601.965	14.79
602.384	14.75
602.803	14.69
603.222	14.63
603.641	14.58
604.061	14.52
604.48	14.44
604.898	14.38
605.317	14.3
605.736	14.23
606.155	14.16
606.574	14.1
606.992	14.01
607.411	13.93
607.829	13.82
608.248	13.74
608.666	13.67
609.085	13.59
609.503	13.5
609.921	13.42
610.339	13.34
610.758	13.26
611.176	13.18
611.594	13.11
612.012	13.02
612.43	12.98
612.847	12.9
613.265	12.83
613.683	12.75
614.101	12.67
614.518	12.59
614.936	12.51
615.353	12.42
615.771	12.34
616.188	12.28
616.606	12.23
617.023	12.16
617.44	12.09
617.857	12.02
618.274	11.97
618.691	11.92
619.108	11.88
619.525	11.83
619.942	11.81
620.359	11.77
620.776	11.72
621.192	11.69
621.609	11.66
622.026	11.63
622.442	11.6
622.859	11.57
623.275	11.55
623.691	11.53
624.108	11.52
624.524	11.5
624.94	11.49
625.356	11.48
625.772	11.48
626.188	11.47
626.604	11.47
627.02	11.46
627.436	11.44
627.852	11.42
628.268	11.4
628.683	11.38
629.099	11.37
629.514	11.33
629.93	11.29
630.345	11.25
630.761	11.2
631.176	11.17
631.591	11.13
632.007	11.09
632.422	11.04
632.837	10.98
633.252	10.93
633.667	10.86
634.082	10.79
634.497	10.7
634.911	10.62
635.326	10.53
635.741	10.41
636.155	10.3
636.57	10.2
636.984	10.08
637.399	9.95
637.813	9.81
638.228	9.69
638.642	9.58
639.056	9.46
639.47	9.33
639.884	9.2
640.298	9.08
640.712	8.96
641.126	8.83
641.54	8.71
641.954	8.61
642.368	8.49
642.781	8.37
643.195	8.25
643.609	8.14
644.022	8.04
644.436	7.94
644.849	7.85
645.262	7.76
645.676	7.67
646.089	7.6
646.502	7.52
646.915	7.46
647.328	7.4
647.741	7.34
648.154	7.3
648.567	7.26
648.98	7.22
649.393	7.18
649.805	7.13
650.218	7.11
650.631	7.08
651.043	7.05
651.456	7.01
651.868	6.98
652.28	6.97
652.693	6.94
653.105	6.91
653.517	6.89
653.929	6.87
654.341	6.86
654.753	6.82
655.165	6.79
655.577	6.75
655.989	6.73
656.401	6.68
656.813	6.63
657.224	6.59
657.636	6.55
658.047	6.5
658.459	6.45
658.87	6.39
659.282	6.36
659.693	6.32
660.104	6.27
660.515	6.23
660.926	6.19
661.338	6.16
661.749	6.11
662.159	6.07
662.57	6.05
662.981	6.01
663.392	5.96
663.803	5.92
664.213	5.89
664.624	5.88
665.035	5.86
665.445	5.84
665.855	5.83
666.266	5.83
666.676	5.82
667.086	5.81
667.497	5.8
667.907	5.8
668.317	5.82
668.727	5.83
669.137	5.84
669.547	5.86
669.956	5.88
670.366	5.91
670.776	5.92
671.186	5.95
671.595	5.97
672.005	6.01
672.414	6.05
672.824	6.08
673.233	6.12
673.642	6.14
674.052	6.18
674.461	6.2
674.87	6.23
675.279	6.28
675.688	6.31
676.097	6.37
676.506	6.41
676.915	6.45
677.323	6.51
677.732	6.56
678.141	6.62
678.549	6.68
678.958	6.74
679.366	6.79
679.775	6.85
680.183	6.93
680.592	6.99
681	7.05
681.408	7.13
681.816	7.21
682.224	7.28
682.632	7.38
683.04	7.46
683.448	7.57
683.856	7.7
684.264	7.82
684.671	7.94
685.079	8.09
685.487	8.28
685.894	8.48
686.302	8.7
686.709	8.95
687.116	9.2
687.524	9.5
687.931	9.81
688.338	10.17
688.745	10.56
689.152	10.98
689.559	11.43
689.966	11.88
690.373	12.39
690.78	12.9
691.187	13.45
691.593	14.04
692	14.62
692.407	15.23
692.813	15.88
693.22	16.52
693.626	17.19
694.032	17.88
694.439	18.61
694.845	19.31
695.251	20.06
695.657	20.81
696.063	21.55
696.469	22.33
696.875	23.08
697.281	23.83
697.687	24.59
698.093	25.34
698.498	26.09
698.904	26.83
699.31	27.55
699.715	28.29
700.12	29
700.526	29.74
700.931	30.42
701.337	31.16
701.742	31.82
702.147	32.5
702.552	33.21
702.957	33.86
703.362	34.52
703.767	35.19
704.172	35.81
704.577	36.47
704.981	37.08
705.386	37.71
705.791	38.32
706.195	38.95
706.6	39.53
707.004	40.09
707.408	40.68
707.813	41.24
708.217	41.81
708.621	42.36
709.025	42.9
709.43	43.44
709.834	44
710.237	44.51
710.641	45.04
711.045	45.55
711.449	46.08
711.853	46.58
712.256	47.11
712.66	47.59
713.064	48.06
713.467	48.51
713.87	48.98
714.274	49.4
714.677	49.87
715.08	50.28
715.484	50.75
715.887	51.15
716.29	51.54
716.693	51.94
717.096	52.35
717.499	52.76
717.901	53.15
718.304	53.51
718.707	53.89
719.109	54.23
719.512	54.63
719.915	54.95
720.317	55.31
720.719	55.67
721.122	55.97
721.524	56.29
721.926	56.59
722.328	56.91
722.731	57.23
723.133	57.53
723.535	57.82
723.937	58.06
724.338	58.28
724.74	58.52
725.142	58.77
725.544	58.99
725.945	59.25
726.347	59.49
726.748	59.66
727.15	59.85
727.551	60.06
727.952	60.24
728.354	60.44
728.755	60.63
729.156	60.83
729.557	60.97
729.958	61.16
730.359	61.26
730.76	61.41
731.161	61.58
731.562	61.73
731.962	61.86
732.363	62
732.763	62.14
733.164	62.28
733.564	62.38
733.965	62.52
734.365	62.6
734.766	62.72
735.166	62.79
735.566	62.88
735.966	62.95
736.366	63.03
736.766	63.1
737.166	63.16
737.566	63.23
737.966	63.31
738.365	63.36
738.765	63.49
739.165	63.54
739.564	63.64
739.964	63.7
740.363	63.77
740.763	63.8
741.162	63.86
741.561	63.91
741.96	63.97
742.36	64.03
742.759	64.06
743.158	64.02
743.557	64.08
743.955	64.12
744.354	64.21
744.753	64.25
745.152	64.32
745.55	64.36
745.949	64.4
746.348	64.44
746.746	64.43
747.144	64.51
747.543	64.6
747.941	64.66
748.339	64.69
748.737	64.7
749.136	64.73
749.534	64.76
749.932	64.75
750.33	64.77
750.727	64.77
751.125	64.81
751.523	64.8
751.921	64.79
752.318	64.76
752.716	64.74
753.113	64.71
753.511	64.69
753.908	64.69
754.305	64.7
754.703	64.69
755.1	64.7
755.497	64.71
755.894	64.73
756.291	64.74
756.688	64.78
757.085	64.78
757.482	64.82
757.878	64.85
758.275	64.88
758.672	64.9
759.068	64.94
759.465	64.95
759.861	64.94
760.258	64.91
760.654	64.91
761.05	64.88
761.447	64.87
761.843	64.81
762.239	64.75
762.635	64.71
763.031	64.72
763.427	64.65
763.822	64.62
764.218	64.6
764.614	64.59
765.01	64.56
765.405	64.55
765.801	64.54
766.196	64.54
766.592	64.57
766.987	64.55
767.382	64.54
767.778	64.58
768.173	64.56
768.568	64.52
768.963	64.49
769.358	64.46
769.753	64.48
770.148	64.46
770.542	64.44
770.937	64.4
771.332	64.38
771.726	64.32
772.121	64.26
772.515	64.26
772.91	64.28
773.304	64.27
773.699	64.31
774.093	64.26
774.487	64.26
774.881	64.31
775.275	64.35
775.669	64.37
776.063	64.35
776.457	64.33
776.851	64.29
777.245	64.26
777.638	64.28
778.032	64.21
778.425	64.24
778.819	64.25
779.212	64.18
779.606	64.15
779.999	64.13
780.392	64.18
780.786	64.22
781.179	64.28
781.572	64.31
781.965	64.31
782.358	64.28
782.751	64.27
783.143	64.25
783.536	64.3
783.929	64.27
784.322	64.28
784.714	64.26
785.107	64.26
785.499	64.2
785.891	64.19
786.284	64.16
786.676	64.22
787.068	64.22
787.46	64.22
787.852	64.19
788.245	64.16
788.636	64.15
789.028	64.13
789.42	64.1
789.812	64.16
790.204	64.11
790.595	64.13
790.987	64.14
791.378	64.11
791.77	64.14
792.161	64.16
792.553	64.2
792.944	64.21
793.335	64.26
793.726	64.21
794.117	64.16
794.508	64.2
794.899	64.17
795.29	64.17
795.681	64.19
796.072	64.17
796.463	64.2
796.853	64.18
797.244	64.17
797.634	64.18
798.025	64.19
798.415	64.25
798.806	64.25
799.196	64.32
799.586	64.3
799.976	64.3
800.366	64.31
800.756	64.29
801.146	64.31
801.536	64.33
801.926	64.31
802.316	64.36
802.706	64.38
803.095	64.43
803.485	64.43
803.874	64.46
804.264	64.48
804.653	64.46
805.043	64.44
805.432	64.41
805.821	64.42
806.21	64.44
806.599	64.46
806.988	64.41
807.377	64.4
807.766	64.39
808.155	64.38
808.544	64.35
808.933	64.4
809.321	64.44
809.71	64.51
810.098	64.5
810.487	64.51
810.875	64.49
811.264	64.5
811.652	64.49
812.04	64.47
812.428	64.51
812.816	64.52
813.204	64.49
813.592	64.45
813.98	64.42
814.368	64.45
814.756	64.45
815.144	64.47
815.531	64.48
815.919	64.46
816.306	64.53
816.694	64.51
817.081	64.52
817.469	64.59
817.856	64.67
818.243	64.71
818.63	64.72
819.017	64.76
819.404	64.75
819.791	64.8
820.178	64.81
820.565	64.79
820.952	64.84
821.339	64.88
821.725	64.85
822.112	64.88
822.498	64.85
822.885	64.87
823.271	64.85
823.657	64.88
824.044	64.86
824.43	64.89
824.816	64.89
825.202	64.87
825.588	64.85
825.974	64.85
826.36	64.81
826.746	64.86
827.132	64.86
827.517	64.86
827.903	64.84
828.289	64.85
828.674	64.84
829.06	64.88
829.445	64.9
829.83	64.92
830.216	64.93
830.601	64.94
830.986	64.9
831.371	64.92
831.756	64.9
832.141	64.95
832.526	64.93
832.911	64.95
833.295	64.96
833.68	64.92
834.065	64.93
834.449	64.93
834.834	64.92
835.218	64.94
835.603	64.95
835.987	64.94
836.371	64.95
836.755	64.97
837.139	64.94
837.524	64.91
837.908	64.92
838.291	64.9
838.675	64.89
839.059	64.91
839.443	64.88
839.827	64.86
840.21	64.88
840.594	64.86
840.977	64.85
841.361	64.88
841.744	64.9
842.127	64.89
842.511	64.92
842.894	64.9
843.277	64.89
843.66	64.91
844.043	64.93
844.426	64.93
844.809	64.9
845.191	64.89
845.574	64.86
845.957	64.83
846.339	64.84
846.722	64.85
847.104	64.84
847.487	64.87
847.869	64.86
848.252	64.83
848.634	64.85
849.016	64.9
849.398	64.91
849.78	64.9
850.162	64.92
850.544	64.92
850.926	64.89
851.307	64.92
851.689	64.89
852.071	64.89
852.452	64.93
852.834	64.93
853.215	64.91
853.597	64.93
853.978	64.93
854.359	64.92
854.741	64.9
855.122	64.91
855.503	64.95
855.884	64.92
856.265	64.9
856.646	64.85
857.026	64.85
857.407	64.79
857.788	64.74
858.169	64.74
858.549	64.75
858.93	64.75
859.31	64.72
859.69	64.66
860.071	64.68
860.451	64.69
860.831	64.71
861.211	64.71
861.591	64.76
861.971	64.75
862.351	64.77
862.731	64.77
863.111	64.78
863.491	64.8
863.87	64.79
864.25	64.84
864.629	64.82
865.009	64.8
865.388	64.79
865.768	64.77
866.147	64.79
866.526	64.75
866.905	64.73
867.284	64.73
867.663	64.74
868.042	64.75
868.421	64.73
868.8	64.75
869.179	64.79
869.558	64.79
869.936	64.79
870.315	64.78
870.693	64.84
871.072	64.85
871.45	64.81
871.828	64.81
872.207	64.82
872.585	64.79
872.963	64.73
873.341	64.74
873.719	64.72
874.097	64.74
874.475	64.76
874.853	64.76
875.23	64.78
875.608	64.8
875.986	64.81
876.363	64.78
876.741	64.81
877.118	64.82
877.495	64.8
877.873	64.82
878.25	64.8
878.627	64.79
879.004	64.81
879.381	64.78
879.758	64.75
880.135	64.75
880.512	64.76
880.889	64.74
881.265	64.76
881.642	64.76
882.019	64.77
882.395	64.78
882.772	64.77
883.148	64.72
883.524	64.75
883.901	64.74
884.277	64.74
884.653	64.77
885.029	64.75
885.405	64.75
885.781	64.73
886.157	64.7
886.532	64.72
886.908	64.76
887.284	64.75
887.659	64.75
888.035	64.78
888.411	64.77
888.786	64.74
889.161	64.77
889.537	64.74
889.912	64.74
890.287	64.73
890.662	64.7
891.037	64.65
891.412	64.66
891.787	64.64
892.162	64.62
892.536	64.6
892.911	64.57
893.286	64.55
893.66	64.55
894.035	64.53
894.409	64.53
894.784	64.54
895.158	64.55
895.532	64.52
895.906	64.47
896.281	64.44
896.655	64.44
897.029	64.44
897.402	64.42
897.776	64.4
898.15	64.41
898.524	64.4
898.898	64.33
899.271	64.32
899.645	64.31
900.018	64.32
900.392	64.31
900.765	64.32
901.138	64.33
901.511	64.33
901.884	64.36
902.258	64.36
902.631	64.36
903.003	64.4
903.376	64.38
903.749	64.43
904.122	64.43
904.495	64.46
904.867	64.43
905.24	64.42
905.612	64.38
905.985	64.35
906.357	64.29
906.729	64.26
907.102	64.24
907.474	64.23
907.846	64.18
908.218	64.16
908.59	64.09
908.962	64.07
909.334	64.04
909.705	64.08
910.077	64.06
910.449	64.07
910.82	64.02
911.192	63.97
911.563	63.89
911.935	63.84
912.306	63.81
912.677	63.81
913.048	63.78
913.419	63.73
913.79	63.69
914.161	63.66
914.532	63.63
914.903	63.64
915.274	63.65
915.645	63.68
916.015	63.67
916.386	63.67
916.756	63.64
917.127	63.63
917.497	63.66
917.868	63.64
918.238	63.7
918.608	63.67
918.978	63.64
919.348	63.6
919.718	63.61
920.088	63.61
920.458	63.65
920.828	63.69
921.198	63.71
921.567	63.68
921.937	63.71
922.306	63.66
922.676	63.67
923.045	63.7
923.415	63.72
923.784	63.76
924.153	63.75
924.522	63.7
924.891	63.66
925.26	63.63
925.629	63.62
925.998	63.57
926.367	63.55
926.736	63.55
927.104	63.55
927.473	63.54
927.842	63.47
928.21	63.47
928.578	63.45
928.947	63.49
929.315	63.5
929.683	63.5
930.051	63.49
930.42	63.49
930.788	63.49
931.156	63.47
931.523	63.54
931.891	63.48
932.259	63.45
932.627	63.45
932.994	63.39
933.362	63.3
933.729	63.23
934.097	63.23
934.464	63.2
934.831	63.13
935.199	63.06
935.566	62.91
935.933	62.93
936.3	62.86
936.667	62.76
937.034	62.73
937.401	62.73
937.767	62.7
938.134	62.58
938.501	62.51
938.867	62.57
939.234	62.56
939.6	62.55
939.967	62.46
940.333	62.53
940.699	62.6
941.065	62.61
941.431	62.65
941.798	62.73
942.163	62.8
942.529	62.77
942.895	62.7
943.261	62.68
943.627	62.73
943.992	62.7
944.358	62.65
944.723	62.61
945.089	62.66
945.454	62.64
945.82	62.54
946.185	62.65
946.55	62.81
946.915	62.85
947.28	62.82
947.645	62.82
948.01	62.84
948.375	62.89
948.74	62.81
949.104	62.83
949.469	62.75
949.834	62.78
950.198	62.62
950.562	62.56
950.927	62.53
951.291	62.52
951.655	62.46
952.02	62.49
952.384	62.44
952.748	62.55
953.112	62.49
953.476	62.55
953.839	62.58
954.203	62.63
954.567	62.62
954.931	62.61
955.294	62.59
955.658	62.62
956.021	62.64
956.385	62.58
956.748	62.55
957.111	62.49
957.474	62.49
957.837	62.46
958.2	62.39
958.563	62.39
958.926	62.35
959.289	62.35
959.652	62.38
960.015	62.29
960.377	62.35
960.74	62.29
961.102	62.28
961.465	62.26
961.827	62.16
962.189	62.23
962.552	62.16
962.914	62.13
963.276	62.16
963.638	62.08
964	62.02
964.362	61.97
964.724	61.93
965.085	61.93
965.447	61.89
965.809	61.91
966.17	61.83
966.532	61.84
966.893	61.77
967.255	61.71
967.616	61.73
967.977	61.86
968.338	61.79
968.699	61.83
969.061	61.73
969.421	61.74
969.782	61.7
970.143	61.68
970.504	61.61
970.865	61.62
971.225	61.66
971.586	61.63
971.946	61.57
972.307	61.61
972.667	61.67
973.027	61.76
973.388	61.7
973.748	61.68
974.108	61.73
974.468	61.76
974.828	61.85
975.188	61.81
975.548	61.73
975.907	61.74
976.267	61.75
976.627	61.65
976.986	61.55
977.346	61.51
977.705	61.61
978.064	61.55
978.424	61.52
978.783	61.49
979.142	61.43
979.501	61.43
979.86	61.46
980.219	61.39
980.578	61.37
980.937	61.42
981.296	61.54
981.654	61.53
982.013	61.54
982.371	61.52
982.73	61.5
983.088	61.48
983.447	61.51
983.805	61.36
984.163	61.45
984.521	61.35
984.879	61.33
985.237	61.24
985.595	61.27
985.953	61.22
986.311	61.29
986.669	61.27
987.026	61.26
987.384	61.27
987.741	61.3
988.099	61.21
988.456	61.39
988.814	61.42
989.171	61.43
989.528	61.27
989.885	61.26
990.242	61.28
990.599	61.18
990.956	61.14
991.313	61.03
991.67	60.95
992.027	60.96
992.383	60.92
992.74	60.91
993.096	60.88
993.453	60.98
993.809	60.96
994.165	60.85
994.522	60.99
994.878	61.13
995.234	61.16
995.59	61.15
995.946	61.1
996.302	61.02
996.658	60.89
997.013	60.8
997.369	60.76
997.725	60.83
998.08	60.89
998.436	60.77
998.791	60.62
999.147	60.53
999.502	60.56
999.857	60.61
1000.212	60.42
1000.567	60.51
1000.922	60.43
1001.277	60.4
1001.632	60.34
1001.987	60.13
1002.342	60.21
1002.696	60.18
1003.051	60.17
1003.406	60.05
1003.76	59.87
1004.114	60.03
1004.469	59.91
1004.823	59.88
1005.177	59.89
1005.531	59.64
1005.885	59.79
1006.239	59.6
1006.593	59.49
1006.947	59.43
1007.301	59.62
1007.655	59.72
1008.008	59.58
1008.362	59.58
1008.715	59.66
1009.069	59.4
1009.422	59.57
1009.776	59.42
1010.129	59.34
1010.482	59.45
1010.835	59.56
1011.188	59.32
1011.541	58.88
1011.894	58.92
1012.247	58.77
1012.6	58.58
1012.952	58.72
1013.305	58.51
1013.657	58.54
1014.01	58.79
1014.362	58.55
1014.715	58.33
1015.067	58.5
1015.419	58.86
1015.771	58.95
1016.123	59.06
1016.475	59.24
1016.827	59.13
1017.179	59.12
1017.531	58.91
1017.883	58.84
1018.234	59.05
1018.586	58.99
1018.938	58.85
1019.289	58.62
1019.64	58.52
1019.992	58.32
1020.343	57.99
1020.694	57.88
1021.045	57.65
1021.396	57.63
1021.747	57.21
1022.098	56.97
1022.449	57.15
1022.8	57.14
1023.151	56.97
1023.501	56.84
1023.852	56.78
1024.202	56.92
1024.553	56.61
1024.903	56.75
1025.253	56.85
1025.604	57.06
1025.954	56.61
1026.304	56.54
1026.654	56.45
1027.004	56.59
1027.354	56.34
1027.703	56.33
1028.053	56.07
1028.403	56.39
1028.753	56.6
1029.102	56.21
1029.452	55.88
1029.801	56.03
1030.15	55.87
1030.499	55.69
897.758	686.74
901.051	696.02
904.343	703.91
907.636	689.22
910.928	677.59
914.22	689.69
917.511	677.73
920.803	652.54
924.094	625.07
927.384	628.96
930.675	610.23
933.965	601.14
937.255	599.06
940.544	571.93
943.834	545.56
947.123	537.16
950.411	510.18
953.7	498.7
956.988	484.14
960.276	463.9
963.563	455.91
966.851	433.4
970.138	425.83
973.424	397.04
976.711	392.54
979.997	381.09
983.283	373.72
986.568	360.48
989.853	349.08
993.138	337.98
996.423	331.78
999.708	322.44
1002.992	323.47
1006.275	312.55
1009.559	311.51
1012.842	300.82
1016.125	291.66
1019.408	285.69
1022.69	282.55
1025.972	283.4
1029.254	274.52
1032.536	270.02
1035.817	261.7
1039.098	257.93
1042.379	254.13
1045.659	249.56
1048.939	247.88
1052.219	244.8
1055.498	240
1058.778	237.41
1062.057	231.06
1065.335	230.69
1068.614	226.95
1071.892	225.16
1075.17	219.69
1078.447	216.3
1081.724	215.74
1085.001	212.48
1088.278	211.02
1091.554	210.49
1094.83	208.39
1098.106	205.23
1101.382	204.48
1104.657	203.34
1107.932	202.12
1111.206	201.63
1114.481	199.79
1117.755	197.71
1121.029	195.72
1124.302	193.5
1127.575	189.87
1130.848	189.3
1134.121	186.45
1137.393	185.58
1140.665	184.13
1143.937	182.24
1147.208	180.09
1150.48	178.37
1153.75	176.98
1157.021	176.07
1160.291	175.58
1163.561	175.93
1166.831	173.65
1170.101	174.87
1173.37	173.06
1176.639	171.4
1179.907	171.7
1183.176	171.06
1186.444	171.16
1189.711	170.31
1192.979	172.26
1196.246	171.86
1199.513	170.82
1202.78	171.37
1206.046	171.14
1209.312	171.79
1212.578	173.64
1215.843	174.95
1219.108	176.9
1222.373	179.3
1225.638	181.9
1228.902	185.09
1232.166	190.9
1235.43	193.53
1238.693	199.46
1241.956	203.13
1245.219	208.79
1248.482	209.47
1251.744	208.99
1255.006	210.3
1258.268	205.58
1261.529	204.02
1264.79	198.81
1268.051	194.07
1271.312	192.55
1274.572	189.48
1277.832	184.59
1281.092	182.26
1284.351	179.06
1287.61	179.03
1290.869	177.54
1294.128	176.75
1297.386	176.85
1300.644	175.47
1303.902	175.76
1307.159	175.5
1310.416	175.29
1313.673	178.39
1316.93	179.44
1320.186	182.24
1323.442	184.23
1326.697	188.1
1329.953	189.97
1333.208	195.27
1336.463	203.24
1339.717	206.19
1342.972	216.28
1346.226	222.41
1349.479	223.72
1352.733	233.48
1355.986	238.91
1359.238	244.06
1362.491	245.11
1365.743	254.45
1368.995	255.13
1372.247	256.46
1375.498	256.06
1378.749	262.73
1382	262.4
1385.251	262.68
1388.501	261.44
1391.751	263.21
1395	262.55
1398.25	265.64
1401.499	264.59
1404.748	265.14
1407.996	257.86
1411.244	258.21
1414.492	254.08
1417.74	246.36
1420.987	241.81
1424.234	237.33
1427.481	229.36
1430.728	222.97
1433.974	215.36
1437.22	207.62
1440.465	201.26
1443.711	196.24
1446.956	190.84
1450.201	183.55
1453.445	177.37
1456.689	172.29
1459.933	166.91
1463.177	160.49
1466.42	157.21
1469.663	152.6
1472.906	149.62
1476.148	145.47
1479.391	142.57
1482.633	140.14
1485.874	138.38
1489.115	137.04
1492.356	134.8
1495.597	133.1
1498.838	132.54
1502.078	131.38
1505.318	131.12
1508.557	130.03
1511.797	128.5
1515.036	128.83
1518.274	128.27
1521.513	126.31
1524.751	125.48
1527.989	126.21
1531.227	125.72
1534.464	125.56
1537.701	125.02
1540.938	124.23
1544.174	124.09
1547.41	124.86
1550.646	123.94
1553.882	123.81
1557.117	123.59
1560.352	123.26
1563.587	121.64
1566.821	121.74
1570.055	121.05
1573.289	120.32
1576.523	120.65
1579.756	119.94
1582.989	119.65
1586.222	119.28
1589.454	118.45
1592.686	118.46
1595.918	118.24
1599.15	118.31
1602.381	118.82
1605.612	118.47
1608.843	118.65
1612.073	119.11
1615.303	119.38
1618.533	118.75
1621.762	119.4
1624.992	119.93
1628.221	119.66
1631.449	120.48
1634.678	119.77
1637.906	119.29
1641.134	119.98
1644.361	119.74
1647.588	119.58
1650.815	119.71
1654.042	119.85
1657.269	119.38
1660.495	120.07
1663.72	119.97
1666.946	119.61
1670.171	120.7
1673.396	121.46
1676.621	121.05
1679.845	122
1683.069	121.35
1686.293	120.53
1689.517	121.13
1692.74	121.18
1695.963	121.28
1699.185	121.89
1702.408	122.21
1705.63	122.26
1708.852	122.63
1712.073	122.17
1715.294	121.47
1718.515	122.38
1721.736	123.26
1724.956	123.52
1728.176	123.56
1731.396	124.21
1734.616	123.73
1737.835	123.94
1741.054	123.81
1744.272	123.68
1747.491	124.5
1750.709	125.09
1753.927	125.29
1757.144	125.33
1760.361	125.1
1763.578	125.51
1766.795	125.96
1770.011	126.61
1773.227	127.56
1776.443	128.47
1779.658	128.22
1782.874	129
1786.089	129.63
1789.303	129.72
1792.518	131.23
1795.732	131.87
1798.945	133.22
1802.159	132.88
1805.372	134.91
1808.585	135.17
1811.797	136.04
1815.01	137.2
1818.222	138.45
1821.434	138.9
1824.645	139.74
1827.856	141.06
1831.067	141.96
1834.278	142.84
1837.488	144.5
1840.698	145.36
1843.908	145.32
1847.117	146.96
1850.326	148.1
1853.535	148.19
1856.744	149.92
1859.952	152.15
1863.16	152.1
1866.368	152.2
1869.575	152.61
1872.782	151.22
1875.989	149.51
1879.196	149.6
1882.402	147.8
1885.608	147.88
1888.814	147.04
1892.019	147.32
1895.224	144.56
1898.429	144.56
1901.634	145.17
1904.838	145.11
1908.042	145.4
1911.246	146.62
1914.449	146.61
1917.652	146.45
1920.855	147.5
1924.058	145.65
1927.26	144.8
1930.462	146.15
1933.664	146.25
1936.865	145.86
1940.066	144.65
1943.267	143.73
1946.467	144.09
1949.668	143.84
1952.868	144.9
1956.067	143.69
1959.267	146.9
1962.466	147.5
1965.665	148.04
1968.863	149.91
1972.061	149.74
1975.259	153.4
1978.457	155.23
1981.654	156.37
1984.852	158.23
1988.048	160.08
1991.245	162.35
1994.441	165.03
1997.637	168.88
2000.833	172.49
2004.028	174.1
2007.223	180.79
2010.418	184.39
2013.613	191.67
2016.807	196.86
2020.001	200.11
2023.194	205
2026.388	211.48
2029.581	221.94
2032.774	227.97
2035.966	234.75
2039.158	240.91
2042.35	244.62
2045.542	248.51
2048.733	258.07
2051.924	260.81
2055.115	264.85
2058.306	268.15
2061.496	274.5
2064.686	274.89
2067.875	272.37
2071.065	274.2
2074.254	275.46
2077.442	283.71
2080.631	285.25
2083.819	286.12
2087.007	291.86
2090.195	297.85
2093.382	297.43
2096.569	297.34
2099.756	301.19
2102.942	308.66
2106.128	316.84
2109.314	315.98
2112.5	316.1
2115.685	315.17
2118.87	315.66
2122.055	315.64
2125.239	322.82
2128.424	331
2131.608	327.66
2134.791	327.86
2137.974	329.28
2141.157	331.91
2144.34	337.32
2147.523	340.09
2150.705	350.01
2153.887	345.12
2157.068	349.81
2160.25	352.97
2163.431	352.13
2166.611	361.57
2169.792	366.04
2172.972	370.99
2176.152	369.96
2179.331	378.02
2182.511	379.14
2185.69	382.53
2188.868	401.3
2192.047	408.57
2195.225	411.22
2198.403	417.51
2201.58	409.43
2204.758	425.43
2207.935	430.31
2211.111	435.55
2214.288	437.92
2217.464	443.66
2220.64	445.84
2223.815	444.65
2226.991	441.37
2230.166	444.66
2233.34	456.85
2236.515	470.97
2239.689	464.14
2242.863	471.42
2246.036	466.72
2249.209	478.94
2252.382	479.3
2255.555	496.62
2258.727	499.59
2261.9	512.38
2265.071	519.75
2268.243	515.32
2271.414	530.74
2274.585	540.71
2277.756	543.77
2280.926	566.87
2284.096	564.93
2287.266	564.29
2290.436	554.55
2293.605	568.05
2296.774	591.42
2299.942	590.19
2303.111	608.13
2306.279	616.03
2309.447	622.31
2312.614	615.36
2315.781	633.32
2318.948	644.09
2322.115	658.28
2325.281	689.88
2328.447	680.34
2331.613	681.59
2334.779	694.93
2337.944	702.29
2341.109	719.09
2344.274	721.62
2347.438	749.91
2350.602	759.13
2353.766	800.94
2356.929	806.24
2360.092	816.18
2363.255	824.55
2366.418	832.85
2369.58	851.94
2372.742	847.47
2375.904	842.49
2379.066	868.31
2382.227	913.65
2385.388	912.57
2388.548	871.74
2391.709	864.94
2394.869	890.96
2398.029	897.7
2401.188	894.54
2404.347	919.87
2407.506	954.51
2410.665	927.6
2413.823	923.98
2416.981	925.3
2420.139	877.71
2423.296	945.17
2426.453	998.33
2429.61	953.62
2432.767	1015.87
2435.923	1056.91
2439.079	1014.1
2442.235	1039.93
2445.391	1055.06
2448.546	1053.37
2451.701	1106.39
2454.855	1181.97
2458.009	1043.32
2461.163	1064.15
2464.317	1075.32
2467.471	1051.5
2470.624	1083.89
2473.777	1074.93
2476.929	1038.23
2480.082	1117.88
2483.234	1169.58
2486.385	1183.93
2489.537	1214.18
2492.688	1339.05
2495.839	1327.01
2498.989	1362.27
2502.14	1362.38
2505.29	1301.86
2508.439	1440.62
2511.589	1480.23
2514.738	1425.54
2517.887	1413.08
2521.035	1326.92
2524.183	1303.89
2527.331	1291.65
2530.479	1250.92
2533.627	1285.45
