Data from N_1_dec_ct_2n_033_Splice17_14.txt Node
Date: Sat Feb 29 13:47:22 EST 2020
User: sa697716
Spectrometer: FLMS03696
Trigger mode: 0
Integration Time (sec): 3.180400E-1
Scans to average: 20
Electric dark correction enabled: true
Nonlinearity correction enabled: true
Boxcar width: 5
XAxis mode: Wavelengths
Number of Pixels in Spectrum: 2048
>>>>>Begin Spectral Data<<<<<
187.83	96.48
188.298	95.53
188.766	89.39
189.233	90.79
189.701	97.49
190.169	89.32
190.636	84.72
191.104	60.29
191.571	52.14
192.039	103.59
192.506	299.42
192.974	4464.62
193.441	-267.42
193.908	71.49
194.375	17.25
194.842	107.54
195.31	56.41
195.777	16.98
196.244	40.25
196.711	52.81
197.177	53.31
197.644	53.95
198.111	54.26
198.578	54.2
199.045	54.46
199.511	55.36
199.978	55.87
200.445	55.76
200.911	56.12
201.378	56.53
201.844	57.11
202.31	57.32
202.777	57.4
203.243	57.55
203.709	58.03
204.176	58.09
204.642	58.01
205.108	57.78
205.574	58.05
206.04	57.98
206.506	57.32
206.972	56.89
207.438	56.53
207.903	56.31
208.369	55.79
208.835	55.59
209.301	55.33
209.766	55.3
210.232	54.93
210.697	54.41
211.163	54.08
211.628	53.49
212.094	53.18
212.559	53.04
213.024	52.43
213.49	52.07
213.955	51.4
214.42	50.75
214.885	50
215.35	49.14
215.815	48.12
216.28	47.07
216.745	46.15
217.21	44.94
217.675	43.55
218.14	42.4
218.604	41.26
219.069	40.4
219.534	39.72
219.998	38.9
220.463	38.35
220.927	37.81
221.392	37.28
221.856	36.8
222.32	36.4
222.785	36.03
223.249	35.64
223.713	35.36
224.177	35
224.642	34.62
225.106	34.31
225.57	33.95
226.034	33.64
226.497	33.27
226.961	32.86
227.425	32.5
227.889	32.13
228.353	31.79
228.816	31.43
229.28	31.08
229.744	30.76
230.207	30.42
230.671	30.09
231.134	29.77
231.597	29.47
232.061	29.19
232.524	28.88
232.987	28.58
233.45	28.29
233.914	27.99
234.377	27.71
234.84	27.45
235.303	27.18
235.766	26.89
236.229	26.6
236.691	26.37
237.154	26.15
237.617	25.9
238.08	25.67
238.542	25.45
239.005	25.23
239.468	24.99
239.93	24.8
240.393	24.6
240.855	24.39
241.317	24.21
241.78	24.02
242.242	23.83
242.704	23.65
243.166	23.48
243.629	23.29
244.091	23.11
244.553	22.96
245.015	22.77
245.477	22.6
245.939	22.46
246.4	22.29
246.862	22.14
247.324	22
247.786	21.86
248.247	21.73
248.709	21.58
249.17	21.45
249.632	21.3
250.093	21.15
250.555	21.03
251.016	20.91
251.477	20.81
251.939	20.69
252.4	20.58
252.861	20.46
253.322	20.37
253.783	20.31
254.244	20.23
254.705	20.18
255.166	20.13
255.627	20.06
256.088	19.98
256.549	19.92
257.009	19.87
257.47	19.8
257.931	19.72
258.391	19.65
258.852	19.58
259.312	19.54
259.773	19.46
260.233	19.41
260.694	19.35
261.154	19.31
261.614	19.26
262.074	19.21
262.534	19.16
262.994	19.13
263.455	19.09
263.915	19.06
264.374	19
264.834	18.98
265.294	18.95
265.754	18.92
266.214	18.89
266.673	18.87
267.133	18.84
267.593	18.84
268.052	18.82
268.512	18.8
268.971	18.78
269.431	18.78
269.89	18.76
270.349	18.75
270.809	18.75
271.268	18.74
271.727	18.73
272.186	18.73
272.645	18.7
273.104	18.68
273.563	18.68
274.022	18.66
274.481	18.64
274.94	18.63
275.399	18.6
275.857	18.57
276.316	18.54
276.775	18.51
277.233	18.47
277.692	18.46
278.15	18.42
278.609	18.38
279.067	18.34
279.525	18.31
279.984	18.28
280.442	18.26
280.9	18.23
281.358	18.21
281.816	18.2
282.274	18.17
282.732	18.15
283.19	18.16
283.648	18.16
284.106	18.16
284.564	18.16
285.021	18.16
285.479	18.16
285.937	18.17
286.394	18.17
286.852	18.17
287.309	18.19
287.767	18.19
288.224	18.18
288.682	18.17
289.139	18.17
289.596	18.15
290.053	18.12
290.511	18.1
290.968	18.07
291.425	18.04
291.882	18.02
292.339	17.99
292.796	17.97
293.252	17.95
293.709	17.93
294.166	17.92
294.623	17.93
295.079	17.91
295.536	17.92
295.992	17.92
296.449	17.93
296.905	17.91
297.362	17.91
297.818	17.91
298.274	17.91
298.731	17.92
299.187	17.9
299.643	17.88
300.099	17.89
300.555	17.87
301.011	17.86
301.467	17.85
301.923	17.86
302.379	17.87
302.835	17.87
303.291	17.86
303.746	17.84
304.202	17.83
304.658	17.83
305.113	17.83
305.569	17.83
306.024	17.83
306.479	17.81
306.935	17.81
307.39	17.79
307.845	17.79
308.301	17.79
308.756	17.8
309.211	17.8
309.666	17.82
310.121	17.81
310.576	17.82
311.031	17.82
311.486	17.84
311.94	17.84
312.395	17.85
312.85	17.86
313.305	17.87
313.759	17.87
314.214	17.87
314.668	17.86
315.123	17.86
315.577	17.85
316.032	17.84
316.486	17.83
316.94	17.82
317.394	17.81
317.849	17.78
318.303	17.75
318.757	17.73
319.211	17.7
319.665	17.68
320.119	17.66
320.572	17.64
321.026	17.62
321.48	17.6
321.934	17.57
322.387	17.56
322.841	17.55
323.295	17.54
323.748	17.52
324.202	17.51
324.655	17.48
325.108	17.45
325.562	17.43
326.015	17.41
326.468	17.38
326.921	17.36
327.374	17.33
327.827	17.31
328.28	17.28
328.733	17.26
329.186	17.27
329.639	17.26
330.092	17.25
330.545	17.24
330.997	17.24
331.45	17.24
331.903	17.23
332.355	17.22
332.808	17.21
333.26	17.22
333.713	17.22
334.165	17.2
334.617	17.2
335.069	17.2
335.522	17.19
335.974	17.19
336.426	17.18
336.878	17.18
337.33	17.19
337.782	17.2
338.234	17.18
338.686	17.17
339.137	17.17
339.589	17.16
340.041	17.15
340.493	17.13
340.944	17.1
341.396	17.08
341.847	17.06
342.299	17.03
342.75	16.98
343.201	16.95
343.653	16.92
344.104	16.88
344.555	16.85
345.006	16.79
345.457	16.74
345.908	16.72
346.359	16.7
346.81	16.68
347.261	16.64
347.712	16.62
348.163	16.59
348.613	16.56
349.064	16.53
349.515	16.51
349.965	16.51
350.416	16.51
350.866	16.5
351.317	16.48
351.767	16.46
352.217	16.46
352.668	16.45
353.118	16.45
353.568	16.46
354.018	16.47
354.468	16.47
354.918	16.47
355.368	16.47
355.818	16.46
356.268	16.47
356.718	16.46
357.168	16.45
357.617	16.45
358.067	16.44
358.517	16.43
358.966	16.43
359.416	16.44
359.865	16.43
360.315	16.43
360.764	16.43
361.213	16.42
361.663	16.42
362.112	16.45
362.561	16.45
363.01	16.45
363.459	16.44
363.908	16.44
364.357	16.43
364.806	16.43
365.255	16.44
365.703	16.45
366.152	16.45
366.601	16.44
367.05	16.43
367.498	16.44
367.947	16.44
368.395	16.47
368.844	16.5
369.292	16.51
369.74	16.53
370.189	16.56
370.637	16.56
371.085	16.59
371.533	16.61
371.981	16.64
372.429	16.64
372.877	16.67
373.325	16.69
373.773	16.71
374.221	16.76
374.669	16.79
375.116	16.82
375.564	16.85
376.012	16.9
376.459	16.95
376.907	17.02
377.354	17.11
377.801	17.18
378.249	17.26
378.696	17.34
379.143	17.41
379.591	17.49
380.038	17.58
380.485	17.69
380.932	17.78
381.379	17.86
381.826	17.95
382.273	18.03
382.72	18.12
383.166	18.21
383.613	18.31
384.06	18.4
384.506	18.48
384.953	18.57
385.4	18.65
385.846	18.73
386.292	18.84
386.739	18.94
387.185	19.03
387.631	19.13
388.078	19.23
388.524	19.29
388.97	19.35
389.416	19.43
389.862	19.5
390.308	19.58
390.754	19.64
391.2	19.7
391.645	19.77
392.091	19.83
392.537	19.88
392.983	19.95
393.428	20.04
393.874	20.13
394.319	20.18
394.765	20.23
395.21	20.25
395.655	20.3
396.101	20.32
396.546	20.36
396.991	20.39
397.436	20.4
397.881	20.42
398.326	20.44
398.771	20.47
399.216	20.5
399.661	20.55
400.106	20.6
400.551	20.61
400.995	20.62
401.44	20.6
401.885	20.59
402.329	20.59
402.774	20.58
403.218	20.55
403.663	20.53
404.107	20.53
404.551	20.51
404.995	20.49
405.44	20.47
405.884	20.45
406.328	20.43
406.772	20.41
407.216	20.4
407.66	20.38
408.104	20.37
408.547	20.34
408.991	20.29
409.435	20.25
409.879	20.2
410.322	20.18
410.766	20.15
411.209	20.14
411.653	20.11
412.096	20.06
412.54	20.02
412.983	19.99
413.426	19.98
413.869	19.96
414.312	19.96
414.756	19.97
415.199	19.96
415.642	19.97
416.085	19.96
416.527	19.96
416.97	19.96
417.413	19.96
417.856	19.92
418.298	19.87
418.741	19.83
419.184	19.78
419.626	19.74
420.069	19.72
420.511	19.68
420.953	19.62
421.396	19.57
421.838	19.55
422.28	19.54
422.722	19.55
423.164	19.54
423.606	19.54
424.048	19.5
424.49	19.51
424.932	19.48
425.374	19.45
425.816	19.45
426.258	19.41
426.699	19.34
427.141	19.25
427.582	19.22
428.024	19.22
428.465	19.22
428.907	19.25
429.348	19.24
429.789	19.23
430.231	19.22
430.672	19.24
431.113	19.28
431.554	19.34
431.995	19.39
432.436	19.4
432.877	19.4
433.318	19.37
433.759	19.37
434.2	19.36
434.64	19.39
435.081	19.4
435.522	19.42
435.962	19.45
436.403	19.48
436.843	19.54
437.284	19.57
437.724	19.6
438.164	19.64
438.604	19.68
439.045	19.71
439.485	19.74
439.925	19.75
440.365	19.76
440.805	19.77
441.245	19.77
441.685	19.8
442.125	19.84
442.564	19.91
443.004	19.96
443.444	20
443.883	20.06
444.323	20.12
444.762	20.21
445.202	20.29
445.641	20.36
446.081	20.46
446.52	20.51
446.959	20.57
447.398	20.65
447.837	20.76
448.276	20.81
448.716	20.9
449.154	20.94
449.593	21.02
450.032	21.11
450.471	21.2
450.91	21.22
451.349	21.27
451.787	21.34
452.226	21.38
452.664	21.37
453.103	21.42
453.541	21.43
453.98	21.47
454.418	21.5
454.856	21.49
455.295	21.49
455.733	21.54
456.171	21.59
456.609	21.62
457.047	21.62
457.485	21.69
457.923	21.73
458.361	21.75
458.798	21.82
459.236	21.85
459.674	21.89
460.111	21.93
460.549	21.95
460.987	21.96
461.424	21.96
461.862	21.98
462.299	22.01
462.736	22.01
463.173	22.05
463.611	22.05
464.048	22.07
464.485	22.08
464.922	22.09
465.359	22.11
465.796	22.12
466.233	22.16
466.67	22.19
467.106	22.19
467.543	22.22
467.98	22.22
468.416	22.22
468.853	22.22
469.29	22.2
469.726	22.2
470.162	22.19
470.599	22.17
471.035	22.17
471.471	22.15
471.907	22.15
472.344	22.13
472.78	22.1
473.216	22.09
473.652	22.06
474.088	22.08
474.523	22.07
474.959	22.05
475.395	22.06
475.831	22.06
476.266	22.06
476.702	22.03
477.138	22.01
477.573	21.99
478.008	21.98
478.444	21.97
478.879	21.94
479.314	21.94
479.75	21.94
480.185	21.93
480.62	21.92
481.055	21.94
481.49	21.94
481.925	21.95
482.36	21.97
482.795	22
483.229	22.03
483.664	22.09
484.099	22.12
484.534	22.16
484.968	22.21
485.403	22.26
485.837	22.32
486.271	22.39
486.706	22.47
487.14	22.55
487.574	22.65
488.009	22.76
488.443	22.87
488.877	22.99
489.311	23.1
489.745	23.23
490.179	23.37
490.613	23.52
491.046	23.68
491.48	23.86
491.914	24.04
492.348	24.2
492.781	24.38
493.215	24.56
493.648	24.77
494.082	24.99
494.515	25.22
494.948	25.45
495.382	25.68
495.815	25.92
496.248	26.17
496.681	26.41
497.114	26.7
497.547	26.96
497.98	27.25
498.413	27.52
498.846	27.83
499.279	28.14
499.711	28.43
500.144	28.74
500.577	29.08
501.009	29.42
501.442	29.79
501.874	30.14
502.306	30.51
502.739	30.89
503.171	31.29
503.603	31.68
504.036	32.07
504.468	32.5
504.9	32.93
505.332	33.34
505.764	33.79
506.196	34.23
506.627	34.7
507.059	35.15
507.491	35.61
507.923	36.07
508.354	36.55
508.786	37.02
509.217	37.47
509.649	37.96
510.08	38.45
510.512	38.88
510.943	39.38
511.374	39.83
511.805	40.31
512.237	40.78
512.668	41.24
513.099	41.74
513.53	42.22
513.961	42.72
514.391	43.15
514.822	43.61
515.253	44.08
515.684	44.49
516.114	44.95
516.545	45.37
516.975	45.84
517.406	46.28
517.836	46.64
518.267	47.04
518.697	47.44
519.127	47.85
519.558	48.22
519.988	48.57
520.418	48.94
520.848	49.25
521.278	49.58
521.708	49.77
522.138	50.04
522.567	50.38
522.997	50.68
523.427	50.97
523.857	51.2
524.286	51.47
524.716	51.74
525.145	51.97
525.575	52.23
526.004	52.46
526.433	52.81
526.863	53.08
527.292	53.28
527.721	53.49
528.15	53.66
528.579	53.9
529.008	54.09
529.437	54.3
529.866	54.49
530.295	54.67
530.724	54.86
531.152	55.02
531.581	55.15
532.01	55.29
532.438	55.44
532.867	55.58
533.295	55.7
533.723	55.82
534.152	55.91
534.58	56.02
535.008	56.11
535.436	56.21
535.865	56.28
536.293	56.38
536.721	56.49
537.149	56.57
537.576	56.67
538.004	56.74
538.432	56.82
538.86	56.91
539.287	56.99
539.715	57.08
540.143	57.12
540.57	57.18
540.998	57.24
541.425	57.29
541.852	57.33
542.28	57.36
542.707	57.43
543.134	57.48
543.561	57.51
543.988	57.57
544.415	57.61
544.842	57.64
545.269	57.7
545.696	57.73
546.123	57.77
546.549	57.81
546.976	57.86
547.403	57.85
547.829	57.88
548.256	57.9
548.682	57.88
549.108	57.91
549.535	57.94
549.961	57.94
550.387	57.94
550.813	57.95
551.24	57.96
551.666	57.98
552.092	58
552.518	58.03
552.943	58.1
553.369	58.13
553.795	58.15
554.221	58.17
554.646	58.21
555.072	58.22
555.498	58.19
555.923	58.19
556.349	58.15
556.774	58.16
557.199	58.14
557.625	58.06
558.05	58.03
558.475	57.99
558.9	57.96
559.325	57.94
559.75	57.89
560.175	57.85
560.6	57.76
561.025	57.72
561.449	57.65
561.874	57.57
562.299	57.52
562.723	57.47
563.148	57.4
563.572	57.33
563.997	57.23
564.421	57.14
564.846	57.06
565.27	57
565.694	56.88
566.118	56.79
566.542	56.68
566.966	56.57
567.39	56.43
567.814	56.31
568.238	56.15
568.662	56.04
569.086	55.94
569.509	55.81
569.933	55.66
570.357	55.53
570.78	55.37
571.204	55.24
571.627	55.11
572.05	55.01
572.474	54.87
572.897	54.75
573.32	54.61
573.743	54.45
574.166	54.3
574.589	54.18
575.012	54.08
575.435	53.99
575.858	53.88
576.281	53.79
576.704	53.65
577.126	53.55
577.549	53.48
577.972	53.38
578.394	53.29
578.817	53.22
579.239	53.14
579.661	53.06
580.084	52.98
580.506	52.91
580.928	52.79
581.35	52.72
581.772	52.68
582.194	52.58
582.616	52.53
583.038	52.48
583.46	52.45
583.882	52.38
584.303	52.34
584.725	52.28
585.147	52.21
585.568	52.16
585.99	52.11
586.411	52.02
586.833	51.95
587.254	51.86
587.675	51.82
588.096	51.75
588.518	51.7
588.939	51.63
589.36	51.56
589.781	51.5
590.202	51.45
590.623	51.39
591.043	51.35
591.464	51.31
591.885	51.3
592.305	51.22
592.726	51.17
593.147	51.13
593.567	51.08
593.987	51.04
594.408	51
594.828	50.92
595.248	50.89
595.669	50.83
596.089	50.78
596.509	50.71
596.929	50.66
597.349	50.6
597.769	50.53
598.189	50.47
598.608	50.37
599.028	50.29
599.448	50.26
599.867	50.19
600.287	50.14
600.706	50.07
601.126	50.03
601.545	49.98
601.965	49.94
602.384	49.89
602.803	49.83
603.222	49.78
603.641	49.74
604.061	49.68
604.48	49.58
604.898	49.51
605.317	49.44
605.736	49.34
606.155	49.25
606.574	49.17
606.992	49.09
607.411	49.01
607.829	48.93
608.248	48.83
608.666	48.76
609.085	48.69
609.503	48.6
609.921	48.53
610.339	48.47
610.758	48.39
611.176	48.29
611.594	48.19
612.012	48.1
612.43	48.04
612.847	47.98
613.265	47.91
613.683	47.83
614.101	47.75
614.518	47.66
614.936	47.56
615.353	47.49
615.771	47.42
616.188	47.37
616.606	47.28
617.023	47.22
617.44	47.13
617.857	47.05
618.274	46.99
618.691	46.93
619.108	46.88
619.525	46.82
619.942	46.77
620.359	46.74
620.776	46.68
621.192	46.63
621.609	46.59
622.026	46.55
622.442	46.54
622.859	46.53
623.275	46.5
623.691	46.49
624.108	46.51
624.524	46.5
624.94	46.49
625.356	46.49
625.772	46.52
626.188	46.52
626.604	46.52
627.02	46.5
627.436	46.48
627.852	46.47
628.268	46.44
628.683	46.38
629.099	46.37
629.514	46.31
629.93	46.28
630.345	46.2
630.761	46.13
631.176	46.07
631.591	45.99
632.007	45.91
632.422	45.83
632.837	45.72
633.252	45.6
633.667	45.44
634.082	45.28
634.497	45.1
634.911	44.93
635.326	44.73
635.741	44.53
636.155	44.29
636.57	44.04
636.984	43.76
637.399	43.49
637.813	43.23
638.228	42.95
638.642	42.66
639.056	42.35
639.47	42.04
639.884	41.73
640.298	41.38
640.712	41.06
641.126	40.73
641.54	40.4
641.954	40.08
642.368	39.75
642.781	39.41
643.195	39.07
643.609	38.75
644.022	38.42
644.436	38.11
644.849	37.8
645.262	37.51
645.676	37.23
646.089	36.95
646.502	36.67
646.915	36.42
647.328	36.21
647.741	36.01
648.154	35.85
648.567	35.69
648.98	35.53
649.393	35.42
649.805	35.29
650.218	35.18
650.631	35.09
651.043	35.01
651.456	34.95
651.868	34.88
652.28	34.82
652.693	34.72
653.105	34.63
653.517	34.57
653.929	34.47
654.341	34.39
654.753	34.29
655.165	34.19
655.577	34.07
655.989	33.92
656.401	33.73
656.813	33.57
657.224	33.41
657.636	33.24
658.047	33.07
658.459	32.85
658.87	32.64
659.282	32.44
659.693	32.22
660.104	32
660.515	31.78
660.926	31.59
661.338	31.36
661.749	31.13
662.159	30.88
662.57	30.62
662.981	30.4
663.392	30.2
663.803	29.97
664.213	29.75
664.624	29.56
665.035	29.36
665.445	29.18
665.855	29.01
666.266	28.85
666.676	28.7
667.086	28.6
667.497	28.47
667.907	28.36
668.317	28.25
668.727	28.17
669.137	28.09
669.547	28.03
669.956	27.97
670.366	27.94
670.776	27.91
671.186	27.89
671.595	27.88
672.005	27.9
672.414	27.89
672.824	27.93
673.233	27.98
673.642	28.02
674.052	28.09
674.461	28.17
674.87	28.26
675.279	28.38
675.688	28.5
676.097	28.62
676.506	28.78
676.915	28.97
677.323	29.16
677.732	29.37
678.141	29.61
678.549	29.88
678.958	30.17
679.366	30.5
679.775	30.88
680.183	31.26
680.592	31.68
681	32.14
681.408	32.62
681.816	33.15
682.224	33.71
682.632	34.33
683.04	34.95
683.448	35.62
683.856	36.32
684.264	37.08
684.671	37.86
685.079	38.68
685.487	39.54
685.894	40.42
686.302	41.31
686.709	42.23
687.116	43.15
687.524	44.09
687.931	44.99
688.338	45.91
688.745	46.82
689.152	47.73
689.559	48.64
689.966	49.5
690.373	50.38
690.78	51.22
691.187	52.06
691.593	52.87
692	53.65
692.407	54.44
692.813	55.2
693.22	55.88
693.626	56.6
694.032	57.28
694.439	57.97
694.845	58.59
695.251	59.21
695.657	59.78
696.063	60.32
696.469	60.87
696.875	61.38
697.281	61.85
697.687	62.36
698.093	62.79
698.498	63.22
698.904	63.64
699.31	64.02
699.715	64.4
700.12	64.74
700.526	65.11
700.931	65.43
701.337	65.77
701.742	66.07
702.147	66.36
702.552	66.64
702.957	66.93
703.362	67.2
703.767	67.43
704.172	67.68
704.577	67.93
704.981	68.17
705.386	68.38
705.791	68.59
706.195	68.78
706.6	68.94
707.004	69.11
707.408	69.27
707.813	69.4
708.217	69.56
708.621	69.69
709.025	69.85
709.43	69.98
709.834	70.14
710.237	70.25
710.641	70.4
711.045	70.53
711.449	70.7
711.853	70.84
712.256	71.01
712.66	71.16
713.064	71.3
713.467	71.4
713.87	71.51
714.274	71.63
714.677	71.73
715.08	71.81
715.484	71.95
715.887	72.05
716.29	72.13
716.693	72.18
717.096	72.25
717.499	72.34
717.901	72.42
718.304	72.51
718.707	72.58
719.109	72.7
719.512	72.81
719.915	72.88
720.317	72.93
720.719	73.01
721.122	73.12
721.524	73.21
721.926	73.3
722.328	73.38
722.731	73.47
723.133	73.5
723.535	73.6
723.937	73.65
724.338	73.67
724.74	73.73
725.142	73.75
725.544	73.79
725.945	73.82
726.347	73.86
726.748	73.88
727.15	73.92
727.551	74.01
727.952	74.02
728.354	74.1
728.755	74.18
729.156	74.22
729.557	74.27
729.958	74.31
730.359	74.31
730.76	74.28
731.161	74.35
731.562	74.36
731.962	74.35
732.363	74.36
732.763	74.37
733.164	74.36
733.564	74.34
733.965	74.34
734.365	74.32
734.766	74.32
735.166	74.31
735.566	74.27
735.966	74.25
736.366	74.24
736.766	74.24
737.166	74.24
737.566	74.25
737.966	74.26
738.365	74.27
738.765	74.32
739.165	74.31
739.564	74.35
739.964	74.34
740.363	74.34
740.763	74.32
741.162	74.3
741.561	74.29
741.96	74.28
742.36	74.3
742.759	74.29
743.158	74.23
743.557	74.25
743.955	74.29
744.354	74.33
744.753	74.41
745.152	74.45
745.55	74.49
745.949	74.48
746.348	74.49
746.746	74.47
747.144	74.52
747.543	74.58
747.941	74.61
748.339	74.62
748.737	74.62
749.136	74.63
749.534	74.64
749.932	74.61
750.33	74.61
750.727	74.62
751.125	74.64
751.523	74.59
751.921	74.62
752.318	74.61
752.716	74.59
753.113	74.6
753.511	74.54
753.908	74.51
754.305	74.48
754.703	74.44
755.1	74.41
755.497	74.39
755.894	74.4
756.291	74.36
756.688	74.33
757.085	74.33
757.482	74.31
757.878	74.37
758.275	74.35
758.672	74.38
759.068	74.41
759.465	74.42
759.861	74.43
760.258	74.37
760.654	74.35
761.05	74.31
761.447	74.27
761.843	74.23
762.239	74.13
762.635	74.1
763.031	74.07
763.427	74.04
763.822	73.97
764.218	73.92
764.614	73.89
765.01	73.86
765.405	73.86
765.801	73.83
766.196	73.84
766.592	73.87
766.987	73.87
767.382	73.85
767.778	73.85
768.173	73.84
768.568	73.83
768.963	73.85
769.358	73.84
769.753	73.88
770.148	73.88
770.542	73.85
770.937	73.81
771.332	73.82
771.726	73.81
772.121	73.77
772.515	73.8
772.91	73.8
773.304	73.78
773.699	73.78
774.093	73.71
774.487	73.73
774.881	73.76
775.275	73.8
775.669	73.79
776.063	73.8
776.457	73.81
776.851	73.79
777.245	73.81
777.638	73.85
778.032	73.91
778.425	73.96
778.819	73.98
779.212	73.9
779.606	73.87
779.999	73.86
780.392	73.85
780.786	73.86
781.179	73.88
781.572	73.85
781.965	73.84
782.358	73.75
782.751	73.75
783.143	73.69
783.536	73.75
783.929	73.78
784.322	73.8
784.714	73.83
785.107	73.87
785.499	73.91
785.891	73.99
786.284	73.96
786.676	74.01
787.068	74.02
787.46	74.08
787.852	74.09
788.245	74.13
788.636	74.13
789.028	74.1
789.42	74.07
789.812	74.06
790.204	73.99
790.595	74.02
790.987	74.01
791.378	74.03
791.77	74.03
792.161	74.03
792.553	73.99
792.944	74.01
793.335	74.06
793.726	74.07
794.117	74.06
794.508	74.09
794.899	74.1
795.29	74.11
795.681	74.13
796.072	74.12
796.463	74.13
796.853	74.13
797.244	74.11
797.634	74.09
798.025	74.08
798.415	74.06
798.806	74.08
799.196	74.11
799.586	74.12
799.976	74.09
800.366	74.11
800.756	74.12
801.146	74.15
801.536	74.16
801.926	74.16
802.316	74.2
802.706	74.23
803.095	74.23
803.485	74.22
803.874	74.24
804.264	74.28
804.653	74.25
805.043	74.2
805.432	74.13
805.821	74.09
806.21	74.12
806.599	74.17
806.988	74.18
807.377	74.22
807.766	74.21
808.155	74.23
808.544	74.21
808.933	74.2
809.321	74.27
809.71	74.37
810.098	74.38
810.487	74.36
810.875	74.33
811.264	74.36
811.652	74.33
812.04	74.35
812.428	74.35
812.816	74.38
813.204	74.41
813.592	74.36
813.98	74.35
814.368	74.36
814.756	74.4
815.144	74.42
815.531	74.38
815.919	74.35
816.306	74.33
816.694	74.34
817.081	74.28
817.469	74.32
817.856	74.34
818.243	74.31
818.63	74.35
819.017	74.33
819.404	74.3
819.791	74.33
820.178	74.39
820.565	74.41
820.952	74.41
821.339	74.46
821.725	74.47
822.112	74.51
822.498	74.51
822.885	74.54
823.271	74.58
823.657	74.59
824.044	74.59
824.43	74.61
824.816	74.6
825.202	74.56
825.588	74.56
825.974	74.54
826.36	74.5
826.746	74.51
827.132	74.45
827.517	74.42
827.903	74.44
828.289	74.43
828.674	74.39
829.06	74.4
829.445	74.44
829.83	74.45
830.216	74.47
830.601	74.5
830.986	74.51
831.371	74.58
831.756	74.57
832.141	74.6
832.526	74.59
832.911	74.62
833.295	74.63
833.68	74.62
834.065	74.62
834.449	74.6
834.834	74.56
835.218	74.55
835.603	74.52
835.987	74.49
836.371	74.47
836.755	74.48
837.139	74.44
837.524	74.41
837.908	74.39
838.291	74.37
838.675	74.39
839.059	74.4
839.443	74.43
839.827	74.43
840.21	74.46
840.594	74.43
840.977	74.39
841.361	74.4
841.744	74.45
842.127	74.46
842.511	74.45
842.894	74.4
843.277	74.41
843.66	74.39
844.043	74.39
844.426	74.39
844.809	74.38
845.191	74.39
845.574	74.35
845.957	74.31
846.339	74.29
846.722	74.32
847.104	74.36
847.487	74.36
847.869	74.33
848.252	74.31
848.634	74.32
849.016	74.33
849.398	74.32
849.78	74.37
850.162	74.36
850.544	74.38
850.926	74.34
851.307	74.32
851.689	74.27
852.071	74.26
852.452	74.27
852.834	74.23
853.215	74.22
853.597	74.25
853.978	74.19
854.359	74.18
854.741	74.19
855.122	74.23
855.503	74.23
855.884	74.25
856.265	74.27
856.646	74.21
857.026	74.22
857.407	74.21
857.788	74.21
858.169	74.27
858.549	74.29
858.93	74.26
859.31	74.21
859.69	74.18
860.071	74.17
860.451	74.15
860.831	74.18
861.211	74.16
861.591	74.16
861.971	74.11
862.351	74.05
862.731	74.03
863.111	74.03
863.491	74.04
863.87	74.05
864.25	74.05
864.629	74.06
865.009	74.06
865.388	74.07
865.768	74.07
866.147	74.11
866.526	74.12
866.905	74.17
867.284	74.19
867.663	74.2
868.042	74.2
868.421	74.18
868.8	74.2
869.179	74.22
869.558	74.18
869.936	74.16
870.315	74.18
870.693	74.18
871.072	74.13
871.45	74.1
871.828	74.07
872.207	74.1
872.585	74.09
872.963	74.04
873.341	74.06
873.719	74.11
874.097	74.09
874.475	74.06
874.853	74.09
875.23	74.08
875.608	74.08
875.986	74.12
876.363	74.09
876.741	74.1
877.118	74.1
877.495	74.08
877.873	74.09
878.25	74.12
878.627	74.1
879.004	74.08
879.381	74.1
879.758	74.07
880.135	74.06
880.512	74.1
880.889	74.14
881.265	74.17
881.642	74.18
882.019	74.19
882.395	74.17
882.772	74.2
883.148	74.23
883.524	74.25
883.901	74.23
884.277	74.19
884.653	74.18
885.029	74.16
885.405	74.14
885.781	74.11
886.157	74.1
886.532	74.1
886.908	74.09
887.284	74.08
887.659	74.08
888.035	74.11
888.411	74.13
888.786	74.07
889.161	74.06
889.537	74.08
889.912	74.05
890.287	74.02
890.662	74.02
891.037	73.97
891.412	73.92
891.787	73.87
892.162	73.83
892.536	73.81
892.911	73.82
893.286	73.77
893.66	73.73
894.035	73.73
894.409	73.7
894.784	73.66
895.158	73.67
895.532	73.67
895.906	73.67
896.281	73.65
896.655	73.65
897.029	73.65
897.402	73.67
897.776	73.69
898.15	73.68
898.524	73.67
898.898	73.64
899.271	73.63
899.645	73.62
900.018	73.59
900.392	73.62
900.765	73.64
901.138	73.63
901.511	73.59
901.884	73.59
902.258	73.6
902.631	73.65
903.003	73.71
903.376	73.71
903.749	73.74
904.122	73.76
904.495	73.78
904.867	73.77
905.24	73.76
905.612	73.77
905.985	73.73
906.357	73.65
906.729	73.61
907.102	73.58
907.474	73.59
907.846	73.55
908.218	73.51
908.59	73.43
908.962	73.39
909.334	73.38
909.705	73.37
910.077	73.4
910.449	73.45
910.82	73.45
911.192	73.44
911.563	73.42
911.935	73.39
912.306	73.41
912.677	73.42
913.048	73.4
913.419	73.39
913.79	73.37
914.161	73.32
914.532	73.29
914.903	73.27
915.274	73.25
915.645	73.29
916.015	73.3
916.386	73.27
916.756	73.25
917.127	73.26
917.497	73.23
917.868	73.27
918.238	73.31
918.608	73.29
918.978	73.29
919.348	73.28
919.718	73.24
920.088	73.23
920.458	73.3
920.828	73.3
921.198	73.34
921.567	73.33
921.937	73.3
922.306	73.24
922.676	73.23
923.045	73.17
923.415	73.16
923.784	73.16
924.153	73.1
924.522	73.06
924.891	73.07
925.26	72.99
925.629	72.97
925.998	72.95
926.367	72.91
926.736	72.9
927.104	72.95
927.473	72.95
927.842	72.86
928.21	72.9
928.578	72.86
928.947	72.83
929.315	72.8
929.683	72.79
930.051	72.76
930.42	72.77
930.788	72.77
931.156	72.74
931.523	72.71
931.891	72.71
932.259	72.64
932.627	72.57
932.994	72.57
933.362	72.55
933.729	72.47
934.097	72.46
934.464	72.4
934.831	72.34
935.199	72.35
935.566	72.26
935.933	72.29
936.3	72.24
936.667	72.22
937.034	72.11
937.401	72.11
937.767	72.11
938.134	72.04
938.501	72.03
938.867	72.07
939.234	72.04
939.6	72.05
939.967	72.01
940.333	72.12
940.699	72.19
941.065	72.3
941.431	72.32
941.798	72.35
942.163	72.52
942.529	72.62
942.895	72.71
943.261	72.65
943.627	72.75
943.992	72.74
944.358	72.72
944.723	72.73
945.089	72.78
945.454	72.88
945.82	72.95
946.185	73.03
946.55	73.14
946.915	73.03
947.28	73.1
947.645	73.05
948.01	73.01
948.375	73.06
948.74	73
949.104	73.02
949.469	72.86
949.834	72.86
950.198	72.61
950.562	72.5
950.927	72.53
951.291	72.47
951.655	72.46
952.02	72.44
952.384	72.41
952.748	72.4
953.112	72.31
953.476	72.33
953.839	72.16
954.203	72.16
954.567	72.11
954.931	72.04
955.294	72.03
955.658	71.94
956.021	71.92
956.385	71.87
956.748	71.92
957.111	71.83
957.474	71.88
957.837	71.98
958.2	71.94
958.563	71.89
958.926	71.86
959.289	71.85
959.652	71.95
960.015	71.97
960.377	71.95
960.74	71.87
961.102	71.88
961.465	71.88
961.827	71.82
962.189	71.88
962.552	71.75
962.914	71.71
963.276	71.62
963.638	71.53
964	71.54
964.362	71.51
964.724	71.46
965.085	71.5
965.447	71.37
965.809	71.28
966.17	71.27
966.532	71.38
966.893	71.36
967.255	71.42
967.616	71.5
967.977	71.39
968.338	71.4
968.699	71.37
969.061	71.32
969.421	71.38
969.782	71.51
970.143	71.43
970.504	71.35
970.865	71.33
971.225	71.29
971.586	71.24
971.946	71.26
972.307	71.21
972.667	71.27
973.027	71.34
973.388	71.24
973.748	71.14
974.108	71.1
974.468	71.13
974.828	71.19
975.188	71.26
975.548	71.26
975.907	71.27
976.267	71.32
976.627	71.29
976.986	71.27
977.346	71.26
977.705	71.38
978.064	71.45
978.424	71.34
978.783	71.27
979.142	71.22
979.501	71.18
979.86	71.2
980.219	71.16
980.578	71.15
980.937	71.11
981.296	71.22
981.654	71.2
982.013	71.21
982.371	71.33
982.73	71.37
983.088	71.35
983.447	71.4
983.805	71.35
984.163	71.44
984.521	71.34
984.879	71.34
985.237	71.39
985.595	71.44
985.953	71.4
986.311	71.48
986.669	71.57
987.026	71.5
987.384	71.41
987.741	71.43
988.099	71.32
988.456	71.35
988.814	71.36
989.171	71.26
989.528	71.12
989.885	71.16
990.242	71.08
990.599	70.98
990.956	71.1
991.313	71.22
991.67	71.22
992.027	71.21
992.383	71.36
992.74	71.38
993.096	71.39
993.453	71.48
993.809	71.54
994.165	71.63
994.522	71.67
994.878	71.61
995.234	71.51
995.59	71.48
995.946	71.66
996.302	71.5
996.658	71.44
997.013	71.49
997.369	71.45
997.725	71.45
998.08	71.41
998.436	71.47
998.791	71.41
999.147	71.54
999.502	71.62
999.857	71.43
1000.212	71.48
1000.567	71.45
1000.922	71.51
1001.277	71.45
1001.632	71.26
1001.987	71.23
1002.342	71.39
1002.696	71.53
1003.051	71.3
1003.406	71.18
1003.76	71.31
1004.114	71.38
1004.469	71.46
1004.823	71.33
1005.177	71.52
1005.531	71.65
1005.885	71.66
1006.239	71.62
1006.593	71.66
1006.947	71.7
1007.301	71.86
1007.655	71.95
1008.008	71.82
1008.362	71.68
1008.715	71.67
1009.069	71.48
1009.422	71.32
1009.776	71.37
1010.129	71
1010.482	70.81
1010.835	71.13
1011.188	70.99
1011.541	70.68
1011.894	70.5
1012.247	70.55
1012.6	70.53
1012.952	70.53
1013.305	70.72
1013.657	70.7
1014.01	71.03
1014.362	71.08
1014.715	70.81
1015.067	70.88
1015.419	71.25
1015.771	71.62
1016.123	71.59
1016.475	71.93
1016.827	72.21
1017.179	72.22
1017.531	72.16
1017.883	72.15
1018.234	72.18
1018.586	72.05
1018.938	72.09
1019.289	72.04
1019.64	72.19
1019.992	72.44
1020.343	72.27
1020.694	72.01
1021.045	71.97
1021.396	72.1
1021.747	72.02
1022.098	72.07
1022.449	72.11
1022.8	72.06
1023.151	72.09
1023.501	72.08
1023.852	71.93
1024.202	71.83
1024.553	71.7
1024.903	71.61
1025.253	71.74
1025.604	71.54
1025.954	71.34
1026.304	72.14
1026.654	72.36
1027.004	72.2
1027.354	72.23
1027.703	72.03
1028.053	71.69
1028.403	72.05
1028.753	72.7
1029.102	72.3
1029.452	72.36
1029.801	72.37
1030.15	71.7
1030.499	71.55
897.758	511.03
901.051	524.11
904.343	529.46
907.636	524.39
910.928	514.62
914.22	525.79
917.511	516.92
920.803	495.12
924.094	476.12
927.384	483.93
930.675	469.29
933.965	465.94
937.255	465.07
940.544	445.91
943.834	422.32
947.123	419.2
950.411	397.66
953.7	390.31
956.988	379.79
960.276	363.64
963.563	360.91
966.851	342.87
970.138	336.81
973.424	314.16
976.711	312.61
979.997	304.7
983.283	297
986.568	288.22
989.853	281.3
993.138	271.36
996.423	269.43
999.708	260.56
1002.992	261.69
1006.275	256.55
1009.559	254.44
1012.842	246.18
1016.125	239.68
1019.408	236.25
1022.69	234.71
1025.972	234.11
1029.254	227.75
1032.536	223.46
1035.817	215.87
1039.098	213.79
1042.379	209.62
1045.659	207.31
1048.939	206.54
1052.219	203.71
1055.498	199.86
1058.778	197.1
1062.057	192.52
1065.335	192.98
1068.614	189.24
1071.892	187.95
1075.17	185.07
1078.447	182.37
1081.724	181.3
1085.001	177.11
1088.278	176.69
1091.554	176.49
1094.83	174.3
1098.106	172.76
1101.382	171.63
1104.657	171.83
1107.932	171.14
1111.206	169.34
1114.481	168.64
1117.755	166.81
1121.029	166.9
1124.302	164.79
1127.575	161.98
1130.848	162.24
1134.121	160.16
1137.393	159.98
1140.665	158.68
1143.937	157.32
1147.208	155.69
1150.48	153.62
1153.75	154.8
1157.021	153.63
1160.291	153.07
1163.561	153.68
1166.831	151.86
1170.101	152.16
1173.37	150.76
1176.639	149.73
1179.907	149.27
1183.176	149.79
1186.444	149.16
1189.711	147.19
1192.979	148.46
1196.246	148.81
1199.513	147.15
1202.78	148.38
1206.046	147.79
1209.312	148.6
1212.578	149.34
1215.843	151.28
1219.108	151.44
1222.373	154.7
1225.638	156.28
1228.902	158.93
1232.166	162.34
1235.43	165.47
1238.693	168.36
1241.956	171.65
1245.219	176.64
1248.482	177.46
1251.744	176.97
1255.006	177.9
1258.268	173.98
1261.529	173.52
1264.79	168.62
1268.051	166.26
1271.312	164.07
1274.572	162.04
1277.832	158.85
1281.092	155.64
1284.351	153.14
1287.61	153.08
1290.869	152.88
1294.128	152.1
1297.386	151.39
1300.644	151.04
1303.902	150.55
1307.159	150.25
1310.416	149.91
1313.673	152.03
1316.93	152.66
1320.186	154.89
1323.442	156.59
1326.697	158.6
1329.953	158.34
1333.208	163.46
1336.463	169.13
1339.717	171.6
1342.972	178.3
1346.226	182.31
1349.479	183.65
1352.733	191.19
1355.986	194.12
1359.238	197.42
1362.491	197.89
1365.743	206.87
1368.995	206.21
1372.247	204.48
1375.498	203.09
1378.749	209.15
1382	208.84
1385.251	207.24
1388.501	206.58
1391.751	208.63
1395	206.83
1398.25	209.02
1401.499	207.72
1404.748	207.05
1407.996	201.88
1411.244	202.9
1414.492	199.32
1417.74	192.98
1420.987	189.81
1424.234	185.42
1427.481	178.43
1430.728	174.14
1433.974	167.59
1437.22	163.22
1440.465	157.96
1443.711	154.92
1446.956	149.69
1450.201	144.03
1453.445	138.78
1456.689	135.36
1459.933	131.33
1463.177	126.96
1466.42	123.84
1469.663	120.79
1472.906	117.09
1476.148	115.31
1479.391	113.24
1482.633	112.03
1485.874	110.52
1489.115	109.98
1492.356	107.32
1495.597	106.61
1498.838	106.53
1502.078	106.56
1505.318	106.66
1508.557	105.93
1511.797	104.67
1515.036	104.85
1518.274	104.6
1521.513	103.9
1524.751	103.59
1527.989	105.31
1531.227	105.1
1534.464	104.95
1537.701	104.44
1540.938	104
1544.174	104.66
1547.41	104.94
1550.646	104.63
1553.882	105.07
1557.117	104.91
1560.352	104.87
1563.587	103.28
1566.821	103.38
1570.055	103.44
1573.289	102.88
1576.523	103.25
1579.756	102.9
1582.989	103.11
1586.222	103.21
1589.454	103.1
1592.686	103.05
1595.918	102.93
1599.15	103.7
1602.381	103.74
1605.612	103.38
1608.843	103.64
1612.073	104.28
1615.303	104.09
1618.533	104.09
1621.762	104.28
1624.992	103.97
1628.221	104.02
1631.449	104.7
1634.678	104.02
1637.906	103.92
1641.134	103.9
1644.361	104.28
1647.588	103.34
1650.815	103.54
1654.042	103.62
1657.269	103.18
1660.495	103.52
1663.72	103.75
1666.946	103.26
1670.171	104.13
1673.396	104.68
1676.621	105.25
1679.845	105.16
1683.069	105.16
1686.293	105.13
1689.517	105.33
1692.74	105.65
1695.963	105.66
1699.185	105.94
1702.408	106.57
1705.63	106.33
1708.852	106.57
1712.073	106.12
1715.294	106.13
1718.515	107.29
1721.736	107.46
1724.956	107.1
1728.176	106.89
1731.396	107.31
1734.616	107.2
1737.835	106.98
1741.054	106.86
1744.272	106.24
1747.491	106.61
1750.709	107.18
1753.927	106.61
1757.144	106.26
1760.361	106.36
1763.578	106.89
1766.795	107.35
1770.011	107.26
1773.227	107.63
1776.443	108.5
1779.658	109.07
1782.874	109.44
1786.089	109.07
1789.303	109.13
1792.518	110.4
1795.732	111.09
1798.945	111.93
1802.159	111.9
1805.372	113.21
1808.585	113.38
1811.797	113.58
1815.01	114.32
1818.222	115.01
1821.434	116
1824.645	116.69
1827.856	117.63
1831.067	117.96
1834.278	118.67
1837.488	119.11
1840.698	120.1
1843.908	120.64
1847.117	121.69
1850.326	122.08
1853.535	121.86
1856.744	123.03
1859.952	123.5
1863.16	122.74
1866.368	122.07
1869.575	122.26
1872.782	121.41
1875.989	119.39
1879.196	118.39
1882.402	116.15
1885.608	116.7
1888.814	115.54
1892.019	114.58
1895.224	112.04
1898.429	112.48
1901.634	112.96
1904.838	111.45
1908.042	111.86
1911.246	111.06
1914.449	111.27
1917.652	112.16
1920.855	111.92
1924.058	111.67
1927.26	110.93
1930.462	112.06
1933.664	111.77
1936.865	111.07
1940.066	110.59
1943.267	109.23
1946.467	111.02
1949.668	110.8
1952.868	111.79
1956.067	111.03
1959.267	111.85
1962.466	112.26
1965.665	113.92
1968.863	114.8
1972.061	115.79
1975.259	118.22
1978.457	119.52
1981.654	120.42
1984.852	121.23
1988.048	121.98
1991.245	124.54
1994.441	127.39
1997.637	130.79
2000.833	133.42
2004.028	134.32
2007.223	139.1
2010.418	142.01
2013.613	147.96
2016.807	152.18
2020.001	155.29
2023.194	159.04
2026.388	163.98
2029.581	170.74
2032.774	174.79
2035.966	179.43
2039.158	185.38
2042.35	186.87
2045.542	187.86
2048.733	195.32
2051.924	197.95
2055.115	201.44
2058.306	203.41
2061.496	206.34
2064.686	207.17
2067.875	207.22
2071.065	209.08
2074.254	209.45
2077.442	216.7
2080.631	220.74
2083.819	220.42
2087.007	223.88
2090.195	228.13
2093.382	228.47
2096.569	229.27
2099.756	233.71
2102.942	238.76
2106.128	243.19
2109.314	243.45
2112.5	242.58
2115.685	241.87
2118.87	242.08
2122.055	244.54
2125.239	248.08
2128.424	253.68
2131.608	251.5
2134.791	250.69
2137.974	251.24
2141.157	252.44
2144.34	255.79
2147.523	260.25
2150.705	267.17
2153.887	265.74
2157.068	268.22
2160.25	270.63
2163.431	268.41
2166.611	275.82
2169.792	281.22
2172.972	286.38
2176.152	287.44
2179.331	294.34
2182.511	292.32
2185.69	295.42
2188.868	304.94
2192.047	311.99
2195.225	316.98
2198.403	321.61
2201.58	316.87
2204.758	325.58
2207.935	325.89
2211.111	331.61
2214.288	332.82
2217.464	338.76
2220.64	340.07
2223.815	340.94
2226.991	333.71
2230.166	337.5
2233.34	348.23
2236.515	352.37
2239.689	350.21
2242.863	355.72
2246.036	352.42
2249.209	360.08
2252.382	360.94
2255.555	373.57
2258.727	377.31
2261.9	385.27
2265.071	389.62
2268.243	387.24
2271.414	403.08
2274.585	409.34
2277.756	411.84
2280.926	423.06
2284.096	423.21
2287.266	423.01
2290.436	415.18
2293.605	423.88
2296.774	446.12
2299.942	441.46
2303.111	455.59
2306.279	457.83
2309.447	458.08
2312.614	459.53
2315.781	474.19
2318.948	477.64
2322.115	487.13
2325.281	511.6
2328.447	508.94
2331.613	505.83
2334.779	516.77
2337.944	522.19
2341.109	535.45
2344.274	543.66
2347.438	559.25
2350.602	569.78
2353.766	606.58
2356.929	609.13
2360.092	617.83
2363.255	620.58
2366.418	632.04
2369.58	641.84
2372.742	638.88
2375.904	638.94
2379.066	653.22
2382.227	693.01
2385.388	688.4
2388.548	657.66
2391.709	649.91
2394.869	667.58
2398.029	672.89
2401.188	672.12
2404.347	695.9
2407.506	719.23
2410.665	690.06
2413.823	693.61
2416.981	686.21
2420.139	655.43
2423.296	703.5
2426.453	750.67
2429.61	720.77
2432.767	762.39
2435.923	789.89
2439.079	763.28
2442.235	784.69
2445.391	804.04
2448.546	792.66
2451.701	837.12
2454.855	892.9
2458.009	790.07
2461.163	806.39
2464.317	813.84
2467.471	794.24
2470.624	817.95
2473.777	803.82
2476.929	773.92
2480.082	827.35
2483.234	870.74
2486.385	874.53
2489.537	895.03
2492.688	991.16
2495.839	966.4
2498.989	991.78
2502.14	998.05
2505.29	955.76
2508.439	1068.73
2511.589	1102.95
2514.738	1060.42
2517.887	1055.39
2521.035	992.64
2524.183	980.55
2527.331	966.61
2530.479	947.04
2533.627	965.54
