Data from N_1_dec_on_6n_017_Splice17_02.txt Node
Date: Sat Feb 29 13:40:07 EST 2020
User: sa697716
Spectrometer: FLMS03696
Trigger mode: 0
Integration Time (sec): 3.180400E-1
Scans to average: 20
Electric dark correction enabled: true
Nonlinearity correction enabled: true
Boxcar width: 5
XAxis mode: Wavelengths
Number of Pixels in Spectrum: 2048
>>>>>Begin Spectral Data<<<<<
187.83	63.23
188.298	62.5
188.766	65.52
189.233	58.24
189.701	67.55
190.169	69.75
190.636	69.66
191.104	52.99
191.571	176.07
192.039	147.87
192.506	18.42
192.974	2849.16
193.441	-80.77
193.908	85.4
194.375	122.27
194.842	112.16
195.31	63.55
195.777	94.2
196.244	26.13
196.711	16.01
197.177	10.12
197.644	8.69
198.111	7.95
198.578	8.43
199.045	8.82
199.511	8.55
199.978	9.33
200.445	9.41
200.911	9.64
201.378	9.42
201.844	9.91
202.31	10.54
202.777	10.6
203.243	11.35
203.709	11.92
204.176	11.43
204.642	11.79
205.108	11.72
205.574	12.3
206.04	12.21
206.506	12.35
206.972	11.9
207.438	11.7
207.903	12.06
208.369	11.53
208.835	11.03
209.301	11.52
209.766	11.38
210.232	11.41
210.697	11.3
211.163	11.29
211.628	10.99
212.094	10.89
212.559	10.93
213.024	10.56
213.49	10.38
213.955	10.37
214.42	10
214.885	9.51
215.35	9.4
215.815	9.19
216.28	8.66
216.745	8.6
217.21	8.38
217.675	8.01
218.14	7.68
218.604	7.33
219.069	7.08
219.534	6.8
219.998	6.6
220.463	6.42
220.927	6.21
221.392	6.04
221.856	5.85
222.32	5.64
222.785	5.52
223.249	5.44
223.713	5.36
224.177	5.25
224.642	5.2
225.106	5.13
225.57	5.02
226.034	4.94
226.497	4.88
226.961	4.82
227.425	4.76
227.889	4.7
228.353	4.64
228.816	4.6
229.28	4.52
229.744	4.47
230.207	4.45
230.671	4.41
231.134	4.36
231.597	4.31
232.061	4.27
232.524	4.24
232.987	4.21
233.45	4.16
233.914	4.14
234.377	4.12
234.84	4.07
235.303	4.04
235.766	4.01
236.229	3.97
236.691	3.95
237.154	3.92
237.617	3.88
238.08	3.85
238.542	3.81
239.005	3.77
239.468	3.71
239.93	3.68
240.393	3.64
240.855	3.59
241.317	3.57
241.78	3.54
242.242	3.51
242.704	3.48
243.166	3.45
243.629	3.42
244.091	3.39
244.553	3.37
245.015	3.35
245.477	3.33
245.939	3.31
246.4	3.28
246.862	3.26
247.324	3.25
247.786	3.23
248.247	3.22
248.709	3.21
249.17	3.19
249.632	3.18
250.093	3.15
250.555	3.12
251.016	3.12
251.477	3.1
251.939	3.09
252.4	3.07
252.861	3.05
253.322	3.03
253.783	3.01
254.244	3
254.705	3
255.166	2.99
255.627	2.99
256.088	2.96
256.549	2.95
257.009	2.94
257.47	2.93
257.931	2.91
258.391	2.89
258.852	2.88
259.312	2.86
259.773	2.84
260.233	2.82
260.694	2.8
261.154	2.79
261.614	2.78
262.074	2.78
262.534	2.76
262.994	2.74
263.455	2.74
263.915	2.72
264.374	2.71
264.834	2.7
265.294	2.68
265.754	2.67
266.214	2.66
266.673	2.65
267.133	2.64
267.593	2.63
268.052	2.62
268.512	2.61
268.971	2.6
269.431	2.6
269.89	2.6
270.349	2.59
270.809	2.58
271.268	2.58
271.727	2.56
272.186	2.56
272.645	2.55
273.104	2.55
273.563	2.54
274.022	2.53
274.481	2.53
274.94	2.52
275.399	2.51
275.857	2.5
276.316	2.5
276.775	2.48
277.233	2.47
277.692	2.47
278.15	2.46
278.609	2.45
279.067	2.43
279.525	2.43
279.984	2.42
280.442	2.41
280.9	2.4
281.358	2.39
281.816	2.39
282.274	2.38
282.732	2.37
283.19	2.36
283.648	2.36
284.106	2.36
284.564	2.35
285.021	2.35
285.479	2.34
285.937	2.33
286.394	2.32
286.852	2.32
287.309	2.32
287.767	2.31
288.224	2.31
288.682	2.31
289.139	2.3
289.596	2.3
290.053	2.29
290.511	2.29
290.968	2.29
291.425	2.29
291.882	2.28
292.339	2.28
292.796	2.27
293.252	2.26
293.709	2.25
294.166	2.25
294.623	2.24
295.079	2.24
295.536	2.24
295.992	2.23
296.449	2.23
296.905	2.23
297.362	2.22
297.818	2.22
298.274	2.22
298.731	2.21
299.187	2.21
299.643	2.21
300.099	2.2
300.555	2.2
301.011	2.19
301.467	2.19
301.923	2.19
302.379	2.19
302.835	2.19
303.291	2.19
303.746	2.18
304.202	2.18
304.658	2.18
305.113	2.18
305.569	2.17
306.024	2.17
306.479	2.16
306.935	2.16
307.39	2.16
307.845	2.16
308.301	2.16
308.756	2.17
309.211	2.17
309.666	2.17
310.121	2.17
310.576	2.17
311.031	2.17
311.486	2.17
311.94	2.17
312.395	2.17
312.85	2.17
313.305	2.17
313.759	2.16
314.214	2.16
314.668	2.16
315.123	2.16
315.577	2.16
316.032	2.15
316.486	2.15
316.94	2.14
317.394	2.13
317.849	2.13
318.303	2.13
318.757	2.13
319.211	2.11
319.665	2.11
320.119	2.11
320.572	2.12
321.026	2.11
321.48	2.11
321.934	2.12
322.387	2.12
322.841	2.12
323.295	2.12
323.748	2.11
324.202	2.12
324.655	2.11
325.108	2.11
325.562	2.09
326.015	2.1
326.468	2.1
326.921	2.09
327.374	2.09
327.827	2.1
328.28	2.1
328.733	2.1
329.186	2.11
329.639	2.12
330.092	2.13
330.545	2.14
330.997	2.16
331.45	2.17
331.903	2.18
332.355	2.19
332.808	2.2
333.26	2.22
333.713	2.24
334.165	2.25
334.617	2.26
335.069	2.27
335.522	2.29
335.974	2.29
336.426	2.3
336.878	2.3
337.33	2.29
337.782	2.31
338.234	2.32
338.686	2.32
339.137	2.34
339.589	2.35
340.041	2.36
340.493	2.36
340.944	2.37
341.396	2.38
341.847	2.39
342.299	2.4
342.75	2.4
343.201	2.4
343.653	2.39
344.104	2.39
344.555	2.39
345.006	2.39
345.457	2.39
345.908	2.39
346.359	2.4
346.81	2.41
347.261	2.42
347.712	2.42
348.163	2.42
348.613	2.42
349.064	2.41
349.515	2.41
349.965	2.41
350.416	2.41
350.866	2.41
351.317	2.4
351.767	2.4
352.217	2.4
352.668	2.41
353.118	2.41
353.568	2.42
354.018	2.44
354.468	2.44
354.918	2.46
355.368	2.46
355.818	2.47
356.268	2.48
356.718	2.49
357.168	2.49
357.617	2.49
358.067	2.5
358.517	2.49
358.966	2.5
359.416	2.52
359.865	2.52
360.315	2.53
360.764	2.54
361.213	2.54
361.663	2.55
362.112	2.57
362.561	2.57
363.01	2.59
363.459	2.6
363.908	2.6
364.357	2.61
364.806	2.62
365.255	2.63
365.703	2.63
366.152	2.65
366.601	2.66
367.05	2.68
367.498	2.69
367.947	2.69
368.395	2.71
368.844	2.72
369.292	2.72
369.74	2.74
370.189	2.74
370.637	2.75
371.085	2.77
371.533	2.78
371.981	2.79
372.429	2.8
372.877	2.81
373.325	2.82
373.773	2.83
374.221	2.84
374.669	2.85
375.116	2.86
375.564	2.87
376.012	2.88
376.459	2.89
376.907	2.9
377.354	2.91
377.801	2.92
378.249	2.93
378.696	2.95
379.143	2.96
379.591	2.97
380.038	2.99
380.485	2.99
380.932	3
381.379	3.01
381.826	3.03
382.273	3.04
382.72	3.06
383.166	3.08
383.613	3.09
384.06	3.11
384.506	3.13
384.953	3.15
385.4	3.18
385.846	3.2
386.292	3.23
386.739	3.25
387.185	3.29
387.631	3.33
388.078	3.37
388.524	3.39
388.97	3.41
389.416	3.44
389.862	3.47
390.308	3.52
390.754	3.57
391.2	3.63
391.645	3.68
392.091	3.72
392.537	3.75
392.983	3.8
393.428	3.89
393.874	4.01
394.319	4.14
394.765	4.27
395.21	4.39
395.655	4.55
396.101	4.7
396.546	4.87
396.991	5.07
397.436	5.27
397.881	5.49
398.326	5.71
398.771	5.92
399.216	6.1
399.661	6.28
400.106	6.46
400.551	6.6
400.995	6.72
401.44	6.83
401.885	6.94
402.329	7.06
402.774	7.17
403.218	7.29
403.663	7.43
404.107	7.61
404.551	7.79
404.995	7.94
405.44	8.08
405.884	8.24
406.328	8.42
406.772	8.63
407.216	8.86
407.66	9.08
408.104	9.28
408.547	9.43
408.991	9.57
409.435	9.71
409.879	9.88
410.322	10.11
410.766	10.34
411.209	10.55
411.653	10.72
412.096	10.86
412.54	11.02
412.983	11.16
413.426	11.34
413.869	11.51
414.312	11.7
414.756	11.87
415.199	12
415.642	12.12
416.085	12.23
416.527	12.35
416.97	12.43
417.413	12.43
417.856	12.44
418.298	12.42
418.741	12.42
419.184	12.42
419.626	12.45
420.069	12.51
420.511	12.56
420.953	12.62
421.396	12.69
421.838	12.79
422.28	12.95
422.722	13.1
423.164	13.26
423.606	13.42
424.048	13.53
424.49	13.58
424.932	13.52
425.374	13.37
425.816	13.13
426.258	12.88
426.699	12.67
427.141	12.6
427.582	12.66
428.024	12.82
428.465	12.98
428.907	13.17
429.348	13.32
429.789	13.53
430.231	13.86
430.672	14.37
431.113	14.94
431.554	15.54
431.995	16.01
432.436	16.35
432.877	16.61
433.318	16.8
433.759	16.99
434.2	17.24
434.64	17.57
435.081	17.88
435.522	18.16
435.962	18.37
436.403	18.54
436.843	18.67
437.284	18.81
437.724	18.97
438.164	19.22
438.604	19.46
439.045	19.74
439.485	20
439.925	20.2
440.365	20.35
440.805	20.47
441.245	20.55
441.685	20.67
442.125	20.8
442.564	20.94
443.004	21.09
443.444	21.28
443.883	21.48
444.323	21.65
444.762	21.85
445.202	22.12
445.641	22.39
446.081	22.75
446.52	23.09
446.959	23.41
447.398	23.7
447.837	23.87
448.276	23.94
448.716	23.97
449.154	24.02
449.593	24.07
450.032	24.09
450.471	24.07
450.91	23.97
451.349	23.88
451.787	23.83
452.226	23.73
452.664	23.7
453.103	23.69
453.541	23.72
453.98	23.68
454.418	23.59
454.856	23.48
455.295	23.38
455.733	23.31
456.171	23.24
456.609	23.16
457.047	23.14
457.485	23.12
457.923	23.14
458.361	23.15
458.798	23.23
459.236	23.32
459.674	23.38
460.111	23.46
460.549	23.53
460.987	23.62
461.424	23.7
461.862	23.79
462.299	23.86
462.736	23.93
463.173	24.04
463.611	24.15
464.048	24.34
464.485	24.57
464.922	24.8
465.359	25.06
465.796	25.27
466.233	25.47
466.67	25.68
467.106	25.94
467.543	26.26
467.98	26.57
468.416	26.84
468.853	27.08
469.29	27.31
469.726	27.54
470.162	27.77
470.599	28.02
471.035	28.25
471.471	28.44
471.907	28.59
472.344	28.64
472.78	28.71
473.216	28.79
473.652	28.87
474.088	28.92
474.523	28.95
474.959	28.97
475.395	29
475.831	29.04
476.266	29.05
476.702	29.05
477.138	29.07
477.573	29.03
478.008	28.98
478.444	28.89
478.879	28.76
479.314	28.62
479.75	28.46
480.185	28.25
480.62	28.01
481.055	27.66
481.49	27.17
481.925	26.59
482.36	26.05
482.795	25.59
483.229	25.23
483.664	24.97
484.099	24.74
484.534	24.52
484.968	24.36
485.403	24.28
485.837	24.31
486.271	24.48
486.706	24.69
487.14	24.86
487.574	24.92
488.009	24.94
488.443	24.95
488.877	24.95
489.311	24.97
489.745	24.98
490.179	24.99
490.613	25
491.046	25.03
491.48	25.07
491.914	25.16
492.348	25.31
492.781	25.43
493.215	25.52
493.648	25.6
494.082	25.64
494.515	25.69
494.948	25.73
495.382	25.76
495.815	25.76
496.248	25.76
496.681	25.72
497.114	25.67
497.547	25.64
497.98	25.64
498.413	25.69
498.846	25.78
499.279	25.87
499.711	25.93
500.144	26
500.577	26.13
501.009	26.34
501.442	26.62
501.874	26.9
502.306	27.19
502.739	27.46
503.171	27.68
503.603	27.88
504.036	28.09
504.468	28.36
504.9	28.64
505.332	28.88
505.764	29.08
506.196	29.26
506.627	29.47
507.059	29.72
507.491	29.97
507.923	30.24
508.354	30.5
508.786	30.74
509.217	30.92
509.649	31.09
510.08	31.29
510.512	31.51
510.943	31.76
511.374	31.97
511.805	32.09
512.237	32.12
512.668	32.1
513.099	32.11
513.53	32.15
513.961	32.25
514.391	32.37
514.822	32.53
515.253	32.76
515.684	32.98
516.114	33.24
516.545	33.57
516.975	34.07
517.406	34.66
517.836	35.22
518.267	35.77
518.697	36.25
519.127	36.77
519.558	37.26
519.988	37.72
520.418	38.15
520.848	38.57
521.278	38.95
521.708	39.11
522.138	39.23
522.567	39.34
522.997	39.45
523.427	39.64
523.857	39.85
524.286	40.06
524.716	40.28
525.145	40.5
525.575	40.69
526.004	40.91
526.433	41.33
526.863	41.77
527.292	42.22
527.721	42.57
528.15	42.8
528.579	42.94
529.008	43.03
529.437	43.07
529.866	43.08
530.295	43.16
530.724	43.25
531.152	43.33
531.581	43.37
532.01	43.39
532.438	43.45
532.867	43.55
533.295	43.66
533.723	43.8
534.152	43.91
534.58	43.98
535.008	43.96
535.436	43.87
535.865	43.72
536.293	43.58
536.721	43.49
537.149	43.43
537.576	43.45
538.004	43.45
538.432	43.4
538.86	43.39
539.287	43.44
539.715	43.56
540.143	43.71
540.57	43.88
540.998	44.1
541.425	44.27
541.852	44.45
542.28	44.59
542.707	44.72
543.134	44.87
543.561	44.96
543.988	45.03
544.415	45.14
544.842	45.22
545.269	45.33
545.696	45.42
546.123	45.53
546.549	45.63
546.976	45.71
547.403	45.8
547.829	45.9
548.256	46.01
548.682	46.09
549.108	46.14
549.535	46.22
549.961	46.26
550.387	46.29
550.813	46.33
551.24	46.38
551.666	46.41
552.092	46.4
552.518	46.36
552.943	46.31
553.369	46.24
553.795	46.13
554.221	45.97
554.646	45.78
555.072	45.58
555.498	45.35
555.923	45.1
556.349	44.92
556.774	44.75
557.199	44.64
557.625	44.48
558.05	44.33
558.475	44.19
558.9	44.09
559.325	43.98
559.75	43.85
560.175	43.7
560.6	43.56
561.025	43.33
561.449	43.06
561.874	42.74
562.299	42.49
562.723	42.22
563.148	41.95
563.572	41.68
563.997	41.39
564.421	41.1
564.846	40.81
565.27	40.51
565.694	40.23
566.118	39.94
566.542	39.66
566.966	39.34
567.39	39.04
567.814	38.78
568.238	38.53
568.662	38.34
569.086	38.17
569.509	38.01
569.933	37.84
570.357	37.65
570.78	37.5
571.204	37.35
571.627	37.24
572.05	37.12
572.474	36.97
572.897	36.82
573.32	36.62
573.743	36.41
574.166	36.2
574.589	36.01
575.012	35.87
575.435	35.74
575.858	35.64
576.281	35.54
576.704	35.45
577.126	35.37
577.549	35.32
577.972	35.31
578.394	35.29
578.817	35.31
579.239	35.33
579.661	35.33
580.084	35.33
580.506	35.3
580.928	35.24
581.35	35.17
581.772	35.08
582.194	34.96
582.616	34.83
583.038	34.75
583.46	34.65
583.882	34.51
584.303	34.31
584.725	34.05
585.147	33.75
585.568	33.5
585.99	33.3
586.411	33.12
586.833	33
587.254	32.89
587.675	32.76
588.096	32.63
588.518	32.52
588.939	32.51
589.36	32.56
589.781	32.65
590.202	32.73
590.623	32.74
591.043	32.73
591.464	32.69
591.885	32.66
592.305	32.61
592.726	32.58
593.147	32.54
593.567	32.47
593.987	32.4
594.408	32.31
594.828	32.22
595.248	32.18
595.669	32.11
596.089	32.03
596.509	31.88
596.929	31.77
597.349	31.61
597.769	31.47
598.189	31.36
598.608	31.26
599.028	31.18
599.448	31.13
599.867	31.05
600.287	30.98
600.706	30.93
601.126	30.9
601.545	30.85
601.965	30.82
602.384	30.79
602.803	30.73
603.222	30.65
603.641	30.57
604.061	30.44
604.48	30.33
604.898	30.19
605.317	30.04
605.736	29.89
606.155	29.75
606.574	29.6
606.992	29.45
607.411	29.31
607.829	29.14
608.248	29
608.666	28.87
609.085	28.73
609.503	28.58
609.921	28.45
610.339	28.34
610.758	28.23
611.176	28.11
611.594	27.96
612.012	27.81
612.43	27.68
612.847	27.51
613.265	27.39
613.683	27.28
614.101	27.2
614.518	27.11
614.936	27.01
615.353	26.89
615.771	26.83
616.188	26.8
616.606	26.76
617.023	26.75
617.44	26.73
617.857	26.65
618.274	26.57
618.691	26.5
619.108	26.41
619.525	26.32
619.942	26.22
620.359	26.1
620.776	25.97
621.192	25.85
621.609	25.71
622.026	25.6
622.442	25.51
622.859	25.42
623.275	25.33
623.691	25.22
624.108	25.12
624.524	25.03
624.94	24.96
625.356	24.9
625.772	24.84
626.188	24.79
626.604	24.71
627.02	24.64
627.436	24.56
627.852	24.49
628.268	24.47
628.683	24.47
629.099	24.46
629.514	24.43
629.93	24.39
630.345	24.36
630.761	24.33
631.176	24.34
631.591	24.32
632.007	24.3
632.422	24.3
632.837	24.26
633.252	24.21
633.667	24.17
634.082	24.14
634.497	24.1
634.911	24.05
635.326	23.97
635.741	23.88
636.155	23.82
636.57	23.74
636.984	23.61
637.399	23.48
637.813	23.36
638.228	23.26
638.642	23.13
639.056	23.02
639.47	22.9
639.884	22.81
640.298	22.72
640.712	22.61
641.126	22.52
641.54	22.43
641.954	22.37
642.368	22.27
642.781	22.14
643.195	22.03
643.609	21.93
644.022	21.84
644.436	21.74
644.849	21.62
645.262	21.5
645.676	21.37
646.089	21.26
646.502	21.17
646.915	21.12
647.328	21.05
647.741	21
648.154	20.96
648.567	20.92
648.98	20.89
649.393	20.89
649.805	20.88
650.218	20.9
650.631	20.87
651.043	20.8
651.456	20.65
651.868	20.43
652.28	20.2
652.693	19.95
653.105	19.78
653.517	19.63
653.929	19.51
654.341	19.44
654.753	19.38
655.165	19.35
655.577	19.35
655.989	19.42
656.401	19.56
656.813	19.74
657.224	19.92
657.636	20.03
658.047	20.1
658.459	20.14
658.87	20.13
659.282	20.13
659.693	20.11
660.104	20.1
660.515	20.07
660.926	20.05
661.338	20.02
661.749	19.97
662.159	19.91
662.57	19.86
662.981	19.83
663.392	19.77
663.803	19.72
664.213	19.67
664.624	19.64
665.035	19.6
665.445	19.57
665.855	19.52
666.266	19.47
666.676	19.45
667.086	19.42
667.497	19.36
667.907	19.32
668.317	19.28
668.727	19.25
669.137	19.2
669.547	19.17
669.956	19.14
670.366	19.14
670.776	19.12
671.186	19.1
671.595	19.1
672.005	19.1
672.414	19.1
672.824	19.1
673.233	19.12
673.642	19.13
674.052	19.14
674.461	19.14
674.87	19.15
675.279	19.17
675.688	19.17
676.097	19.19
676.506	19.22
676.915	19.27
677.323	19.3
677.732	19.33
678.141	19.39
678.549	19.44
678.958	19.48
679.366	19.51
679.775	19.56
680.183	19.61
680.592	19.67
681	19.69
681.408	19.73
681.816	19.76
682.224	19.72
682.632	19.59
683.04	19.37
683.448	19.16
683.856	18.98
684.264	18.84
684.671	18.71
685.079	18.58
685.487	18.52
685.894	18.48
686.302	18.48
686.709	18.56
687.116	18.78
687.524	19.12
687.931	19.51
688.338	19.92
688.745	20.31
689.152	20.74
689.559	21.15
689.966	21.56
690.373	21.98
690.78	22.39
691.187	22.8
691.593	23.2
692	23.61
692.407	24.04
692.813	24.47
693.22	24.87
693.626	25.29
694.032	25.69
694.439	26.1
694.845	26.49
695.251	26.89
695.657	27.28
696.063	27.67
696.469	28.06
696.875	28.38
697.281	28.7
697.687	29.04
698.093	29.36
698.498	29.71
698.904	30.07
699.31	30.41
699.715	30.78
700.12	31.16
700.526	31.53
700.931	31.9
701.337	32.31
701.742	32.68
702.147	33.08
702.552	33.47
702.957	33.87
703.362	34.24
703.767	34.62
704.172	34.98
704.577	35.3
704.981	35.62
705.386	35.93
705.791	36.26
706.195	36.56
706.6	36.85
707.004	37.15
707.408	37.43
707.813	37.71
708.217	37.97
708.621	38.2
709.025	38.51
709.43	38.76
709.834	39.05
710.237	39.27
710.641	39.53
711.045	39.76
711.449	39.98
711.853	40.2
712.256	40.4
712.66	40.56
713.064	40.68
713.467	40.71
713.87	40.73
714.274	40.71
714.677	40.65
715.08	40.58
715.484	40.51
715.887	40.45
716.29	40.39
716.693	40.37
717.096	40.47
717.499	40.66
717.901	40.9
718.304	41.23
718.707	41.53
719.109	41.88
719.512	42.2
719.915	42.5
720.317	42.78
720.719	43.02
721.122	43.26
721.524	43.42
721.926	43.54
722.328	43.64
722.731	43.72
723.133	43.8
723.535	43.88
723.937	43.99
724.338	44.09
724.74	44.19
725.142	44.32
725.544	44.41
725.945	44.54
726.347	44.64
726.748	44.7
727.15	44.77
727.551	44.88
727.952	45
728.354	45.15
728.755	45.32
729.156	45.52
729.557	45.73
729.958	45.96
730.359	46.14
730.76	46.33
731.161	46.51
731.562	46.67
731.962	46.82
732.363	46.94
732.763	47.02
733.164	47.08
733.564	47.14
733.965	47.16
734.365	47.13
734.766	47.1
735.166	47.05
735.566	47.02
735.966	47
736.366	46.97
736.766	46.95
737.166	46.94
737.566	46.91
737.966	46.9
738.365	46.88
738.765	46.9
739.165	46.9
739.564	46.94
739.964	46.95
740.363	46.99
740.763	47
741.162	47.01
741.561	47.05
741.96	47.08
742.36	47.08
742.759	47.07
743.158	47.05
743.557	47.06
743.955	47.09
744.354	47.11
744.753	47.1
745.152	47.06
745.55	47.06
745.949	47
746.348	46.95
746.746	46.88
747.144	46.87
747.543	46.84
747.941	46.82
748.339	46.79
748.737	46.76
749.136	46.69
749.534	46.69
749.932	46.65
750.33	46.64
750.727	46.61
751.125	46.62
751.523	46.54
751.921	46.52
752.318	46.45
752.716	46.38
753.113	46.32
753.511	46.24
753.908	46.15
754.305	46.05
754.703	45.84
755.1	45.52
755.497	44.93
755.894	44.09
756.291	43.02
756.688	41.86
757.085	40.7
757.482	39.63
757.878	38.7
758.275	37.77
758.672	36.84
759.068	35.99
759.465	35.25
759.861	34.86
760.258	34.8
760.654	34.99
761.05	35.36
761.447	35.8
761.843	36.2
762.239	36.6
762.635	37.08
763.031	37.64
763.427	38.27
763.822	38.93
764.218	39.61
764.614	40.24
765.01	40.85
765.405	41.43
765.801	41.92
766.196	42.39
766.592	42.78
766.987	43.08
767.382	43.3
767.778	43.49
768.173	43.63
768.568	43.67
768.963	43.76
769.358	43.8
769.753	43.82
770.148	43.86
770.542	43.84
770.937	43.81
771.332	43.78
771.726	43.72
772.121	43.68
772.515	43.66
772.91	43.68
773.304	43.63
773.699	43.56
774.093	43.48
774.487	43.43
774.881	43.37
775.275	43.3
775.669	43.24
776.063	43.2
776.457	43.12
776.851	43.03
777.245	42.96
777.638	42.91
778.032	42.9
778.425	42.87
778.819	42.82
779.212	42.75
779.606	42.7
779.999	42.64
780.392	42.6
780.786	42.57
781.179	42.52
781.572	42.47
781.965	42.38
782.358	42.28
782.751	42.21
783.143	42.13
783.536	42.09
783.929	42.01
784.322	41.97
784.714	41.89
785.107	41.8
785.499	41.71
785.891	41.63
786.284	41.57
786.676	41.54
787.068	41.47
787.46	41.36
787.852	41.23
788.245	41.15
788.636	41
789.028	40.91
789.42	40.8
789.812	40.7
790.204	40.57
790.595	40.46
790.987	40.31
791.378	40.22
791.77	40.17
792.161	40.11
792.553	40.03
792.944	40
793.335	39.95
793.726	39.87
794.117	39.83
794.508	39.81
794.899	39.77
795.29	39.7
795.681	39.62
796.072	39.55
796.463	39.48
796.853	39.41
797.244	39.34
797.634	39.24
798.025	39.19
798.415	39.09
798.806	39
799.196	38.91
799.586	38.84
799.976	38.78
800.366	38.68
800.756	38.59
801.146	38.51
801.536	38.39
801.926	38.32
802.316	38.24
802.706	38.17
803.095	38.08
803.485	37.97
803.874	37.88
804.264	37.8
804.653	37.68
805.043	37.58
805.432	37.47
805.821	37.36
806.21	37.28
806.599	37.2
806.988	37.08
807.377	36.97
807.766	36.89
808.155	36.8
808.544	36.67
808.933	36.56
809.321	36.44
809.71	36.33
810.098	36.2
810.487	36.03
810.875	35.85
811.264	35.69
811.652	35.54
812.04	35.33
812.428	35.14
812.816	34.97
813.204	34.82
813.592	34.65
813.98	34.5
814.368	34.37
814.756	34.26
815.144	34.15
815.531	34.06
815.919	33.95
816.306	33.93
816.694	33.9
817.081	33.88
817.469	33.85
817.856	33.82
818.243	33.75
818.63	33.68
819.017	33.61
819.404	33.52
819.791	33.45
820.178	33.4
820.565	33.34
820.952	33.28
821.339	33.2
821.725	33.15
822.112	33.13
822.498	33.13
822.885	33.12
823.271	33.07
823.657	33.06
824.044	33.02
824.43	32.96
824.816	32.88
825.202	32.79
825.588	32.74
825.974	32.67
826.36	32.61
826.746	32.55
827.132	32.46
827.517	32.42
827.903	32.36
828.289	32.31
828.674	32.28
829.06	32.25
829.445	32.22
829.83	32.18
830.216	32.14
830.601	32.1
830.986	32.06
831.371	32.06
831.756	32.03
832.141	31.99
832.526	31.97
832.911	31.95
833.295	31.92
833.68	31.9
834.065	31.88
834.449	31.83
834.834	31.78
835.218	31.74
835.603	31.71
835.987	31.68
836.371	31.67
836.755	31.63
837.139	31.62
837.524	31.59
837.908	31.56
838.291	31.52
838.675	31.49
839.059	31.46
839.443	31.44
839.827	31.4
840.21	31.38
840.594	31.34
840.977	31.31
841.361	31.26
841.744	31.24
842.127	31.2
842.511	31.16
842.894	31.14
843.277	31.12
843.66	31.08
844.043	31.06
844.426	31.03
844.809	31.01
845.191	30.98
845.574	30.93
845.957	30.85
846.339	30.82
846.722	30.78
847.104	30.74
847.487	30.72
847.869	30.68
848.252	30.64
848.634	30.63
849.016	30.58
849.398	30.55
849.78	30.51
850.162	30.49
850.544	30.44
850.926	30.4
851.307	30.38
851.689	30.34
852.071	30.3
852.452	30.26
852.834	30.23
853.215	30.19
853.597	30.18
853.978	30.17
854.359	30.17
854.741	30.16
855.122	30.17
855.503	30.16
855.884	30.14
856.265	30.14
856.646	30.13
857.026	30.09
857.407	30.05
857.788	30.03
858.169	30
858.549	30.01
858.93	30
859.31	29.97
859.69	29.95
860.071	29.95
860.451	29.94
860.831	29.92
861.211	29.92
861.591	29.91
861.971	29.86
862.351	29.83
862.731	29.77
863.111	29.73
863.491	29.71
863.87	29.67
864.25	29.65
864.629	29.6
865.009	29.55
865.388	29.5
865.768	29.49
866.147	29.49
866.526	29.5
866.905	29.51
867.284	29.49
867.663	29.5
868.042	29.47
868.421	29.47
868.8	29.47
869.179	29.46
869.558	29.46
869.936	29.44
870.315	29.42
870.693	29.42
871.072	29.39
871.45	29.4
871.828	29.37
872.207	29.37
872.585	29.34
872.963	29.31
873.341	29.31
873.719	29.3
874.097	29.31
874.475	29.31
874.853	29.29
875.23	29.28
875.608	29.27
875.986	29.26
876.363	29.25
876.741	29.24
877.118	29.21
877.495	29.17
877.873	29.16
878.25	29.14
878.627	29.13
879.004	29.11
879.381	29.08
879.758	29.06
880.135	29.04
880.512	29.02
880.889	29.02
881.265	29.06
881.642	29.08
882.019	29.08
882.395	29.07
882.772	29.06
883.148	29.05
883.524	29.05
883.901	29.04
884.277	29.04
884.653	29.03
885.029	29.02
885.405	29
885.781	28.97
886.157	28.98
886.532	28.97
886.908	28.96
887.284	28.96
887.659	28.97
888.035	28.96
888.411	28.93
888.786	28.93
889.161	28.92
889.537	28.91
889.912	28.91
890.287	28.89
890.662	28.89
891.037	28.86
891.412	28.83
891.787	28.79
892.162	28.78
892.536	28.77
892.911	28.73
893.286	28.7
893.66	28.66
894.035	28.61
894.409	28.57
894.784	28.53
895.158	28.5
895.532	28.46
895.906	28.43
896.281	28.39
896.655	28.34
897.029	28.32
897.402	28.27
897.776	28.26
898.15	28.23
898.524	28.22
898.898	28.18
899.271	28.17
899.645	28.18
900.018	28.18
900.392	28.19
900.765	28.2
901.138	28.22
901.511	28.23
901.884	28.23
902.258	28.22
902.631	28.22
903.003	28.23
903.376	28.22
903.749	28.19
904.122	28.18
904.495	28.15
904.867	28.13
905.24	28.12
905.612	28.09
905.985	28.07
906.357	28.07
906.729	28.02
907.102	28.03
907.474	28.02
907.846	28.01
908.218	27.99
908.59	27.96
908.962	27.93
909.334	27.92
909.705	27.9
910.077	27.87
910.449	27.86
910.82	27.87
911.192	27.86
911.563	27.83
911.935	27.79
912.306	27.77
912.677	27.78
913.048	27.78
913.419	27.75
913.79	27.75
914.161	27.75
914.532	27.73
914.903	27.72
915.274	27.68
915.645	27.69
916.015	27.72
916.386	27.72
916.756	27.69
917.127	27.71
917.497	27.75
917.868	27.77
918.238	27.78
918.608	27.79
918.978	27.79
919.348	27.77
919.718	27.75
920.088	27.72
920.458	27.77
920.828	27.78
921.198	27.77
921.567	27.73
921.937	27.74
922.306	27.71
922.676	27.69
923.045	27.66
923.415	27.68
923.784	27.67
924.153	27.67
924.522	27.63
924.891	27.57
925.26	27.55
925.629	27.57
925.998	27.55
926.367	27.55
926.736	27.52
927.104	27.52
927.473	27.51
927.842	27.45
928.21	27.42
928.578	27.34
928.947	27.34
929.315	27.3
929.683	27.24
930.051	27.2
930.42	27.12
930.788	27.06
931.156	26.99
931.523	26.93
931.891	26.93
932.259	26.88
932.627	26.83
932.994	26.79
933.362	26.73
933.729	26.66
934.097	26.62
934.464	26.63
934.831	26.63
935.199	26.6
935.566	26.61
935.933	26.6
936.3	26.58
936.667	26.61
937.034	26.62
937.401	26.6
937.767	26.62
938.134	26.61
938.501	26.62
938.867	26.67
939.234	26.74
939.6	26.69
939.967	26.63
940.333	26.72
940.699	26.79
941.065	26.73
941.431	26.78
941.798	26.78
942.163	26.84
942.529	26.85
942.895	26.83
943.261	26.77
943.627	26.84
943.992	26.89
944.358	26.86
944.723	26.81
945.089	26.89
945.454	27
945.82	27
946.185	26.94
946.55	26.94
946.915	26.96
947.28	26.95
947.645	26.96
948.01	26.91
948.375	26.86
948.74	26.87
949.104	26.77
949.469	26.59
949.834	26.59
950.198	26.62
950.562	26.61
950.927	26.55
951.291	26.51
951.655	26.48
952.02	26.52
952.384	26.57
952.748	26.49
953.112	26.52
953.476	26.56
953.839	26.53
954.203	26.49
954.567	26.42
954.931	26.4
955.294	26.42
955.658	26.35
956.021	26.39
956.385	26.31
956.748	26.34
957.111	26.34
957.474	26.37
957.837	26.35
958.2	26.34
958.563	26.35
958.926	26.38
959.289	26.41
959.652	26.49
960.015	26.46
960.377	26.5
960.74	26.47
961.102	26.45
961.465	26.43
961.827	26.43
962.189	26.44
962.552	26.42
962.914	26.34
963.276	26.32
963.638	26.24
964	26.21
964.362	26.19
964.724	26.21
965.085	26.23
965.447	26.26
965.809	26.21
966.17	26.18
966.532	26.22
966.893	26.28
967.255	26.25
967.616	26.31
967.977	26.32
968.338	26.31
968.699	26.3
969.061	26.33
969.421	26.31
969.782	26.31
970.143	26.32
970.504	26.26
970.865	26.22
971.225	26.27
971.586	26.29
971.946	26.26
972.307	26.26
972.667	26.25
973.027	26.21
973.388	26.16
973.748	26.18
974.108	26.21
974.468	26.27
974.828	26.27
975.188	26.23
975.548	26.15
975.907	26.19
976.267	26.19
976.627	26.17
976.986	26.16
977.346	26.22
977.705	26.25
978.064	26.18
978.424	26.19
978.783	26.24
979.142	26.25
979.501	26.24
979.86	26.16
980.219	26.19
980.578	26.28
980.937	26.29
981.296	26.26
981.654	26.31
982.013	26.4
982.371	26.36
982.73	26.29
983.088	26.28
983.447	26.33
983.805	26.37
984.163	26.27
984.521	26.24
984.879	26.24
985.237	26.27
985.595	26.23
985.953	26.19
986.311	26.22
986.669	26.3
987.026	26.3
987.384	26.26
987.741	26.22
988.099	26.32
988.456	26.31
988.814	26.27
989.171	26.19
989.528	26.08
989.885	26.06
990.242	26.11
990.599	26.06
990.956	26.11
991.313	26.06
991.67	26.15
992.027	26.18
992.383	26.16
992.74	26.09
993.096	26.14
993.453	26.22
993.809	26.24
994.165	26.21
994.522	26.23
994.878	26.17
995.234	26.24
995.59	26.06
995.946	25.96
996.302	25.95
996.658	26.11
997.013	26.18
997.369	26.22
997.725	26.2
998.08	26.03
998.436	26.04
998.791	26.08
999.147	26.08
999.502	26.19
999.857	26.19
1000.212	26.11
1000.567	25.94
1000.922	25.83
1001.277	25.7
1001.632	25.76
1001.987	25.91
1002.342	25.93
1002.696	25.9
1003.051	25.76
1003.406	25.78
1003.76	25.78
1004.114	25.94
1004.469	26.12
1004.823	26.19
1005.177	26.29
1005.531	26.22
1005.885	26.14
1006.239	25.95
1006.593	25.81
1006.947	25.79
1007.301	25.73
1007.655	25.75
1008.008	25.57
1008.362	25.29
1008.715	25.11
1009.069	24.88
1009.422	24.85
1009.776	24.86
1010.129	24.93
1010.482	25.12
1010.835	25.24
1011.188	25.18
1011.541	25.07
1011.894	25.06
1012.247	25.11
1012.6	25.23
1012.952	25.41
1013.305	25.42
1013.657	25.42
1014.01	25.69
1014.362	25.44
1014.715	25.5
1015.067	25.67
1015.419	25.74
1015.771	26
1016.123	26.1
1016.475	26.14
1016.827	26.14
1017.179	26.31
1017.531	26.48
1017.883	26.42
1018.234	26.57
1018.586	26.3
1018.938	26.25
1019.289	26.28
1019.64	26
1019.992	26.02
1020.343	25.91
1020.694	25.8
1021.045	25.76
1021.396	25.54
1021.747	25.38
1022.098	25.52
1022.449	25.68
1022.8	25.61
1023.151	25.46
1023.501	25.69
1023.852	25.71
1024.202	25.91
1024.553	25.88
1024.903	25.77
1025.253	25.66
1025.604	25.65
1025.954	25.47
1026.304	25.8
1026.654	25.97
1027.004	26.34
1027.354	26.29
1027.703	26.22
1028.053	25.79
1028.403	26.11
1028.753	26.18
1029.102	25.94
1029.452	25.58
1029.801	25.2
1030.15	24.95
1030.499	24.59
897.758	588.07
901.051	595.92
904.343	603.93
907.636	593.59
910.928	585
914.22	595.74
917.511	583.79
920.803	561.04
924.094	536.09
927.384	540.43
930.675	527.05
933.965	520.44
937.255	522.29
940.544	499.53
943.834	476.47
947.123	469.25
950.411	445.42
953.7	436.92
956.988	421.67
960.276	404.74
963.563	400.12
966.851	377.77
970.138	372.92
973.424	345.93
976.711	341.8
979.997	333.42
983.283	324.9
986.568	313.47
989.853	304.92
993.138	294.62
996.423	290
999.708	280.79
1002.992	281.94
1006.275	271.98
1009.559	271.6
1012.842	262.75
1016.125	254.02
1019.408	248.49
1022.69	246.77
1025.972	246.31
1029.254	239.63
1032.536	236.47
1035.817	227.48
1039.098	224.02
1042.379	221.65
1045.659	217.34
1048.939	216.01
1052.219	211.33
1055.498	208.75
1058.778	205.95
1062.057	200.84
1065.335	200.5
1068.614	196.25
1071.892	195.57
1075.17	192.12
1078.447	187.92
1081.724	186.63
1085.001	182.78
1088.278	182.95
1091.554	181.01
1094.83	180
1098.106	176.69
1101.382	175.67
1104.657	174.63
1107.932	173.76
1111.206	173.51
1114.481	172.49
1117.755	171.17
1121.029	170.19
1124.302	167.61
1127.575	165.61
1130.848	164.39
1134.121	163.03
1137.393	162.14
1140.665	161.42
1143.937	159.59
1147.208	157.15
1150.48	155.2
1153.75	154.41
1157.021	153.88
1160.291	153.55
1163.561	153.26
1166.831	152.09
1170.101	152.12
1173.37	150.98
1176.639	149.75
1179.907	148.99
1183.176	148.33
1186.444	148.91
1189.711	147.73
1192.979	149.12
1196.246	148.8
1199.513	148.08
1202.78	147.94
1206.046	147.81
1209.312	148.48
1212.578	149.66
1215.843	152.47
1219.108	153.94
1222.373	155.49
1225.638	158.33
1228.902	160.68
1232.166	165.61
1235.43	168.48
1238.693	173.36
1241.956	177.12
1245.219	181.51
1248.482	181.64
1251.744	180.55
1255.006	181.77
1258.268	178.29
1261.529	176.64
1264.79	172.2
1268.051	168.09
1271.312	166.6
1274.572	163.72
1277.832	160.29
1281.092	158.6
1284.351	156.32
1287.61	156.33
1290.869	154.44
1294.128	153.77
1297.386	153.39
1300.644	153.05
1303.902	153.22
1307.159	152.5
1310.416	152.4
1313.673	154.12
1316.93	155.2
1320.186	157.55
1323.442	158.98
1326.697	161.77
1329.953	162.99
1333.208	167.88
1336.463	173.26
1339.717	175.93
1342.972	184.66
1346.226	189.38
1349.479	190.89
1352.733	198.02
1355.986	202.09
1359.238	206.8
1362.491	208.93
1365.743	216.85
1368.995	217.1
1372.247	218.01
1375.498	217
1378.749	223.66
1382	222.6
1385.251	221.1
1388.501	220.48
1391.751	223.63
1395	222.1
1398.25	224.16
1401.499	222.76
1404.748	223.04
1407.996	216.75
1411.244	217.54
1414.492	213.02
1417.74	206.95
1420.987	203.41
1424.234	198.85
1427.481	192.29
1430.728	186.87
1433.974	179.64
1437.22	173.55
1440.465	168.7
1443.711	164.17
1446.956	159.02
1450.201	152.84
1453.445	146.89
1456.689	142.4
1459.933	137.25
1463.177	131.96
1466.42	128.59
1469.663	125.53
1472.906	122.32
1476.148	118.47
1479.391	115.85
1482.633	113.9
1485.874	111.97
1489.115	111.01
1492.356	108.89
1495.597	107.69
1498.838	106.47
1502.078	105.95
1505.318	105.63
1508.557	104.53
1511.797	103.39
1515.036	103.79
1518.274	103.46
1521.513	101.87
1524.751	101.27
1527.989	101.84
1531.227	101.99
1534.464	101.6
1537.701	101.04
1540.938	100.54
1544.174	100.26
1547.41	101.03
1550.646	100.19
1553.882	100.27
1557.117	100.22
1560.352	100.47
1563.587	99.64
1566.821	99.58
1570.055	99.33
1573.289	99.19
1576.523	98.9
1579.756	98.87
1582.989	98.81
1586.222	98.65
1589.454	98.24
1592.686	98.47
1595.918	98.29
1599.15	98.42
1602.381	98.64
1605.612	98.4
1608.843	98.26
1612.073	99.34
1615.303	99.42
1618.533	98.46
1621.762	99.2
1624.992	98.93
1628.221	98.69
1631.449	99.58
1634.678	99.17
1637.906	98.97
1641.134	99.5
1644.361	99.88
1647.588	99.61
1650.815	99.82
1654.042	100.26
1657.269	100.04
1660.495	101.1
1663.72	100.98
1666.946	100.45
1670.171	101.42
1673.396	102.2
1676.621	102.08
1679.845	102.74
1683.069	101.98
1686.293	101.86
1689.517	101.77
1692.74	101.65
1695.963	101.93
1699.185	102.12
1702.408	102.55
1705.63	102.58
1708.852	102.99
1712.073	102.41
1715.294	101.56
1718.515	103.02
1721.736	103.27
1724.956	103.31
1728.176	103.31
1731.396	103.41
1734.616	103.81
1737.835	103.66
1741.054	103.25
1744.272	102.64
1747.491	103.47
1750.709	103.68
1753.927	103.16
1757.144	103.5
1760.361	104.07
1763.578	104.47
1766.795	104.75
1770.011	105.15
1773.227	105.79
1776.443	106.82
1779.658	107.04
1782.874	108.13
1786.089	108.4
1789.303	108.84
1792.518	109.67
1795.732	110.09
1798.945	111.62
1802.159	112.12
1805.372	113.47
1808.585	113.72
1811.797	114.32
1815.01	115.05
1818.222	115.07
1821.434	116.55
1824.645	117.33
1827.856	118.87
1831.067	119.5
1834.278	120.04
1837.488	120.84
1840.698	121.46
1843.908	121.68
1847.117	122.92
1850.326	123.96
1853.535	123.66
1856.744	124.72
1859.952	126.4
1863.16	126.25
1866.368	125.69
1869.575	126.97
1872.782	125.45
1875.989	123.72
1879.196	123.91
1882.402	122.53
1885.608	123.32
1888.814	124.02
1892.019	123.53
1895.224	120.79
1898.429	121.1
1901.634	122.68
1904.838	121.25
1908.042	122.17
1911.246	123.46
1914.449	123.69
1917.652	124.42
1920.855	124.08
1924.058	123.12
1927.26	123.12
1930.462	124.4
1933.664	124.07
1936.865	123.51
1940.066	122.61
1943.267	122.11
1946.467	123.26
1949.668	122.66
1952.868	123.04
1956.067	122.92
1959.267	123.68
1962.466	124.3
1965.665	124.8
1968.863	126.26
1972.061	125.94
1975.259	129.35
1978.457	130.54
1981.654	130.44
1984.852	132.48
1988.048	133.17
1991.245	136.04
1994.441	138.62
1997.637	142.03
2000.833	145.24
2004.028	146.33
2007.223	152.54
2010.418	155.22
2013.613	162.25
2016.807	167.45
2020.001	170.29
2023.194	174.7
2026.388	180.41
2029.581	189.42
2032.774	193.36
2035.966	198.57
2039.158	204.54
2042.35	206.26
2045.542	209.66
2048.733	218.27
2051.924	219.74
2055.115	222.98
2058.306	226.24
2061.496	229.85
2064.686	229.58
2067.875	229.62
2071.065	230.52
2074.254	231.64
2077.442	240.01
2080.631	242.66
2083.819	241.68
2087.007	248.32
2090.195	252.18
2093.382	252.47
2096.569	251.66
2099.756	256.39
2102.942	261.87
2106.128	270.15
2109.314	271.72
2112.5	271.16
2115.685	269.62
2118.87	269.36
2122.055	270.15
2125.239	276.61
2128.424	282.36
2131.608	281.35
2134.791	278.99
2137.974	281.96
2141.157	281.02
2144.34	284.41
2147.523	286.31
2150.705	294.2
2153.887	291.54
2157.068	293.61
2160.25	297.02
2163.431	296.36
2166.611	302.11
2169.792	309.64
2172.972	312.79
2176.152	316.06
2179.331	321.04
2182.511	323.33
2185.69	326.68
2188.868	342.48
2192.047	348.08
2195.225	350.82
2198.403	357.8
2201.58	352.88
2204.758	365.71
2207.935	368.77
2211.111	372.95
2214.288	376.81
2217.464	381.77
2220.64	381.4
2223.815	380.28
2226.991	377.24
2230.166	380.81
2233.34	391.93
2236.515	400.97
2239.689	396.61
2242.863	402.24
2246.036	400.86
2249.209	410.43
2252.382	411.52
2255.555	425.14
2258.727	428.61
2261.9	440.75
2265.071	448.25
2268.243	440.85
2271.414	457.39
2274.585	463.4
2277.756	464.34
2280.926	483.52
2284.096	480.88
2287.266	480.31
2290.436	471.96
2293.605	483.72
2296.774	502.24
2299.942	496.74
2303.111	515.45
2306.279	522.83
2309.447	527.2
2312.614	525.78
2315.781	533.29
2318.948	544.54
2322.115	557.11
2325.281	590.41
2328.447	580.73
2331.613	582.42
2334.779	595.99
2337.944	604.27
2341.109	617.16
2344.274	621.72
2347.438	646.77
2350.602	659.46
2353.766	694.15
2356.929	697.64
2360.092	704.84
2363.255	713.7
2366.418	724.38
2369.58	736.37
2372.742	731.02
2375.904	726.85
2379.066	747.93
2382.227	792.83
2385.388	784.49
2388.548	750.08
2391.709	740.9
2394.869	766.73
2398.029	770.44
2401.188	766.5
2404.347	789.34
2407.506	820.36
2410.665	795.5
2413.823	798.05
2416.981	790.4
2420.139	755.28
2423.296	817.29
2426.453	866.87
2429.61	827.78
2432.767	881.17
2435.923	921.6
2439.079	883.78
2442.235	905.75
2445.391	920.49
2448.546	914.96
2451.701	963.34
2454.855	1032.9
2458.009	912.79
2461.163	930.95
2464.317	933.47
2467.471	910.34
2470.624	938.09
2473.777	933.19
2476.929	898.77
2480.082	961.15
2483.234	1004.12
2486.385	1012.79
2489.537	1039.85
2492.688	1141.32
2495.839	1133.71
2498.989	1168.26
2502.14	1174.45
2505.29	1114.63
2508.439	1250.09
2511.589	1282.63
2514.738	1241.97
2517.887	1232.38
2521.035	1160.28
2524.183	1141.59
2527.331	1134.57
2530.479	1098.83
2533.627	1127.25
