Data from N_1_dec_oh_4n_013_Splice17_13.txt Node
Date: Sat Feb 29 13:38:38 EST 2020
User: sa697716
Spectrometer: FLMS03696
Trigger mode: 0
Integration Time (sec): 3.180400E-1
Scans to average: 20
Electric dark correction enabled: true
Nonlinearity correction enabled: true
Boxcar width: 5
XAxis mode: Wavelengths
Number of Pixels in Spectrum: 2048
>>>>>Begin Spectral Data<<<<<
187.83	78.72
188.298	77.27
188.766	78.56
189.233	76.46
189.701	81.1
190.169	77.09
190.636	76.67
191.104	30.67
191.571	-22.13
192.039	-28.53
192.506	410.79
192.974	3565.63
193.441	-283.25
193.908	108
194.375	94.65
194.842	137.25
195.31	68.59
195.777	75.53
196.244	24.49
196.711	24.38
197.177	21.08
197.644	20.1
198.111	20.12
198.578	19.51
199.045	19.56
199.511	20.89
199.978	21.49
200.445	21.09
200.911	21.31
201.378	21.15
201.844	21.66
202.31	22.52
202.777	22.56
203.243	23.27
203.709	23.86
204.176	23.9
204.642	23.93
205.108	23.35
205.574	23.85
206.04	23.64
206.506	23.62
206.972	23.11
207.438	22.66
207.903	22.75
208.369	22.6
208.835	22.45
209.301	22.45
209.766	21.84
210.232	22.13
210.697	21.82
211.163	21.89
211.628	21.57
212.094	21.81
212.559	21.6
213.024	21.28
213.49	20.7
213.955	20.38
214.42	19.86
214.885	19.44
215.35	18.84
215.815	18.27
216.28	17.7
216.745	17.01
217.21	16
217.675	15.27
218.14	14.5
218.604	13.74
219.069	13.24
219.534	12.88
219.998	12.45
220.463	12.12
220.927	11.83
221.392	11.5
221.856	11.25
222.32	11.07
222.785	10.84
223.249	10.66
223.713	10.54
224.177	10.35
224.642	10.18
225.106	10.05
225.57	9.88
226.034	9.75
226.497	9.62
226.961	9.47
227.425	9.27
227.889	9.15
228.353	9.03
228.816	8.91
229.28	8.76
229.744	8.64
230.207	8.54
230.671	8.4
231.134	8.28
231.597	8.17
232.061	8.07
232.524	8.02
232.987	7.92
233.45	7.82
233.914	7.73
234.377	7.67
234.84	7.57
235.303	7.49
235.766	7.42
236.229	7.33
236.691	7.25
237.154	7.18
237.617	7.08
238.08	7
238.542	6.93
239.005	6.85
239.468	6.77
239.93	6.7
240.393	6.64
240.855	6.55
241.317	6.5
241.78	6.44
242.242	6.36
242.704	6.31
243.166	6.26
243.629	6.2
244.091	6.15
244.553	6.09
245.015	6.05
245.477	5.98
245.939	5.94
246.4	5.86
246.862	5.82
247.324	5.78
247.786	5.73
248.247	5.68
248.709	5.63
249.17	5.59
249.632	5.54
250.093	5.47
250.555	5.43
251.016	5.4
251.477	5.38
251.939	5.33
252.4	5.3
252.861	5.27
253.322	5.24
253.783	5.22
254.244	5.19
254.705	5.17
255.166	5.17
255.627	5.15
256.088	5.11
256.549	5.08
257.009	5.06
257.47	5.04
257.931	5
258.391	4.97
258.852	4.93
259.312	4.9
259.773	4.87
260.233	4.83
260.694	4.81
261.154	4.78
261.614	4.75
262.074	4.72
262.534	4.68
262.994	4.66
263.455	4.64
263.915	4.61
264.374	4.58
264.834	4.56
265.294	4.53
265.754	4.49
266.214	4.47
266.673	4.45
267.133	4.42
267.593	4.41
268.052	4.38
268.512	4.36
268.971	4.34
269.431	4.32
269.89	4.3
270.349	4.29
270.809	4.28
271.268	4.28
271.727	4.25
272.186	4.23
272.645	4.21
273.104	4.2
273.563	4.19
274.022	4.17
274.481	4.15
274.94	4.13
275.399	4.11
275.857	4.1
276.316	4.07
276.775	4.06
277.233	4.04
277.692	4.03
278.15	4.01
278.609	3.99
279.067	3.98
279.525	3.96
279.984	3.95
280.442	3.94
280.9	3.93
281.358	3.91
281.816	3.89
282.274	3.88
282.732	3.87
283.19	3.86
283.648	3.86
284.106	3.84
284.564	3.84
285.021	3.83
285.479	3.82
285.937	3.81
286.394	3.8
286.852	3.79
287.309	3.79
287.767	3.78
288.224	3.76
288.682	3.74
289.139	3.74
289.596	3.71
290.053	3.69
290.511	3.66
290.968	3.64
291.425	3.63
291.882	3.61
292.339	3.59
292.796	3.57
293.252	3.56
293.709	3.54
294.166	3.53
294.623	3.52
295.079	3.51
295.536	3.51
295.992	3.49
296.449	3.48
296.905	3.47
297.362	3.46
297.818	3.45
298.274	3.44
298.731	3.44
299.187	3.43
299.643	3.42
300.099	3.41
300.555	3.4
301.011	3.4
301.467	3.39
301.923	3.39
302.379	3.38
302.835	3.37
303.291	3.36
303.746	3.35
304.202	3.34
304.658	3.34
305.113	3.33
305.569	3.33
306.024	3.32
306.479	3.3
306.935	3.29
307.39	3.29
307.845	3.29
308.301	3.29
308.756	3.29
309.211	3.29
309.666	3.28
310.121	3.28
310.576	3.27
311.031	3.28
311.486	3.28
311.94	3.27
312.395	3.27
312.85	3.27
313.305	3.25
313.759	3.25
314.214	3.25
314.668	3.24
315.123	3.23
315.577	3.23
316.032	3.22
316.486	3.21
316.94	3.21
317.394	3.2
317.849	3.19
318.303	3.18
318.757	3.17
319.211	3.15
319.665	3.14
320.119	3.13
320.572	3.12
321.026	3.12
321.48	3.12
321.934	3.12
322.387	3.11
322.841	3.11
323.295	3.1
323.748	3.09
324.202	3.09
324.655	3.09
325.108	3.07
325.562	3.06
326.015	3.05
326.468	3.03
326.921	3.02
327.374	3.02
327.827	3.01
328.28	3
328.733	2.99
329.186	2.99
329.639	2.98
330.092	2.99
330.545	3
330.997	2.99
331.45	2.99
331.903	2.99
332.355	2.98
332.808	2.97
333.26	2.97
333.713	2.97
334.165	2.97
334.617	2.97
335.069	2.97
335.522	2.97
335.974	2.96
336.426	2.96
336.878	2.96
337.33	2.95
337.782	2.96
338.234	2.97
338.686	2.97
339.137	2.98
339.589	2.96
340.041	2.96
340.493	2.94
340.944	2.93
341.396	2.92
341.847	2.92
342.299	2.9
342.75	2.89
343.201	2.87
343.653	2.86
344.104	2.84
344.555	2.83
345.006	2.82
345.457	2.82
345.908	2.82
346.359	2.82
346.81	2.82
347.261	2.82
347.712	2.82
348.163	2.82
348.613	2.81
349.064	2.8
349.515	2.8
349.965	2.79
350.416	2.78
350.866	2.79
351.317	2.79
351.767	2.78
352.217	2.78
352.668	2.78
353.118	2.77
353.568	2.78
354.018	2.8
354.468	2.81
354.918	2.81
355.368	2.83
355.818	2.82
356.268	2.82
356.718	2.82
357.168	2.83
357.617	2.83
358.067	2.84
358.517	2.85
358.966	2.85
359.416	2.87
359.865	2.87
360.315	2.87
360.764	2.89
361.213	2.91
361.663	2.92
362.112	2.95
362.561	2.97
363.01	2.99
363.459	3.01
363.908	3.03
364.357	3.05
364.806	3.08
365.255	3.12
365.703	3.15
366.152	3.18
366.601	3.22
367.05	3.26
367.498	3.3
367.947	3.34
368.395	3.39
368.844	3.44
369.292	3.48
369.74	3.54
370.189	3.6
370.637	3.66
371.085	3.73
371.533	3.78
371.981	3.85
372.429	3.91
372.877	3.99
373.325	4.05
373.773	4.13
374.221	4.2
374.669	4.27
375.116	4.34
375.564	4.41
376.012	4.49
376.459	4.58
376.907	4.66
377.354	4.74
377.801	4.83
378.249	4.91
378.696	5
379.143	5.09
379.591	5.18
380.038	5.28
380.485	5.37
380.932	5.46
381.379	5.53
381.826	5.62
382.273	5.69
382.72	5.76
383.166	5.84
383.613	5.91
384.06	6
384.506	6.06
384.953	6.13
385.4	6.2
385.846	6.26
386.292	6.34
386.739	6.4
387.185	6.48
387.631	6.54
388.078	6.6
388.524	6.64
388.97	6.68
389.416	6.73
389.862	6.77
390.308	6.81
390.754	6.85
391.2	6.88
391.645	6.92
392.091	6.95
392.537	6.99
392.983	7.03
393.428	7.07
393.874	7.11
394.319	7.13
394.765	7.15
395.21	7.17
395.655	7.19
396.101	7.19
396.546	7.2
396.991	7.2
397.436	7.17
397.881	7.16
398.326	7.16
398.771	7.17
399.216	7.17
399.661	7.16
400.106	7.16
400.551	7.12
400.995	7.1
401.44	7.07
401.885	7.04
402.329	7.04
402.774	7.01
403.218	6.97
403.663	6.93
404.107	6.91
404.551	6.88
404.995	6.86
405.44	6.83
405.884	6.81
406.328	6.79
406.772	6.77
407.216	6.76
407.66	6.75
408.104	6.73
408.547	6.7
408.991	6.67
409.435	6.65
409.879	6.63
410.322	6.63
410.766	6.61
411.209	6.6
411.653	6.57
412.096	6.54
412.54	6.51
412.983	6.49
413.426	6.5
413.869	6.47
414.312	6.47
414.756	6.47
415.199	6.45
415.642	6.44
416.085	6.43
416.527	6.45
416.97	6.44
417.413	6.41
417.856	6.39
418.298	6.36
418.741	6.36
419.184	6.34
419.626	6.31
420.069	6.29
420.511	6.27
420.953	6.26
421.396	6.24
421.838	6.24
422.28	6.26
422.722	6.25
423.164	6.25
423.606	6.25
424.048	6.22
424.49	6.21
424.932	6.19
425.374	6.18
425.816	6.15
426.258	6.13
426.699	6.08
427.141	6.05
427.582	6.03
428.024	6.02
428.465	6.01
428.907	6.01
429.348	6.01
429.789	6.02
430.231	6.01
430.672	6.02
431.113	6.02
431.554	6.04
431.995	6.07
432.436	6.08
432.877	6.06
433.318	6.04
433.759	6.05
434.2	6.05
434.64	6.05
435.081	6.05
435.522	6.06
435.962	6.07
436.403	6.08
436.843	6.07
437.284	6.08
437.724	6.12
438.164	6.14
438.604	6.16
439.045	6.17
439.485	6.19
439.925	6.21
440.365	6.2
440.805	6.2
441.245	6.21
441.685	6.26
442.125	6.27
442.564	6.31
443.004	6.32
443.444	6.34
443.883	6.37
444.323	6.39
444.762	6.43
445.202	6.5
445.641	6.54
446.081	6.58
446.52	6.59
446.959	6.63
447.398	6.68
447.837	6.74
448.276	6.77
448.716	6.81
449.154	6.87
449.593	6.89
450.032	6.91
450.471	6.96
450.91	6.98
451.349	7.02
451.787	7.05
452.226	7.05
452.664	7.05
453.103	7.07
453.541	7.09
453.98	7.08
454.418	7.09
454.856	7.1
455.295	7.07
455.733	7.07
456.171	7.08
456.609	7.08
457.047	7.1
457.485	7.11
457.923	7.12
458.361	7.11
458.798	7.14
459.236	7.15
459.674	7.15
460.111	7.18
460.549	7.18
460.987	7.2
461.424	7.19
461.862	7.19
462.299	7.21
462.736	7.2
463.173	7.2
463.611	7.19
464.048	7.21
464.485	7.22
464.922	7.2
465.359	7.22
465.796	7.21
466.233	7.22
466.67	7.22
467.106	7.22
467.543	7.23
467.98	7.24
468.416	7.25
468.853	7.26
469.29	7.25
469.726	7.27
470.162	7.26
470.599	7.26
471.035	7.26
471.471	7.24
471.907	7.23
472.344	7.24
472.78	7.24
473.216	7.24
473.652	7.21
474.088	7.23
474.523	7.23
474.959	7.22
475.395	7.21
475.831	7.22
476.266	7.25
476.702	7.26
477.138	7.27
477.573	7.26
478.008	7.25
478.444	7.27
478.879	7.27
479.314	7.26
479.75	7.27
480.185	7.27
480.62	7.27
481.055	7.27
481.49	7.27
481.925	7.28
482.36	7.29
482.795	7.3
483.229	7.31
483.664	7.33
484.099	7.34
484.534	7.37
484.968	7.4
485.403	7.42
485.837	7.46
486.271	7.5
486.706	7.52
487.14	7.57
487.574	7.62
488.009	7.69
488.443	7.74
488.877	7.81
489.311	7.87
489.745	7.94
490.179	8.01
490.613	8.08
491.046	8.16
491.48	8.25
491.914	8.33
492.348	8.42
492.781	8.51
493.215	8.59
493.648	8.69
494.082	8.8
494.515	8.89
494.948	9
495.382	9.12
495.815	9.23
496.248	9.36
496.681	9.48
497.114	9.62
497.547	9.76
497.98	9.92
498.413	10.06
498.846	10.23
499.279	10.41
499.711	10.57
500.144	10.74
500.577	10.93
501.009	11.11
501.442	11.33
501.874	11.53
502.306	11.74
502.739	11.95
503.171	12.2
503.603	12.45
504.036	12.7
504.468	12.96
504.9	13.23
505.332	13.51
505.764	13.8
506.196	14.09
506.627	14.4
507.059	14.7
507.491	15
507.923	15.32
508.354	15.65
508.786	15.97
509.217	16.3
509.649	16.66
510.08	17.01
510.512	17.36
510.943	17.71
511.374	18.07
511.805	18.46
512.237	18.84
512.668	19.2
513.099	19.59
513.53	19.97
513.961	20.35
514.391	20.72
514.822	21.1
515.253	21.48
515.684	21.85
516.114	22.25
516.545	22.63
516.975	23.03
517.406	23.43
517.836	23.8
518.267	24.18
518.697	24.58
519.127	24.94
519.558	25.33
519.988	25.7
520.418	26.05
520.848	26.41
521.278	26.76
521.708	27.19
522.138	27.5
522.567	27.79
522.997	28.09
523.427	28.38
523.857	28.68
524.286	28.95
524.716	29.22
525.145	29.48
525.575	29.73
526.004	29.97
526.433	30.1
526.863	30.35
527.292	30.58
527.721	30.81
528.15	31
528.579	31.22
529.008	31.43
529.437	31.62
529.866	31.78
530.295	31.94
530.724	32.13
531.152	32.29
531.581	32.44
532.01	32.57
532.438	32.72
532.867	32.87
533.295	32.97
533.723	33.08
534.152	33.21
534.58	33.32
535.008	33.39
535.436	33.46
535.865	33.53
536.293	33.62
536.721	33.7
537.149	33.77
537.576	33.83
538.004	33.88
538.432	33.92
538.86	33.96
539.287	34.04
539.715	34.08
540.143	34.12
540.57	34.16
540.998	34.19
541.425	34.23
541.852	34.26
542.28	34.27
542.707	34.32
543.134	34.35
543.561	34.35
543.988	34.36
544.415	34.39
544.842	34.42
545.269	34.47
545.696	34.49
546.123	34.52
546.549	34.56
546.976	34.6
547.403	34.58
547.829	34.61
548.256	34.65
548.682	34.67
549.108	34.69
549.535	34.71
549.961	34.72
550.387	34.71
550.813	34.7
551.24	34.67
551.666	34.67
552.092	34.69
552.518	34.68
552.943	34.67
553.369	34.66
553.795	34.64
554.221	34.63
554.646	34.59
555.072	34.56
555.498	34.56
555.923	34.51
556.349	34.45
556.774	34.38
557.199	34.32
557.625	34.26
558.05	34.15
558.475	34.06
558.9	33.96
559.325	33.88
559.75	33.78
560.175	33.67
560.6	33.57
561.025	33.47
561.449	33.36
561.874	33.24
562.299	33.1
562.723	33
563.148	32.87
563.572	32.77
563.997	32.62
564.421	32.48
564.846	32.33
565.27	32.18
565.694	32.03
566.118	31.88
566.542	31.74
566.966	31.6
567.39	31.43
567.814	31.27
568.238	31.06
568.662	30.9
569.086	30.75
569.509	30.59
569.933	30.42
570.357	30.25
570.78	30.09
571.204	29.9
571.627	29.73
572.05	29.58
572.474	29.43
572.897	29.28
573.32	29.13
573.743	28.96
574.166	28.8
574.589	28.64
575.012	28.52
575.435	28.37
575.858	28.24
576.281	28.1
576.704	27.96
577.126	27.83
577.549	27.72
577.972	27.61
578.394	27.47
578.817	27.36
579.239	27.27
579.661	27.16
580.084	27.06
580.506	26.95
580.928	26.86
581.35	26.78
581.772	26.68
582.194	26.6
582.616	26.51
583.038	26.43
583.46	26.35
583.882	26.25
584.303	26.15
584.725	26.06
585.147	25.97
585.568	25.91
585.99	25.81
586.411	25.71
586.833	25.62
587.254	25.53
587.675	25.46
588.096	25.38
588.518	25.3
588.939	25.25
589.36	25.19
589.781	25.12
590.202	25.04
590.623	24.95
591.043	24.91
591.464	24.86
591.885	24.81
592.305	24.76
592.726	24.68
593.147	24.64
593.567	24.58
593.987	24.53
594.408	24.46
594.828	24.4
595.248	24.38
595.669	24.35
596.089	24.3
596.509	24.25
596.929	24.21
597.349	24.18
597.769	24.13
598.189	24.09
598.608	24.04
599.028	24
599.448	23.98
599.867	23.93
600.287	23.87
600.706	23.82
601.126	23.77
601.545	23.72
601.965	23.66
602.384	23.6
602.803	23.54
603.222	23.47
603.641	23.41
604.061	23.33
604.48	23.26
604.898	23.19
605.317	23.11
605.736	23.04
606.155	22.96
606.574	22.88
606.992	22.8
607.411	22.72
607.829	22.61
608.248	22.55
608.666	22.45
609.085	22.38
609.503	22.27
609.921	22.2
610.339	22.13
610.758	22.05
611.176	21.96
611.594	21.86
612.012	21.76
612.43	21.72
612.847	21.63
613.265	21.56
613.683	21.47
614.101	21.39
614.518	21.28
614.936	21.19
615.353	21.1
615.771	21.03
616.188	20.96
616.606	20.89
617.023	20.81
617.44	20.73
617.857	20.65
618.274	20.57
618.691	20.52
619.108	20.48
619.525	20.42
619.942	20.37
620.359	20.35
620.776	20.31
621.192	20.27
621.609	20.25
622.026	20.22
622.442	20.19
622.859	20.17
623.275	20.16
623.691	20.13
624.108	20.14
624.524	20.11
624.94	20.08
625.356	20.05
625.772	20.06
626.188	20.05
626.604	20.01
627.02	20.02
627.436	20
627.852	19.96
628.268	19.94
628.683	19.89
629.099	19.88
629.514	19.84
629.93	19.81
630.345	19.75
630.761	19.69
631.176	19.65
631.591	19.58
632.007	19.51
632.422	19.44
632.837	19.36
633.252	19.28
633.667	19.16
634.082	19.04
634.497	18.92
634.911	18.77
635.326	18.62
635.741	18.48
636.155	18.31
636.57	18.14
636.984	17.94
637.399	17.74
637.813	17.54
638.228	17.35
638.642	17.16
639.056	16.95
639.47	16.75
639.884	16.55
640.298	16.33
640.712	16.12
641.126	15.9
641.54	15.7
641.954	15.5
642.368	15.3
642.781	15.1
643.195	14.9
643.609	14.7
644.022	14.51
644.436	14.33
644.849	14.16
645.262	14
645.676	13.84
646.089	13.7
646.502	13.55
646.915	13.42
647.328	13.3
647.741	13.18
648.154	13.09
648.567	13.01
648.98	12.96
649.393	12.89
649.805	12.82
650.218	12.77
650.631	12.72
651.043	12.68
651.456	12.64
651.868	12.59
652.28	12.56
652.693	12.5
653.105	12.45
653.517	12.38
653.929	12.33
654.341	12.29
654.753	12.2
655.165	12.12
655.577	12.04
655.989	11.94
656.401	11.84
656.813	11.73
657.224	11.63
657.636	11.53
658.047	11.4
658.459	11.27
658.87	11.14
659.282	11.03
659.693	10.91
660.104	10.78
660.515	10.65
660.926	10.54
661.338	10.41
661.749	10.27
662.159	10.14
662.57	10.03
662.981	9.91
663.392	9.78
663.803	9.67
664.213	9.57
664.624	9.48
665.035	9.37
665.445	9.28
665.855	9.22
666.266	9.15
666.676	9.07
667.086	9
667.497	8.94
667.907	8.9
668.317	8.85
668.727	8.81
669.137	8.78
669.547	8.77
669.956	8.75
670.366	8.73
670.776	8.72
671.186	8.73
671.595	8.75
672.005	8.76
672.414	8.78
672.824	8.8
673.233	8.81
673.642	8.82
674.052	8.85
674.461	8.87
674.87	8.93
675.279	8.98
675.688	9.02
676.097	9.07
676.506	9.13
676.915	9.2
677.323	9.29
677.732	9.39
678.141	9.49
678.549	9.61
678.958	9.74
679.366	9.87
679.775	9.99
680.183	10.16
680.592	10.34
681	10.53
681.408	10.74
681.816	10.95
682.224	11.19
682.632	11.47
683.04	11.75
683.448	12.05
683.856	12.4
684.264	12.77
684.671	13.16
685.079	13.58
685.487	14.03
685.894	14.51
686.302	15.04
686.709	15.59
687.116	16.15
687.524	16.76
687.931	17.38
688.338	18.03
688.745	18.72
689.152	19.43
689.559	20.13
689.966	20.89
690.373	21.66
690.78	22.42
691.187	23.19
691.593	23.98
692	24.77
692.407	25.56
692.813	26.34
693.22	27.1
693.626	27.85
694.032	28.62
694.439	29.38
694.845	30.12
695.251	30.84
695.657	31.55
696.063	32.27
696.469	32.97
696.875	33.65
697.281	34.31
697.687	35
698.093	35.66
698.498	36.31
698.904	36.92
699.31	37.54
699.715	38.17
700.12	38.74
700.526	39.31
700.931	39.85
701.337	40.42
701.742	40.95
702.147	41.45
702.552	41.95
702.957	42.42
703.362	42.91
703.767	43.37
704.172	43.79
704.577	44.23
704.981	44.62
705.386	45.06
705.791	45.49
706.195	45.9
706.6	46.28
707.004	46.65
707.408	47.02
707.813	47.37
708.217	47.69
708.621	48.04
709.025	48.4
709.43	48.74
709.834	49.05
710.237	49.32
710.641	49.63
711.045	49.95
711.449	50.24
711.853	50.54
712.256	50.82
712.66	51.11
713.064	51.35
713.467	51.6
713.87	51.84
714.274	52.11
714.677	52.35
715.08	52.56
715.484	52.78
715.887	53.02
716.29	53.25
716.693	53.45
717.096	53.66
717.499	53.9
717.901	54.12
718.304	54.34
718.707	54.51
719.109	54.72
719.512	54.91
719.915	55.09
720.317	55.27
720.719	55.44
721.122	55.6
721.524	55.76
721.926	55.93
722.328	56.06
722.731	56.19
723.133	56.33
723.535	56.48
723.937	56.63
724.338	56.75
724.74	56.89
725.142	56.99
725.544	57.11
725.945	57.24
726.347	57.34
726.748	57.42
727.15	57.5
727.551	57.61
727.952	57.65
728.354	57.78
728.755	57.86
729.156	57.92
729.557	57.99
729.958	58.09
730.359	58.15
730.76	58.19
731.161	58.27
731.562	58.35
731.962	58.41
732.363	58.45
732.763	58.51
733.164	58.55
733.564	58.59
733.965	58.64
734.365	58.67
734.766	58.72
735.166	58.76
735.566	58.78
735.966	58.81
736.366	58.83
736.766	58.87
737.166	58.89
737.566	58.92
737.966	58.96
738.365	59.01
738.765	59.04
739.165	59
739.564	59.03
739.964	59.05
740.363	59.1
740.763	59.12
741.162	59.14
741.561	59.16
741.96	59.2
742.36	59.22
742.759	59.21
743.158	59.2
743.557	59.26
743.955	59.27
744.354	59.33
744.753	59.36
745.152	59.4
745.55	59.42
745.949	59.43
746.348	59.47
746.746	59.47
747.144	59.55
747.543	59.58
747.941	59.64
748.339	59.68
748.737	59.68
749.136	59.67
749.534	59.66
749.932	59.7
750.33	59.72
750.727	59.69
751.125	59.69
751.523	59.64
751.921	59.67
752.318	59.66
752.716	59.64
753.113	59.66
753.511	59.64
753.908	59.63
754.305	59.6
754.703	59.56
755.1	59.56
755.497	59.59
755.894	59.59
756.291	59.55
756.688	59.54
757.085	59.52
757.482	59.47
757.878	59.48
758.275	59.5
758.672	59.54
759.068	59.56
759.465	59.56
759.861	59.54
760.258	59.54
760.654	59.55
761.05	59.55
761.447	59.54
761.843	59.52
762.239	59.51
762.635	59.47
763.031	59.46
763.427	59.46
763.822	59.39
764.218	59.37
764.614	59.35
765.01	59.34
765.405	59.28
765.801	59.25
766.196	59.28
766.592	59.3
766.987	59.3
767.382	59.26
767.778	59.21
768.173	59.26
768.568	59.25
768.963	59.28
769.358	59.26
769.753	59.31
770.148	59.34
770.542	59.3
770.937	59.24
771.332	59.25
771.726	59.21
772.121	59.21
772.515	59.16
772.91	59.16
773.304	59.12
773.699	59.11
774.093	59.06
774.487	59.06
774.881	59.06
775.275	59.04
775.669	59.06
776.063	59.05
776.457	59.03
776.851	59.02
777.245	59
777.638	59.02
778.032	59.01
778.425	59.02
778.819	58.99
779.212	58.98
779.606	59
779.999	58.95
780.392	58.99
780.786	59.02
781.179	59.04
781.572	59.04
781.965	59.05
782.358	59.03
782.751	59.03
783.143	59.05
783.536	59.08
783.929	59.09
784.322	59.12
784.714	59.1
785.107	59.12
785.499	59.12
785.891	59.13
786.284	59.1
786.676	59.15
787.068	59.15
787.46	59.1
787.852	59.11
788.245	59.1
788.636	59.09
789.028	59.11
789.42	59.07
789.812	59.09
790.204	59.06
790.595	59.14
790.987	59.13
791.378	59.15
791.77	59.25
792.161	59.23
792.553	59.24
792.944	59.3
793.335	59.31
793.726	59.29
794.117	59.28
794.508	59.28
794.899	59.21
795.29	59.2
795.681	59.17
796.072	59.1
796.463	59.09
796.853	59.06
797.244	59.04
797.634	58.99
798.025	59.04
798.415	59.07
798.806	59.14
799.196	59.17
799.586	59.18
799.976	59.21
800.366	59.24
800.756	59.25
801.146	59.25
801.536	59.22
801.926	59.25
802.316	59.23
802.706	59.23
803.095	59.23
803.485	59.21
803.874	59.2
804.264	59.25
804.653	59.23
805.043	59.21
805.432	59.21
805.821	59.23
806.21	59.27
806.599	59.34
806.988	59.33
807.377	59.31
807.766	59.33
808.155	59.34
808.544	59.26
808.933	59.27
809.321	59.36
809.71	59.41
810.098	59.42
810.487	59.41
810.875	59.38
811.264	59.4
811.652	59.44
812.04	59.48
812.428	59.52
812.816	59.57
813.204	59.58
813.592	59.57
813.98	59.54
814.368	59.53
814.756	59.52
815.144	59.54
815.531	59.52
815.919	59.49
816.306	59.47
816.694	59.49
817.081	59.47
817.469	59.5
817.856	59.51
818.243	59.52
818.63	59.59
819.017	59.63
819.404	59.62
819.791	59.65
820.178	59.69
820.565	59.69
820.952	59.65
821.339	59.7
821.725	59.73
822.112	59.76
822.498	59.79
822.885	59.78
823.271	59.76
823.657	59.78
824.044	59.79
824.43	59.78
824.816	59.8
825.202	59.83
825.588	59.83
825.974	59.81
826.36	59.74
826.746	59.74
827.132	59.7
827.517	59.73
827.903	59.73
828.289	59.73
828.674	59.72
829.06	59.74
829.445	59.77
829.83	59.75
830.216	59.76
830.601	59.79
830.986	59.81
831.371	59.88
831.756	59.87
832.141	59.93
832.526	59.92
832.911	60
833.295	60
833.68	59.99
834.065	60.02
834.449	60.02
834.834	60.03
835.218	60
835.603	59.97
835.987	59.95
836.371	59.9
836.755	59.9
837.139	59.86
837.524	59.86
837.908	59.86
838.291	59.86
838.675	59.85
839.059	59.84
839.443	59.86
839.827	59.85
840.21	59.91
840.594	59.93
840.977	59.92
841.361	59.92
841.744	59.96
842.127	59.94
842.511	59.93
842.894	59.94
843.277	59.96
843.66	59.95
844.043	59.97
844.426	59.94
844.809	59.93
845.191	59.91
845.574	59.89
845.957	59.82
846.339	59.8
846.722	59.77
847.104	59.77
847.487	59.79
847.869	59.81
848.252	59.8
848.634	59.79
849.016	59.78
849.398	59.78
849.78	59.77
850.162	59.81
850.544	59.85
850.926	59.86
851.307	59.87
851.689	59.83
852.071	59.81
852.452	59.8
852.834	59.81
853.215	59.84
853.597	59.87
853.978	59.89
854.359	59.87
854.741	59.88
855.122	59.9
855.503	59.9
855.884	59.89
856.265	59.88
856.646	59.88
857.026	59.88
857.407	59.84
857.788	59.84
858.169	59.82
858.549	59.85
858.93	59.83
859.31	59.81
859.69	59.79
860.071	59.82
860.451	59.83
860.831	59.83
861.211	59.8
861.591	59.8
861.971	59.76
862.351	59.75
862.731	59.71
863.111	59.72
863.491	59.72
863.87	59.71
864.25	59.74
864.629	59.72
865.009	59.69
865.388	59.69
865.768	59.72
866.147	59.76
866.526	59.78
866.905	59.79
867.284	59.81
867.663	59.84
868.042	59.83
868.421	59.8
868.8	59.82
869.179	59.86
869.558	59.85
869.936	59.83
870.315	59.84
870.693	59.86
871.072	59.85
871.45	59.78
871.828	59.79
872.207	59.83
872.585	59.83
872.963	59.82
873.341	59.81
873.719	59.83
874.097	59.81
874.475	59.81
874.853	59.78
875.23	59.78
875.608	59.82
875.986	59.82
876.363	59.77
876.741	59.76
877.118	59.74
877.495	59.71
877.873	59.72
878.25	59.7
878.627	59.69
879.004	59.72
879.381	59.7
879.758	59.67
880.135	59.65
880.512	59.66
880.889	59.67
881.265	59.71
881.642	59.73
882.019	59.75
882.395	59.77
882.772	59.78
883.148	59.73
883.524	59.76
883.901	59.76
884.277	59.77
884.653	59.81
885.029	59.84
885.405	59.86
885.781	59.81
886.157	59.81
886.532	59.8
886.908	59.81
887.284	59.86
887.659	59.86
888.035	59.9
888.411	59.86
888.786	59.81
889.161	59.79
889.537	59.78
889.912	59.82
890.287	59.79
890.662	59.84
891.037	59.82
891.412	59.78
891.787	59.8
892.162	59.76
892.536	59.82
892.911	59.83
893.286	59.82
893.66	59.78
894.035	59.79
894.409	59.79
894.784	59.77
895.158	59.75
895.532	59.74
895.906	59.69
896.281	59.69
896.655	59.66
897.029	59.64
897.402	59.65
897.776	59.68
898.15	59.66
898.524	59.65
898.898	59.6
899.271	59.64
899.645	59.63
900.018	59.61
900.392	59.61
900.765	59.61
901.138	59.6
901.511	59.6
901.884	59.58
902.258	59.53
902.631	59.55
903.003	59.55
903.376	59.5
903.749	59.53
904.122	59.52
904.495	59.54
904.867	59.52
905.24	59.48
905.612	59.41
905.985	59.39
906.357	59.37
906.729	59.33
907.102	59.29
907.474	59.3
907.846	59.25
908.218	59.23
908.59	59.15
908.962	59.16
909.334	59.15
909.705	59.15
910.077	59.11
910.449	59.15
910.82	59.13
911.192	59.12
911.563	59.06
911.935	59.01
912.306	59.03
912.677	59.04
913.048	58.98
913.419	58.98
913.79	58.96
914.161	58.95
914.532	58.91
914.903	58.92
915.274	58.92
915.645	58.95
916.015	58.96
916.386	58.91
916.756	58.86
917.127	58.88
917.497	58.92
917.868	58.93
918.238	58.95
918.608	58.97
918.978	58.93
919.348	58.9
919.718	58.85
920.088	58.86
920.458	58.95
920.828	59.01
921.198	59
921.567	58.93
921.937	58.94
922.306	58.91
922.676	58.87
923.045	58.85
923.415	58.88
923.784	58.93
924.153	58.87
924.522	58.78
924.891	58.73
925.26	58.73
925.629	58.73
925.998	58.72
926.367	58.69
926.736	58.65
927.104	58.66
927.473	58.7
927.842	58.66
928.21	58.7
928.578	58.66
928.947	58.65
929.315	58.62
929.683	58.58
930.051	58.53
930.42	58.51
930.788	58.56
931.156	58.5
931.523	58.45
931.891	58.42
932.259	58.35
932.627	58.33
932.994	58.32
933.362	58.29
933.729	58.23
934.097	58.21
934.464	58.19
934.831	58.1
935.199	58.13
935.566	57.99
935.933	57.95
936.3	57.88
936.667	57.84
937.034	57.71
937.401	57.67
937.767	57.65
938.134	57.62
938.501	57.57
938.867	57.59
939.234	57.49
939.6	57.48
939.967	57.41
940.333	57.5
940.699	57.57
941.065	57.66
941.431	57.7
941.798	57.73
942.163	57.78
942.529	57.75
942.895	57.7
943.261	57.73
943.627	57.8
943.992	57.86
944.358	57.83
944.723	57.78
945.089	57.75
945.454	57.77
945.82	57.78
946.185	57.83
946.55	57.91
946.915	57.94
947.28	57.93
947.645	57.98
948.01	58.01
948.375	58.06
948.74	57.96
949.104	58.07
949.469	57.96
949.834	57.95
950.198	57.77
950.562	57.72
950.927	57.68
951.291	57.67
951.655	57.62
952.02	57.63
952.384	57.6
952.748	57.58
953.112	57.52
953.476	57.57
953.839	57.52
954.203	57.54
954.567	57.54
954.931	57.54
955.294	57.53
955.658	57.49
956.021	57.42
956.385	57.43
956.748	57.5
957.111	57.47
957.474	57.41
957.837	57.41
958.2	57.43
958.563	57.35
958.926	57.31
959.289	57.33
959.652	57.32
960.015	57.3
960.377	57.28
960.74	57.2
961.102	57.18
961.465	57.17
961.827	57.12
962.189	57.11
962.552	57.1
962.914	57.09
963.276	57.11
963.638	57.05
964	57.04
964.362	57.06
964.724	57.08
965.085	57.04
965.447	56.99
965.809	56.95
966.17	56.87
966.532	56.92
966.893	56.86
967.255	56.81
967.616	56.9
967.977	56.9
968.338	56.85
968.699	56.82
969.061	56.79
969.421	56.84
969.782	56.86
970.143	56.93
970.504	56.82
970.865	56.76
971.225	56.69
971.586	56.63
971.946	56.59
972.307	56.5
972.667	56.49
973.027	56.54
973.388	56.45
973.748	56.49
974.108	56.5
974.468	56.59
974.828	56.68
975.188	56.71
975.548	56.68
975.907	56.69
976.267	56.73
976.627	56.74
976.986	56.69
977.346	56.63
977.705	56.55
978.064	56.54
978.424	56.56
978.783	56.49
979.142	56.44
979.501	56.41
979.86	56.34
980.219	56.22
980.578	56.19
980.937	56.26
981.296	56.39
981.654	56.43
982.013	56.39
982.371	56.31
982.73	56.3
983.088	56.24
983.447	56.24
983.805	56.25
984.163	56.38
984.521	56.28
984.879	56.28
985.237	56.26
985.595	56.27
985.953	56.26
986.311	56.33
986.669	56.35
987.026	56.46
987.384	56.46
987.741	56.48
988.099	56.43
988.456	56.47
988.814	56.33
989.171	56.25
989.528	56.11
989.885	56.05
990.242	55.98
990.599	55.94
990.956	55.89
991.313	55.92
991.67	55.91
992.027	56
992.383	56.19
992.74	56.19
993.096	56.19
993.453	56.1
993.809	56.18
994.165	56.13
994.522	56.18
994.878	56.12
995.234	55.97
995.59	55.77
995.946	55.73
996.302	55.62
996.658	55.53
997.013	55.51
997.369	55.6
997.725	55.45
998.08	55.44
998.436	55.48
998.791	55.41
999.147	55.5
999.502	55.6
999.857	55.47
1000.212	55.3
1000.567	55.31
1000.922	55.32
1001.277	55.27
1001.632	55.29
1001.987	55.18
1002.342	55.13
1002.696	55.38
1003.051	55.37
1003.406	55.31
1003.76	55.16
1004.114	55.25
1004.469	55.19
1004.823	55.2
1005.177	55.39
1005.531	55.29
1005.885	55.46
1006.239	55.32
1006.593	55.03
1006.947	54.87
1007.301	54.93
1007.655	54.93
1008.008	54.7
1008.362	54.79
1008.715	54.62
1009.069	54.32
1009.422	54.36
1009.776	54.09
1010.129	53.97
1010.482	54.03
1010.835	54.34
1011.188	54.12
1011.541	54.1
1011.894	54.16
1012.247	54.15
1012.6	54.01
1012.952	54.1
1013.305	53.96
1013.657	54.12
1014.01	54.3
1014.362	54.4
1014.715	53.96
1015.067	54.19
1015.419	54.18
1015.771	54.32
1016.123	54.07
1016.475	54.31
1016.827	54.55
1017.179	54.78
1017.531	54.5
1017.883	54.41
1018.234	54.37
1018.586	54.27
1018.938	54.01
1019.289	53.89
1019.64	53.72
1019.992	53.81
1020.343	53.46
1020.694	52.78
1021.045	52.52
1021.396	52.64
1021.747	52.6
1022.098	52.54
1022.449	52.51
1022.8	52.33
1023.151	52.56
1023.501	52.52
1023.852	52.72
1024.202	52.94
1024.553	53.06
1024.903	53.13
1025.253	53.19
1025.604	53.49
1025.954	53.09
1026.304	53.48
1026.654	53.82
1027.004	53.63
1027.354	53.49
1027.703	52.9
1028.053	52.49
1028.403	52.76
1028.753	52.82
1029.102	52.65
1029.452	52.15
1029.801	52.22
1030.15	51.97
1030.499	51.69
897.758	645.87
901.051	654.47
904.343	664.58
907.636	656.86
910.928	644.63
914.22	653.28
917.511	644.26
920.803	620.25
924.094	591.3
927.384	593.53
930.675	577
933.965	570.41
937.255	570.56
940.544	543.41
943.834	518.63
947.123	510.64
950.411	487.12
953.7	475.85
956.988	460.92
960.276	442.45
963.563	433.04
966.851	410.6
970.138	405.57
973.424	378.26
976.711	372.4
979.997	360.72
983.283	352.95
986.568	340.55
989.853	330.35
993.138	319.12
996.423	313.61
999.708	306.55
1002.992	307.04
1006.275	295.98
1009.559	293.87
1012.842	286.29
1016.125	275.87
1019.408	270.84
1022.69	268.39
1025.972	267.76
1029.254	259.89
1032.536	255.95
1035.817	246.03
1039.098	242.61
1042.379	239.6
1045.659	234.9
1048.939	232.78
1052.219	228.72
1055.498	224.71
1058.778	221.16
1062.057	216.43
1065.335	216.34
1068.614	212.12
1071.892	211.37
1075.17	206.69
1078.447	202.36
1081.724	202.78
1085.001	198.15
1088.278	198.3
1091.554	196.72
1094.83	195.38
1098.106	192.25
1101.382	190.59
1104.657	189.7
1107.932	188.06
1111.206	187.88
1114.481	185.32
1117.755	183.3
1121.029	183.03
1124.302	180.26
1127.575	177.4
1130.848	176.39
1134.121	174.17
1137.393	173.98
1140.665	172.67
1143.937	171.1
1147.208	169.22
1150.48	168.16
1153.75	166.94
1157.021	165.45
1160.291	165.14
1163.561	165.92
1166.831	163.48
1170.101	163.52
1173.37	161.8
1176.639	160.71
1179.907	160.51
1183.176	159.45
1186.444	160.3
1189.711	158.85
1192.979	160.3
1196.246	160.25
1199.513	159.22
1202.78	160.23
1206.046	160.3
1209.312	160.87
1212.578	162.15
1215.843	164.38
1219.108	166.14
1222.373	168.13
1225.638	171.08
1228.902	174.05
1232.166	179.48
1235.43	181.93
1238.693	186.94
1241.956	190.45
1245.219	195.37
1248.482	196.6
1251.744	195.77
1255.006	195.96
1258.268	191.67
1261.529	190.12
1264.79	185.58
1268.051	180.49
1271.312	179.53
1274.572	175.75
1277.832	172.07
1281.092	170.42
1284.351	166.96
1287.61	167.07
1290.869	164.89
1294.128	164.2
1297.386	164.43
1300.644	163.62
1303.902	163.74
1307.159	162.12
1310.416	162.72
1313.673	164.57
1316.93	165.06
1320.186	167.82
1323.442	169.88
1326.697	173.68
1329.953	175.7
1333.208	180.66
1336.463	187.81
1339.717	190.89
1342.972	200.3
1346.226	206.02
1349.479	207.83
1352.733	217.73
1355.986	221.83
1359.238	226.2
1362.491	229.97
1365.743	237.86
1368.995	238.16
1372.247	238.93
1375.498	238.35
1378.749	246.27
1382	246
1385.251	244.66
1388.501	244.04
1391.751	247.9
1395	246.47
1398.25	247.35
1401.499	246.72
1404.748	246.73
1407.996	240.54
1411.244	241.52
1414.492	236.92
1417.74	230.83
1420.987	225.93
1424.234	220.84
1427.481	213.55
1430.728	207.78
1433.974	200.89
1437.22	192.92
1440.465	186.84
1443.711	181.29
1446.956	176.24
1450.201	169.62
1453.445	162.19
1456.689	158.43
1459.933	153.24
1463.177	146.3
1466.42	142.56
1469.663	138.88
1472.906	135.71
1476.148	131.53
1479.391	128.83
1482.633	126.08
1485.874	124.39
1489.115	123.4
1492.356	120.02
1495.597	118.59
1498.838	117.53
1502.078	117.12
1505.318	116.17
1508.557	115.79
1511.797	114.91
1515.036	114.74
1518.274	114.05
1521.513	112.64
1524.751	111.75
1527.989	113.56
1531.227	113.09
1534.464	113.34
1537.701	112.18
1540.938	111.83
1544.174	111.37
1547.41	111.69
1550.646	111
1553.882	111.19
1557.117	110.47
1560.352	110.63
1563.587	108.98
1566.821	108.92
1570.055	109.03
1573.289	108.78
1576.523	108.68
1579.756	108.18
1582.989	107.85
1586.222	108.06
1589.454	107.3
1592.686	107.67
1595.918	107.22
1599.15	107.53
1602.381	107.58
1605.612	107.04
1608.843	107.12
1612.073	107.84
1615.303	107.98
1618.533	107.31
1621.762	108.07
1624.992	108.3
1628.221	107.86
1631.449	108.88
1634.678	107.94
1637.906	107.84
1641.134	108.19
1644.361	108.47
1647.588	108.23
1650.815	108.38
1654.042	109.32
1657.269	108.23
1660.495	109.31
1663.72	109.06
1666.946	108.61
1670.171	109.74
1673.396	110.44
1676.621	110.33
1679.845	110.28
1683.069	109.77
1686.293	109.68
1689.517	109.56
1692.74	109.7
1695.963	109.67
1699.185	110.52
1702.408	111.07
1705.63	111.3
1708.852	111.62
1712.073	111.08
1715.294	111.24
1718.515	112.23
1721.736	112.73
1724.956	112.8
1728.176	112.86
1731.396	113.63
1734.616	113.27
1737.835	113.32
1741.054	112.71
1744.272	112.42
1747.491	113.21
1750.709	113.66
1753.927	113.55
1757.144	113.61
1760.361	113.78
1763.578	114.41
1766.795	114.59
1770.011	115.22
1773.227	115.89
1776.443	117.2
1779.658	117.68
1782.874	117.76
1786.089	118.46
1789.303	118.71
1792.518	120.11
1795.732	120.79
1798.945	121.97
1802.159	121.92
1805.372	123.3
1808.585	123.79
1811.797	124.47
1815.01	125.37
1818.222	126.8
1821.434	127.44
1824.645	128.4
1827.856	129.53
1831.067	130.48
1834.278	131.06
1837.488	132.69
1840.698	133.22
1843.908	133.27
1847.117	135.09
1850.326	135.9
1853.535	135.57
1856.744	136.68
1859.952	138.6
1863.16	138.63
1866.368	138.37
1869.575	139.38
1872.782	138.46
1875.989	136.86
1879.196	137.15
1882.402	135.37
1885.608	136.21
1888.814	136.72
1892.019	137.39
1895.224	134.69
1898.429	134.74
1901.634	135.85
1904.838	135.61
1908.042	135.12
1911.246	136.7
1914.449	136.68
1917.652	137.6
1920.855	136.99
1924.058	136.3
1927.26	135.31
1930.462	135.8
1933.664	136.76
1936.865	136.37
1940.066	135.46
1943.267	135.06
1946.467	136
1949.668	135.95
1952.868	136.16
1956.067	136.07
1959.267	137.17
1962.466	137.72
1965.665	139.67
1968.863	140.28
1972.061	140.07
1975.259	143.32
1978.457	144.85
1981.654	146.12
1984.852	147.61
1988.048	149.17
1991.245	151.8
1994.441	154.23
1997.637	157.45
2000.833	160.55
2004.028	162.08
2007.223	169.17
2010.418	172.76
2013.613	179.34
2016.807	183.78
2020.001	187.56
2023.194	192.69
2026.388	199.39
2029.581	208.91
2032.774	215.47
2035.966	221.93
2039.158	228.16
2042.35	229.17
2045.542	233.13
2048.733	245.44
2051.924	246.03
2055.115	250.04
2058.306	252.46
2061.496	256.35
2064.686	258.31
2067.875	257.68
2071.065	258.31
2074.254	259.67
2077.442	268.24
2080.631	270.65
2083.819	269.16
2087.007	274.28
2090.195	280.23
2093.382	280.7
2096.569	281.2
2099.756	285.63
2102.942	291.08
2106.128	298.78
2109.314	301.37
2112.5	301.15
2115.685	299.53
2118.87	299.37
2122.055	302.3
2125.239	307.25
2128.424	315.43
2131.608	312.16
2134.791	310.98
2137.974	312.48
2141.157	315.72
2144.34	317.49
2147.523	321.52
2150.705	329.66
2153.887	325.73
2157.068	330.55
2160.25	333.22
2163.431	331.99
2166.611	339.95
2169.792	346.36
2172.972	349.77
2176.152	349.18
2179.331	357.38
2182.511	359.01
2185.69	362.29
2188.868	380.34
2192.047	385.98
2195.225	389.83
2198.403	393.65
2201.58	388.69
2204.758	402.52
2207.935	406.25
2211.111	413.55
2214.288	414.49
2217.464	419.42
2220.64	421.7
2223.815	421.55
2226.991	416.59
2230.166	420.95
2233.34	437.06
2236.515	444.26
2239.689	439.7
2242.863	447.42
2246.036	442.26
2249.209	451.5
2252.382	451.75
2255.555	469.66
2258.727	470.5
2261.9	487.17
2265.071	493.07
2268.243	486.36
2271.414	506.12
2274.585	511.85
2277.756	515.29
2280.926	536.72
2284.096	538.89
2287.266	540.21
2290.436	526.65
2293.605	541.13
2296.774	560.91
2299.942	558.85
2303.111	574.36
2306.279	584.17
2309.447	589.46
2312.614	589.85
2315.781	605.57
2318.948	613.75
2322.115	626.77
2325.281	661.1
2328.447	657.89
2331.613	658.34
2334.779	672.2
2337.944	680.53
2341.109	694.31
2344.274	701.15
2347.438	719.66
2350.602	725.39
2353.766	768.96
2356.929	772.95
2360.092	784.34
2363.255	781.89
2366.418	792.76
2369.58	812.13
2372.742	809.75
2375.904	804.53
2379.066	826.86
2382.227	868.27
2385.388	870.19
2388.548	823.77
2391.709	815.3
2394.869	840.93
2398.029	848.2
2401.188	844.32
2404.347	862.26
2407.506	894.24
2410.665	864.95
2413.823	865.61
2416.981	868.88
2420.139	820.24
2423.296	888.22
2426.453	945.68
2429.61	905.32
2432.767	965.17
2435.923	1002.2
2439.079	963.61
2442.235	991.6
2445.391	1011.92
2448.546	1007.29
2451.701	1052.79
2454.855	1134.43
2458.009	1002.38
2461.163	1014.81
2464.317	1015.82
2467.471	994.59
2470.624	1023.72
2473.777	1020.97
2476.929	979.97
2480.082	1056.36
2483.234	1104.06
2486.385	1121.71
2489.537	1147.51
2492.688	1265.79
2495.839	1263.03
2498.989	1293.46
2502.14	1294.48
2505.29	1241.36
2508.439	1375.16
2511.589	1411.31
2514.738	1360.65
2517.887	1352.72
2521.035	1277.62
2524.183	1254.64
2527.331	1242.39
2530.479	1199.44
2533.627	1236.76
