Data from N_1_dec_va_2n_009_Splice17_20.txt Node
Date: Sat Feb 29 13:36:51 EST 2020
User: sa697716
Spectrometer: FLMS03696
Trigger mode: 0
Integration Time (sec): 3.180400E-1
Scans to average: 20
Electric dark correction enabled: true
Nonlinearity correction enabled: true
Boxcar width: 5
XAxis mode: Wavelengths
Number of Pixels in Spectrum: 2048
>>>>>Begin Spectral Data<<<<<
187.83	122.22
188.298	137.15
188.766	124.89
189.233	143.15
189.701	144.69
190.169	149.75
190.636	149.84
191.104	170.16
191.571	502.14
192.039	457.41
192.506	-816.7
192.974	-6602.11
193.441	442.77
193.908	27.97
194.375	169.11
194.842	275.1
195.31	178.72
195.777	163.3
196.244	45.54
196.711	24.61
197.177	24.32
197.644	22.32
198.111	20.73
198.578	20.59
199.045	21.11
199.511	21.26
199.978	21.54
200.445	21.43
200.911	21.91
201.378	22.25
201.844	23.32
202.31	23.43
202.777	23.74
203.243	24.33
203.709	24.71
204.176	24.4
204.642	24.86
205.108	24.46
205.574	25.18
206.04	24.9
206.506	24.83
206.972	24.32
207.438	24.23
207.903	24.53
208.369	24.27
208.835	24.36
209.301	24.26
209.766	23.95
210.232	23.87
210.697	23.43
211.163	23.53
211.628	23.36
212.094	23.33
212.559	23.16
213.024	22.93
213.49	22.32
213.955	21.95
214.42	21.56
214.885	21.08
215.35	20.84
215.815	20.23
216.28	19.58
216.745	18.97
217.21	18.37
217.675	17.71
218.14	16.96
218.604	16.56
219.069	16.15
219.534	15.77
219.998	15.44
220.463	15.13
220.927	14.85
221.392	14.55
221.856	14.31
222.32	14.06
222.785	13.87
223.249	13.73
223.713	13.55
224.177	13.34
224.642	13.2
225.106	13.03
225.57	12.86
226.034	12.73
226.497	12.58
226.961	12.42
227.425	12.26
227.889	12.13
228.353	11.97
228.816	11.84
229.28	11.66
229.744	11.52
230.207	11.39
230.671	11.25
231.134	11.13
231.597	10.99
232.061	10.89
232.524	10.78
232.987	10.66
233.45	10.56
233.914	10.46
234.377	10.38
234.84	10.26
235.303	10.16
235.766	10.06
236.229	9.95
236.691	9.86
237.154	9.76
237.617	9.67
238.08	9.57
238.542	9.48
239.005	9.38
239.468	9.28
239.93	9.21
240.393	9.13
240.855	9.04
241.317	8.97
241.78	8.91
242.242	8.83
242.704	8.75
243.166	8.67
243.629	8.59
244.091	8.52
244.553	8.47
245.015	8.41
245.477	8.32
245.939	8.26
246.4	8.19
246.862	8.13
247.324	8.08
247.786	8.03
248.247	7.96
248.709	7.91
249.17	7.85
249.632	7.77
250.093	7.7
250.555	7.67
251.016	7.62
251.477	7.57
251.939	7.51
252.4	7.46
252.861	7.42
253.322	7.39
253.783	7.35
254.244	7.31
254.705	7.29
255.166	7.28
255.627	7.24
256.088	7.2
256.549	7.17
257.009	7.15
257.47	7.11
257.931	7.07
258.391	7.02
258.852	6.98
259.312	6.95
259.773	6.91
260.233	6.86
260.694	6.83
261.154	6.8
261.614	6.77
262.074	6.74
262.534	6.7
262.994	6.68
263.455	6.66
263.915	6.65
264.374	6.61
264.834	6.59
265.294	6.56
265.754	6.53
266.214	6.51
266.673	6.49
267.133	6.47
267.593	6.45
268.052	6.42
268.512	6.39
268.971	6.37
269.431	6.36
269.89	6.35
270.349	6.33
270.809	6.32
271.268	6.31
271.727	6.29
272.186	6.28
272.645	6.26
273.104	6.25
273.563	6.25
274.022	6.24
274.481	6.22
274.94	6.2
275.399	6.18
275.857	6.16
276.316	6.14
276.775	6.12
277.233	6.11
277.692	6.09
278.15	6.07
278.609	6.05
279.067	6.02
279.525	6
279.984	5.99
280.442	5.98
280.9	5.98
281.358	5.97
281.816	5.96
282.274	5.94
282.732	5.94
283.19	5.93
283.648	5.93
284.106	5.91
284.564	5.92
285.021	5.91
285.479	5.9
285.937	5.89
286.394	5.87
286.852	5.86
287.309	5.86
287.767	5.84
288.224	5.83
288.682	5.81
289.139	5.81
289.596	5.78
290.053	5.75
290.511	5.73
290.968	5.71
291.425	5.7
291.882	5.67
292.339	5.65
292.796	5.63
293.252	5.61
293.709	5.59
294.166	5.58
294.623	5.56
295.079	5.56
295.536	5.55
295.992	5.53
296.449	5.53
296.905	5.52
297.362	5.5
297.818	5.49
298.274	5.48
298.731	5.48
299.187	5.46
299.643	5.45
300.099	5.44
300.555	5.43
301.011	5.43
301.467	5.41
301.923	5.4
302.379	5.4
302.835	5.4
303.291	5.39
303.746	5.38
304.202	5.38
304.658	5.37
305.113	5.36
305.569	5.36
306.024	5.35
306.479	5.35
306.935	5.34
307.39	5.33
307.845	5.32
308.301	5.32
308.756	5.32
309.211	5.31
309.666	5.31
310.121	5.31
310.576	5.3
311.031	5.29
311.486	5.29
311.94	5.29
312.395	5.29
312.85	5.29
313.305	5.3
313.759	5.3
314.214	5.29
314.668	5.29
315.123	5.29
315.577	5.29
316.032	5.29
316.486	5.28
316.94	5.27
317.394	5.25
317.849	5.24
318.303	5.23
318.757	5.21
319.211	5.2
319.665	5.19
320.119	5.17
320.572	5.18
321.026	5.17
321.48	5.16
321.934	5.16
322.387	5.16
322.841	5.14
323.295	5.14
323.748	5.13
324.202	5.12
324.655	5.12
325.108	5.1
325.562	5.09
326.015	5.07
326.468	5.05
326.921	5.04
327.374	5.03
327.827	5.03
328.28	5.03
328.733	5.02
329.186	5.02
329.639	5.02
330.092	5.01
330.545	5.02
330.997	5.03
331.45	5.03
331.903	5.02
332.355	5.02
332.808	5.01
333.26	5
333.713	5.01
334.165	5
334.617	5.01
335.069	5
335.522	5
335.974	5
336.426	5
336.878	5.01
337.33	5
337.782	5
338.234	5
338.686	5
339.137	5.01
339.589	4.99
340.041	4.98
340.493	4.97
340.944	4.95
341.396	4.94
341.847	4.93
342.299	4.91
342.75	4.9
343.201	4.88
343.653	4.85
344.104	4.84
344.555	4.83
345.006	4.81
345.457	4.8
345.908	4.79
346.359	4.78
346.81	4.78
347.261	4.78
347.712	4.77
348.163	4.77
348.613	4.77
349.064	4.75
349.515	4.75
349.965	4.74
350.416	4.75
350.866	4.75
351.317	4.74
351.767	4.75
352.217	4.75
352.668	4.76
353.118	4.75
353.568	4.75
354.018	4.77
354.468	4.77
354.918	4.78
355.368	4.77
355.818	4.76
356.268	4.76
356.718	4.75
357.168	4.74
357.617	4.74
358.067	4.73
358.517	4.72
358.966	4.72
359.416	4.72
359.865	4.71
360.315	4.71
360.764	4.72
361.213	4.71
361.663	4.7
362.112	4.71
362.561	4.71
363.01	4.72
363.459	4.72
363.908	4.71
364.357	4.71
364.806	4.72
365.255	4.71
365.703	4.7
366.152	4.7
366.601	4.71
367.05	4.71
367.498	4.72
367.947	4.71
368.395	4.72
368.844	4.72
369.292	4.72
369.74	4.73
370.189	4.73
370.637	4.74
371.085	4.74
371.533	4.74
371.981	4.74
372.429	4.72
372.877	4.72
373.325	4.71
373.773	4.71
374.221	4.71
374.669	4.72
375.116	4.72
375.564	4.73
376.012	4.73
376.459	4.74
376.907	4.76
377.354	4.77
377.801	4.78
378.249	4.79
378.696	4.8
379.143	4.81
379.591	4.83
380.038	4.85
380.485	4.87
380.932	4.87
381.379	4.88
381.826	4.88
382.273	4.9
382.72	4.92
383.166	4.92
383.613	4.93
384.06	4.95
384.506	4.96
384.953	4.96
385.4	4.97
385.846	4.98
386.292	5
386.739	5.01
387.185	5.03
387.631	5.04
388.078	5.06
388.524	5.06
388.97	5.06
389.416	5.07
389.862	5.09
390.308	5.11
390.754	5.12
391.2	5.14
391.645	5.17
392.091	5.18
392.537	5.19
392.983	5.22
393.428	5.25
393.874	5.27
394.319	5.29
394.765	5.31
395.21	5.31
395.655	5.32
396.101	5.33
396.546	5.33
396.991	5.32
397.436	5.33
397.881	5.33
398.326	5.35
398.771	5.35
399.216	5.36
399.661	5.37
400.106	5.39
400.551	5.39
400.995	5.39
401.44	5.38
401.885	5.39
402.329	5.38
402.774	5.37
403.218	5.37
403.663	5.35
404.107	5.36
404.551	5.36
404.995	5.34
405.44	5.34
405.884	5.33
406.328	5.33
406.772	5.33
407.216	5.34
407.66	5.34
408.104	5.34
408.547	5.35
408.991	5.33
409.435	5.33
409.879	5.34
410.322	5.34
410.766	5.35
411.209	5.37
411.653	5.37
412.096	5.36
412.54	5.35
412.983	5.35
413.426	5.36
413.869	5.38
414.312	5.39
414.756	5.38
415.199	5.39
415.642	5.4
416.085	5.4
416.527	5.41
416.97	5.43
417.413	5.41
417.856	5.39
418.298	5.38
418.741	5.37
419.184	5.36
419.626	5.36
420.069	5.35
420.511	5.34
420.953	5.32
421.396	5.32
421.838	5.33
422.28	5.36
422.722	5.37
423.164	5.37
423.606	5.37
424.048	5.37
424.49	5.37
424.932	5.37
425.374	5.37
425.816	5.37
426.258	5.38
426.699	5.36
427.141	5.34
427.582	5.35
428.024	5.34
428.465	5.34
428.907	5.35
429.348	5.35
429.789	5.38
430.231	5.38
430.672	5.39
431.113	5.39
431.554	5.41
431.995	5.43
432.436	5.44
432.877	5.46
433.318	5.48
433.759	5.51
434.2	5.51
434.64	5.5
435.081	5.51
435.522	5.53
435.962	5.54
436.403	5.55
436.843	5.56
437.284	5.58
437.724	5.61
438.164	5.61
438.604	5.61
439.045	5.64
439.485	5.67
439.925	5.67
440.365	5.67
440.805	5.69
441.245	5.67
441.685	5.68
442.125	5.69
442.564	5.71
443.004	5.74
443.444	5.76
443.883	5.79
444.323	5.79
444.762	5.82
445.202	5.86
445.641	5.88
446.081	5.92
446.52	5.94
446.959	5.96
447.398	5.96
447.837	5.98
448.276	5.99
448.716	5.97
449.154	5.98
449.593	5.99
450.032	5.98
450.471	5.99
450.91	6.01
451.349	6.01
451.787	6.01
452.226	6
452.664	5.99
453.103	5.99
453.541	6.01
453.98	6.03
454.418	6.05
454.856	6.04
455.295	6.04
455.733	6.03
456.171	6.03
456.609	6.05
457.047	6.06
457.485	6.06
457.923	6.07
458.361	6.06
458.798	6.05
459.236	6.04
459.674	6.06
460.111	6.08
460.549	6.06
460.987	6.08
461.424	6.06
461.862	6.07
462.299	6.09
462.736	6.08
463.173	6.08
463.611	6.09
464.048	6.09
464.485	6.08
464.922	6.06
465.359	6.06
465.796	6.06
466.233	6.06
466.67	6.06
467.106	6.04
467.543	6.04
467.98	6.04
468.416	6.02
468.853	6.01
469.29	6
469.726	6.01
470.162	6
470.599	6
471.035	6
471.471	6
471.907	5.99
472.344	5.98
472.78	5.98
473.216	5.97
473.652	5.97
474.088	5.98
474.523	5.97
474.959	5.97
475.395	5.96
475.831	5.96
476.266	5.95
476.702	5.95
477.138	5.94
477.573	5.93
478.008	5.93
478.444	5.92
478.879	5.92
479.314	5.9
479.75	5.9
480.185	5.9
480.62	5.9
481.055	5.9
481.49	5.89
481.925	5.89
482.36	5.88
482.795	5.88
483.229	5.88
483.664	5.87
484.099	5.87
484.534	5.87
484.968	5.87
485.403	5.87
485.837	5.87
486.271	5.86
486.706	5.88
487.14	5.9
487.574	5.91
488.009	5.92
488.443	5.95
488.877	5.96
489.311	5.99
489.745	6.02
490.179	6.03
490.613	6.07
491.046	6.1
491.48	6.13
491.914	6.15
492.348	6.2
492.781	6.23
493.215	6.26
493.648	6.29
494.082	6.34
494.515	6.38
494.948	6.43
495.382	6.46
495.815	6.51
496.248	6.56
496.681	6.61
497.114	6.66
497.547	6.72
497.98	6.8
498.413	6.87
498.846	6.94
499.279	7.02
499.711	7.1
500.144	7.2
500.577	7.3
501.009	7.41
501.442	7.53
501.874	7.66
502.306	7.78
502.739	7.89
503.171	8.03
503.603	8.17
504.036	8.31
504.468	8.46
504.9	8.62
505.332	8.79
505.764	8.95
506.196	9.1
506.627	9.28
507.059	9.46
507.491	9.66
507.923	9.84
508.354	10.06
508.786	10.28
509.217	10.51
509.649	10.75
510.08	10.99
510.512	11.25
510.943	11.52
511.374	11.78
511.805	12.06
512.237	12.34
512.668	12.63
513.099	12.93
513.53	13.25
513.961	13.57
514.391	13.86
514.822	14.18
515.253	14.51
515.684	14.82
516.114	15.18
516.545	15.51
516.975	15.87
517.406	16.22
517.836	16.56
518.267	16.89
518.697	17.24
519.127	17.61
519.558	17.95
519.988	18.29
520.418	18.63
520.848	18.95
521.278	19.3
521.708	19.7
522.138	20.02
522.567	20.31
522.997	20.61
523.427	20.91
523.857	21.17
524.286	21.46
524.716	21.73
525.145	22.02
525.575	22.29
526.004	22.53
526.433	22.71
526.863	22.94
527.292	23.2
527.721	23.44
528.15	23.64
528.579	23.87
529.008	24.07
529.437	24.27
529.866	24.43
530.295	24.62
530.724	24.8
531.152	24.95
531.581	25.1
532.01	25.24
532.438	25.37
532.867	25.5
533.295	25.63
533.723	25.76
534.152	25.86
534.58	25.96
535.008	26.02
535.436	26.09
535.865	26.15
536.293	26.24
536.721	26.29
537.149	26.35
537.576	26.42
538.004	26.47
538.432	26.5
538.86	26.57
539.287	26.62
539.715	26.69
540.143	26.74
540.57	26.79
540.998	26.81
541.425	26.86
541.852	26.89
542.28	26.9
542.707	26.95
543.134	26.99
543.561	26.99
543.988	27.02
544.415	27.04
544.842	27.07
545.269	27.12
545.696	27.17
546.123	27.19
546.549	27.23
546.976	27.29
547.403	27.32
547.829	27.34
548.256	27.36
548.682	27.37
549.108	27.38
549.535	27.39
549.961	27.36
550.387	27.36
550.813	27.35
551.24	27.33
551.666	27.31
552.092	27.3
552.518	27.27
552.943	27.26
553.369	27.24
553.795	27.21
554.221	27.19
554.646	27.16
555.072	27.12
555.498	27.07
555.923	27.03
556.349	26.93
556.774	26.84
557.199	26.76
557.625	26.67
558.05	26.55
558.475	26.43
558.9	26.32
559.325	26.19
559.75	26.04
560.175	25.9
560.6	25.76
561.025	25.63
561.449	25.47
561.874	25.34
562.299	25.19
562.723	25.03
563.148	24.87
563.572	24.69
563.997	24.51
564.421	24.33
564.846	24.16
565.27	23.97
565.694	23.79
566.118	23.59
566.542	23.4
566.966	23.19
567.39	22.99
567.814	22.79
568.238	22.59
568.662	22.4
569.086	22.22
569.509	22.03
569.933	21.84
570.357	21.62
570.78	21.45
571.204	21.25
571.627	21.06
572.05	20.89
572.474	20.72
572.897	20.54
573.32	20.37
573.743	20.22
574.166	20.04
574.589	19.88
575.012	19.75
575.435	19.59
575.858	19.45
576.281	19.32
576.704	19.19
577.126	19.04
577.549	18.94
577.972	18.81
578.394	18.68
578.817	18.56
579.239	18.44
579.661	18.32
580.084	18.21
580.506	18.12
580.928	18
581.35	17.9
581.772	17.83
582.194	17.71
582.616	17.61
583.038	17.51
583.46	17.43
583.882	17.36
584.303	17.27
584.725	17.18
585.147	17.08
585.568	16.97
585.99	16.88
586.411	16.8
586.833	16.73
587.254	16.66
587.675	16.6
588.096	16.51
588.518	16.44
588.939	16.37
589.36	16.29
589.781	16.24
590.202	16.19
590.623	16.13
591.043	16.06
591.464	15.99
591.885	15.92
592.305	15.86
592.726	15.8
593.147	15.76
593.567	15.69
593.987	15.67
594.408	15.61
594.828	15.57
595.248	15.55
595.669	15.53
596.089	15.5
596.509	15.45
596.929	15.4
597.349	15.37
597.769	15.32
598.189	15.29
598.608	15.23
599.028	15.2
599.448	15.15
599.867	15.09
600.287	15.03
600.706	14.97
601.126	14.93
601.545	14.88
601.965	14.82
602.384	14.77
602.803	14.71
603.222	14.66
603.641	14.59
604.061	14.52
604.48	14.47
604.898	14.39
605.317	14.31
605.736	14.24
606.155	14.19
606.574	14.11
606.992	14.04
607.411	13.98
607.829	13.85
608.248	13.78
608.666	13.7
609.085	13.62
609.503	13.53
609.921	13.46
610.339	13.4
610.758	13.31
611.176	13.24
611.594	13.15
612.012	13.06
612.43	13.02
612.847	12.96
613.265	12.89
613.683	12.81
614.101	12.74
614.518	12.67
614.936	12.6
615.353	12.54
615.771	12.46
616.188	12.41
616.606	12.34
617.023	12.27
617.44	12.2
617.857	12.13
618.274	12.06
618.691	12.01
619.108	11.95
619.525	11.9
619.942	11.86
620.359	11.82
620.776	11.78
621.192	11.76
621.609	11.73
622.026	11.7
622.442	11.68
622.859	11.66
623.275	11.65
623.691	11.62
624.108	11.59
624.524	11.57
624.94	11.55
625.356	11.53
625.772	11.52
626.188	11.51
626.604	11.48
627.02	11.47
627.436	11.46
627.852	11.44
628.268	11.43
628.683	11.4
629.099	11.38
629.514	11.35
629.93	11.32
630.345	11.28
630.761	11.25
631.176	11.21
631.591	11.18
632.007	11.12
632.422	11.08
632.837	11.01
633.252	10.97
633.667	10.88
634.082	10.82
634.497	10.73
634.911	10.64
635.326	10.54
635.741	10.44
636.155	10.33
636.57	10.24
636.984	10.1
637.399	9.99
637.813	9.85
638.228	9.73
638.642	9.61
639.056	9.48
639.47	9.37
639.884	9.24
640.298	9.13
640.712	9
641.126	8.88
641.54	8.77
641.954	8.67
642.368	8.54
642.781	8.44
643.195	8.32
643.609	8.22
644.022	8.11
644.436	8.01
644.849	7.92
645.262	7.84
645.676	7.75
646.089	7.66
646.502	7.57
646.915	7.51
647.328	7.45
647.741	7.41
648.154	7.36
648.567	7.32
648.98	7.28
649.393	7.23
649.805	7.18
650.218	7.16
650.631	7.13
651.043	7.1
651.456	7.09
651.868	7.05
652.28	7.02
652.693	6.98
653.105	6.97
653.517	6.93
653.929	6.91
654.341	6.9
654.753	6.86
655.165	6.82
655.577	6.79
655.989	6.74
656.401	6.7
656.813	6.65
657.224	6.62
657.636	6.57
658.047	6.54
658.459	6.49
658.87	6.44
659.282	6.4
659.693	6.35
660.104	6.31
660.515	6.27
660.926	6.24
661.338	6.21
661.749	6.15
662.159	6.12
662.57	6.08
662.981	6.04
663.392	6
663.803	5.98
664.213	5.95
664.624	5.94
665.035	5.92
665.445	5.91
665.855	5.9
666.266	5.91
666.676	5.9
667.086	5.9
667.497	5.89
667.907	5.89
668.317	5.88
668.727	5.89
669.137	5.9
669.547	5.92
669.956	5.92
670.366	5.94
670.776	5.95
671.186	5.98
671.595	6.01
672.005	6.05
672.414	6.08
672.824	6.13
673.233	6.16
673.642	6.19
674.052	6.22
674.461	6.26
674.87	6.29
675.279	6.32
675.688	6.35
676.097	6.39
676.506	6.42
676.915	6.47
677.323	6.52
677.732	6.58
678.141	6.63
678.549	6.7
678.958	6.77
679.366	6.81
679.775	6.89
680.183	6.99
680.592	7.06
681	7.12
681.408	7.19
681.816	7.25
682.224	7.33
682.632	7.42
683.04	7.5
683.448	7.6
683.856	7.73
684.264	7.86
684.671	7.99
685.079	8.14
685.487	8.33
685.894	8.54
686.302	8.77
686.709	9
687.116	9.26
687.524	9.55
687.931	9.86
688.338	10.22
688.745	10.58
689.152	11
689.559	11.42
689.966	11.88
690.373	12.36
690.78	12.88
691.187	13.44
691.593	14.02
692	14.62
692.407	15.26
692.813	15.9
693.22	16.56
693.626	17.24
694.032	17.97
694.439	18.7
694.845	19.45
695.251	20.17
695.657	20.92
696.063	21.66
696.469	22.41
696.875	23.15
697.281	23.89
697.687	24.66
698.093	25.41
698.498	26.15
698.904	26.88
699.31	27.58
699.715	28.34
700.12	29.04
700.526	29.76
700.931	30.46
701.337	31.17
701.742	31.85
702.147	32.51
702.552	33.18
702.957	33.84
703.362	34.5
703.767	35.19
704.172	35.8
704.577	36.45
704.981	37.1
705.386	37.72
705.791	38.35
706.195	38.96
706.6	39.56
707.004	40.14
707.408	40.7
707.813	41.26
708.217	41.8
708.621	42.38
709.025	42.94
709.43	43.45
709.834	44.01
710.237	44.49
710.641	45.04
711.045	45.56
711.449	46.07
711.853	46.56
712.256	47.04
712.66	47.52
713.064	47.95
713.467	48.38
713.87	48.84
714.274	49.3
714.677	49.77
715.08	50.19
715.484	50.63
715.887	51.08
716.29	51.49
716.693	51.89
717.096	52.3
717.499	52.75
717.901	53.11
718.304	53.49
718.707	53.84
719.109	54.19
719.512	54.57
719.915	54.93
720.317	55.25
720.719	55.6
721.122	55.9
721.524	56.24
721.926	56.51
722.328	56.85
722.731	57.18
723.133	57.46
723.535	57.77
723.937	58
724.338	58.22
724.74	58.47
725.142	58.72
725.544	58.98
725.945	59.21
726.347	59.47
726.748	59.65
727.15	59.84
727.551	60.04
727.952	60.26
728.354	60.48
728.755	60.67
729.156	60.86
729.557	61.05
729.958	61.22
730.359	61.34
730.76	61.48
731.161	61.67
731.562	61.81
731.962	61.92
732.363	62.02
732.763	62.19
733.164	62.3
733.564	62.43
733.965	62.52
734.365	62.62
734.766	62.77
735.166	62.81
735.566	62.87
735.966	62.95
736.366	63.03
736.766	63.1
737.166	63.14
737.566	63.21
737.966	63.26
738.365	63.31
738.765	63.4
739.165	63.41
739.564	63.51
739.964	63.58
740.363	63.65
740.763	63.7
741.162	63.73
741.561	63.78
741.96	63.86
742.36	63.92
742.759	63.96
743.158	63.98
743.557	64.05
743.955	64.08
744.354	64.12
744.753	64.15
745.152	64.16
745.55	64.22
745.949	64.26
746.348	64.25
746.746	64.25
747.144	64.31
747.543	64.34
747.941	64.38
748.339	64.43
748.737	64.46
749.136	64.49
749.534	64.57
749.932	64.61
750.33	64.6
750.727	64.66
751.125	64.69
751.523	64.66
751.921	64.69
752.318	64.71
752.716	64.73
753.113	64.75
753.511	64.73
753.908	64.69
754.305	64.68
754.703	64.7
755.1	64.68
755.497	64.69
755.894	64.7
756.291	64.69
756.688	64.66
757.085	64.67
757.482	64.67
757.878	64.72
758.275	64.75
758.672	64.76
759.068	64.77
759.465	64.79
759.861	64.79
760.258	64.79
760.654	64.79
761.05	64.79
761.447	64.75
761.843	64.72
762.239	64.67
762.635	64.66
763.031	64.66
763.427	64.61
763.822	64.56
764.218	64.51
764.614	64.49
765.01	64.48
765.405	64.44
765.801	64.45
766.196	64.46
766.592	64.51
766.987	64.5
767.382	64.5
767.778	64.52
768.173	64.56
768.568	64.54
768.963	64.55
769.358	64.51
769.753	64.54
770.148	64.53
770.542	64.5
770.937	64.42
771.332	64.44
771.726	64.39
772.121	64.37
772.515	64.34
772.91	64.38
773.304	64.34
773.699	64.35
774.093	64.31
774.487	64.31
774.881	64.29
775.275	64.31
775.669	64.29
776.063	64.26
776.457	64.26
776.851	64.22
777.245	64.21
777.638	64.22
778.032	64.22
778.425	64.24
778.819	64.23
779.212	64.22
779.606	64.21
779.999	64.23
780.392	64.26
780.786	64.25
781.179	64.27
781.572	64.26
781.965	64.27
782.358	64.22
782.751	64.23
783.143	64.23
783.536	64.27
783.929	64.29
784.322	64.25
784.714	64.24
785.107	64.27
785.499	64.26
785.891	64.28
786.284	64.25
786.676	64.3
787.068	64.27
787.46	64.24
787.852	64.24
788.245	64.24
788.636	64.2
789.028	64.21
789.42	64.16
789.812	64.2
790.204	64.15
790.595	64.2
790.987	64.19
791.378	64.21
791.77	64.26
792.161	64.27
792.553	64.28
792.944	64.36
793.335	64.37
793.726	64.37
794.117	64.33
794.508	64.33
794.899	64.28
795.29	64.27
795.681	64.25
796.072	64.25
796.463	64.27
796.853	64.26
797.244	64.24
797.634	64.21
798.025	64.23
798.415	64.24
798.806	64.28
799.196	64.34
799.586	64.35
799.976	64.32
800.366	64.3
800.756	64.28
801.146	64.26
801.536	64.26
801.926	64.28
802.316	64.29
802.706	64.32
803.095	64.31
803.485	64.3
803.874	64.31
804.264	64.38
804.653	64.34
805.043	64.31
805.432	64.33
805.821	64.31
806.21	64.35
806.599	64.37
806.988	64.37
807.377	64.37
807.766	64.34
808.155	64.38
808.544	64.32
808.933	64.33
809.321	64.39
809.71	64.43
810.098	64.44
810.487	64.4
810.875	64.37
811.264	64.38
811.652	64.39
812.04	64.41
812.428	64.39
812.816	64.43
813.204	64.44
813.592	64.37
813.98	64.33
814.368	64.34
814.756	64.38
815.144	64.42
815.531	64.41
815.919	64.42
816.306	64.39
816.694	64.42
817.081	64.41
817.469	64.48
817.856	64.54
818.243	64.58
818.63	64.59
819.017	64.61
819.404	64.58
819.791	64.61
820.178	64.62
820.565	64.66
820.952	64.63
821.339	64.69
821.725	64.71
822.112	64.72
822.498	64.75
822.885	64.77
823.271	64.78
823.657	64.81
824.044	64.81
824.43	64.85
824.816	64.89
825.202	64.92
825.588	64.92
825.974	64.92
826.36	64.91
826.746	64.92
827.132	64.9
827.517	64.91
827.903	64.89
828.289	64.9
828.674	64.87
829.06	64.87
829.445	64.91
829.83	64.89
830.216	64.87
830.601	64.85
830.986	64.83
831.371	64.86
831.756	64.8
832.141	64.86
832.526	64.87
832.911	64.92
833.295	64.93
833.68	64.9
834.065	64.94
834.449	64.92
834.834	64.91
835.218	64.9
835.603	64.9
835.987	64.94
836.371	64.95
836.755	64.97
837.139	64.93
837.524	64.9
837.908	64.88
838.291	64.84
838.675	64.87
839.059	64.86
839.443	64.87
839.827	64.88
840.21	64.89
840.594	64.85
840.977	64.8
841.361	64.79
841.744	64.81
842.127	64.82
842.511	64.82
842.894	64.8
843.277	64.83
843.66	64.83
844.043	64.84
844.426	64.83
844.809	64.82
845.191	64.83
845.574	64.81
845.957	64.79
846.339	64.8
846.722	64.82
847.104	64.84
847.487	64.84
847.869	64.84
848.252	64.81
848.634	64.82
849.016	64.83
849.398	64.83
849.78	64.85
850.162	64.87
850.544	64.89
850.926	64.87
851.307	64.86
851.689	64.84
852.071	64.84
852.452	64.84
852.834	64.81
853.215	64.83
853.597	64.87
853.978	64.86
854.359	64.86
854.741	64.83
855.122	64.82
855.503	64.82
855.884	64.79
856.265	64.78
856.646	64.75
857.026	64.75
857.407	64.69
857.788	64.67
858.169	64.67
858.549	64.67
858.93	64.69
859.31	64.72
859.69	64.69
860.071	64.68
860.451	64.69
860.831	64.7
861.211	64.69
861.591	64.73
861.971	64.71
862.351	64.76
862.731	64.72
863.111	64.7
863.491	64.69
863.87	64.7
864.25	64.75
864.629	64.74
865.009	64.75
865.388	64.76
865.768	64.76
866.147	64.75
866.526	64.71
866.905	64.72
867.284	64.74
867.663	64.72
868.042	64.7
868.421	64.65
868.8	64.67
869.179	64.68
869.558	64.66
869.936	64.66
870.315	64.68
870.693	64.71
871.072	64.69
871.45	64.67
871.828	64.66
872.207	64.71
872.585	64.74
872.963	64.74
873.341	64.72
873.719	64.71
874.097	64.7
874.475	64.68
874.853	64.66
875.23	64.67
875.608	64.72
875.986	64.73
876.363	64.69
876.741	64.68
877.118	64.65
877.495	64.67
877.873	64.67
878.25	64.66
878.627	64.66
879.004	64.69
879.381	64.7
879.758	64.64
880.135	64.59
880.512	64.61
880.889	64.62
881.265	64.62
881.642	64.63
882.019	64.66
882.395	64.7
882.772	64.7
883.148	64.65
883.524	64.62
883.901	64.62
884.277	64.68
884.653	64.67
885.029	64.68
885.405	64.66
885.781	64.63
886.157	64.61
886.532	64.57
886.908	64.59
887.284	64.61
887.659	64.64
888.035	64.67
888.411	64.65
888.786	64.67
889.161	64.69
889.537	64.71
889.912	64.7
890.287	64.68
890.662	64.66
891.037	64.62
891.412	64.61
891.787	64.56
892.162	64.53
892.536	64.53
892.911	64.47
893.286	64.41
893.66	64.39
894.035	64.41
894.409	64.42
894.784	64.41
895.158	64.41
895.532	64.38
895.906	64.39
896.281	64.39
896.655	64.36
897.029	64.36
897.402	64.37
897.776	64.38
898.15	64.37
898.524	64.34
898.898	64.32
899.271	64.3
899.645	64.3
900.018	64.32
900.392	64.34
900.765	64.37
901.138	64.38
901.511	64.38
901.884	64.35
902.258	64.34
902.631	64.35
903.003	64.39
903.376	64.37
903.749	64.38
904.122	64.38
904.495	64.34
904.867	64.3
905.24	64.27
905.612	64.25
905.985	64.25
906.357	64.22
906.729	64.2
907.102	64.16
907.474	64.17
907.846	64.17
908.218	64.1
908.59	64.07
908.962	64.05
909.334	64.04
909.705	64.02
910.077	63.99
910.449	64
910.82	63.96
911.192	63.94
911.563	63.91
911.935	63.89
912.306	63.87
912.677	63.89
913.048	63.88
913.419	63.86
913.79	63.84
914.161	63.8
914.532	63.79
914.903	63.79
915.274	63.77
915.645	63.74
916.015	63.74
916.386	63.72
916.756	63.67
917.127	63.67
917.497	63.64
917.868	63.67
918.238	63.68
918.608	63.67
918.978	63.64
919.348	63.58
919.718	63.59
920.088	63.57
920.458	63.61
920.828	63.62
921.198	63.62
921.567	63.63
921.937	63.58
922.306	63.6
922.676	63.56
923.045	63.52
923.415	63.56
923.784	63.56
924.153	63.56
924.522	63.52
924.891	63.51
925.26	63.48
925.629	63.43
925.998	63.46
926.367	63.46
926.736	63.48
927.104	63.53
927.473	63.53
927.842	63.48
928.21	63.45
928.578	63.42
928.947	63.42
929.315	63.47
929.683	63.52
930.051	63.45
930.42	63.45
930.788	63.45
931.156	63.44
931.523	63.4
931.891	63.37
932.259	63.32
932.627	63.29
932.994	63.28
933.362	63.2
933.729	63.13
934.097	63.11
934.464	63.05
934.831	62.93
935.199	62.88
935.566	62.85
935.933	62.86
936.3	62.79
936.667	62.74
937.034	62.64
937.401	62.51
937.767	62.48
938.134	62.42
938.501	62.38
938.867	62.43
939.234	62.42
939.6	62.33
939.967	62.28
940.333	62.38
940.699	62.39
941.065	62.4
941.431	62.44
941.798	62.44
942.163	62.53
942.529	62.46
942.895	62.46
943.261	62.48
943.627	62.57
943.992	62.64
944.358	62.63
944.723	62.64
945.089	62.72
945.454	62.77
945.82	62.75
946.185	62.75
946.55	62.89
946.915	62.88
947.28	62.83
947.645	62.83
948.01	62.87
948.375	62.92
948.74	62.93
949.104	62.83
949.469	62.77
949.834	62.79
950.198	62.68
950.562	62.57
950.927	62.62
951.291	62.59
951.655	62.51
952.02	62.4
952.384	62.46
952.748	62.44
953.112	62.47
953.476	62.57
953.839	62.6
954.203	62.6
954.567	62.61
954.931	62.54
955.294	62.48
955.658	62.45
956.021	62.42
956.385	62.27
956.748	62.27
957.111	62.18
957.474	62.1
957.837	62.03
958.2	61.95
958.563	61.9
958.926	61.87
959.289	61.97
959.652	62
960.015	62.03
960.377	62.03
960.74	62
961.102	62.03
961.465	62.08
961.827	62.09
962.189	62.14
962.552	62.13
962.914	62.15
963.276	62.08
963.638	62.03
964	61.98
964.362	61.96
964.724	62
965.085	62.02
965.447	61.91
965.809	61.81
966.17	61.82
966.532	61.89
966.893	61.88
967.255	61.88
967.616	61.93
967.977	61.95
968.338	61.88
968.699	61.83
969.061	61.77
969.421	61.82
969.782	61.85
970.143	61.82
970.504	61.75
970.865	61.64
971.225	61.6
971.586	61.64
971.946	61.64
972.307	61.66
972.667	61.71
973.027	61.72
973.388	61.61
973.748	61.66
974.108	61.67
974.468	61.69
974.828	61.83
975.188	61.85
975.548	61.82
975.907	61.8
976.267	61.75
976.627	61.63
976.986	61.56
977.346	61.57
977.705	61.55
978.064	61.58
978.424	61.52
978.783	61.42
979.142	61.41
979.501	61.29
979.86	61.32
980.219	61.33
980.578	61.37
980.937	61.47
981.296	61.44
981.654	61.45
982.013	61.39
982.371	61.34
982.73	61.32
983.088	61.28
983.447	61.36
983.805	61.3
984.163	61.35
984.521	61.27
984.879	61.18
985.237	61.28
985.595	61.26
985.953	61.2
986.311	61.26
986.669	61.21
987.026	61.16
987.384	61.07
987.741	61.02
988.099	61.06
988.456	61.11
988.814	61.14
989.171	61.11
989.528	61
989.885	61.01
990.242	61.01
990.599	61.02
990.956	61.08
991.313	61.09
991.67	61.17
992.027	61.01
992.383	61.06
992.74	60.98
993.096	60.95
993.453	60.96
993.809	60.98
994.165	60.84
994.522	60.84
994.878	60.73
995.234	60.65
995.59	60.49
995.946	60.62
996.302	60.43
996.658	60.41
997.013	60.43
997.369	60.48
997.725	60.5
998.08	60.49
998.436	60.5
998.791	60.57
999.147	60.74
999.502	60.73
999.857	60.65
1000.212	60.67
1000.567	60.66
1000.922	60.57
1001.277	60.44
1001.632	60.35
1001.987	60.35
1002.342	60.24
1002.696	60.17
1003.051	59.81
1003.406	59.83
1003.76	59.72
1004.114	59.76
1004.469	59.6
1004.823	59.54
1005.177	59.58
1005.531	59.43
1005.885	59.43
1006.239	59.33
1006.593	59.12
1006.947	59.23
1007.301	59.08
1007.655	59.13
1008.008	59.08
1008.362	59.13
1008.715	59.25
1009.069	59.1
1009.422	59.16
1009.776	59.16
1010.129	59.14
1010.482	59.16
1010.835	59.28
1011.188	59.39
1011.541	58.95
1011.894	58.91
1012.247	58.79
1012.6	58.66
1012.952	58.52
1013.305	58.37
1013.657	58.24
1014.01	58.27
1014.362	58.52
1014.715	58.32
1015.067	58.33
1015.419	58.76
1015.771	58.79
1016.123	58.69
1016.475	58.68
1016.827	58.8
1017.179	58.98
1017.531	58.83
1017.883	58.59
1018.234	58.49
1018.586	58.52
1018.938	58.29
1019.289	58.01
1019.64	57.83
1019.992	58
1020.343	57.82
1020.694	57.8
1021.045	57.35
1021.396	57.32
1021.747	57.44
1022.098	57.15
1022.449	56.98
1022.8	57.13
1023.151	56.82
1023.501	57.02
1023.852	56.94
1024.202	56.66
1024.553	56.12
1024.903	56.47
1025.253	56.72
1025.604	56.42
1025.954	56.28
1026.304	56.68
1026.654	56.45
1027.004	56.68
1027.354	56.5
1027.703	55.8
1028.053	55.55
1028.403	55.83
1028.753	55.92
1029.102	55.56
1029.452	55.76
1029.801	55.79
1030.15	55.31
1030.499	55.16
897.758	681.44
901.051	689.23
904.343	699.8
907.636	685.37
910.928	675.11
914.22	688.6
917.511	674.22
920.803	654.1
924.094	624.3
927.384	628.57
930.675	606.45
933.965	597.45
937.255	599.79
940.544	571.35
943.834	546.07
947.123	536.77
950.411	510.51
953.7	500.01
956.988	485.34
960.276	464.14
963.563	457
966.851	435.05
970.138	427.5
973.424	397.29
976.711	392.82
979.997	381.39
983.283	374.72
986.568	360.42
989.853	349.1
993.138	338.58
996.423	333.21
999.708	323.32
1002.992	324.9
1006.275	315.19
1009.559	313.45
1012.842	302.51
1016.125	292.81
1019.408	286.38
1022.69	283.51
1025.972	284.61
1029.254	275.07
1032.536	270.99
1035.817	262.75
1039.098	258.36
1042.379	253.89
1045.659	249.55
1048.939	248.56
1052.219	245.22
1055.498	240.43
1058.778	237.26
1062.057	230.57
1065.335	230.35
1068.614	226.64
1071.892	224.35
1075.17	220.19
1078.447	216.46
1081.724	215.49
1085.001	212.19
1088.278	211.07
1091.554	210.26
1094.83	209.13
1098.106	205.89
1101.382	205.09
1104.657	203.93
1107.932	202.79
1111.206	201.35
1114.481	200.06
1117.755	197.93
1121.029	196.15
1124.302	193.38
1127.575	190.45
1130.848	189.02
1134.121	187.03
1137.393	185.9
1140.665	184.78
1143.937	182.74
1147.208	180.76
1150.48	178.53
1153.75	178.25
1157.021	176.15
1160.291	176.25
1163.561	176.32
1166.831	174.49
1170.101	175.08
1173.37	173.85
1176.639	171.74
1179.907	172.3
1183.176	171.71
1186.444	172.34
1189.711	170.69
1192.979	173.62
1196.246	173.01
1199.513	171.55
1202.78	172.13
1206.046	171.92
1209.312	171.69
1212.578	173.84
1215.843	175.26
1219.108	176.88
1222.373	179.24
1225.638	181.84
1228.902	184.89
1232.166	190.66
1235.43	193.64
1238.693	199.12
1241.956	202.86
1245.219	208.84
1248.482	209.68
1251.744	209.01
1255.006	210.8
1258.268	205.88
1261.529	204.31
1264.79	198.96
1268.051	194.33
1271.312	192.92
1274.572	189.5
1277.832	185.05
1281.092	182.54
1284.351	179.04
1287.61	179.03
1290.869	177.34
1294.128	176.35
1297.386	176.07
1300.644	174.72
1303.902	174.97
1307.159	174.62
1310.416	174.68
1313.673	177.62
1316.93	178.76
1320.186	181.35
1323.442	183.7
1326.697	187.16
1329.953	189.25
1333.208	195.31
1336.463	202.84
1339.717	205.87
1342.972	216.05
1346.226	222.58
1349.479	223.6
1352.733	233.33
1355.986	238.97
1359.238	243.5
1362.491	246.1
1365.743	255.81
1368.995	254.92
1372.247	256.1
1375.498	254.49
1378.749	261.33
1382	261.14
1385.251	261.41
1388.501	260.43
1391.751	262.8
1395	262.9
1398.25	264.56
1401.499	262.82
1404.748	264.66
1407.996	258.26
1411.244	259.87
1414.492	255.14
1417.74	247.39
1420.987	242.54
1424.234	238.67
1427.481	231.09
1430.728	224.3
1433.974	216.61
1437.22	208.68
1440.465	202.5
1443.711	197.59
1446.956	191.9
1450.201	184.42
1453.445	178.16
1456.689	173.16
1459.933	167.73
1463.177	160.68
1466.42	157.07
1469.663	152.96
1472.906	150.01
1476.148	146.13
1479.391	142.25
1482.633	139.91
1485.874	138.31
1489.115	136.8
1492.356	134.35
1495.597	132.6
1498.838	132.01
1502.078	131.13
1505.318	130.61
1508.557	129.66
1511.797	128.02
1515.036	128.95
1518.274	127.95
1521.513	126.22
1524.751	125.3
1527.989	126.45
1531.227	125.94
1534.464	125.93
1537.701	124.88
1540.938	124.19
1544.174	123.7
1547.41	124.55
1550.646	123.37
1553.882	123.65
1557.117	123.41
1560.352	122.65
1563.587	121.22
1566.821	121.28
1570.055	120.63
1573.289	120.21
1576.523	120.35
1579.756	120.02
1582.989	119.56
1586.222	119.47
1589.454	118.82
1592.686	118.53
1595.918	118.68
1599.15	118.44
1602.381	118.92
1605.612	118.54
1608.843	118.77
1612.073	119.35
1615.303	119.44
1618.533	118.86
1621.762	119.37
1624.992	119.69
1628.221	119.49
1631.449	120.1
1634.678	119.51
1637.906	119.23
1641.134	119.6
1644.361	119.4
1647.588	119.35
1650.815	119.58
1654.042	119.72
1657.269	119.29
1660.495	119.67
1663.72	119.35
1666.946	119.63
1670.171	120.61
1673.396	121.13
1676.621	121.32
1679.845	121.9
1683.069	121.4
1686.293	120.76
1689.517	121.09
1692.74	121.28
1695.963	121.54
1699.185	122.5
1702.408	122.38
1705.63	122.5
1708.852	122.76
1712.073	122.25
1715.294	121.88
1718.515	122.43
1721.736	123.24
1724.956	123.42
1728.176	123.38
1731.396	124.28
1734.616	123.72
1737.835	123.89
1741.054	123.63
1744.272	123.39
1747.491	124.17
1750.709	124.76
1753.927	125.04
1757.144	125.01
1760.361	125.06
1763.578	125.5
1766.795	125.64
1770.011	126.11
1773.227	127.14
1776.443	128.26
1779.658	128.2
1782.874	128.5
1786.089	129.14
1789.303	129.52
1792.518	130.98
1795.732	131.68
1798.945	133.1
1802.159	132.98
1805.372	135.34
1808.585	135.6
1811.797	136.46
1815.01	137.46
1818.222	138.88
1821.434	139.5
1824.645	140.13
1827.856	141.58
1831.067	142.28
1834.278	143.25
1837.488	144.79
1840.698	145.41
1843.908	145.48
1847.117	146.76
1850.326	148.24
1853.535	148.48
1856.744	150.26
1859.952	152.23
1863.16	152.11
1866.368	152.11
1869.575	152.51
1872.782	151.32
1875.989	150.01
1879.196	150.07
1882.402	148.63
1885.608	148.76
1888.814	147.9
1892.019	148.37
1895.224	145.36
1898.429	145.59
1901.634	146.72
1904.838	146.03
1908.042	146.66
1911.246	146.77
1914.449	146.81
1917.652	146.46
1920.855	147.29
1924.058	145.77
1927.26	144.33
1930.462	146.16
1933.664	145.84
1936.865	145.61
1940.066	144.78
1943.267	142.84
1946.467	144.13
1949.668	144.34
1952.868	145.1
1956.067	143.98
1959.267	146.78
1962.466	147.42
1965.665	148.18
1968.863	149.9
1972.061	149.69
1975.259	153.43
1978.457	155.87
1981.654	157.08
1984.852	158.67
1988.048	161.06
1991.245	162.56
1994.441	165.17
1997.637	169.2
2000.833	172.71
2004.028	174.55
2007.223	181.4
2010.418	185.6
2013.613	192.53
2016.807	197.53
2020.001	200.69
2023.194	204.97
2026.388	213.54
2029.581	223.47
2032.774	229.69
2035.966	236.07
2039.158	242.21
2042.35	245.81
2045.542	248.39
2048.733	259.52
2051.924	262.59
2055.115	265.77
2058.306	270.08
2061.496	274.52
2064.686	274.59
2067.875	273.04
2071.065	275.28
2074.254	276.16
2077.442	283.84
2080.631	286.88
2083.819	286.19
2087.007	291.45
2090.195	298.15
2093.382	297.85
2096.569	297.87
2099.756	303.12
2102.942	308.98
2106.128	317.04
2109.314	316.95
2112.5	316.87
2115.685	314.87
2118.87	316.22
2122.055	315.97
2125.239	322.65
2128.424	330.39
2131.608	327.93
2134.791	327.84
2137.974	330.65
2141.157	332.34
2144.34	338.09
2147.523	340.59
2150.705	350.03
2153.887	345.02
2157.068	350.28
2160.25	353.49
2163.431	352.32
2166.611	359.44
2169.792	365.28
2172.972	369.53
2176.152	368.83
2179.331	376.73
2182.511	378.26
2185.69	382.01
2188.868	399.69
2192.047	406.48
2195.225	409.84
2198.403	415.18
2201.58	410.7
2204.758	427.52
2207.935	431.03
2211.111	437.67
2214.288	439.09
2217.464	444.96
2220.64	447.32
2223.815	447.56
2226.991	443.69
2230.166	447.07
2233.34	461.89
2236.515	472.1
2239.689	464.58
2242.863	472.3
2246.036	467.18
2249.209	480.99
2252.382	480.17
2255.555	497.28
2258.727	499.79
2261.9	515.08
2265.071	522.03
2268.243	515.42
2271.414	532.24
2274.585	541.29
2277.756	543.31
2280.926	566.89
2284.096	563.4
2287.266	565.58
2290.436	555.51
2293.605	567.2
2296.774	587.2
2299.942	587.3
2303.111	606.68
2306.279	617.52
2309.447	621.24
2312.614	617.63
2315.781	634.87
2318.948	643.25
2322.115	657.39
2325.281	687.45
2328.447	680.64
2331.613	686.42
2334.779	698.19
2337.944	707.1
2341.109	721.83
2344.274	727.18
2347.438	753.78
2350.602	759.66
2353.766	804.93
2356.929	808.43
2360.092	820.97
2363.255	828.72
2366.418	835.27
2369.58	852.18
2372.742	843.69
2375.904	839.32
2379.066	862.42
2382.227	908.79
2385.388	911.29
2388.548	865.14
2391.709	859.33
2394.869	885.23
2398.029	889.89
2401.188	884.33
2404.347	910.77
2407.506	948.03
2410.665	920.46
2413.823	919.1
2416.981	917.88
2420.139	871.29
2423.296	941.57
2426.453	995.6
2429.61	953.07
2432.767	1014.34
2435.923	1057.61
2439.079	1012.39
2442.235	1036.85
2445.391	1052.13
2448.546	1050.22
2451.701	1105.62
2454.855	1181.7
2458.009	1038.05
2461.163	1063.3
2464.317	1072.91
2467.471	1047.64
2470.624	1082.58
2473.777	1071.72
2476.929	1035.9
2480.082	1116.91
2483.234	1165.38
2486.385	1183.36
2489.537	1211.05
2492.688	1344.19
2495.839	1323.68
2498.989	1358.49
2502.14	1365.89
2505.29	1298.79
2508.439	1445.58
2511.589	1483.31
2514.738	1421.02
2517.887	1412.32
2521.035	1329.21
2524.183	1305.36
2527.331	1289.22
2530.479	1248.34
2533.627	1279.25
