Data from N_1_dec_oh_4n_013_Splice17_05.txt Node
Date: Sat Feb 29 13:38:22 EST 2020
User: sa697716
Spectrometer: FLMS03696
Trigger mode: 0
Integration Time (sec): 3.180400E-1
Scans to average: 20
Electric dark correction enabled: true
Nonlinearity correction enabled: true
Boxcar width: 5
XAxis mode: Wavelengths
Number of Pixels in Spectrum: 2048
>>>>>Begin Spectral Data<<<<<
187.83	72.24
188.298	77.58
188.766	69.98
189.233	64.05
189.701	79.17
190.169	84.68
190.636	88.95
191.104	89.01
191.571	184.24
192.039	70.02
192.506	106.8
192.974	1816.65
193.441	-149.88
193.908	57.91
194.375	9.39
194.842	135.86
195.31	112.76
195.777	129.62
196.244	35.56
196.711	23.15
197.177	21.55
197.644	20.31
198.111	19.59
198.578	20.03
199.045	20.02
199.511	20.25
199.978	20.18
200.445	20.33
200.911	20.3
201.378	20.6
201.844	20.96
202.31	21.27
202.777	21.82
203.243	22.58
203.709	22.62
204.176	22.38
204.642	22.65
205.108	23.12
205.574	23.22
206.04	23.49
206.506	23.02
206.972	22.69
207.438	22.41
207.903	22.55
208.369	22.15
208.835	22.47
209.301	22.66
209.766	22.49
210.232	22.39
210.697	22.29
211.163	21.85
211.628	21.94
212.094	21.84
212.559	21.7
213.024	21.38
213.49	21.13
213.955	20.6
214.42	20.21
214.885	19.79
215.35	19.27
215.815	18.55
216.28	17.72
216.745	17.03
217.21	16.16
217.675	15.36
218.14	14.48
218.604	13.78
219.069	13.29
219.534	12.8
219.998	12.36
220.463	12.02
220.927	11.73
221.392	11.52
221.856	11.19
222.32	11.03
222.785	10.86
223.249	10.7
223.713	10.55
224.177	10.32
224.642	10.2
225.106	10.06
225.57	9.89
226.034	9.74
226.497	9.58
226.961	9.45
227.425	9.26
227.889	9.12
228.353	9.01
228.816	8.89
229.28	8.77
229.744	8.65
230.207	8.54
230.671	8.41
231.134	8.31
231.597	8.21
232.061	8.1
232.524	8.02
232.987	7.91
233.45	7.8
233.914	7.71
234.377	7.62
234.84	7.54
235.303	7.45
235.766	7.37
236.229	7.28
236.691	7.19
237.154	7.12
237.617	7.03
238.08	6.97
238.542	6.91
239.005	6.82
239.468	6.74
239.93	6.67
240.393	6.58
240.855	6.5
241.317	6.45
241.78	6.39
242.242	6.31
242.704	6.27
243.166	6.21
243.629	6.15
244.091	6.1
244.553	6.04
245.015	5.98
245.477	5.93
245.939	5.88
246.4	5.82
246.862	5.78
247.324	5.75
247.786	5.7
248.247	5.64
248.709	5.59
249.17	5.55
249.632	5.51
250.093	5.46
250.555	5.42
251.016	5.4
251.477	5.37
251.939	5.34
252.4	5.29
252.861	5.26
253.322	5.23
253.783	5.21
254.244	5.18
254.705	5.15
255.166	5.14
255.627	5.11
256.088	5.08
256.549	5.05
257.009	5.02
257.47	5.01
257.931	4.98
258.391	4.95
258.852	4.91
259.312	4.88
259.773	4.85
260.233	4.81
260.694	4.79
261.154	4.76
261.614	4.73
262.074	4.7
262.534	4.66
262.994	4.63
263.455	4.62
263.915	4.6
264.374	4.56
264.834	4.54
265.294	4.52
265.754	4.49
266.214	4.47
266.673	4.45
267.133	4.42
267.593	4.4
268.052	4.38
268.512	4.35
268.971	4.33
269.431	4.31
269.89	4.3
270.349	4.28
270.809	4.27
271.268	4.26
271.727	4.24
272.186	4.22
272.645	4.2
273.104	4.18
273.563	4.16
274.022	4.15
274.481	4.13
274.94	4.11
275.399	4.1
275.857	4.09
276.316	4.06
276.775	4.05
277.233	4.04
277.692	4.03
278.15	4.01
278.609	4
279.067	3.98
279.525	3.96
279.984	3.95
280.442	3.93
280.9	3.92
281.358	3.91
281.816	3.9
282.274	3.88
282.732	3.87
283.19	3.87
283.648	3.85
284.106	3.84
284.564	3.84
285.021	3.83
285.479	3.82
285.937	3.8
286.394	3.79
286.852	3.78
287.309	3.77
287.767	3.75
288.224	3.74
288.682	3.72
289.139	3.71
289.596	3.69
290.053	3.67
290.511	3.65
290.968	3.63
291.425	3.61
291.882	3.6
292.339	3.58
292.796	3.57
293.252	3.55
293.709	3.54
294.166	3.54
294.623	3.53
295.079	3.52
295.536	3.51
295.992	3.5
296.449	3.49
296.905	3.48
297.362	3.47
297.818	3.46
298.274	3.45
298.731	3.44
299.187	3.43
299.643	3.42
300.099	3.41
300.555	3.4
301.011	3.39
301.467	3.38
301.923	3.37
302.379	3.37
302.835	3.36
303.291	3.36
303.746	3.35
304.202	3.33
304.658	3.33
305.113	3.32
305.569	3.32
306.024	3.31
306.479	3.29
306.935	3.29
307.39	3.29
307.845	3.28
308.301	3.28
308.756	3.28
309.211	3.29
309.666	3.28
310.121	3.28
310.576	3.27
311.031	3.28
311.486	3.27
311.94	3.26
312.395	3.26
312.85	3.26
313.305	3.25
313.759	3.25
314.214	3.24
314.668	3.23
315.123	3.23
315.577	3.23
316.032	3.21
316.486	3.21
316.94	3.21
317.394	3.2
317.849	3.19
318.303	3.19
318.757	3.17
319.211	3.16
319.665	3.15
320.119	3.15
320.572	3.15
321.026	3.15
321.48	3.14
321.934	3.13
322.387	3.12
322.841	3.11
323.295	3.1
323.748	3.1
324.202	3.1
324.655	3.09
325.108	3.08
325.562	3.06
326.015	3.04
326.468	3.03
326.921	3.02
327.374	3.02
327.827	3.01
328.28	3
328.733	2.98
329.186	2.99
329.639	2.98
330.092	2.97
330.545	2.98
330.997	2.99
331.45	2.99
331.903	2.99
332.355	2.98
332.808	2.99
333.26	2.98
333.713	2.99
334.165	2.98
334.617	2.98
335.069	2.99
335.522	2.97
335.974	2.97
336.426	2.96
336.878	2.95
337.33	2.95
337.782	2.94
338.234	2.94
338.686	2.93
339.137	2.93
339.589	2.93
340.041	2.92
340.493	2.92
340.944	2.92
341.396	2.91
341.847	2.91
342.299	2.9
342.75	2.88
343.201	2.87
343.653	2.87
344.104	2.86
344.555	2.85
345.006	2.84
345.457	2.84
345.908	2.83
346.359	2.82
346.81	2.82
347.261	2.82
347.712	2.82
348.163	2.82
348.613	2.81
349.064	2.8
349.515	2.79
349.965	2.79
350.416	2.78
350.866	2.78
351.317	2.78
351.767	2.77
352.217	2.77
352.668	2.78
353.118	2.78
353.568	2.79
354.018	2.8
354.468	2.8
354.918	2.81
355.368	2.81
355.818	2.82
356.268	2.82
356.718	2.83
357.168	2.82
357.617	2.82
358.067	2.82
358.517	2.82
358.966	2.83
359.416	2.85
359.865	2.85
360.315	2.86
360.764	2.88
361.213	2.88
361.663	2.9
362.112	2.93
362.561	2.95
363.01	2.98
363.459	3
363.908	3.01
364.357	3.03
364.806	3.07
365.255	3.11
365.703	3.14
366.152	3.18
366.601	3.23
367.05	3.27
367.498	3.31
367.947	3.34
368.395	3.4
368.844	3.45
369.292	3.51
369.74	3.56
370.189	3.6
370.637	3.65
371.085	3.71
371.533	3.77
371.981	3.83
372.429	3.89
372.877	3.95
373.325	4.03
373.773	4.1
374.221	4.17
374.669	4.25
375.116	4.33
375.564	4.41
376.012	4.49
376.459	4.57
376.907	4.65
377.354	4.73
377.801	4.82
378.249	4.91
378.696	4.99
379.143	5.08
379.591	5.17
380.038	5.27
380.485	5.36
380.932	5.45
381.379	5.53
381.826	5.61
382.273	5.69
382.72	5.76
383.166	5.84
383.613	5.93
384.06	6
384.506	6.08
384.953	6.13
385.4	6.2
385.846	6.26
386.292	6.34
386.739	6.41
387.185	6.48
387.631	6.54
388.078	6.6
388.524	6.65
388.97	6.7
389.416	6.75
389.862	6.79
390.308	6.83
390.754	6.87
391.2	6.91
391.645	6.94
392.091	6.98
392.537	7
392.983	7.03
393.428	7.06
393.874	7.1
394.319	7.12
394.765	7.13
395.21	7.14
395.655	7.15
396.101	7.16
396.546	7.16
396.991	7.15
397.436	7.13
397.881	7.12
398.326	7.12
398.771	7.12
399.216	7.12
399.661	7.11
400.106	7.11
400.551	7.09
400.995	7.07
401.44	7.03
401.885	7.03
402.329	7.02
402.774	6.99
403.218	6.96
403.663	6.92
404.107	6.9
404.551	6.88
404.995	6.86
405.44	6.84
405.884	6.82
406.328	6.8
406.772	6.78
407.216	6.76
407.66	6.76
408.104	6.73
408.547	6.71
408.991	6.67
409.435	6.65
409.879	6.63
410.322	6.61
410.766	6.6
411.209	6.57
411.653	6.54
412.096	6.52
412.54	6.48
412.983	6.48
413.426	6.48
413.869	6.48
414.312	6.47
414.756	6.46
415.199	6.44
415.642	6.42
416.085	6.43
416.527	6.42
416.97	6.42
417.413	6.4
417.856	6.36
418.298	6.34
418.741	6.31
419.184	6.27
419.626	6.25
420.069	6.24
420.511	6.22
420.953	6.2
421.396	6.19
421.838	6.19
422.28	6.21
422.722	6.21
423.164	6.21
423.606	6.2
424.048	6.18
424.49	6.18
424.932	6.15
425.374	6.13
425.816	6.11
426.258	6.1
426.699	6.06
427.141	6.04
427.582	6.02
428.024	6.01
428.465	6
428.907	6.01
429.348	5.99
429.789	6
430.231	6.01
430.672	6.01
431.113	6.01
431.554	6.02
431.995	6.01
432.436	6.02
432.877	5.99
433.318	6
433.759	6.01
434.2	6.02
434.64	6.03
435.081	6.01
435.522	6
435.962	6.02
436.403	6.04
436.843	6.06
437.284	6.06
437.724	6.1
438.164	6.11
438.604	6.13
439.045	6.13
439.485	6.15
439.925	6.18
440.365	6.19
440.805	6.18
441.245	6.18
441.685	6.21
442.125	6.24
442.564	6.25
443.004	6.27
443.444	6.29
443.883	6.33
444.323	6.33
444.762	6.36
445.202	6.42
445.641	6.48
446.081	6.53
446.52	6.54
446.959	6.57
447.398	6.64
447.837	6.7
448.276	6.73
448.716	6.78
449.154	6.86
449.593	6.91
450.032	6.94
450.471	6.96
450.91	6.99
451.349	7.03
451.787	7.04
452.226	7.04
452.664	7.03
453.103	7.05
453.541	7.06
453.98	7.05
454.418	7.04
454.856	7.02
455.295	7.01
455.733	7.01
456.171	7
456.609	7.04
457.047	7.05
457.485	7.07
457.923	7.07
458.361	7.08
458.798	7.08
459.236	7.1
459.674	7.12
460.111	7.14
460.549	7.15
460.987	7.17
461.424	7.15
461.862	7.16
462.299	7.15
462.736	7.16
463.173	7.15
463.611	7.16
464.048	7.17
464.485	7.18
464.922	7.18
465.359	7.18
465.796	7.18
466.233	7.19
466.67	7.19
467.106	7.19
467.543	7.19
467.98	7.2
468.416	7.22
468.853	7.22
469.29	7.21
469.726	7.22
470.162	7.22
470.599	7.2
471.035	7.21
471.471	7.2
471.907	7.19
472.344	7.18
472.78	7.19
473.216	7.18
473.652	7.18
474.088	7.19
474.523	7.18
474.959	7.17
475.395	7.18
475.831	7.18
476.266	7.19
476.702	7.2
477.138	7.21
477.573	7.19
478.008	7.18
478.444	7.18
478.879	7.2
479.314	7.2
479.75	7.21
480.185	7.22
480.62	7.24
481.055	7.25
481.49	7.25
481.925	7.26
482.36	7.28
482.795	7.29
483.229	7.31
483.664	7.32
484.099	7.34
484.534	7.36
484.968	7.39
485.403	7.41
485.837	7.44
486.271	7.47
486.706	7.5
487.14	7.54
487.574	7.59
488.009	7.64
488.443	7.67
488.877	7.75
489.311	7.8
489.745	7.87
490.179	7.93
490.613	8
491.046	8.08
491.48	8.16
491.914	8.23
492.348	8.32
492.781	8.4
493.215	8.5
493.648	8.59
494.082	8.69
494.515	8.79
494.948	8.9
495.382	9.03
495.815	9.15
496.248	9.29
496.681	9.42
497.114	9.57
497.547	9.71
497.98	9.86
498.413	10.01
498.846	10.17
499.279	10.34
499.711	10.51
500.144	10.68
500.577	10.85
501.009	11.03
501.442	11.23
501.874	11.44
502.306	11.66
502.739	11.88
503.171	12.11
503.603	12.34
504.036	12.58
504.468	12.83
504.9	13.1
505.332	13.37
505.764	13.65
506.196	13.95
506.627	14.23
507.059	14.52
507.491	14.83
507.923	15.15
508.354	15.48
508.786	15.81
509.217	16.14
509.649	16.49
510.08	16.85
510.512	17.2
510.943	17.55
511.374	17.92
511.805	18.27
512.237	18.64
512.668	19
513.099	19.38
513.53	19.76
513.961	20.15
514.391	20.51
514.822	20.89
515.253	21.27
515.684	21.63
516.114	22.02
516.545	22.41
516.975	22.8
517.406	23.2
517.836	23.56
518.267	23.93
518.697	24.3
519.127	24.67
519.558	25.02
519.988	25.38
520.418	25.73
520.848	26.09
521.278	26.44
521.708	26.87
522.138	27.18
522.567	27.49
522.997	27.81
523.427	28.11
523.857	28.4
524.286	28.71
524.716	28.98
525.145	29.25
525.575	29.5
526.004	29.75
526.433	29.89
526.863	30.13
527.292	30.37
527.721	30.59
528.15	30.78
528.579	30.99
529.008	31.19
529.437	31.37
529.866	31.53
530.295	31.71
530.724	31.89
531.152	32.04
531.581	32.18
532.01	32.32
532.438	32.45
532.867	32.58
533.295	32.69
533.723	32.8
534.152	32.9
534.58	33.01
535.008	33.08
535.436	33.15
535.865	33.24
536.293	33.34
536.721	33.39
537.149	33.45
537.576	33.52
538.004	33.58
538.432	33.64
538.86	33.71
539.287	33.75
539.715	33.82
540.143	33.87
540.57	33.92
540.998	33.97
541.425	34.03
541.852	34.08
542.28	34.1
542.707	34.16
543.134	34.18
543.561	34.19
543.988	34.24
544.415	34.26
544.842	34.29
545.269	34.29
545.696	34.29
546.123	34.3
546.549	34.33
546.976	34.35
547.403	34.34
547.829	34.37
548.256	34.41
548.682	34.41
549.108	34.44
549.535	34.44
549.961	34.45
550.387	34.44
550.813	34.42
551.24	34.41
551.666	34.42
552.092	34.45
552.518	34.43
552.943	34.41
553.369	34.41
553.795	34.39
554.221	34.37
554.646	34.34
555.072	34.34
555.498	34.33
555.923	34.29
556.349	34.24
556.774	34.16
557.199	34.12
557.625	34.06
558.05	33.97
558.475	33.9
558.9	33.82
559.325	33.74
559.75	33.62
560.175	33.52
560.6	33.43
561.025	33.3
561.449	33.18
561.874	33.05
562.299	32.93
562.723	32.8
563.148	32.64
563.572	32.53
563.997	32.4
564.421	32.25
564.846	32.13
565.27	31.99
565.694	31.84
566.118	31.71
566.542	31.58
566.966	31.4
567.39	31.23
567.814	31.09
568.238	30.9
568.662	30.74
569.086	30.58
569.509	30.41
569.933	30.22
570.357	30.04
570.78	29.86
571.204	29.68
571.627	29.53
572.05	29.39
572.474	29.23
572.897	29.08
573.32	28.92
573.743	28.75
574.166	28.6
574.589	28.46
575.012	28.34
575.435	28.2
575.858	28.07
576.281	27.93
576.704	27.8
577.126	27.66
577.549	27.56
577.972	27.46
578.394	27.35
578.817	27.24
579.239	27.13
579.661	27.03
580.084	26.92
580.506	26.82
580.928	26.74
581.35	26.63
581.772	26.55
582.194	26.43
582.616	26.34
583.038	26.27
583.46	26.17
583.882	26.1
584.303	26
584.725	25.91
585.147	25.82
585.568	25.73
585.99	25.66
586.411	25.58
586.833	25.5
587.254	25.43
587.675	25.36
588.096	25.3
588.518	25.21
588.939	25.14
589.36	25.08
589.781	25.01
590.202	24.96
590.623	24.89
591.043	24.82
591.464	24.76
591.885	24.7
592.305	24.62
592.726	24.55
593.147	24.5
593.567	24.44
593.987	24.41
594.408	24.37
594.828	24.32
595.248	24.27
595.669	24.23
596.089	24.19
596.509	24.12
596.929	24.09
597.349	24.05
597.769	24
598.189	23.96
598.608	23.91
599.028	23.86
599.448	23.81
599.867	23.76
600.287	23.7
600.706	23.63
601.126	23.6
601.545	23.56
601.965	23.5
602.384	23.46
602.803	23.4
603.222	23.31
603.641	23.24
604.061	23.19
604.48	23.12
604.898	23.05
605.317	23
605.736	22.91
606.155	22.82
606.574	22.74
606.992	22.65
607.411	22.58
607.829	22.47
608.248	22.39
608.666	22.32
609.085	22.24
609.503	22.15
609.921	22.07
610.339	22
610.758	21.91
611.176	21.83
611.594	21.73
612.012	21.63
612.43	21.59
612.847	21.51
613.265	21.42
613.683	21.32
614.101	21.24
614.518	21.13
614.936	21.05
615.353	20.96
615.771	20.89
616.188	20.81
616.606	20.74
617.023	20.68
617.44	20.59
617.857	20.49
618.274	20.43
618.691	20.38
619.108	20.34
619.525	20.28
619.942	20.24
620.359	20.2
620.776	20.16
621.192	20.12
621.609	20.08
622.026	20.06
622.442	20.04
622.859	20.01
623.275	20
623.691	19.96
624.108	19.95
624.524	19.92
624.94	19.91
625.356	19.89
625.772	19.87
626.188	19.85
626.604	19.83
627.02	19.84
627.436	19.83
627.852	19.8
628.268	19.79
628.683	19.75
629.099	19.74
629.514	19.69
629.93	19.67
630.345	19.61
630.761	19.58
631.176	19.52
631.591	19.46
632.007	19.39
632.422	19.32
632.837	19.22
633.252	19.14
633.667	19.02
634.082	18.92
634.497	18.78
634.911	18.66
635.326	18.5
635.741	18.34
636.155	18.17
636.57	17.99
636.984	17.8
637.399	17.61
637.813	17.41
638.228	17.21
638.642	16.99
639.056	16.79
639.47	16.57
639.884	16.37
640.298	16.16
640.712	15.95
641.126	15.74
641.54	15.53
641.954	15.35
642.368	15.16
642.781	14.97
643.195	14.77
643.609	14.59
644.022	14.41
644.436	14.24
644.849	14.06
645.262	13.89
645.676	13.73
646.089	13.58
646.502	13.42
646.915	13.29
647.328	13.17
647.741	13.06
648.154	12.98
648.567	12.9
648.98	12.82
649.393	12.77
649.805	12.71
650.218	12.66
650.631	12.61
651.043	12.58
651.456	12.53
651.868	12.47
652.28	12.44
652.693	12.37
653.105	12.32
653.517	12.27
653.929	12.21
654.341	12.16
654.753	12.08
655.165	12.02
655.577	11.93
655.989	11.84
656.401	11.74
656.813	11.64
657.224	11.52
657.636	11.41
658.047	11.29
658.459	11.15
658.87	11.02
659.282	10.93
659.693	10.81
660.104	10.69
660.515	10.57
660.926	10.45
661.338	10.33
661.749	10.22
662.159	10.1
662.57	9.99
662.981	9.88
663.392	9.77
663.803	9.64
664.213	9.54
664.624	9.43
665.035	9.33
665.445	9.26
665.855	9.17
666.266	9.1
666.676	9.03
667.086	8.96
667.497	8.9
667.907	8.84
668.317	8.79
668.727	8.75
669.137	8.72
669.547	8.69
669.956	8.66
670.366	8.65
670.776	8.64
671.186	8.63
671.595	8.65
672.005	8.65
672.414	8.68
672.824	8.7
673.233	8.72
673.642	8.73
674.052	8.77
674.461	8.8
674.87	8.83
675.279	8.86
675.688	8.91
676.097	8.97
676.506	9.03
676.915	9.09
677.323	9.18
677.732	9.25
678.141	9.35
678.549	9.46
678.958	9.59
679.366	9.7
679.775	9.86
680.183	10.02
680.592	10.19
681	10.37
681.408	10.57
681.816	10.79
682.224	11.04
682.632	11.32
683.04	11.6
683.448	11.92
683.856	12.27
684.264	12.64
684.671	13.04
685.079	13.45
685.487	13.92
685.894	14.42
686.302	14.95
686.709	15.49
687.116	16.06
687.524	16.67
687.931	17.29
688.338	17.95
688.745	18.62
689.152	19.32
689.559	20.05
689.966	20.77
690.373	21.52
690.78	22.26
691.187	23.04
691.593	23.81
692	24.58
692.407	25.36
692.813	26.14
693.22	26.93
693.626	27.69
694.032	28.44
694.439	29.18
694.845	29.92
695.251	30.67
695.657	31.4
696.063	32.12
696.469	32.82
696.875	33.48
697.281	34.13
697.687	34.81
698.093	35.46
698.498	36.12
698.904	36.78
699.31	37.41
699.715	38.01
700.12	38.56
700.526	39.13
700.931	39.66
701.337	40.24
701.742	40.75
702.147	41.24
702.552	41.75
702.957	42.2
703.362	42.67
703.767	43.12
704.172	43.57
704.577	44.03
704.981	44.47
705.386	44.89
705.791	45.29
706.195	45.69
706.6	46.05
707.004	46.4
707.408	46.76
707.813	47.11
708.217	47.42
708.621	47.76
709.025	48.08
709.43	48.38
709.834	48.7
710.237	48.98
710.641	49.3
711.045	49.6
711.449	49.92
711.853	50.25
712.256	50.54
712.66	50.81
713.064	51.06
713.467	51.34
713.87	51.58
714.274	51.85
714.677	52.11
715.08	52.32
715.484	52.58
715.887	52.81
716.29	53
716.693	53.19
717.096	53.44
717.499	53.64
717.901	53.84
718.304	54.06
718.707	54.24
719.109	54.45
719.512	54.65
719.915	54.82
720.317	54.99
720.719	55.14
721.122	55.31
721.524	55.43
721.926	55.62
722.328	55.76
722.731	55.9
723.133	56.05
723.535	56.21
723.937	56.35
724.338	56.45
724.74	56.57
725.142	56.73
725.544	56.82
725.945	56.96
726.347	57.06
726.748	57.11
727.15	57.21
727.551	57.31
727.952	57.37
728.354	57.47
728.755	57.57
729.156	57.67
729.557	57.73
729.958	57.85
730.359	57.92
730.76	57.98
731.161	58.07
731.562	58.12
731.962	58.17
732.363	58.21
732.763	58.27
733.164	58.31
733.564	58.34
733.965	58.34
734.365	58.35
734.766	58.38
735.166	58.42
735.566	58.47
735.966	58.49
736.366	58.51
736.766	58.56
737.166	58.59
737.566	58.65
737.966	58.68
738.365	58.74
738.765	58.79
739.165	58.79
739.564	58.8
739.964	58.82
740.363	58.89
740.763	58.92
741.162	58.93
741.561	58.94
741.96	58.97
742.36	59.01
742.759	58.98
743.158	58.99
743.557	59.03
743.955	59.06
744.354	59.12
744.753	59.13
745.152	59.14
745.55	59.16
745.949	59.18
746.348	59.17
746.746	59.18
747.144	59.25
747.543	59.29
747.941	59.32
748.339	59.36
748.737	59.35
749.136	59.33
749.534	59.35
749.932	59.35
750.33	59.37
750.727	59.38
751.125	59.36
751.523	59.34
751.921	59.33
752.318	59.33
752.716	59.31
753.113	59.32
753.511	59.32
753.908	59.29
754.305	59.27
754.703	59.23
755.1	59.23
755.497	59.23
755.894	59.23
756.291	59.23
756.688	59.2
757.085	59.17
757.482	59.17
757.878	59.2
758.275	59.23
758.672	59.27
759.068	59.29
759.465	59.28
759.861	59.27
760.258	59.26
760.654	59.25
761.05	59.26
761.447	59.3
761.843	59.25
762.239	59.25
762.635	59.23
763.031	59.2
763.427	59.18
763.822	59.12
764.218	59.1
764.614	59.1
765.01	59.08
765.405	59.05
765.801	59.03
766.196	59.03
766.592	59.01
766.987	59
767.382	58.99
767.778	59
768.173	59.04
768.568	59.05
768.963	59.02
769.358	59.03
769.753	59.06
770.148	59.05
770.542	59.02
770.937	59
771.332	58.99
771.726	58.97
772.121	58.93
772.515	58.89
772.91	58.87
773.304	58.88
773.699	58.83
774.093	58.77
774.487	58.74
774.881	58.73
775.275	58.72
775.669	58.69
776.063	58.68
776.457	58.69
776.851	58.69
777.245	58.69
777.638	58.68
778.032	58.7
778.425	58.78
778.819	58.79
779.212	58.78
779.606	58.77
779.999	58.77
780.392	58.79
780.786	58.81
781.179	58.83
781.572	58.8
781.965	58.78
782.358	58.74
782.751	58.68
783.143	58.66
783.536	58.7
783.929	58.7
784.322	58.73
784.714	58.72
785.107	58.72
785.499	58.68
785.891	58.74
786.284	58.74
786.676	58.77
787.068	58.78
787.46	58.8
787.852	58.79
788.245	58.79
788.636	58.76
789.028	58.75
789.42	58.73
789.812	58.76
790.204	58.73
790.595	58.77
790.987	58.75
791.378	58.76
791.77	58.78
792.161	58.82
792.553	58.87
792.944	58.91
793.335	58.91
793.726	58.9
794.117	58.9
794.508	58.89
794.899	58.83
795.29	58.84
795.681	58.86
796.072	58.87
796.463	58.84
796.853	58.81
797.244	58.8
797.634	58.81
798.025	58.83
798.415	58.84
798.806	58.88
799.196	58.93
799.586	58.93
799.976	58.92
800.366	58.88
800.756	58.88
801.146	58.88
801.536	58.88
801.926	58.88
802.316	58.9
802.706	58.9
803.095	58.9
803.485	58.9
803.874	58.9
804.264	58.95
804.653	58.91
805.043	58.91
805.432	58.9
805.821	58.92
806.21	58.91
806.599	58.93
806.988	58.95
807.377	58.95
807.766	58.93
808.155	58.94
808.544	58.91
808.933	58.95
809.321	58.97
809.71	59
810.098	58.98
810.487	59.01
810.875	59
811.264	59.01
811.652	59.03
812.04	59.03
812.428	59.07
812.816	59.12
813.204	59.15
813.592	59.15
813.98	59.15
814.368	59.14
814.756	59.15
815.144	59.13
815.531	59.12
815.919	59.12
816.306	59.12
816.694	59.12
817.081	59.12
817.469	59.11
817.856	59.16
818.243	59.17
818.63	59.24
819.017	59.28
819.404	59.3
819.791	59.34
820.178	59.34
820.565	59.36
820.952	59.37
821.339	59.38
821.725	59.44
822.112	59.44
822.498	59.44
822.885	59.43
823.271	59.45
823.657	59.47
824.044	59.48
824.43	59.53
824.816	59.56
825.202	59.57
825.588	59.59
825.974	59.56
826.36	59.53
826.746	59.57
827.132	59.54
827.517	59.51
827.903	59.51
828.289	59.49
828.674	59.46
829.06	59.46
829.445	59.48
829.83	59.49
830.216	59.52
830.601	59.55
830.986	59.52
831.371	59.57
831.756	59.57
832.141	59.61
832.526	59.63
832.911	59.65
833.295	59.63
833.68	59.64
834.065	59.65
834.449	59.63
834.834	59.64
835.218	59.65
835.603	59.66
835.987	59.66
836.371	59.63
836.755	59.62
837.139	59.63
837.524	59.64
837.908	59.6
838.291	59.58
838.675	59.56
839.059	59.53
839.443	59.52
839.827	59.53
840.21	59.55
840.594	59.57
840.977	59.56
841.361	59.56
841.744	59.56
842.127	59.57
842.511	59.58
842.894	59.58
843.277	59.59
843.66	59.59
844.043	59.58
844.426	59.57
844.809	59.56
845.191	59.54
845.574	59.51
845.957	59.49
846.339	59.49
846.722	59.48
847.104	59.49
847.487	59.49
847.869	59.51
848.252	59.48
848.634	59.49
849.016	59.5
849.398	59.54
849.78	59.6
850.162	59.67
850.544	59.68
850.926	59.7
851.307	59.7
851.689	59.69
852.071	59.67
852.452	59.69
852.834	59.65
853.215	59.65
853.597	59.65
853.978	59.61
854.359	59.54
854.741	59.51
855.122	59.51
855.503	59.53
855.884	59.51
856.265	59.52
856.646	59.51
857.026	59.54
857.407	59.5
857.788	59.5
858.169	59.5
858.549	59.54
858.93	59.55
859.31	59.51
859.69	59.49
860.071	59.52
860.451	59.52
860.831	59.52
861.211	59.51
861.591	59.54
861.971	59.55
862.351	59.55
862.731	59.51
863.111	59.52
863.491	59.53
863.87	59.53
864.25	59.56
864.629	59.56
865.009	59.54
865.388	59.52
865.768	59.52
866.147	59.5
866.526	59.5
866.905	59.54
867.284	59.53
867.663	59.55
868.042	59.55
868.421	59.52
868.8	59.53
869.179	59.53
869.558	59.55
869.936	59.55
870.315	59.56
870.693	59.56
871.072	59.52
871.45	59.54
871.828	59.53
872.207	59.57
872.585	59.55
872.963	59.51
873.341	59.52
873.719	59.53
874.097	59.52
874.475	59.53
874.853	59.51
875.23	59.51
875.608	59.5
875.986	59.5
876.363	59.48
876.741	59.52
877.118	59.51
877.495	59.53
877.873	59.54
878.25	59.54
878.627	59.54
879.004	59.53
879.381	59.56
879.758	59.56
880.135	59.54
880.512	59.55
880.889	59.52
881.265	59.58
881.642	59.58
882.019	59.59
882.395	59.59
882.772	59.58
883.148	59.61
883.524	59.62
883.901	59.6
884.277	59.61
884.653	59.6
885.029	59.61
885.405	59.58
885.781	59.54
886.157	59.52
886.532	59.49
886.908	59.52
887.284	59.52
887.659	59.51
888.035	59.51
888.411	59.49
888.786	59.48
889.161	59.49
889.537	59.51
889.912	59.5
890.287	59.5
890.662	59.53
891.037	59.49
891.412	59.48
891.787	59.48
892.162	59.48
892.536	59.49
892.911	59.48
893.286	59.43
893.66	59.42
894.035	59.45
894.409	59.42
894.784	59.39
895.158	59.4
895.532	59.38
895.906	59.36
896.281	59.34
896.655	59.33
897.029	59.31
897.402	59.34
897.776	59.33
898.15	59.34
898.524	59.35
898.898	59.35
899.271	59.34
899.645	59.32
900.018	59.28
900.392	59.31
900.765	59.33
901.138	59.35
901.511	59.32
901.884	59.31
902.258	59.26
902.631	59.27
903.003	59.27
903.376	59.27
903.749	59.29
904.122	59.31
904.495	59.27
904.867	59.24
905.24	59.25
905.612	59.22
905.985	59.15
906.357	59.13
906.729	59.09
907.102	59.06
907.474	59.04
907.846	59.01
908.218	58.96
908.59	58.92
908.962	58.94
909.334	58.87
909.705	58.88
910.077	58.9
910.449	58.89
910.82	58.84
911.192	58.84
911.563	58.81
911.935	58.79
912.306	58.81
912.677	58.8
913.048	58.77
913.419	58.76
913.79	58.76
914.161	58.78
914.532	58.78
914.903	58.8
915.274	58.79
915.645	58.78
916.015	58.77
916.386	58.73
916.756	58.69
917.127	58.69
917.497	58.69
917.868	58.66
918.238	58.67
918.608	58.65
918.978	58.63
919.348	58.58
919.718	58.63
920.088	58.65
920.458	58.67
920.828	58.72
921.198	58.75
921.567	58.73
921.937	58.72
922.306	58.67
922.676	58.68
923.045	58.67
923.415	58.69
923.784	58.69
924.153	58.68
924.522	58.65
924.891	58.61
925.26	58.52
925.629	58.52
925.998	58.53
926.367	58.52
926.736	58.5
927.104	58.51
927.473	58.5
927.842	58.44
928.21	58.41
928.578	58.4
928.947	58.39
929.315	58.42
929.683	58.44
930.051	58.39
930.42	58.42
930.788	58.39
931.156	58.38
931.523	58.35
931.891	58.32
932.259	58.27
932.627	58.22
932.994	58.19
933.362	58.16
933.729	58.06
934.097	58
934.464	57.96
934.831	57.88
935.199	57.79
935.566	57.73
935.933	57.66
936.3	57.58
936.667	57.53
937.034	57.42
937.401	57.35
937.767	57.31
938.134	57.29
938.501	57.18
938.867	57.24
939.234	57.19
939.6	57.1
939.967	57.03
940.333	57.07
940.699	57.16
941.065	57.24
941.431	57.26
941.798	57.33
942.163	57.42
942.529	57.54
942.895	57.5
943.261	57.52
943.627	57.61
943.992	57.68
944.358	57.65
944.723	57.59
945.089	57.63
945.454	57.61
945.82	57.48
946.185	57.45
946.55	57.45
946.915	57.43
947.28	57.45
947.645	57.47
948.01	57.55
948.375	57.61
948.74	57.63
949.104	57.69
949.469	57.58
949.834	57.6
950.198	57.51
950.562	57.37
950.927	57.4
951.291	57.38
951.655	57.35
952.02	57.29
952.384	57.29
952.748	57.24
953.112	57.12
953.476	57.22
953.839	57.2
954.203	57.23
954.567	57.23
954.931	57.19
955.294	57.13
955.658	57.11
956.021	57.15
956.385	57.1
956.748	57.09
957.111	57.05
957.474	57.02
957.837	57.05
958.2	56.95
958.563	56.9
958.926	56.87
959.289	56.95
959.652	56.9
960.015	56.78
960.377	56.85
960.74	56.82
961.102	56.82
961.465	56.81
961.827	56.76
962.189	56.82
962.552	56.85
962.914	56.76
963.276	56.66
963.638	56.63
964	56.66
964.362	56.55
964.724	56.52
965.085	56.55
965.447	56.49
965.809	56.49
966.17	56.48
966.532	56.5
966.893	56.51
967.255	56.41
967.616	56.4
967.977	56.37
968.338	56.36
968.699	56.4
969.061	56.34
969.421	56.35
969.782	56.35
970.143	56.3
970.504	56.24
970.865	56.17
971.225	56.3
971.586	56.32
971.946	56.34
972.307	56.33
972.667	56.33
973.027	56.35
973.388	56.36
973.748	56.38
974.108	56.4
974.468	56.43
974.828	56.52
975.188	56.46
975.548	56.48
975.907	56.43
976.267	56.45
976.627	56.34
976.986	56.29
977.346	56.31
977.705	56.29
978.064	56.3
978.424	56.26
978.783	56.21
979.142	56.19
979.501	56.13
979.86	56.11
980.219	56.06
980.578	56.1
980.937	56.18
981.296	56.18
981.654	56.17
982.013	56.13
982.371	56.1
982.73	56.06
983.088	56.05
983.447	56.1
983.805	56.25
984.163	56.21
984.521	56.07
984.879	55.99
985.237	55.99
985.595	55.95
985.953	55.9
986.311	55.88
986.669	55.88
987.026	55.95
987.384	55.97
987.741	55.82
988.099	55.86
988.456	55.97
988.814	56.02
989.171	55.87
989.528	55.72
989.885	55.72
990.242	55.76
990.599	55.83
990.956	55.78
991.313	55.72
991.67	55.72
992.027	55.71
992.383	55.73
992.74	55.61
993.096	55.52
993.453	55.66
993.809	55.67
994.165	55.67
994.522	55.73
994.878	55.67
995.234	55.5
995.59	55.43
995.946	55.36
996.302	55.3
996.658	55.24
997.013	55.42
997.369	55.43
997.725	55.41
998.08	55.23
998.436	55.14
998.791	55.04
999.147	55.09
999.502	55.13
999.857	55.09
1000.212	54.95
1000.567	55.01
1000.922	54.84
1001.277	54.7
1001.632	54.71
1001.987	54.74
1002.342	54.58
1002.696	54.8
1003.051	54.71
1003.406	54.57
1003.76	54.61
1004.114	54.77
1004.469	54.69
1004.823	54.71
1005.177	54.85
1005.531	54.79
1005.885	54.7
1006.239	54.73
1006.593	54.49
1006.947	54.6
1007.301	54.65
1007.655	54.57
1008.008	54.38
1008.362	54.38
1008.715	54.21
1009.069	53.87
1009.422	53.74
1009.776	53.82
1010.129	53.63
1010.482	53.52
1010.835	53.45
1011.188	53.34
1011.541	53.18
1011.894	53.25
1012.247	53.2
1012.6	53.19
1012.952	53.21
1013.305	53.09
1013.657	52.86
1014.01	53.16
1014.362	53.47
1014.715	53.49
1015.067	53.59
1015.419	53.74
1015.771	53.48
1016.123	53.27
1016.475	53.53
1016.827	53.73
1017.179	53.9
1017.531	54.11
1017.883	53.99
1018.234	53.8
1018.586	53.54
1018.938	53.27
1019.289	53.04
1019.64	53.43
1019.992	53.73
1020.343	53.41
1020.694	52.9
1021.045	52.63
1021.396	52.24
1021.747	52.1
1022.098	52.09
1022.449	52.06
1022.8	52.22
1023.151	52.21
1023.501	51.89
1023.852	51.38
1024.202	51.14
1024.553	51.51
1024.903	51.94
1025.253	52.51
1025.604	52.46
1025.954	51.95
1026.304	52.1
1026.654	51.92
1027.004	52.35
1027.354	52.2
1027.703	52.34
1028.053	52.5
1028.403	52.69
1028.753	52.28
1029.102	51.68
1029.452	51.45
1029.801	51.52
1030.15	51.39
1030.499	51.36
897.758	657.75
901.051	663.17
904.343	670.24
907.636	661.28
910.928	648.61
914.22	659.55
917.511	647.91
920.803	619.3
924.094	595.1
927.384	600.98
930.675	579
933.965	572.73
937.255	571.83
940.544	547.37
943.834	521.6
947.123	512.7
950.411	487.37
953.7	476.74
956.988	462.56
960.276	442.81
963.563	431.96
966.851	411.04
970.138	405.08
973.424	379.52
976.711	372.95
979.997	361.34
983.283	354.82
986.568	342.48
989.853	331.53
993.138	320.76
996.423	315.32
999.708	308.8
1002.992	309.13
1006.275	298.37
1009.559	296.79
1012.842	287.44
1016.125	279.24
1019.408	274.03
1022.69	271.38
1025.972	270.74
1029.254	262.91
1032.536	258.46
1035.817	249.32
1039.098	245.66
1042.379	241.8
1045.659	236.99
1048.939	236.09
1052.219	230.62
1055.498	226.42
1058.778	222.59
1062.057	218.35
1065.335	217.33
1068.614	213.87
1071.892	211.94
1075.17	207.2
1078.447	204.37
1081.724	202.78
1085.001	199
1088.278	199.62
1091.554	197.54
1094.83	196.16
1098.106	193.02
1101.382	192.39
1104.657	190.36
1107.932	189.63
1111.206	189.34
1114.481	186.72
1117.755	185.6
1121.029	184.63
1124.302	181.57
1127.575	179.56
1130.848	178.96
1134.121	176.37
1137.393	175.25
1140.665	174.31
1143.937	172.69
1147.208	170.15
1150.48	168.7
1153.75	167.95
1157.021	166.15
1160.291	165.94
1163.561	165.66
1166.831	163.35
1170.101	164.07
1173.37	162.96
1176.639	161.69
1179.907	160.66
1183.176	160.95
1186.444	160.98
1189.711	159.43
1192.979	161.21
1196.246	161.04
1199.513	160.26
1202.78	160.74
1206.046	159.97
1209.312	160.69
1212.578	162.1
1215.843	164.34
1219.108	165.04
1222.373	167.97
1225.638	171.1
1228.902	174.49
1232.166	179.73
1235.43	182.3
1238.693	188.15
1241.956	192.12
1245.219	196.93
1248.482	197.9
1251.744	197.33
1255.006	199
1258.268	194.17
1261.529	192.26
1264.79	186.39
1268.051	182.45
1271.312	180.92
1274.572	176.45
1277.832	173
1281.092	170.92
1284.351	167.73
1287.61	168.11
1290.869	165.38
1294.128	164.82
1297.386	164.44
1300.644	164.06
1303.902	163.32
1307.159	163.05
1310.416	163.65
1313.673	165.32
1316.93	166.23
1320.186	168.76
1323.442	170.33
1326.697	174.15
1329.953	176.28
1333.208	181.87
1336.463	189.12
1339.717	192.25
1342.972	201.36
1346.226	207.95
1349.479	209.55
1352.733	218.74
1355.986	223.81
1359.238	228.69
1362.491	232.13
1365.743	240.42
1368.995	241.3
1372.247	242.23
1375.498	241.54
1378.749	249.2
1382	246.59
1385.251	246.4
1388.501	246.11
1391.751	249.28
1395	247.11
1398.25	247.9
1401.499	247.89
1404.748	247.8
1407.996	242.44
1411.244	242.9
1414.492	237.92
1417.74	234.66
1420.987	228.45
1424.234	223.43
1427.481	214.9
1430.728	209.65
1433.974	202.54
1437.22	194.1
1440.465	188.14
1443.711	181.86
1446.956	176.75
1450.201	170.14
1453.445	161.56
1456.689	158.08
1459.933	152.59
1463.177	146.24
1466.42	143.37
1469.663	139.66
1472.906	136.2
1476.148	132.02
1479.391	129.26
1482.633	127.04
1485.874	125.22
1489.115	124.76
1492.356	121.06
1495.597	119.73
1498.838	118.91
1502.078	117.88
1505.318	117.24
1508.557	116.58
1511.797	115.33
1515.036	115.25
1518.274	114.66
1521.513	112.66
1524.751	111.93
1527.989	113.86
1531.227	113.36
1534.464	113.28
1537.701	112.55
1540.938	112.2
1544.174	111.78
1547.41	112.2
1550.646	111.69
1553.882	111.65
1557.117	111.52
1560.352	111.31
1563.587	109.62
1566.821	109.71
1570.055	109.44
1573.289	109.02
1576.523	108.7
1579.756	108.65
1582.989	108.72
1586.222	108.35
1589.454	107.99
1592.686	108.34
1595.918	108.07
1599.15	108.31
1602.381	108.03
1605.612	107.95
1608.843	107.94
1612.073	108.73
1615.303	108.77
1618.533	108.1
1621.762	108.76
1624.992	108.64
1628.221	108.27
1631.449	108.89
1634.678	108.35
1637.906	108.82
1641.134	108.73
1644.361	109.01
1647.588	109.02
1650.815	109.06
1654.042	108.71
1657.269	108.35
1660.495	109.26
1663.72	108.99
1666.946	108.98
1670.171	109.9
1673.396	110.31
1676.621	110.9
1679.845	110.98
1683.069	110.26
1686.293	109.99
1689.517	111.05
1692.74	110.94
1695.963	110.84
1699.185	111.9
1702.408	112
1705.63	112
1708.852	112.24
1712.073	111.91
1715.294	111.95
1718.515	112.9
1721.736	113.4
1724.956	113.3
1728.176	113.52
1731.396	113.85
1734.616	113.74
1737.835	113.85
1741.054	114.04
1744.272	113.86
1747.491	113.95
1750.709	114.39
1753.927	114.45
1757.144	114.97
1760.361	115.15
1763.578	115.28
1766.795	116.07
1770.011	115.79
1773.227	116.52
1776.443	117.22
1779.658	117.43
1782.874	118.35
1786.089	118.96
1789.303	119.1
1792.518	119.66
1795.732	120.46
1798.945	121.99
1802.159	121.82
1805.372	123.86
1808.585	124.32
1811.797	125.47
1815.01	126.2
1818.222	127.01
1821.434	127.95
1824.645	128.85
1827.856	130.5
1831.067	130.75
1834.278	131.98
1837.488	133.51
1840.698	134.05
1843.908	134.28
1847.117	135.41
1850.326	136.87
1853.535	136.83
1856.744	137.78
1859.952	139.65
1863.16	139.48
1866.368	139.69
1869.575	139.99
1872.782	139.26
1875.989	137.63
1879.196	137.78
1882.402	136.19
1885.608	136.89
1888.814	137.08
1892.019	137.3
1895.224	135.14
1898.429	135.05
1901.634	136.59
1904.838	135.78
1908.042	136.31
1911.246	137.34
1914.449	137.3
1917.652	137.82
1920.855	137.96
1924.058	136.93
1927.26	136.72
1930.462	137.1
1933.664	137.61
1936.865	136.95
1940.066	136.53
1943.267	135.33
1946.467	136.48
1949.668	136.39
1952.868	137.12
1956.067	136.35
1959.267	138.67
1962.466	139.01
1965.665	139.88
1968.863	141.73
1972.061	141.82
1975.259	145.18
1978.457	146.97
1981.654	148.1
1984.852	150.03
1988.048	151.17
1991.245	154.04
1994.441	155.13
1997.637	158.19
2000.833	163.04
2004.028	163.14
2007.223	169.03
2010.418	172.68
2013.613	178.83
2016.807	183.63
2020.001	187.28
2023.194	193.38
2026.388	199.62
2029.581	209.75
2032.774	216.52
2035.966	222.68
2039.158	230.09
2042.35	232.57
2045.542	235.72
2048.733	246.72
2051.924	248.49
2055.115	252.51
2058.306	254.58
2061.496	259.45
2064.686	260.73
2067.875	258.95
2071.065	259.49
2074.254	260.47
2077.442	268.63
2080.631	272.07
2083.819	271.64
2087.007	277.32
2090.195	282.44
2093.382	282.04
2096.569	281.51
2099.756	286.68
2102.942	293.02
2106.128	300.17
2109.314	302.41
2112.5	302.59
2115.685	299.71
2118.87	300.27
2122.055	302.12
2125.239	308.36
2128.424	315.57
2131.608	312.79
2134.791	311.76
2137.974	313.73
2141.157	315.78
2144.34	318.77
2147.523	323.65
2150.705	332.9
2153.887	328.77
2157.068	332.56
2160.25	335.01
2163.431	334.25
2166.611	342.85
2169.792	349.09
2172.972	353.54
2176.152	354.25
2179.331	362.07
2182.511	362.71
2185.69	367.37
2188.868	385.45
2192.047	391.85
2195.225	394.85
2198.403	401.3
2201.58	394.78
2204.758	408.24
2207.935	411.04
2211.111	417.07
2214.288	418.56
2217.464	423.86
2220.64	424.51
2223.815	424.59
2226.991	420.03
2230.166	424.5
2233.34	438.94
2236.515	449.72
2239.689	444.33
2242.863	452.53
2246.036	450.32
2249.209	459.18
2252.382	458.53
2255.555	476.49
2258.727	476.98
2261.9	493.36
2265.071	499.71
2268.243	495.41
2271.414	513
2274.585	520.96
2277.756	522.79
2280.926	539.66
2284.096	542.86
2287.266	544.85
2290.436	530.76
2293.605	544.52
2296.774	562.34
2299.942	560.68
2303.111	573.35
2306.279	582.01
2309.447	588.04
2312.614	589.76
2315.781	606.38
2318.948	617.09
2322.115	629.97
2325.281	665.3
2328.447	660.98
2331.613	661.33
2334.779	675.85
2337.944	685.13
2341.109	700.16
2344.274	704.45
2347.438	725.52
2350.602	732.2
2353.766	774.15
2356.929	778.12
2360.092	786.54
2363.255	788.31
2366.418	799.55
2369.58	815.73
2372.742	813.5
2375.904	806.63
2379.066	830.8
2382.227	873.16
2385.388	875.42
2388.548	828.07
2391.709	821.67
2394.869	850.1
2398.029	853.22
2401.188	851.12
2404.347	875.19
2407.506	906.67
2410.665	878.62
2413.823	879.81
2416.981	878.98
2420.139	831.89
2423.296	904.01
2426.453	960.73
2429.61	913.74
2432.767	976.93
2435.923	1018.4
2439.079	972.56
2442.235	1002.54
2445.391	1021.2
2448.546	1014.47
2451.701	1066.77
2454.855	1146.94
2458.009	1005.4
2461.163	1022.59
2464.317	1034.25
2467.471	1012.06
2470.624	1038.47
2473.777	1035.34
2476.929	1000.14
2480.082	1073.06
2483.234	1122.08
2486.385	1133.18
2489.537	1159.29
2492.688	1283.06
2495.839	1267.31
2498.989	1300.33
2502.14	1305.45
2505.29	1243.55
2508.439	1388.3
2511.589	1415.5
2514.738	1363.01
2517.887	1353.09
2521.035	1275.99
2524.183	1263.24
2527.331	1246.94
2530.479	1210.2
2533.627	1242.86
