Data from N_1_dec_oh_4n_013_Splice17_09.txt Node
Date: Sat Feb 29 13:38:29 EST 2020
User: sa697716
Spectrometer: FLMS03696
Trigger mode: 0
Integration Time (sec): 3.180400E-1
Scans to average: 20
Electric dark correction enabled: true
Nonlinearity correction enabled: true
Boxcar width: 5
XAxis mode: Wavelengths
Number of Pixels in Spectrum: 2048
>>>>>Begin Spectral Data<<<<<
187.83	72.56
188.298	66.83
188.766	56.69
189.233	53.83
189.701	65.32
190.169	66.53
190.636	61.45
191.104	43.41
191.571	-65.3
192.039	22.41
192.506	396.72
192.974	1173.48
193.441	280.31
193.908	-1.77
194.375	-60.29
194.842	-49.02
195.31	34.78
195.777	44.57
196.244	37.62
196.711	25.09
197.177	22.02
197.644	22.33
198.111	22.18
198.578	21.62
199.045	21.57
199.511	22.2
199.978	22.83
200.445	22.57
200.911	22.9
201.378	22.75
201.844	23.42
202.31	24.3
202.777	24.44
203.243	25.15
203.709	25.85
204.176	25.81
204.642	25.48
205.108	25.26
205.574	25.39
206.04	24.98
206.506	24.41
206.972	23.95
207.438	23.42
207.903	23.5
208.369	22.93
208.835	22.62
209.301	22.56
209.766	22.66
210.232	22.86
210.697	22.74
211.163	22.56
211.628	22.61
212.094	22.49
212.559	22.41
213.024	22.03
213.49	21.35
213.955	21.05
214.42	20.63
214.885	20.13
215.35	19.52
215.815	18.55
216.28	17.78
216.745	17.05
217.21	16.29
217.675	15.5
218.14	14.76
218.604	14.14
219.069	13.6
219.534	13.07
219.998	12.55
220.463	12.22
220.927	11.96
221.392	11.72
221.856	11.44
222.32	11.2
222.785	11
223.249	10.78
223.713	10.64
224.177	10.45
224.642	10.3
225.106	10.14
225.57	9.97
226.034	9.84
226.497	9.66
226.961	9.53
227.425	9.37
227.889	9.22
228.353	9.09
228.816	8.96
229.28	8.8
229.744	8.7
230.207	8.61
230.671	8.48
231.134	8.36
231.597	8.24
232.061	8.13
232.524	8.03
232.987	7.93
233.45	7.83
233.914	7.75
234.377	7.68
234.84	7.59
235.303	7.49
235.766	7.41
236.229	7.32
236.691	7.26
237.154	7.17
237.617	7.11
238.08	7.03
238.542	6.95
239.005	6.87
239.468	6.79
239.93	6.72
240.393	6.65
240.855	6.58
241.317	6.53
241.78	6.47
242.242	6.42
242.704	6.36
243.166	6.29
243.629	6.25
244.091	6.2
244.553	6.14
245.015	6.09
245.477	6.04
245.939	5.98
246.4	5.92
246.862	5.87
247.324	5.83
247.786	5.77
248.247	5.73
248.709	5.67
249.17	5.62
249.632	5.57
250.093	5.52
250.555	5.48
251.016	5.45
251.477	5.41
251.939	5.38
252.4	5.33
252.861	5.3
253.322	5.27
253.783	5.26
254.244	5.23
254.705	5.2
255.166	5.19
255.627	5.16
256.088	5.12
256.549	5.1
257.009	5.07
257.47	5.05
257.931	5.02
258.391	4.97
258.852	4.93
259.312	4.9
259.773	4.87
260.233	4.83
260.694	4.8
261.154	4.77
261.614	4.75
262.074	4.72
262.534	4.68
262.994	4.66
263.455	4.64
263.915	4.62
264.374	4.59
264.834	4.56
265.294	4.53
265.754	4.51
266.214	4.48
266.673	4.46
267.133	4.43
267.593	4.41
268.052	4.39
268.512	4.37
268.971	4.35
269.431	4.33
269.89	4.31
270.349	4.3
270.809	4.28
271.268	4.27
271.727	4.25
272.186	4.24
272.645	4.22
273.104	4.21
273.563	4.19
274.022	4.17
274.481	4.16
274.94	4.14
275.399	4.13
275.857	4.11
276.316	4.09
276.775	4.07
277.233	4.06
277.692	4.04
278.15	4.02
278.609	4
279.067	3.98
279.525	3.97
279.984	3.96
280.442	3.95
280.9	3.94
281.358	3.94
281.816	3.93
282.274	3.91
282.732	3.89
283.19	3.88
283.648	3.88
284.106	3.87
284.564	3.85
285.021	3.84
285.479	3.82
285.937	3.8
286.394	3.78
286.852	3.77
287.309	3.77
287.767	3.76
288.224	3.75
288.682	3.74
289.139	3.74
289.596	3.73
290.053	3.72
290.511	3.69
290.968	3.68
291.425	3.67
291.882	3.66
292.339	3.64
292.796	3.62
293.252	3.61
293.709	3.59
294.166	3.57
294.623	3.56
295.079	3.55
295.536	3.54
295.992	3.53
296.449	3.52
296.905	3.5
297.362	3.49
297.818	3.48
298.274	3.47
298.731	3.46
299.187	3.46
299.643	3.45
300.099	3.44
300.555	3.42
301.011	3.41
301.467	3.41
301.923	3.39
302.379	3.39
302.835	3.38
303.291	3.38
303.746	3.36
304.202	3.35
304.658	3.34
305.113	3.33
305.569	3.33
306.024	3.32
306.479	3.31
306.935	3.31
307.39	3.31
307.845	3.3
308.301	3.3
308.756	3.3
309.211	3.31
309.666	3.31
310.121	3.31
310.576	3.3
311.031	3.3
311.486	3.3
311.94	3.28
312.395	3.29
312.85	3.28
313.305	3.28
313.759	3.27
314.214	3.26
314.668	3.25
315.123	3.24
315.577	3.24
316.032	3.24
316.486	3.23
316.94	3.23
317.394	3.21
317.849	3.2
318.303	3.2
318.757	3.18
319.211	3.17
319.665	3.17
320.119	3.17
320.572	3.17
321.026	3.16
321.48	3.15
321.934	3.15
322.387	3.13
322.841	3.13
323.295	3.12
323.748	3.12
324.202	3.11
324.655	3.1
325.108	3.09
325.562	3.07
326.015	3.06
326.468	3.05
326.921	3.04
327.374	3.04
327.827	3.04
328.28	3.02
328.733	3.01
329.186	3.02
329.639	3.02
330.092	3.02
330.545	3.02
330.997	3.01
331.45	3.01
331.903	3.01
332.355	3.01
332.808	3.01
333.26	3
333.713	3.01
334.165	2.99
334.617	3
335.069	2.99
335.522	2.99
335.974	3
336.426	3
336.878	2.99
337.33	2.99
337.782	2.99
338.234	2.98
338.686	2.97
339.137	2.97
339.589	2.96
340.041	2.95
340.493	2.93
340.944	2.92
341.396	2.91
341.847	2.91
342.299	2.89
342.75	2.88
343.201	2.87
343.653	2.86
344.104	2.85
344.555	2.84
345.006	2.84
345.457	2.84
345.908	2.84
346.359	2.84
346.81	2.84
347.261	2.84
347.712	2.84
348.163	2.84
348.613	2.84
349.064	2.82
349.515	2.82
349.965	2.81
350.416	2.8
350.866	2.79
351.317	2.78
351.767	2.77
352.217	2.77
352.668	2.77
353.118	2.77
353.568	2.78
354.018	2.8
354.468	2.81
354.918	2.82
355.368	2.82
355.818	2.82
356.268	2.84
356.718	2.84
357.168	2.84
357.617	2.84
358.067	2.84
358.517	2.84
358.966	2.86
359.416	2.86
359.865	2.86
360.315	2.88
360.764	2.9
361.213	2.9
361.663	2.92
362.112	2.95
362.561	2.97
363.01	3
363.459	3.02
363.908	3.04
364.357	3.07
364.806	3.11
365.255	3.15
365.703	3.17
366.152	3.2
366.601	3.24
367.05	3.29
367.498	3.33
367.947	3.37
368.395	3.42
368.844	3.47
369.292	3.51
369.74	3.56
370.189	3.61
370.637	3.67
371.085	3.74
371.533	3.79
371.981	3.86
372.429	3.92
372.877	3.98
373.325	4.04
373.773	4.12
374.221	4.19
374.669	4.28
375.116	4.34
375.564	4.42
376.012	4.5
376.459	4.59
376.907	4.66
377.354	4.74
377.801	4.82
378.249	4.93
378.696	5.01
379.143	5.09
379.591	5.16
380.038	5.26
380.485	5.34
380.932	5.42
381.379	5.49
381.826	5.59
382.273	5.67
382.72	5.75
383.166	5.82
383.613	5.91
384.06	5.99
384.506	6.08
384.953	6.15
385.4	6.23
385.846	6.3
386.292	6.38
386.739	6.43
387.185	6.5
387.631	6.56
388.078	6.63
388.524	6.67
388.97	6.72
389.416	6.77
389.862	6.81
390.308	6.85
390.754	6.89
391.2	6.93
391.645	6.97
392.091	7
392.537	7.03
392.983	7.05
393.428	7.09
393.874	7.13
394.319	7.15
394.765	7.15
395.21	7.15
395.655	7.17
396.101	7.18
396.546	7.18
396.991	7.19
397.436	7.18
397.881	7.18
398.326	7.19
398.771	7.19
399.216	7.2
399.661	7.21
400.106	7.2
400.551	7.18
400.995	7.16
401.44	7.13
401.885	7.11
402.329	7.09
402.774	7.06
403.218	7.04
403.663	6.99
404.107	6.96
404.551	6.92
404.995	6.89
405.44	6.85
405.884	6.82
406.328	6.8
406.772	6.78
407.216	6.78
407.66	6.76
408.104	6.74
408.547	6.72
408.991	6.69
409.435	6.67
409.879	6.66
410.322	6.64
410.766	6.62
411.209	6.61
411.653	6.57
412.096	6.54
412.54	6.51
412.983	6.5
413.426	6.5
413.869	6.48
414.312	6.47
414.756	6.47
415.199	6.46
415.642	6.45
416.085	6.45
416.527	6.45
416.97	6.45
417.413	6.44
417.856	6.42
418.298	6.39
418.741	6.37
419.184	6.34
419.626	6.31
420.069	6.31
420.511	6.3
420.953	6.27
421.396	6.26
421.838	6.25
422.28	6.26
422.722	6.26
423.164	6.24
423.606	6.24
424.048	6.23
424.49	6.24
424.932	6.21
425.374	6.19
425.816	6.17
426.258	6.16
426.699	6.13
427.141	6.09
427.582	6.08
428.024	6.08
428.465	6.06
428.907	6.06
429.348	6.05
429.789	6.05
430.231	6.04
430.672	6.05
431.113	6.03
431.554	6.04
431.995	6.06
432.436	6.04
432.877	6.03
433.318	6.03
433.759	6.04
434.2	6.05
434.64	6.06
435.081	6.06
435.522	6.08
435.962	6.11
436.403	6.12
436.843	6.13
437.284	6.15
437.724	6.19
438.164	6.2
438.604	6.22
439.045	6.22
439.485	6.24
439.925	6.26
440.365	6.23
440.805	6.23
441.245	6.23
441.685	6.27
442.125	6.28
442.564	6.29
443.004	6.31
443.444	6.35
443.883	6.39
444.323	6.39
444.762	6.45
445.202	6.51
445.641	6.55
446.081	6.62
446.52	6.63
446.959	6.67
447.398	6.72
447.837	6.79
448.276	6.81
448.716	6.84
449.154	6.89
449.593	6.92
450.032	6.96
450.471	6.99
450.91	7.01
451.349	7.05
451.787	7.07
452.226	7.1
452.664	7.09
453.103	7.13
453.541	7.15
453.98	7.17
454.418	7.17
454.856	7.16
455.295	7.17
455.733	7.18
456.171	7.17
456.609	7.17
457.047	7.17
457.485	7.19
457.923	7.18
458.361	7.16
458.798	7.18
459.236	7.21
459.674	7.22
460.111	7.23
460.549	7.23
460.987	7.24
461.424	7.25
461.862	7.24
462.299	7.24
462.736	7.25
463.173	7.25
463.611	7.25
464.048	7.24
464.485	7.24
464.922	7.23
465.359	7.23
465.796	7.22
466.233	7.22
466.67	7.23
467.106	7.23
467.543	7.22
467.98	7.22
468.416	7.23
468.853	7.22
469.29	7.22
469.726	7.23
470.162	7.21
470.599	7.2
471.035	7.22
471.471	7.23
471.907	7.23
472.344	7.23
472.78	7.25
473.216	7.25
473.652	7.25
474.088	7.26
474.523	7.26
474.959	7.26
475.395	7.27
475.831	7.27
476.266	7.26
476.702	7.25
477.138	7.26
477.573	7.24
478.008	7.25
478.444	7.25
478.879	7.25
479.314	7.26
479.75	7.27
480.185	7.29
480.62	7.3
481.055	7.31
481.49	7.31
481.925	7.31
482.36	7.32
482.795	7.33
483.229	7.34
483.664	7.37
484.099	7.39
484.534	7.41
484.968	7.43
485.403	7.45
485.837	7.48
486.271	7.52
486.706	7.56
487.14	7.61
487.574	7.65
488.009	7.7
488.443	7.75
488.877	7.81
489.311	7.87
489.745	7.93
490.179	8
490.613	8.07
491.046	8.16
491.48	8.23
491.914	8.31
492.348	8.4
492.781	8.47
493.215	8.56
493.648	8.67
494.082	8.78
494.515	8.88
494.948	8.99
495.382	9.1
495.815	9.21
496.248	9.35
496.681	9.48
497.114	9.61
497.547	9.76
497.98	9.91
498.413	10.06
498.846	10.21
499.279	10.39
499.711	10.56
500.144	10.75
500.577	10.93
501.009	11.11
501.442	11.32
501.874	11.54
502.306	11.76
502.739	11.98
503.171	12.21
503.603	12.45
504.036	12.7
504.468	12.95
504.9	13.2
505.332	13.48
505.764	13.76
506.196	14.05
506.627	14.36
507.059	14.66
507.491	14.97
507.923	15.3
508.354	15.63
508.786	15.96
509.217	16.3
509.649	16.66
510.08	17.02
510.512	17.37
510.943	17.73
511.374	18.07
511.805	18.43
512.237	18.8
512.668	19.17
513.099	19.54
513.53	19.92
513.961	20.31
514.391	20.69
514.822	21.07
515.253	21.45
515.684	21.82
516.114	22.22
516.545	22.61
516.975	23.01
517.406	23.39
517.836	23.76
518.267	24.15
518.697	24.53
519.127	24.9
519.558	25.26
519.988	25.64
520.418	26
520.848	26.33
521.278	26.67
521.708	27.11
522.138	27.43
522.567	27.76
522.997	28.06
523.427	28.36
523.857	28.65
524.286	28.94
524.716	29.2
525.145	29.48
525.575	29.75
526.004	30.01
526.433	30.14
526.863	30.38
527.292	30.59
527.721	30.81
528.15	30.99
528.579	31.19
529.008	31.39
529.437	31.57
529.866	31.73
530.295	31.89
530.724	32.05
531.152	32.21
531.581	32.35
532.01	32.47
532.438	32.61
532.867	32.74
533.295	32.85
533.723	32.96
534.152	33.06
534.58	33.17
535.008	33.25
535.436	33.34
535.865	33.41
536.293	33.5
536.721	33.58
537.149	33.65
537.576	33.72
538.004	33.79
538.432	33.85
538.86	33.91
539.287	33.96
539.715	34.03
540.143	34.06
540.57	34.12
540.998	34.15
541.425	34.19
541.852	34.24
542.28	34.27
542.707	34.33
543.134	34.36
543.561	34.39
543.988	34.42
544.415	34.42
544.842	34.46
545.269	34.49
545.696	34.51
546.123	34.55
546.549	34.58
546.976	34.59
547.403	34.6
547.829	34.62
548.256	34.64
548.682	34.65
549.108	34.67
549.535	34.69
549.961	34.68
550.387	34.71
550.813	34.68
551.24	34.66
551.666	34.68
552.092	34.68
552.518	34.68
552.943	34.7
553.369	34.69
553.795	34.68
554.221	34.66
554.646	34.62
555.072	34.57
555.498	34.54
555.923	34.5
556.349	34.44
556.774	34.36
557.199	34.3
557.625	34.21
558.05	34.11
558.475	34.01
558.9	33.94
559.325	33.86
559.75	33.77
560.175	33.69
560.6	33.59
561.025	33.46
561.449	33.35
561.874	33.23
562.299	33.1
562.723	32.99
563.148	32.88
563.572	32.73
563.997	32.6
564.421	32.45
564.846	32.3
565.27	32.16
565.694	32.03
566.118	31.9
566.542	31.73
566.966	31.57
567.39	31.41
567.814	31.25
568.238	31.09
568.662	30.93
569.086	30.77
569.509	30.6
569.933	30.43
570.357	30.23
570.78	30.04
571.204	29.87
571.627	29.71
572.05	29.57
572.474	29.39
572.897	29.22
573.32	29.06
573.743	28.92
574.166	28.77
574.589	28.61
575.012	28.5
575.435	28.35
575.858	28.24
576.281	28.12
576.704	27.98
577.126	27.86
577.549	27.77
577.972	27.64
578.394	27.5
578.817	27.38
579.239	27.3
579.661	27.19
580.084	27.1
580.506	26.98
580.928	26.88
581.35	26.8
581.772	26.7
582.194	26.6
582.616	26.5
583.038	26.42
583.46	26.35
583.882	26.24
584.303	26.15
584.725	26.06
585.147	25.97
585.568	25.88
585.99	25.8
586.411	25.72
586.833	25.62
587.254	25.54
587.675	25.47
588.096	25.4
588.518	25.34
588.939	25.27
589.36	25.2
589.781	25.14
590.202	25.08
590.623	25.02
591.043	24.95
591.464	24.89
591.885	24.84
592.305	24.79
592.726	24.73
593.147	24.7
593.567	24.65
593.987	24.62
594.408	24.56
594.828	24.49
595.248	24.45
595.669	24.41
596.089	24.38
596.509	24.32
596.929	24.26
597.349	24.2
597.769	24.14
598.189	24.09
598.608	24.03
599.028	23.98
599.448	23.94
599.867	23.88
600.287	23.83
600.706	23.77
601.126	23.73
601.545	23.68
601.965	23.63
602.384	23.59
602.803	23.53
603.222	23.46
603.641	23.4
604.061	23.35
604.48	23.28
604.898	23.21
605.317	23.15
605.736	23.09
606.155	23.01
606.574	22.93
606.992	22.85
607.411	22.77
607.829	22.66
608.248	22.59
608.666	22.51
609.085	22.42
609.503	22.32
609.921	22.23
610.339	22.12
610.758	22.03
611.176	21.95
611.594	21.86
612.012	21.76
612.43	21.73
612.847	21.63
613.265	21.54
613.683	21.45
614.101	21.36
614.518	21.27
614.936	21.19
615.353	21.11
615.771	21.04
616.188	20.96
616.606	20.88
617.023	20.79
617.44	20.71
617.857	20.64
618.274	20.58
618.691	20.53
619.108	20.49
619.525	20.44
619.942	20.39
620.359	20.34
620.776	20.29
621.192	20.25
621.609	20.23
622.026	20.21
622.442	20.18
622.859	20.14
623.275	20.13
623.691	20.11
624.108	20.1
624.524	20.1
624.94	20.09
625.356	20.08
625.772	20.07
626.188	20.07
626.604	20.03
627.02	20.01
627.436	20
627.852	19.98
628.268	19.95
628.683	19.9
629.099	19.88
629.514	19.83
629.93	19.79
630.345	19.74
630.761	19.68
631.176	19.63
631.591	19.58
632.007	19.5
632.422	19.43
632.837	19.34
633.252	19.25
633.667	19.13
634.082	19.01
634.497	18.87
634.911	18.73
635.326	18.59
635.741	18.44
636.155	18.29
636.57	18.11
636.984	17.9
637.399	17.71
637.813	17.49
638.228	17.28
638.642	17.1
639.056	16.9
639.47	16.7
639.884	16.5
640.298	16.28
640.712	16.06
641.126	15.86
641.54	15.65
641.954	15.47
642.368	15.27
642.781	15.08
643.195	14.87
643.609	14.68
644.022	14.49
644.436	14.31
644.849	14.14
645.262	13.98
645.676	13.82
646.089	13.68
646.502	13.52
646.915	13.4
647.328	13.29
647.741	13.19
648.154	13.09
648.567	13.01
648.98	12.93
649.393	12.87
649.805	12.8
650.218	12.75
650.631	12.7
651.043	12.66
651.456	12.62
651.868	12.57
652.28	12.54
652.693	12.48
653.105	12.43
653.517	12.37
653.929	12.3
654.341	12.24
654.753	12.16
655.165	12.1
655.577	12.01
655.989	11.91
656.401	11.82
656.813	11.71
657.224	11.61
657.636	11.51
658.047	11.39
658.459	11.28
658.87	11.16
659.282	11.05
659.693	10.93
660.104	10.81
660.515	10.69
660.926	10.57
661.338	10.45
661.749	10.31
662.159	10.19
662.57	10.08
662.981	9.97
663.392	9.86
663.803	9.75
664.213	9.63
664.624	9.53
665.035	9.43
665.445	9.33
665.855	9.26
666.266	9.19
666.676	9.11
667.086	9.04
667.497	8.98
667.907	8.92
668.317	8.88
668.727	8.84
669.137	8.8
669.547	8.78
669.956	8.76
670.366	8.74
670.776	8.73
671.186	8.72
671.595	8.73
672.005	8.74
672.414	8.76
672.824	8.79
673.233	8.81
673.642	8.84
674.052	8.87
674.461	8.91
674.87	8.95
675.279	8.99
675.688	9.04
676.097	9.09
676.506	9.16
676.915	9.23
677.323	9.3
677.732	9.37
678.141	9.48
678.549	9.6
678.958	9.71
679.366	9.83
679.775	9.98
680.183	10.15
680.592	10.34
681	10.52
681.408	10.73
681.816	10.95
682.224	11.2
682.632	11.48
683.04	11.75
683.448	12.07
683.856	12.41
684.264	12.79
684.671	13.18
685.079	13.6
685.487	14.06
685.894	14.55
686.302	15.07
686.709	15.63
687.116	16.2
687.524	16.81
687.931	17.41
688.338	18.06
688.745	18.74
689.152	19.45
689.559	20.17
689.966	20.88
690.373	21.64
690.78	22.4
691.187	23.14
691.593	23.9
692	24.69
692.407	25.5
692.813	26.3
693.22	27.06
693.626	27.83
694.032	28.6
694.439	29.4
694.845	30.15
695.251	30.88
695.657	31.59
696.063	32.33
696.469	32.99
696.875	33.66
697.281	34.32
697.687	35.02
698.093	35.65
698.498	36.31
698.904	36.9
699.31	37.5
699.715	38.12
700.12	38.71
700.526	39.27
700.931	39.84
701.337	40.38
701.742	40.9
702.147	41.39
702.552	41.89
702.957	42.37
703.362	42.87
703.767	43.34
704.172	43.75
704.577	44.22
704.981	44.64
705.386	45.08
705.791	45.52
706.195	45.92
706.6	46.3
707.004	46.66
707.408	47.01
707.813	47.36
708.217	47.7
708.621	48.06
709.025	48.39
709.43	48.73
709.834	49.05
710.237	49.35
710.641	49.67
711.045	49.95
711.449	50.22
711.853	50.52
712.256	50.79
712.66	51.06
713.064	51.32
713.467	51.53
713.87	51.78
714.274	52.03
714.677	52.26
715.08	52.48
715.484	52.73
715.887	52.99
716.29	53.19
716.693	53.39
717.096	53.62
717.499	53.82
717.901	54.03
718.304	54.22
718.707	54.42
719.109	54.61
719.512	54.82
719.915	55.01
720.317	55.2
720.719	55.37
721.122	55.55
721.524	55.69
721.926	55.86
722.328	56.05
722.731	56.21
723.133	56.34
723.535	56.53
723.937	56.64
724.338	56.73
724.74	56.83
725.142	56.99
725.544	57.09
725.945	57.19
726.347	57.32
726.748	57.38
727.15	57.46
727.551	57.56
727.952	57.62
728.354	57.71
728.755	57.81
729.156	57.91
729.557	57.99
729.958	58.12
730.359	58.21
730.76	58.24
731.161	58.33
731.562	58.4
731.962	58.48
732.363	58.51
732.763	58.6
733.164	58.67
733.564	58.71
733.965	58.74
734.365	58.75
734.766	58.8
735.166	58.84
735.566	58.84
735.966	58.84
736.366	58.84
736.766	58.89
737.166	58.91
737.566	58.92
737.966	58.97
738.365	59.01
738.765	59.05
739.165	59.02
739.564	59.07
739.964	59.13
740.363	59.18
740.763	59.19
741.162	59.2
741.561	59.21
741.96	59.24
742.36	59.25
742.759	59.24
743.158	59.24
743.557	59.29
743.955	59.29
744.354	59.32
744.753	59.34
745.152	59.4
745.55	59.4
745.949	59.4
746.348	59.43
746.746	59.4
747.144	59.46
747.543	59.5
747.941	59.53
748.339	59.56
748.737	59.57
749.136	59.55
749.534	59.56
749.932	59.59
750.33	59.61
750.727	59.63
751.125	59.66
751.523	59.63
751.921	59.65
752.318	59.65
752.716	59.67
753.113	59.69
753.511	59.69
753.908	59.64
754.305	59.6
754.703	59.6
755.1	59.61
755.497	59.62
755.894	59.61
756.291	59.55
756.688	59.53
757.085	59.5
757.482	59.49
757.878	59.48
758.275	59.53
758.672	59.57
759.068	59.57
759.465	59.55
759.861	59.52
760.258	59.52
760.654	59.52
761.05	59.51
761.447	59.5
761.843	59.46
762.239	59.45
762.635	59.41
763.031	59.4
763.427	59.37
763.822	59.34
764.218	59.32
764.614	59.29
765.01	59.29
765.405	59.24
765.801	59.23
766.196	59.21
766.592	59.23
766.987	59.22
767.382	59.21
767.778	59.22
768.173	59.21
768.568	59.21
768.963	59.19
769.358	59.19
769.753	59.24
770.148	59.24
770.542	59.27
770.937	59.26
771.332	59.25
771.726	59.22
772.121	59.19
772.515	59.17
772.91	59.16
773.304	59.14
773.699	59.12
774.093	59.06
774.487	59.05
774.881	59.01
775.275	59.01
775.669	59.01
776.063	58.99
776.457	58.98
776.851	58.98
777.245	58.96
777.638	58.98
778.032	59
778.425	59.05
778.819	59.04
779.212	59.05
779.606	59.01
779.999	59.01
780.392	59.02
780.786	59.02
781.179	59.06
781.572	59.07
781.965	59.1
782.358	59.08
782.751	59.07
783.143	59.06
783.536	59.07
783.929	59.14
784.322	59.18
784.714	59.21
785.107	59.21
785.499	59.2
785.891	59.2
786.284	59.16
786.676	59.18
787.068	59.17
787.46	59.16
787.852	59.17
788.245	59.11
788.636	59.08
789.028	59.05
789.42	59.06
789.812	59.05
790.204	59.01
790.595	59.03
790.987	59.03
791.378	59.03
791.77	59.07
792.161	59.1
792.553	59.14
792.944	59.11
793.335	59.15
793.726	59.11
794.117	59.11
794.508	59.14
794.899	59.13
795.29	59.15
795.681	59.17
796.072	59.15
796.463	59.16
796.853	59.14
797.244	59.2
797.634	59.13
798.025	59.15
798.415	59.15
798.806	59.15
799.196	59.18
799.586	59.12
799.976	59.09
800.366	59.09
800.756	59.06
801.146	59.07
801.536	59.01
801.926	59.02
802.316	59.03
802.706	59.09
803.095	59.11
803.485	59.14
803.874	59.17
804.264	59.22
804.653	59.23
805.043	59.23
805.432	59.21
805.821	59.24
806.21	59.29
806.599	59.33
806.988	59.29
807.377	59.3
807.766	59.29
808.155	59.3
808.544	59.27
808.933	59.27
809.321	59.28
809.71	59.34
810.098	59.33
810.487	59.33
810.875	59.27
811.264	59.32
811.652	59.33
812.04	59.31
812.428	59.34
812.816	59.35
813.204	59.34
813.592	59.35
813.98	59.33
814.368	59.36
814.756	59.39
815.144	59.47
815.531	59.5
815.919	59.49
816.306	59.52
816.694	59.51
817.081	59.5
817.469	59.54
817.856	59.57
818.243	59.56
818.63	59.6
819.017	59.59
819.404	59.56
819.791	59.53
820.178	59.57
820.565	59.59
820.952	59.59
821.339	59.64
821.725	59.69
822.112	59.7
822.498	59.74
822.885	59.75
823.271	59.76
823.657	59.8
824.044	59.83
824.43	59.85
824.816	59.82
825.202	59.81
825.588	59.8
825.974	59.77
826.36	59.72
826.746	59.75
827.132	59.7
827.517	59.7
827.903	59.69
828.289	59.68
828.674	59.64
829.06	59.67
829.445	59.72
829.83	59.72
830.216	59.74
830.601	59.79
830.986	59.78
831.371	59.83
831.756	59.82
832.141	59.85
832.526	59.84
832.911	59.88
833.295	59.9
833.68	59.91
834.065	59.93
834.449	59.89
834.834	59.89
835.218	59.89
835.603	59.92
835.987	59.91
836.371	59.9
836.755	59.93
837.139	59.92
837.524	59.91
837.908	59.86
838.291	59.87
838.675	59.89
839.059	59.87
839.443	59.86
839.827	59.82
840.21	59.86
840.594	59.84
840.977	59.82
841.361	59.84
841.744	59.86
842.127	59.89
842.511	59.87
842.894	59.86
843.277	59.87
843.66	59.87
844.043	59.9
844.426	59.9
844.809	59.89
845.191	59.91
845.574	59.87
845.957	59.82
846.339	59.8
846.722	59.82
847.104	59.82
847.487	59.85
847.869	59.84
848.252	59.84
848.634	59.84
849.016	59.87
849.398	59.85
849.78	59.89
850.162	59.9
850.544	59.92
850.926	59.92
851.307	59.93
851.689	59.9
852.071	59.91
852.452	59.91
852.834	59.89
853.215	59.86
853.597	59.88
853.978	59.84
854.359	59.87
854.741	59.88
855.122	59.85
855.503	59.82
855.884	59.82
856.265	59.79
856.646	59.78
857.026	59.78
857.407	59.77
857.788	59.79
858.169	59.79
858.549	59.78
858.93	59.76
859.31	59.8
859.69	59.82
860.071	59.83
860.451	59.85
860.831	59.85
861.211	59.84
861.591	59.87
861.971	59.85
862.351	59.86
862.731	59.87
863.111	59.87
863.491	59.86
863.87	59.83
864.25	59.84
864.629	59.82
865.009	59.8
865.388	59.79
865.768	59.77
866.147	59.75
866.526	59.74
866.905	59.74
867.284	59.73
867.663	59.73
868.042	59.73
868.421	59.69
868.8	59.7
869.179	59.74
869.558	59.74
869.936	59.75
870.315	59.77
870.693	59.8
871.072	59.82
871.45	59.81
871.828	59.79
872.207	59.81
872.585	59.83
872.963	59.82
873.341	59.8
873.719	59.81
874.097	59.77
874.475	59.74
874.853	59.72
875.23	59.7
875.608	59.7
875.986	59.73
876.363	59.74
876.741	59.76
877.118	59.79
877.495	59.78
877.873	59.75
878.25	59.76
878.627	59.79
879.004	59.79
879.381	59.76
879.758	59.76
880.135	59.73
880.512	59.72
880.889	59.69
881.265	59.7
881.642	59.68
882.019	59.73
882.395	59.76
882.772	59.75
883.148	59.74
883.524	59.79
883.901	59.76
884.277	59.8
884.653	59.85
885.029	59.87
885.405	59.84
885.781	59.83
886.157	59.81
886.532	59.77
886.908	59.79
887.284	59.81
887.659	59.83
888.035	59.83
888.411	59.81
888.786	59.78
889.161	59.78
889.537	59.78
889.912	59.76
890.287	59.78
890.662	59.79
891.037	59.78
891.412	59.76
891.787	59.72
892.162	59.72
892.536	59.71
892.911	59.71
893.286	59.69
893.66	59.67
894.035	59.66
894.409	59.64
894.784	59.63
895.158	59.62
895.532	59.59
895.906	59.58
896.281	59.58
896.655	59.59
897.029	59.58
897.402	59.59
897.776	59.63
898.15	59.65
898.524	59.66
898.898	59.66
899.271	59.65
899.645	59.65
900.018	59.64
900.392	59.62
900.765	59.59
901.138	59.58
901.511	59.55
901.884	59.54
902.258	59.52
902.631	59.51
903.003	59.51
903.376	59.5
903.749	59.53
904.122	59.54
904.495	59.55
904.867	59.53
905.24	59.51
905.612	59.5
905.985	59.44
906.357	59.41
906.729	59.36
907.102	59.32
907.474	59.31
907.846	59.26
908.218	59.22
908.59	59.2
908.962	59.19
909.334	59.17
909.705	59.16
910.077	59.13
910.449	59.18
910.82	59.2
911.192	59.2
911.563	59.16
911.935	59.17
912.306	59.17
912.677	59.12
913.048	59.11
913.419	59.07
913.79	59.05
914.161	59.03
914.532	58.99
914.903	58.95
915.274	58.94
915.645	58.94
916.015	58.91
916.386	58.89
916.756	58.89
917.127	58.88
917.497	58.93
917.868	58.89
918.238	58.98
918.608	58.99
918.978	58.98
919.348	58.94
919.718	58.96
920.088	58.96
920.458	59.01
920.828	59.03
921.198	59.01
921.567	58.98
921.937	59.03
922.306	58.97
922.676	58.96
923.045	58.97
923.415	59.02
923.784	59.01
924.153	59
924.522	58.98
924.891	58.95
925.26	58.98
925.629	58.96
925.998	58.94
926.367	58.91
926.736	58.89
927.104	58.88
927.473	58.85
927.842	58.81
928.21	58.81
928.578	58.75
928.947	58.73
929.315	58.67
929.683	58.7
930.051	58.67
930.42	58.69
930.788	58.63
931.156	58.63
931.523	58.61
931.891	58.6
932.259	58.6
932.627	58.55
932.994	58.54
933.362	58.5
933.729	58.37
934.097	58.3
934.464	58.24
934.831	58.21
935.199	58.15
935.566	58.03
935.933	57.94
936.3	57.8
936.667	57.78
937.034	57.69
937.401	57.64
937.767	57.67
938.134	57.67
938.501	57.61
938.867	57.63
939.234	57.67
939.6	57.63
939.967	57.64
940.333	57.66
940.699	57.69
941.065	57.69
941.431	57.84
941.798	57.85
942.163	57.82
942.529	57.74
942.895	57.71
943.261	57.69
943.627	57.81
943.992	57.81
944.358	57.82
944.723	57.84
945.089	57.92
945.454	57.89
945.82	57.87
946.185	57.93
946.55	58.15
946.915	58.21
947.28	58.23
947.645	58.25
948.01	58.26
948.375	58.24
948.74	58.19
949.104	58.17
949.469	57.99
949.834	57.96
950.198	57.88
950.562	57.82
950.927	57.72
951.291	57.68
951.655	57.56
952.02	57.52
952.384	57.6
952.748	57.59
953.112	57.54
953.476	57.59
953.839	57.52
954.203	57.49
954.567	57.42
954.931	57.42
955.294	57.35
955.658	57.34
956.021	57.36
956.385	57.3
956.748	57.41
957.111	57.39
957.474	57.45
957.837	57.58
958.2	57.49
958.563	57.48
958.926	57.45
959.289	57.45
959.652	57.46
960.015	57.46
960.377	57.46
960.74	57.3
961.102	57.33
961.465	57.31
961.827	57.19
962.189	57.25
962.552	57.18
962.914	57.15
963.276	57.18
963.638	57.1
964	57.01
964.362	56.94
964.724	56.94
965.085	56.88
965.447	56.79
965.809	56.76
966.17	56.74
966.532	56.82
966.893	56.86
967.255	56.86
967.616	56.93
967.977	56.96
968.338	56.98
968.699	56.96
969.061	56.9
969.421	56.94
969.782	56.96
970.143	56.92
970.504	56.85
970.865	56.79
971.225	56.68
971.586	56.73
971.946	56.7
972.307	56.69
972.667	56.74
973.027	56.81
973.388	56.72
973.748	56.79
974.108	56.82
974.468	56.83
974.828	56.89
975.188	56.94
975.548	56.87
975.907	56.91
976.267	56.9
976.627	56.91
976.986	56.83
977.346	56.89
977.705	56.82
978.064	56.81
978.424	56.84
978.783	56.77
979.142	56.77
979.501	56.79
979.86	56.75
980.219	56.72
980.578	56.61
980.937	56.69
981.296	56.63
981.654	56.7
982.013	56.7
982.371	56.65
982.73	56.61
983.088	56.56
983.447	56.45
983.805	56.4
984.163	56.42
984.521	56.3
984.879	56.23
985.237	56.29
985.595	56.2
985.953	56.17
986.311	56.21
986.669	56.15
987.026	56.23
987.384	56.3
987.741	56.42
988.099	56.31
988.456	56.39
988.814	56.45
989.171	56.33
989.528	56.27
989.885	56.27
990.242	56.22
990.599	56.18
990.956	56.07
991.313	56.04
991.67	55.94
992.027	56.04
992.383	56.12
992.74	56.04
993.096	56.05
993.453	56.02
993.809	55.97
994.165	55.95
994.522	56.06
994.878	56.06
995.234	56.06
995.59	55.92
995.946	55.93
996.302	55.79
996.658	55.75
997.013	55.81
997.369	55.86
997.725	55.86
998.08	55.86
998.436	55.81
998.791	55.81
999.147	55.73
999.502	55.91
999.857	55.6
1000.212	55.64
1000.567	55.61
1000.922	55.6
1001.277	55.44
1001.632	55.42
1001.987	55.43
1002.342	55.49
1002.696	55.49
1003.051	55.33
1003.406	55.18
1003.76	55.35
1004.114	55.29
1004.469	55.33
1004.823	55.29
1005.177	55.55
1005.531	55.44
1005.885	55.32
1006.239	55.19
1006.593	55.06
1006.947	55.02
1007.301	54.99
1007.655	54.91
1008.008	54.64
1008.362	54.6
1008.715	54.63
1009.069	54.23
1009.422	54.2
1009.776	54.13
1010.129	53.92
1010.482	53.99
1010.835	54.18
1011.188	54.13
1011.541	54.12
1011.894	54.33
1012.247	54.23
1012.6	54.12
1012.952	54.36
1013.305	54.21
1013.657	54.15
1014.01	54.36
1014.362	54.37
1014.715	54.21
1015.067	54.22
1015.419	54.46
1015.771	54.43
1016.123	54.47
1016.475	54.4
1016.827	54.5
1017.179	54.79
1017.531	54.74
1017.883	54.76
1018.234	54.72
1018.586	54.75
1018.938	54.61
1019.289	54.26
1019.64	54.58
1019.992	54.51
1020.343	54.24
1020.694	53.78
1021.045	53.46
1021.396	53.53
1021.747	53.39
1022.098	53.21
1022.449	53.05
1022.8	52.98
1023.151	52.98
1023.501	52.7
1023.852	52.57
1024.202	52.73
1024.553	52.88
1024.903	52.92
1025.253	52.84
1025.604	52.87
1025.954	52.83
1026.304	52.97
1026.654	53.12
1027.004	53.12
1027.354	52.95
1027.703	53.04
1028.053	52.76
1028.403	52.68
1028.753	52.71
1029.102	52.62
1029.452	52.31
1029.801	52.16
1030.15	52.05
1030.499	51.88
897.758	651.72
901.051	658.81
904.343	668.33
907.636	658.17
910.928	645.69
914.22	655.28
917.511	648.63
920.803	619.97
924.094	592.89
927.384	597.37
930.675	578.53
933.965	571.75
937.255	572.25
940.544	546.45
943.834	520.49
947.123	512.95
950.411	488.69
953.7	475.26
956.988	461.75
960.276	443.18
963.563	435.66
966.851	412.58
970.138	406.99
973.424	379.92
976.711	373.76
979.997	362.62
983.283	355.29
986.568	342.85
989.853	332.8
993.138	320.72
996.423	316.02
999.708	307.46
1002.992	308.76
1006.275	298.33
1009.559	295.79
1012.842	286.96
1016.125	277.99
1019.408	272.32
1022.69	269.75
1025.972	269.36
1029.254	261.7
1032.536	257.27
1035.817	247.39
1039.098	244.28
1042.379	240.94
1045.659	235.92
1048.939	234.87
1052.219	230.17
1055.498	225.74
1058.778	222.62
1062.057	217.18
1065.335	217.05
1068.614	212.4
1071.892	211.79
1075.17	206.45
1078.447	202.19
1081.724	201.92
1085.001	197.68
1088.278	198.22
1091.554	196.54
1094.83	194.92
1098.106	191.72
1101.382	190.74
1104.657	189.77
1107.932	188.44
1111.206	188.54
1114.481	186.02
1117.755	185.6
1121.029	184.27
1124.302	180.81
1127.575	178.5
1130.848	177.61
1134.121	175.65
1137.393	174.49
1140.665	173.36
1143.937	171.29
1147.208	168.88
1150.48	167.75
1153.75	165.97
1157.021	164.46
1160.291	164.41
1163.561	164.77
1166.831	162.89
1170.101	163.08
1173.37	162.14
1176.639	161.04
1179.907	160.24
1183.176	159.85
1186.444	160.39
1189.711	159.04
1192.979	161.02
1196.246	160.84
1199.513	159.91
1202.78	160.52
1206.046	160.1
1209.312	160.89
1212.578	162.41
1215.843	164.87
1219.108	167.01
1222.373	169.05
1225.638	171.79
1228.902	174.91
1232.166	181.02
1235.43	183.27
1238.693	187.91
1241.956	192.49
1245.219	196.62
1248.482	197.62
1251.744	197.26
1255.006	197.18
1258.268	192.97
1261.529	191.55
1264.79	186.82
1268.051	181.56
1271.312	180.71
1274.572	177.11
1277.832	172.93
1281.092	171.23
1284.351	168
1287.61	167.94
1290.869	165.63
1294.128	164.95
1297.386	164.73
1300.644	163.62
1303.902	163.57
1307.159	162.74
1310.416	163.33
1313.673	165.21
1316.93	165.58
1320.186	168.22
1323.442	170.02
1326.697	173.56
1329.953	176.53
1333.208	181.54
1336.463	188.21
1339.717	191.16
1342.972	200.64
1346.226	206.74
1349.479	208.12
1352.733	218.36
1355.986	222.93
1359.238	228.16
1362.491	231.45
1365.743	238.57
1368.995	238.98
1372.247	241.63
1375.498	240.89
1378.749	247.63
1382	247.73
1385.251	247.31
1388.501	245.7
1391.751	248.88
1395	246.91
1398.25	248.29
1401.499	247.82
1404.748	248.47
1407.996	241.69
1411.244	242.45
1414.492	237.89
1417.74	231.84
1420.987	225.98
1424.234	221.85
1427.481	213.16
1430.728	208.59
1433.974	200.78
1437.22	192.55
1440.465	186.71
1443.711	181.28
1446.956	176.1
1450.201	169.7
1453.445	162.02
1456.689	158.45
1459.933	153.24
1463.177	147.15
1466.42	142.69
1469.663	139.32
1472.906	136.19
1476.148	132.26
1479.391	129.17
1482.633	126.82
1485.874	124.66
1489.115	123.77
1492.356	120.52
1495.597	118.85
1498.838	118.39
1502.078	117.88
1505.318	117.19
1508.557	116.47
1511.797	115.46
1515.036	115.47
1518.274	114.9
1521.513	113.58
1524.751	112.79
1527.989	114.31
1531.227	113.82
1534.464	113.51
1537.701	112.54
1540.938	112.18
1544.174	111.85
1547.41	112.17
1550.646	111.48
1553.882	111.13
1557.117	110.76
1560.352	110.61
1563.587	109.19
1566.821	109.46
1570.055	109
1573.289	108.99
1576.523	108.84
1579.756	108.51
1582.989	107.98
1586.222	107.88
1589.454	107.51
1592.686	107.59
1595.918	107.26
1599.15	107.53
1602.381	107.29
1605.612	107.44
1608.843	107.68
1612.073	107.98
1615.303	108.4
1618.533	108.03
1621.762	108.7
1624.992	108.91
1628.221	108.61
1631.449	109.5
1634.678	108.74
1637.906	108.9
1641.134	109.02
1644.361	108.94
1647.588	109.17
1650.815	109.04
1654.042	109.25
1657.269	108.75
1660.495	109.59
1663.72	109.32
1666.946	108.97
1670.171	110
1673.396	110.4
1676.621	110.68
1679.845	110.52
1683.069	110.15
1686.293	109.84
1689.517	110.29
1692.74	110.28
1695.963	110.4
1699.185	111.03
1702.408	111.51
1705.63	111.61
1708.852	112.24
1712.073	111.43
1715.294	111.76
1718.515	112.64
1721.736	113.24
1724.956	113.32
1728.176	113.41
1731.396	114.05
1734.616	114.21
1737.835	114.21
1741.054	113.89
1744.272	113.45
1747.491	114.25
1750.709	114.4
1753.927	114.3
1757.144	114.57
1760.361	114.68
1763.578	115.1
1766.795	115.3
1770.011	115.77
1773.227	116.44
1776.443	117.51
1779.658	117.76
1782.874	118.19
1786.089	119.26
1789.303	119.35
1792.518	120.02
1795.732	120.98
1798.945	122.3
1802.159	122.37
1805.372	123.64
1808.585	123.87
1811.797	125.04
1815.01	125.78
1818.222	127.01
1821.434	127.48
1824.645	128.47
1827.856	130.55
1831.067	130.38
1834.278	131.41
1837.488	132.86
1840.698	133.97
1843.908	134.42
1847.117	135.19
1850.326	136.83
1853.535	136.35
1856.744	137.79
1859.952	139.72
1863.16	139.18
1866.368	139.35
1869.575	140.35
1872.782	139.56
1875.989	136.95
1879.196	137.41
1882.402	136.37
1885.608	137.01
1888.814	137.35
1892.019	137.91
1895.224	135.51
1898.429	135.43
1901.634	137.22
1904.838	136.24
1908.042	136.48
1911.246	138.71
1914.449	138.5
1917.652	137.94
1920.855	137.59
1924.058	137.69
1927.26	136.52
1930.462	137.12
1933.664	137.41
1936.865	137.18
1940.066	136.37
1943.267	135.31
1946.467	135.94
1949.668	135.98
1952.868	137.15
1956.067	137.02
1959.267	137.86
1962.466	138.5
1965.665	139.81
1968.863	141.39
1972.061	141.06
1975.259	144.43
1978.457	145.87
1981.654	146.79
1984.852	148.23
1988.048	149.73
1991.245	152.21
1994.441	154.63
1997.637	157.81
2000.833	161.63
2004.028	162.6
2007.223	168.78
2010.418	172.63
2013.613	178.79
2016.807	183.82
2020.001	187.32
2023.194	191.79
2026.388	198.54
2029.581	208.8
2032.774	214.66
2035.966	220.69
2039.158	227.53
2042.35	229.8
2045.542	233.25
2048.733	245.49
2051.924	246.53
2055.115	250.56
2058.306	254.54
2061.496	258.28
2064.686	259.22
2067.875	256.82
2071.065	259.35
2074.254	259.76
2077.442	268.62
2080.631	271.07
2083.819	270.55
2087.007	275.21
2090.195	280.36
2093.382	280.45
2096.569	280.65
2099.756	284.61
2102.942	292.82
2106.128	298.38
2109.314	301.75
2112.5	300.56
2115.685	298.48
2118.87	297.83
2122.055	301.6
2125.239	308.43
2128.424	314.87
2131.608	311.28
2134.791	310.6
2137.974	312.09
2141.157	315.36
2144.34	318.06
2147.523	321.69
2150.705	330.44
2153.887	327.36
2157.068	331.05
2160.25	333.38
2163.431	333.69
2166.611	343.1
2169.792	348.52
2172.972	353.45
2176.152	352.37
2179.331	359.73
2182.511	362.09
2185.69	365.57
2188.868	382.89
2192.047	390.44
2195.225	394.22
2198.403	399.11
2201.58	393.77
2204.758	406.76
2207.935	407.66
2211.111	415.21
2214.288	417.26
2217.464	422.04
2220.64	424.02
2223.815	422.77
2226.991	418.71
2230.166	422.32
2233.34	437.56
2236.515	446.86
2239.689	442.65
2242.863	451.03
2246.036	446.65
2249.209	454.06
2252.382	454.86
2255.555	472.1
2258.727	474.95
2261.9	487.82
2265.071	495.46
2268.243	490.37
2271.414	506.67
2274.585	515.35
2277.756	517.29
2280.926	538.18
2284.096	542.16
2287.266	541.49
2290.436	531.26
2293.605	543.63
2296.774	563.51
2299.942	564.73
2303.111	577.26
2306.279	586.1
2309.447	590.71
2312.614	592.44
2315.781	607.92
2318.948	615.41
2322.115	629.04
2325.281	662.86
2328.447	657.88
2331.613	657.24
2334.779	667.54
2337.944	677.28
2341.109	693.86
2344.274	698
2347.438	720.04
2350.602	726.63
2353.766	768.46
2356.929	773.7
2360.092	785.72
2363.255	787.23
2366.418	800.52
2369.58	817.52
2372.742	816.29
2375.904	809.11
2379.066	832.08
2382.227	878.33
2385.388	879.88
2388.548	834.67
2391.709	827.09
2394.869	849.65
2398.029	853.75
2401.188	851.62
2404.347	871.29
2407.506	902.39
2410.665	874.3
2413.823	878.93
2416.981	876.46
2420.139	827.4
2423.296	899.95
2426.453	954.24
2429.61	910.52
2432.767	975.16
2435.923	1012.59
2439.079	978.86
2442.235	1004.5
2445.391	1023.08
2448.546	1014.22
2451.701	1063.35
2454.855	1145.92
2458.009	1008.15
2461.163	1026.28
2464.317	1032.67
2467.471	1009.79
2470.624	1040.85
2473.777	1025.55
2476.929	992.11
2480.082	1065.19
2483.234	1113.35
2486.385	1133.59
2489.537	1158.76
2492.688	1283.56
2495.839	1273.69
2498.989	1304.26
2502.14	1306.19
2505.29	1248.93
2508.439	1389.11
2511.589	1423.26
2514.738	1366.52
2517.887	1358.68
2521.035	1269.42
2524.183	1254.51
2527.331	1236.15
2530.479	1194.9
2533.627	1230.19
