Data from N_1_dec_oh_4n_013_Splice17_20.txt Node
Date: Sat Feb 29 13:38:53 EST 2020
User: sa697716
Spectrometer: FLMS03696
Trigger mode: 0
Integration Time (sec): 3.180400E-1
Scans to average: 20
Electric dark correction enabled: true
Nonlinearity correction enabled: true
Boxcar width: 5
XAxis mode: Wavelengths
Number of Pixels in Spectrum: 2048
>>>>>Begin Spectral Data<<<<<
187.83	119.24
188.298	125.95
188.766	112.31
189.233	98.02
189.701	107.92
190.169	109.72
190.636	111.89
191.104	108.11
191.571	245.39
192.039	315.52
192.506	-444.82
192.974	-5256.19
193.441	296.76
193.908	48.57
194.375	-5.64
194.842	81.6
195.31	93.14
195.777	22.48
196.244	19.8
196.711	20.51
197.177	21.61
197.644	20.37
198.111	20.32
198.578	19.9
199.045	20.06
199.511	19.91
199.978	20.82
200.445	20.69
200.911	21.81
201.378	21.98
201.844	22.37
202.31	22.47
202.777	22.97
203.243	23.53
203.709	23.72
204.176	23.1
204.642	23.37
205.108	22.83
205.574	22.95
206.04	22.67
206.506	22.43
206.972	22.19
207.438	22.24
207.903	22.21
208.369	21.69
208.835	21.67
209.301	21.75
209.766	21.8
210.232	21.89
210.697	21.8
211.163	21.67
211.628	21.62
212.094	21.62
212.559	21.17
213.024	20.65
213.49	20.46
213.955	20.13
214.42	19.78
214.885	19.1
215.35	18.51
215.815	17.95
216.28	17.19
216.745	16.53
217.21	15.86
217.675	15.25
218.14	14.56
218.604	13.87
219.069	13.31
219.534	12.84
219.998	12.52
220.463	12.19
220.927	11.82
221.392	11.54
221.856	11.28
222.32	11.06
222.785	10.86
223.249	10.69
223.713	10.59
224.177	10.39
224.642	10.27
225.106	10.09
225.57	9.92
226.034	9.82
226.497	9.68
226.961	9.51
227.425	9.34
227.889	9.21
228.353	9.08
228.816	8.95
229.28	8.81
229.744	8.67
230.207	8.56
230.671	8.45
231.134	8.32
231.597	8.22
232.061	8.12
232.524	8.02
232.987	7.91
233.45	7.79
233.914	7.69
234.377	7.61
234.84	7.54
235.303	7.45
235.766	7.37
236.229	7.29
236.691	7.21
237.154	7.13
237.617	7.05
238.08	6.97
238.542	6.91
239.005	6.84
239.468	6.77
239.93	6.69
240.393	6.63
240.855	6.55
241.317	6.49
241.78	6.43
242.242	6.37
242.704	6.32
243.166	6.26
243.629	6.21
244.091	6.15
244.553	6.1
245.015	6.05
245.477	5.98
245.939	5.93
246.4	5.87
246.862	5.81
247.324	5.78
247.786	5.72
248.247	5.68
248.709	5.63
249.17	5.58
249.632	5.52
250.093	5.47
250.555	5.43
251.016	5.4
251.477	5.37
251.939	5.34
252.4	5.31
252.861	5.28
253.322	5.24
253.783	5.22
254.244	5.19
254.705	5.17
255.166	5.16
255.627	5.12
256.088	5.1
256.549	5.07
257.009	5.04
257.47	5.01
257.931	4.98
258.391	4.95
258.852	4.91
259.312	4.89
259.773	4.85
260.233	4.82
260.694	4.8
261.154	4.77
261.614	4.74
262.074	4.71
262.534	4.67
262.994	4.65
263.455	4.63
263.915	4.6
264.374	4.58
264.834	4.55
265.294	4.52
265.754	4.49
266.214	4.47
266.673	4.45
267.133	4.43
267.593	4.41
268.052	4.38
268.512	4.35
268.971	4.33
269.431	4.31
269.89	4.3
270.349	4.28
270.809	4.27
271.268	4.25
271.727	4.23
272.186	4.21
272.645	4.2
273.104	4.19
273.563	4.17
274.022	4.16
274.481	4.15
274.94	4.13
275.399	4.12
275.857	4.1
276.316	4.09
276.775	4.07
277.233	4.06
277.692	4.05
278.15	4.03
278.609	4.01
279.067	3.99
279.525	3.97
279.984	3.95
280.442	3.94
280.9	3.93
281.358	3.91
281.816	3.9
282.274	3.88
282.732	3.87
283.19	3.86
283.648	3.85
284.106	3.83
284.564	3.83
285.021	3.83
285.479	3.81
285.937	3.8
286.394	3.79
286.852	3.77
287.309	3.76
287.767	3.75
288.224	3.74
288.682	3.72
289.139	3.72
289.596	3.69
290.053	3.68
290.511	3.65
290.968	3.65
291.425	3.63
291.882	3.63
292.339	3.61
292.796	3.59
293.252	3.57
293.709	3.56
294.166	3.54
294.623	3.53
295.079	3.52
295.536	3.52
295.992	3.5
296.449	3.5
296.905	3.48
297.362	3.47
297.818	3.46
298.274	3.45
298.731	3.44
299.187	3.43
299.643	3.42
300.099	3.42
300.555	3.4
301.011	3.4
301.467	3.38
301.923	3.38
302.379	3.37
302.835	3.37
303.291	3.36
303.746	3.35
304.202	3.34
304.658	3.33
305.113	3.33
305.569	3.33
306.024	3.31
306.479	3.3
306.935	3.3
307.39	3.29
307.845	3.28
308.301	3.27
308.756	3.27
309.211	3.27
309.666	3.27
310.121	3.26
310.576	3.26
311.031	3.25
311.486	3.25
311.94	3.25
312.395	3.25
312.85	3.24
313.305	3.23
313.759	3.23
314.214	3.23
314.668	3.22
315.123	3.22
315.577	3.21
316.032	3.21
316.486	3.2
316.94	3.2
317.394	3.19
317.849	3.17
318.303	3.17
318.757	3.16
319.211	3.15
319.665	3.15
320.119	3.14
320.572	3.14
321.026	3.13
321.48	3.13
321.934	3.12
322.387	3.11
322.841	3.11
323.295	3.1
323.748	3.09
324.202	3.09
324.655	3.08
325.108	3.07
325.562	3.05
326.015	3.04
326.468	3.01
326.921	3.01
327.374	3
327.827	2.99
328.28	2.99
328.733	2.99
329.186	2.98
329.639	2.99
330.092	2.98
330.545	2.99
330.997	2.99
331.45	2.99
331.903	2.98
332.355	2.98
332.808	2.97
333.26	2.96
333.713	2.95
334.165	2.95
334.617	2.95
335.069	2.94
335.522	2.94
335.974	2.94
336.426	2.94
336.878	2.93
337.33	2.94
337.782	2.94
338.234	2.94
338.686	2.95
339.137	2.95
339.589	2.94
340.041	2.94
340.493	2.93
340.944	2.92
341.396	2.92
341.847	2.92
342.299	2.9
342.75	2.89
343.201	2.87
343.653	2.86
344.104	2.84
344.555	2.83
345.006	2.82
345.457	2.81
345.908	2.8
346.359	2.8
346.81	2.8
347.261	2.79
347.712	2.79
348.163	2.79
348.613	2.79
349.064	2.78
349.515	2.77
349.965	2.77
350.416	2.78
350.866	2.78
351.317	2.77
351.767	2.77
352.217	2.76
352.668	2.76
353.118	2.77
353.568	2.78
354.018	2.79
354.468	2.8
354.918	2.79
355.368	2.8
355.818	2.79
356.268	2.8
356.718	2.82
357.168	2.82
357.617	2.83
358.067	2.83
358.517	2.84
358.966	2.85
359.416	2.87
359.865	2.88
360.315	2.89
360.764	2.91
361.213	2.92
361.663	2.93
362.112	2.96
362.561	2.98
363.01	3
363.459	3.01
363.908	3.04
364.357	3.06
364.806	3.08
365.255	3.11
365.703	3.14
366.152	3.17
366.601	3.21
367.05	3.26
367.498	3.3
367.947	3.34
368.395	3.39
368.844	3.44
369.292	3.49
369.74	3.55
370.189	3.61
370.637	3.68
371.085	3.75
371.533	3.8
371.981	3.87
372.429	3.93
372.877	4
373.325	4.06
373.773	4.13
374.221	4.21
374.669	4.28
375.116	4.34
375.564	4.42
376.012	4.49
376.459	4.58
376.907	4.66
377.354	4.74
377.801	4.82
378.249	4.91
378.696	4.99
379.143	5.08
379.591	5.17
380.038	5.27
380.485	5.36
380.932	5.44
381.379	5.51
381.826	5.59
382.273	5.68
382.72	5.77
383.166	5.85
383.613	5.92
384.06	6
384.506	6.08
384.953	6.15
385.4	6.21
385.846	6.27
386.292	6.35
386.739	6.4
387.185	6.46
387.631	6.52
388.078	6.57
388.524	6.62
388.97	6.67
389.416	6.72
389.862	6.76
390.308	6.79
390.754	6.84
391.2	6.88
391.645	6.92
392.091	6.96
392.537	6.98
392.983	7.02
393.428	7.06
393.874	7.09
394.319	7.11
394.765	7.13
395.21	7.14
395.655	7.16
396.101	7.16
396.546	7.17
396.991	7.16
397.436	7.15
397.881	7.15
398.326	7.16
398.771	7.16
399.216	7.16
399.661	7.14
400.106	7.15
400.551	7.12
400.995	7.09
401.44	7.06
401.885	7.05
402.329	7.03
402.774	6.99
403.218	6.96
403.663	6.92
404.107	6.9
404.551	6.88
404.995	6.84
405.44	6.81
405.884	6.79
406.328	6.77
406.772	6.74
407.216	6.73
407.66	6.71
408.104	6.7
408.547	6.68
408.991	6.65
409.435	6.62
409.879	6.6
410.322	6.59
410.766	6.58
411.209	6.56
411.653	6.52
412.096	6.49
412.54	6.47
412.983	6.45
413.426	6.44
413.869	6.43
414.312	6.43
414.756	6.43
415.199	6.42
415.642	6.42
416.085	6.41
416.527	6.42
416.97	6.43
417.413	6.42
417.856	6.39
418.298	6.37
418.741	6.35
419.184	6.33
419.626	6.29
420.069	6.27
420.511	6.25
420.953	6.23
421.396	6.21
421.838	6.22
422.28	6.22
422.722	6.24
423.164	6.22
423.606	6.22
424.048	6.19
424.49	6.21
424.932	6.2
425.374	6.17
425.816	6.15
426.258	6.12
426.699	6.07
427.141	6.04
427.582	6.02
428.024	6.02
428.465	6
428.907	5.99
429.348	5.97
429.789	5.97
430.231	5.96
430.672	5.97
431.113	5.98
431.554	6
431.995	6.01
432.436	6.01
432.877	6
433.318	6
433.759	6.01
434.2	6.01
434.64	6.02
435.081	6.02
435.522	6.03
435.962	6.04
436.403	6.06
436.843	6.07
437.284	6.08
437.724	6.11
438.164	6.13
438.604	6.15
439.045	6.15
439.485	6.16
439.925	6.17
440.365	6.19
440.805	6.2
441.245	6.18
441.685	6.2
442.125	6.21
442.564	6.24
443.004	6.26
443.444	6.3
443.883	6.33
444.323	6.35
444.762	6.4
445.202	6.45
445.641	6.48
446.081	6.54
446.52	6.58
446.959	6.63
447.398	6.67
447.837	6.72
448.276	6.73
448.716	6.79
449.154	6.84
449.593	6.88
450.032	6.91
450.471	6.96
450.91	6.97
451.349	6.99
451.787	6.99
452.226	6.98
452.664	6.98
453.103	7
453.541	7.01
453.98	7.02
454.418	7.02
454.856	7.02
455.295	7
455.733	7.01
456.171	7.01
456.609	7.04
457.047	7.06
457.485	7.08
457.923	7.1
458.361	7.1
458.798	7.11
459.236	7.11
459.674	7.12
460.111	7.14
460.549	7.15
460.987	7.16
461.424	7.16
461.862	7.17
462.299	7.16
462.736	7.16
463.173	7.16
463.611	7.18
464.048	7.19
464.485	7.19
464.922	7.19
465.359	7.22
465.796	7.22
466.233	7.23
466.67	7.23
467.106	7.24
467.543	7.23
467.98	7.24
468.416	7.23
468.853	7.22
469.29	7.23
469.726	7.24
470.162	7.22
470.599	7.22
471.035	7.22
471.471	7.21
471.907	7.22
472.344	7.23
472.78	7.22
473.216	7.22
473.652	7.24
474.088	7.24
474.523	7.24
474.959	7.24
475.395	7.24
475.831	7.25
476.266	7.27
476.702	7.26
477.138	7.24
477.573	7.24
478.008	7.25
478.444	7.23
478.879	7.22
479.314	7.22
479.75	7.23
480.185	7.25
480.62	7.25
481.055	7.25
481.49	7.26
481.925	7.29
482.36	7.3
482.795	7.3
483.229	7.31
483.664	7.33
484.099	7.34
484.534	7.34
484.968	7.36
485.403	7.38
485.837	7.41
486.271	7.44
486.706	7.46
487.14	7.5
487.574	7.55
488.009	7.61
488.443	7.66
488.877	7.73
489.311	7.8
489.745	7.86
490.179	7.92
490.613	7.99
491.046	8.08
491.48	8.16
491.914	8.24
492.348	8.34
492.781	8.43
493.215	8.52
493.648	8.63
494.082	8.75
494.515	8.86
494.948	8.97
495.382	9.09
495.815	9.22
496.248	9.36
496.681	9.48
497.114	9.62
497.547	9.76
497.98	9.92
498.413	10.07
498.846	10.22
499.279	10.39
499.711	10.57
500.144	10.76
500.577	10.94
501.009	11.12
501.442	11.34
501.874	11.55
502.306	11.77
502.739	11.97
503.171	12.21
503.603	12.45
504.036	12.7
504.468	12.95
504.9	13.22
505.332	13.47
505.764	13.77
506.196	14.05
506.627	14.35
507.059	14.66
507.491	14.98
507.923	15.3
508.354	15.63
508.786	15.96
509.217	16.3
509.649	16.64
510.08	17.02
510.512	17.36
510.943	17.71
511.374	18.07
511.805	18.44
512.237	18.82
512.668	19.19
513.099	19.57
513.53	19.96
513.961	20.33
514.391	20.71
514.822	21.1
515.253	21.5
515.684	21.88
516.114	22.27
516.545	22.65
516.975	23.03
517.406	23.42
517.836	23.79
518.267	24.16
518.697	24.58
519.127	24.96
519.558	25.31
519.988	25.67
520.418	26.02
520.848	26.37
521.278	26.74
521.708	27.17
522.138	27.49
522.567	27.82
522.997	28.12
523.427	28.4
523.857	28.67
524.286	28.96
524.716	29.21
525.145	29.5
525.575	29.76
526.004	30
526.433	30.15
526.863	30.39
527.292	30.61
527.721	30.84
528.15	31.03
528.579	31.23
529.008	31.42
529.437	31.61
529.866	31.76
530.295	31.92
530.724	32.1
531.152	32.25
531.581	32.4
532.01	32.54
532.438	32.65
532.867	32.8
533.295	32.92
533.723	33.04
534.152	33.15
534.58	33.25
535.008	33.32
535.436	33.39
535.865	33.46
536.293	33.54
536.721	33.61
537.149	33.68
537.576	33.75
538.004	33.82
538.432	33.89
538.86	33.94
539.287	34
539.715	34.07
540.143	34.09
540.57	34.12
540.998	34.16
541.425	34.19
541.852	34.22
542.28	34.24
542.707	34.28
543.134	34.3
543.561	34.31
543.988	34.34
544.415	34.36
544.842	34.43
545.269	34.48
545.696	34.49
546.123	34.52
546.549	34.56
546.976	34.6
547.403	34.61
547.829	34.64
548.256	34.67
548.682	34.67
549.108	34.69
549.535	34.68
549.961	34.66
550.387	34.65
550.813	34.64
551.24	34.64
551.666	34.64
552.092	34.64
552.518	34.62
552.943	34.63
553.369	34.63
553.795	34.61
554.221	34.59
554.646	34.57
555.072	34.55
555.498	34.51
555.923	34.48
556.349	34.4
556.774	34.33
557.199	34.27
557.625	34.19
558.05	34.12
558.475	34.05
558.9	33.98
559.325	33.89
559.75	33.8
560.175	33.69
560.6	33.57
561.025	33.48
561.449	33.39
561.874	33.28
562.299	33.17
562.723	33.03
563.148	32.88
563.572	32.73
563.997	32.58
564.421	32.46
564.846	32.32
565.27	32.2
565.694	32.03
566.118	31.86
566.542	31.71
566.966	31.54
567.39	31.38
567.814	31.21
568.238	31.05
568.662	30.9
569.086	30.73
569.509	30.56
569.933	30.37
570.357	30.2
570.78	30.02
571.204	29.84
571.627	29.68
572.05	29.53
572.474	29.38
572.897	29.22
573.32	29.06
573.743	28.9
574.166	28.75
574.589	28.6
575.012	28.49
575.435	28.36
575.858	28.24
576.281	28.11
576.704	27.97
577.126	27.85
577.549	27.74
577.972	27.64
578.394	27.51
578.817	27.39
579.239	27.28
579.661	27.16
580.084	27.04
580.506	26.92
580.928	26.83
581.35	26.73
581.772	26.62
582.194	26.51
582.616	26.4
583.038	26.31
583.46	26.22
583.882	26.14
584.303	26.05
584.725	25.98
585.147	25.88
585.568	25.79
585.99	25.71
586.411	25.66
586.833	25.58
587.254	25.53
587.675	25.45
588.096	25.39
588.518	25.32
588.939	25.24
589.36	25.16
589.781	25.1
590.202	25.05
590.623	24.98
591.043	24.89
591.464	24.84
591.885	24.76
592.305	24.71
592.726	24.63
593.147	24.59
593.567	24.54
593.987	24.52
594.408	24.47
594.828	24.42
595.248	24.39
595.669	24.36
596.089	24.32
596.509	24.28
596.929	24.24
597.349	24.2
597.769	24.14
598.189	24.1
598.608	24.03
599.028	23.97
599.448	23.91
599.867	23.84
600.287	23.78
600.706	23.74
601.126	23.66
601.545	23.61
601.965	23.57
602.384	23.52
602.803	23.45
603.222	23.39
603.641	23.34
604.061	23.28
604.48	23.22
604.898	23.16
605.317	23.08
605.736	23.01
606.155	22.9
606.574	22.83
606.992	22.74
607.411	22.68
607.829	22.56
608.248	22.49
608.666	22.39
609.085	22.3
609.503	22.21
609.921	22.13
610.339	22.06
610.758	22
611.176	21.9
611.594	21.81
612.012	21.71
612.43	21.67
612.847	21.58
613.265	21.52
613.683	21.42
614.101	21.33
614.518	21.24
614.936	21.16
615.353	21.06
615.771	20.99
616.188	20.93
616.606	20.84
617.023	20.75
617.44	20.68
617.857	20.59
618.274	20.52
618.691	20.48
619.108	20.41
619.525	20.35
619.942	20.31
620.359	20.28
620.776	20.23
621.192	20.21
621.609	20.18
622.026	20.16
622.442	20.14
622.859	20.13
623.275	20.12
623.691	20.1
624.108	20.07
624.524	20.06
624.94	20.03
625.356	20.01
625.772	20
626.188	19.99
626.604	19.97
627.02	19.96
627.436	19.93
627.852	19.91
628.268	19.89
628.683	19.87
629.099	19.84
629.514	19.79
629.93	19.77
630.345	19.7
630.761	19.64
631.176	19.57
631.591	19.51
632.007	19.44
632.422	19.36
632.837	19.27
633.252	19.17
633.667	19.07
634.082	18.96
634.497	18.83
634.911	18.7
635.326	18.57
635.741	18.42
636.155	18.26
636.57	18.09
636.984	17.89
637.399	17.7
637.813	17.51
638.228	17.31
638.642	17.12
639.056	16.9
639.47	16.71
639.884	16.48
640.298	16.27
640.712	16.05
641.126	15.84
641.54	15.64
641.954	15.44
642.368	15.25
642.781	15.04
643.195	14.84
643.609	14.66
644.022	14.49
644.436	14.32
644.849	14.16
645.262	14
645.676	13.84
646.089	13.7
646.502	13.55
646.915	13.41
647.328	13.31
647.741	13.2
648.154	13.1
648.567	13
648.98	12.91
649.393	12.84
649.805	12.77
650.218	12.73
650.631	12.65
651.043	12.61
651.456	12.58
651.868	12.5
652.28	12.46
652.693	12.42
653.105	12.36
653.517	12.32
653.929	12.27
654.341	12.2
654.753	12.13
655.165	12.07
655.577	11.97
655.989	11.88
656.401	11.8
656.813	11.69
657.224	11.58
657.636	11.47
658.047	11.34
658.459	11.21
658.87	11.09
659.282	10.98
659.693	10.86
660.104	10.73
660.515	10.61
660.926	10.48
661.338	10.36
661.749	10.25
662.159	10.12
662.57	10.01
662.981	9.9
663.392	9.78
663.803	9.67
664.213	9.56
664.624	9.45
665.035	9.35
665.445	9.27
665.855	9.18
666.266	9.1
666.676	9.04
667.086	8.98
667.497	8.92
667.907	8.87
668.317	8.82
668.727	8.8
669.137	8.77
669.547	8.75
669.956	8.74
670.366	8.73
670.776	8.72
671.186	8.72
671.595	8.72
672.005	8.73
672.414	8.74
672.824	8.78
673.233	8.8
673.642	8.82
674.052	8.84
674.461	8.87
674.87	8.9
675.279	8.94
675.688	8.98
676.097	9.05
676.506	9.11
676.915	9.17
677.323	9.24
677.732	9.34
678.141	9.44
678.549	9.57
678.958	9.7
679.366	9.84
679.775	9.98
680.183	10.14
680.592	10.31
681	10.49
681.408	10.7
681.816	10.92
682.224	11.15
682.632	11.42
683.04	11.7
683.448	12
683.856	12.34
684.264	12.72
684.671	13.13
685.079	13.56
685.487	14.03
685.894	14.52
686.302	15.04
686.709	15.6
687.116	16.17
687.524	16.78
687.931	17.41
688.338	18.07
688.745	18.75
689.152	19.45
689.559	20.15
689.966	20.86
690.373	21.61
690.78	22.38
691.187	23.14
691.593	23.91
692	24.69
692.407	25.44
692.813	26.23
693.22	26.98
693.626	27.74
694.032	28.52
694.439	29.3
694.845	30.05
695.251	30.79
695.657	31.51
696.063	32.23
696.469	32.94
696.875	33.64
697.281	34.28
697.687	34.98
698.093	35.63
698.498	36.27
698.904	36.88
699.31	37.47
699.715	38.08
700.12	38.65
700.526	39.21
700.931	39.75
701.337	40.3
701.742	40.82
702.147	41.32
702.552	41.83
702.957	42.32
703.362	42.82
703.767	43.29
704.172	43.76
704.577	44.22
704.981	44.64
705.386	45.08
705.791	45.51
706.195	45.91
706.6	46.29
707.004	46.66
707.408	47.04
707.813	47.39
708.217	47.75
708.621	48.07
709.025	48.4
709.43	48.73
709.834	49.07
710.237	49.35
710.641	49.69
711.045	50.01
711.449	50.27
711.853	50.57
712.256	50.85
712.66	51.11
713.064	51.35
713.467	51.63
713.87	51.89
714.274	52.13
714.677	52.39
715.08	52.6
715.484	52.83
715.887	53.1
716.29	53.29
716.693	53.49
717.096	53.72
717.499	53.95
717.901	54.11
718.304	54.29
718.707	54.47
719.109	54.69
719.512	54.91
719.915	55.08
720.317	55.27
720.719	55.44
721.122	55.61
721.524	55.76
721.926	55.94
722.328	56.12
722.731	56.29
723.133	56.45
723.535	56.58
723.937	56.67
724.338	56.76
724.74	56.85
725.142	57.03
725.544	57.11
725.945	57.25
726.347	57.32
726.748	57.38
727.15	57.45
727.551	57.54
727.952	57.6
728.354	57.72
728.755	57.86
729.156	57.94
729.557	57.99
729.958	58.1
730.359	58.15
730.76	58.21
731.161	58.31
731.562	58.39
731.962	58.45
732.363	58.5
732.763	58.56
733.164	58.58
733.564	58.65
733.965	58.65
734.365	58.69
734.766	58.72
735.166	58.73
735.566	58.74
735.966	58.76
736.366	58.76
736.766	58.79
737.166	58.82
737.566	58.86
737.966	58.86
738.365	58.95
738.765	58.99
739.165	58.99
739.564	59.02
739.964	59.06
740.363	59.11
740.763	59.17
741.162	59.2
741.561	59.25
741.96	59.31
742.36	59.36
742.759	59.33
743.158	59.3
743.557	59.36
743.955	59.42
744.354	59.47
744.753	59.47
745.152	59.48
745.55	59.49
745.949	59.47
746.348	59.45
746.746	59.45
747.144	59.5
747.543	59.54
747.941	59.57
748.339	59.6
748.737	59.63
749.136	59.64
749.534	59.67
749.932	59.69
750.33	59.68
750.727	59.69
751.125	59.7
751.523	59.68
751.921	59.69
752.318	59.69
752.716	59.65
753.113	59.63
753.511	59.64
753.908	59.62
754.305	59.59
754.703	59.57
755.1	59.55
755.497	59.54
755.894	59.53
756.291	59.51
756.688	59.47
757.085	59.48
757.482	59.49
757.878	59.5
758.275	59.49
758.672	59.51
759.068	59.55
759.465	59.56
759.861	59.57
760.258	59.56
760.654	59.57
761.05	59.62
761.447	59.61
761.843	59.58
762.239	59.53
762.635	59.51
763.031	59.53
763.427	59.49
763.822	59.45
764.218	59.46
764.614	59.47
765.01	59.46
765.405	59.41
765.801	59.39
766.196	59.38
766.592	59.38
766.987	59.37
767.382	59.35
767.778	59.35
768.173	59.35
768.568	59.29
768.963	59.27
769.358	59.23
769.753	59.24
770.148	59.24
770.542	59.24
770.937	59.2
771.332	59.19
771.726	59.14
772.121	59.11
772.515	59.1
772.91	59.11
773.304	59.08
773.699	59.08
774.093	59.06
774.487	59.06
774.881	59.05
775.275	59.08
775.669	59.08
776.063	59.08
776.457	59.07
776.851	59.05
777.245	59.04
777.638	59.05
778.032	59.04
778.425	59.06
778.819	59.06
779.212	59.01
779.606	58.98
779.999	58.96
780.392	58.98
780.786	59.01
781.179	59.06
781.572	59.08
781.965	59.1
782.358	59.1
782.751	59.08
783.143	59.09
783.536	59.15
783.929	59.17
784.322	59.2
784.714	59.18
785.107	59.16
785.499	59.14
785.891	59.13
786.284	59.08
786.676	59.11
787.068	59.11
787.46	59.09
787.852	59.1
788.245	59.12
788.636	59.1
789.028	59.12
789.42	59.13
789.812	59.14
790.204	59.12
790.595	59.14
790.987	59.13
791.378	59.17
791.77	59.15
792.161	59.13
792.553	59.12
792.944	59.14
793.335	59.16
793.726	59.15
794.117	59.12
794.508	59.14
794.899	59.14
795.29	59.11
795.681	59.08
796.072	59.11
796.463	59.12
796.853	59.14
797.244	59.13
797.634	59.1
798.025	59.1
798.415	59.13
798.806	59.13
799.196	59.16
799.586	59.17
799.976	59.19
800.366	59.19
800.756	59.17
801.146	59.14
801.536	59.15
801.926	59.15
802.316	59.16
802.706	59.17
803.095	59.17
803.485	59.2
803.874	59.23
804.264	59.28
804.653	59.27
805.043	59.28
805.432	59.24
805.821	59.21
806.21	59.24
806.599	59.26
806.988	59.26
807.377	59.29
807.766	59.29
808.155	59.3
808.544	59.24
808.933	59.26
809.321	59.29
809.71	59.37
810.098	59.39
810.487	59.39
810.875	59.39
811.264	59.38
811.652	59.4
812.04	59.39
812.428	59.39
812.816	59.43
813.204	59.44
813.592	59.42
813.98	59.41
814.368	59.41
814.756	59.42
815.144	59.43
815.531	59.45
815.919	59.44
816.306	59.44
816.694	59.47
817.081	59.47
817.469	59.53
817.856	59.59
818.243	59.59
818.63	59.67
819.017	59.7
819.404	59.7
819.791	59.69
820.178	59.72
820.565	59.72
820.952	59.73
821.339	59.76
821.725	59.77
822.112	59.79
822.498	59.82
822.885	59.77
823.271	59.79
823.657	59.81
824.044	59.86
824.43	59.85
824.816	59.87
825.202	59.87
825.588	59.84
825.974	59.8
826.36	59.74
826.746	59.76
827.132	59.75
827.517	59.77
827.903	59.78
828.289	59.77
828.674	59.78
829.06	59.78
829.445	59.79
829.83	59.83
830.216	59.85
830.601	59.87
830.986	59.86
831.371	59.91
831.756	59.87
832.141	59.88
832.526	59.89
832.911	59.9
833.295	59.91
833.68	59.91
834.065	59.9
834.449	59.89
834.834	59.89
835.218	59.9
835.603	59.89
835.987	59.87
836.371	59.87
836.755	59.85
837.139	59.83
837.524	59.83
837.908	59.78
838.291	59.77
838.675	59.81
839.059	59.81
839.443	59.79
839.827	59.76
840.21	59.79
840.594	59.79
840.977	59.8
841.361	59.82
841.744	59.83
842.127	59.85
842.511	59.83
842.894	59.78
843.277	59.79
843.66	59.81
844.043	59.81
844.426	59.8
844.809	59.78
845.191	59.78
845.574	59.77
845.957	59.74
846.339	59.75
846.722	59.77
847.104	59.8
847.487	59.81
847.869	59.82
848.252	59.82
848.634	59.85
849.016	59.85
849.398	59.85
849.78	59.86
850.162	59.89
850.544	59.95
850.926	59.94
851.307	59.97
851.689	59.93
852.071	59.94
852.452	59.98
852.834	59.95
853.215	59.98
853.597	60
853.978	59.99
854.359	59.97
854.741	59.92
855.122	59.92
855.503	59.93
855.884	59.94
856.265	59.9
856.646	59.87
857.026	59.88
857.407	59.81
857.788	59.82
858.169	59.82
858.549	59.82
858.93	59.83
859.31	59.84
859.69	59.79
860.071	59.79
860.451	59.8
860.831	59.82
861.211	59.8
861.591	59.86
861.971	59.86
862.351	59.85
862.731	59.84
863.111	59.85
863.491	59.83
863.87	59.84
864.25	59.84
864.629	59.84
865.009	59.8
865.388	59.81
865.768	59.81
866.147	59.82
866.526	59.8
866.905	59.81
867.284	59.82
867.663	59.85
868.042	59.83
868.421	59.83
868.8	59.83
869.179	59.86
869.558	59.86
869.936	59.82
870.315	59.81
870.693	59.87
871.072	59.87
871.45	59.86
871.828	59.83
872.207	59.87
872.585	59.88
872.963	59.88
873.341	59.89
873.719	59.88
874.097	59.9
874.475	59.9
874.853	59.86
875.23	59.84
875.608	59.84
875.986	59.84
876.363	59.82
876.741	59.82
877.118	59.81
877.495	59.77
877.873	59.76
878.25	59.73
878.627	59.69
879.004	59.69
879.381	59.71
879.758	59.7
880.135	59.72
880.512	59.75
880.889	59.72
881.265	59.74
881.642	59.77
882.019	59.8
882.395	59.84
882.772	59.84
883.148	59.83
883.524	59.83
883.901	59.8
884.277	59.78
884.653	59.79
885.029	59.83
885.405	59.8
885.781	59.77
886.157	59.76
886.532	59.73
886.908	59.77
887.284	59.81
887.659	59.81
888.035	59.83
888.411	59.83
888.786	59.82
889.161	59.79
889.537	59.83
889.912	59.84
890.287	59.83
890.662	59.83
891.037	59.78
891.412	59.74
891.787	59.74
892.162	59.72
892.536	59.71
892.911	59.69
893.286	59.68
893.66	59.66
894.035	59.65
894.409	59.66
894.784	59.67
895.158	59.68
895.532	59.67
895.906	59.66
896.281	59.65
896.655	59.66
897.029	59.66
897.402	59.66
897.776	59.67
898.15	59.66
898.524	59.62
898.898	59.58
899.271	59.58
899.645	59.58
900.018	59.55
900.392	59.56
900.765	59.55
901.138	59.52
901.511	59.53
901.884	59.48
902.258	59.43
902.631	59.44
903.003	59.46
903.376	59.45
903.749	59.47
904.122	59.5
904.495	59.47
904.867	59.44
905.24	59.46
905.612	59.41
905.985	59.39
906.357	59.37
906.729	59.33
907.102	59.3
907.474	59.26
907.846	59.21
908.218	59.15
908.59	59.14
908.962	59.12
909.334	59.08
909.705	59.08
910.077	59.08
910.449	59.14
910.82	59.15
911.192	59.14
911.563	59.14
911.935	59.08
912.306	59.06
912.677	59.05
913.048	59.04
913.419	59.02
913.79	59.01
914.161	58.99
914.532	58.98
914.903	58.96
915.274	58.92
915.645	58.91
916.015	58.93
916.386	58.95
916.756	58.91
917.127	58.9
917.497	58.91
917.868	58.92
918.238	58.96
918.608	58.96
918.978	58.95
919.348	58.91
919.718	58.9
920.088	58.93
920.458	58.93
920.828	58.94
921.198	58.93
921.567	58.9
921.937	58.87
922.306	58.82
922.676	58.8
923.045	58.78
923.415	58.82
923.784	58.86
924.153	58.87
924.522	58.88
924.891	58.88
925.26	58.85
925.629	58.84
925.998	58.82
926.367	58.81
926.736	58.81
927.104	58.79
927.473	58.79
927.842	58.71
928.21	58.69
928.578	58.64
928.947	58.59
929.315	58.59
929.683	58.64
930.051	58.61
930.42	58.63
930.788	58.64
931.156	58.65
931.523	58.66
931.891	58.61
932.259	58.53
932.627	58.46
932.994	58.47
933.362	58.42
933.729	58.31
934.097	58.3
934.464	58.18
934.831	58.11
935.199	58.05
935.566	57.92
935.933	57.93
936.3	57.82
936.667	57.75
937.034	57.67
937.401	57.58
937.767	57.59
938.134	57.52
938.501	57.39
938.867	57.38
939.234	57.35
939.6	57.33
939.967	57.32
940.333	57.39
940.699	57.54
941.065	57.63
941.431	57.67
941.798	57.69
942.163	57.82
942.529	57.99
942.895	58
943.261	58.04
943.627	58.15
943.992	58.13
944.358	58.17
944.723	58.06
945.089	58.01
945.454	58.11
945.82	58.06
946.185	58
946.55	58.08
946.915	58.06
947.28	58.03
947.645	57.94
948.01	57.94
948.375	57.89
948.74	57.88
949.104	57.88
949.469	57.7
949.834	57.69
950.198	57.6
950.562	57.45
950.927	57.51
951.291	57.47
951.655	57.46
952.02	57.44
952.384	57.46
952.748	57.5
953.112	57.54
953.476	57.58
953.839	57.54
954.203	57.53
954.567	57.56
954.931	57.5
955.294	57.49
955.658	57.43
956.021	57.46
956.385	57.46
956.748	57.4
957.111	57.34
957.474	57.37
957.837	57.4
958.2	57.41
958.563	57.42
958.926	57.3
959.289	57.32
959.652	57.31
960.015	57.23
960.377	57.15
960.74	57.15
961.102	57.12
961.465	57.15
961.827	57.09
962.189	56.99
962.552	56.89
962.914	56.93
963.276	56.88
963.638	56.91
964	56.86
964.362	56.91
964.724	56.91
965.085	56.96
965.447	56.86
965.809	56.8
966.17	56.83
966.532	56.87
966.893	56.89
967.255	56.83
967.616	56.83
967.977	56.89
968.338	56.89
968.699	56.85
969.061	56.71
969.421	56.7
969.782	56.76
970.143	56.75
970.504	56.73
970.865	56.6
971.225	56.63
971.586	56.63
971.946	56.6
972.307	56.54
972.667	56.54
973.027	56.57
973.388	56.53
973.748	56.49
974.108	56.49
974.468	56.46
974.828	56.53
975.188	56.46
975.548	56.52
975.907	56.48
976.267	56.48
976.627	56.44
976.986	56.4
977.346	56.5
977.705	56.51
978.064	56.48
978.424	56.54
978.783	56.57
979.142	56.59
979.501	56.47
979.86	56.5
980.219	56.44
980.578	56.51
980.937	56.62
981.296	56.5
981.654	56.51
982.013	56.51
982.371	56.43
982.73	56.37
983.088	56.27
983.447	56.25
983.805	56.18
984.163	56.16
984.521	56
984.879	55.95
985.237	55.94
985.595	55.94
985.953	55.91
986.311	55.99
986.669	56
987.026	56.13
987.384	56.19
987.741	56.24
988.099	56.28
988.456	56.32
988.814	56.27
989.171	56.34
989.528	56.31
989.885	56.19
990.242	56.09
990.599	56.03
990.956	56.05
991.313	55.97
991.67	55.91
992.027	55.85
992.383	55.91
992.74	55.88
993.096	55.81
993.453	55.68
993.809	55.81
994.165	55.88
994.522	55.91
994.878	55.77
995.234	55.68
995.59	55.61
995.946	55.63
996.302	55.46
996.658	55.47
997.013	55.48
997.369	55.57
997.725	55.43
998.08	55.41
998.436	55.43
998.791	55.35
999.147	55.47
999.502	55.34
999.857	55.27
1000.212	55.33
1000.567	55.18
1000.922	55.14
1001.277	55.11
1001.632	55.18
1001.987	54.94
1002.342	54.8
1002.696	54.84
1003.051	54.6
1003.406	54.74
1003.76	54.85
1004.114	54.98
1004.469	55.03
1004.823	54.95
1005.177	55.09
1005.531	54.91
1005.885	55.06
1006.239	55.07
1006.593	54.96
1006.947	55.02
1007.301	55.07
1007.655	54.89
1008.008	54.58
1008.362	54.69
1008.715	54.73
1009.069	54.4
1009.422	54.42
1009.776	54.33
1010.129	54.28
1010.482	54.4
1010.835	54.53
1011.188	54.26
1011.541	54.05
1011.894	54.18
1012.247	53.84
1012.6	53.73
1012.952	53.89
1013.305	53.82
1013.657	53.75
1014.01	53.85
1014.362	53.64
1014.715	53.46
1015.067	53.81
1015.419	54.1
1015.771	54.18
1016.123	54.27
1016.475	54.38
1016.827	54.32
1017.179	54.32
1017.531	54.33
1017.883	54.36
1018.234	54.47
1018.586	54.42
1018.938	54.15
1019.289	53.97
1019.64	54.05
1019.992	54.18
1020.343	53.95
1020.694	53.8
1021.045	53.66
1021.396	53.34
1021.747	53.31
1022.098	53.52
1022.449	53.29
1022.8	53.15
1023.151	53.16
1023.501	52.8
1023.852	52.49
1024.202	52.52
1024.553	52.44
1024.903	52.41
1025.253	52.75
1025.604	52.74
1025.954	52.22
1026.304	52.68
1026.654	52.89
1027.004	52.96
1027.354	52.95
1027.703	52.89
1028.053	52.8
1028.403	52.81
1028.753	53.15
1029.102	52.76
1029.452	52.32
1029.801	52.24
1030.15	51.9
1030.499	51.67
897.758	646.06
901.051	656.57
904.343	666.64
907.636	655.01
910.928	644.15
914.22	651.33
917.511	642.48
920.803	617.34
924.094	590.22
927.384	593.02
930.675	577.25
933.965	569.99
937.255	567.97
940.544	541.55
943.834	519.18
947.123	509.6
950.411	487.2
953.7	474.2
956.988	461.48
960.276	444.43
963.563	434.98
966.851	411.64
970.138	405.86
973.424	378.93
976.711	375.28
979.997	362.54
983.283	355.42
986.568	343.07
989.853	332.68
993.138	321.2
996.423	314.64
999.708	308.01
1002.992	308.5
1006.275	297.99
1009.559	295.05
1012.842	285.31
1016.125	275.63
1019.408	270.68
1022.69	268.69
1025.972	266.92
1029.254	259.09
1032.536	254.91
1035.817	244.35
1039.098	241.61
1042.379	238.69
1045.659	234.88
1048.939	232.51
1052.219	228.18
1055.498	224.88
1058.778	220.95
1062.057	217.15
1065.335	216.8
1068.614	211.9
1071.892	211.48
1075.17	206.82
1078.447	202.75
1081.724	201.49
1085.001	197.87
1088.278	198.88
1091.554	196.56
1094.83	195.36
1098.106	191.84
1101.382	190.46
1104.657	190.35
1107.932	189.38
1111.206	188.23
1114.481	185.35
1117.755	184.78
1121.029	183.35
1124.302	179.47
1127.575	177.33
1130.848	176.31
1134.121	173.83
1137.393	173.51
1140.665	171.89
1143.937	169.56
1147.208	167.89
1150.48	166.87
1153.75	165.22
1157.021	164.11
1160.291	164.41
1163.561	163.95
1166.831	162.54
1170.101	163.18
1173.37	161.9
1176.639	160.73
1179.907	160.67
1183.176	160.35
1186.444	160.41
1189.711	159.46
1192.979	160.63
1196.246	160.56
1199.513	160.28
1202.78	159.85
1206.046	159.68
1209.312	160.17
1212.578	161.52
1215.843	163.57
1219.108	164.61
1222.373	167.32
1225.638	169.59
1228.902	173.37
1232.166	178.32
1235.43	180.74
1238.693	186.82
1241.956	190.55
1245.219	195.36
1248.482	196.44
1251.744	195.82
1255.006	196.76
1258.268	191.8
1261.529	190.91
1264.79	185.96
1268.051	181.78
1271.312	179.88
1274.572	176.26
1277.832	171.66
1281.092	169.69
1284.351	166.78
1287.61	167.03
1290.869	164.8
1294.128	164.52
1297.386	164.58
1300.644	163.51
1303.902	163.38
1307.159	162.34
1310.416	162.7
1313.673	165.48
1316.93	166.4
1320.186	168.62
1323.442	170.08
1326.697	173.91
1329.953	175.74
1333.208	180.53
1336.463	188.58
1339.717	191.35
1342.972	201.27
1346.226	206.13
1349.479	207.75
1352.733	216.48
1355.986	221.1
1359.238	226.16
1362.491	229.52
1365.743	236.89
1368.995	237.95
1372.247	237.19
1375.498	237.38
1378.749	244.08
1382	246.15
1385.251	244.28
1388.501	243.86
1391.751	247.52
1395	245.9
1398.25	246.83
1401.499	247.06
1404.748	246.75
1407.996	241.17
1411.244	241.4
1414.492	236.78
1417.74	228.87
1420.987	224.21
1424.234	219.7
1427.481	212.82
1430.728	206.58
1433.974	199.88
1437.22	191.83
1440.465	185.96
1443.711	180.44
1446.956	175.17
1450.201	168.51
1453.445	161.66
1456.689	157.82
1459.933	151.99
1463.177	145.05
1466.42	141.45
1469.663	137.64
1472.906	134.58
1476.148	130.4
1479.391	127.92
1482.633	125.51
1485.874	124.2
1489.115	123.14
1492.356	119.09
1495.597	118.37
1498.838	117.32
1502.078	116.92
1505.318	116.31
1508.557	115.32
1511.797	114.56
1515.036	114.73
1518.274	114.08
1521.513	112.45
1524.751	111.78
1527.989	114.3
1531.227	113.61
1534.464	113.44
1537.701	112.77
1540.938	112.14
1544.174	112.14
1547.41	112.54
1550.646	111.54
1553.882	111.77
1557.117	110.8
1560.352	110.8
1563.587	109.35
1566.821	109.21
1570.055	109.12
1573.289	108.64
1576.523	108.57
1579.756	108.25
1582.989	107.8
1586.222	107.96
1589.454	107.18
1592.686	107.65
1595.918	107.1
1599.15	107.42
1602.381	107.35
1605.612	107.17
1608.843	107.37
1612.073	108.16
1615.303	108.02
1618.533	107.64
1621.762	107.99
1624.992	108.26
1628.221	108
1631.449	108.64
1634.678	107.85
1637.906	108.21
1641.134	108.48
1644.361	108.52
1647.588	108.17
1650.815	108.45
1654.042	108.76
1657.269	108.12
1660.495	108.79
1663.72	108.69
1666.946	108.85
1670.171	109.84
1673.396	110
1676.621	110.04
1679.845	110.2
1683.069	109.92
1686.293	109.72
1689.517	110.04
1692.74	110.11
1695.963	110.49
1699.185	111.26
1702.408	111.22
1705.63	111.13
1708.852	111.95
1712.073	111.74
1715.294	111.77
1718.515	112.57
1721.736	113
1724.956	112.98
1728.176	113.35
1731.396	113.59
1734.616	113.36
1737.835	113.43
1741.054	113.48
1744.272	112.94
1747.491	113.41
1750.709	113.8
1753.927	113.81
1757.144	113.94
1760.361	114.1
1763.578	114.44
1766.795	114.78
1770.011	115.19
1773.227	115.99
1776.443	116.81
1779.658	117.09
1782.874	117.39
1786.089	118.06
1789.303	118.25
1792.518	119.62
1795.732	120.29
1798.945	121.52
1802.159	121.48
1805.372	123.22
1808.585	123.53
1811.797	124.5
1815.01	125.84
1818.222	127.01
1821.434	128.01
1824.645	128.8
1827.856	130.6
1831.067	130.94
1834.278	132.06
1837.488	133.17
1840.698	133.58
1843.908	133.81
1847.117	135.17
1850.326	135.45
1853.535	135.3
1856.744	136.39
1859.952	138.41
1863.16	137.93
1866.368	137.89
1869.575	138.22
1872.782	137.72
1875.989	136.76
1879.196	136.44
1882.402	135.2
1885.608	136.39
1888.814	136.61
1892.019	136.65
1895.224	134.08
1898.429	134.39
1901.634	135.93
1904.838	135.84
1908.042	136.05
1911.246	136.25
1914.449	137.19
1917.652	136.98
1920.855	136.43
1924.058	135.75
1927.26	134.99
1930.462	135.44
1933.664	135.37
1936.865	135.58
1940.066	134.07
1943.267	133.85
1946.467	134.85
1949.668	134.65
1952.868	135.8
1956.067	135.36
1959.267	136.86
1962.466	137.67
1965.665	139.32
1968.863	140.36
1972.061	139.79
1975.259	143.01
1978.457	144.53
1981.654	145.56
1984.852	147.3
1988.048	148.52
1991.245	151.39
1994.441	153.78
1997.637	156.65
2000.833	160.12
2004.028	161.49
2007.223	167.18
2010.418	170.83
2013.613	177.23
2016.807	182.1
2020.001	185.64
2023.194	190.83
2026.388	197.34
2029.581	206.88
2032.774	212.98
2035.966	218.57
2039.158	224.87
2042.35	227.19
2045.542	231.21
2048.733	240.71
2051.924	244.09
2055.115	247.41
2058.306	249.51
2061.496	253.8
2064.686	254.99
2067.875	254.44
2071.065	256.54
2074.254	258.05
2077.442	266.16
2080.631	269.2
2083.819	270.22
2087.007	273.54
2090.195	280.32
2093.382	279.53
2096.569	279.07
2099.756	285.55
2102.942	291.8
2106.128	298.75
2109.314	299.23
2112.5	299.91
2115.685	298.08
2118.87	298.01
2122.055	300.55
2125.239	305.56
2128.424	314.16
2131.608	312.55
2134.791	309.34
2137.974	310.4
2141.157	313.35
2144.34	316.91
2147.523	320.26
2150.705	328.3
2153.887	325.49
2157.068	329.58
2160.25	332.34
2163.431	331.06
2166.611	338.55
2169.792	344.93
2172.972	351.34
2176.152	351.14
2179.331	358.84
2182.511	360.19
2185.69	364.05
2188.868	380.19
2192.047	387.35
2195.225	391.33
2198.403	396.75
2201.58	391.21
2204.758	405.7
2207.935	407.37
2211.111	412.17
2214.288	414.87
2217.464	420.97
2220.64	421.26
2223.815	422.31
2226.991	415.74
2230.166	419.32
2233.34	434.24
2236.515	444.33
2239.689	436.65
2242.863	444.93
2246.036	443.67
2249.209	452.15
2252.382	452.76
2255.555	470.79
2258.727	470.62
2261.9	487.99
2265.071	495.39
2268.243	490.98
2271.414	505.94
2274.585	514.43
2277.756	514.08
2280.926	532.89
2284.096	535.86
2287.266	537.04
2290.436	523.84
2293.605	539.1
2296.774	558.7
2299.942	556.44
2303.111	571.88
2306.279	579.94
2309.447	586.57
2312.614	585.99
2315.781	601.7
2318.948	611.36
2322.115	623.72
2325.281	658.01
2328.447	654.5
2331.613	651.92
2334.779	664.68
2337.944	674.33
2341.109	692.01
2344.274	697.18
2347.438	718.97
2350.602	729.1
2353.766	767.53
2356.929	772.11
2360.092	784.46
2363.255	783.71
2366.418	798.94
2369.58	814.67
2372.742	810.92
2375.904	804.79
2379.066	827.05
2382.227	877.9
2385.388	871.36
2388.548	829.74
2391.709	823.81
2394.869	848.08
2398.029	854.16
2401.188	848.96
2404.347	871.9
2407.506	904.43
2410.665	872.58
2413.823	876.88
2416.981	871.93
2420.139	830.83
2423.296	895.91
2426.453	951.87
2429.61	909.89
2432.767	969.72
2435.923	1011.07
2439.079	973.48
2442.235	995.32
2445.391	1019.13
2448.546	1009.93
2451.701	1056.44
2454.855	1134.21
2458.009	1001.71
2461.163	1022.73
2464.317	1026.11
2467.471	1005.17
2470.624	1036.23
2473.777	1021.35
2476.929	988.07
2480.082	1058.22
2483.234	1105.9
2486.385	1129.29
2489.537	1154.12
2492.688	1278.47
2495.839	1257.53
2498.989	1293.38
2502.14	1295.93
2505.29	1235.54
2508.439	1382.77
2511.589	1414.18
2514.738	1365.58
2517.887	1358.09
2521.035	1279.79
2524.183	1253.3
2527.331	1239.3
2530.479	1200.98
2533.627	1235.46
