Data from N_1_div_il_4n_005_Splice17_14.txt Node
Date: Sat Feb 29 13:34:44 EST 2020
User: sa697716
Spectrometer: FLMS03696
Trigger mode: 0
Integration Time (sec): 3.180400E-1
Scans to average: 20
Electric dark correction enabled: true
Nonlinearity correction enabled: true
Boxcar width: 5
XAxis mode: Wavelengths
Number of Pixels in Spectrum: 2048
>>>>>Begin Spectral Data<<<<<
187.83	115.44
188.298	115.07
188.766	106.19
189.233	99.73
189.701	108.54
190.169	104.88
190.636	119.87
191.104	110.18
191.571	300.19
192.039	183.23
192.506	-3.12
192.974	-504.89
193.441	208.97
193.908	49.95
194.375	-12.71
194.842	52.14
195.31	11.56
195.777	77.11
196.244	14.07
196.711	14.57
197.177	12.48
197.644	14.34
198.111	14.38
198.578	13.9
199.045	14.22
199.511	14.71
199.978	15.34
200.445	15.63
200.911	15.38
201.378	15.66
201.844	16.22
202.31	16.91
202.777	17.2
203.243	17.59
203.709	18.1
204.176	17.72
204.642	17.82
205.108	17.88
205.574	18.24
206.04	18.33
206.506	18.33
206.972	18.19
207.438	17.95
207.903	18.03
208.369	17.53
208.835	17.4
209.301	17.65
209.766	17.7
210.232	17.61
210.697	17.33
211.163	17.13
211.628	17.01
212.094	17.09
212.559	17.16
213.024	16.83
213.49	16.82
213.955	16.67
214.42	16.48
214.885	16.2
215.35	16.19
215.815	16.08
216.28	16.06
216.745	15.75
217.21	15.3
217.675	14.92
218.14	14.52
218.604	14.09
219.069	13.86
219.534	13.62
219.998	13.33
220.463	13.03
220.927	12.86
221.392	12.69
221.856	12.55
222.32	12.42
222.785	12.25
223.249	12.15
223.713	12.11
224.177	11.95
224.642	11.83
225.106	11.72
225.57	11.61
226.034	11.49
226.497	11.36
226.961	11.25
227.425	11.13
227.889	11.02
228.353	10.9
228.816	10.76
229.28	10.65
229.744	10.55
230.207	10.48
230.671	10.38
231.134	10.3
231.597	10.18
232.061	10.07
232.524	9.98
232.987	9.89
233.45	9.8
233.914	9.72
234.377	9.65
234.84	9.57
235.303	9.48
235.766	9.38
236.229	9.29
236.691	9.23
237.154	9.15
237.617	9.08
238.08	9.01
238.542	8.95
239.005	8.87
239.468	8.77
239.93	8.7
240.393	8.63
240.855	8.56
241.317	8.5
241.78	8.43
242.242	8.37
242.704	8.3
243.166	8.23
243.629	8.18
244.091	8.13
244.553	8.09
245.015	8.03
245.477	7.97
245.939	7.92
246.4	7.85
246.862	7.8
247.324	7.77
247.786	7.72
248.247	7.68
248.709	7.62
249.17	7.58
249.632	7.52
250.093	7.47
250.555	7.43
251.016	7.4
251.477	7.36
251.939	7.34
252.4	7.29
252.861	7.23
253.322	7.18
253.783	7.14
254.244	7.1
254.705	7.07
255.166	7.04
255.627	7
256.088	6.94
256.549	6.91
257.009	6.86
257.47	6.83
257.931	6.8
258.391	6.76
258.852	6.71
259.312	6.68
259.773	6.64
260.233	6.6
260.694	6.57
261.154	6.53
261.614	6.49
262.074	6.46
262.534	6.41
262.994	6.38
263.455	6.35
263.915	6.32
264.374	6.29
264.834	6.25
265.294	6.22
265.754	6.19
266.214	6.17
266.673	6.15
267.133	6.12
267.593	6.1
268.052	6.07
268.512	6.04
268.971	6.02
269.431	6
269.89	5.99
270.349	5.96
270.809	5.94
271.268	5.92
271.727	5.89
272.186	5.86
272.645	5.84
273.104	5.82
273.563	5.81
274.022	5.78
274.481	5.75
274.94	5.72
275.399	5.7
275.857	5.67
276.316	5.64
276.775	5.62
277.233	5.59
277.692	5.56
278.15	5.54
278.609	5.51
279.067	5.48
279.525	5.46
279.984	5.44
280.442	5.42
280.9	5.41
281.358	5.39
281.816	5.38
282.274	5.35
282.732	5.34
283.19	5.33
283.648	5.31
284.106	5.29
284.564	5.27
285.021	5.25
285.479	5.23
285.937	5.2
286.394	5.17
286.852	5.15
287.309	5.14
287.767	5.12
288.224	5.11
288.682	5.09
289.139	5.08
289.596	5.06
290.053	5.04
290.511	5.03
290.968	5.02
291.425	5
291.882	4.99
292.339	4.98
292.796	4.96
293.252	4.94
293.709	4.92
294.166	4.9
294.623	4.89
295.079	4.88
295.536	4.87
295.992	4.86
296.449	4.85
296.905	4.83
297.362	4.81
297.818	4.8
298.274	4.79
298.731	4.78
299.187	4.77
299.643	4.76
300.099	4.74
300.555	4.72
301.011	4.7
301.467	4.7
301.923	4.68
302.379	4.67
302.835	4.66
303.291	4.65
303.746	4.63
304.202	4.61
304.658	4.6
305.113	4.59
305.569	4.59
306.024	4.58
306.479	4.56
306.935	4.55
307.39	4.54
307.845	4.54
308.301	4.53
308.756	4.54
309.211	4.54
309.666	4.54
310.121	4.53
310.576	4.52
311.031	4.51
311.486	4.52
311.94	4.51
312.395	4.5
312.85	4.49
313.305	4.49
313.759	4.48
314.214	4.46
314.668	4.45
315.123	4.45
315.577	4.44
316.032	4.43
316.486	4.41
316.94	4.41
317.394	4.4
317.849	4.4
318.303	4.39
318.757	4.37
319.211	4.37
319.665	4.36
320.119	4.35
320.572	4.35
321.026	4.35
321.48	4.35
321.934	4.34
322.387	4.34
322.841	4.32
323.295	4.32
323.748	4.31
324.202	4.31
324.655	4.29
325.108	4.28
325.562	4.26
326.015	4.24
326.468	4.23
326.921	4.22
327.374	4.21
327.827	4.21
328.28	4.2
328.733	4.19
329.186	4.18
329.639	4.18
330.092	4.17
330.545	4.18
330.997	4.17
331.45	4.18
331.903	4.17
332.355	4.16
332.808	4.15
333.26	4.15
333.713	4.15
334.165	4.15
334.617	4.15
335.069	4.15
335.522	4.15
335.974	4.15
336.426	4.15
336.878	4.15
337.33	4.16
337.782	4.15
338.234	4.16
338.686	4.15
339.137	4.15
339.589	4.14
340.041	4.13
340.493	4.12
340.944	4.11
341.396	4.11
341.847	4.11
342.299	4.09
342.75	4.08
343.201	4.07
343.653	4.07
344.104	4.05
344.555	4.06
345.006	4.04
345.457	4.05
345.908	4.04
346.359	4.03
346.81	4.03
347.261	4.03
347.712	4.03
348.163	4.03
348.613	4.03
349.064	4.02
349.515	4.01
349.965	4.01
350.416	4.01
350.866	4.01
351.317	3.99
351.767	3.98
352.217	3.98
352.668	3.97
353.118	3.98
353.568	3.98
354.018	3.99
354.468	4
354.918	4
355.368	4
355.818	3.99
356.268	4
356.718	4
357.168	3.99
357.617	3.99
358.067	3.98
358.517	3.98
358.966	3.97
359.416	3.98
359.865	3.97
360.315	3.97
360.764	3.98
361.213	3.97
361.663	3.97
362.112	3.99
362.561	3.99
363.01	4
363.459	4
363.908	4.01
364.357	4
364.806	4.01
365.255	4.02
365.703	4.02
366.152	4.03
366.601	4.03
367.05	4.03
367.498	4.05
367.947	4.05
368.395	4.06
368.844	4.05
369.292	4.05
369.74	4.05
370.189	4.06
370.637	4.07
371.085	4.09
371.533	4.09
371.981	4.09
372.429	4.09
372.877	4.09
373.325	4.09
373.773	4.09
374.221	4.1
374.669	4.11
375.116	4.11
375.564	4.12
376.012	4.12
376.459	4.13
376.907	4.14
377.354	4.15
377.801	4.17
378.249	4.19
378.696	4.21
379.143	4.24
379.591	4.25
380.038	4.27
380.485	4.28
380.932	4.31
381.379	4.32
381.826	4.35
382.273	4.36
382.72	4.37
383.166	4.4
383.613	4.41
384.06	4.43
384.506	4.44
384.953	4.46
385.4	4.49
385.846	4.5
386.292	4.52
386.739	4.53
387.185	4.57
387.631	4.59
388.078	4.61
388.524	4.62
388.97	4.64
389.416	4.66
389.862	4.68
390.308	4.69
390.754	4.71
391.2	4.74
391.645	4.77
392.091	4.79
392.537	4.82
392.983	4.84
393.428	4.87
393.874	4.9
394.319	4.93
394.765	4.96
395.21	4.97
395.655	5
396.101	5.01
396.546	5.03
396.991	5.05
397.436	5.05
397.881	5.07
398.326	5.09
398.771	5.1
399.216	5.12
399.661	5.15
400.106	5.2
400.551	5.2
400.995	5.22
401.44	5.24
401.885	5.26
402.329	5.29
402.774	5.3
403.218	5.32
403.663	5.33
404.107	5.35
404.551	5.36
404.995	5.36
405.44	5.37
405.884	5.38
406.328	5.4
406.772	5.41
407.216	5.43
407.66	5.45
408.104	5.45
408.547	5.47
408.991	5.47
409.435	5.48
409.879	5.5
410.322	5.52
410.766	5.52
411.209	5.54
411.653	5.55
412.096	5.56
412.54	5.57
412.983	5.58
413.426	5.6
413.869	5.62
414.312	5.64
414.756	5.65
415.199	5.65
415.642	5.69
416.085	5.7
416.527	5.72
416.97	5.74
417.413	5.75
417.856	5.76
418.298	5.76
418.741	5.76
419.184	5.77
419.626	5.76
420.069	5.78
420.511	5.77
420.953	5.76
421.396	5.77
421.838	5.79
422.28	5.82
422.722	5.83
423.164	5.84
423.606	5.85
424.048	5.84
424.49	5.87
424.932	5.87
425.374	5.87
425.816	5.87
426.258	5.87
426.699	5.85
427.141	5.83
427.582	5.84
428.024	5.86
428.465	5.88
428.907	5.9
429.348	5.9
429.789	5.91
430.231	5.93
430.672	5.94
431.113	5.96
431.554	5.98
431.995	5.99
432.436	6
432.877	6.01
433.318	5.99
433.759	5.98
434.2	5.97
434.64	5.98
435.081	5.98
435.522	6
435.962	5.99
436.403	6.02
436.843	6.03
437.284	6.03
437.724	6.05
438.164	6.05
438.604	6.07
439.045	6.1
439.485	6.11
439.925	6.11
440.365	6.11
440.805	6.11
441.245	6.11
441.685	6.12
442.125	6.14
442.564	6.14
443.004	6.16
443.444	6.17
443.883	6.17
444.323	6.18
444.762	6.21
445.202	6.26
445.641	6.28
446.081	6.31
446.52	6.31
446.959	6.31
447.398	6.35
447.837	6.38
448.276	6.39
448.716	6.43
449.154	6.45
449.593	6.47
450.032	6.47
450.471	6.47
450.91	6.47
451.349	6.5
451.787	6.52
452.226	6.5
452.664	6.5
453.103	6.5
453.541	6.51
453.98	6.51
454.418	6.5
454.856	6.49
455.295	6.5
455.733	6.5
456.171	6.49
456.609	6.5
457.047	6.5
457.485	6.5
457.923	6.51
458.361	6.5
458.798	6.52
459.236	6.53
459.674	6.53
460.111	6.54
460.549	6.54
460.987	6.54
461.424	6.53
461.862	6.54
462.299	6.55
462.736	6.55
463.173	6.56
463.611	6.55
464.048	6.55
464.485	6.53
464.922	6.52
465.359	6.52
465.796	6.53
466.233	6.54
466.67	6.56
467.106	6.56
467.543	6.56
467.98	6.55
468.416	6.55
468.853	6.54
469.29	6.58
469.726	6.61
470.162	6.61
470.599	6.6
471.035	6.59
471.471	6.55
471.907	6.54
472.344	6.53
472.78	6.54
473.216	6.54
473.652	6.55
474.088	6.54
474.523	6.53
474.959	6.52
475.395	6.52
475.831	6.52
476.266	6.53
476.702	6.53
477.138	6.53
477.573	6.52
478.008	6.52
478.444	6.52
478.879	6.52
479.314	6.52
479.75	6.52
480.185	6.52
480.62	6.52
481.055	6.52
481.49	6.51
481.925	6.5
482.36	6.5
482.795	6.5
483.229	6.5
483.664	6.48
484.099	6.48
484.534	6.48
484.968	6.48
485.403	6.48
485.837	6.47
486.271	6.47
486.706	6.48
487.14	6.5
487.574	6.51
488.009	6.52
488.443	6.54
488.877	6.54
489.311	6.55
489.745	6.56
490.179	6.59
490.613	6.61
491.046	6.64
491.48	6.66
491.914	6.67
492.348	6.7
492.781	6.73
493.215	6.75
493.648	6.78
494.082	6.82
494.515	6.85
494.948	6.88
495.382	6.91
495.815	6.94
496.248	6.98
496.681	7.03
497.114	7.04
497.547	7.09
497.98	7.14
498.413	7.2
498.846	7.25
499.279	7.3
499.711	7.34
500.144	7.41
500.577	7.48
501.009	7.54
501.442	7.61
501.874	7.7
502.306	7.79
502.739	7.86
503.171	7.95
503.603	8.05
504.036	8.16
504.468	8.27
504.9	8.38
505.332	8.48
505.764	8.62
506.196	8.75
506.627	8.89
507.059	9.02
507.491	9.17
507.923	9.32
508.354	9.47
508.786	9.62
509.217	9.78
509.649	9.97
510.08	10.16
510.512	10.33
510.943	10.51
511.374	10.71
511.805	10.9
512.237	11.09
512.668	11.29
513.099	11.5
513.53	11.72
513.961	11.95
514.391	12.13
514.822	12.35
515.253	12.57
515.684	12.79
516.114	13.03
516.545	13.27
516.975	13.53
517.406	13.78
517.836	14.01
518.267	14.27
518.697	14.53
519.127	14.81
519.558	15.06
519.988	15.32
520.418	15.55
520.848	15.79
521.278	16.03
521.708	16.37
522.138	16.61
522.567	16.87
522.997	17.09
523.427	17.32
523.857	17.52
524.286	17.75
524.716	17.97
525.145	18.2
525.575	18.41
526.004	18.59
526.433	18.67
526.863	18.85
527.292	19.02
527.721	19.19
528.15	19.34
528.579	19.49
529.008	19.65
529.437	19.79
529.866	19.9
530.295	20.04
530.724	20.19
531.152	20.33
531.581	20.43
532.01	20.53
532.438	20.63
532.867	20.73
533.295	20.84
533.723	20.91
534.152	21
534.58	21.08
535.008	21.13
535.436	21.19
535.865	21.24
536.293	21.31
536.721	21.38
537.149	21.43
537.576	21.48
538.004	21.51
538.432	21.57
538.86	21.61
539.287	21.66
539.715	21.71
540.143	21.73
540.57	21.77
540.998	21.79
541.425	21.82
541.852	21.84
542.28	21.87
542.707	21.91
543.134	21.92
543.561	21.93
543.988	21.95
544.415	21.96
544.842	22
545.269	22.03
545.696	22.07
546.123	22.1
546.549	22.12
546.976	22.16
547.403	22.17
547.829	22.18
548.256	22.21
548.682	22.22
549.108	22.24
549.535	22.23
549.961	22.21
550.387	22.2
550.813	22.18
551.24	22.2
551.666	22.19
552.092	22.19
552.518	22.18
552.943	22.16
553.369	22.14
553.795	22.11
554.221	22.08
554.646	22.04
555.072	22
555.498	21.99
555.923	21.93
556.349	21.86
556.774	21.8
557.199	21.73
557.625	21.66
558.05	21.59
558.475	21.5
558.9	21.44
559.325	21.37
559.75	21.28
560.175	21.16
560.6	21.06
561.025	20.95
561.449	20.83
561.874	20.73
562.299	20.61
562.723	20.49
563.148	20.38
563.572	20.25
563.997	20.13
564.421	19.98
564.846	19.85
565.27	19.72
565.694	19.58
566.118	19.44
566.542	19.31
566.966	19.18
567.39	19.05
567.814	18.9
568.238	18.73
568.662	18.58
569.086	18.45
569.509	18.31
569.933	18.17
570.357	18.03
570.78	17.89
571.204	17.74
571.627	17.6
572.05	17.47
572.474	17.33
572.897	17.19
573.32	17.06
573.743	16.92
574.166	16.79
574.589	16.66
575.012	16.55
575.435	16.44
575.858	16.32
576.281	16.22
576.704	16.1
577.126	16
577.549	15.91
577.972	15.81
578.394	15.71
578.817	15.63
579.239	15.54
579.661	15.45
580.084	15.37
580.506	15.29
580.928	15.2
581.35	15.11
581.772	15.05
582.194	14.97
582.616	14.91
583.038	14.86
583.46	14.78
583.882	14.71
584.303	14.65
584.725	14.58
585.147	14.51
585.568	14.46
585.99	14.42
586.411	14.34
586.833	14.28
587.254	14.22
587.675	14.17
588.096	14.12
588.518	14.08
588.939	14.03
589.36	13.98
589.781	13.93
590.202	13.89
590.623	13.85
591.043	13.81
591.464	13.77
591.885	13.72
592.305	13.7
592.726	13.67
593.147	13.64
593.567	13.6
593.987	13.6
594.408	13.58
594.828	13.55
595.248	13.52
595.669	13.51
596.089	13.5
596.509	13.48
596.929	13.44
597.349	13.41
597.769	13.38
598.189	13.36
598.608	13.32
599.028	13.27
599.448	13.24
599.867	13.2
600.287	13.16
600.706	13.11
601.126	13.08
601.545	13.05
601.965	13
602.384	12.96
602.803	12.91
603.222	12.87
603.641	12.84
604.061	12.78
604.48	12.73
604.898	12.67
605.317	12.61
605.736	12.54
606.155	12.49
606.574	12.42
606.992	12.36
607.411	12.3
607.829	12.18
608.248	12.11
608.666	12.05
609.085	11.99
609.503	11.93
609.921	11.87
610.339	11.82
610.758	11.74
611.176	11.69
611.594	11.62
612.012	11.55
612.43	11.55
612.847	11.5
613.265	11.44
613.683	11.37
614.101	11.31
614.518	11.24
614.936	11.18
615.353	11.12
615.771	11.06
616.188	11.03
616.606	10.97
617.023	10.93
617.44	10.87
617.857	10.81
618.274	10.76
618.691	10.73
619.108	10.69
619.525	10.65
619.942	10.63
620.359	10.61
620.776	10.57
621.192	10.55
621.609	10.52
622.026	10.5
622.442	10.49
622.859	10.48
623.275	10.47
623.691	10.45
624.108	10.44
624.524	10.42
624.94	10.4
625.356	10.4
625.772	10.39
626.188	10.38
626.604	10.37
627.02	10.37
627.436	10.36
627.852	10.35
628.268	10.34
628.683	10.33
629.099	10.32
629.514	10.3
629.93	10.28
630.345	10.25
630.761	10.24
631.176	10.23
631.591	10.19
632.007	10.16
632.422	10.13
632.837	10.09
633.252	10.06
633.667	10
634.082	9.96
634.497	9.91
634.911	9.86
635.326	9.79
635.741	9.73
636.155	9.68
636.57	9.64
636.984	9.55
637.399	9.48
637.813	9.39
638.228	9.32
638.642	9.24
639.056	9.17
639.47	9.1
639.884	9.03
640.298	8.95
640.712	8.87
641.126	8.78
641.54	8.72
641.954	8.66
642.368	8.61
642.781	8.56
643.195	8.49
643.609	8.43
644.022	8.36
644.436	8.29
644.849	8.22
645.262	8.17
645.676	8.11
646.089	8.05
646.502	8
646.915	7.96
647.328	7.89
647.741	7.85
648.154	7.8
648.567	7.77
648.98	7.75
649.393	7.72
649.805	7.69
650.218	7.65
650.631	7.62
651.043	7.59
651.456	7.56
651.868	7.54
652.28	7.52
652.693	7.49
653.105	7.46
653.517	7.43
653.929	7.41
654.341	7.39
654.753	7.36
655.165	7.33
655.577	7.28
655.989	7.23
656.401	7.19
656.813	7.15
657.224	7.12
657.636	7.09
658.047	7.05
658.459	6.99
658.87	6.93
659.282	6.9
659.693	6.86
660.104	6.81
660.515	6.78
660.926	6.73
661.338	6.69
661.749	6.64
662.159	6.6
662.57	6.55
662.981	6.52
663.392	6.48
663.803	6.43
664.213	6.42
664.624	6.39
665.035	6.35
665.445	6.35
665.855	6.33
666.266	6.31
666.676	6.29
667.086	6.28
667.497	6.27
667.907	6.26
668.317	6.25
668.727	6.25
669.137	6.26
669.547	6.28
669.956	6.27
670.366	6.27
670.776	6.28
671.186	6.29
671.595	6.3
672.005	6.32
672.414	6.34
672.824	6.36
673.233	6.36
673.642	6.37
674.052	6.39
674.461	6.41
674.87	6.43
675.279	6.45
675.688	6.46
676.097	6.5
676.506	6.52
676.915	6.54
677.323	6.56
677.732	6.6
678.141	6.63
678.549	6.65
678.958	6.69
679.366	6.71
679.775	6.75
680.183	6.81
680.592	6.86
681	6.89
681.408	6.94
681.816	6.99
682.224	7.05
682.632	7.12
683.04	7.18
683.448	7.25
683.856	7.34
684.264	7.43
684.671	7.52
685.079	7.61
685.487	7.74
685.894	7.86
686.302	7.99
686.709	8.13
687.116	8.3
687.524	8.5
687.931	8.71
688.338	8.93
688.745	9.19
689.152	9.46
689.559	9.76
689.966	10.06
690.373	10.4
690.78	10.77
691.187	11.16
691.593	11.54
692	11.96
692.407	12.38
692.813	12.84
693.22	13.29
693.626	13.76
694.032	14.24
694.439	14.75
694.845	15.26
695.251	15.76
695.657	16.3
696.063	16.83
696.469	17.38
696.875	17.91
697.281	18.44
697.687	18.99
698.093	19.54
698.498	20.11
698.904	20.64
699.31	21.18
699.715	21.75
700.12	22.27
700.526	22.83
700.931	23.33
701.337	23.88
701.742	24.38
702.147	24.89
702.552	25.42
702.957	25.92
703.362	26.44
703.767	26.93
704.172	27.43
704.577	27.92
704.981	28.41
705.386	28.91
705.791	29.39
706.195	29.88
706.6	30.35
707.004	30.81
707.408	31.27
707.813	31.72
708.217	32.18
708.621	32.63
709.025	33.05
709.43	33.46
709.834	33.92
710.237	34.34
710.641	34.76
711.045	35.17
711.449	35.58
711.853	35.99
712.256	36.38
712.66	36.79
713.064	37.19
713.467	37.6
713.87	38.01
714.274	38.39
714.677	38.79
715.08	39.17
715.484	39.56
715.887	39.94
716.29	40.3
716.693	40.66
717.096	41.01
717.499	41.35
717.901	41.66
718.304	41.98
718.707	42.28
719.109	42.59
719.512	42.94
719.915	43.23
720.317	43.55
720.719	43.85
721.122	44.15
721.524	44.47
721.926	44.74
722.328	45.02
722.731	45.32
723.133	45.63
723.535	45.89
723.937	46.11
724.338	46.35
724.74	46.56
725.142	46.81
725.544	47.02
725.945	47.23
726.347	47.46
726.748	47.66
727.15	47.83
727.551	48
727.952	48.17
728.354	48.39
728.755	48.59
729.156	48.75
729.557	48.88
729.958	49.06
730.359	49.19
730.76	49.32
731.161	49.48
731.562	49.64
731.962	49.77
732.363	49.91
732.763	50
733.164	50.09
733.564	50.19
733.965	50.28
734.365	50.37
734.766	50.48
735.166	50.56
735.566	50.62
735.966	50.69
736.366	50.77
736.766	50.84
737.166	50.93
737.566	51.02
737.966	51.12
738.365	51.21
738.765	51.3
739.165	51.35
739.564	51.42
739.964	51.48
740.363	51.54
740.763	51.58
741.162	51.63
741.561	51.7
741.96	51.77
742.36	51.8
742.759	51.81
743.158	51.83
743.557	51.91
743.955	51.99
744.354	52.06
744.753	52.12
745.152	52.18
745.55	52.23
745.949	52.26
746.348	52.27
746.746	52.31
747.144	52.4
747.543	52.44
747.941	52.47
748.339	52.54
748.737	52.59
749.136	52.61
749.534	52.64
749.932	52.66
750.33	52.67
750.727	52.72
751.125	52.74
751.523	52.74
751.921	52.79
752.318	52.82
752.716	52.8
753.113	52.81
753.511	52.83
753.908	52.85
754.305	52.85
754.703	52.87
755.1	52.85
755.497	52.88
755.894	52.87
756.291	52.83
756.688	52.82
757.085	52.83
757.482	52.84
757.878	52.84
758.275	52.85
758.672	52.86
759.068	52.87
759.465	52.9
759.861	52.88
760.258	52.88
760.654	52.91
761.05	52.92
761.447	52.91
761.843	52.89
762.239	52.88
762.635	52.83
763.031	52.83
763.427	52.81
763.822	52.8
764.218	52.78
764.614	52.77
765.01	52.77
765.405	52.75
765.801	52.72
766.196	52.69
766.592	52.69
766.987	52.75
767.382	52.74
767.778	52.74
768.173	52.74
768.568	52.72
768.963	52.73
769.358	52.72
769.753	52.71
770.148	52.74
770.542	52.72
770.937	52.71
771.332	52.7
771.726	52.68
772.121	52.68
772.515	52.62
772.91	52.65
773.304	52.64
773.699	52.66
774.093	52.65
774.487	52.64
774.881	52.67
775.275	52.66
775.669	52.63
776.063	52.61
776.457	52.6
776.851	52.61
777.245	52.61
777.638	52.62
778.032	52.6
778.425	52.63
778.819	52.63
779.212	52.62
779.606	52.61
779.999	52.6
780.392	52.6
780.786	52.6
781.179	52.61
781.572	52.6
781.965	52.58
782.358	52.55
782.751	52.53
783.143	52.53
783.536	52.56
783.929	52.58
784.322	52.58
784.714	52.6
785.107	52.63
785.499	52.65
785.891	52.67
786.284	52.62
786.676	52.68
787.068	52.7
787.46	52.67
787.852	52.65
788.245	52.64
788.636	52.66
789.028	52.64
789.42	52.59
789.812	52.57
790.204	52.54
790.595	52.55
790.987	52.52
791.378	52.51
791.77	52.53
792.161	52.52
792.553	52.51
792.944	52.52
793.335	52.54
793.726	52.54
794.117	52.54
794.508	52.55
794.899	52.57
795.29	52.55
795.681	52.55
796.072	52.54
796.463	52.56
796.853	52.58
797.244	52.55
797.634	52.52
798.025	52.55
798.415	52.55
798.806	52.58
799.196	52.63
799.586	52.65
799.976	52.64
800.366	52.63
800.756	52.59
801.146	52.62
801.536	52.62
801.926	52.63
802.316	52.64
802.706	52.65
803.095	52.61
803.485	52.6
803.874	52.61
804.264	52.62
804.653	52.62
805.043	52.65
805.432	52.57
805.821	52.58
806.21	52.63
806.599	52.65
806.988	52.65
807.377	52.68
807.766	52.68
808.155	52.68
808.544	52.68
808.933	52.71
809.321	52.7
809.71	52.73
810.098	52.71
810.487	52.66
810.875	52.64
811.264	52.65
811.652	52.64
812.04	52.65
812.428	52.65
812.816	52.7
813.204	52.68
813.592	52.7
813.98	52.69
814.368	52.72
814.756	52.72
815.144	52.72
815.531	52.71
815.919	52.72
816.306	52.73
816.694	52.75
817.081	52.69
817.469	52.71
817.856	52.77
818.243	52.79
818.63	52.81
819.017	52.85
819.404	52.87
819.791	52.87
820.178	52.87
820.565	52.84
820.952	52.84
821.339	52.88
821.725	52.91
822.112	52.91
822.498	52.92
822.885	52.94
823.271	52.97
823.657	52.98
824.044	53.01
824.43	53.05
824.816	53.09
825.202	53.09
825.588	53.09
825.974	53.1
826.36	53.07
826.746	53.13
827.132	53.1
827.517	53.1
827.903	53.1
828.289	53.11
828.674	53.1
829.06	53.1
829.445	53.14
829.83	53.14
830.216	53.15
830.601	53.18
830.986	53.17
831.371	53.21
831.756	53.19
832.141	53.22
832.526	53.22
832.911	53.25
833.295	53.26
833.68	53.23
834.065	53.28
834.449	53.25
834.834	53.24
835.218	53.22
835.603	53.23
835.987	53.24
836.371	53.23
836.755	53.2
837.139	53.19
837.524	53.2
837.908	53.19
838.291	53.16
838.675	53.17
839.059	53.14
839.443	53.17
839.827	53.14
840.21	53.15
840.594	53.15
840.977	53.14
841.361	53.14
841.744	53.14
842.127	53.13
842.511	53.11
842.894	53.11
843.277	53.15
843.66	53.14
844.043	53.17
844.426	53.16
844.809	53.17
845.191	53.18
845.574	53.17
845.957	53.15
846.339	53.18
846.722	53.2
847.104	53.2
847.487	53.22
847.869	53.2
848.252	53.16
848.634	53.16
849.016	53.17
849.398	53.16
849.78	53.15
850.162	53.16
850.544	53.14
850.926	53.14
851.307	53.14
851.689	53.1
852.071	53.09
852.452	53.11
852.834	53.07
853.215	53.05
853.597	53.07
853.978	53.07
854.359	53.04
854.741	53.05
855.122	53.03
855.503	53.03
855.884	53.03
856.265	53.03
856.646	53.03
857.026	53.06
857.407	53.03
857.788	53.01
858.169	53.03
858.549	53.08
858.93	53.07
859.31	53.07
859.69	53.05
860.071	53.05
860.451	53.05
860.831	53.04
861.211	53.05
861.591	53.07
861.971	53.05
862.351	53.06
862.731	53.02
863.111	53.03
863.491	53.04
863.87	53.06
864.25	53.09
864.629	53.1
865.009	53.07
865.388	53.06
865.768	53.05
866.147	53.07
866.526	53.05
866.905	53.05
867.284	53.05
867.663	53.06
868.042	53.04
868.421	53.03
868.8	53.05
869.179	53.09
869.558	53.06
869.936	53.08
870.315	53.08
870.693	53.08
871.072	53.08
871.45	53.07
871.828	53.07
872.207	53.09
872.585	53.09
872.963	53.04
873.341	53.02
873.719	53.03
874.097	53.02
874.475	53
874.853	53.01
875.23	53.02
875.608	53.06
875.986	53.06
876.363	53.05
876.741	53.04
877.118	53.07
877.495	53.06
877.873	53.06
878.25	53.05
878.627	53.06
879.004	53.03
879.381	53.03
879.758	52.98
880.135	52.97
880.512	52.97
880.889	52.96
881.265	52.97
881.642	52.97
882.019	52.95
882.395	52.97
882.772	52.99
883.148	53
883.524	53.01
883.901	53.01
884.277	53
884.653	53.03
885.029	53.01
885.405	53
885.781	53.01
886.157	53
886.532	52.99
886.908	52.98
887.284	53.03
887.659	53.04
888.035	53.05
888.411	53.04
888.786	53.03
889.161	53.06
889.537	53.06
889.912	53.03
890.287	53.03
890.662	53.03
891.037	53
891.412	52.93
891.787	52.92
892.162	52.9
892.536	52.91
892.911	52.89
893.286	52.87
893.66	52.85
894.035	52.86
894.409	52.84
894.784	52.85
895.158	52.86
895.532	52.87
895.906	52.85
896.281	52.85
896.655	52.84
897.029	52.84
897.402	52.84
897.776	52.84
898.15	52.86
898.524	52.87
898.898	52.86
899.271	52.87
899.645	52.9
900.018	52.9
900.392	52.91
900.765	52.91
901.138	52.91
901.511	52.9
901.884	52.89
902.258	52.84
902.631	52.84
903.003	52.82
903.376	52.79
903.749	52.71
904.122	52.73
904.495	52.7
904.867	52.66
905.24	52.63
905.612	52.61
905.985	52.6
906.357	52.6
906.729	52.57
907.102	52.55
907.474	52.55
907.846	52.53
908.218	52.46
908.59	52.46
908.962	52.46
909.334	52.46
909.705	52.44
910.077	52.42
910.449	52.44
910.82	52.44
911.192	52.44
911.563	52.41
911.935	52.4
912.306	52.4
912.677	52.39
913.048	52.38
913.419	52.31
913.79	52.29
914.161	52.31
914.532	52.29
914.903	52.27
915.274	52.22
915.645	52.22
916.015	52.22
916.386	52.2
916.756	52.14
917.127	52.13
917.497	52.19
917.868	52.19
918.238	52.21
918.608	52.21
918.978	52.18
919.348	52.18
919.718	52.21
920.088	52.23
920.458	52.26
920.828	52.3
921.198	52.32
921.567	52.25
921.937	52.28
922.306	52.19
922.676	52.15
923.045	52.12
923.415	52.1
923.784	52.07
924.153	52.06
924.522	52.05
924.891	51.99
925.26	51.98
925.629	51.99
925.998	51.95
926.367	51.97
926.736	51.99
927.104	52
927.473	51.98
927.842	51.94
928.21	51.93
928.578	51.87
928.947	51.85
929.315	51.83
929.683	51.83
930.051	51.8
930.42	51.77
930.788	51.75
931.156	51.76
931.523	51.74
931.891	51.72
932.259	51.68
932.627	51.61
932.994	51.65
933.362	51.57
933.729	51.47
934.097	51.45
934.464	51.4
934.831	51.34
935.199	51.24
935.566	51.21
935.933	51.27
936.3	51.21
936.667	51.24
937.034	51.2
937.401	51.14
937.767	51.14
938.134	51.06
938.501	50.99
938.867	51.01
939.234	51.01
939.6	50.95
939.967	50.75
940.333	50.74
940.699	50.75
941.065	50.65
941.431	50.7
941.798	50.75
942.163	50.86
942.529	50.85
942.895	50.81
943.261	50.86
943.627	50.89
943.992	50.88
944.358	50.82
944.723	50.78
945.089	50.83
945.454	50.9
945.82	50.82
946.185	50.74
946.55	50.82
946.915	50.78
947.28	50.69
947.645	50.69
948.01	50.71
948.375	50.83
948.74	50.79
949.104	50.73
949.469	50.55
949.834	50.58
950.198	50.56
950.562	50.58
950.927	50.6
951.291	50.57
951.655	50.61
952.02	50.54
952.384	50.47
952.748	50.48
953.112	50.59
953.476	50.64
953.839	50.6
954.203	50.56
954.567	50.53
954.931	50.47
955.294	50.42
955.658	50.38
956.021	50.39
956.385	50.4
956.748	50.34
957.111	50.21
957.474	50.19
957.837	50.24
958.2	50.21
958.563	50.16
958.926	50.11
959.289	50.13
959.652	50.1
960.015	50.09
960.377	50.12
960.74	50.1
961.102	50.08
961.465	50.03
961.827	49.93
962.189	49.91
962.552	49.82
962.914	49.84
963.276	49.86
963.638	49.82
964	49.84
964.362	49.79
964.724	49.87
965.085	49.9
965.447	49.82
965.809	49.85
966.17	49.89
966.532	49.95
966.893	49.98
967.255	49.92
967.616	49.94
967.977	49.91
968.338	49.87
968.699	49.78
969.061	49.69
969.421	49.75
969.782	49.71
970.143	49.67
970.504	49.67
970.865	49.59
971.225	49.55
971.586	49.55
971.946	49.55
972.307	49.49
972.667	49.42
973.027	49.51
973.388	49.54
973.748	49.52
974.108	49.51
974.468	49.42
974.828	49.46
975.188	49.49
975.548	49.47
975.907	49.4
976.267	49.38
976.627	49.47
976.986	49.42
977.346	49.37
977.705	49.39
978.064	49.4
978.424	49.42
978.783	49.34
979.142	49.33
979.501	49.25
979.86	49.24
980.219	49.25
980.578	49.21
980.937	49.24
981.296	49.25
981.654	49.27
982.013	49.26
982.371	49.26
982.73	49.23
983.088	49.18
983.447	49.28
983.805	49.3
984.163	49.32
984.521	49.18
984.879	49.07
985.237	49.03
985.595	48.98
985.953	48.96
986.311	48.95
986.669	49.01
987.026	49.06
987.384	48.91
987.741	48.91
988.099	48.89
988.456	48.94
988.814	49.02
989.171	48.98
989.528	48.83
989.885	48.69
990.242	48.72
990.599	48.67
990.956	48.58
991.313	48.58
991.67	48.55
992.027	48.59
992.383	48.74
992.74	48.62
993.096	48.5
993.453	48.54
993.809	48.64
994.165	48.59
994.522	48.65
994.878	48.64
995.234	48.65
995.59	48.56
995.946	48.57
996.302	48.37
996.658	48.36
997.013	48.42
997.369	48.53
997.725	48.58
998.08	48.54
998.436	48.47
998.791	48.45
999.147	48.42
999.502	48.37
999.857	48.18
1000.212	48.2
1000.567	48.12
1000.922	48.11
1001.277	47.89
1001.632	47.79
1001.987	47.65
1002.342	47.59
1002.696	47.63
1003.051	47.57
1003.406	47.68
1003.76	47.68
1004.114	47.64
1004.469	47.59
1004.823	47.42
1005.177	47.46
1005.531	47.39
1005.885	47.65
1006.239	47.59
1006.593	47.49
1006.947	47.48
1007.301	47.35
1007.655	47.35
1008.008	47.21
1008.362	47.28
1008.715	47.4
1009.069	47.37
1009.422	47.25
1009.776	47.05
1010.129	46.98
1010.482	47.12
1010.835	47.33
1011.188	47.19
1011.541	47.06
1011.894	47.05
1012.247	46.98
1012.6	46.9
1012.952	47.01
1013.305	46.97
1013.657	46.99
1014.01	47.1
1014.362	46.94
1014.715	46.58
1015.067	46.61
1015.419	46.74
1015.771	46.85
1016.123	46.8
1016.475	46.99
1016.827	46.93
1017.179	46.9
1017.531	46.64
1017.883	46.74
1018.234	46.58
1018.586	46.66
1018.938	46.34
1019.289	46.1
1019.64	46.11
1019.992	46.27
1020.343	45.91
1020.694	45.78
1021.045	45.76
1021.396	45.98
1021.747	46
1022.098	46.03
1022.449	45.86
1022.8	45.86
1023.151	45.9
1023.501	45.84
1023.852	45.83
1024.202	45.86
1024.553	45.47
1024.903	45.31
1025.253	45.04
1025.604	44.68
1025.954	44.65
1026.304	45.07
1026.654	45.26
1027.004	45.17
1027.354	44.43
1027.703	43.87
1028.053	43.54
1028.403	43.84
1028.753	44.12
1029.102	43.93
1029.452	43.62
1029.801	43.31
1030.15	42.64
1030.499	42.54
897.758	679.79
901.051	690.05
904.343	694.82
907.636	686.68
910.928	675.08
914.22	684.23
917.511	673.86
920.803	648.43
924.094	621.42
927.384	626.9
930.675	602.39
933.965	595.95
937.255	594.28
940.544	568.32
943.834	541.12
947.123	532.24
950.411	507.49
953.7	495.36
956.988	480.23
960.276	456.73
963.563	450.01
966.851	426.42
970.138	418.52
973.424	389.66
976.711	384.68
979.997	370.67
983.283	363.42
986.568	349.86
989.853	339.51
993.138	328.36
996.423	323.9
999.708	313.01
1002.992	313.63
1006.275	303.48
1009.559	299.85
1012.842	290.62
1016.125	281.64
1019.408	275.38
1022.69	271.51
1025.972	269.62
1029.254	261.34
1032.536	256.66
1035.817	248
1039.098	244.62
1042.379	239.12
1045.659	236.18
1048.939	233.06
1052.219	229.99
1055.498	225.86
1058.778	223.15
1062.057	218.03
1065.335	217.09
1068.614	212.05
1071.892	210.7
1075.17	204.8
1078.447	202.69
1081.724	201.56
1085.001	197.58
1088.278	195.88
1091.554	194.47
1094.83	192.51
1098.106	188.97
1101.382	187.76
1104.657	188.07
1107.932	186.18
1111.206	184.92
1114.481	183.2
1117.755	181.16
1121.029	180.86
1124.302	177.76
1127.575	174.59
1130.848	173.94
1134.121	172.06
1137.393	171
1140.665	168.53
1143.937	166.81
1147.208	165.16
1150.48	162.45
1153.75	161.53
1157.021	159.5
1160.291	158.93
1163.561	158.85
1166.831	157.66
1170.101	157.81
1173.37	156.85
1176.639	155.43
1179.907	155.71
1183.176	155.86
1186.444	156.22
1189.711	155.01
1192.979	156.76
1196.246	157.26
1199.513	156.12
1202.78	155.95
1206.046	155.83
1209.312	156.72
1212.578	158.13
1215.843	160.01
1219.108	161.16
1222.373	163.6
1225.638	166.08
1228.902	169.68
1232.166	175.5
1235.43	177.99
1238.693	184.45
1241.956	187.82
1245.219	192.44
1248.482	194.84
1251.744	194.3
1255.006	194.98
1258.268	190.72
1261.529	189.72
1264.79	183.58
1268.051	178.52
1271.312	177.74
1274.572	173.25
1277.832	168.82
1281.092	166.94
1284.351	162.92
1287.61	162.53
1290.869	161.26
1294.128	160.15
1297.386	159.45
1300.644	159.73
1303.902	159.19
1307.159	157.87
1310.416	158.56
1313.673	161.64
1316.93	162.01
1320.186	165
1323.442	166.77
1326.697	170.07
1329.953	172.9
1333.208	178.41
1336.463	184.86
1339.717	188.69
1342.972	198.69
1346.226	204.81
1349.479	206.34
1352.733	215.96
1355.986	220.23
1359.238	226.1
1362.491	228.58
1365.743	236.27
1368.995	238.06
1372.247	239.19
1375.498	238.77
1378.749	246.87
1382	246.71
1385.251	246.67
1388.501	244.58
1391.751	248.49
1395	248.06
1398.25	250.62
1401.499	249.24
1404.748	248.87
1407.996	243.7
1411.244	244.5
1414.492	239.44
1417.74	233.88
1420.987	228.41
1424.234	224.35
1427.481	217.42
1430.728	210.45
1433.974	203.51
1437.22	195.91
1440.465	189.67
1443.711	183.54
1446.956	177.5
1450.201	170.82
1453.445	162.41
1456.689	157.57
1459.933	152.67
1463.177	145.37
1466.42	141.54
1469.663	136.91
1472.906	133.39
1476.148	130.12
1479.391	127.09
1482.633	124.69
1485.874	122.06
1489.115	120.77
1492.356	118.31
1495.597	116.72
1498.838	114.98
1502.078	114.46
1505.318	114.01
1508.557	112.92
1511.797	110.85
1515.036	110.87
1518.274	110.33
1521.513	108.89
1524.751	108.28
1527.989	108.89
1531.227	108.41
1534.464	108.67
1537.701	107.3
1540.938	106.78
1544.174	106.39
1547.41	106.57
1550.646	105.77
1553.882	105.41
1557.117	104.74
1560.352	103.89
1563.587	102.74
1566.821	102.5
1570.055	102.12
1573.289	101.47
1576.523	101.21
1579.756	100.95
1582.989	100.57
1586.222	100.13
1589.454	99.64
1592.686	99.65
1595.918	99.6
1599.15	99.59
1602.381	99.63
1605.612	99.29
1608.843	99.6
1612.073	100.29
1615.303	100.62
1618.533	100.16
1621.762	101.08
1624.992	100.99
1628.221	100.89
1631.449	101.72
1634.678	101.63
1637.906	101.67
1641.134	102.18
1644.361	102.17
1647.588	101.99
1650.815	101.97
1654.042	102.34
1657.269	101.61
1660.495	102.67
1663.72	102.64
1666.946	102.53
1670.171	102.98
1673.396	103.48
1676.621	103.28
1679.845	104.17
1683.069	103.83
1686.293	103.44
1689.517	103.86
1692.74	104.33
1695.963	104.41
1699.185	104.96
1702.408	105.08
1705.63	105.11
1708.852	105.73
1712.073	105.46
1715.294	105
1718.515	105.81
1721.736	106.26
1724.956	106.69
1728.176	106.48
1731.396	106.74
1734.616	106.75
1737.835	106.92
1741.054	106.32
1744.272	106.5
1747.491	106.91
1750.709	107.38
1753.927	107.35
1757.144	107.46
1760.361	107.3
1763.578	107.86
1766.795	108.44
1770.011	109.24
1773.227	109.92
1776.443	111.35
1779.658	111.69
1782.874	112.49
1786.089	112.68
1789.303	113.02
1792.518	114.92
1795.732	115.21
1798.945	116.66
1802.159	116.69
1805.372	118.16
1808.585	118.6
1811.797	119.45
1815.01	120.03
1818.222	121.1
1821.434	122.39
1824.645	123.41
1827.856	124.51
1831.067	125.85
1834.278	127
1837.488	128.55
1840.698	128.97
1843.908	129.54
1847.117	131.17
1850.326	132.22
1853.535	133.71
1856.744	135.25
1859.952	136.73
1863.16	136.89
1866.368	136.75
1869.575	137.91
1872.782	138.24
1875.989	137.46
1879.196	137.9
1882.402	137.36
1885.608	138.42
1888.814	137.77
1892.019	139.95
1895.224	138.36
1898.429	139.18
1901.634	140.79
1904.838	140.96
1908.042	141.86
1911.246	142.58
1914.449	143.37
1917.652	144.5
1920.855	145.28
1924.058	143.4
1927.26	142.35
1930.462	144.16
1933.664	143.48
1936.865	143.05
1940.066	142.7
1943.267	140.53
1946.467	142.72
1949.668	142.16
1952.868	141.82
1956.067	141.01
1959.267	142.32
1962.466	142.95
1965.665	143.47
1968.863	144.73
1972.061	146.42
1975.259	148.93
1978.457	150.54
1981.654	151.17
1984.852	153.32
1988.048	154.82
1991.245	157.03
1994.441	160.74
1997.637	164.58
2000.833	166.89
2004.028	169.81
2007.223	174.59
2010.418	177.8
2013.613	185.83
2016.807	190.42
2020.001	193.63
2023.194	198.41
2026.388	204.6
2029.581	215.37
2032.774	221.33
2035.966	229.1
2039.158	234.01
2042.35	236.99
2045.542	241.82
2048.733	251.85
2051.924	253.86
2055.115	258.71
2058.306	261.96
2061.496	267.78
2064.686	266.37
2067.875	265.12
2071.065	267.37
2074.254	269.64
2077.442	276.98
2080.631	278.63
2083.819	278.43
2087.007	286.26
2090.195	291.68
2093.382	290.92
2096.569	290.85
2099.756	295.72
2102.942	301.01
2106.128	308.66
2109.314	309.64
2112.5	310.6
2115.685	309.32
2118.87	309.87
2122.055	309.02
2125.239	313.35
2128.424	322.73
2131.608	318.88
2134.791	319.1
2137.974	321.26
2141.157	322.84
2144.34	326.32
2147.523	328.31
2150.705	336.81
2153.887	333.58
2157.068	337.16
2160.25	341.44
2163.431	340.04
2166.611	348.83
2169.792	356.83
2172.972	360.53
2176.152	362.36
2179.331	369.73
2182.511	373.23
2185.69	376.94
2188.868	393.11
2192.047	400.54
2195.225	403.89
2198.403	408.69
2201.58	405.6
2204.758	414.92
2207.935	419.8
2211.111	426.45
2214.288	428
2217.464	433.62
2220.64	436.95
2223.815	436.34
2226.991	432.87
2230.166	437.87
2233.34	451.88
2236.515	462.2
2239.689	457.53
2242.863	465.97
2246.036	457.46
2249.209	473.06
2252.382	474.1
2255.555	489.5
2258.727	494.1
2261.9	508.45
2265.071	515.43
2268.243	513.97
2271.414	530.02
2274.585	541.92
2277.756	538.99
2280.926	565.38
2284.096	562.16
2287.266	561.93
2290.436	550.87
2293.605	564.78
2296.774	586.38
2299.942	583.87
2303.111	601.61
2306.279	612.16
2309.447	616.19
2312.614	618.5
2315.781	633.63
2318.948	642.34
2322.115	657.57
2325.281	693.83
2328.447	688.52
2331.613	687.68
2334.779	702.79
2337.944	707.11
2341.109	720.56
2344.274	724.88
2347.438	750.49
2350.602	757.22
2353.766	806.13
2356.929	808.21
2360.092	818.26
2363.255	823
2366.418	837.14
2369.58	852.17
2372.742	857.49
2375.904	852.42
2379.066	875.17
2382.227	934.12
2385.388	934.01
2388.548	882.04
2391.709	877.31
2394.869	905.58
2398.029	910.55
2401.188	909.32
2404.347	933.54
2407.506	957.21
2410.665	923.19
2413.823	930.67
2416.981	920.99
2420.139	871.71
2423.296	944.44
2426.453	999.28
2429.61	961.16
2432.767	1019.99
2435.923	1056.17
2439.079	1024.38
2442.235	1050.22
2445.391	1078.1
2448.546	1067.79
2451.701	1119.07
2454.855	1205.81
2458.009	1059.19
2461.163	1087.38
2464.317	1089.53
2467.471	1066.33
2470.624	1103.07
2473.777	1084.61
2476.929	1048.8
2480.082	1124.83
2483.234	1178.45
2486.385	1201.15
2489.537	1224.97
2492.688	1365.72
2495.839	1333.11
2498.989	1372.29
2502.14	1379.18
2505.29	1309.42
2508.439	1453.57
2511.589	1496.22
2514.738	1444.66
2517.887	1428.92
2521.035	1341.53
2524.183	1323.88
2527.331	1298.86
2530.479	1267.77
2533.627	1295.92
