Data from N_1_dec_va_2n_009_Splice17_06.txt Node
Date: Sat Feb 29 13:36:22 EST 2020
User: sa697716
Spectrometer: FLMS03696
Trigger mode: 0
Integration Time (sec): 3.180400E-1
Scans to average: 20
Electric dark correction enabled: true
Nonlinearity correction enabled: true
Boxcar width: 5
XAxis mode: Wavelengths
Number of Pixels in Spectrum: 2048
>>>>>Begin Spectral Data<<<<<
187.83	104.79
188.298	102.9
188.766	92.88
189.233	76.92
189.701	90.6
190.169	90.78
190.636	98.98
191.104	101.06
191.571	292.82
192.039	279.95
192.506	-193.94
192.974	1536.61
193.441	431.15
193.908	-6.44
194.375	-160.23
194.842	11.04
195.31	-17.91
195.777	-56.5
196.244	-1.27
196.711	18.05
197.177	18.2
197.644	18.44
198.111	17.88
198.578	19.03
199.045	19.96
199.511	20.31
199.978	20.32
200.445	20.84
200.911	21.45
201.378	21.45
201.844	21.28
202.31	22.03
202.777	22.33
203.243	23.05
203.709	23.09
204.176	22.4
204.642	22.45
205.108	22.46
205.574	22.74
206.04	22.65
206.506	22.68
206.972	22.6
207.438	22.19
207.903	22.56
208.369	21.91
208.835	21.92
209.301	22.05
209.766	21.97
210.232	21.78
210.697	21.23
211.163	21.15
211.628	20.93
212.094	21.04
212.559	21.14
213.024	20.75
213.49	20.8
213.955	20.56
214.42	20.49
214.885	20.07
215.35	19.7
215.815	19.54
216.28	19.06
216.745	18.54
217.21	17.9
217.675	17.21
218.14	16.51
218.604	15.86
219.069	15.37
219.534	14.89
219.998	14.55
220.463	14.29
220.927	13.99
221.392	13.7
221.856	13.49
222.32	13.27
222.785	13.07
223.249	12.95
223.713	12.8
224.177	12.64
224.642	12.49
225.106	12.34
225.57	12.18
226.034	12.07
226.497	11.93
226.961	11.76
227.425	11.6
227.889	11.44
228.353	11.28
228.816	11.14
229.28	10.99
229.744	10.86
230.207	10.75
230.671	10.62
231.134	10.48
231.597	10.35
232.061	10.22
232.524	10.13
232.987	10.02
233.45	9.9
233.914	9.79
234.377	9.7
234.84	9.58
235.303	9.47
235.766	9.36
236.229	9.27
236.691	9.17
237.154	9.1
237.617	9.01
238.08	8.93
238.542	8.85
239.005	8.78
239.468	8.68
239.93	8.6
240.393	8.54
240.855	8.46
241.317	8.39
241.78	8.32
242.242	8.22
242.704	8.15
243.166	8.07
243.629	8.01
244.091	7.95
244.553	7.91
245.015	7.86
245.477	7.79
245.939	7.72
246.4	7.66
246.862	7.62
247.324	7.59
247.786	7.55
248.247	7.51
248.709	7.46
249.17	7.4
249.632	7.35
250.093	7.28
250.555	7.23
251.016	7.2
251.477	7.15
251.939	7.1
252.4	7.06
252.861	7.01
253.322	6.97
253.783	6.93
254.244	6.89
254.705	6.85
255.166	6.83
255.627	6.81
256.088	6.78
256.549	6.75
257.009	6.73
257.47	6.7
257.931	6.66
258.391	6.62
258.852	6.58
259.312	6.56
259.773	6.53
260.233	6.49
260.694	6.45
261.154	6.43
261.614	6.39
262.074	6.36
262.534	6.32
262.994	6.3
263.455	6.28
263.915	6.25
264.374	6.22
264.834	6.21
265.294	6.18
265.754	6.16
266.214	6.14
266.673	6.13
267.133	6.11
267.593	6.09
268.052	6.07
268.512	6.05
268.971	6.04
269.431	6.03
269.89	6.01
270.349	6
270.809	5.99
271.268	5.97
271.727	5.96
272.186	5.95
272.645	5.93
273.104	5.92
273.563	5.91
274.022	5.89
274.481	5.87
274.94	5.85
275.399	5.83
275.857	5.82
276.316	5.8
276.775	5.78
277.233	5.76
277.692	5.75
278.15	5.73
278.609	5.72
279.067	5.71
279.525	5.7
279.984	5.68
280.442	5.67
280.9	5.65
281.358	5.64
281.816	5.63
282.274	5.61
282.732	5.6
283.19	5.59
283.648	5.58
284.106	5.57
284.564	5.56
285.021	5.55
285.479	5.54
285.937	5.52
286.394	5.5
286.852	5.49
287.309	5.49
287.767	5.48
288.224	5.46
288.682	5.44
289.139	5.44
289.596	5.41
290.053	5.39
290.511	5.37
290.968	5.37
291.425	5.35
291.882	5.34
292.339	5.32
292.796	5.3
293.252	5.28
293.709	5.27
294.166	5.25
294.623	5.24
295.079	5.23
295.536	5.23
295.992	5.21
296.449	5.2
296.905	5.18
297.362	5.17
297.818	5.16
298.274	5.16
298.731	5.15
299.187	5.14
299.643	5.12
300.099	5.12
300.555	5.1
301.011	5.09
301.467	5.08
301.923	5.08
302.379	5.07
302.835	5.07
303.291	5.05
303.746	5.05
304.202	5.04
304.658	5.04
305.113	5.02
305.569	5.02
306.024	5.02
306.479	5.01
306.935	5.01
307.39	5
307.845	5
308.301	5
308.756	4.99
309.211	5
309.666	5
310.121	5
310.576	5
311.031	4.99
311.486	4.99
311.94	4.98
312.395	4.98
312.85	4.98
313.305	4.97
313.759	4.98
314.214	4.97
314.668	4.97
315.123	4.97
315.577	4.96
316.032	4.95
316.486	4.95
316.94	4.94
317.394	4.94
317.849	4.93
318.303	4.92
318.757	4.9
319.211	4.88
319.665	4.87
320.119	4.85
320.572	4.85
321.026	4.85
321.48	4.84
321.934	4.83
322.387	4.82
322.841	4.81
323.295	4.81
323.748	4.81
324.202	4.8
324.655	4.8
325.108	4.79
325.562	4.78
326.015	4.77
326.468	4.75
326.921	4.75
327.374	4.74
327.827	4.73
328.28	4.72
328.733	4.71
329.186	4.7
329.639	4.7
330.092	4.69
330.545	4.69
330.997	4.69
331.45	4.68
331.903	4.68
332.355	4.68
332.808	4.68
333.26	4.67
333.713	4.68
334.165	4.67
334.617	4.68
335.069	4.67
335.522	4.67
335.974	4.67
336.426	4.67
336.878	4.67
337.33	4.67
337.782	4.67
338.234	4.67
338.686	4.67
339.137	4.67
339.589	4.66
340.041	4.65
340.493	4.64
340.944	4.62
341.396	4.62
341.847	4.62
342.299	4.61
342.75	4.59
343.201	4.58
343.653	4.56
344.104	4.55
344.555	4.54
345.006	4.53
345.457	4.52
345.908	4.52
346.359	4.51
346.81	4.5
347.261	4.49
347.712	4.49
348.163	4.49
348.613	4.48
349.064	4.47
349.515	4.46
349.965	4.45
350.416	4.45
350.866	4.46
351.317	4.45
351.767	4.45
352.217	4.44
352.668	4.43
353.118	4.44
353.568	4.44
354.018	4.45
354.468	4.44
354.918	4.45
355.368	4.46
355.818	4.46
356.268	4.46
356.718	4.45
357.168	4.46
357.617	4.45
358.067	4.44
358.517	4.44
358.966	4.43
359.416	4.44
359.865	4.43
360.315	4.42
360.764	4.41
361.213	4.41
361.663	4.41
362.112	4.41
362.561	4.42
363.01	4.43
363.459	4.43
363.908	4.43
364.357	4.43
364.806	4.43
365.255	4.43
365.703	4.42
366.152	4.42
366.601	4.43
367.05	4.42
367.498	4.42
367.947	4.4
368.395	4.41
368.844	4.4
369.292	4.4
369.74	4.41
370.189	4.41
370.637	4.42
371.085	4.41
371.533	4.4
371.981	4.41
372.429	4.41
372.877	4.41
373.325	4.4
373.773	4.41
374.221	4.41
374.669	4.41
375.116	4.4
375.564	4.39
376.012	4.4
376.459	4.42
376.907	4.43
377.354	4.44
377.801	4.45
378.249	4.47
378.696	4.48
379.143	4.49
379.591	4.49
380.038	4.52
380.485	4.54
380.932	4.55
381.379	4.56
381.826	4.58
382.273	4.58
382.72	4.59
383.166	4.6
383.613	4.61
384.06	4.63
384.506	4.65
384.953	4.66
385.4	4.66
385.846	4.67
386.292	4.68
386.739	4.68
387.185	4.72
387.631	4.73
388.078	4.75
388.524	4.75
388.97	4.76
389.416	4.76
389.862	4.78
390.308	4.8
390.754	4.82
391.2	4.84
391.645	4.87
392.091	4.87
392.537	4.89
392.983	4.9
393.428	4.92
393.874	4.94
394.319	4.95
394.765	4.96
395.21	4.96
395.655	4.98
396.101	4.99
396.546	5
396.991	5
397.436	5
397.881	5.01
398.326	5.04
398.771	5.05
399.216	5.07
399.661	5.08
400.106	5.09
400.551	5.08
400.995	5.08
401.44	5.07
401.885	5.08
402.329	5.09
402.774	5.08
403.218	5.07
403.663	5.06
404.107	5.06
404.551	5.06
404.995	5.05
405.44	5.05
405.884	5.05
406.328	5.04
406.772	5.04
407.216	5.04
407.66	5.05
408.104	5.05
408.547	5.06
408.991	5.05
409.435	5.04
409.879	5.05
410.322	5.06
410.766	5.06
411.209	5.07
411.653	5.05
412.096	5.04
412.54	5.03
412.983	5.03
413.426	5.04
413.869	5.04
414.312	5.06
414.756	5.06
415.199	5.06
415.642	5.07
416.085	5.07
416.527	5.09
416.97	5.09
417.413	5.08
417.856	5.08
418.298	5.06
418.741	5.05
419.184	5.03
419.626	5.02
420.069	5.02
420.511	5.02
420.953	5
421.396	5.02
421.838	5.03
422.28	5.05
422.722	5.05
423.164	5.06
423.606	5.07
424.048	5.06
424.49	5.08
424.932	5.07
425.374	5.06
425.816	5.06
426.258	5.03
426.699	5
427.141	4.97
427.582	4.97
428.024	4.97
428.465	4.98
428.907	4.98
429.348	4.97
429.789	4.98
430.231	4.98
430.672	5
431.113	5.02
431.554	5.04
431.995	5.05
432.436	5.04
432.877	5.03
433.318	5.03
433.759	5.06
434.2	5.07
434.64	5.09
435.081	5.1
435.522	5.1
435.962	5.13
436.403	5.16
436.843	5.17
437.284	5.19
437.724	5.22
438.164	5.22
438.604	5.22
439.045	5.22
439.485	5.22
439.925	5.22
440.365	5.21
440.805	5.21
441.245	5.21
441.685	5.22
442.125	5.21
442.564	5.23
443.004	5.24
443.444	5.26
443.883	5.28
444.323	5.3
444.762	5.32
445.202	5.37
445.641	5.39
446.081	5.42
446.52	5.45
446.959	5.47
447.398	5.49
447.837	5.53
448.276	5.55
448.716	5.58
449.154	5.61
449.593	5.63
450.032	5.63
450.471	5.65
450.91	5.64
451.349	5.65
451.787	5.66
452.226	5.65
452.664	5.62
453.103	5.62
453.541	5.62
453.98	5.6
454.418	5.59
454.856	5.59
455.295	5.58
455.733	5.57
456.171	5.56
456.609	5.56
457.047	5.56
457.485	5.58
457.923	5.57
458.361	5.56
458.798	5.58
459.236	5.57
459.674	5.57
460.111	5.59
460.549	5.59
460.987	5.6
461.424	5.61
461.862	5.61
462.299	5.6
462.736	5.61
463.173	5.63
463.611	5.63
464.048	5.64
464.485	5.64
464.922	5.62
465.359	5.63
465.796	5.61
466.233	5.6
466.67	5.61
467.106	5.6
467.543	5.61
467.98	5.6
468.416	5.59
468.853	5.57
469.29	5.56
469.726	5.57
470.162	5.55
470.599	5.56
471.035	5.57
471.471	5.55
471.907	5.55
472.344	5.55
472.78	5.54
473.216	5.53
473.652	5.51
474.088	5.52
474.523	5.52
474.959	5.51
475.395	5.52
475.831	5.52
476.266	5.53
476.702	5.51
477.138	5.49
477.573	5.46
478.008	5.47
478.444	5.49
478.879	5.48
479.314	5.48
479.75	5.48
480.185	5.46
480.62	5.45
481.055	5.44
481.49	5.44
481.925	5.44
482.36	5.46
482.795	5.44
483.229	5.45
483.664	5.44
484.099	5.44
484.534	5.44
484.968	5.45
485.403	5.44
485.837	5.45
486.271	5.46
486.706	5.45
487.14	5.45
487.574	5.45
488.009	5.47
488.443	5.48
488.877	5.51
489.311	5.53
489.745	5.54
490.179	5.57
490.613	5.59
491.046	5.63
491.48	5.66
491.914	5.7
492.348	5.74
492.781	5.77
493.215	5.8
493.648	5.83
494.082	5.89
494.515	5.93
494.948	5.98
495.382	6.03
495.815	6.08
496.248	6.13
496.681	6.18
497.114	6.24
497.547	6.3
497.98	6.38
498.413	6.44
498.846	6.5
499.279	6.59
499.711	6.67
500.144	6.75
500.577	6.83
501.009	6.92
501.442	7.03
501.874	7.13
502.306	7.25
502.739	7.36
503.171	7.49
503.603	7.63
504.036	7.75
504.468	7.89
504.9	8.06
505.332	8.22
505.764	8.39
506.196	8.56
506.627	8.74
507.059	8.92
507.491	9.11
507.923	9.32
508.354	9.52
508.786	9.73
509.217	9.95
509.649	10.18
510.08	10.44
510.512	10.68
510.943	10.93
511.374	11.19
511.805	11.46
512.237	11.74
512.668	12
513.099	12.3
513.53	12.6
513.961	12.92
514.391	13.21
514.822	13.52
515.253	13.84
515.684	14.16
516.114	14.5
516.545	14.83
516.975	15.17
517.406	15.52
517.836	15.85
518.267	16.19
518.697	16.55
519.127	16.91
519.558	17.23
519.988	17.56
520.418	17.9
520.848	18.23
521.278	18.54
521.708	18.96
522.138	19.27
522.567	19.58
522.997	19.9
523.427	20.17
523.857	20.45
524.286	20.74
524.716	21.02
525.145	21.29
525.575	21.55
526.004	21.8
526.433	21.96
526.863	22.23
527.292	22.47
527.721	22.7
528.15	22.91
528.579	23.13
529.008	23.34
529.437	23.55
529.866	23.73
530.295	23.9
530.724	24.1
531.152	24.26
531.581	24.4
532.01	24.53
532.438	24.68
532.867	24.81
533.295	24.95
533.723	25.06
534.152	25.16
534.58	25.27
535.008	25.36
535.436	25.44
535.865	25.51
536.293	25.6
536.721	25.67
537.149	25.74
537.576	25.81
538.004	25.86
538.432	25.92
538.86	25.96
539.287	26.03
539.715	26.09
540.143	26.14
540.57	26.19
540.998	26.22
541.425	26.26
541.852	26.29
542.28	26.3
542.707	26.34
543.134	26.36
543.561	26.4
543.988	26.42
544.415	26.43
544.842	26.47
545.269	26.5
545.696	26.52
546.123	26.54
546.549	26.57
546.976	26.61
547.403	26.62
547.829	26.63
548.256	26.64
548.682	26.66
549.108	26.7
549.535	26.69
549.961	26.69
550.387	26.7
550.813	26.69
551.24	26.68
551.666	26.67
552.092	26.65
552.518	26.64
552.943	26.63
553.369	26.6
553.795	26.56
554.221	26.52
554.646	26.48
555.072	26.43
555.498	26.38
555.923	26.31
556.349	26.24
556.774	26.18
557.199	26.12
557.625	26.03
558.05	25.93
558.475	25.83
558.9	25.71
559.325	25.59
559.75	25.48
560.175	25.34
560.6	25.2
561.025	25.06
561.449	24.89
561.874	24.73
562.299	24.58
562.723	24.41
563.148	24.23
563.572	24.08
563.997	23.9
564.421	23.71
564.846	23.53
565.27	23.36
565.694	23.18
566.118	22.99
566.542	22.82
566.966	22.63
567.39	22.43
567.814	22.25
568.238	22.04
568.662	21.86
569.086	21.67
569.509	21.49
569.933	21.29
570.357	21.1
570.78	20.92
571.204	20.73
571.627	20.54
572.05	20.39
572.474	20.22
572.897	20.04
573.32	19.87
573.743	19.69
574.166	19.52
574.589	19.36
575.012	19.21
575.435	19.05
575.858	18.92
576.281	18.77
576.704	18.62
577.126	18.48
577.549	18.36
577.972	18.24
578.394	18.11
578.817	17.98
579.239	17.87
579.661	17.76
580.084	17.66
580.506	17.54
580.928	17.44
581.35	17.32
581.772	17.21
582.194	17.12
582.616	17.03
583.038	16.96
583.46	16.9
583.882	16.8
584.303	16.71
584.725	16.61
585.147	16.51
585.568	16.42
585.99	16.35
586.411	16.26
586.833	16.19
587.254	16.09
587.675	16.02
588.096	15.93
588.518	15.86
588.939	15.79
589.36	15.73
589.781	15.67
590.202	15.63
590.623	15.55
591.043	15.51
591.464	15.44
591.885	15.4
592.305	15.35
592.726	15.29
593.147	15.25
593.567	15.2
593.987	15.17
594.408	15.12
594.828	15.07
595.248	15.03
595.669	15
596.089	14.96
596.509	14.9
596.929	14.85
597.349	14.81
597.769	14.77
598.189	14.73
598.608	14.67
599.028	14.64
599.448	14.6
599.867	14.55
600.287	14.5
600.706	14.45
601.126	14.42
601.545	14.37
601.965	14.32
602.384	14.27
602.803	14.2
603.222	14.14
603.641	14.08
604.061	14.03
604.48	13.96
604.898	13.9
605.317	13.84
605.736	13.76
606.155	13.7
606.574	13.62
606.992	13.55
607.411	13.48
607.829	13.36
608.248	13.29
608.666	13.19
609.085	13.11
609.503	13.02
609.921	12.92
610.339	12.85
610.758	12.77
611.176	12.69
611.594	12.63
612.012	12.55
612.43	12.52
612.847	12.45
613.265	12.39
613.683	12.32
614.101	12.24
614.518	12.17
614.936	12.1
615.353	12.02
615.771	11.95
616.188	11.88
616.606	11.82
617.023	11.75
617.44	11.68
617.857	11.61
618.274	11.56
618.691	11.52
619.108	11.48
619.525	11.43
619.942	11.4
620.359	11.37
620.776	11.34
621.192	11.31
621.609	11.28
622.026	11.26
622.442	11.24
622.859	11.22
623.275	11.22
623.691	11.18
624.108	11.16
624.524	11.13
624.94	11.11
625.356	11.09
625.772	11.08
626.188	11.08
626.604	11.06
627.02	11.04
627.436	11.03
627.852	10.99
628.268	10.98
628.683	10.96
629.099	10.96
629.514	10.93
629.93	10.89
630.345	10.86
630.761	10.81
631.176	10.77
631.591	10.74
632.007	10.69
632.422	10.64
632.837	10.59
633.252	10.54
633.667	10.45
634.082	10.38
634.497	10.29
634.911	10.2
635.326	10.09
635.741	9.99
636.155	9.87
636.57	9.76
636.984	9.64
637.399	9.51
637.813	9.36
638.228	9.24
638.642	9.12
639.056	9
639.47	8.89
639.884	8.79
640.298	8.66
640.712	8.53
641.126	8.41
641.54	8.29
641.954	8.21
642.368	8.1
642.781	8
643.195	7.88
643.609	7.78
644.022	7.67
644.436	7.57
644.849	7.48
645.262	7.41
645.676	7.31
646.089	7.22
646.502	7.13
646.915	7.08
647.328	7.01
647.741	6.97
648.154	6.92
648.567	6.88
648.98	6.83
649.393	6.81
649.805	6.76
650.218	6.75
650.631	6.73
651.043	6.71
651.456	6.68
651.868	6.66
652.28	6.65
652.693	6.62
653.105	6.59
653.517	6.56
653.929	6.53
654.341	6.52
654.753	6.48
655.165	6.45
655.577	6.4
655.989	6.35
656.401	6.3
656.813	6.24
657.224	6.2
657.636	6.16
658.047	6.13
658.459	6.07
658.87	6.03
659.282	5.99
659.693	5.94
660.104	5.89
660.515	5.85
660.926	5.82
661.338	5.78
661.749	5.73
662.159	5.7
662.57	5.65
662.981	5.63
663.392	5.59
663.803	5.56
664.213	5.53
664.624	5.51
665.035	5.5
665.445	5.49
665.855	5.49
666.266	5.49
666.676	5.48
667.086	5.48
667.497	5.48
667.907	5.47
668.317	5.47
668.727	5.48
669.137	5.48
669.547	5.5
669.956	5.51
670.366	5.52
670.776	5.54
671.186	5.57
671.595	5.6
672.005	5.61
672.414	5.64
672.824	5.68
673.233	5.72
673.642	5.74
674.052	5.77
674.461	5.81
674.87	5.85
675.279	5.89
675.688	5.92
676.097	5.96
676.506	6.01
676.915	6.06
677.323	6.11
677.732	6.16
678.141	6.23
678.549	6.29
678.958	6.36
679.366	6.4
679.775	6.46
680.183	6.54
680.592	6.61
681	6.67
681.408	6.76
681.816	6.83
682.224	6.9
682.632	7
683.04	7.09
683.448	7.19
683.856	7.32
684.264	7.44
684.671	7.59
685.079	7.73
685.487	7.92
685.894	8.12
686.302	8.33
686.709	8.57
687.116	8.83
687.524	9.14
687.931	9.45
688.338	9.8
688.745	10.18
689.152	10.59
689.559	11.02
689.966	11.47
690.373	11.98
690.78	12.5
691.187	13.06
691.593	13.63
692	14.21
692.407	14.83
692.813	15.49
693.22	16.14
693.626	16.82
694.032	17.52
694.439	18.25
694.845	18.96
695.251	19.67
695.657	20.38
696.063	21.14
696.469	21.9
696.875	22.63
697.281	23.35
697.687	24.11
698.093	24.85
698.498	25.58
698.904	26.29
699.31	27.02
699.715	27.77
700.12	28.49
700.526	29.2
700.931	29.88
701.337	30.59
701.742	31.27
702.147	31.95
702.552	32.62
702.957	33.28
703.362	33.93
703.767	34.55
704.172	35.2
704.577	35.84
704.981	36.45
705.386	37.07
705.791	37.66
706.195	38.27
706.6	38.86
707.004	39.42
707.408	39.99
707.813	40.55
708.217	41.12
708.621	41.66
709.025	42.18
709.43	42.7
709.834	43.25
710.237	43.76
710.641	44.27
711.045	44.74
711.449	45.24
711.853	45.77
712.256	46.26
712.66	46.74
713.064	47.18
713.467	47.62
713.87	48.08
714.274	48.5
714.677	48.93
715.08	49.34
715.484	49.81
715.887	50.24
716.29	50.61
716.693	51
717.096	51.39
717.499	51.8
717.901	52.2
718.304	52.56
718.707	52.91
719.109	53.28
719.512	53.69
719.915	54.03
720.317	54.38
720.719	54.69
721.122	55.04
721.524	55.37
721.926	55.69
722.328	55.99
722.731	56.3
723.133	56.6
723.535	56.9
723.937	57.15
724.338	57.36
724.74	57.62
725.142	57.89
725.544	58.12
725.945	58.34
726.347	58.58
726.748	58.78
727.15	58.99
727.551	59.22
727.952	59.39
728.354	59.59
728.755	59.8
729.156	59.97
729.557	60.13
729.958	60.3
730.359	60.43
730.76	60.54
731.161	60.69
731.562	60.84
731.962	60.94
732.363	61.05
732.763	61.16
733.164	61.29
733.564	61.39
733.965	61.47
734.365	61.58
734.766	61.71
735.166	61.8
735.566	61.88
735.966	61.93
736.366	62.02
736.766	62.12
737.166	62.19
737.566	62.22
737.966	62.32
738.365	62.41
738.765	62.5
739.165	62.51
739.564	62.57
739.964	62.64
740.363	62.7
740.763	62.73
741.162	62.78
741.561	62.84
741.96	62.93
742.36	62.95
742.759	62.99
743.158	62.97
743.557	63.07
743.955	63.15
744.354	63.22
744.753	63.27
745.152	63.32
745.55	63.39
745.949	63.44
746.348	63.47
746.746	63.49
747.144	63.55
747.543	63.62
747.941	63.66
748.339	63.7
748.737	63.74
749.136	63.79
749.534	63.84
749.932	63.84
750.33	63.84
750.727	63.85
751.125	63.91
751.523	63.89
751.921	63.91
752.318	63.91
752.716	63.9
753.113	63.89
753.511	63.88
753.908	63.86
754.305	63.85
754.703	63.84
755.1	63.83
755.497	63.83
755.894	63.83
756.291	63.82
756.688	63.81
757.085	63.83
757.482	63.82
757.878	63.85
758.275	63.89
758.672	63.9
759.068	63.92
759.465	63.93
759.861	63.94
760.258	63.92
760.654	63.94
761.05	63.93
761.447	63.91
761.843	63.89
762.239	63.84
762.635	63.82
763.031	63.81
763.427	63.8
763.822	63.74
764.218	63.71
764.614	63.68
765.01	63.66
765.405	63.62
765.801	63.59
766.196	63.56
766.592	63.58
766.987	63.54
767.382	63.5
767.778	63.5
768.173	63.52
768.568	63.48
768.963	63.5
769.358	63.49
769.753	63.55
770.148	63.56
770.542	63.55
770.937	63.51
771.332	63.5
771.726	63.5
772.121	63.47
772.515	63.47
772.91	63.47
773.304	63.45
773.699	63.42
774.093	63.36
774.487	63.37
774.881	63.4
775.275	63.39
775.669	63.39
776.063	63.35
776.457	63.33
776.851	63.29
777.245	63.29
777.638	63.28
778.032	63.3
778.425	63.32
778.819	63.28
779.212	63.23
779.606	63.26
779.999	63.27
780.392	63.3
780.786	63.31
781.179	63.3
781.572	63.29
781.965	63.32
782.358	63.26
782.751	63.24
783.143	63.24
783.536	63.33
783.929	63.29
784.322	63.31
784.714	63.35
785.107	63.37
785.499	63.41
785.891	63.45
786.284	63.41
786.676	63.47
787.068	63.48
787.46	63.49
787.852	63.43
788.245	63.43
788.636	63.45
789.028	63.44
789.42	63.4
789.812	63.4
790.204	63.33
790.595	63.39
790.987	63.36
791.378	63.33
791.77	63.35
792.161	63.34
792.553	63.33
792.944	63.33
793.335	63.3
793.726	63.31
794.117	63.29
794.508	63.34
794.899	63.31
795.29	63.28
795.681	63.3
796.072	63.29
796.463	63.35
796.853	63.36
797.244	63.34
797.634	63.32
798.025	63.32
798.415	63.34
798.806	63.36
799.196	63.37
799.586	63.41
799.976	63.4
800.366	63.41
800.756	63.34
801.146	63.33
801.536	63.31
801.926	63.32
802.316	63.35
802.706	63.33
803.095	63.32
803.485	63.31
803.874	63.29
804.264	63.34
804.653	63.31
805.043	63.35
805.432	63.32
805.821	63.32
806.21	63.33
806.599	63.34
806.988	63.36
807.377	63.34
807.766	63.35
808.155	63.38
808.544	63.32
808.933	63.38
809.321	63.4
809.71	63.46
810.098	63.49
810.487	63.51
810.875	63.5
811.264	63.48
811.652	63.52
812.04	63.56
812.428	63.56
812.816	63.59
813.204	63.58
813.592	63.56
813.98	63.55
814.368	63.53
814.756	63.55
815.144	63.58
815.531	63.58
815.919	63.55
816.306	63.55
816.694	63.56
817.081	63.53
817.469	63.53
817.856	63.55
818.243	63.58
818.63	63.67
819.017	63.67
819.404	63.68
819.791	63.72
820.178	63.72
820.565	63.72
820.952	63.73
821.339	63.78
821.725	63.82
822.112	63.8
822.498	63.82
822.885	63.78
823.271	63.75
823.657	63.75
824.044	63.75
824.43	63.8
824.816	63.81
825.202	63.8
825.588	63.82
825.974	63.82
826.36	63.89
826.746	63.91
827.132	63.9
827.517	63.92
827.903	63.91
828.289	63.95
828.674	63.92
829.06	63.95
829.445	63.97
829.83	63.97
830.216	63.96
830.601	63.92
830.986	63.91
831.371	63.99
831.756	64.01
832.141	64.04
832.526	64.01
832.911	64.03
833.295	64.04
833.68	64.06
834.065	64.07
834.449	64.06
834.834	64.07
835.218	64.09
835.603	64.05
835.987	64.06
836.371	64.07
836.755	64.09
837.139	64.07
837.524	64.06
837.908	64.04
838.291	64.04
838.675	64.06
839.059	64.05
839.443	64
839.827	63.99
840.21	64.02
840.594	64.03
840.977	64.04
841.361	64.05
841.744	64.06
842.127	64.07
842.511	64.05
842.894	64.01
843.277	64.01
843.66	64.02
844.043	64.04
844.426	63.99
844.809	63.95
845.191	63.95
845.574	63.92
845.957	63.88
846.339	63.87
846.722	63.87
847.104	63.89
847.487	63.9
847.869	63.91
848.252	63.87
848.634	63.9
849.016	63.94
849.398	63.89
849.78	63.89
850.162	63.91
850.544	63.92
850.926	63.93
851.307	63.94
851.689	63.93
852.071	63.9
852.452	63.93
852.834	63.92
853.215	63.93
853.597	63.95
853.978	63.97
854.359	63.97
854.741	63.97
855.122	63.94
855.503	63.95
855.884	63.97
856.265	63.98
856.646	63.95
857.026	63.94
857.407	63.9
857.788	63.91
858.169	63.89
858.549	63.9
858.93	63.9
859.31	63.92
859.69	63.9
860.071	63.9
860.451	63.9
860.831	63.94
861.211	63.91
861.591	63.94
861.971	63.98
862.351	64.01
862.731	63.98
863.111	63.98
863.491	63.97
863.87	63.96
864.25	63.95
864.629	63.97
865.009	63.95
865.388	63.94
865.768	63.92
866.147	63.89
866.526	63.87
866.905	63.88
867.284	63.88
867.663	63.9
868.042	63.88
868.421	63.87
868.8	63.84
869.179	63.82
869.558	63.81
869.936	63.78
870.315	63.8
870.693	63.81
871.072	63.8
871.45	63.78
871.828	63.76
872.207	63.81
872.585	63.79
872.963	63.8
873.341	63.83
873.719	63.85
874.097	63.88
874.475	63.85
874.853	63.86
875.23	63.85
875.608	63.85
875.986	63.85
876.363	63.83
876.741	63.86
877.118	63.84
877.495	63.82
877.873	63.82
878.25	63.79
878.627	63.78
879.004	63.75
879.381	63.76
879.758	63.75
880.135	63.77
880.512	63.78
880.889	63.75
881.265	63.78
881.642	63.81
882.019	63.82
882.395	63.84
882.772	63.83
883.148	63.84
883.524	63.86
883.901	63.85
884.277	63.83
884.653	63.83
885.029	63.84
885.405	63.85
885.781	63.81
886.157	63.76
886.532	63.75
886.908	63.77
887.284	63.79
887.659	63.79
888.035	63.79
888.411	63.8
888.786	63.79
889.161	63.82
889.537	63.81
889.912	63.8
890.287	63.82
890.662	63.8
891.037	63.77
891.412	63.74
891.787	63.72
892.162	63.7
892.536	63.69
892.911	63.67
893.286	63.63
893.66	63.6
894.035	63.59
894.409	63.59
894.784	63.62
895.158	63.63
895.532	63.58
895.906	63.57
896.281	63.55
896.655	63.53
897.029	63.51
897.402	63.5
897.776	63.52
898.15	63.53
898.524	63.5
898.898	63.43
899.271	63.44
899.645	63.47
900.018	63.47
900.392	63.49
900.765	63.49
901.138	63.51
901.511	63.53
901.884	63.52
902.258	63.53
902.631	63.53
903.003	63.57
903.376	63.53
903.749	63.53
904.122	63.57
904.495	63.56
904.867	63.57
905.24	63.56
905.612	63.49
905.985	63.47
906.357	63.42
906.729	63.42
907.102	63.4
907.474	63.41
907.846	63.37
908.218	63.29
908.59	63.25
908.962	63.2
909.334	63.16
909.705	63.16
910.077	63.11
910.449	63.1
910.82	63.07
911.192	63.08
911.563	63.05
911.935	63.02
912.306	63.02
912.677	63.03
913.048	63.01
913.419	63.01
913.79	63.02
914.161	63.03
914.532	63.01
914.903	62.99
915.274	62.94
915.645	62.95
916.015	62.93
916.386	62.9
916.756	62.83
917.127	62.84
917.497	62.81
917.868	62.81
918.238	62.8
918.608	62.8
918.978	62.78
919.348	62.72
919.718	62.69
920.088	62.73
920.458	62.77
920.828	62.81
921.198	62.87
921.567	62.87
921.937	62.88
922.306	62.85
922.676	62.81
923.045	62.82
923.415	62.85
923.784	62.87
924.153	62.82
924.522	62.75
924.891	62.72
925.26	62.65
925.629	62.67
925.998	62.61
926.367	62.59
926.736	62.59
927.104	62.56
927.473	62.56
927.842	62.51
928.21	62.52
928.578	62.51
928.947	62.49
929.315	62.53
929.683	62.51
930.051	62.53
930.42	62.53
930.788	62.49
931.156	62.49
931.523	62.49
931.891	62.44
932.259	62.41
932.627	62.37
932.994	62.34
933.362	62.25
933.729	62.16
934.097	62.1
934.464	62.02
934.831	61.98
935.199	61.99
935.566	61.89
935.933	61.91
936.3	61.8
936.667	61.7
937.034	61.65
937.401	61.55
937.767	61.44
938.134	61.37
938.501	61.35
938.867	61.36
939.234	61.26
939.6	61.18
939.967	61.09
940.333	61.15
940.699	61.19
941.065	61.22
941.431	61.28
941.798	61.35
942.163	61.41
942.529	61.47
942.895	61.42
943.261	61.39
943.627	61.46
943.992	61.44
944.358	61.4
944.723	61.35
945.089	61.36
945.454	61.37
945.82	61.36
946.185	61.37
946.55	61.48
946.915	61.48
947.28	61.51
947.645	61.52
948.01	61.57
948.375	61.64
948.74	61.65
949.104	61.65
949.469	61.54
949.834	61.54
950.198	61.52
950.562	61.41
950.927	61.44
951.291	61.48
951.655	61.48
952.02	61.46
952.384	61.48
952.748	61.57
953.112	61.54
953.476	61.63
953.839	61.6
954.203	61.63
954.567	61.63
954.931	61.63
955.294	61.56
955.658	61.49
956.021	61.44
956.385	61.43
956.748	61.39
957.111	61.33
957.474	61.32
957.837	61.38
958.2	61.26
958.563	61.26
958.926	61.15
959.289	61.19
959.652	61.18
960.015	61.21
960.377	61.15
960.74	61.13
961.102	61.09
961.465	61.1
961.827	60.97
962.189	60.95
962.552	60.88
962.914	60.89
963.276	60.9
963.638	60.91
964	60.85
964.362	60.87
964.724	60.79
965.085	60.85
965.447	60.79
965.809	60.82
966.17	60.86
966.532	60.86
966.893	60.85
967.255	60.74
967.616	60.76
967.977	60.8
968.338	60.74
968.699	60.78
969.061	60.64
969.421	60.62
969.782	60.63
970.143	60.6
970.504	60.61
970.865	60.56
971.225	60.55
971.586	60.51
971.946	60.43
972.307	60.37
972.667	60.41
973.027	60.47
973.388	60.48
973.748	60.42
974.108	60.45
974.468	60.4
974.828	60.47
975.188	60.52
975.548	60.59
975.907	60.59
976.267	60.65
976.627	60.66
976.986	60.63
977.346	60.63
977.705	60.6
978.064	60.53
978.424	60.54
978.783	60.51
979.142	60.44
979.501	60.3
979.86	60.24
980.219	60.12
980.578	60.01
980.937	60.08
981.296	60.08
981.654	60.25
982.013	60.23
982.371	60.21
982.73	60.23
983.088	60.16
983.447	60.2
983.805	60.26
984.163	60.3
984.521	60.26
984.879	60.22
985.237	60.2
985.595	60.12
985.953	60.09
986.311	60.06
986.669	59.99
987.026	60.01
987.384	60.01
987.741	60.03
988.099	60.07
988.456	60.09
988.814	60.05
989.171	59.99
989.528	59.81
989.885	59.73
990.242	59.72
990.599	59.66
990.956	59.59
991.313	59.61
991.67	59.58
992.027	59.58
992.383	59.63
992.74	59.63
993.096	59.6
993.453	59.62
993.809	59.63
994.165	59.68
994.522	59.81
994.878	59.87
995.234	59.86
995.59	59.82
995.946	59.72
996.302	59.47
996.658	59.4
997.013	59.34
997.369	59.42
997.725	59.43
998.08	59.42
998.436	59.31
998.791	59.26
999.147	59.19
999.502	59.01
999.857	59.08
1000.212	59.13
1000.567	59.04
1000.922	58.97
1001.277	58.83
1001.632	58.86
1001.987	58.7
1002.342	58.59
1002.696	58.54
1003.051	58.37
1003.406	58.36
1003.76	58.14
1004.114	58.35
1004.469	58.38
1004.823	58.42
1005.177	58.61
1005.531	58.39
1005.885	58.49
1006.239	58.42
1006.593	58.46
1006.947	58.55
1007.301	58.78
1007.655	58.84
1008.008	58.64
1008.362	58.57
1008.715	58.56
1009.069	58.27
1009.422	58.28
1009.776	58.1
1010.129	57.96
1010.482	57.89
1010.835	57.7
1011.188	57.41
1011.541	57.24
1011.894	57.18
1012.247	57.1
1012.6	57.01
1012.952	56.91
1013.305	56.9
1013.657	56.9
1014.01	57.14
1014.362	56.96
1014.715	57.03
1015.067	57.09
1015.419	57.27
1015.771	57.14
1016.123	57
1016.475	57.13
1016.827	56.95
1017.179	56.94
1017.531	56.73
1017.883	56.56
1018.234	56.55
1018.586	56.65
1018.938	56.52
1019.289	56.42
1019.64	56.38
1019.992	56.33
1020.343	56.05
1020.694	56.14
1021.045	56.01
1021.396	56.05
1021.747	55.83
1022.098	56.06
1022.449	55.65
1022.8	55.49
1023.151	55.15
1023.501	55.42
1023.852	55.63
1024.202	55.3
1024.553	55.34
1024.903	55.23
1025.253	55.27
1025.604	55.29
1025.954	54.68
1026.304	55.06
1026.654	55.22
1027.004	55.37
1027.354	54.65
1027.703	54.16
1028.053	54.35
1028.403	54.65
1028.753	54.91
1029.102	54.61
1029.452	54.4
1029.801	54.39
1030.15	54.04
1030.499	53.79
897.758	679.95
901.051	683.38
904.343	696.01
907.636	680.59
910.928	672.72
914.22	681.96
917.511	670.85
920.803	646.74
924.094	618.2
927.384	620.45
930.675	602.23
933.965	594.89
937.255	594.49
940.544	565.28
943.834	542.07
947.123	531.17
950.411	505.13
953.7	495.21
956.988	481.04
960.276	459.44
963.563	452.08
966.851	428.59
970.138	422.21
973.424	395.92
976.711	390.62
979.997	380.15
983.283	372.27
986.568	360.56
989.853	348.96
993.138	336.71
996.423	332.38
999.708	324.17
1002.992	325.4
1006.275	311.27
1009.559	309.23
1012.842	299.69
1016.125	289
1019.408	283.39
1022.69	279.69
1025.972	280.2
1029.254	272.58
1032.536	268.47
1035.817	258.88
1039.098	255.23
1042.379	252.8
1045.659	248.39
1048.939	247.2
1052.219	242.8
1055.498	238.69
1058.778	235.92
1062.057	229.83
1065.335	228.81
1068.614	225.41
1071.892	223.94
1075.17	218.45
1078.447	215.47
1081.724	214.41
1085.001	210.05
1088.278	209.4
1091.554	208.01
1094.83	206.76
1098.106	203.88
1101.382	202.22
1104.657	201.27
1107.932	199.77
1111.206	199.22
1114.481	197.39
1117.755	195.86
1121.029	194.87
1124.302	192.55
1127.575	190.23
1130.848	188.99
1134.121	185.65
1137.393	185.71
1140.665	183.71
1143.937	182.1
1147.208	179.82
1150.48	178.41
1153.75	177.33
1157.021	175.37
1160.291	175.32
1163.561	175.45
1166.831	173.68
1170.101	174.56
1173.37	173.21
1176.639	171.93
1179.907	171.33
1183.176	171.25
1186.444	171.42
1189.711	170.08
1192.979	172.46
1196.246	172.31
1199.513	170.18
1202.78	171.03
1206.046	170.99
1209.312	171.14
1212.578	172.77
1215.843	175.02
1219.108	176.16
1222.373	178.57
1225.638	181.41
1228.902	185.05
1232.166	190.11
1235.43	193.63
1238.693	198.9
1241.956	201.99
1245.219	206.85
1248.482	208.35
1251.744	207.39
1255.006	209.37
1258.268	204.71
1261.529	202.86
1264.79	196.99
1268.051	192.55
1271.312	191.35
1274.572	187.68
1277.832	183.99
1281.092	181.81
1284.351	177.94
1287.61	178.11
1290.869	176.32
1294.128	175.37
1297.386	175.12
1300.644	174.26
1303.902	174.76
1307.159	173.28
1310.416	174.11
1313.673	176.76
1316.93	177.39
1320.186	179.99
1323.442	182.24
1326.697	186.26
1329.953	187.78
1333.208	193.58
1336.463	200.82
1339.717	203.69
1342.972	214.87
1346.226	219.8
1349.479	221.21
1352.733	231.91
1355.986	237.04
1359.238	241.67
1362.491	243.45
1365.743	252.74
1368.995	253.69
1372.247	254.06
1375.498	254.38
1378.749	261
1382	260.69
1385.251	260.82
1388.501	258.76
1391.751	261.78
1395	260.52
1398.25	263
1401.499	261.85
1404.748	262.92
1407.996	257.07
1411.244	257.13
1414.492	252.38
1417.74	246.19
1420.987	240.84
1424.234	237.03
1427.481	228.3
1430.728	222.1
1433.974	213.87
1437.22	206.83
1440.465	199.67
1443.711	194.78
1446.956	188.71
1450.201	181.68
1453.445	174.98
1456.689	170.05
1459.933	164.77
1463.177	158.94
1466.42	155.55
1469.663	151.2
1472.906	147.6
1476.148	144.09
1479.391	140.59
1482.633	138.38
1485.874	137.11
1489.115	135.84
1492.356	133.2
1495.597	131.86
1498.838	130.88
1502.078	130.2
1505.318	130.05
1508.557	129.56
1511.797	127.91
1515.036	128.54
1518.274	127.49
1521.513	125.58
1524.751	124.37
1527.989	125.93
1531.227	125.46
1534.464	125.53
1537.701	124.18
1540.938	123.57
1544.174	123.19
1547.41	123.68
1550.646	123.08
1553.882	123.22
1557.117	122.54
1560.352	122.51
1563.587	121.04
1566.821	120.72
1570.055	120.07
1573.289	120.09
1576.523	120.24
1579.756	119.52
1582.989	119.39
1586.222	118.53
1589.454	118.19
1592.686	118.07
1595.918	118.22
1599.15	117.92
1602.381	118.2
1605.612	117.9
1608.843	118.07
1612.073	118.53
1615.303	118.73
1618.533	117.99
1621.762	119.13
1624.992	118.91
1628.221	119.08
1631.449	119.38
1634.678	118.56
1637.906	118.65
1641.134	118.93
1644.361	118.78
1647.588	118.76
1650.815	119.09
1654.042	119.1
1657.269	118.56
1660.495	119.47
1663.72	118.98
1666.946	118.81
1670.171	120.09
1673.396	120.81
1676.621	120.88
1679.845	120.88
1683.069	120.35
1686.293	119.74
1689.517	120.37
1692.74	120.48
1695.963	120.48
1699.185	121.26
1702.408	121.44
1705.63	121.42
1708.852	121.52
1712.073	121.27
1715.294	121.43
1718.515	122.29
1721.736	122.56
1724.956	122.87
1728.176	122.81
1731.396	123.5
1734.616	123.26
1737.835	123.43
1741.054	123.18
1744.272	123.12
1747.491	123.73
1750.709	123.93
1753.927	123.91
1757.144	124.53
1760.361	124.51
1763.578	125.18
1766.795	125.49
1770.011	126.48
1773.227	127.34
1776.443	128.15
1779.658	128.35
1782.874	128.77
1786.089	129.81
1789.303	130.01
1792.518	131.28
1795.732	131.81
1798.945	132.86
1802.159	133.01
1805.372	134.32
1808.585	134.6
1811.797	135.88
1815.01	136.79
1818.222	138.25
1821.434	138.61
1824.645	139.2
1827.856	140.53
1831.067	141.86
1834.278	141.83
1837.488	143.28
1840.698	144.46
1843.908	144.63
1847.117	145.86
1850.326	146.87
1853.535	147.09
1856.744	148.73
1859.952	150.95
1863.16	150.77
1866.368	150.79
1869.575	152.97
1872.782	151.76
1875.989	149.79
1879.196	149.75
1882.402	148.89
1885.608	148.75
1888.814	148.17
1892.019	148.88
1895.224	146.09
1898.429	146.14
1901.634	146.55
1904.838	145.97
1908.042	146.35
1911.246	147.14
1914.449	147.4
1917.652	146.86
1920.855	147.88
1924.058	145.61
1927.26	144.21
1930.462	146.53
1933.664	145.98
1936.865	145.59
1940.066	144.43
1943.267	143.19
1946.467	145.1
1949.668	144.39
1952.868	145.06
1956.067	143.76
1959.267	147.19
1962.466	147.86
1965.665	148.08
1968.863	149.6
1972.061	150.12
1975.259	153.39
1978.457	155.53
1981.654	155.3
1984.852	157.86
1988.048	159.72
1991.245	162.1
1994.441	164.62
1997.637	168.52
2000.833	171.05
2004.028	173.65
2007.223	179.14
2010.418	182.83
2013.613	190.65
2016.807	196.21
2020.001	198.85
2023.194	203.79
2026.388	210.97
2029.581	222.44
2032.774	227.89
2035.966	236.3
2039.158	242.73
2042.35	246.78
2045.542	250.24
2048.733	259
2051.924	261.29
2055.115	265.59
2058.306	269.58
2061.496	275.6
2064.686	274.35
2067.875	272.17
2071.065	273.37
2074.254	274.34
2077.442	282.55
2080.631	285.31
2083.819	285.34
2087.007	291.88
2090.195	297.89
2093.382	296.82
2096.569	296.35
2099.756	300.01
2102.942	307.39
2106.128	314.72
2109.314	316.26
2112.5	316.38
2115.685	314.33
2118.87	315.34
2122.055	314.57
2125.239	321.87
2128.424	329.44
2131.608	326.09
2134.791	325.29
2137.974	328.37
2141.157	330.81
2144.34	333.53
2147.523	335.8
2150.705	345.21
2153.887	340.48
2157.068	346.06
2160.25	347.43
2163.431	345.97
2166.611	354.27
2169.792	362.29
2172.972	365.16
2176.152	364.94
2179.331	373.03
2182.511	375.39
2185.69	379.98
2188.868	396.99
2192.047	402.36
2195.225	406.06
2198.403	413.23
2201.58	406.59
2204.758	419.51
2207.935	424.51
2211.111	433.26
2214.288	434.51
2217.464	439.95
2220.64	439.79
2223.815	440.66
2226.991	438.17
2230.166	442.41
2233.34	457.11
2236.515	468.53
2239.689	463.33
2242.863	470.28
2246.036	462.22
2249.209	477.52
2252.382	473.91
2255.555	492.18
2258.727	494.15
2261.9	509.55
2265.071	516.55
2268.243	511.02
2271.414	529.51
2274.585	538.58
2277.756	539.61
2280.926	565.65
2284.096	560.53
2287.266	565.75
2290.436	554.18
2293.605	564.9
2296.774	586.39
2299.942	581.15
2303.111	599.08
2306.279	608.42
2309.447	613.03
2312.614	608.82
2315.781	622.18
2318.948	633.14
2322.115	644.73
2325.281	679.01
2328.447	676.43
2331.613	674.6
2334.779	693.8
2337.944	701.64
2341.109	714.78
2344.274	717.65
2347.438	747.6
2350.602	755.44
2353.766	797.54
2356.929	803
2360.092	810.63
2363.255	815.69
2366.418	830.05
2369.58	846.91
2372.742	842.86
2375.904	838.28
2379.066	863.44
2382.227	908.05
2385.388	905.36
2388.548	865.31
2391.709	858.84
2394.869	890.65
2398.029	890.27
2401.188	889.1
2404.347	911.84
2407.506	940.74
2410.665	917.7
2413.823	917.46
2416.981	917.83
2420.139	869.67
2423.296	936.51
2426.453	988.07
2429.61	941.66
2432.767	1013.43
2435.923	1048
2439.079	1003.67
2442.235	1030.96
2445.391	1048.63
2448.546	1044.89
2451.701	1097.33
2454.855	1177.34
2458.009	1033.8
2461.163	1059.74
2464.317	1064.83
2467.471	1039.24
2470.624	1072.31
2473.777	1073.55
2476.929	1035.24
2480.082	1105.89
2483.234	1158.72
2486.385	1175.4
2489.537	1203.22
2492.688	1341.85
2495.839	1320.38
2498.989	1363.73
2502.14	1364.15
2505.29	1299.11
2508.439	1440.36
2511.589	1482.28
2514.738	1428.26
2517.887	1415.83
2521.035	1332.5
2524.183	1307.87
2527.331	1286.53
2530.479	1251.9
2533.627	1281.77
