Data from N_2_dec_ct_2n_073_Splice17_20.txt Node
Date: Sat Feb 29 14:08:47 EST 2020
User: sa697716
Spectrometer: FLMS03696
Trigger mode: 0
Integration Time (sec): 3.180400E-1
Scans to average: 20
Electric dark correction enabled: true
Nonlinearity correction enabled: true
Boxcar width: 5
XAxis mode: Wavelengths
Number of Pixels in Spectrum: 2048
>>>>>Begin Spectral Data<<<<<
187.83	98.27
188.298	101.28
188.766	85.67
189.233	82.07
189.701	96.86
190.169	80.98
190.636	94.01
191.104	104.41
191.571	416.91
192.039	237.69
192.506	-190.23
192.974	737.18
193.441	2.8
193.908	79.85
194.375	43.26
194.842	123.06
195.31	16.86
195.777	17.75
196.244	42.85
196.711	43.7
197.177	40.43
197.644	40.64
198.111	40.69
198.578	40.75
199.045	41.14
199.511	41.86
199.978	42.66
200.445	42.82
200.911	42.94
201.378	42.95
201.844	43.04
202.31	44.42
202.777	44.95
203.243	45.38
203.709	45.85
204.176	45.02
204.642	45.25
205.108	45.19
205.574	45.22
206.04	45.28
206.506	45.12
206.972	45.24
207.438	44.1
207.903	43.91
208.369	43.4
208.835	43.11
209.301	43.68
209.766	43.29
210.232	43.31
210.697	43.29
211.163	43.22
211.628	42.91
212.094	42.66
212.559	42.72
213.024	42.28
213.49	41.93
213.955	41.39
214.42	40.87
214.885	40.19
215.35	39.24
215.815	38.36
216.28	37.65
216.745	36.79
217.21	36
217.675	35.09
218.14	34.21
218.604	33.36
219.069	32.83
219.534	32.08
219.998	31.52
220.463	31.14
220.927	30.7
221.392	30.21
221.856	29.81
222.32	29.43
222.785	29.1
223.249	28.77
223.713	28.53
224.177	28.17
224.642	27.95
225.106	27.69
225.57	27.36
226.034	27.11
226.497	26.83
226.961	26.56
227.425	26.3
227.889	26.02
228.353	25.75
228.816	25.49
229.28	25.22
229.744	24.97
230.207	24.72
230.671	24.46
231.134	24.21
231.597	23.96
232.061	23.74
232.524	23.5
232.987	23.25
233.45	23.01
233.914	22.78
234.377	22.56
234.84	22.31
235.303	22.08
235.766	21.88
236.229	21.65
236.691	21.46
237.154	21.23
237.617	21.04
238.08	20.87
238.542	20.69
239.005	20.5
239.468	20.31
239.93	20.14
240.393	19.97
240.855	19.81
241.317	19.66
241.78	19.51
242.242	19.34
242.704	19.2
243.166	19.02
243.629	18.88
244.091	18.74
244.553	18.61
245.015	18.48
245.477	18.34
245.939	18.2
246.4	18.04
246.862	17.9
247.324	17.8
247.786	17.67
248.247	17.57
248.709	17.44
249.17	17.33
249.632	17.2
250.093	17.09
250.555	16.99
251.016	16.91
251.477	16.83
251.939	16.74
252.4	16.65
252.861	16.57
253.322	16.48
253.783	16.42
254.244	16.34
254.705	16.26
255.166	16.21
255.627	16.15
256.088	16.06
256.549	15.99
257.009	15.92
257.47	15.85
257.931	15.76
258.391	15.69
258.852	15.61
259.312	15.54
259.773	15.48
260.233	15.4
260.694	15.34
261.154	15.28
261.614	15.23
262.074	15.18
262.534	15.12
262.994	15.07
263.455	15.03
263.915	14.98
264.374	14.93
264.834	14.89
265.294	14.84
265.754	14.8
266.214	14.76
266.673	14.72
267.133	14.68
267.593	14.64
268.052	14.61
268.512	14.57
268.971	14.54
269.431	14.52
269.89	14.48
270.349	14.46
270.809	14.43
271.268	14.4
271.727	14.37
272.186	14.34
272.645	14.31
273.104	14.29
273.563	14.26
274.022	14.23
274.481	14.2
274.94	14.16
275.399	14.11
275.857	14.09
276.316	14.05
276.775	14.01
277.233	13.98
277.692	13.95
278.15	13.91
278.609	13.88
279.067	13.83
279.525	13.8
279.984	13.77
280.442	13.75
280.9	13.71
281.358	13.68
281.816	13.66
282.274	13.62
282.732	13.59
283.19	13.56
283.648	13.53
284.106	13.51
284.564	13.5
285.021	13.48
285.479	13.46
285.937	13.45
286.394	13.42
286.852	13.4
287.309	13.39
287.767	13.37
288.224	13.34
288.682	13.31
289.139	13.29
289.596	13.26
290.053	13.22
290.511	13.19
290.968	13.15
291.425	13.11
291.882	13.08
292.339	13.05
292.796	13.01
293.252	12.98
293.709	12.96
294.166	12.93
294.623	12.9
295.079	12.87
295.536	12.85
295.992	12.82
296.449	12.82
296.905	12.79
297.362	12.77
297.818	12.76
298.274	12.75
298.731	12.73
299.187	12.71
299.643	12.7
300.099	12.69
300.555	12.66
301.011	12.64
301.467	12.62
301.923	12.61
302.379	12.59
302.835	12.58
303.291	12.55
303.746	12.53
304.202	12.51
304.658	12.49
305.113	12.48
305.569	12.47
306.024	12.46
306.479	12.43
306.935	12.42
307.39	12.4
307.845	12.38
308.301	12.38
308.756	12.37
309.211	12.37
309.666	12.35
310.121	12.34
310.576	12.33
311.031	12.32
311.486	12.32
311.94	12.31
312.395	12.3
312.85	12.29
313.305	12.28
313.759	12.26
314.214	12.25
314.668	12.24
315.123	12.23
315.577	12.22
316.032	12.21
316.486	12.2
316.94	12.19
317.394	12.17
317.849	12.16
318.303	12.14
318.757	12.13
319.211	12.11
319.665	12.09
320.119	12.06
320.572	12.03
321.026	12
321.48	11.98
321.934	11.97
322.387	11.94
322.841	11.93
323.295	11.89
323.748	11.87
324.202	11.84
324.655	11.81
325.108	11.78
325.562	11.76
326.015	11.74
326.468	11.7
326.921	11.68
327.374	11.65
327.827	11.61
328.28	11.6
328.733	11.57
329.186	11.56
329.639	11.54
330.092	11.52
330.545	11.52
330.997	11.5
331.45	11.5
331.903	11.48
332.355	11.47
332.808	11.47
333.26	11.46
333.713	11.47
334.165	11.45
334.617	11.44
335.069	11.44
335.522	11.42
335.974	11.42
336.426	11.4
336.878	11.4
337.33	11.39
337.782	11.38
338.234	11.37
338.686	11.35
339.137	11.34
339.589	11.31
340.041	11.29
340.493	11.26
340.944	11.23
341.396	11.21
341.847	11.17
342.299	11.14
342.75	11.1
343.201	11.06
343.653	11.04
344.104	11.01
344.555	10.99
345.006	10.97
345.457	10.96
345.908	10.95
346.359	10.93
346.81	10.92
347.261	10.9
347.712	10.88
348.163	10.87
348.613	10.85
349.064	10.83
349.515	10.82
349.965	10.8
350.416	10.77
350.866	10.75
351.317	10.74
351.767	10.74
352.217	10.71
352.668	10.71
353.118	10.71
353.568	10.71
354.018	10.72
354.468	10.71
354.918	10.71
355.368	10.72
355.818	10.72
356.268	10.7
356.718	10.69
357.168	10.69
357.617	10.69
358.067	10.66
358.517	10.64
358.966	10.63
359.416	10.62
359.865	10.61
360.315	10.59
360.764	10.57
361.213	10.57
361.663	10.55
362.112	10.55
362.561	10.54
363.01	10.54
363.459	10.54
363.908	10.53
364.357	10.51
364.806	10.51
365.255	10.51
365.703	10.49
366.152	10.48
366.601	10.48
367.05	10.46
367.498	10.45
367.947	10.44
368.395	10.43
368.844	10.42
369.292	10.4
369.74	10.38
370.189	10.38
370.637	10.38
371.085	10.38
371.533	10.37
371.981	10.36
372.429	10.35
372.877	10.34
373.325	10.33
373.773	10.33
374.221	10.32
374.669	10.32
375.116	10.29
375.564	10.28
376.012	10.28
376.459	10.27
376.907	10.27
377.354	10.26
377.801	10.26
378.249	10.27
378.696	10.27
379.143	10.27
379.591	10.27
380.038	10.29
380.485	10.29
380.932	10.3
381.379	10.29
381.826	10.3
382.273	10.31
382.72	10.31
383.166	10.32
383.613	10.33
384.06	10.36
384.506	10.37
384.953	10.37
385.4	10.38
385.846	10.39
386.292	10.43
386.739	10.44
387.185	10.47
387.631	10.49
388.078	10.52
388.524	10.53
388.97	10.54
389.416	10.54
389.862	10.56
390.308	10.59
390.754	10.61
391.2	10.65
391.645	10.68
392.091	10.69
392.537	10.71
392.983	10.74
393.428	10.79
393.874	10.83
394.319	10.87
394.765	10.88
395.21	10.9
395.655	10.93
396.101	10.93
396.546	10.96
396.991	10.98
397.436	11
397.881	11.01
398.326	11.04
398.771	11.05
399.216	11.09
399.661	11.13
400.106	11.15
400.551	11.17
400.995	11.18
401.44	11.19
401.885	11.19
402.329	11.19
402.774	11.19
403.218	11.2
403.663	11.2
404.107	11.21
404.551	11.23
404.995	11.24
405.44	11.25
405.884	11.25
406.328	11.26
406.772	11.28
407.216	11.32
407.66	11.33
408.104	11.34
408.547	11.36
408.991	11.35
409.435	11.34
409.879	11.34
410.322	11.35
410.766	11.38
411.209	11.39
411.653	11.39
412.096	11.38
412.54	11.37
412.983	11.37
413.426	11.37
413.869	11.38
414.312	11.41
414.756	11.43
415.199	11.45
415.642	11.47
416.085	11.48
416.527	11.51
416.97	11.53
417.413	11.54
417.856	11.52
418.298	11.51
418.741	11.52
419.184	11.5
419.626	11.47
420.069	11.47
420.511	11.45
420.953	11.43
421.396	11.41
421.838	11.41
422.28	11.42
422.722	11.44
423.164	11.45
423.606	11.47
424.048	11.46
424.49	11.47
424.932	11.46
425.374	11.45
425.816	11.44
426.258	11.42
426.699	11.36
427.141	11.3
427.582	11.28
428.024	11.26
428.465	11.26
428.907	11.27
429.348	11.27
429.789	11.27
430.231	11.26
430.672	11.27
431.113	11.28
431.554	11.31
431.995	11.35
432.436	11.35
432.877	11.34
433.318	11.32
433.759	11.29
434.2	11.29
434.64	11.29
435.081	11.28
435.522	11.29
435.962	11.3
436.403	11.32
436.843	11.33
437.284	11.35
437.724	11.39
438.164	11.4
438.604	11.42
439.045	11.41
439.485	11.42
439.925	11.43
440.365	11.43
440.805	11.45
441.245	11.45
441.685	11.49
442.125	11.5
442.564	11.52
443.004	11.56
443.444	11.6
443.883	11.63
444.323	11.67
444.762	11.73
445.202	11.79
445.641	11.84
446.081	11.92
446.52	11.92
446.959	11.98
447.398	12.05
447.837	12.11
448.276	12.13
448.716	12.2
449.154	12.26
449.593	12.31
450.032	12.36
450.471	12.38
450.91	12.38
451.349	12.41
451.787	12.44
452.226	12.46
452.664	12.46
453.103	12.46
453.541	12.46
453.98	12.46
454.418	12.47
454.856	12.43
455.295	12.45
455.733	12.45
456.171	12.44
456.609	12.44
457.047	12.41
457.485	12.41
457.923	12.41
458.361	12.39
458.798	12.39
459.236	12.37
459.674	12.38
460.111	12.37
460.549	12.36
460.987	12.38
461.424	12.34
461.862	12.35
462.299	12.34
462.736	12.35
463.173	12.34
463.611	12.32
464.048	12.32
464.485	12.29
464.922	12.29
465.359	12.3
465.796	12.29
466.233	12.31
466.67	12.31
467.106	12.31
467.543	12.31
467.98	12.32
468.416	12.34
468.853	12.34
469.29	12.37
469.726	12.38
470.162	12.36
470.599	12.37
471.035	12.38
471.471	12.39
471.907	12.38
472.344	12.39
472.78	12.4
473.216	12.39
473.652	12.4
474.088	12.41
474.523	12.41
474.959	12.41
475.395	12.42
475.831	12.42
476.266	12.42
476.702	12.42
477.138	12.42
477.573	12.4
478.008	12.43
478.444	12.41
478.879	12.39
479.314	12.39
479.75	12.41
480.185	12.41
480.62	12.41
481.055	12.41
481.49	12.4
481.925	12.41
482.36	12.42
482.795	12.38
483.229	12.41
483.664	12.41
484.099	12.43
484.534	12.43
484.968	12.44
485.403	12.44
485.837	12.47
486.271	12.5
486.706	12.53
487.14	12.57
487.574	12.61
488.009	12.65
488.443	12.69
488.877	12.73
489.311	12.78
489.745	12.84
490.179	12.9
490.613	12.95
491.046	13.03
491.48	13.1
491.914	13.17
492.348	13.25
492.781	13.32
493.215	13.42
493.648	13.52
494.082	13.64
494.515	13.74
494.948	13.86
495.382	13.98
495.815	14.11
496.248	14.23
496.681	14.37
497.114	14.52
497.547	14.67
497.98	14.82
498.413	14.99
498.846	15.16
499.279	15.35
499.711	15.56
500.144	15.75
500.577	15.95
501.009	16.18
501.442	16.41
501.874	16.65
502.306	16.89
502.739	17.14
503.171	17.4
503.603	17.67
504.036	17.93
504.468	18.2
504.9	18.51
505.332	18.82
505.764	19.14
506.196	19.47
506.627	19.82
507.059	20.18
507.491	20.52
507.923	20.89
508.354	21.27
508.786	21.67
509.217	22.05
509.649	22.46
510.08	22.87
510.512	23.27
510.943	23.69
511.374	24.1
511.805	24.53
512.237	24.99
512.668	25.41
513.099	25.87
513.53	26.32
513.961	26.78
514.391	27.23
514.822	27.67
515.253	28.14
515.684	28.6
516.114	29.08
516.545	29.53
516.975	29.99
517.406	30.46
517.836	30.9
518.267	31.37
518.697	31.83
519.127	32.27
519.558	32.72
519.988	33.15
520.418	33.57
520.848	33.99
521.278	34.41
521.708	34.73
522.138	35.1
522.567	35.48
522.997	35.86
523.427	36.22
523.857	36.55
524.286	36.9
524.716	37.22
525.145	37.55
525.575	37.84
526.004	38.14
526.433	38.52
526.863	38.83
527.292	39.1
527.721	39.34
528.15	39.58
528.579	39.85
529.008	40.09
529.437	40.32
529.866	40.53
530.295	40.74
530.724	40.96
531.152	41.14
531.581	41.32
532.01	41.49
532.438	41.66
532.867	41.82
533.295	41.95
533.723	42.11
534.152	42.22
534.58	42.33
535.008	42.43
535.436	42.51
535.865	42.59
536.293	42.69
536.721	42.78
537.149	42.85
537.576	42.91
538.004	42.96
538.432	42.99
538.86	43.07
539.287	43.14
539.715	43.21
540.143	43.28
540.57	43.34
540.998	43.38
541.425	43.43
541.852	43.49
542.28	43.53
542.707	43.6
543.134	43.65
543.561	43.68
543.988	43.72
544.415	43.74
544.842	43.77
545.269	43.81
545.696	43.85
546.123	43.88
546.549	43.92
546.976	43.95
547.403	43.97
547.829	44.01
548.256	44.04
548.682	44.07
549.108	44.09
549.535	44.09
549.961	44.09
550.387	44.07
550.813	44.06
551.24	44.04
551.666	44.07
552.092	44.07
552.518	44.05
552.943	44.04
553.369	44.02
553.795	44
554.221	43.97
554.646	43.93
555.072	43.92
555.498	43.87
555.923	43.82
556.349	43.73
556.774	43.65
557.199	43.57
557.625	43.46
558.05	43.35
558.475	43.25
558.9	43.16
559.325	43.06
559.75	42.96
560.175	42.83
560.6	42.69
561.025	42.56
561.449	42.42
561.874	42.25
562.299	42.13
562.723	41.99
563.148	41.83
563.572	41.67
563.997	41.49
564.421	41.3
564.846	41.11
565.27	40.91
565.694	40.71
566.118	40.52
566.542	40.34
566.966	40.12
567.39	39.89
567.814	39.68
568.238	39.44
568.662	39.22
569.086	38.98
569.509	38.74
569.933	38.51
570.357	38.28
570.78	38.06
571.204	37.82
571.627	37.59
572.05	37.37
572.474	37.14
572.897	36.91
573.32	36.69
573.743	36.47
574.166	36.27
574.589	36.06
575.012	35.87
575.435	35.64
575.858	35.47
576.281	35.28
576.704	35.08
577.126	34.91
577.549	34.77
577.972	34.61
578.394	34.46
578.817	34.31
579.239	34.17
579.661	34.03
580.084	33.92
580.506	33.79
580.928	33.67
581.35	33.58
581.772	33.47
582.194	33.35
582.616	33.25
583.038	33.15
583.46	33.06
583.882	32.97
584.303	32.86
584.725	32.77
585.147	32.65
585.568	32.55
585.99	32.43
586.411	32.34
586.833	32.25
587.254	32.17
587.675	32.08
588.096	31.99
588.518	31.91
588.939	31.87
589.36	31.79
589.781	31.73
590.202	31.68
590.623	31.62
591.043	31.56
591.464	31.48
591.885	31.44
592.305	31.4
592.726	31.37
593.147	31.34
593.567	31.25
593.987	31.21
594.408	31.15
594.828	31.09
595.248	31.06
595.669	31.02
596.089	30.99
596.509	30.9
596.929	30.86
597.349	30.79
597.769	30.72
598.189	30.68
598.608	30.62
599.028	30.56
599.448	30.5
599.867	30.41
600.287	30.34
600.706	30.24
601.126	30.18
601.545	30.09
601.965	30.01
602.384	29.93
602.803	29.82
603.222	29.73
603.641	29.65
604.061	29.53
604.48	29.43
604.898	29.32
605.317	29.2
605.736	29.08
606.155	28.94
606.574	28.81
606.992	28.66
607.411	28.53
607.829	28.36
608.248	28.21
608.666	28.08
609.085	27.92
609.503	27.78
609.921	27.63
610.339	27.5
610.758	27.38
611.176	27.23
611.594	27.09
612.012	26.97
612.43	26.87
612.847	26.73
613.265	26.6
613.683	26.48
614.101	26.34
614.518	26.25
614.936	26.12
615.353	25.98
615.771	25.87
616.188	25.77
616.606	25.65
617.023	25.53
617.44	25.44
617.857	25.32
618.274	25.23
618.691	25.15
619.108	25.05
619.525	24.97
619.942	24.91
620.359	24.85
620.776	24.78
621.192	24.73
621.609	24.69
622.026	24.64
622.442	24.59
622.859	24.54
623.275	24.51
623.691	24.47
624.108	24.45
624.524	24.41
624.94	24.38
625.356	24.35
625.772	24.33
626.188	24.31
626.604	24.29
627.02	24.28
627.436	24.27
627.852	24.25
628.268	24.23
628.683	24.21
629.099	24.19
629.514	24.16
629.93	24.15
630.345	24.1
630.761	24.05
631.176	24.01
631.591	23.95
632.007	23.89
632.422	23.82
632.837	23.75
633.252	23.67
633.667	23.57
634.082	23.48
634.497	23.36
634.911	23.25
635.326	23.13
635.741	23
636.155	22.86
636.57	22.72
636.984	22.56
637.399	22.38
637.813	22.19
638.228	22.03
638.642	21.86
639.056	21.67
639.47	21.49
639.884	21.3
640.298	21.1
640.712	20.9
641.126	20.71
641.54	20.53
641.954	20.35
642.368	20.16
642.781	19.94
643.195	19.73
643.609	19.56
644.022	19.37
644.436	19.18
644.849	19
645.262	18.83
645.676	18.63
646.089	18.45
646.502	18.27
646.915	18.11
647.328	17.98
647.741	17.82
648.154	17.69
648.567	17.59
648.98	17.48
649.393	17.36
649.805	17.25
650.218	17.17
650.631	17.06
651.043	16.97
651.456	16.88
651.868	16.78
652.28	16.68
652.693	16.55
653.105	16.44
653.517	16.31
653.929	16.19
654.341	16.07
654.753	15.93
655.165	15.79
655.577	15.64
655.989	15.48
656.401	15.31
656.813	15.13
657.224	14.97
657.636	14.8
658.047	14.63
658.459	14.46
658.87	14.27
659.282	14.1
659.693	13.92
660.104	13.73
660.515	13.55
660.926	13.38
661.338	13.22
661.749	13.04
662.159	12.85
662.57	12.69
662.981	12.52
663.392	12.36
663.803	12.21
664.213	12.08
664.624	11.96
665.035	11.83
665.445	11.73
665.855	11.61
666.266	11.51
666.676	11.41
667.086	11.33
667.497	11.25
667.907	11.18
668.317	11.11
668.727	11.05
669.137	10.98
669.547	10.94
669.956	10.89
670.366	10.87
670.776	10.83
671.186	10.81
671.595	10.8
672.005	10.78
672.414	10.76
672.824	10.76
673.233	10.76
673.642	10.76
674.052	10.76
674.461	10.77
674.87	10.79
675.279	10.8
675.688	10.83
676.097	10.84
676.506	10.88
676.915	10.91
677.323	10.95
677.732	10.99
678.141	11.06
678.549	11.13
678.958	11.21
679.366	11.28
679.775	11.38
680.183	11.48
680.592	11.61
681	11.75
681.408	11.92
681.816	12.1
682.224	12.3
682.632	12.55
683.04	12.79
683.448	13.07
683.856	13.38
684.264	13.74
684.671	14.15
685.079	14.58
685.487	15.06
685.894	15.55
686.302	16.1
686.709	16.67
687.116	17.28
687.524	17.94
687.931	18.63
688.338	19.35
688.745	20.1
689.152	20.9
689.559	21.7
689.966	22.52
690.373	23.41
690.78	24.28
691.187	25.19
691.593	26.1
692	27.02
692.407	27.94
692.813	28.89
693.22	29.79
693.626	30.7
694.032	31.62
694.439	32.54
694.845	33.42
695.251	34.3
695.657	35.16
696.063	36.02
696.469	36.88
696.875	37.69
697.281	38.5
697.687	39.37
698.093	40.14
698.498	40.95
698.904	41.73
699.31	42.46
699.715	43.2
700.12	43.89
700.526	44.61
700.931	45.28
701.337	45.98
701.742	46.6
702.147	47.22
702.552	47.85
702.957	48.46
703.362	49.05
703.767	49.64
704.172	50.2
704.577	50.78
704.981	51.29
705.386	51.79
705.791	52.28
706.195	52.81
706.6	53.28
707.004	53.76
707.408	54.21
707.813	54.66
708.217	55.12
708.621	55.55
709.025	55.98
709.43	56.4
709.834	56.87
710.237	57.26
710.641	57.65
711.045	57.99
711.449	58.33
711.853	58.69
712.256	59.08
712.66	59.41
713.064	59.73
713.467	60.04
713.87	60.35
714.274	60.63
714.677	60.96
715.08	61.22
715.484	61.57
715.887	61.89
716.29	62.15
716.693	62.37
717.096	62.64
717.499	62.95
717.901	63.2
718.304	63.48
718.707	63.74
719.109	64.03
719.512	64.32
719.915	64.56
720.317	64.76
720.719	64.98
721.122	65.24
721.524	65.46
721.926	65.67
722.328	65.88
722.731	66.09
723.133	66.3
723.535	66.46
723.937	66.62
724.338	66.76
724.74	66.93
725.142	67.06
725.544	67.2
725.945	67.34
726.347	67.49
726.748	67.59
727.15	67.67
727.551	67.78
727.952	67.88
728.354	68.05
728.755	68.18
729.156	68.35
729.557	68.57
729.958	68.68
730.359	68.78
730.76	68.85
731.161	68.98
731.562	69.08
731.962	69.17
732.363	69.28
732.763	69.35
733.164	69.42
733.564	69.43
733.965	69.43
734.365	69.46
734.766	69.53
735.166	69.56
735.566	69.57
735.966	69.6
736.366	69.61
736.766	69.61
737.166	69.62
737.566	69.64
737.966	69.67
738.365	69.72
738.765	69.77
739.165	69.74
739.564	69.82
739.964	69.88
740.363	69.93
740.763	69.98
741.162	70.03
741.561	70.09
741.96	70.14
742.36	70.19
742.759	70.19
743.158	70.19
743.557	70.24
743.955	70.32
744.354	70.36
744.753	70.38
745.152	70.39
745.55	70.42
745.949	70.42
746.348	70.47
746.746	70.48
747.144	70.54
747.543	70.58
747.941	70.67
748.339	70.66
748.737	70.69
749.136	70.71
749.534	70.78
749.932	70.79
750.33	70.81
750.727	70.79
751.125	70.81
751.523	70.76
751.921	70.79
752.318	70.76
752.716	70.74
753.113	70.7
753.511	70.68
753.908	70.66
754.305	70.64
754.703	70.62
755.1	70.64
755.497	70.63
755.894	70.68
756.291	70.62
756.688	70.6
757.085	70.59
757.482	70.6
757.878	70.63
758.275	70.62
758.672	70.64
759.068	70.65
759.465	70.62
759.861	70.59
760.258	70.53
760.654	70.54
761.05	70.55
761.447	70.53
761.843	70.5
762.239	70.46
762.635	70.46
763.031	70.38
763.427	70.32
763.822	70.26
764.218	70.27
764.614	70.31
765.01	70.29
765.405	70.26
765.801	70.26
766.196	70.26
766.592	70.23
766.987	70.22
767.382	70.28
767.778	70.33
768.173	70.37
768.568	70.32
768.963	70.26
769.358	70.26
769.753	70.3
770.148	70.3
770.542	70.25
770.937	70.26
771.332	70.25
771.726	70.22
772.121	70.15
772.515	70.15
772.91	70.22
773.304	70.22
773.699	70.2
774.093	70.16
774.487	70.15
774.881	70.19
775.275	70.23
775.669	70.24
776.063	70.24
776.457	70.24
776.851	70.2
777.245	70.18
777.638	70.2
778.032	70.21
778.425	70.23
778.819	70.26
779.212	70.24
779.606	70.24
779.999	70.2
780.392	70.22
780.786	70.23
781.179	70.27
781.572	70.23
781.965	70.25
782.358	70.24
782.751	70.2
783.143	70.18
783.536	70.25
783.929	70.26
784.322	70.32
784.714	70.33
785.107	70.37
785.499	70.4
785.891	70.44
786.284	70.42
786.676	70.47
787.068	70.47
787.46	70.47
787.852	70.42
788.245	70.41
788.636	70.37
789.028	70.36
789.42	70.33
789.812	70.33
790.204	70.3
790.595	70.34
790.987	70.34
791.378	70.35
791.77	70.39
792.161	70.4
792.553	70.39
792.944	70.43
793.335	70.45
793.726	70.43
794.117	70.4
794.508	70.42
794.899	70.41
795.29	70.4
795.681	70.39
796.072	70.37
796.463	70.36
796.853	70.37
797.244	70.34
797.634	70.33
798.025	70.33
798.415	70.35
798.806	70.35
799.196	70.35
799.586	70.35
799.976	70.37
800.366	70.4
800.756	70.39
801.146	70.39
801.536	70.42
801.926	70.4
802.316	70.46
802.706	70.48
803.095	70.52
803.485	70.54
803.874	70.57
804.264	70.61
804.653	70.53
805.043	70.56
805.432	70.55
805.821	70.53
806.21	70.59
806.599	70.62
806.988	70.59
807.377	70.62
807.766	70.59
808.155	70.6
808.544	70.53
808.933	70.59
809.321	70.61
809.71	70.63
810.098	70.65
810.487	70.65
810.875	70.63
811.264	70.68
811.652	70.69
812.04	70.72
812.428	70.74
812.816	70.84
813.204	70.85
813.592	70.85
813.98	70.9
814.368	70.87
814.756	70.88
815.144	70.9
815.531	70.91
815.919	70.92
816.306	70.93
816.694	70.94
817.081	70.89
817.469	70.93
817.856	71
818.243	70.98
818.63	71.08
819.017	71.08
819.404	71.05
819.791	71.04
820.178	71.04
820.565	71.05
820.952	71.07
821.339	71.17
821.725	71.19
822.112	71.15
822.498	71.14
822.885	71.11
823.271	71.14
823.657	71.16
824.044	71.18
824.43	71.22
824.816	71.23
825.202	71.22
825.588	71.16
825.974	71.15
826.36	71.19
826.746	71.24
827.132	71.21
827.517	71.2
827.903	71.19
828.289	71.18
828.674	71.14
829.06	71.15
829.445	71.14
829.83	71.14
830.216	71.14
830.601	71.12
830.986	71.11
831.371	71.16
831.756	71.12
832.141	71.15
832.526	71.13
832.911	71.16
833.295	71.17
833.68	71.17
834.065	71.15
834.449	71.1
834.834	71.08
835.218	71.03
835.603	71
835.987	70.99
836.371	70.96
836.755	70.98
837.139	70.94
837.524	70.92
837.908	70.89
838.291	70.89
838.675	70.93
839.059	70.94
839.443	70.93
839.827	70.93
840.21	70.97
840.594	70.97
840.977	70.94
841.361	70.95
841.744	70.98
842.127	70.96
842.511	70.94
842.894	70.92
843.277	70.92
843.66	70.89
844.043	70.91
844.426	70.89
844.809	70.86
845.191	70.83
845.574	70.81
845.957	70.74
846.339	70.75
846.722	70.79
847.104	70.77
847.487	70.73
847.869	70.75
848.252	70.74
848.634	70.74
849.016	70.79
849.398	70.81
849.78	70.83
850.162	70.86
850.544	70.9
850.926	70.83
851.307	70.86
851.689	70.84
852.071	70.83
852.452	70.82
852.834	70.77
853.215	70.76
853.597	70.75
853.978	70.73
854.359	70.71
854.741	70.71
855.122	70.76
855.503	70.76
855.884	70.79
856.265	70.77
856.646	70.76
857.026	70.8
857.407	70.76
857.788	70.81
858.169	70.81
858.549	70.83
858.93	70.79
859.31	70.73
859.69	70.7
860.071	70.66
860.451	70.69
860.831	70.69
861.211	70.68
861.591	70.68
861.971	70.63
862.351	70.62
862.731	70.59
863.111	70.62
863.491	70.63
863.87	70.67
864.25	70.7
864.629	70.71
865.009	70.7
865.388	70.68
865.768	70.67
866.147	70.69
866.526	70.69
866.905	70.7
867.284	70.7
867.663	70.69
868.042	70.65
868.421	70.63
868.8	70.64
869.179	70.65
869.558	70.67
869.936	70.66
870.315	70.63
870.693	70.62
871.072	70.62
871.45	70.59
871.828	70.61
872.207	70.64
872.585	70.63
872.963	70.61
873.341	70.61
873.719	70.6
874.097	70.61
874.475	70.63
874.853	70.63
875.23	70.61
875.608	70.65
875.986	70.62
876.363	70.6
876.741	70.59
877.118	70.57
877.495	70.56
877.873	70.57
878.25	70.53
878.627	70.54
879.004	70.51
879.381	70.54
879.758	70.46
880.135	70.46
880.512	70.47
880.889	70.47
881.265	70.5
881.642	70.5
882.019	70.5
882.395	70.54
882.772	70.51
883.148	70.5
883.524	70.48
883.901	70.51
884.277	70.52
884.653	70.52
885.029	70.51
885.405	70.47
885.781	70.44
886.157	70.42
886.532	70.39
886.908	70.42
887.284	70.45
887.659	70.47
888.035	70.46
888.411	70.43
888.786	70.42
889.161	70.43
889.537	70.46
889.912	70.46
890.287	70.44
890.662	70.45
891.037	70.42
891.412	70.38
891.787	70.32
892.162	70.28
892.536	70.27
892.911	70.23
893.286	70.18
893.66	70.15
894.035	70.1
894.409	70.08
894.784	70.04
895.158	70.02
895.532	69.99
895.906	69.99
896.281	70
896.655	70
897.029	70
897.402	70.02
897.776	70
898.15	70.01
898.524	70
898.898	69.98
899.271	69.97
899.645	69.93
900.018	69.92
900.392	69.92
900.765	69.93
901.138	69.93
901.511	69.91
901.884	69.92
902.258	69.89
902.631	69.86
903.003	69.86
903.376	69.86
903.749	69.92
904.122	69.95
904.495	69.93
904.867	69.87
905.24	69.87
905.612	69.85
905.985	69.8
906.357	69.79
906.729	69.79
907.102	69.79
907.474	69.79
907.846	69.75
908.218	69.72
908.59	69.69
908.962	69.69
909.334	69.68
909.705	69.69
910.077	69.69
910.449	69.77
910.82	69.78
911.192	69.77
911.563	69.74
911.935	69.74
912.306	69.76
912.677	69.79
913.048	69.78
913.419	69.78
913.79	69.74
914.161	69.76
914.532	69.69
914.903	69.67
915.274	69.62
915.645	69.63
916.015	69.65
916.386	69.56
916.756	69.51
917.127	69.51
917.497	69.46
917.868	69.44
918.238	69.41
918.608	69.4
918.978	69.36
919.348	69.34
919.718	69.32
920.088	69.3
920.458	69.37
920.828	69.39
921.198	69.35
921.567	69.34
921.937	69.37
922.306	69.33
922.676	69.33
923.045	69.34
923.415	69.34
923.784	69.35
924.153	69.32
924.522	69.25
924.891	69.22
925.26	69.2
925.629	69.18
925.998	69.16
926.367	69.18
926.736	69.16
927.104	69.18
927.473	69.19
927.842	69.12
928.21	69.15
928.578	69.13
928.947	69.11
929.315	69.13
929.683	69.14
930.051	69.13
930.42	69.12
930.788	69.11
931.156	69.03
931.523	68.98
931.891	68.95
932.259	68.85
932.627	68.75
932.994	68.69
933.362	68.6
933.729	68.49
934.097	68.41
934.464	68.32
934.831	68.18
935.199	68.1
935.566	67.99
935.933	67.94
936.3	67.8
936.667	67.75
937.034	67.68
937.401	67.57
937.767	67.53
938.134	67.4
938.501	67.33
938.867	67.39
939.234	67.42
939.6	67.44
939.967	67.43
940.333	67.56
940.699	67.72
941.065	67.88
941.431	68.08
941.798	68.22
942.163	68.43
942.529	68.62
942.895	68.59
943.261	68.74
943.627	68.82
943.992	68.9
944.358	68.93
944.723	68.92
945.089	68.89
945.454	68.92
945.82	68.95
946.185	68.96
946.55	68.99
946.915	69.06
947.28	68.95
947.645	68.96
948.01	68.91
948.375	68.94
948.74	68.89
949.104	68.91
949.469	68.87
949.834	68.74
950.198	68.68
950.562	68.57
950.927	68.51
951.291	68.49
951.655	68.46
952.02	68.48
952.384	68.47
952.748	68.48
953.112	68.48
953.476	68.41
953.839	68.38
954.203	68.28
954.567	68.21
954.931	68.2
955.294	68.21
955.658	68.14
956.021	68.03
956.385	67.99
956.748	67.96
957.111	67.86
957.474	67.9
957.837	67.99
958.2	67.96
958.563	67.96
958.926	67.97
959.289	67.99
959.652	67.99
960.015	68.05
960.377	68.04
960.74	67.95
961.102	67.98
961.465	67.93
961.827	67.79
962.189	67.83
962.552	67.81
962.914	67.65
963.276	67.54
963.638	67.53
964	67.5
964.362	67.4
964.724	67.43
965.085	67.37
965.447	67.22
965.809	67.2
966.17	67.16
966.532	67.12
966.893	67.13
967.255	67.06
967.616	67.03
967.977	67.05
968.338	67.01
968.699	67.02
969.061	66.97
969.421	67.04
969.782	67.06
970.143	67.01
970.504	66.98
970.865	66.9
971.225	66.92
971.586	66.98
971.946	66.88
972.307	66.97
972.667	66.94
973.027	66.98
973.388	67
973.748	67.05
974.108	67.01
974.468	66.99
974.828	67.11
975.188	67.15
975.548	67.04
975.907	67.05
976.267	66.99
976.627	66.94
976.986	66.98
977.346	66.87
977.705	66.75
978.064	66.8
978.424	66.8
978.783	66.73
979.142	66.63
979.501	66.6
979.86	66.57
980.219	66.48
980.578	66.44
980.937	66.37
981.296	66.53
981.654	66.69
982.013	66.68
982.371	66.71
982.73	66.74
983.088	66.71
983.447	66.84
983.805	66.84
984.163	66.81
984.521	66.66
984.879	66.73
985.237	66.56
985.595	66.52
985.953	66.46
986.311	66.5
986.669	66.62
987.026	66.73
987.384	66.55
987.741	66.61
988.099	66.71
988.456	66.79
988.814	66.69
989.171	66.75
989.528	66.6
989.885	66.73
990.242	66.74
990.599	66.57
990.956	66.51
991.313	66.66
991.67	66.6
992.027	66.58
992.383	66.71
992.74	66.62
993.096	66.6
993.453	66.61
993.809	66.5
994.165	66.51
994.522	66.47
994.878	66.38
995.234	66.25
995.59	66.14
995.946	66.09
996.302	65.91
996.658	65.97
997.013	65.88
997.369	65.94
997.725	65.95
998.08	65.85
998.436	65.94
998.791	65.95
999.147	65.91
999.502	66.02
999.857	66.03
1000.212	66.07
1000.567	66.06
1000.922	66.18
1001.277	65.99
1001.632	65.95
1001.987	66.01
1002.342	65.89
1002.696	65.96
1003.051	65.85
1003.406	65.75
1003.76	65.82
1004.114	65.92
1004.469	65.83
1004.823	65.79
1005.177	65.96
1005.531	65.8
1005.885	65.8
1006.239	65.75
1006.593	65.66
1006.947	65.82
1007.301	65.71
1007.655	65.67
1008.008	65.49
1008.362	65.6
1008.715	65.64
1009.069	65.44
1009.422	65.46
1009.776	65.29
1010.129	65.12
1010.482	65.31
1010.835	65.4
1011.188	65.46
1011.541	65.35
1011.894	65.31
1012.247	65.24
1012.6	64.95
1012.952	65.18
1013.305	65.14
1013.657	65.22
1014.01	65.43
1014.362	65.32
1014.715	65.13
1015.067	65.3
1015.419	65.42
1015.771	65.82
1016.123	65.86
1016.475	65.93
1016.827	65.9
1017.179	66.1
1017.531	65.99
1017.883	66.4
1018.234	66.46
1018.586	66.63
1018.938	66.45
1019.289	66.26
1019.64	66.03
1019.992	65.96
1020.343	66.05
1020.694	65.85
1021.045	65.7
1021.396	65.85
1021.747	65.37
1022.098	65.48
1022.449	65.35
1022.8	65.37
1023.151	65.38
1023.501	65.33
1023.852	65.68
1024.202	65.61
1024.553	65.49
1024.903	65.55
1025.253	65.5
1025.604	65.58
1025.954	65.06
1026.304	65.22
1026.654	65.29
1027.004	65.54
1027.354	65.51
1027.703	64.99
1028.053	64.72
1028.403	65.19
1028.753	65.4
1029.102	65.36
1029.452	65.4
1029.801	65.66
1030.15	65.55
1030.499	65.56
897.758	643.79
901.051	648.61
904.343	660.99
907.636	650.57
910.928	639.7
914.22	653.28
917.511	638.65
920.803	609.46
924.094	587.21
927.384	590.35
930.675	571.49
933.965	567.45
937.255	571.22
940.544	544.32
943.834	519.41
947.123	511.49
950.411	483.57
953.7	476.03
956.988	465.15
960.276	438.3
963.563	434.05
966.851	411.48
970.138	405.09
973.424	376.15
976.711	369.8
979.997	360.84
983.283	353.14
986.568	341.89
989.853	332.22
993.138	321.35
996.423	319.75
999.708	309.24
1002.992	311.59
1006.275	300.72
1009.559	299.62
1012.842	290.99
1016.125	280.85
1019.408	276.01
1022.69	273.96
1025.972	272.44
1029.254	264.22
1032.536	260.3
1035.817	254.1
1039.098	249.74
1042.379	244.69
1045.659	240.77
1048.939	238.79
1052.219	234.83
1055.498	230.51
1058.778	225.97
1062.057	221.55
1065.335	221.18
1068.614	217.35
1071.892	213.43
1075.17	209.85
1078.447	207.42
1081.724	206.25
1085.001	202.64
1088.278	201.97
1091.554	201.24
1094.83	200.27
1098.106	197.1
1101.382	195.25
1104.657	195.57
1107.932	194.77
1111.206	193.65
1114.481	192.34
1117.755	189.54
1121.029	189.7
1124.302	186.91
1127.575	183.03
1130.848	182.17
1134.121	180.59
1137.393	180.38
1140.665	178.01
1143.937	175.96
1147.208	174.18
1150.48	172.16
1153.75	171.81
1157.021	169.57
1160.291	169.18
1163.561	169.48
1166.831	167.92
1170.101	167.58
1173.37	166.44
1176.639	164.84
1179.907	165.99
1183.176	164.68
1186.444	164.73
1189.711	163.92
1192.979	165.22
1196.246	165.65
1199.513	164.33
1202.78	165.25
1206.046	165.36
1209.312	165.56
1212.578	166.58
1215.843	168.24
1219.108	168.9
1222.373	171.82
1225.638	173.96
1228.902	177.64
1232.166	182.61
1235.43	186.44
1238.693	189.62
1241.956	194.71
1245.219	200.59
1248.482	202.46
1251.744	201.42
1255.006	201.97
1258.268	197.43
1261.529	196.58
1264.79	191.37
1268.051	187.78
1271.312	185.65
1274.572	183.5
1277.832	177.73
1281.092	175.07
1284.351	171.44
1287.61	171.07
1290.869	171.79
1294.128	171.01
1297.386	169.6
1300.644	169.58
1303.902	167.85
1307.159	166.33
1310.416	167.05
1313.673	170.04
1316.93	171.06
1320.186	173.98
1323.442	176.11
1326.697	178.46
1329.953	179.41
1333.208	186.18
1336.463	192.81
1339.717	197.26
1342.972	206.48
1346.226	212.35
1349.479	213.42
1352.733	222.49
1355.986	226.49
1359.238	231.2
1362.491	232.43
1365.743	242.24
1368.995	242.16
1372.247	238.61
1375.498	237.52
1378.749	245.37
1382	244.33
1385.251	243.16
1388.501	243.36
1391.751	246.27
1395	244
1398.25	247.09
1401.499	245.31
1404.748	245.3
1407.996	242.21
1411.244	243.14
1414.492	238.87
1417.74	231.99
1420.987	227.77
1424.234	222.05
1427.481	213.89
1430.728	209.26
1433.974	201.97
1437.22	195.02
1440.465	188.57
1443.711	183.77
1446.956	178.25
1450.201	171.85
1453.445	164.06
1456.689	159.21
1459.933	154.97
1463.177	148.97
1466.42	145.58
1469.663	141.96
1472.906	138.41
1476.148	134.26
1479.391	131.79
1482.633	129.88
1485.874	127.37
1489.115	126.67
1492.356	124.85
1495.597	123.12
1498.838	122.48
1502.078	121.74
1505.318	121.25
1508.557	120.2
1511.797	119.4
1515.036	119.04
1518.274	118.46
1521.513	117.46
1524.751	116.79
1527.989	117.5
1531.227	116.97
1534.464	116.86
1537.701	115.91
1540.938	115.08
1544.174	115.19
1547.41	115.62
1550.646	115.11
1553.882	114.63
1557.117	114.46
1560.352	113.92
1563.587	112.9
1566.821	112.84
1570.055	111.9
1573.289	111.73
1576.523	112.33
1579.756	112.05
1582.989	112.03
1586.222	111.77
1589.454	111.75
1592.686	112.17
1595.918	112.31
1599.15	111.92
1602.381	112.41
1605.612	112.78
1608.843	112.91
1612.073	112.88
1615.303	112.91
1618.533	112.52
1621.762	112.91
1624.992	113.02
1628.221	112.44
1631.449	112.97
1634.678	112.9
1637.906	112.68
1641.134	113.31
1644.361	113.07
1647.588	112.88
1650.815	113.24
1654.042	113.05
1657.269	112.93
1660.495	113.52
1663.72	113.34
1666.946	113.71
1670.171	114.47
1673.396	115.23
1676.621	114.97
1679.845	115.15
1683.069	115.26
1686.293	115.05
1689.517	115.61
1692.74	116.1
1695.963	115.79
1699.185	116.71
1702.408	116.11
1705.63	115.96
1708.852	116.16
1712.073	115.85
1715.294	116.11
1718.515	116.7
1721.736	116.88
1724.956	116.85
1728.176	116.56
1731.396	117.51
1734.616	117.21
1737.835	117.61
1741.054	118.19
1744.272	117.53
1747.491	118.02
1750.709	118.39
1753.927	118.39
1757.144	118.55
1760.361	119.05
1763.578	119.47
1766.795	119.4
1770.011	119.59
1773.227	120.14
1776.443	120.37
1779.658	121.05
1782.874	122.39
1786.089	122.81
1789.303	122.83
1792.518	123.69
1795.732	124.56
1798.945	126.09
1802.159	126
1805.372	127.8
1808.585	128.26
1811.797	129.77
1815.01	130.39
1818.222	130.66
1821.434	131.17
1824.645	132.15
1827.856	133.85
1831.067	133.8
1834.278	134.81
1837.488	136.71
1840.698	137.96
1843.908	138.51
1847.117	139.43
1850.326	140.42
1853.535	140.66
1856.744	141.77
1859.952	143.86
1863.16	143.94
1866.368	143.25
1869.575	144.34
1872.782	142.42
1875.989	140.17
1879.196	139.82
1882.402	138.9
1885.608	139.33
1888.814	139
1892.019	139.79
1895.224	136.68
1898.429	136.52
1901.634	138.04
1904.838	137.48
1908.042	138.43
1911.246	138.07
1914.449	138.76
1917.652	137.96
1920.855	138.19
1924.058	137.32
1927.26	136.53
1930.462	137.68
1933.664	137.57
1936.865	136.79
1940.066	133.97
1943.267	135.03
1946.467	136.94
1949.668	136.56
1952.868	137.06
1956.067	136.31
1959.267	137.33
1962.466	138.18
1965.665	139.49
1968.863	139.92
1972.061	142.01
1975.259	145.26
1978.457	144.79
1981.654	146.5
1984.852	147.96
1988.048	150.06
1991.245	152.55
1994.441	155.54
1997.637	158.29
2000.833	161.37
2004.028	163.59
2007.223	168.04
2010.418	171.58
2013.613	179.4
2016.807	183.72
2020.001	187.57
2023.194	191.65
2026.388	197.98
2029.581	207.11
2032.774	213.89
2035.966	218.39
2039.158	225.86
2042.35	228.9
2045.542	233.05
2048.733	241.4
2051.924	245.08
2055.115	248
2058.306	250.72
2061.496	256.33
2064.686	255.94
2067.875	253.34
2071.065	257.98
2074.254	257.47
2077.442	265.57
2080.631	267.67
2083.819	268.62
2087.007	272.54
2090.195	278.4
2093.382	278.82
2096.569	278.11
2099.756	285.37
2102.942	292.52
2106.128	298.13
2109.314	299.39
2112.5	298.14
2115.685	296.05
2118.87	296.67
2122.055	299.09
2125.239	304.61
2128.424	312.09
2131.608	310.71
2134.791	307.34
2137.974	309.77
2141.157	310.09
2144.34	313.62
2147.523	321.13
2150.705	330.59
2153.887	327.86
2157.068	330.24
2160.25	333.9
2163.431	330.25
2166.611	336.63
2169.792	343.19
2172.972	348.37
2176.152	349.62
2179.331	357.19
2182.511	355.89
2185.69	360.59
2188.868	373.26
2192.047	383.03
2195.225	385.69
2198.403	395.23
2201.58	391.16
2204.758	406.08
2207.935	406.59
2211.111	414.05
2214.288	415.62
2217.464	420.84
2220.64	422.34
2223.815	423.37
2226.991	416.13
2230.166	420.71
2233.34	433.14
2236.515	441.4
2239.689	434.64
2242.863	441.55
2246.036	437.84
2249.209	450.21
2252.382	447.42
2255.555	462.31
2258.727	465.1
2261.9	480.62
2265.071	485.88
2268.243	478.96
2271.414	497.65
2274.585	505.9
2277.756	509.05
2280.926	528.38
2284.096	528.42
2287.266	532.09
2290.436	523.43
2293.605	534.41
2296.774	551.65
2299.942	551.51
2303.111	575.1
2306.279	581.73
2309.447	585.06
2312.614	581.8
2315.781	601.46
2318.948	604.46
2322.115	618.21
2325.281	650.21
2328.447	645.11
2331.613	645.61
2334.779	659
2337.944	657.57
2341.109	670.86
2344.274	678.3
2347.438	698.71
2350.602	705.3
2353.766	747.47
2356.929	750.09
2360.092	758.07
2363.255	764.03
2366.418	776.96
2369.58	792.75
2372.742	798.89
2375.904	795.34
2379.066	816.04
2382.227	861.74
2385.388	857.7
2388.548	820
2391.709	811.37
2394.869	839.18
2398.029	842.67
2401.188	835.78
2404.347	865.29
2407.506	891.65
2410.665	861.59
2413.823	861.3
2416.981	861.51
2420.139	820.49
2423.296	888.57
2426.453	942.91
2429.61	893.01
2432.767	954.71
2435.923	993.5
2439.079	941.67
2442.235	962.21
2445.391	983.06
2448.546	977.12
2451.701	1035.13
2454.855	1101.65
2458.009	974.04
2461.163	995.16
2464.317	1008.64
2467.471	986.16
2470.624	1014.74
2473.777	1009.75
2476.929	975.3
2480.082	1039.8
2483.234	1097.02
2486.385	1103.36
2489.537	1134.39
2492.688	1247.31
2495.839	1221.5
2498.989	1263.29
2502.14	1263.9
2505.29	1215.44
2508.439	1339.8
2511.589	1384.6
2514.738	1338.4
2517.887	1317.81
2521.035	1239.75
2524.183	1211.87
2527.331	1201.83
2530.479	1173.79
2533.627	1195.91
