Data from N_2_div_pa_2n_085_Splice17_18.txt Node
Date: Sat Feb 29 14:14:31 EST 2020
User: sa697716
Spectrometer: FLMS03696
Trigger mode: 0
Integration Time (sec): 3.180400E-1
Scans to average: 20
Electric dark correction enabled: true
Nonlinearity correction enabled: true
Boxcar width: 5
XAxis mode: Wavelengths
Number of Pixels in Spectrum: 2048
>>>>>Begin Spectral Data<<<<<
187.83	66.49
188.298	53.89
188.766	50.43
189.233	45.34
189.701	48.62
190.169	59.21
190.636	46.9
191.104	20.11
191.571	-148.97
192.039	154.75
192.506	-206.34
192.974	2907.37
193.441	294.5
193.908	-4.4
194.375	-31.25
194.842	8.75
195.31	24.5
195.777	-12.6
196.244	12.51
196.711	31.9
197.177	33.22
197.644	33.05
198.111	32.87
198.578	33.28
199.045	34.3
199.511	33.89
199.978	33.85
200.445	34.12
200.911	34.34
201.378	34.61
201.844	35.04
202.31	35.42
202.777	35.68
203.243	36.05
203.709	36.32
204.176	35.62
204.642	35.69
205.108	35.73
205.574	36.2
206.04	36.41
206.506	36.35
206.972	36.01
207.438	35.89
207.903	36.04
208.369	35.23
208.835	34.69
209.301	34.79
209.766	34.83
210.232	34.57
210.697	33.86
211.163	33.06
211.628	32.47
212.094	31.69
212.559	31.06
213.024	30.36
213.49	29.89
213.955	29.62
214.42	28.9
214.885	27.88
215.35	26.9
215.815	25.68
216.28	24.7
216.745	23.49
217.21	22.22
217.675	21.01
218.14	19.74
218.604	18.64
219.069	17.67
219.534	16.82
219.998	16.22
220.463	15.67
220.927	15.24
221.392	14.76
221.856	14.36
222.32	14.03
222.785	13.69
223.249	13.44
223.713	13.27
224.177	13.04
224.642	12.86
225.106	12.64
225.57	12.43
226.034	12.26
226.497	12.08
226.961	11.92
227.425	11.73
227.889	11.59
228.353	11.41
228.816	11.23
229.28	11.05
229.744	10.93
230.207	10.79
230.671	10.67
231.134	10.52
231.597	10.4
232.061	10.28
232.524	10.2
232.987	10.09
233.45	9.99
233.914	9.92
234.377	9.84
234.84	9.74
235.303	9.66
235.766	9.58
236.229	9.51
236.691	9.44
237.154	9.35
237.617	9.25
238.08	9.17
238.542	9.08
239.005	8.99
239.468	8.92
239.93	8.84
240.393	8.77
240.855	8.69
241.317	8.61
241.78	8.57
242.242	8.51
242.704	8.45
243.166	8.39
243.629	8.35
244.091	8.31
244.553	8.25
245.015	8.2
245.477	8.14
245.939	8.1
246.4	8.04
246.862	7.98
247.324	7.93
247.786	7.89
248.247	7.85
248.709	7.81
249.17	7.75
249.632	7.71
250.093	7.64
250.555	7.61
251.016	7.57
251.477	7.52
251.939	7.47
252.4	7.44
252.861	7.4
253.322	7.35
253.783	7.33
254.244	7.29
254.705	7.26
255.166	7.24
255.627	7.21
256.088	7.16
256.549	7.13
257.009	7.11
257.47	7.08
257.931	7.04
258.391	6.99
258.852	6.94
259.312	6.91
259.773	6.87
260.233	6.84
260.694	6.8
261.154	6.77
261.614	6.73
262.074	6.69
262.534	6.64
262.994	6.62
263.455	6.59
263.915	6.55
264.374	6.51
264.834	6.49
265.294	6.45
265.754	6.42
266.214	6.39
266.673	6.37
267.133	6.34
267.593	6.32
268.052	6.28
268.512	6.26
268.971	6.24
269.431	6.22
269.89	6.19
270.349	6.17
270.809	6.16
271.268	6.14
271.727	6.12
272.186	6.1
272.645	6.08
273.104	6.07
273.563	6.06
274.022	6.05
274.481	6.02
274.94	6.01
275.399	5.99
275.857	5.97
276.316	5.94
276.775	5.92
277.233	5.9
277.692	5.88
278.15	5.85
278.609	5.83
279.067	5.8
279.525	5.78
279.984	5.76
280.442	5.75
280.9	5.74
281.358	5.72
281.816	5.7
282.274	5.68
282.732	5.68
283.19	5.67
283.648	5.67
284.106	5.65
284.564	5.65
285.021	5.63
285.479	5.63
285.937	5.61
286.394	5.59
286.852	5.59
287.309	5.58
287.767	5.56
288.224	5.54
288.682	5.53
289.139	5.53
289.596	5.51
290.053	5.5
290.511	5.48
290.968	5.47
291.425	5.46
291.882	5.44
292.339	5.43
292.796	5.41
293.252	5.4
293.709	5.38
294.166	5.36
294.623	5.35
295.079	5.34
295.536	5.32
295.992	5.31
296.449	5.3
296.905	5.29
297.362	5.27
297.818	5.27
298.274	5.27
298.731	5.26
299.187	5.25
299.643	5.24
300.099	5.24
300.555	5.22
301.011	5.23
301.467	5.21
301.923	5.2
302.379	5.2
302.835	5.2
303.291	5.18
303.746	5.17
304.202	5.16
304.658	5.15
305.113	5.13
305.569	5.13
306.024	5.12
306.479	5.13
306.935	5.12
307.39	5.12
307.845	5.12
308.301	5.12
308.756	5.12
309.211	5.12
309.666	5.12
310.121	5.12
310.576	5.12
311.031	5.11
311.486	5.11
311.94	5.11
312.395	5.11
312.85	5.11
313.305	5.11
313.759	5.12
314.214	5.12
314.668	5.13
315.123	5.13
315.577	5.13
316.032	5.13
316.486	5.13
316.94	5.12
317.394	5.1
317.849	5.1
318.303	5.08
318.757	5.07
319.211	5.05
319.665	5.04
320.119	5.03
320.572	5.03
321.026	5.01
321.48	5.01
321.934	5
322.387	5
322.841	4.99
323.295	4.99
323.748	4.98
324.202	4.99
324.655	4.98
325.108	4.97
325.562	4.95
326.015	4.94
326.468	4.93
326.921	4.92
327.374	4.91
327.827	4.91
328.28	4.89
328.733	4.89
329.186	4.88
329.639	4.87
330.092	4.86
330.545	4.86
330.997	4.87
331.45	4.87
331.903	4.87
332.355	4.87
332.808	4.86
333.26	4.88
333.713	4.88
334.165	4.88
334.617	4.9
335.069	4.89
335.522	4.9
335.974	4.9
336.426	4.9
336.878	4.9
337.33	4.9
337.782	4.9
338.234	4.9
338.686	4.89
339.137	4.89
339.589	4.88
340.041	4.88
340.493	4.86
340.944	4.86
341.396	4.86
341.847	4.85
342.299	4.84
342.75	4.82
343.201	4.81
343.653	4.79
344.104	4.78
344.555	4.76
345.006	4.75
345.457	4.74
345.908	4.74
346.359	4.74
346.81	4.74
347.261	4.73
347.712	4.73
348.163	4.72
348.613	4.72
349.064	4.71
349.515	4.71
349.965	4.69
350.416	4.69
350.866	4.69
351.317	4.68
351.767	4.67
352.217	4.66
352.668	4.65
353.118	4.66
353.568	4.66
354.018	4.67
354.468	4.67
354.918	4.68
355.368	4.68
355.818	4.66
356.268	4.67
356.718	4.67
357.168	4.66
357.617	4.67
358.067	4.67
358.517	4.66
358.966	4.66
359.416	4.68
359.865	4.69
360.315	4.69
360.764	4.71
361.213	4.71
361.663	4.71
362.112	4.72
362.561	4.72
363.01	4.72
363.459	4.72
363.908	4.72
364.357	4.72
364.806	4.71
365.255	4.71
365.703	4.72
366.152	4.72
366.601	4.72
367.05	4.72
367.498	4.73
367.947	4.72
368.395	4.73
368.844	4.73
369.292	4.73
369.74	4.75
370.189	4.75
370.637	4.75
371.085	4.76
371.533	4.77
371.981	4.78
372.429	4.77
372.877	4.78
373.325	4.78
373.773	4.79
374.221	4.8
374.669	4.79
375.116	4.78
375.564	4.78
376.012	4.77
376.459	4.78
376.907	4.79
377.354	4.79
377.801	4.81
378.249	4.83
378.696	4.83
379.143	4.83
379.591	4.85
380.038	4.86
380.485	4.87
380.932	4.88
381.379	4.88
381.826	4.89
382.273	4.9
382.72	4.9
383.166	4.91
383.613	4.93
384.06	4.94
384.506	4.95
384.953	4.96
385.4	4.98
385.846	4.99
386.292	5.01
386.739	5.01
387.185	5.03
387.631	5.04
388.078	5.07
388.524	5.06
388.97	5.08
389.416	5.07
389.862	5.09
390.308	5.1
390.754	5.11
391.2	5.13
391.645	5.17
392.091	5.18
392.537	5.2
392.983	5.22
393.428	5.26
393.874	5.28
394.319	5.32
394.765	5.34
395.21	5.36
395.655	5.38
396.101	5.41
396.546	5.43
396.991	5.45
397.436	5.46
397.881	5.49
398.326	5.52
398.771	5.57
399.216	5.61
399.661	5.68
400.106	5.73
400.551	5.77
400.995	5.79
401.44	5.82
401.885	5.86
402.329	5.91
402.774	5.94
403.218	5.97
403.663	5.99
404.107	6.03
404.551	6.05
404.995	6.08
405.44	6.12
405.884	6.16
406.328	6.2
406.772	6.25
407.216	6.29
407.66	6.34
408.104	6.38
408.547	6.43
408.991	6.45
409.435	6.48
409.879	6.51
410.322	6.55
410.766	6.58
411.209	6.62
411.653	6.64
412.096	6.67
412.54	6.72
412.983	6.75
413.426	6.79
413.869	6.85
414.312	6.91
414.756	6.97
415.199	7.02
415.642	7.08
416.085	7.13
416.527	7.2
416.97	7.27
417.413	7.29
417.856	7.32
418.298	7.33
418.741	7.35
419.184	7.38
419.626	7.4
420.069	7.41
420.511	7.43
420.953	7.44
421.396	7.45
421.838	7.46
422.28	7.51
422.722	7.56
423.164	7.61
423.606	7.64
424.048	7.66
424.49	7.71
424.932	7.74
425.374	7.75
425.816	7.78
426.258	7.78
426.699	7.76
427.141	7.75
427.582	7.73
428.024	7.75
428.465	7.76
428.907	7.78
429.348	7.77
429.789	7.78
430.231	7.77
430.672	7.77
431.113	7.8
431.554	7.85
431.995	7.86
432.436	7.88
432.877	7.86
433.318	7.85
433.759	7.84
434.2	7.85
434.64	7.86
435.081	7.87
435.522	7.89
435.962	7.89
436.403	7.91
436.843	7.93
437.284	7.96
437.724	7.99
438.164	8.02
438.604	8.05
439.045	8.07
439.485	8.08
439.925	8.1
440.365	8.11
440.805	8.11
441.245	8.09
441.685	8.09
442.125	8.09
442.564	8.11
443.004	8.11
443.444	8.11
443.883	8.11
444.323	8.12
444.762	8.16
445.202	8.2
445.641	8.21
446.081	8.25
446.52	8.26
446.959	8.26
447.398	8.29
447.837	8.32
448.276	8.32
448.716	8.33
449.154	8.34
449.593	8.34
450.032	8.34
450.471	8.35
450.91	8.33
451.349	8.34
451.787	8.35
452.226	8.32
452.664	8.29
453.103	8.28
453.541	8.28
453.98	8.29
454.418	8.26
454.856	8.24
455.295	8.23
455.733	8.21
456.171	8.2
456.609	8.18
457.047	8.18
457.485	8.16
457.923	8.16
458.361	8.14
458.798	8.13
459.236	8.13
459.674	8.13
460.111	8.14
460.549	8.15
460.987	8.15
461.424	8.14
461.862	8.13
462.299	8.14
462.736	8.14
463.173	8.12
463.611	8.12
464.048	8.12
464.485	8.11
464.922	8.08
465.359	8.08
465.796	8.06
466.233	8.07
466.67	8.09
467.106	8.07
467.543	8.08
467.98	8.1
468.416	8.11
468.853	8.13
469.29	8.14
469.726	8.17
470.162	8.15
470.599	8.16
471.035	8.16
471.471	8.14
471.907	8.17
472.344	8.18
472.78	8.17
473.216	8.16
473.652	8.14
474.088	8.15
474.523	8.13
474.959	8.14
475.395	8.14
475.831	8.13
476.266	8.14
476.702	8.14
477.138	8.13
477.573	8.13
478.008	8.13
478.444	8.12
478.879	8.11
479.314	8.1
479.75	8.1
480.185	8.09
480.62	8.08
481.055	8.06
481.49	8.03
481.925	8.01
482.36	7.99
482.795	7.97
483.229	7.96
483.664	7.95
484.099	7.95
484.534	7.93
484.968	7.92
485.403	7.9
485.837	7.89
486.271	7.89
486.706	7.88
487.14	7.88
487.574	7.87
488.009	7.87
488.443	7.86
488.877	7.84
489.311	7.85
489.745	7.85
490.179	7.87
490.613	7.87
491.046	7.88
491.48	7.89
491.914	7.88
492.348	7.89
492.781	7.89
493.215	7.89
493.648	7.91
494.082	7.91
494.515	7.92
494.948	7.91
495.382	7.92
495.815	7.93
496.248	7.93
496.681	7.95
497.114	7.96
497.547	7.98
497.98	7.99
498.413	8
498.846	8.02
499.279	8.04
499.711	8.06
500.144	8.08
500.577	8.09
501.009	8.12
501.442	8.13
501.874	8.16
502.306	8.18
502.739	8.21
503.171	8.24
503.603	8.27
504.036	8.29
504.468	8.33
504.9	8.38
505.332	8.41
505.764	8.45
506.196	8.52
506.627	8.56
507.059	8.61
507.491	8.68
507.923	8.73
508.354	8.77
508.786	8.84
509.217	8.88
509.649	8.93
510.08	9
510.512	9.05
510.943	9.11
511.374	9.18
511.805	9.25
512.237	9.32
512.668	9.39
513.099	9.47
513.53	9.57
513.961	9.66
514.391	9.75
514.822	9.83
515.253	9.93
515.684	10.02
516.114	10.13
516.545	10.23
516.975	10.33
517.406	10.44
517.836	10.54
518.267	10.64
518.697	10.77
519.127	10.89
519.558	11.01
519.988	11.1
520.418	11.23
520.848	11.35
521.278	11.47
521.708	11.54
522.138	11.66
522.567	11.77
522.997	11.87
523.427	11.98
523.857	12.08
524.286	12.2
524.716	12.32
525.145	12.43
525.575	12.53
526.004	12.64
526.433	12.79
526.863	12.89
527.292	12.99
527.721	13.09
528.15	13.17
528.579	13.26
529.008	13.36
529.437	13.43
529.866	13.5
530.295	13.59
530.724	13.67
531.152	13.75
531.581	13.81
532.01	13.89
532.438	13.97
532.867	14.05
533.295	14.09
533.723	14.15
534.152	14.19
534.58	14.24
535.008	14.27
535.436	14.31
535.865	14.35
536.293	14.4
536.721	14.43
537.149	14.46
537.576	14.49
538.004	14.52
538.432	14.55
538.86	14.59
539.287	14.61
539.715	14.64
540.143	14.66
540.57	14.68
540.998	14.7
541.425	14.72
541.852	14.74
542.28	14.74
542.707	14.77
543.134	14.79
543.561	14.78
543.988	14.8
544.415	14.82
544.842	14.84
545.269	14.85
545.696	14.85
546.123	14.86
546.549	14.87
546.976	14.9
547.403	14.91
547.829	14.92
548.256	14.96
548.682	14.96
549.108	14.98
549.535	14.98
549.961	14.99
550.387	14.98
550.813	14.98
551.24	14.98
551.666	14.98
552.092	14.97
552.518	14.96
552.943	14.94
553.369	14.92
553.795	14.92
554.221	14.9
554.646	14.88
555.072	14.86
555.498	14.84
555.923	14.82
556.349	14.77
556.774	14.73
557.199	14.69
557.625	14.65
558.05	14.61
558.475	14.56
558.9	14.5
559.325	14.45
559.75	14.39
560.175	14.32
560.6	14.25
561.025	14.19
561.449	14.13
561.874	14.08
562.299	14.01
562.723	13.94
563.148	13.87
563.572	13.79
563.997	13.71
564.421	13.65
564.846	13.57
565.27	13.48
565.694	13.4
566.118	13.31
566.542	13.21
566.966	13.12
567.39	13.03
567.814	12.94
568.238	12.86
568.662	12.78
569.086	12.69
569.509	12.62
569.933	12.53
570.357	12.43
570.78	12.34
571.204	12.26
571.627	12.18
572.05	12.1
572.474	12.01
572.897	11.94
573.32	11.86
573.743	11.79
574.166	11.71
574.589	11.64
575.012	11.58
575.435	11.52
575.858	11.48
576.281	11.42
576.704	11.37
577.126	11.32
577.549	11.3
577.972	11.25
578.394	11.19
578.817	11.15
579.239	11.12
579.661	11.1
580.084	11.07
580.506	11.04
580.928	11
581.35	10.97
581.772	10.95
582.194	10.91
582.616	10.87
583.038	10.85
583.46	10.83
583.882	10.8
584.303	10.78
584.725	10.75
585.147	10.68
585.568	10.65
585.99	10.63
586.411	10.6
586.833	10.57
587.254	10.55
587.675	10.54
588.096	10.51
588.518	10.49
588.939	10.46
589.36	10.44
589.781	10.46
590.202	10.45
590.623	10.43
591.043	10.4
591.464	10.38
591.885	10.36
592.305	10.34
592.726	10.32
593.147	10.31
593.567	10.28
593.987	10.28
594.408	10.25
594.828	10.24
595.248	10.24
595.669	10.22
596.089	10.21
596.509	10.18
596.929	10.15
597.349	10.13
597.769	10.12
598.189	10.11
598.608	10.09
599.028	10.06
599.448	10.05
599.867	10.01
600.287	10
600.706	9.99
601.126	9.97
601.545	9.95
601.965	9.93
602.384	9.91
602.803	9.87
603.222	9.85
603.641	9.82
604.061	9.8
604.48	9.78
604.898	9.75
605.317	9.73
605.736	9.71
606.155	9.68
606.574	9.67
606.992	9.62
607.411	9.6
607.829	9.53
608.248	9.51
608.666	9.48
609.085	9.45
609.503	9.42
609.921	9.37
610.339	9.33
610.758	9.3
611.176	9.26
611.594	9.23
612.012	9.19
612.43	9.2
612.847	9.18
613.265	9.16
613.683	9.12
614.101	9.1
614.518	9.1
614.936	9.07
615.353	9.05
615.771	9.03
616.188	9.02
616.606	9.01
617.023	8.99
617.44	8.96
617.857	8.94
618.274	8.93
618.691	8.91
619.108	8.88
619.525	8.87
619.942	8.86
620.359	8.85
620.776	8.84
621.192	8.83
621.609	8.82
622.026	8.81
622.442	8.8
622.859	8.8
623.275	8.8
623.691	8.8
624.108	8.8
624.524	8.78
624.94	8.76
625.356	8.76
625.772	8.76
626.188	8.77
626.604	8.74
627.02	8.74
627.436	8.74
627.852	8.72
628.268	8.71
628.683	8.7
629.099	8.71
629.514	8.71
629.93	8.69
630.345	8.68
630.761	8.65
631.176	8.66
631.591	8.65
632.007	8.62
632.422	8.63
632.837	8.62
633.252	8.61
633.667	8.59
634.082	8.58
634.497	8.56
634.911	8.54
635.326	8.53
635.741	8.51
636.155	8.49
636.57	8.47
636.984	8.43
637.399	8.37
637.813	8.34
638.228	8.31
638.642	8.29
639.056	8.28
639.47	8.25
639.884	8.24
640.298	8.21
640.712	8.18
641.126	8.17
641.54	8.15
641.954	8.14
642.368	8.12
642.781	8.1
643.195	8.07
643.609	8.03
644.022	8.02
644.436	8
644.849	7.98
645.262	7.98
645.676	7.96
646.089	7.94
646.502	7.91
646.915	7.9
647.328	7.88
647.741	7.86
648.154	7.87
648.567	7.86
648.98	7.85
649.393	7.83
649.805	7.79
650.218	7.78
650.631	7.78
651.043	7.79
651.456	7.78
651.868	7.76
652.28	7.76
652.693	7.73
653.105	7.71
653.517	7.69
653.929	7.69
654.341	7.69
654.753	7.67
655.165	7.65
655.577	7.62
655.989	7.62
656.401	7.6
656.813	7.58
657.224	7.58
657.636	7.57
658.047	7.53
658.459	7.5
658.87	7.48
659.282	7.48
659.693	7.47
660.104	7.44
660.515	7.42
660.926	7.41
661.338	7.4
661.749	7.39
662.159	7.36
662.57	7.36
662.981	7.37
663.392	7.37
663.803	7.35
664.213	7.34
664.624	7.34
665.035	7.33
665.445	7.32
665.855	7.32
666.266	7.31
666.676	7.32
667.086	7.3
667.497	7.28
667.907	7.27
668.317	7.26
668.727	7.26
669.137	7.26
669.547	7.28
669.956	7.29
670.366	7.31
670.776	7.3
671.186	7.3
671.595	7.33
672.005	7.35
672.414	7.36
672.824	7.38
673.233	7.4
673.642	7.41
674.052	7.41
674.461	7.42
674.87	7.42
675.279	7.43
675.688	7.46
676.097	7.47
676.506	7.49
676.915	7.51
677.323	7.55
677.732	7.56
678.141	7.6
678.549	7.64
678.958	7.68
679.366	7.72
679.775	7.76
680.183	7.78
680.592	7.82
681	7.86
681.408	7.89
681.816	7.92
682.224	7.96
682.632	7.99
683.04	8.01
683.448	8.05
683.856	8.08
684.264	8.13
684.671	8.18
685.079	8.22
685.487	8.27
685.894	8.32
686.302	8.38
686.709	8.43
687.116	8.5
687.524	8.58
687.931	8.65
688.338	8.74
688.745	8.82
689.152	8.93
689.559	9.04
689.966	9.15
690.373	9.3
690.78	9.45
691.187	9.62
691.593	9.77
692	9.97
692.407	10.17
692.813	10.37
693.22	10.61
693.626	10.84
694.032	11.1
694.439	11.37
694.845	11.64
695.251	11.92
695.657	12.22
696.063	12.55
696.469	12.88
696.875	13.21
697.281	13.55
697.687	13.93
698.093	14.29
698.498	14.68
698.904	15.07
699.31	15.46
699.715	15.87
700.12	16.24
700.526	16.65
700.931	17.04
701.337	17.46
701.742	17.88
702.147	18.29
702.552	18.72
702.957	19.15
703.362	19.6
703.767	20.01
704.172	20.46
704.577	20.91
704.981	21.36
705.386	21.8
705.791	22.28
706.195	22.7
706.6	23.13
707.004	23.54
707.408	23.99
707.813	24.41
708.217	24.87
708.621	25.32
709.025	25.78
709.43	26.21
709.834	26.67
710.237	27.11
710.641	27.58
711.045	28.02
711.449	28.49
711.853	28.92
712.256	29.37
712.66	29.81
713.064	30.23
713.467	30.65
713.87	31.06
714.274	31.48
714.677	31.9
715.08	32.32
715.484	32.76
715.887	33.17
716.29	33.57
716.693	34.01
717.096	34.42
717.499	34.84
717.901	35.24
718.304	35.67
718.707	36.07
719.109	36.45
719.512	36.85
719.915	37.23
720.317	37.63
720.719	38.03
721.122	38.38
721.524	38.75
721.926	39.11
722.328	39.5
722.731	39.85
723.133	40.19
723.535	40.54
723.937	40.86
724.338	41.2
724.74	41.53
725.142	41.76
725.544	42.05
725.945	42.31
726.347	42.6
726.748	42.85
727.15	43.12
727.551	43.39
727.952	43.68
728.354	43.97
728.755	44.22
729.156	44.45
729.557	44.77
729.958	45.04
730.359	45.3
730.76	45.49
731.161	45.72
731.562	45.94
731.962	46.13
732.363	46.28
732.763	46.45
733.164	46.62
733.564	46.79
733.965	46.94
734.365	47.08
734.766	47.25
735.166	47.41
735.566	47.54
735.966	47.65
736.366	47.77
736.766	47.91
737.166	48.03
737.566	48.15
737.966	48.28
738.365	48.41
738.765	48.51
739.165	48.61
739.564	48.73
739.964	48.82
740.363	48.93
740.763	49.04
741.162	49.15
741.561	49.22
741.96	49.36
742.36	49.43
742.759	49.48
743.158	49.57
743.557	49.63
743.955	49.72
744.354	49.83
744.753	49.96
745.152	50.03
745.55	50.1
745.949	50.16
746.348	50.22
746.746	50.28
747.144	50.38
747.543	50.46
747.941	50.55
748.339	50.64
748.737	50.72
749.136	50.75
749.534	50.8
749.932	50.85
750.33	50.92
750.727	50.95
751.125	50.99
751.523	50.99
751.921	51.02
752.318	51.04
752.716	51.03
753.113	51.03
753.511	51.03
753.908	51.02
754.305	51
754.703	50.99
755.1	50.96
755.497	50.96
755.894	50.94
756.291	50.9
756.688	50.88
757.085	50.81
757.482	50.77
757.878	50.75
758.275	50.73
758.672	50.75
759.068	50.73
759.465	50.76
759.861	50.76
760.258	50.74
760.654	50.74
761.05	50.74
761.447	50.77
761.843	50.78
762.239	50.78
762.635	50.8
763.031	50.8
763.427	50.81
763.822	50.79
764.218	50.8
764.614	50.85
765.01	50.89
765.405	50.91
765.801	50.92
766.196	50.94
766.592	50.98
766.987	51
767.382	51.01
767.778	51.02
768.173	51.02
768.568	51.01
768.963	51.02
769.358	51.01
769.753	51.02
770.148	51.01
770.542	51.01
770.937	51
771.332	51
771.726	50.99
772.121	50.99
772.515	51.01
772.91	51.02
773.304	51.01
773.699	51.03
774.093	51
774.487	51.01
774.881	51
775.275	51
775.669	51.04
776.063	51.04
776.457	51.04
776.851	51.03
777.245	51.04
777.638	51.03
778.032	51.03
778.425	51.06
778.819	51.08
779.212	51.08
779.606	51.08
779.999	51.05
780.392	51.07
780.786	51.09
781.179	51.1
781.572	51.07
781.965	51.05
782.358	51.06
782.751	51.08
783.143	51.07
783.536	51.12
783.929	51.13
784.322	51.14
784.714	51.15
785.107	51.15
785.499	51.17
785.891	51.2
786.284	51.2
786.676	51.21
787.068	51.14
787.46	51.13
787.852	51.11
788.245	51.08
788.636	51.08
789.028	51.04
789.42	51.01
789.812	51
790.204	50.96
790.595	50.97
790.987	50.95
791.378	51.02
791.77	51.06
792.161	51.07
792.553	51.11
792.944	51.15
793.335	51.2
793.726	51.18
794.117	51.17
794.508	51.21
794.899	51.22
795.29	51.23
795.681	51.22
796.072	51.21
796.463	51.15
796.853	51.14
797.244	51.13
797.634	51.12
798.025	51.13
798.415	51.15
798.806	51.16
799.196	51.15
799.586	51.17
799.976	51.18
800.366	51.17
800.756	51.26
801.146	51.21
801.536	51.18
801.926	51.17
802.316	51.19
802.706	51.19
803.095	51.22
803.485	51.24
803.874	51.25
804.264	51.29
804.653	51.27
805.043	51.23
805.432	51.24
805.821	51.25
806.21	51.26
806.599	51.32
806.988	51.33
807.377	51.32
807.766	51.34
808.155	51.35
808.544	51.32
808.933	51.37
809.321	51.41
809.71	51.48
810.098	51.48
810.487	51.51
810.875	51.45
811.264	51.48
811.652	51.45
812.04	51.42
812.428	51.42
812.816	51.44
813.204	51.42
813.592	51.4
813.98	51.37
814.368	51.39
814.756	51.38
815.144	51.42
815.531	51.42
815.919	51.43
816.306	51.45
816.694	51.44
817.081	51.43
817.469	51.46
817.856	51.5
818.243	51.51
818.63	51.53
819.017	51.52
819.404	51.53
819.791	51.55
820.178	51.58
820.565	51.57
820.952	51.58
821.339	51.6
821.725	51.61
822.112	51.62
822.498	51.63
822.885	51.6
823.271	51.61
823.657	51.61
824.044	51.58
824.43	51.59
824.816	51.59
825.202	51.6
825.588	51.58
825.974	51.56
826.36	51.51
826.746	51.53
827.132	51.53
827.517	51.54
827.903	51.51
828.289	51.52
828.674	51.47
829.06	51.5
829.445	51.52
829.83	51.52
830.216	51.53
830.601	51.53
830.986	51.5
831.371	51.53
831.756	51.47
832.141	51.47
832.526	51.46
832.911	51.48
833.295	51.46
833.68	51.43
834.065	51.45
834.449	51.39
834.834	51.37
835.218	51.37
835.603	51.33
835.987	51.35
836.371	51.36
836.755	51.34
837.139	51.33
837.524	51.35
837.908	51.3
838.291	51.27
838.675	51.31
839.059	51.3
839.443	51.31
839.827	51.3
840.21	51.32
840.594	51.31
840.977	51.31
841.361	51.34
841.744	51.34
842.127	51.36
842.511	51.36
842.894	51.32
843.277	51.35
843.66	51.36
844.043	51.34
844.426	51.31
844.809	51.31
845.191	51.32
845.574	51.3
845.957	51.25
846.339	51.23
846.722	51.23
847.104	51.22
847.487	51.24
847.869	51.22
848.252	51.23
848.634	51.27
849.016	51.27
849.398	51.26
849.78	51.25
850.162	51.26
850.544	51.29
850.926	51.3
851.307	51.34
851.689	51.31
852.071	51.28
852.452	51.28
852.834	51.25
853.215	51.22
853.597	51.22
853.978	51.22
854.359	51.21
854.741	51.22
855.122	51.21
855.503	51.17
855.884	51.15
856.265	51.17
856.646	51.13
857.026	51.16
857.407	51.14
857.788	51.12
858.169	51.13
858.549	51.16
858.93	51.13
859.31	51.11
859.69	51.11
860.071	51.11
860.451	51.11
860.831	51.13
861.211	51.11
861.591	51.14
861.971	51.13
862.351	51.15
862.731	51.1
863.111	51.09
863.491	51.12
863.87	51.12
864.25	51.13
864.629	51.09
865.009	51.09
865.388	51.09
865.768	51.07
866.147	51.09
866.526	51.08
866.905	51.1
867.284	51.11
867.663	51.11
868.042	51.12
868.421	51.11
868.8	51.17
869.179	51.16
869.558	51.13
869.936	51.11
870.315	51.09
870.693	51.11
871.072	51.1
871.45	51.07
871.828	51.05
872.207	51.04
872.585	51.04
872.963	51.01
873.341	51.02
873.719	51.03
874.097	51.05
874.475	51.06
874.853	51.04
875.23	51.05
875.608	51.07
875.986	51.06
876.363	51.05
876.741	51.06
877.118	51.06
877.495	51.02
877.873	51
878.25	50.99
878.627	50.98
879.004	50.96
879.381	50.97
879.758	50.95
880.135	50.97
880.512	51.01
880.889	51
881.265	51.03
881.642	51.05
882.019	51.09
882.395	51.11
882.772	51.13
883.148	51.15
883.524	51.17
883.901	51.19
884.277	51.16
884.653	51.17
885.029	51.18
885.405	51.17
885.781	51.17
886.157	51.16
886.532	51.15
886.908	51.15
887.284	51.16
887.659	51.14
888.035	51.13
888.411	51.12
888.786	51.09
889.161	51.09
889.537	51.09
889.912	51.07
890.287	51.07
890.662	51.03
891.037	50.98
891.412	50.93
891.787	50.89
892.162	50.84
892.536	50.83
892.911	50.8
893.286	50.74
893.66	50.7
894.035	50.68
894.409	50.64
894.784	50.64
895.158	50.65
895.532	50.64
895.906	50.66
896.281	50.67
896.655	50.64
897.029	50.62
897.402	50.63
897.776	50.63
898.15	50.6
898.524	50.59
898.898	50.54
899.271	50.52
899.645	50.51
900.018	50.5
900.392	50.48
900.765	50.49
901.138	50.51
901.511	50.49
901.884	50.51
902.258	50.54
902.631	50.54
903.003	50.57
903.376	50.53
903.749	50.55
904.122	50.55
904.495	50.58
904.867	50.56
905.24	50.58
905.612	50.6
905.985	50.59
906.357	50.58
906.729	50.56
907.102	50.56
907.474	50.6
907.846	50.57
908.218	50.55
908.59	50.51
908.962	50.53
909.334	50.5
909.705	50.48
910.077	50.48
910.449	50.48
910.82	50.5
911.192	50.5
911.563	50.49
911.935	50.48
912.306	50.51
912.677	50.51
913.048	50.48
913.419	50.45
913.79	50.46
914.161	50.43
914.532	50.44
914.903	50.41
915.274	50.38
915.645	50.38
916.015	50.36
916.386	50.28
916.756	50.27
917.127	50.27
917.497	50.29
917.868	50.26
918.238	50.27
918.608	50.26
918.978	50.26
919.348	50.26
919.718	50.28
920.088	50.29
920.458	50.35
920.828	50.38
921.198	50.39
921.567	50.36
921.937	50.39
922.306	50.38
922.676	50.38
923.045	50.39
923.415	50.39
923.784	50.35
924.153	50.34
924.522	50.28
924.891	50.28
925.26	50.24
925.629	50.26
925.998	50.25
926.367	50.25
926.736	50.2
927.104	50.2
927.473	50.18
927.842	50.15
928.21	50.2
928.578	50.2
928.947	50.15
929.315	50.14
929.683	50.16
930.051	50.13
930.42	50.1
930.788	50.08
931.156	50.03
931.523	49.99
931.891	49.95
932.259	49.82
932.627	49.74
932.994	49.69
933.362	49.61
933.729	49.48
934.097	49.39
934.464	49.32
934.831	49.31
935.199	49.27
935.566	49.2
935.933	49.2
936.3	49.12
936.667	49.08
937.034	49.03
937.401	48.99
937.767	49.02
938.134	49.02
938.501	48.97
938.867	48.92
939.234	48.92
939.6	48.96
939.967	48.96
940.333	49.07
940.699	49.24
941.065	49.35
941.431	49.49
941.798	49.59
942.163	49.77
942.529	49.9
942.895	49.89
943.261	50.02
943.627	50.07
943.992	50.11
944.358	50.14
944.723	50.12
945.089	50.19
945.454	50.23
945.82	50.27
946.185	50.22
946.55	50.3
946.915	50.35
947.28	50.27
947.645	50.28
948.01	50.31
948.375	50.31
948.74	50.25
949.104	50.22
949.469	50.15
949.834	50.07
950.198	49.99
950.562	49.93
950.927	49.9
951.291	49.85
951.655	49.78
952.02	49.79
952.384	49.89
952.748	49.92
953.112	49.84
953.476	49.84
953.839	49.81
954.203	49.72
954.567	49.68
954.931	49.65
955.294	49.63
955.658	49.59
956.021	49.48
956.385	49.46
956.748	49.44
957.111	49.44
957.474	49.38
957.837	49.35
958.2	49.36
958.563	49.24
958.926	49.18
959.289	49.25
959.652	49.3
960.015	49.32
960.377	49.2
960.74	49.09
961.102	49.05
961.465	49.06
961.827	48.95
962.189	48.93
962.552	48.91
962.914	48.95
963.276	48.95
963.638	48.89
964	48.83
964.362	48.87
964.724	48.86
965.085	48.88
965.447	48.81
965.809	48.84
966.17	48.89
966.532	48.94
966.893	48.89
967.255	48.82
967.616	48.84
967.977	48.87
968.338	48.79
968.699	48.79
969.061	48.7
969.421	48.68
969.782	48.7
970.143	48.69
970.504	48.68
970.865	48.61
971.225	48.63
971.586	48.54
971.946	48.57
972.307	48.53
972.667	48.57
973.027	48.67
973.388	48.68
973.748	48.66
974.108	48.6
974.468	48.59
974.828	48.64
975.188	48.59
975.548	48.59
975.907	48.53
976.267	48.68
976.627	48.58
976.986	48.5
977.346	48.46
977.705	48.57
978.064	48.67
978.424	48.67
978.783	48.73
979.142	48.73
979.501	48.76
979.86	48.82
980.219	48.62
980.578	48.68
980.937	48.74
981.296	48.74
981.654	48.7
982.013	48.68
982.371	48.6
982.73	48.53
983.088	48.55
983.447	48.55
983.805	48.48
984.163	48.57
984.521	48.45
984.879	48.46
985.237	48.5
985.595	48.52
985.953	48.43
986.311	48.44
986.669	48.46
987.026	48.49
987.384	48.54
987.741	48.56
988.099	48.54
988.456	48.67
988.814	48.67
989.171	48.71
989.528	48.66
989.885	48.69
990.242	48.67
990.599	48.68
990.956	48.63
991.313	48.51
991.67	48.58
992.027	48.54
992.383	48.57
992.74	48.46
993.096	48.39
993.453	48.34
993.809	48.47
994.165	48.62
994.522	48.47
994.878	48.42
995.234	48.49
995.59	48.33
995.946	48.44
996.302	48.34
996.658	48.41
997.013	48.5
997.369	48.63
997.725	48.49
998.08	48.45
998.436	48.62
998.791	48.61
999.147	48.55
999.502	48.7
999.857	48.68
1000.212	48.6
1000.567	48.6
1000.922	48.46
1001.277	48.19
1001.632	48.3
1001.987	48.17
1002.342	48.05
1002.696	48.13
1003.051	48.09
1003.406	47.99
1003.76	47.82
1004.114	47.98
1004.469	47.98
1004.823	48.13
1005.177	48.35
1005.531	48.31
1005.885	48.33
1006.239	48.48
1006.593	48.5
1006.947	48.54
1007.301	48.66
1007.655	48.85
1008.008	48.87
1008.362	48.85
1008.715	48.73
1009.069	48.61
1009.422	48.41
1009.776	48.5
1010.129	48.43
1010.482	48.55
1010.835	48.65
1011.188	48.6
1011.541	48.36
1011.894	48.19
1012.247	48.05
1012.6	48.12
1012.952	48.06
1013.305	48.2
1013.657	48.25
1014.01	48.33
1014.362	48.25
1014.715	48.06
1015.067	48.15
1015.419	48.38
1015.771	48.56
1016.123	48.7
1016.475	49.06
1016.827	49.36
1017.179	49.38
1017.531	49.45
1017.883	49.71
1018.234	49.49
1018.586	49.31
1018.938	49.12
1019.289	48.8
1019.64	48.95
1019.992	49.06
1020.343	48.56
1020.694	48.61
1021.045	48.7
1021.396	48.64
1021.747	48.3
1022.098	48.75
1022.449	49.18
1022.8	49.26
1023.151	49.7
1023.501	49.55
1023.852	49.39
1024.202	49.67
1024.553	49.42
1024.903	49.11
1025.253	49.05
1025.604	49.2
1025.954	48.69
1026.304	49
1026.654	49.12
1027.004	49.03
1027.354	49.02
1027.703	48.99
1028.053	48.68
1028.403	48.85
1028.753	49.36
1029.102	49.45
1029.452	49.3
1029.801	49.56
1030.15	49.22
1030.499	49.14
897.758	336.09
901.051	337.42
904.343	345.26
907.636	340.77
910.928	334.09
914.22	338.83
917.511	325.04
920.803	311.19
924.094	301.32
927.384	301.67
930.675	296.44
933.965	292.22
937.255	295.95
940.544	280.94
943.834	267.47
947.123	264.87
950.411	252.21
953.7	251.03
956.988	243.69
960.276	235.43
963.563	232.69
966.851	221.02
970.138	218.63
973.424	203.1
976.711	201.03
979.997	196.14
983.283	190.77
986.568	184.75
989.853	181.32
993.138	175.26
996.423	173.37
999.708	169.72
1002.992	168.99
1006.275	164.65
1009.559	164.81
1012.842	160.03
1016.125	155.16
1019.408	152.43
1022.69	153.73
1025.972	150.17
1029.254	148.03
1032.536	145.03
1035.817	140.32
1039.098	139.1
1042.379	135.41
1045.659	133.1
1048.939	131.92
1052.219	130.74
1055.498	129.38
1058.778	125.16
1062.057	124.07
1065.335	124.01
1068.614	121.72
1071.892	120.41
1075.17	118.3
1078.447	117.06
1081.724	116.48
1085.001	114.24
1088.278	112.77
1091.554	112.47
1094.83	112.61
1098.106	111.22
1101.382	110.61
1104.657	110.8
1107.932	110.2
1111.206	109.39
1114.481	109.83
1117.755	108.17
1121.029	108.11
1124.302	107.4
1127.575	106.67
1130.848	105.55
1134.121	103.82
1137.393	103.24
1140.665	101.77
1143.937	100.5
1147.208	100.64
1150.48	98.39
1153.75	98.51
1157.021	97.16
1160.291	97.41
1163.561	96.31
1166.831	97.04
1170.101	97.52
1173.37	95.45
1176.639	95.13
1179.907	94.7
1183.176	93.88
1186.444	94.52
1189.711	93.87
1192.979	94.97
1196.246	93.85
1199.513	94.09
1202.78	93.72
1206.046	92.99
1209.312	95.19
1212.578	95.21
1215.843	97.27
1219.108	97.43
1222.373	98.74
1225.638	99.91
1228.902	101.6
1232.166	105.48
1235.43	105.33
1238.693	107.24
1241.956	110.39
1245.219	112.09
1248.482	113.54
1251.744	112.57
1255.006	113.16
1258.268	110.61
1261.529	110.01
1264.79	108.46
1268.051	105.9
1271.312	105.84
1274.572	103.56
1277.832	101.87
1281.092	100.23
1284.351	98.32
1287.61	97.91
1290.869	98.76
1294.128	98.6
1297.386	98.34
1300.644	96.98
1303.902	96.86
1307.159	95.73
1310.416	96.64
1313.673	97.06
1316.93	97.79
1320.186	99.26
1323.442	100.15
1326.697	99.69
1329.953	100.73
1333.208	102.23
1336.463	106.84
1339.717	108.39
1342.972	113
1346.226	114.6
1349.479	114.99
1352.733	119.32
1355.986	120.77
1359.238	123.2
1362.491	123.09
1365.743	127.43
1368.995	129.69
1372.247	126.37
1375.498	125.33
1378.749	129.12
1382	129.02
1385.251	128.92
1388.501	127.7
1391.751	127.78
1395	127.23
1398.25	128.75
1401.499	126.01
1404.748	124.39
1407.996	123.89
1411.244	124.18
1414.492	121.44
1417.74	118.07
1420.987	115.14
1424.234	112.89
1427.481	108.63
1430.728	105.62
1433.974	103.06
1437.22	100.28
1440.465	96.63
1443.711	93.32
1446.956	90.72
1450.201	86.68
1453.445	82.09
1456.689	79.62
1459.933	78.73
1463.177	74.9
1466.42	73.85
1469.663	71.07
1472.906	68.96
1476.148	66.73
1479.391	66.08
1482.633	64.94
1485.874	64.33
1489.115	64.6
1492.356	63.63
1495.597	61.64
1498.838	62.76
1502.078	61.84
1505.318	61.99
1508.557	61.5
1511.797	61.78
1515.036	61.38
1518.274	60.84
1521.513	60.78
1524.751	60.44
1527.989	60.93
1531.227	61.06
1534.464	61.12
1537.701	61.19
1540.938	60.69
1544.174	60.67
1547.41	61.44
1550.646	61.43
1553.882	61.56
1557.117	61.63
1560.352	61.58
1563.587	60.9
1566.821	61.2
1570.055	60.82
1573.289	60.87
1576.523	61.53
1579.756	61.53
1582.989	60.98
1586.222	60.99
1589.454	61.59
1592.686	61.36
1595.918	61.07
1599.15	61.71
1602.381	61.94
1605.612	62.15
1608.843	61.91
1612.073	62.32
1615.303	62.65
1618.533	62.2
1621.762	62.54
1624.992	61.9
1628.221	61.95
1631.449	62.69
1634.678	62.71
1637.906	62.19
1641.134	62.49
1644.361	62.7
1647.588	61.85
1650.815	62
1654.042	63.03
1657.269	62.65
1660.495	63.37
1663.72	63.56
1666.946	63.2
1670.171	63.61
1673.396	64.21
1676.621	63.84
1679.845	64.28
1683.069	64.7
1686.293	64.49
1689.517	63.84
1692.74	64.07
1695.963	63.98
1699.185	64.12
1702.408	64.23
1705.63	63.93
1708.852	64.16
1712.073	64.21
1715.294	64
1718.515	64.1
1721.736	64.1
1724.956	64.31
1728.176	64.06
1731.396	64.19
1734.616	63.95
1737.835	64.05
1741.054	64.16
1744.272	64.12
1747.491	63.71
1750.709	64.29
1753.927	64.31
1757.144	64.18
1760.361	64.63
1763.578	64.46
1766.795	64.67
1770.011	65.14
1773.227	65.25
1776.443	65.56
1779.658	64.86
1782.874	66.58
1786.089	65.44
1789.303	65.64
1792.518	66.78
1795.732	66.73
1798.945	67.94
1802.159	67.65
1805.372	67.88
1808.585	68.45
1811.797	68.48
1815.01	69.89
1818.222	69.27
1821.434	70.27
1824.645	70.03
1827.856	69.81
1831.067	70.26
1834.278	70.51
1837.488	71.22
1840.698	71.87
1843.908	71.91
1847.117	72.83
1850.326	72.52
1853.535	72.24
1856.744	73.39
1859.952	74.55
1863.16	74.88
1866.368	73.4
1869.575	74.73
1872.782	74.24
1875.989	71.9
1879.196	71.4
1882.402	70.59
1885.608	70.75
1888.814	70.8
1892.019	70.18
1895.224	68.49
1898.429	69.03
1901.634	70.19
1904.838	69.66
1908.042	69.58
1911.246	70.37
1914.449	71.23
1917.652	70.71
1920.855	70.32
1924.058	70.3
1927.26	69.89
1930.462	70.35
1933.664	69.13
1936.865	68.91
1940.066	66.73
1943.267	67.13
1946.467	67.79
1949.668	67.39
1952.868	67.1
1956.067	66.85
1959.267	67.6
1962.466	67.93
1965.665	68.53
1968.863	69.91
1972.061	71.05
1975.259	73.11
1978.457	72.32
1981.654	73.66
1984.852	74.22
1988.048	75.61
1991.245	77.58
1994.441	78.31
1997.637	80.34
2000.833	82.29
2004.028	82.16
2007.223	83.64
2010.418	84.91
2013.613	89.53
2016.807	91.33
2020.001	93.57
2023.194	97.6
2026.388	99.89
2029.581	104.97
2032.774	107.23
2035.966	110.2
2039.158	114.54
2042.35	115.77
2045.542	118.07
2048.733	123.13
2051.924	124.67
2055.115	125.94
2058.306	125.81
2061.496	126.8
2064.686	127.33
2067.875	125.95
2071.065	126.69
2074.254	126.65
2077.442	130.13
2080.631	131.72
2083.819	132.48
2087.007	133.33
2090.195	137.48
2093.382	136.33
2096.569	137.2
2099.756	140.91
2102.942	144.88
2106.128	146.62
2109.314	150.48
2112.5	151.63
2115.685	149.24
2118.87	148.23
2122.055	151.56
2125.239	152.53
2128.424	157.37
2131.608	153.95
2134.791	152.11
2137.974	153.72
2141.157	156.32
2144.34	153.66
2147.523	161.02
2150.705	166.17
2153.887	163.95
2157.068	164.4
2160.25	165.51
2163.431	165.58
2166.611	172.67
2169.792	174.51
2172.972	177.8
2176.152	176.82
2179.331	182.25
2182.511	177.98
2185.69	181.2
2188.868	188.6
2192.047	194.03
2195.225	198.04
2198.403	200.55
2201.58	196.1
2204.758	204.07
2207.935	202.6
2211.111	207.96
2214.288	207.3
2217.464	209.98
2220.64	212.47
2223.815	211.19
2226.991	205.86
2230.166	208.36
2233.34	214.21
2236.515	222.28
2239.689	218.34
2242.863	222.7
2246.036	222.3
2249.209	228.88
2252.382	227.67
2255.555	230.82
2258.727	234.35
2261.9	245.98
2265.071	246.61
2268.243	243.03
2271.414	249.3
2274.585	253.09
2277.756	251.46
2280.926	261.79
2284.096	261.7
2287.266	265.71
2290.436	263.9
2293.605	268.01
2296.774	276.59
2299.942	278.36
2303.111	287.04
2306.279	291.81
2309.447	293.38
2312.614	295.14
2315.781	299.09
2318.948	304.15
2322.115	307.93
2325.281	326
2328.447	324.75
2331.613	319.46
2334.779	324.83
2337.944	329.33
2341.109	333.67
2344.274	338.18
2347.438	349.41
2350.602	356.63
2353.766	374.03
2356.929	376.1
2360.092	384.87
2363.255	387.04
2366.418	396.43
2369.58	403.06
2372.742	406.03
2375.904	404.76
2379.066	416.91
2382.227	435.08
2385.388	426.48
2388.548	408.24
2391.709	401.53
2394.869	404.32
2398.029	416.18
2401.188	413.49
2404.347	424.53
2407.506	437.63
2410.665	418.94
2413.823	424.69
2416.981	427.35
2420.139	411.86
2423.296	447.27
2426.453	475.04
2429.61	454.64
2432.767	474.43
2435.923	496.94
2439.079	477.16
2442.235	486.26
2445.391	502.56
2448.546	492.51
2451.701	520.18
2454.855	552.02
2458.009	487.52
2461.163	497.07
2464.317	500.9
2467.471	495.14
2470.624	503.15
2473.777	500.47
2476.929	489.05
2480.082	510.43
2483.234	535.41
2486.385	541.58
2489.537	557.18
2492.688	608.55
2495.839	599.59
2498.989	621.27
2502.14	623.4
2505.29	598.76
2508.439	651.11
2511.589	659.65
2514.738	662.34
2517.887	653.23
2521.035	607.45
2524.183	598.11
2527.331	594.79
2530.479	582.37
2533.627	587.75
