Data from N_2_dec_on_6n_057_Splice17_16.txt Node
Date: Sat Feb 29 14:00:15 EST 2020
User: sa697716
Spectrometer: FLMS03696
Trigger mode: 0
Integration Time (sec): 3.180400E-1
Scans to average: 20
Electric dark correction enabled: true
Nonlinearity correction enabled: true
Boxcar width: 5
XAxis mode: Wavelengths
Number of Pixels in Spectrum: 2048
>>>>>Begin Spectral Data<<<<<
187.83	94.45
188.298	95.49
188.766	92.31
189.233	81.24
189.701	95.39
190.169	95.9
190.636	98.34
191.104	104.07
191.571	404.21
192.039	184.8
192.506	-114.52
192.974	1361.93
193.441	-427.53
193.908	93.43
194.375	23.39
194.842	161.48
195.31	114.48
195.777	155.96
196.244	30.34
196.711	18.58
197.177	12.9
197.644	12.98
198.111	12.44
198.578	11.72
199.045	12.57
199.511	13.91
199.978	14.27
200.445	13.84
200.911	13.84
201.378	14.2
201.844	14.58
202.31	15.06
202.777	15.54
203.243	16.13
203.709	16.39
204.176	16.65
204.642	16.29
205.108	16.26
205.574	17.26
206.04	17.41
206.506	17.78
206.972	17.8
207.438	17.85
207.903	18.1
208.369	18.34
208.835	18.65
209.301	18.64
209.766	18.69
210.232	18.82
210.697	18.62
211.163	18.48
211.628	18.48
212.094	18.65
212.559	18.66
213.024	18.54
213.49	18.25
213.955	17.87
214.42	17.73
214.885	17.52
215.35	17.32
215.815	16.89
216.28	16.89
216.745	16.81
217.21	16.49
217.675	16.31
218.14	16.01
218.604	15.63
219.069	15.47
219.534	15.17
219.998	14.99
220.463	14.85
220.927	14.7
221.392	14.54
221.856	14.37
222.32	14.26
222.785	14.12
223.249	13.93
223.713	13.87
224.177	13.73
224.642	13.67
225.106	13.55
225.57	13.4
226.034	13.32
226.497	13.18
226.961	13.02
227.425	12.87
227.889	12.73
228.353	12.64
228.816	12.51
229.28	12.38
229.744	12.24
230.207	12.14
230.671	12.03
231.134	11.9
231.597	11.79
232.061	11.68
232.524	11.59
232.987	11.48
233.45	11.37
233.914	11.29
234.377	11.21
234.84	11.12
235.303	11.03
235.766	10.93
236.229	10.84
236.691	10.76
237.154	10.68
237.617	10.6
238.08	10.51
238.542	10.42
239.005	10.3
239.468	10.2
239.93	10.12
240.393	10.04
240.855	9.94
241.317	9.87
241.78	9.8
242.242	9.72
242.704	9.65
243.166	9.6
243.629	9.53
244.091	9.47
244.553	9.42
245.015	9.36
245.477	9.29
245.939	9.24
246.4	9.17
246.862	9.11
247.324	9.06
247.786	9
248.247	8.93
248.709	8.87
249.17	8.84
249.632	8.78
250.093	8.73
250.555	8.69
251.016	8.65
251.477	8.61
251.939	8.56
252.4	8.52
252.861	8.48
253.322	8.45
253.783	8.42
254.244	8.37
254.705	8.34
255.166	8.32
255.627	8.29
256.088	8.25
256.549	8.22
257.009	8.19
257.47	8.16
257.931	8.13
258.391	8.1
258.852	8.07
259.312	8.05
259.773	8.01
260.233	7.98
260.694	7.95
261.154	7.93
261.614	7.9
262.074	7.87
262.534	7.84
262.994	7.82
263.455	7.8
263.915	7.78
264.374	7.76
264.834	7.74
265.294	7.72
265.754	7.7
266.214	7.68
266.673	7.66
267.133	7.64
267.593	7.63
268.052	7.6
268.512	7.59
268.971	7.57
269.431	7.55
269.89	7.53
270.349	7.51
270.809	7.49
271.268	7.49
271.727	7.48
272.186	7.46
272.645	7.45
273.104	7.44
273.563	7.44
274.022	7.43
274.481	7.41
274.94	7.4
275.399	7.39
275.857	7.38
276.316	7.35
276.775	7.32
277.233	7.3
277.692	7.28
278.15	7.25
278.609	7.22
279.067	7.19
279.525	7.18
279.984	7.15
280.442	7.13
280.9	7.11
281.358	7.1
281.816	7.09
282.274	7.07
282.732	7.05
283.19	7.05
283.648	7.04
284.106	7.02
284.564	7.01
285.021	7
285.479	6.99
285.937	6.97
286.394	6.96
286.852	6.95
287.309	6.95
287.767	6.94
288.224	6.93
288.682	6.92
289.139	6.93
289.596	6.91
290.053	6.9
290.511	6.88
290.968	6.88
291.425	6.87
291.882	6.86
292.339	6.85
292.796	6.82
293.252	6.81
293.709	6.79
294.166	6.77
294.623	6.76
295.079	6.76
295.536	6.75
295.992	6.74
296.449	6.74
296.905	6.72
297.362	6.71
297.818	6.71
298.274	6.7
298.731	6.7
299.187	6.7
299.643	6.69
300.099	6.68
300.555	6.67
301.011	6.67
301.467	6.67
301.923	6.67
302.379	6.66
302.835	6.65
303.291	6.65
303.746	6.65
304.202	6.63
304.658	6.63
305.113	6.61
305.569	6.62
306.024	6.6
306.479	6.59
306.935	6.58
307.39	6.58
307.845	6.57
308.301	6.57
308.756	6.57
309.211	6.57
309.666	6.55
310.121	6.55
310.576	6.54
311.031	6.55
311.486	6.55
311.94	6.55
312.395	6.56
312.85	6.56
313.305	6.56
313.759	6.55
314.214	6.54
314.668	6.55
315.123	6.55
315.577	6.56
316.032	6.54
316.486	6.54
316.94	6.54
317.394	6.53
317.849	6.52
318.303	6.51
318.757	6.51
319.211	6.51
319.665	6.51
320.119	6.5
320.572	6.49
321.026	6.49
321.48	6.48
321.934	6.47
322.387	6.46
322.841	6.46
323.295	6.46
323.748	6.45
324.202	6.46
324.655	6.45
325.108	6.44
325.562	6.42
326.015	6.41
326.468	6.4
326.921	6.4
327.374	6.39
327.827	6.39
328.28	6.38
328.733	6.36
329.186	6.35
329.639	6.35
330.092	6.35
330.545	6.34
330.997	6.34
331.45	6.33
331.903	6.32
332.355	6.32
332.808	6.32
333.26	6.32
333.713	6.32
334.165	6.32
334.617	6.32
335.069	6.32
335.522	6.34
335.974	6.34
336.426	6.34
336.878	6.33
337.33	6.34
337.782	6.33
338.234	6.34
338.686	6.33
339.137	6.33
339.589	6.33
340.041	6.33
340.493	6.32
340.944	6.31
341.396	6.31
341.847	6.31
342.299	6.29
342.75	6.28
343.201	6.26
343.653	6.25
344.104	6.23
344.555	6.22
345.006	6.21
345.457	6.2
345.908	6.19
346.359	6.19
346.81	6.2
347.261	6.19
347.712	6.19
348.163	6.19
348.613	6.17
349.064	6.16
349.515	6.14
349.965	6.14
350.416	6.13
350.866	6.12
351.317	6.11
351.767	6.09
352.217	6.07
352.668	6.06
353.118	6.06
353.568	6.08
354.018	6.09
354.468	6.09
354.918	6.09
355.368	6.09
355.818	6.09
356.268	6.09
356.718	6.1
357.168	6.11
357.617	6.11
358.067	6.1
358.517	6.1
358.966	6.1
359.416	6.11
359.865	6.11
360.315	6.11
360.764	6.12
361.213	6.12
361.663	6.12
362.112	6.12
362.561	6.12
363.01	6.12
363.459	6.11
363.908	6.12
364.357	6.12
364.806	6.11
365.255	6.11
365.703	6.11
366.152	6.11
366.601	6.11
367.05	6.11
367.498	6.12
367.947	6.12
368.395	6.13
368.844	6.12
369.292	6.12
369.74	6.13
370.189	6.14
370.637	6.14
371.085	6.16
371.533	6.17
371.981	6.19
372.429	6.2
372.877	6.2
373.325	6.22
373.773	6.24
374.221	6.26
374.669	6.25
375.116	6.26
375.564	6.27
376.012	6.28
376.459	6.29
376.907	6.31
377.354	6.31
377.801	6.33
378.249	6.34
378.696	6.35
379.143	6.36
379.591	6.38
380.038	6.41
380.485	6.43
380.932	6.44
381.379	6.46
381.826	6.46
382.273	6.48
382.72	6.49
383.166	6.5
383.613	6.52
384.06	6.54
384.506	6.56
384.953	6.58
385.4	6.6
385.846	6.6
386.292	6.62
386.739	6.63
387.185	6.66
387.631	6.67
388.078	6.71
388.524	6.71
388.97	6.71
389.416	6.71
389.862	6.72
390.308	6.74
390.754	6.75
391.2	6.77
391.645	6.8
392.091	6.81
392.537	6.82
392.983	6.83
393.428	6.86
393.874	6.89
394.319	6.91
394.765	6.91
395.21	6.91
395.655	6.93
396.101	6.93
396.546	6.94
396.991	6.94
397.436	6.93
397.881	6.94
398.326	6.94
398.771	6.95
399.216	6.96
399.661	6.97
400.106	6.99
400.551	6.99
400.995	6.99
401.44	6.97
401.885	6.97
402.329	6.98
402.774	6.97
403.218	6.97
403.663	6.97
404.107	6.99
404.551	6.98
404.995	6.98
405.44	6.98
405.884	6.98
406.328	7
406.772	7
407.216	7.01
407.66	7.01
408.104	7
408.547	7
408.991	6.98
409.435	6.98
409.879	6.98
410.322	6.99
410.766	6.99
411.209	6.97
411.653	6.96
412.096	6.95
412.54	6.94
412.983	6.94
413.426	6.94
413.869	6.94
414.312	6.94
414.756	6.94
415.199	6.94
415.642	6.96
416.085	6.97
416.527	6.98
416.97	6.99
417.413	7
417.856	7
418.298	6.99
418.741	6.98
419.184	6.98
419.626	6.97
420.069	6.96
420.511	6.94
420.953	6.92
421.396	6.92
421.838	6.93
422.28	6.93
422.722	6.95
423.164	6.95
423.606	6.96
424.048	6.96
424.49	6.97
424.932	6.96
425.374	6.97
425.816	6.95
426.258	6.94
426.699	6.93
427.141	6.91
427.582	6.89
428.024	6.89
428.465	6.88
428.907	6.88
429.348	6.87
429.789	6.87
430.231	6.86
430.672	6.88
431.113	6.89
431.554	6.9
431.995	6.91
432.436	6.91
432.877	6.9
433.318	6.89
433.759	6.9
434.2	6.91
434.64	6.92
435.081	6.92
435.522	6.93
435.962	6.92
436.403	6.92
436.843	6.92
437.284	6.92
437.724	6.94
438.164	6.96
438.604	6.96
439.045	6.96
439.485	6.96
439.925	6.95
440.365	6.93
440.805	6.94
441.245	6.94
441.685	6.93
442.125	6.93
442.564	6.94
443.004	6.92
443.444	6.93
443.883	6.96
444.323	6.97
444.762	7.02
445.202	7.05
445.641	7.06
446.081	7.1
446.52	7.13
446.959	7.16
447.398	7.21
447.837	7.26
448.276	7.27
448.716	7.27
449.154	7.29
449.593	7.29
450.032	7.3
450.471	7.32
450.91	7.31
451.349	7.32
451.787	7.33
452.226	7.3
452.664	7.28
453.103	7.29
453.541	7.32
453.98	7.33
454.418	7.31
454.856	7.29
455.295	7.3
455.733	7.3
456.171	7.3
456.609	7.29
457.047	7.31
457.485	7.31
457.923	7.3
458.361	7.28
458.798	7.3
459.236	7.31
459.674	7.33
460.111	7.33
460.549	7.33
460.987	7.33
461.424	7.33
461.862	7.32
462.299	7.32
462.736	7.33
463.173	7.31
463.611	7.3
464.048	7.31
464.485	7.29
464.922	7.28
465.359	7.28
465.796	7.28
466.233	7.29
466.67	7.31
467.106	7.3
467.543	7.31
467.98	7.31
468.416	7.32
468.853	7.31
469.29	7.31
469.726	7.32
470.162	7.3
470.599	7.31
471.035	7.32
471.471	7.32
471.907	7.31
472.344	7.3
472.78	7.3
473.216	7.28
473.652	7.28
474.088	7.29
474.523	7.3
474.959	7.3
475.395	7.3
475.831	7.3
476.266	7.29
476.702	7.3
477.138	7.28
477.573	7.27
478.008	7.28
478.444	7.29
478.879	7.29
479.314	7.29
479.75	7.29
480.185	7.28
480.62	7.26
481.055	7.27
481.49	7.26
481.925	7.27
482.36	7.27
482.795	7.27
483.229	7.25
483.664	7.24
484.099	7.24
484.534	7.24
484.968	7.24
485.403	7.25
485.837	7.25
486.271	7.26
486.706	7.26
487.14	7.29
487.574	7.3
488.009	7.32
488.443	7.35
488.877	7.37
489.311	7.38
489.745	7.41
490.179	7.44
490.613	7.46
491.046	7.49
491.48	7.52
491.914	7.53
492.348	7.57
492.781	7.59
493.215	7.62
493.648	7.65
494.082	7.7
494.515	7.74
494.948	7.78
495.382	7.82
495.815	7.86
496.248	7.91
496.681	7.96
497.114	8.01
497.547	8.07
497.98	8.12
498.413	8.18
498.846	8.25
499.279	8.32
499.711	8.39
500.144	8.47
500.577	8.54
501.009	8.62
501.442	8.72
501.874	8.8
502.306	8.9
502.739	9
503.171	9.11
503.603	9.23
504.036	9.35
504.468	9.48
504.9	9.62
505.332	9.76
505.764	9.91
506.196	10.04
506.627	10.2
507.059	10.35
507.491	10.52
507.923	10.68
508.354	10.84
508.786	11.01
509.217	11.18
509.649	11.37
510.08	11.55
510.512	11.72
510.943	11.92
511.374	12.13
511.805	12.33
512.237	12.53
512.668	12.73
513.099	12.95
513.53	13.17
513.961	13.39
514.391	13.6
514.822	13.82
515.253	14.05
515.684	14.27
516.114	14.51
516.545	14.73
516.975	14.98
517.406	15.22
517.836	15.45
518.267	15.68
518.697	15.92
519.127	16.16
519.558	16.38
519.988	16.63
520.418	16.87
520.848	17.08
521.278	17.32
521.708	17.42
522.138	17.61
522.567	17.81
522.997	18.01
523.427	18.22
523.857	18.4
524.286	18.6
524.716	18.78
525.145	18.95
525.575	19.11
526.004	19.26
526.433	19.54
526.863	19.72
527.292	19.88
527.721	20.02
528.15	20.15
528.579	20.28
529.008	20.41
529.437	20.54
529.866	20.64
530.295	20.76
530.724	20.88
531.152	20.97
531.581	21.06
532.01	21.15
532.438	21.25
532.867	21.33
533.295	21.4
533.723	21.5
534.152	21.57
534.58	21.64
535.008	21.69
535.436	21.71
535.865	21.76
536.293	21.8
536.721	21.85
537.149	21.89
537.576	21.93
538.004	21.96
538.432	21.97
538.86	22
539.287	22.05
539.715	22.09
540.143	22.12
540.57	22.13
540.998	22.16
541.425	22.17
541.852	22.21
542.28	22.22
542.707	22.25
543.134	22.28
543.561	22.3
543.988	22.32
544.415	22.34
544.842	22.37
545.269	22.41
545.696	22.44
546.123	22.47
546.549	22.49
546.976	22.53
547.403	22.53
547.829	22.55
548.256	22.58
548.682	22.58
549.108	22.58
549.535	22.6
549.961	22.6
550.387	22.58
550.813	22.56
551.24	22.54
551.666	22.53
552.092	22.54
552.518	22.52
552.943	22.51
553.369	22.5
553.795	22.47
554.221	22.44
554.646	22.42
555.072	22.4
555.498	22.37
555.923	22.32
556.349	22.27
556.774	22.21
557.199	22.17
557.625	22.11
558.05	22.03
558.475	21.99
558.9	21.91
559.325	21.85
559.75	21.77
560.175	21.69
560.6	21.62
561.025	21.54
561.449	21.45
561.874	21.36
562.299	21.25
562.723	21.16
563.148	21.03
563.572	20.94
563.997	20.82
564.421	20.72
564.846	20.6
565.27	20.47
565.694	20.34
566.118	20.21
566.542	20.09
566.966	19.97
567.39	19.85
567.814	19.75
568.238	19.62
568.662	19.49
569.086	19.36
569.509	19.25
569.933	19.12
570.357	19
570.78	18.89
571.204	18.78
571.627	18.67
572.05	18.56
572.474	18.45
572.897	18.34
573.32	18.23
573.743	18.12
574.166	18.02
574.589	17.94
575.012	17.86
575.435	17.77
575.858	17.67
576.281	17.58
576.704	17.49
577.126	17.4
577.549	17.34
577.972	17.26
578.394	17.18
578.817	17.12
579.239	17.05
579.661	16.98
580.084	16.91
580.506	16.85
580.928	16.79
581.35	16.71
581.772	16.65
582.194	16.56
582.616	16.5
583.038	16.43
583.46	16.37
583.882	16.31
584.303	16.23
584.725	16.16
585.147	16.09
585.568	16.02
585.99	15.98
586.411	15.93
586.833	15.89
587.254	15.84
587.675	15.79
588.096	15.74
588.518	15.67
588.939	15.64
589.36	15.58
589.781	15.56
590.202	15.52
590.623	15.46
591.043	15.41
591.464	15.36
591.885	15.32
592.305	15.29
592.726	15.25
593.147	15.24
593.567	15.19
593.987	15.17
594.408	15.14
594.828	15.11
595.248	15.1
595.669	15.09
596.089	15.06
596.509	15.02
596.929	15
597.349	14.97
597.769	14.93
598.189	14.92
598.608	14.88
599.028	14.84
599.448	14.81
599.867	14.78
600.287	14.73
600.706	14.71
601.126	14.67
601.545	14.64
601.965	14.6
602.384	14.56
602.803	14.51
603.222	14.47
603.641	14.44
604.061	14.38
604.48	14.34
604.898	14.29
605.317	14.25
605.736	14.21
606.155	14.15
606.574	14.1
606.992	14.05
607.411	14
607.829	13.92
608.248	13.87
608.666	13.82
609.085	13.76
609.503	13.71
609.921	13.65
610.339	13.59
610.758	13.54
611.176	13.48
611.594	13.41
612.012	13.36
612.43	13.35
612.847	13.31
613.265	13.27
613.683	13.22
614.101	13.17
614.518	13.13
614.936	13.08
615.353	13.03
615.771	13
616.188	12.96
616.606	12.92
617.023	12.88
617.44	12.84
617.857	12.78
618.274	12.74
618.691	12.7
619.108	12.66
619.525	12.62
619.942	12.59
620.359	12.57
620.776	12.55
621.192	12.53
621.609	12.5
622.026	12.46
622.442	12.44
622.859	12.44
623.275	12.44
623.691	12.43
624.108	12.43
624.524	12.41
624.94	12.4
625.356	12.38
625.772	12.38
626.188	12.36
626.604	12.36
627.02	12.36
627.436	12.34
627.852	12.31
628.268	12.29
628.683	12.27
629.099	12.28
629.514	12.26
629.93	12.25
630.345	12.22
630.761	12.19
631.176	12.16
631.591	12.12
632.007	12.07
632.422	12.04
632.837	11.98
633.252	11.93
633.667	11.84
634.082	11.79
634.497	11.71
634.911	11.64
635.326	11.55
635.741	11.47
636.155	11.37
636.57	11.29
636.984	11.18
637.399	11.07
637.813	10.97
638.228	10.87
638.642	10.76
639.056	10.65
639.47	10.54
639.884	10.44
640.298	10.34
640.712	10.24
641.126	10.13
641.54	10.02
641.954	9.95
642.368	9.85
642.781	9.76
643.195	9.67
643.609	9.58
644.022	9.51
644.436	9.43
644.849	9.35
645.262	9.28
645.676	9.2
646.089	9.14
646.502	9.08
646.915	9.02
647.328	8.98
647.741	8.93
648.154	8.89
648.567	8.86
648.98	8.83
649.393	8.81
649.805	8.79
650.218	8.78
650.631	8.76
651.043	8.75
651.456	8.73
651.868	8.71
652.28	8.7
652.693	8.68
653.105	8.66
653.517	8.64
653.929	8.61
654.341	8.58
654.753	8.56
655.165	8.53
655.577	8.49
655.989	8.45
656.401	8.41
656.813	8.37
657.224	8.33
657.636	8.28
658.047	8.22
658.459	8.16
658.87	8.12
659.282	8.08
659.693	8.03
660.104	7.99
660.515	7.94
660.926	7.91
661.338	7.87
661.749	7.81
662.159	7.77
662.57	7.73
662.981	7.7
663.392	7.65
663.803	7.61
664.213	7.57
664.624	7.54
665.035	7.51
665.445	7.48
665.855	7.46
666.266	7.46
666.676	7.45
667.086	7.45
667.497	7.44
667.907	7.42
668.317	7.42
668.727	7.43
669.137	7.43
669.547	7.44
669.956	7.46
670.366	7.47
670.776	7.47
671.186	7.48
671.595	7.5
672.005	7.53
672.414	7.57
672.824	7.61
673.233	7.64
673.642	7.66
674.052	7.7
674.461	7.73
674.87	7.78
675.279	7.82
675.688	7.87
676.097	7.92
676.506	7.98
676.915	8.04
677.323	8.09
677.732	8.15
678.141	8.22
678.549	8.29
678.958	8.35
679.366	8.4
679.775	8.49
680.183	8.58
680.592	8.67
681	8.74
681.408	8.83
681.816	8.92
682.224	9.02
682.632	9.14
683.04	9.26
683.448	9.39
683.856	9.53
684.264	9.69
684.671	9.85
685.079	10.02
685.487	10.23
685.894	10.45
686.302	10.7
686.709	10.96
687.116	11.23
687.524	11.53
687.931	11.85
688.338	12.2
688.745	12.57
689.152	12.95
689.559	13.36
689.966	13.77
690.373	14.22
690.78	14.66
691.187	15.15
691.593	15.63
692	16.12
692.407	16.63
692.813	17.14
693.22	17.64
693.626	18.15
694.032	18.67
694.439	19.22
694.845	19.75
695.251	20.27
695.657	20.79
696.063	21.31
696.469	21.82
696.875	22.3
697.281	22.79
697.687	23.3
698.093	23.77
698.498	24.27
698.904	24.72
699.31	25.17
699.715	25.66
700.12	26.09
700.526	26.56
700.931	27.02
701.337	27.47
701.742	27.9
702.147	28.33
702.552	28.76
702.957	29.16
703.362	29.57
703.767	29.97
704.172	30.34
704.577	30.75
704.981	31.09
705.386	31.43
705.791	31.82
706.195	32.17
706.6	32.52
707.004	32.86
707.408	33.18
707.813	33.51
708.217	33.84
708.621	34.15
709.025	34.44
709.43	34.74
709.834	35.07
710.237	35.34
710.641	35.64
711.045	35.92
711.449	36.18
711.853	36.45
712.256	36.72
712.66	36.97
713.064	37.21
713.467	37.45
713.87	37.71
714.274	37.95
714.677	38.19
715.08	38.41
715.484	38.63
715.887	38.88
716.29	39.1
716.693	39.29
717.096	39.5
717.499	39.74
717.901	39.95
718.304	40.15
718.707	40.32
719.109	40.54
719.512	40.74
719.915	40.91
720.317	41.09
720.719	41.27
721.122	41.44
721.524	41.6
721.926	41.77
722.328	41.95
722.731	42.11
723.133	42.25
723.535	42.37
723.937	42.47
724.338	42.61
724.74	42.72
725.142	42.85
725.544	42.97
725.945	43.09
726.347	43.19
726.748	43.25
727.15	43.33
727.551	43.45
727.952	43.56
728.354	43.68
728.755	43.76
729.156	43.84
729.557	43.9
729.958	43.99
730.359	44.06
730.76	44.12
731.161	44.2
731.562	44.25
731.962	44.32
732.363	44.36
732.763	44.42
733.164	44.44
733.564	44.52
733.965	44.56
734.365	44.59
734.766	44.63
735.166	44.66
735.566	44.68
735.966	44.72
736.366	44.73
736.766	44.77
737.166	44.8
737.566	44.86
737.966	44.91
738.365	45
738.765	45.05
739.165	45.08
739.564	45.15
739.964	45.2
740.363	45.26
740.763	45.3
741.162	45.34
741.561	45.38
741.96	45.43
742.36	45.44
742.759	45.42
743.158	45.42
743.557	45.44
743.955	45.46
744.354	45.49
744.753	45.53
745.152	45.55
745.55	45.57
745.949	45.58
746.348	45.57
746.746	45.59
747.144	45.63
747.543	45.66
747.941	45.72
748.339	45.74
748.737	45.76
749.136	45.75
749.534	45.76
749.932	45.75
750.33	45.76
750.727	45.79
751.125	45.8
751.523	45.77
751.921	45.79
752.318	45.77
752.716	45.73
753.113	45.73
753.511	45.69
753.908	45.68
754.305	45.68
754.703	45.64
755.1	45.59
755.497	45.55
755.894	45.54
756.291	45.51
756.688	45.48
757.085	45.46
757.482	45.44
757.878	45.47
758.275	45.46
758.672	45.47
759.068	45.49
759.465	45.5
759.861	45.47
760.258	45.44
760.654	45.41
761.05	45.42
761.447	45.41
761.843	45.37
762.239	45.34
762.635	45.31
763.031	45.25
763.427	45.24
763.822	45.23
764.218	45.23
764.614	45.24
765.01	45.24
765.405	45.21
765.801	45.23
766.196	45.22
766.592	45.21
766.987	45.2
767.382	45.22
767.778	45.23
768.173	45.23
768.568	45.22
768.963	45.22
769.358	45.21
769.753	45.24
770.148	45.26
770.542	45.29
770.937	45.32
771.332	45.33
771.726	45.33
772.121	45.3
772.515	45.32
772.91	45.34
773.304	45.34
773.699	45.35
774.093	45.34
774.487	45.32
774.881	45.32
775.275	45.29
775.669	45.31
776.063	45.29
776.457	45.27
776.851	45.22
777.245	45.25
777.638	45.24
778.032	45.26
778.425	45.27
778.819	45.28
779.212	45.25
779.606	45.26
779.999	45.24
780.392	45.26
780.786	45.3
781.179	45.32
781.572	45.28
781.965	45.26
782.358	45.21
782.751	45.19
783.143	45.18
783.536	45.2
783.929	45.21
784.322	45.24
784.714	45.22
785.107	45.22
785.499	45.22
785.891	45.25
786.284	45.22
786.676	45.23
787.068	45.24
787.46	45.23
787.852	45.21
788.245	45.18
788.636	45.14
789.028	45.16
789.42	45.14
789.812	45.13
790.204	45.08
790.595	45.1
790.987	45.12
791.378	45.1
791.77	45.09
792.161	45.09
792.553	45.08
792.944	45.11
793.335	45.12
793.726	45.08
794.117	45.09
794.508	45.12
794.899	45.1
795.29	45.11
795.681	45.1
796.072	45.12
796.463	45.12
796.853	45.12
797.244	45.11
797.634	45.05
798.025	45.09
798.415	45.1
798.806	45.15
799.196	45.2
799.586	45.19
799.976	45.2
800.366	45.22
800.756	45.23
801.146	45.24
801.536	45.23
801.926	45.28
802.316	45.31
802.706	45.27
803.095	45.25
803.485	45.25
803.874	45.27
804.264	45.32
804.653	45.3
805.043	45.32
805.432	45.31
805.821	45.3
806.21	45.33
806.599	45.32
806.988	45.33
807.377	45.35
807.766	45.34
808.155	45.38
808.544	45.36
808.933	45.34
809.321	45.33
809.71	45.37
810.098	45.39
810.487	45.39
810.875	45.37
811.264	45.4
811.652	45.39
812.04	45.41
812.428	45.39
812.816	45.4
813.204	45.37
813.592	45.36
813.98	45.36
814.368	45.37
814.756	45.35
815.144	45.4
815.531	45.4
815.919	45.37
816.306	45.35
816.694	45.35
817.081	45.3
817.469	45.34
817.856	45.37
818.243	45.35
818.63	45.34
819.017	45.35
819.404	45.31
819.791	45.3
820.178	45.33
820.565	45.33
820.952	45.34
821.339	45.4
821.725	45.41
822.112	45.43
822.498	45.46
822.885	45.48
823.271	45.48
823.657	45.51
824.044	45.51
824.43	45.52
824.816	45.54
825.202	45.51
825.588	45.5
825.974	45.49
826.36	45.47
826.746	45.45
827.132	45.42
827.517	45.42
827.903	45.41
828.289	45.4
828.674	45.36
829.06	45.37
829.445	45.38
829.83	45.4
830.216	45.42
830.601	45.43
830.986	45.46
831.371	45.48
831.756	45.45
832.141	45.46
832.526	45.46
832.911	45.52
833.295	45.53
833.68	45.52
834.065	45.54
834.449	45.53
834.834	45.51
835.218	45.51
835.603	45.51
835.987	45.54
836.371	45.55
836.755	45.54
837.139	45.53
837.524	45.52
837.908	45.52
838.291	45.49
838.675	45.51
839.059	45.53
839.443	45.53
839.827	45.53
840.21	45.55
840.594	45.55
840.977	45.56
841.361	45.56
841.744	45.6
842.127	45.59
842.511	45.62
842.894	45.61
843.277	45.62
843.66	45.62
844.043	45.62
844.426	45.62
844.809	45.62
845.191	45.63
845.574	45.61
845.957	45.58
846.339	45.6
846.722	45.59
847.104	45.59
847.487	45.59
847.869	45.57
848.252	45.56
848.634	45.55
849.016	45.53
849.398	45.52
849.78	45.54
850.162	45.54
850.544	45.56
850.926	45.53
851.307	45.51
851.689	45.46
852.071	45.46
852.452	45.49
852.834	45.49
853.215	45.52
853.597	45.52
853.978	45.49
854.359	45.48
854.741	45.44
855.122	45.45
855.503	45.46
855.884	45.48
856.265	45.47
856.646	45.43
857.026	45.43
857.407	45.38
857.788	45.38
858.169	45.38
858.549	45.39
858.93	45.39
859.31	45.37
859.69	45.35
860.071	45.33
860.451	45.34
860.831	45.33
861.211	45.31
861.591	45.3
861.971	45.26
862.351	45.28
862.731	45.25
863.111	45.25
863.491	45.26
863.87	45.28
864.25	45.3
864.629	45.28
865.009	45.28
865.388	45.29
865.768	45.33
866.147	45.36
866.526	45.33
866.905	45.36
867.284	45.37
867.663	45.37
868.042	45.35
868.421	45.34
868.8	45.36
869.179	45.37
869.558	45.35
869.936	45.35
870.315	45.36
870.693	45.36
871.072	45.34
871.45	45.32
871.828	45.3
872.207	45.33
872.585	45.32
872.963	45.31
873.341	45.34
873.719	45.35
874.097	45.33
874.475	45.33
874.853	45.36
875.23	45.39
875.608	45.4
875.986	45.41
876.363	45.39
876.741	45.41
877.118	45.43
877.495	45.42
877.873	45.4
878.25	45.42
878.627	45.41
879.004	45.4
879.381	45.41
879.758	45.4
880.135	45.43
880.512	45.44
880.889	45.44
881.265	45.43
881.642	45.44
882.019	45.47
882.395	45.47
882.772	45.48
883.148	45.44
883.524	45.47
883.901	45.48
884.277	45.48
884.653	45.49
885.029	45.52
885.405	45.55
885.781	45.56
886.157	45.57
886.532	45.59
886.908	45.6
887.284	45.63
887.659	45.61
888.035	45.6
888.411	45.61
888.786	45.6
889.161	45.6
889.537	45.59
889.912	45.56
890.287	45.53
890.662	45.52
891.037	45.48
891.412	45.47
891.787	45.44
892.162	45.42
892.536	45.39
892.911	45.36
893.286	45.31
893.66	45.29
894.035	45.28
894.409	45.28
894.784	45.26
895.158	45.27
895.532	45.24
895.906	45.25
896.281	45.25
896.655	45.24
897.029	45.23
897.402	45.26
897.776	45.23
898.15	45.21
898.524	45.16
898.898	45.13
899.271	45.11
899.645	45.1
900.018	45.05
900.392	45.04
900.765	45.02
901.138	45.01
901.511	44.97
901.884	44.98
902.258	44.97
902.631	45
903.003	45.01
903.376	44.99
903.749	45
904.122	45
904.495	45.01
904.867	45.02
905.24	45.05
905.612	45.02
905.985	45.01
906.357	44.98
906.729	44.96
907.102	44.96
907.474	44.99
907.846	44.99
908.218	44.98
908.59	44.94
908.962	44.93
909.334	44.92
909.705	44.95
910.077	44.95
910.449	44.98
910.82	45
911.192	44.98
911.563	44.94
911.935	44.93
912.306	44.95
912.677	44.98
913.048	44.98
913.419	44.94
913.79	44.92
914.161	44.92
914.532	44.92
914.903	44.9
915.274	44.91
915.645	44.93
916.015	44.95
916.386	44.89
916.756	44.86
917.127	44.86
917.497	44.89
917.868	44.89
918.238	44.93
918.608	44.96
918.978	44.96
919.348	44.93
919.718	44.92
920.088	44.92
920.458	44.98
920.828	44.99
921.198	45
921.567	44.98
921.937	44.96
922.306	44.9
922.676	44.87
923.045	44.87
923.415	44.92
923.784	44.94
924.153	44.95
924.522	44.9
924.891	44.9
925.26	44.9
925.629	44.93
925.998	44.94
926.367	44.97
926.736	44.98
927.104	44.98
927.473	44.98
927.842	44.93
928.21	44.93
928.578	44.93
928.947	44.92
929.315	44.9
929.683	44.92
930.051	44.87
930.42	44.84
930.788	44.83
931.156	44.82
931.523	44.79
931.891	44.8
932.259	44.73
932.627	44.66
932.994	44.62
933.362	44.6
933.729	44.49
934.097	44.49
934.464	44.43
934.831	44.36
935.199	44.29
935.566	44.21
935.933	44.16
936.3	44.11
936.667	44.13
937.034	44.08
937.401	43.92
937.767	43.91
938.134	43.79
938.501	43.75
938.867	43.75
939.234	43.7
939.6	43.64
939.967	43.62
940.333	43.62
940.699	43.61
941.065	43.62
941.431	43.74
941.798	43.81
942.163	43.95
942.529	44
942.895	44.01
943.261	43.99
943.627	44.04
943.992	44.1
944.358	44.07
944.723	44.03
945.089	44.05
945.454	44.1
945.82	44.01
946.185	43.94
946.55	43.95
946.915	43.93
947.28	43.96
947.645	43.96
948.01	43.88
948.375	43.98
948.74	43.99
949.104	44.05
949.469	43.92
949.834	43.88
950.198	43.87
950.562	43.85
950.927	43.85
951.291	43.84
951.655	43.81
952.02	43.82
952.384	43.8
952.748	43.79
953.112	43.75
953.476	43.84
953.839	43.92
954.203	43.88
954.567	43.84
954.931	43.78
955.294	43.81
955.658	43.78
956.021	43.78
956.385	43.8
956.748	43.84
957.111	43.72
957.474	43.73
957.837	43.7
958.2	43.69
958.563	43.68
958.926	43.71
959.289	43.7
959.652	43.68
960.015	43.7
960.377	43.67
960.74	43.62
961.102	43.63
961.465	43.62
961.827	43.57
962.189	43.6
962.552	43.55
962.914	43.48
963.276	43.45
963.638	43.42
964	43.39
964.362	43.35
964.724	43.32
965.085	43.37
965.447	43.27
965.809	43.22
966.17	43.25
966.532	43.31
966.893	43.35
967.255	43.28
967.616	43.35
967.977	43.35
968.338	43.35
968.699	43.34
969.061	43.28
969.421	43.29
969.782	43.35
970.143	43.31
970.504	43.24
970.865	43.24
971.225	43.27
971.586	43.28
971.946	43.26
972.307	43.25
972.667	43.33
973.027	43.44
973.388	43.45
973.748	43.46
974.108	43.41
974.468	43.47
974.828	43.53
975.188	43.6
975.548	43.53
975.907	43.58
976.267	43.57
976.627	43.48
976.986	43.42
977.346	43.38
977.705	43.34
978.064	43.31
978.424	43.31
978.783	43.19
979.142	43.1
979.501	43.08
979.86	43.04
980.219	42.96
980.578	42.98
980.937	42.96
981.296	43.02
981.654	43.02
982.013	43.02
982.371	42.99
982.73	43.07
983.088	43.11
983.447	43.16
983.805	43.13
984.163	43.21
984.521	43.13
984.879	43.19
985.237	43.12
985.595	43.18
985.953	43.26
986.311	43.28
986.669	43.1
987.026	43.07
987.384	43.07
987.741	43.13
988.099	43.16
988.456	43.25
988.814	43.11
989.171	43.15
989.528	43.07
989.885	42.98
990.242	42.95
990.599	43.13
990.956	43.18
991.313	43.07
991.67	43.02
992.027	42.97
992.383	42.9
992.74	42.96
993.096	42.94
993.453	42.95
993.809	42.96
994.165	42.97
994.522	42.94
994.878	42.89
995.234	42.93
995.59	42.83
995.946	42.85
996.302	42.72
996.658	42.67
997.013	42.7
997.369	42.73
997.725	42.68
998.08	42.68
998.436	42.69
998.791	42.65
999.147	42.74
999.502	42.86
999.857	42.84
1000.212	42.97
1000.567	43.02
1000.922	42.91
1001.277	42.8
1001.632	42.92
1001.987	42.91
1002.342	42.95
1002.696	42.93
1003.051	42.79
1003.406	42.6
1003.76	42.49
1004.114	42.43
1004.469	42.24
1004.823	42.39
1005.177	42.53
1005.531	42.38
1005.885	42.29
1006.239	42.13
1006.593	42.05
1006.947	41.97
1007.301	41.98
1007.655	41.96
1008.008	41.92
1008.362	41.82
1008.715	41.74
1009.069	41.35
1009.422	41.36
1009.776	41.19
1010.129	41.09
1010.482	41.25
1010.835	41.38
1011.188	41.27
1011.541	41.12
1011.894	41.09
1012.247	41.19
1012.6	41.03
1012.952	41.08
1013.305	41.08
1013.657	41.13
1014.01	41.22
1014.362	41.28
1014.715	41.17
1015.067	41.31
1015.419	41.47
1015.771	41.48
1016.123	41.4
1016.475	41.41
1016.827	41.71
1017.179	41.65
1017.531	41.67
1017.883	41.47
1018.234	41.24
1018.586	41.01
1018.938	40.6
1019.289	40.2
1019.64	40.41
1019.992	40.56
1020.343	40.37
1020.694	39.78
1021.045	39.69
1021.396	39.82
1021.747	39.89
1022.098	39.83
1022.449	39.81
1022.8	40.04
1023.151	40.28
1023.501	39.96
1023.852	39.97
1024.202	40.2
1024.553	40.18
1024.903	40.15
1025.253	39.9
1025.604	39.97
1025.954	39.62
1026.304	40.2
1026.654	40.45
1027.004	40.56
1027.354	40.46
1027.703	40.31
1028.053	39.91
1028.403	40.17
1028.753	40.49
1029.102	40.32
1029.452	39.94
1029.801	39.91
1030.15	39.46
1030.499	39.08
897.758	771.51
901.051	775.82
904.343	784.61
907.636	770.55
910.928	755.97
914.22	769.93
917.511	755.2
920.803	723.23
924.094	690.11
927.384	692.72
930.675	671.14
933.965	665.45
937.255	661.99
940.544	632.93
943.834	603.49
947.123	596.17
950.411	560.26
953.7	549.33
956.988	532.14
960.276	511.87
963.563	502.08
966.851	474.38
970.138	465.23
973.424	434.49
976.711	426.63
979.997	414.09
983.283	402.76
986.568	391.31
989.853	377.61
993.138	362.82
996.423	357.11
999.708	346.19
1002.992	347.46
1006.275	336.09
1009.559	334.41
1012.842	322.9
1016.125	311.3
1019.408	305.33
1022.69	301.96
1025.972	299.8
1029.254	292.22
1032.536	285.99
1035.817	277.31
1039.098	271.79
1042.379	265.95
1045.659	261.04
1048.939	260.59
1052.219	255.87
1055.498	250.39
1058.778	245.32
1062.057	240.93
1065.335	239.4
1068.614	234.78
1071.892	231.77
1075.17	226.03
1078.447	221.91
1081.724	220.79
1085.001	215.6
1088.278	213.53
1091.554	213.01
1094.83	212.79
1098.106	207.75
1101.382	206.89
1104.657	206.56
1107.932	205.3
1111.206	204.99
1114.481	202.49
1117.755	199.98
1121.029	199.13
1124.302	196.61
1127.575	192.89
1130.848	191.37
1134.121	189.5
1137.393	188.61
1140.665	186.39
1143.937	184.3
1147.208	181.5
1150.48	180.04
1153.75	179.46
1157.021	176.13
1160.291	176.14
1163.561	175.76
1166.831	174.49
1170.101	174.48
1173.37	171.71
1176.639	170.15
1179.907	170.52
1183.176	169.98
1186.444	170.79
1189.711	169.38
1192.979	171.91
1196.246	171.48
1199.513	170.43
1202.78	170.82
1206.046	170.6
1209.312	172.61
1212.578	173.79
1215.843	175.88
1219.108	177.34
1222.373	180.48
1225.638	183.19
1228.902	188.04
1232.166	194.24
1235.43	197.86
1238.693	203.64
1241.956	208.43
1245.219	214.82
1248.482	215.79
1251.744	215.09
1255.006	215.9
1258.268	210.6
1261.529	208.72
1264.79	202.52
1268.051	198.54
1271.312	195.67
1274.572	190.55
1277.832	185.97
1281.092	182.29
1284.351	178.92
1287.61	178.59
1290.869	177.68
1294.128	176.08
1297.386	175.95
1300.644	174.65
1303.902	173.46
1307.159	173.54
1310.416	174.96
1313.673	177.81
1316.93	179.29
1320.186	182.41
1323.442	185.23
1326.697	189.45
1329.953	191
1333.208	198.17
1336.463	208.01
1339.717	212.54
1342.972	224.02
1346.226	230.66
1349.479	232.41
1352.733	244.12
1355.986	249.81
1359.238	254.67
1362.491	257.83
1365.743	268.44
1368.995	270.32
1372.247	267.28
1375.498	267.19
1378.749	276.25
1382	276.17
1385.251	275.49
1388.501	273.63
1391.751	276.94
1395	276.46
1398.25	277.81
1401.499	277.77
1404.748	276.55
1407.996	271.86
1411.244	271.98
1414.492	266.78
1417.74	259.4
1420.987	254.19
1424.234	250.83
1427.481	241.84
1430.728	235.49
1433.974	226.59
1437.22	218.9
1440.465	211.06
1443.711	205.51
1446.956	200.01
1450.201	191.36
1453.445	182.78
1456.689	177.45
1459.933	171.71
1463.177	163.69
1466.42	160.39
1469.663	155.15
1472.906	150.77
1476.148	147.2
1479.391	143.33
1482.633	140.48
1485.874	137.04
1489.115	135.58
1492.356	132.41
1495.597	130.4
1498.838	129.17
1502.078	127.29
1505.318	126.99
1508.557	125.89
1511.797	123.38
1515.036	122.72
1518.274	121.83
1521.513	121.18
1524.751	119.83
1527.989	120.8
1531.227	119.68
1534.464	119.48
1537.701	118.51
1540.938	117.83
1544.174	117.56
1547.41	117.78
1550.646	117.39
1553.882	116.82
1557.117	115.91
1560.352	115.92
1563.587	114.22
1566.821	114.01
1570.055	112.95
1573.289	112.61
1576.523	112.99
1579.756	112.2
1582.989	111.75
1586.222	111.49
1589.454	111.13
1592.686	111.15
1595.918	110.92
1599.15	110.82
1602.381	111.02
1605.612	111.39
1608.843	111.44
1612.073	111.14
1615.303	111.32
1618.533	111.24
1621.762	111.59
1624.992	112.01
1628.221	111.51
1631.449	112.05
1634.678	111.83
1637.906	111.97
1641.134	112.24
1644.361	112.04
1647.588	112.4
1650.815	112.44
1654.042	112.53
1657.269	112
1660.495	112.46
1663.72	112.81
1666.946	112.87
1670.171	113.79
1673.396	114.3
1676.621	114.38
1679.845	114.71
1683.069	114.15
1686.293	114.3
1689.517	114.97
1692.74	115.37
1695.963	115.21
1699.185	116.19
1702.408	115.8
1705.63	116.33
1708.852	116.72
1712.073	116.47
1715.294	116.28
1718.515	117.12
1721.736	117.23
1724.956	117.01
1728.176	117.03
1731.396	117.76
1734.616	117.51
1737.835	118.22
1741.054	117.81
1744.272	117.46
1747.491	117.67
1750.709	119.04
1753.927	119.36
1757.144	119.75
1760.361	120.36
1763.578	120.86
1766.795	121.31
1770.011	121.82
1773.227	122.38
1776.443	123.45
1779.658	124.3
1782.874	125.78
1786.089	125.58
1789.303	125.92
1792.518	127.35
1795.732	128.41
1798.945	129.92
1802.159	129.86
1805.372	131.68
1808.585	132.96
1811.797	134.15
1815.01	134.9
1818.222	135.42
1821.434	137.3
1824.645	137.96
1827.856	140.03
1831.067	140.74
1834.278	141.97
1837.488	143.26
1840.698	144.36
1843.908	144.51
1847.117	146.28
1850.326	147.54
1853.535	149.13
1856.744	150.4
1859.952	152.87
1863.16	152.82
1866.368	152.74
1869.575	154.36
1872.782	155.11
1875.989	154.63
1879.196	154.03
1882.402	153.98
1885.608	154.97
1888.814	155.18
1892.019	157.22
1895.224	155.17
1898.429	157.5
1901.634	158.96
1904.838	159.83
1908.042	161.47
1911.246	161.36
1914.449	163.6
1917.652	162.96
1920.855	163.23
1924.058	162.38
1927.26	161.39
1930.462	162.63
1933.664	161.41
1936.865	162.18
1940.066	159.72
1943.267	159.13
1946.467	160.35
1949.668	160.24
1952.868	160.56
1956.067	160.74
1959.267	161.49
1962.466	162.69
1965.665	163.93
1968.863	164.42
1972.061	165.24
1975.259	169.36
1978.457	169.42
1981.654	171.45
1984.852	173.09
1988.048	174.96
1991.245	177.58
1994.441	181.44
1997.637	184.67
2000.833	188.54
2004.028	190.12
2007.223	195.04
2010.418	198.54
2013.613	208.12
2016.807	213.03
2020.001	217.23
2023.194	222.02
2026.388	229.74
2029.581	240.24
2032.774	247.69
2035.966	255.57
2039.158	263.16
2042.35	268.13
2045.542	272.88
2048.733	284.62
2051.924	286.29
2055.115	292.2
2058.306	296.34
2061.496	302.58
2064.686	302.04
2067.875	298.92
2071.065	299.69
2074.254	301.33
2077.442	311.39
2080.631	314.16
2083.819	312.79
2087.007	320.53
2090.195	324.32
2093.382	324.89
2096.569	323.71
2099.756	330.01
2102.942	338.39
2106.128	347.71
2109.314	347.81
2112.5	345.94
2115.685	345.83
2118.87	345.34
2122.055	348.89
2125.239	355.31
2128.424	365.03
2131.608	363.25
2134.791	364.87
2137.974	364.82
2141.157	367.07
2144.34	373.27
2147.523	377.05
2150.705	384.84
2153.887	384.04
2157.068	386.51
2160.25	390.16
2163.431	387.12
2166.611	394.34
2169.792	400.75
2172.972	408.07
2176.152	406.56
2179.331	415.57
2182.511	418.9
2185.69	425.72
2188.868	439.97
2192.047	450.98
2195.225	455.98
2198.403	467.99
2201.58	461
2204.758	475.36
2207.935	479.31
2211.111	492.8
2214.288	494.25
2217.464	498.89
2220.64	499.36
2223.815	503.79
2226.991	493.04
2230.166	498.71
2233.34	512.02
2236.515	528.47
2239.689	518.67
2242.863	528.9
2246.036	519.91
2249.209	537.99
2252.382	537.15
2255.555	557.75
2258.727	558.22
2261.9	586.19
2265.071	593.38
2268.243	581.67
2271.414	601
2274.585	614.78
2277.756	611.44
2280.926	639.93
2284.096	636.73
2287.266	640.05
2290.436	627.44
2293.605	641.17
2296.774	657.76
2299.942	656.39
2303.111	686.42
2306.279	693.14
2309.447	698.54
2312.614	703.47
2315.781	720.19
2318.948	724
2322.115	740.6
2325.281	779.73
2328.447	776.05
2331.613	780.05
2334.779	796.31
2337.944	798.71
2341.109	820.73
2344.274	827.84
2347.438	852.61
2350.602	862.2
2353.766	925.29
2356.929	927.89
2360.092	938.97
2363.255	944.26
2366.418	954.11
2369.58	979.41
2372.742	975
2375.904	967.19
2379.066	997.94
2382.227	1048.76
2385.388	1054.87
2388.548	994.13
2391.709	984.32
2394.869	1017.17
2398.029	1020.76
2401.188	1016.69
2404.347	1043.23
2407.506	1083.54
2410.665	1043.69
2413.823	1046.19
2416.981	1048.43
2420.139	985.74
2423.296	1070.29
2426.453	1141.48
2429.61	1088.81
2432.767	1162.5
2435.923	1206.93
2439.079	1157.2
2442.235	1186.89
2445.391	1214
2448.546	1206.04
2451.701	1280
2454.855	1375.96
2458.009	1207.48
2461.163	1230.9
2464.317	1234.05
2467.471	1213.36
2470.624	1255.86
2473.777	1231.12
2476.929	1190.51
2480.082	1272.49
2483.234	1332.73
2486.385	1346.12
2489.537	1377.94
2492.688	1528.39
2495.839	1481.78
2498.989	1536.75
2502.14	1533.29
2505.29	1462.47
2508.439	1642.11
2511.589	1682.55
2514.738	1636.33
2517.887	1617.44
2521.035	1506.75
2524.183	1490.01
2527.331	1468.99
2530.479	1448.61
2533.627	1480.19
