Data from N_2_dec_oh_4n_045_Splice17_18.txt Node
Date: Sat Feb 29 13:55:00 EST 2020
User: sa697716
Spectrometer: FLMS03696
Trigger mode: 0
Integration Time (sec): 3.180400E-1
Scans to average: 20
Electric dark correction enabled: true
Nonlinearity correction enabled: true
Boxcar width: 5
XAxis mode: Wavelengths
Number of Pixels in Spectrum: 2048
>>>>>Begin Spectral Data<<<<<
187.83	87.01
188.298	88.99
188.766	99.94
189.233	104.1
189.701	113.01
190.169	103.26
190.636	104.75
191.104	100.62
191.571	290.4
192.039	228.5
192.506	-159.13
192.974	3043.95
193.441	-451.14
193.908	196.05
194.375	309.82
194.842	396.36
195.31	169.45
195.777	189.06
196.244	54.45
196.711	31.59
197.177	28.04
197.644	27.19
198.111	26.98
198.578	26.5
199.045	26.96
199.511	27.38
199.978	28.23
200.445	28.47
200.911	28.76
201.378	28.89
201.844	29.71
202.31	30.21
202.777	30.45
203.243	31.04
203.709	31.26
204.176	30.62
204.642	30.78
205.108	30.76
205.574	31.09
206.04	30.62
206.506	30.43
206.972	30.18
207.438	29.66
207.903	29.94
208.369	29.71
208.835	29.75
209.301	29.94
209.766	29.77
210.232	29.37
210.697	29.26
211.163	29.28
211.628	28.84
212.094	28.34
212.559	28.09
213.024	27.1
213.49	26.51
213.955	25.98
214.42	25.32
214.885	24.56
215.35	23.64
215.815	22.21
216.28	21.18
216.745	20.25
217.21	19.31
217.675	18.31
218.14	17.25
218.604	16.32
219.069	15.55
219.534	14.87
219.998	14.3
220.463	13.94
220.927	13.55
221.392	13.17
221.856	12.79
222.32	12.48
222.785	12.16
223.249	12
223.713	11.82
224.177	11.57
224.642	11.39
225.106	11.19
225.57	10.95
226.034	10.81
226.497	10.63
226.961	10.52
227.425	10.35
227.889	10.21
228.353	10.06
228.816	9.92
229.28	9.79
229.744	9.66
230.207	9.56
230.671	9.41
231.134	9.28
231.597	9.16
232.061	9.03
232.524	8.93
232.987	8.84
233.45	8.72
233.914	8.62
234.377	8.52
234.84	8.43
235.303	8.34
235.766	8.27
236.229	8.21
236.691	8.13
237.154	8.05
237.617	7.97
238.08	7.88
238.542	7.83
239.005	7.74
239.468	7.66
239.93	7.58
240.393	7.5
240.855	7.42
241.317	7.34
241.78	7.27
242.242	7.21
242.704	7.13
243.166	7.06
243.629	6.99
244.091	6.93
244.553	6.87
245.015	6.81
245.477	6.74
245.939	6.69
246.4	6.63
246.862	6.58
247.324	6.53
247.786	6.49
248.247	6.44
248.709	6.38
249.17	6.34
249.632	6.28
250.093	6.22
250.555	6.2
251.016	6.16
251.477	6.1
251.939	6.07
252.4	6.03
252.861	5.98
253.322	5.94
253.783	5.92
254.244	5.88
254.705	5.87
255.166	5.85
255.627	5.81
256.088	5.78
256.549	5.77
257.009	5.73
257.47	5.69
257.931	5.66
258.391	5.63
258.852	5.59
259.312	5.57
259.773	5.53
260.233	5.49
260.694	5.45
261.154	5.41
261.614	5.38
262.074	5.35
262.534	5.3
262.994	5.27
263.455	5.24
263.915	5.21
264.374	5.18
264.834	5.16
265.294	5.13
265.754	5.1
266.214	5.08
266.673	5.05
267.133	5.03
267.593	5.01
268.052	4.99
268.512	4.97
268.971	4.96
269.431	4.94
269.89	4.91
270.349	4.9
270.809	4.9
271.268	4.88
271.727	4.87
272.186	4.86
272.645	4.84
273.104	4.83
273.563	4.82
274.022	4.8
274.481	4.79
274.94	4.78
275.399	4.76
275.857	4.75
276.316	4.73
276.775	4.71
277.233	4.69
277.692	4.67
278.15	4.65
278.609	4.63
279.067	4.61
279.525	4.59
279.984	4.57
280.442	4.56
280.9	4.55
281.358	4.53
281.816	4.52
282.274	4.51
282.732	4.5
283.19	4.49
283.648	4.48
284.106	4.46
284.564	4.46
285.021	4.46
285.479	4.45
285.937	4.43
286.394	4.42
286.852	4.41
287.309	4.4
287.767	4.38
288.224	4.37
288.682	4.35
289.139	4.35
289.596	4.33
290.053	4.3
290.511	4.28
290.968	4.26
291.425	4.24
291.882	4.22
292.339	4.2
292.796	4.19
293.252	4.17
293.709	4.16
294.166	4.14
294.623	4.13
295.079	4.11
295.536	4.1
295.992	4.09
296.449	4.08
296.905	4.07
297.362	4.06
297.818	4.05
298.274	4.03
298.731	4.03
299.187	4.02
299.643	4.01
300.099	4.01
300.555	3.99
301.011	3.99
301.467	3.98
301.923	3.97
302.379	3.97
302.835	3.96
303.291	3.95
303.746	3.94
304.202	3.93
304.658	3.92
305.113	3.91
305.569	3.91
306.024	3.9
306.479	3.89
306.935	3.88
307.39	3.87
307.845	3.87
308.301	3.87
308.756	3.87
309.211	3.87
309.666	3.86
310.121	3.86
310.576	3.84
311.031	3.83
311.486	3.83
311.94	3.82
312.395	3.83
312.85	3.82
313.305	3.81
313.759	3.8
314.214	3.8
314.668	3.8
315.123	3.8
315.577	3.8
316.032	3.8
316.486	3.78
316.94	3.78
317.394	3.77
317.849	3.75
318.303	3.75
318.757	3.74
319.211	3.72
319.665	3.71
320.119	3.69
320.572	3.69
321.026	3.68
321.48	3.67
321.934	3.67
322.387	3.67
322.841	3.67
323.295	3.66
323.748	3.65
324.202	3.66
324.655	3.66
325.108	3.65
325.562	3.63
326.015	3.62
326.468	3.61
326.921	3.6
327.374	3.58
327.827	3.57
328.28	3.55
328.733	3.54
329.186	3.53
329.639	3.52
330.092	3.51
330.545	3.51
330.997	3.51
331.45	3.51
331.903	3.5
332.355	3.49
332.808	3.5
333.26	3.5
333.713	3.5
334.165	3.5
334.617	3.5
335.069	3.5
335.522	3.5
335.974	3.5
336.426	3.5
336.878	3.5
337.33	3.49
337.782	3.49
338.234	3.49
338.686	3.49
339.137	3.49
339.589	3.49
340.041	3.49
340.493	3.47
340.944	3.47
341.396	3.46
341.847	3.45
342.299	3.43
342.75	3.41
343.201	3.39
343.653	3.38
344.104	3.36
344.555	3.35
345.006	3.33
345.457	3.33
345.908	3.32
346.359	3.31
346.81	3.32
347.261	3.31
347.712	3.31
348.163	3.31
348.613	3.31
349.064	3.29
349.515	3.29
349.965	3.29
350.416	3.28
350.866	3.27
351.317	3.27
351.767	3.26
352.217	3.27
352.668	3.27
353.118	3.27
353.568	3.29
354.018	3.3
354.468	3.3
354.918	3.31
355.368	3.32
355.818	3.32
356.268	3.32
356.718	3.32
357.168	3.3
357.617	3.31
358.067	3.29
358.517	3.29
358.966	3.29
359.416	3.29
359.865	3.29
360.315	3.29
360.764	3.31
361.213	3.3
361.663	3.3
362.112	3.31
362.561	3.31
363.01	3.32
363.459	3.31
363.908	3.3
364.357	3.3
364.806	3.3
365.255	3.3
365.703	3.3
366.152	3.3
366.601	3.3
367.05	3.3
367.498	3.3
367.947	3.31
368.395	3.32
368.844	3.33
369.292	3.32
369.74	3.33
370.189	3.33
370.637	3.34
371.085	3.35
371.533	3.36
371.981	3.37
372.429	3.36
372.877	3.36
373.325	3.36
373.773	3.37
374.221	3.38
374.669	3.37
375.116	3.37
375.564	3.37
376.012	3.37
376.459	3.38
376.907	3.39
377.354	3.4
377.801	3.41
378.249	3.41
378.696	3.41
379.143	3.42
379.591	3.43
380.038	3.45
380.485	3.46
380.932	3.46
381.379	3.46
381.826	3.47
382.273	3.48
382.72	3.49
383.166	3.5
383.613	3.51
384.06	3.52
384.506	3.52
384.953	3.52
385.4	3.53
385.846	3.54
386.292	3.55
386.739	3.56
387.185	3.58
387.631	3.59
388.078	3.61
388.524	3.6
388.97	3.62
389.416	3.62
389.862	3.64
390.308	3.64
390.754	3.66
391.2	3.67
391.645	3.69
392.091	3.69
392.537	3.7
392.983	3.72
393.428	3.74
393.874	3.76
394.319	3.77
394.765	3.78
395.21	3.79
395.655	3.8
396.101	3.82
396.546	3.83
396.991	3.85
397.436	3.85
397.881	3.87
398.326	3.88
398.771	3.9
399.216	3.92
399.661	3.95
400.106	3.96
400.551	3.96
400.995	3.95
401.44	3.96
401.885	3.96
402.329	3.98
402.774	3.98
403.218	3.98
403.663	3.97
404.107	3.98
404.551	3.99
404.995	4.01
405.44	4.02
405.884	4.04
406.328	4.03
406.772	4.05
407.216	4.06
407.66	4.06
408.104	4.07
408.547	4.09
408.991	4.08
409.435	4.07
409.879	4.06
410.322	4.08
410.766	4.09
411.209	4.11
411.653	4.1
412.096	4.1
412.54	4.11
412.983	4.12
413.426	4.12
413.869	4.15
414.312	4.17
414.756	4.19
415.199	4.2
415.642	4.21
416.085	4.21
416.527	4.24
416.97	4.25
417.413	4.25
417.856	4.24
418.298	4.24
418.741	4.25
419.184	4.25
419.626	4.23
420.069	4.23
420.511	4.23
420.953	4.24
421.396	4.23
421.838	4.26
422.28	4.27
422.722	4.29
423.164	4.31
423.606	4.3
424.048	4.29
424.49	4.32
424.932	4.31
425.374	4.3
425.816	4.29
426.258	4.29
426.699	4.26
427.141	4.24
427.582	4.24
428.024	4.24
428.465	4.24
428.907	4.26
429.348	4.24
429.789	4.27
430.231	4.28
430.672	4.29
431.113	4.3
431.554	4.32
431.995	4.34
432.436	4.35
432.877	4.33
433.318	4.34
433.759	4.35
434.2	4.38
434.64	4.38
435.081	4.38
435.522	4.41
435.962	4.43
436.403	4.44
436.843	4.46
437.284	4.46
437.724	4.5
438.164	4.52
438.604	4.52
439.045	4.51
439.485	4.52
439.925	4.52
440.365	4.5
440.805	4.49
441.245	4.48
441.685	4.49
442.125	4.51
442.564	4.51
443.004	4.51
443.444	4.53
443.883	4.54
444.323	4.53
444.762	4.56
445.202	4.6
445.641	4.62
446.081	4.67
446.52	4.66
446.959	4.65
447.398	4.67
447.837	4.7
448.276	4.71
448.716	4.74
449.154	4.77
449.593	4.79
450.032	4.76
450.471	4.76
450.91	4.72
451.349	4.73
451.787	4.73
452.226	4.7
452.664	4.67
453.103	4.65
453.541	4.63
453.98	4.6
454.418	4.56
454.856	4.55
455.295	4.53
455.733	4.53
456.171	4.52
456.609	4.55
457.047	4.53
457.485	4.52
457.923	4.52
458.361	4.51
458.798	4.53
459.236	4.53
459.674	4.54
460.111	4.54
460.549	4.55
460.987	4.55
461.424	4.53
461.862	4.54
462.299	4.54
462.736	4.55
463.173	4.56
463.611	4.56
464.048	4.59
464.485	4.6
464.922	4.6
465.359	4.61
465.796	4.63
466.233	4.63
466.67	4.65
467.106	4.66
467.543	4.67
467.98	4.68
468.416	4.68
468.853	4.67
469.29	4.66
469.726	4.67
470.162	4.65
470.599	4.63
471.035	4.63
471.471	4.62
471.907	4.62
472.344	4.61
472.78	4.6
473.216	4.58
473.652	4.58
474.088	4.58
474.523	4.57
474.959	4.56
475.395	4.56
475.831	4.54
476.266	4.54
476.702	4.52
477.138	4.49
477.573	4.46
478.008	4.47
478.444	4.44
478.879	4.43
479.314	4.41
479.75	4.42
480.185	4.4
480.62	4.4
481.055	4.39
481.49	4.38
481.925	4.38
482.36	4.38
482.795	4.36
483.229	4.37
483.664	4.36
484.099	4.36
484.534	4.35
484.968	4.35
485.403	4.35
485.837	4.35
486.271	4.35
486.706	4.34
487.14	4.35
487.574	4.35
488.009	4.35
488.443	4.36
488.877	4.36
489.311	4.37
489.745	4.37
490.179	4.38
490.613	4.38
491.046	4.4
491.48	4.42
491.914	4.44
492.348	4.46
492.781	4.47
493.215	4.48
493.648	4.5
494.082	4.53
494.515	4.56
494.948	4.57
495.382	4.6
495.815	4.63
496.248	4.66
496.681	4.68
497.114	4.71
497.547	4.75
497.98	4.8
498.413	4.84
498.846	4.87
499.279	4.92
499.711	4.96
500.144	5.01
500.577	5.06
501.009	5.12
501.442	5.18
501.874	5.25
502.306	5.32
502.739	5.38
503.171	5.47
503.603	5.57
504.036	5.66
504.468	5.76
504.9	5.87
505.332	5.99
505.764	6.11
506.196	6.24
506.627	6.37
507.059	6.5
507.491	6.65
507.923	6.79
508.354	6.93
508.786	7.08
509.217	7.23
509.649	7.41
510.08	7.58
510.512	7.75
510.943	7.95
511.374	8.15
511.805	8.36
512.237	8.58
512.668	8.8
513.099	9.04
513.53	9.3
513.961	9.55
514.391	9.79
514.822	10.05
515.253	10.32
515.684	10.58
516.114	10.86
516.545	11.15
516.975	11.44
517.406	11.73
517.836	12.03
518.267	12.34
518.697	12.65
519.127	12.97
519.558	13.27
519.988	13.57
520.418	13.87
520.848	14.17
521.278	14.48
521.708	14.8
522.138	15.1
522.567	15.39
522.997	15.67
523.427	15.95
523.857	16.22
524.286	16.5
524.716	16.78
525.145	17.06
525.575	17.33
526.004	17.58
526.433	17.79
526.863	18.03
527.292	18.25
527.721	18.47
528.15	18.69
528.579	18.9
529.008	19.09
529.437	19.28
529.866	19.45
530.295	19.62
530.724	19.79
531.152	19.96
531.581	20.11
532.01	20.25
532.438	20.41
532.867	20.53
533.295	20.66
533.723	20.79
534.152	20.88
534.58	20.98
535.008	21.05
535.436	21.12
535.865	21.19
536.293	21.27
536.721	21.35
537.149	21.4
537.576	21.46
538.004	21.52
538.432	21.56
538.86	21.61
539.287	21.67
539.715	21.72
540.143	21.77
540.57	21.81
540.998	21.87
541.425	21.92
541.852	21.96
542.28	21.99
542.707	22.03
543.134	22.07
543.561	22.1
543.988	22.12
544.415	22.17
544.842	22.22
545.269	22.27
545.696	22.28
546.123	22.28
546.549	22.32
546.976	22.36
547.403	22.37
547.829	22.38
548.256	22.42
548.682	22.42
549.108	22.44
549.535	22.43
549.961	22.43
550.387	22.43
550.813	22.43
551.24	22.41
551.666	22.41
552.092	22.39
552.518	22.39
552.943	22.36
553.369	22.36
553.795	22.33
554.221	22.29
554.646	22.23
555.072	22.18
555.498	22.12
555.923	22.05
556.349	21.96
556.774	21.88
557.199	21.78
557.625	21.7
558.05	21.59
558.475	21.48
558.9	21.37
559.325	21.25
559.75	21.12
560.175	20.99
560.6	20.87
561.025	20.72
561.449	20.56
561.874	20.39
562.299	20.23
562.723	20.06
563.148	19.89
563.572	19.72
563.997	19.56
564.421	19.39
564.846	19.21
565.27	19.03
565.694	18.85
566.118	18.69
566.542	18.51
566.966	18.33
567.39	18.14
567.814	17.94
568.238	17.74
568.662	17.54
569.086	17.35
569.509	17.17
569.933	16.97
570.357	16.78
570.78	16.59
571.204	16.41
571.627	16.22
572.05	16.05
572.474	15.86
572.897	15.69
573.32	15.53
573.743	15.36
574.166	15.21
574.589	15.04
575.012	14.89
575.435	14.73
575.858	14.6
576.281	14.47
576.704	14.33
577.126	14.21
577.549	14.11
577.972	13.99
578.394	13.87
578.817	13.75
579.239	13.66
579.661	13.55
580.084	13.44
580.506	13.35
580.928	13.26
581.35	13.17
581.772	13.1
582.194	12.99
582.616	12.9
583.038	12.83
583.46	12.75
583.882	12.67
584.303	12.61
584.725	12.55
585.147	12.46
585.568	12.38
585.99	12.31
586.411	12.22
586.833	12.17
587.254	12.12
587.675	12.05
588.096	12.01
588.518	11.95
588.939	11.9
589.36	11.83
589.781	11.79
590.202	11.74
590.623	11.7
591.043	11.67
591.464	11.62
591.885	11.59
592.305	11.55
592.726	11.5
593.147	11.48
593.567	11.43
593.987	11.4
594.408	11.37
594.828	11.34
595.248	11.3
595.669	11.27
596.089	11.23
596.509	11.18
596.929	11.14
597.349	11.1
597.769	11.05
598.189	11.02
598.608	10.99
599.028	10.94
599.448	10.92
599.867	10.87
600.287	10.83
600.706	10.8
601.126	10.76
601.545	10.72
601.965	10.67
602.384	10.63
602.803	10.57
603.222	10.52
603.641	10.47
604.061	10.39
604.48	10.34
604.898	10.28
605.317	10.2
605.736	10.15
606.155	10.08
606.574	10.01
606.992	9.93
607.411	9.87
607.829	9.76
608.248	9.69
608.666	9.61
609.085	9.54
609.503	9.47
609.921	9.4
610.339	9.33
610.758	9.26
611.176	9.18
611.594	9.13
612.012	9.05
612.43	9.02
612.847	8.95
613.265	8.9
613.683	8.83
614.101	8.77
614.518	8.71
614.936	8.65
615.353	8.58
615.771	8.53
616.188	8.47
616.606	8.41
617.023	8.35
617.44	8.3
617.857	8.23
618.274	8.19
618.691	8.15
619.108	8.12
619.525	8.08
619.942	8.05
620.359	8.03
620.776	8
621.192	7.98
621.609	7.96
622.026	7.94
622.442	7.92
622.859	7.91
623.275	7.91
623.691	7.89
624.108	7.87
624.524	7.86
624.94	7.84
625.356	7.83
625.772	7.82
626.188	7.82
626.604	7.81
627.02	7.81
627.436	7.81
627.852	7.78
628.268	7.77
628.683	7.75
629.099	7.75
629.514	7.75
629.93	7.73
630.345	7.71
630.761	7.69
631.176	7.66
631.591	7.63
632.007	7.6
632.422	7.56
632.837	7.52
633.252	7.48
633.667	7.42
634.082	7.37
634.497	7.31
634.911	7.26
635.326	7.2
635.741	7.14
636.155	7.07
636.57	6.99
636.984	6.92
637.399	6.84
637.813	6.77
638.228	6.7
638.642	6.62
639.056	6.54
639.47	6.45
639.884	6.37
640.298	6.3
640.712	6.22
641.126	6.15
641.54	6.06
641.954	6
642.368	5.94
642.781	5.87
643.195	5.78
643.609	5.72
644.022	5.67
644.436	5.62
644.849	5.55
645.262	5.5
645.676	5.44
646.089	5.39
646.502	5.33
646.915	5.28
647.328	5.24
647.741	5.21
648.154	5.18
648.567	5.15
648.98	5.12
649.393	5.1
649.805	5.07
650.218	5.06
650.631	5.04
651.043	5.02
651.456	5
651.868	4.98
652.28	4.96
652.693	4.93
653.105	4.9
653.517	4.87
653.929	4.85
654.341	4.85
654.753	4.81
655.165	4.79
655.577	4.77
655.989	4.73
656.401	4.7
656.813	4.67
657.224	4.63
657.636	4.61
658.047	4.57
658.459	4.54
658.87	4.49
659.282	4.48
659.693	4.45
660.104	4.42
660.515	4.41
660.926	4.38
661.338	4.35
661.749	4.33
662.159	4.31
662.57	4.3
662.981	4.28
663.392	4.26
663.803	4.25
664.213	4.23
664.624	4.22
665.035	4.21
665.445	4.21
665.855	4.21
666.266	4.21
666.676	4.21
667.086	4.19
667.497	4.18
667.907	4.19
668.317	4.18
668.727	4.18
669.137	4.19
669.547	4.21
669.956	4.22
670.366	4.23
670.776	4.24
671.186	4.26
671.595	4.29
672.005	4.33
672.414	4.35
672.824	4.38
673.233	4.42
673.642	4.43
674.052	4.45
674.461	4.48
674.87	4.5
675.279	4.53
675.688	4.55
676.097	4.56
676.506	4.59
676.915	4.63
677.323	4.67
677.732	4.71
678.141	4.76
678.549	4.79
678.958	4.83
679.366	4.86
679.775	4.9
680.183	4.96
680.592	5
681	5.04
681.408	5.08
681.816	5.1
682.224	5.15
682.632	5.19
683.04	5.25
683.448	5.32
683.856	5.4
684.264	5.47
684.671	5.53
685.079	5.62
685.487	5.73
685.894	5.86
686.302	5.98
686.709	6.13
687.116	6.29
687.524	6.48
687.931	6.68
688.338	6.92
688.745	7.19
689.152	7.48
689.559	7.8
689.966	8.13
690.373	8.52
690.78	8.92
691.187	9.35
691.593	9.8
692	10.29
692.407	10.8
692.813	11.34
693.22	11.89
693.626	12.48
694.032	13.1
694.439	13.74
694.845	14.38
695.251	15.08
695.657	15.75
696.063	16.46
696.469	17.17
696.875	17.89
697.281	18.6
697.687	19.37
698.093	20.12
698.498	20.88
698.904	21.65
699.31	22.4
699.715	23.15
700.12	23.9
700.526	24.64
700.931	25.4
701.337	26.16
701.742	26.89
702.147	27.62
702.552	28.34
702.957	29.04
703.362	29.76
703.767	30.48
704.172	31.19
704.577	31.91
704.981	32.62
705.386	33.36
705.791	34.08
706.195	34.8
706.6	35.48
707.004	36.17
707.408	36.89
707.813	37.54
708.217	38.18
708.621	38.83
709.025	39.5
709.43	40.14
709.834	40.79
710.237	41.4
710.641	42.04
711.045	42.63
711.449	43.26
711.853	43.84
712.256	44.47
712.66	45.11
713.064	45.73
713.467	46.34
713.87	46.94
714.274	47.52
714.677	48.12
715.08	48.69
715.484	49.28
715.887	49.84
716.29	50.39
716.693	50.93
717.096	51.46
717.499	51.98
717.901	52.47
718.304	52.96
718.707	53.44
719.109	53.92
719.512	54.41
719.915	54.87
720.317	55.35
720.719	55.8
721.122	56.25
721.524	56.73
721.926	57.18
722.328	57.62
722.731	58.04
723.133	58.48
723.535	58.9
723.937	59.31
724.338	59.7
724.74	60.1
725.142	60.46
725.544	60.81
725.945	61.15
726.347	61.5
726.748	61.77
727.15	62.07
727.551	62.35
727.952	62.62
728.354	62.9
728.755	63.18
729.156	63.45
729.557	63.73
729.958	63.99
730.359	64.21
730.76	64.37
731.161	64.66
731.562	64.9
731.962	65.09
732.363	65.28
732.763	65.51
733.164	65.67
733.564	65.86
733.965	65.99
734.365	66.16
734.766	66.34
735.166	66.5
735.566	66.62
735.966	66.72
736.366	66.85
736.766	66.98
737.166	67.08
737.566	67.19
737.966	67.27
738.365	67.38
738.765	67.48
739.165	67.55
739.564	67.68
739.964	67.77
740.363	67.87
740.763	67.94
741.162	68.02
741.561	68.11
741.96	68.21
742.36	68.29
742.759	68.36
743.158	68.41
743.557	68.48
743.955	68.56
744.354	68.61
744.753	68.71
745.152	68.79
745.55	68.86
745.949	68.89
746.348	68.9
746.746	68.94
747.144	69.05
747.543	69.15
747.941	69.23
748.339	69.29
748.737	69.37
749.136	69.43
749.534	69.49
749.932	69.51
750.33	69.6
750.727	69.67
751.125	69.74
751.523	69.72
751.921	69.75
752.318	69.74
752.716	69.73
753.113	69.74
753.511	69.73
753.908	69.72
754.305	69.75
754.703	69.71
755.1	69.74
755.497	69.73
755.894	69.75
756.291	69.72
756.688	69.75
757.085	69.75
757.482	69.74
757.878	69.76
758.275	69.84
758.672	69.86
759.068	69.89
759.465	69.88
759.861	69.89
760.258	69.87
760.654	69.89
761.05	69.91
761.447	69.91
761.843	69.9
762.239	69.87
762.635	69.82
763.031	69.82
763.427	69.8
763.822	69.77
764.218	69.75
764.614	69.73
765.01	69.73
765.405	69.71
765.801	69.68
766.196	69.66
766.592	69.67
766.987	69.71
767.382	69.69
767.778	69.71
768.173	69.71
768.568	69.68
768.963	69.69
769.358	69.72
769.753	69.72
770.148	69.74
770.542	69.78
770.937	69.77
771.332	69.73
771.726	69.71
772.121	69.65
772.515	69.69
772.91	69.73
773.304	69.75
773.699	69.7
774.093	69.65
774.487	69.65
774.881	69.64
775.275	69.64
775.669	69.65
776.063	69.64
776.457	69.64
776.851	69.6
777.245	69.6
777.638	69.54
778.032	69.53
778.425	69.57
778.819	69.6
779.212	69.55
779.606	69.53
779.999	69.52
780.392	69.5
780.786	69.47
781.179	69.47
781.572	69.49
781.965	69.53
782.358	69.54
782.751	69.54
783.143	69.53
783.536	69.59
783.929	69.62
784.322	69.65
784.714	69.68
785.107	69.78
785.499	69.82
785.891	69.84
786.284	69.83
786.676	69.88
787.068	69.91
787.46	69.89
787.852	69.88
788.245	69.89
788.636	69.86
789.028	69.87
789.42	69.84
789.812	69.78
790.204	69.72
790.595	69.72
790.987	69.68
791.378	69.71
791.77	69.77
792.161	69.77
792.553	69.79
792.944	69.82
793.335	69.84
793.726	69.82
794.117	69.83
794.508	69.88
794.899	69.88
795.29	69.92
795.681	69.88
796.072	69.81
796.463	69.81
796.853	69.78
797.244	69.77
797.634	69.74
798.025	69.77
798.415	69.8
798.806	69.84
799.196	69.86
799.586	69.86
799.976	69.87
800.366	69.9
800.756	69.89
801.146	69.89
801.536	69.88
801.926	69.89
802.316	69.91
802.706	69.93
803.095	69.89
803.485	69.93
803.874	69.93
804.264	69.95
804.653	69.93
805.043	69.92
805.432	69.87
805.821	69.89
806.21	69.94
806.599	69.96
806.988	69.91
807.377	69.94
807.766	69.93
808.155	69.95
808.544	69.91
808.933	69.92
809.321	69.98
809.71	70.06
810.098	70.02
810.487	70.02
810.875	69.99
811.264	70.06
811.652	70.07
812.04	70.08
812.428	70.09
812.816	70.14
813.204	70.13
813.592	70.1
813.98	70.09
814.368	70.15
814.756	70.13
815.144	70.14
815.531	70.12
815.919	70.07
816.306	70.03
816.694	70.05
817.081	70.04
817.469	70.1
817.856	70.16
818.243	70.16
818.63	70.22
819.017	70.25
819.404	70.25
819.791	70.26
820.178	70.33
820.565	70.36
820.952	70.35
821.339	70.37
821.725	70.39
822.112	70.39
822.498	70.43
822.885	70.38
823.271	70.41
823.657	70.43
824.044	70.45
824.43	70.49
824.816	70.51
825.202	70.52
825.588	70.54
825.974	70.54
826.36	70.54
826.746	70.58
827.132	70.59
827.517	70.59
827.903	70.57
828.289	70.56
828.674	70.53
829.06	70.53
829.445	70.55
829.83	70.53
830.216	70.53
830.601	70.49
830.986	70.45
831.371	70.49
831.756	70.46
832.141	70.5
832.526	70.5
832.911	70.51
833.295	70.53
833.68	70.5
834.065	70.56
834.449	70.55
834.834	70.56
835.218	70.58
835.603	70.57
835.987	70.55
836.371	70.55
836.755	70.55
837.139	70.55
837.524	70.51
837.908	70.53
838.291	70.46
838.675	70.47
839.059	70.47
839.443	70.46
839.827	70.44
840.21	70.48
840.594	70.45
840.977	70.39
841.361	70.39
841.744	70.42
842.127	70.38
842.511	70.37
842.894	70.35
843.277	70.35
843.66	70.33
844.043	70.34
844.426	70.33
844.809	70.33
845.191	70.33
845.574	70.31
845.957	70.25
846.339	70.28
846.722	70.29
847.104	70.31
847.487	70.34
847.869	70.33
848.252	70.29
848.634	70.27
849.016	70.27
849.398	70.32
849.78	70.32
850.162	70.36
850.544	70.38
850.926	70.38
851.307	70.37
851.689	70.35
852.071	70.36
852.452	70.37
852.834	70.38
853.215	70.42
853.597	70.42
853.978	70.39
854.359	70.36
854.741	70.33
855.122	70.33
855.503	70.36
855.884	70.37
856.265	70.35
856.646	70.34
857.026	70.34
857.407	70.29
857.788	70.29
858.169	70.32
858.549	70.35
858.93	70.35
859.31	70.33
859.69	70.31
860.071	70.27
860.451	70.27
860.831	70.28
861.211	70.27
861.591	70.29
861.971	70.25
862.351	70.25
862.731	70.26
863.111	70.29
863.491	70.3
863.87	70.3
864.25	70.36
864.629	70.36
865.009	70.37
865.388	70.35
865.768	70.37
866.147	70.4
866.526	70.37
866.905	70.38
867.284	70.36
867.663	70.37
868.042	70.34
868.421	70.3
868.8	70.3
869.179	70.34
869.558	70.36
869.936	70.36
870.315	70.36
870.693	70.38
871.072	70.33
871.45	70.32
871.828	70.29
872.207	70.33
872.585	70.33
872.963	70.33
873.341	70.25
873.719	70.25
874.097	70.25
874.475	70.23
874.853	70.24
875.23	70.26
875.608	70.24
875.986	70.24
876.363	70.22
876.741	70.23
877.118	70.21
877.495	70.23
877.873	70.2
878.25	70.2
878.627	70.22
879.004	70.21
879.381	70.21
879.758	70.19
880.135	70.2
880.512	70.17
880.889	70.14
881.265	70.13
881.642	70.13
882.019	70.13
882.395	70.12
882.772	70.06
883.148	70.03
883.524	70.01
883.901	70.02
884.277	69.98
884.653	70.05
885.029	70.05
885.405	70.06
885.781	70.03
886.157	70.05
886.532	70.02
886.908	70.07
887.284	70.1
887.659	70.11
888.035	70.11
888.411	70.1
888.786	70.07
889.161	70.07
889.537	70.06
889.912	70.08
890.287	70.05
890.662	70.06
891.037	70.03
891.412	70.01
891.787	69.99
892.162	69.98
892.536	69.97
892.911	69.93
893.286	69.88
893.66	69.84
894.035	69.8
894.409	69.8
894.784	69.8
895.158	69.79
895.532	69.75
895.906	69.73
896.281	69.7
896.655	69.72
897.029	69.73
897.402	69.74
897.776	69.74
898.15	69.74
898.524	69.71
898.898	69.66
899.271	69.65
899.645	69.63
900.018	69.64
900.392	69.66
900.765	69.66
901.138	69.65
901.511	69.66
901.884	69.68
902.258	69.67
902.631	69.7
903.003	69.75
903.376	69.73
903.749	69.78
904.122	69.78
904.495	69.77
904.867	69.76
905.24	69.76
905.612	69.73
905.985	69.71
906.357	69.68
906.729	69.66
907.102	69.63
907.474	69.61
907.846	69.61
908.218	69.58
908.59	69.53
908.962	69.51
909.334	69.47
909.705	69.51
910.077	69.46
910.449	69.5
910.82	69.48
911.192	69.49
911.563	69.48
911.935	69.41
912.306	69.4
912.677	69.4
913.048	69.35
913.419	69.35
913.79	69.29
914.161	69.3
914.532	69.25
914.903	69.24
915.274	69.18
915.645	69.17
916.015	69.16
916.386	69.11
916.756	69.07
917.127	69.08
917.497	69.06
917.868	69.09
918.238	69.14
918.608	69.13
918.978	69.08
919.348	69.08
919.718	69.07
920.088	69.11
920.458	69.16
920.828	69.2
921.198	69.2
921.567	69.21
921.937	69.19
922.306	69.14
922.676	69.14
923.045	69.15
923.415	69.15
923.784	69.14
924.153	69.11
924.522	69.1
924.891	69.07
925.26	69.04
925.629	69.02
925.998	69
926.367	68.96
926.736	68.91
927.104	68.89
927.473	68.9
927.842	68.86
928.21	68.85
928.578	68.74
928.947	68.73
929.315	68.73
929.683	68.69
930.051	68.67
930.42	68.67
930.788	68.69
931.156	68.67
931.523	68.59
931.891	68.56
932.259	68.46
932.627	68.43
932.994	68.35
933.362	68.26
933.729	68.18
934.097	68.12
934.464	68.1
934.831	68
935.199	67.89
935.566	67.84
935.933	67.79
936.3	67.73
936.667	67.69
937.034	67.62
937.401	67.57
937.767	67.56
938.134	67.48
938.501	67.35
938.867	67.38
939.234	67.39
939.6	67.34
939.967	67.37
940.333	67.5
940.699	67.56
941.065	67.67
941.431	67.73
941.798	67.87
942.163	67.95
942.529	68.06
942.895	68.04
943.261	68.14
943.627	68.22
943.992	68.19
944.358	68.07
944.723	68.1
945.089	68.11
945.454	68.2
945.82	68
946.185	68.01
946.55	68.02
946.915	68.05
947.28	68
947.645	68.04
948.01	68.08
948.375	68.17
948.74	68.11
949.104	68.11
949.469	67.99
949.834	68.09
950.198	67.96
950.562	67.86
950.927	67.82
951.291	67.76
951.655	67.62
952.02	67.53
952.384	67.56
952.748	67.5
953.112	67.49
953.476	67.46
953.839	67.35
954.203	67.27
954.567	67.27
954.931	67.23
955.294	67.24
955.658	67.27
956.021	67.25
956.385	67.22
956.748	67.22
957.111	67.17
957.474	67.2
957.837	67.28
958.2	67.26
958.563	67.18
958.926	67.13
959.289	67.06
959.652	67.1
960.015	67.05
960.377	66.92
960.74	66.84
961.102	66.8
961.465	66.78
961.827	66.71
962.189	66.72
962.552	66.71
962.914	66.65
963.276	66.63
963.638	66.52
964	66.51
964.362	66.51
964.724	66.53
965.085	66.59
965.447	66.5
965.809	66.39
966.17	66.46
966.532	66.48
966.893	66.5
967.255	66.52
967.616	66.52
967.977	66.58
968.338	66.56
968.699	66.54
969.061	66.41
969.421	66.38
969.782	66.45
970.143	66.39
970.504	66.36
970.865	66.28
971.225	66.26
971.586	66.29
971.946	66.2
972.307	66.21
972.667	66.27
973.027	66.32
973.388	66.26
973.748	66.26
974.108	66.2
974.468	66.17
974.828	66.25
975.188	66.21
975.548	66.12
975.907	66.19
976.267	66.18
976.627	66.13
976.986	66.09
977.346	66.13
977.705	66.1
978.064	66.17
978.424	66.12
978.783	66.06
979.142	66.06
979.501	66.12
979.86	66.08
980.219	66
980.578	65.96
980.937	65.93
981.296	65.86
981.654	65.88
982.013	65.88
982.371	65.91
982.73	65.9
983.088	65.88
983.447	65.85
983.805	65.83
984.163	65.83
984.521	65.76
984.879	65.81
985.237	65.9
985.595	65.85
985.953	65.79
986.311	65.83
986.669	65.85
987.026	65.88
987.384	65.8
987.741	65.74
988.099	65.75
988.456	65.77
988.814	65.69
989.171	65.55
989.528	65.51
989.885	65.49
990.242	65.5
990.599	65.5
990.956	65.42
991.313	65.5
991.67	65.56
992.027	65.45
992.383	65.47
992.74	65.38
993.096	65.5
993.453	65.38
993.809	65.44
994.165	65.37
994.522	65.3
994.878	65.27
995.234	65.1
995.59	64.94
995.946	65
996.302	64.92
996.658	64.99
997.013	64.92
997.369	64.94
997.725	64.87
998.08	64.85
998.436	64.98
998.791	64.91
999.147	64.98
999.502	64.96
999.857	65.03
1000.212	65.08
1000.567	65.06
1000.922	65.02
1001.277	64.95
1001.632	64.93
1001.987	64.87
1002.342	64.77
1002.696	64.85
1003.051	64.69
1003.406	64.67
1003.76	64.38
1004.114	64.49
1004.469	64.46
1004.823	64.63
1005.177	64.81
1005.531	64.68
1005.885	64.72
1006.239	64.56
1006.593	64.41
1006.947	64.46
1007.301	64.41
1007.655	64.58
1008.008	64.19
1008.362	64.19
1008.715	63.86
1009.069	63.64
1009.422	63.68
1009.776	63.53
1010.129	63.49
1010.482	63.7
1010.835	63.81
1011.188	63.87
1011.541	63.59
1011.894	63.72
1012.247	63.66
1012.6	63.72
1012.952	63.74
1013.305	63.61
1013.657	63.68
1014.01	63.98
1014.362	63.97
1014.715	63.83
1015.067	63.76
1015.419	64.16
1015.771	64.33
1016.123	64.27
1016.475	64.57
1016.827	64.81
1017.179	64.84
1017.531	64.41
1017.883	64.23
1018.234	64.15
1018.586	64.16
1018.938	64.12
1019.289	63.99
1019.64	63.94
1019.992	63.77
1020.343	63.1
1020.694	62.92
1021.045	63.01
1021.396	63.31
1021.747	63.02
1022.098	63.04
1022.449	62.95
1022.8	63.03
1023.151	62.72
1023.501	62.48
1023.852	62.66
1024.202	62.92
1024.553	62.8
1024.903	62.59
1025.253	62.52
1025.604	62.54
1025.954	62
1026.304	62.29
1026.654	62.14
1027.004	62.15
1027.354	61.81
1027.703	61.77
1028.053	61.03
1028.403	60.94
1028.753	61.12
1029.102	60.96
1029.452	60.84
1029.801	60.96
1030.15	60.48
1030.499	60.34
897.758	695.1
901.051	697.22
904.343	708.38
907.636	698.91
910.928	684.55
914.22	696.19
917.511	683.29
920.803	652.38
924.094	629.13
927.384	633.16
930.675	610.17
933.965	603.4
937.255	607.77
940.544	578.92
943.834	553.33
947.123	546.78
950.411	518.74
953.7	509.58
956.988	499.61
960.276	474.82
963.563	467.25
966.851	445.43
970.138	436.47
973.424	406.11
976.711	400.42
979.997	387.51
983.283	380.02
986.568	368.26
989.853	357.76
993.138	340.1
996.423	338.18
999.708	328.61
1002.992	330.06
1006.275	320.38
1009.559	318.71
1012.842	310.2
1016.125	300.07
1019.408	293.75
1022.69	292.17
1025.972	290.57
1029.254	284.73
1032.536	277.99
1035.817	269.75
1039.098	265.48
1042.379	259.75
1045.659	256.25
1048.939	253.64
1052.219	249.8
1055.498	245.38
1058.778	240.67
1062.057	235.51
1065.335	235.34
1068.614	231.15
1071.892	228.35
1075.17	223.72
1078.447	221.88
1081.724	220.09
1085.001	216.38
1088.278	215.89
1091.554	214.51
1094.83	212.83
1098.106	209.83
1101.382	208.5
1104.657	207.59
1107.932	206.85
1111.206	205.58
1114.481	202.96
1117.755	201.04
1121.029	199.81
1124.302	197.13
1127.575	194.51
1130.848	193.72
1134.121	191.54
1137.393	191.5
1140.665	190.29
1143.937	187.8
1147.208	185.8
1150.48	185.04
1153.75	183.98
1157.021	182.33
1160.291	181.45
1163.561	181.41
1166.831	179.37
1170.101	179.67
1173.37	177.38
1176.639	175.66
1179.907	176.41
1183.176	176.37
1186.444	176.6
1189.711	175.27
1192.979	177.38
1196.246	177.33
1199.513	175.52
1202.78	176.72
1206.046	176.36
1209.312	178
1212.578	178.85
1215.843	180.87
1219.108	182.42
1222.373	184.86
1225.638	187.98
1228.902	190.86
1232.166	196.46
1235.43	200.36
1238.693	205.57
1241.956	209.86
1245.219	215
1248.482	216.87
1251.744	215.74
1255.006	214.81
1258.268	210.38
1261.529	208.95
1264.79	203.85
1268.051	199.77
1271.312	198.15
1274.572	193.01
1277.832	188.78
1281.092	185.89
1284.351	182.71
1287.61	182.56
1290.869	182.25
1294.128	180.98
1297.386	179.19
1300.644	179.15
1303.902	178.19
1307.159	177.62
1310.416	179.62
1313.673	182.19
1316.93	182.67
1320.186	185.66
1323.442	187.51
1326.697	191.56
1329.953	191.96
1333.208	199.02
1336.463	206.9
1339.717	211.18
1342.972	219.33
1346.226	224.54
1349.479	225.87
1352.733	236.15
1355.986	239.37
1359.238	244.83
1362.491	246.13
1365.743	256.26
1368.995	258.28
1372.247	254.21
1375.498	253.05
1378.749	261.37
1382	261.41
1385.251	259.94
1388.501	258.59
1391.751	263.02
1395	261.22
1398.25	261.73
1401.499	259.89
1404.748	258.31
1407.996	252.85
1411.244	254.3
1414.492	249.63
1417.74	241.8
1420.987	236.06
1424.234	232.53
1427.481	223.67
1430.728	217.44
1433.974	210.24
1437.22	204.72
1440.465	197.05
1443.711	192.67
1446.956	186.34
1450.201	179.67
1453.445	171.22
1456.689	167.28
1459.933	161.46
1463.177	154.5
1466.42	151.57
1469.663	147.15
1472.906	142.67
1476.148	140.03
1479.391	137.04
1482.633	134.9
1485.874	132.24
1489.115	131.61
1492.356	129.14
1495.597	127.98
1498.838	127.05
1502.078	125.86
1505.318	125.67
1508.557	124.95
1511.797	123.22
1515.036	122.87
1518.274	122.79
1521.513	121.12
1524.751	121.03
1527.989	121.74
1531.227	120.81
1534.464	121.08
1537.701	120.48
1540.938	119.91
1544.174	119.88
1547.41	120.19
1550.646	120.06
1553.882	119.58
1557.117	119.64
1560.352	119.38
1563.587	118.59
1566.821	118.6
1570.055	117.64
1573.289	117.56
1576.523	118.08
1579.756	117.42
1582.989	118.14
1586.222	117.29
1589.454	116.68
1592.686	117.55
1595.918	117.03
1599.15	116.94
1602.381	117.06
1605.612	117.68
1608.843	117.55
1612.073	117.77
1615.303	118.44
1618.533	117.45
1621.762	118.37
1624.992	118.51
1628.221	117.82
1631.449	118.52
1634.678	118.19
1637.906	118.61
1641.134	118.71
1644.361	118.75
1647.588	118.79
1650.815	118.43
1654.042	119.12
1657.269	118.69
1660.495	119.64
1663.72	119.58
1666.946	119.52
1670.171	120.45
1673.396	120.16
1676.621	120.91
1679.845	121.2
1683.069	120.58
1686.293	120.65
1689.517	120.3
1692.74	120.68
1695.963	120.9
1699.185	121.75
1702.408	121.53
1705.63	121.79
1708.852	122.52
1712.073	122.03
1715.294	121.84
1718.515	122.57
1721.736	122.77
1724.956	123.11
1728.176	123.05
1731.396	123.39
1734.616	123.14
1737.835	123.55
1741.054	122.48
1744.272	122.69
1747.491	122.58
1750.709	123.17
1753.927	123.22
1757.144	123.46
1760.361	123.6
1763.578	124.52
1766.795	124.87
1770.011	124.42
1773.227	125.33
1776.443	126.88
1779.658	126.96
1782.874	128.06
1786.089	128.6
1789.303	128.66
1792.518	130.17
1795.732	131.47
1798.945	132.21
1802.159	132.23
1805.372	134.3
1808.585	135.14
1811.797	135.6
1815.01	136.75
1818.222	137.51
1821.434	138.08
1824.645	139.12
1827.856	140.63
1831.067	140.54
1834.278	141.18
1837.488	142
1840.698	143.29
1843.908	143.07
1847.117	145.34
1850.326	145.87
1853.535	145.5
1856.744	146.65
1859.952	148.6
1863.16	148.24
1866.368	147.79
1869.575	148.92
1872.782	147.98
1875.989	146.53
1879.196	145.44
1882.402	143.57
1885.608	144.16
1888.814	144.08
1892.019	145.36
1895.224	142.45
1898.429	142.46
1901.634	143.91
1904.838	143.86
1908.042	145.05
1911.246	144.79
1914.449	146.36
1917.652	145.74
1920.855	145.61
1924.058	145.07
1927.26	143.71
1930.462	144.87
1933.664	145.42
1936.865	144.72
1940.066	142.52
1943.267	142.03
1946.467	144.03
1949.668	143.34
1952.868	143.68
1956.067	143.09
1959.267	144.83
1962.466	145.58
1965.665	146.47
1968.863	146.58
1972.061	147.53
1975.259	150.49
1978.457	151.28
1981.654	152.31
1984.852	154.13
1988.048	156.05
1991.245	159.24
1994.441	160.96
1997.637	164.28
2000.833	168.01
2004.028	168.79
2007.223	174
2010.418	178.29
2013.613	186
2016.807	190.57
2020.001	194.19
2023.194	199.4
2026.388	206.47
2029.581	217.11
2032.774	224.05
2035.966	230.48
2039.158	239.54
2042.35	242.98
2045.542	246.11
2048.733	258.46
2051.924	260.05
2055.115	264.85
2058.306	268.17
2061.496	273.59
2064.686	273.89
2067.875	269.99
2071.065	272.41
2074.254	273.89
2077.442	281.83
2080.631	285.92
2083.819	283.17
2087.007	289.72
2090.195	293.61
2093.382	293.44
2096.569	292.15
2099.756	297.81
2102.942	306.45
2106.128	312.71
2109.314	312.46
2112.5	313.18
2115.685	313.56
2118.87	314.16
2122.055	315.46
2125.239	323.64
2128.424	333.56
2131.608	329.28
2134.791	330.53
2137.974	329.21
2141.157	332.09
2144.34	337.11
2147.523	340.3
2150.705	346.5
2153.887	346.5
2157.068	350.86
2160.25	351.31
2163.431	347.62
2166.611	354.82
2169.792	362.51
2172.972	368.68
2176.152	367.75
2179.331	377.54
2182.511	377.58
2185.69	383.24
2188.868	393.98
2192.047	403.21
2195.225	410.73
2198.403	419.19
2201.58	415.67
2204.758	426.07
2207.935	431.56
2211.111	441.33
2214.288	439.99
2217.464	446.02
2220.64	448.63
2223.815	452.95
2226.991	444.12
2230.166	448.4
2233.34	462.06
2236.515	478.18
2239.689	468.5
2242.863	476.06
2246.036	471.2
2249.209	485.55
2252.382	486.16
2255.555	501.66
2258.727	503.29
2261.9	523.59
2265.071	527.91
2268.243	520.66
2271.414	532.16
2274.585	543.65
2277.756	543.28
2280.926	569.16
2284.096	565.15
2287.266	566.98
2290.436	557.1
2293.605	568.18
2296.774	588.75
2299.942	590.14
2303.111	607.94
2306.279	620.25
2309.447	624.6
2312.614	625.87
2315.781	636.94
2318.948	647.92
2322.115	660.71
2325.281	693.03
2328.447	694.59
2331.613	687.55
2334.779	700.08
2337.944	710.28
2341.109	724.03
2344.274	731.9
2347.438	751.36
2350.602	762.06
2353.766	809.77
2356.929	813.44
2360.092	823.9
2363.255	823.6
2366.418	840.97
2369.58	859.29
2372.742	863.26
2375.904	856.61
2379.066	877.84
2382.227	929.44
2385.388	930.77
2388.548	878.62
2391.709	869.32
2394.869	899.13
2398.029	895.52
2401.188	901.94
2404.347	927.31
2407.506	954.46
2410.665	915.72
2413.823	920.74
2416.981	919.28
2420.139	866.92
2423.296	937.68
2426.453	1002.1
2429.61	953.11
2432.767	1022.45
2435.923	1050.55
2439.079	1014.01
2442.235	1036.67
2445.391	1069.66
2448.546	1058.73
2451.701	1121.24
2454.855	1204.47
2458.009	1063.44
2461.163	1082.12
2464.317	1093.22
2467.471	1069.66
2470.624	1107.21
2473.777	1083.38
2476.929	1043.8
2480.082	1114.62
2483.234	1172.14
2486.385	1186.12
2489.537	1211.65
2492.688	1337.16
2495.839	1309.07
2498.989	1353.24
2502.14	1357.68
2505.29	1288.88
2508.439	1448.12
2511.589	1493.88
2514.738	1443.28
2517.887	1427.7
2521.035	1337.57
2524.183	1323.15
2527.331	1315.18
2530.479	1286.12
2533.627	1312.63
