Data from N_2_div_oh_2n_065_Splice17_10.txt Node
Date: Sat Feb 29 14:03:52 EST 2020
User: sa697716
Spectrometer: FLMS03696
Trigger mode: 0
Integration Time (sec): 3.180400E-1
Scans to average: 20
Electric dark correction enabled: true
Nonlinearity correction enabled: true
Boxcar width: 5
XAxis mode: Wavelengths
Number of Pixels in Spectrum: 2048
>>>>>Begin Spectral Data<<<<<
187.83	62.74
188.298	57.81
188.766	58.03
189.233	52.91
189.701	60.53
190.169	62.37
190.636	47.13
191.104	37.16
191.571	15.26
192.039	67.67
192.506	227.1
192.974	3911.59
193.441	-288.82
193.908	86.89
194.375	46.6
194.842	51.81
195.31	56.75
195.777	-44.16
196.244	9.08
196.711	23.37
197.177	24.53
197.644	26.79
198.111	26.63
198.578	25.67
199.045	26.61
199.511	27.65
199.978	28.25
200.445	28.51
200.911	29.13
201.378	29.7
201.844	29.75
202.31	30.28
202.777	30.05
203.243	30.1
203.709	30.87
204.176	30.53
204.642	30.21
205.108	30.08
205.574	30.25
206.04	30.26
206.506	29.82
206.972	30.17
207.438	29.96
207.903	30.12
208.369	30.01
208.835	29.71
209.301	29.83
209.766	29.8
210.232	29.72
210.697	29.24
211.163	28.95
211.628	28.57
212.094	28.33
212.559	28.02
213.024	27.72
213.49	27.51
213.955	27.57
214.42	26.99
214.885	26.28
215.35	26.06
215.815	25.43
216.28	24.68
216.745	24.04
217.21	23.38
217.675	22.76
218.14	22.02
218.604	21.38
219.069	20.84
219.534	20.46
219.998	20.17
220.463	19.77
220.927	19.49
221.392	19.18
221.856	18.91
222.32	18.67
222.785	18.49
223.249	18.34
223.713	18.16
224.177	17.94
224.642	17.73
225.106	17.49
225.57	17.25
226.034	17.09
226.497	16.91
226.961	16.71
227.425	16.47
227.889	16.24
228.353	16.02
228.816	15.83
229.28	15.61
229.744	15.44
230.207	15.28
230.671	15.1
231.134	14.9
231.597	14.72
232.061	14.55
232.524	14.42
232.987	14.24
233.45	14.08
233.914	13.9
234.377	13.75
234.84	13.61
235.303	13.45
235.766	13.32
236.229	13.17
236.691	13.04
237.154	12.92
237.617	12.77
238.08	12.66
238.542	12.54
239.005	12.42
239.468	12.28
239.93	12.16
240.393	12.05
240.855	11.93
241.317	11.82
241.78	11.72
242.242	11.59
242.704	11.5
243.166	11.38
243.629	11.26
244.091	11.17
244.553	11.09
245.015	10.98
245.477	10.86
245.939	10.78
246.4	10.68
246.862	10.57
247.324	10.49
247.786	10.41
248.247	10.32
248.709	10.24
249.17	10.15
249.632	10.05
250.093	9.96
250.555	9.89
251.016	9.81
251.477	9.72
251.939	9.65
252.4	9.57
252.861	9.49
253.322	9.42
253.783	9.36
254.244	9.3
254.705	9.26
255.166	9.21
255.627	9.15
256.088	9.08
256.549	9.04
257.009	8.99
257.47	8.95
257.931	8.89
258.391	8.84
258.852	8.79
259.312	8.73
259.773	8.68
260.233	8.63
260.694	8.58
261.154	8.55
261.614	8.5
262.074	8.45
262.534	8.39
262.994	8.35
263.455	8.31
263.915	8.28
264.374	8.24
264.834	8.19
265.294	8.16
265.754	8.13
266.214	8.1
266.673	8.07
267.133	8.04
267.593	8.01
268.052	7.98
268.512	7.95
268.971	7.92
269.431	7.9
269.89	7.88
270.349	7.86
270.809	7.83
271.268	7.81
271.727	7.78
272.186	7.75
272.645	7.73
273.104	7.71
273.563	7.69
274.022	7.66
274.481	7.63
274.94	7.59
275.399	7.56
275.857	7.53
276.316	7.49
276.775	7.46
277.233	7.43
277.692	7.41
278.15	7.38
278.609	7.34
279.067	7.3
279.525	7.27
279.984	7.25
280.442	7.23
280.9	7.21
281.358	7.18
281.816	7.15
282.274	7.13
282.732	7.1
283.19	7.08
283.648	7.07
284.106	7.06
284.564	7.05
285.021	7.03
285.479	7.02
285.937	7
286.394	6.98
286.852	6.97
287.309	6.96
287.767	6.94
288.224	6.92
288.682	6.89
289.139	6.87
289.596	6.83
290.053	6.8
290.511	6.77
290.968	6.73
291.425	6.7
291.882	6.67
292.339	6.63
292.796	6.6
293.252	6.57
293.709	6.54
294.166	6.51
294.623	6.49
295.079	6.47
295.536	6.45
295.992	6.44
296.449	6.43
296.905	6.4
297.362	6.39
297.818	6.37
298.274	6.36
298.731	6.35
299.187	6.33
299.643	6.32
300.099	6.31
300.555	6.28
301.011	6.27
301.467	6.25
301.923	6.23
302.379	6.21
302.835	6.2
303.291	6.17
303.746	6.15
304.202	6.13
304.658	6.11
305.113	6.09
305.569	6.08
306.024	6.06
306.479	6.05
306.935	6.04
307.39	6.03
307.845	6.02
308.301	6.02
308.756	6.02
309.211	6.01
309.666	6
310.121	5.99
310.576	5.99
311.031	5.98
311.486	5.98
311.94	5.97
312.395	5.97
312.85	5.97
313.305	5.96
313.759	5.95
314.214	5.94
314.668	5.95
315.123	5.95
315.577	5.94
316.032	5.92
316.486	5.92
316.94	5.9
317.394	5.89
317.849	5.87
318.303	5.86
318.757	5.85
319.211	5.82
319.665	5.8
320.119	5.79
320.572	5.78
321.026	5.77
321.48	5.75
321.934	5.74
322.387	5.73
322.841	5.71
323.295	5.69
323.748	5.67
324.202	5.66
324.655	5.65
325.108	5.62
325.562	5.6
326.015	5.59
326.468	5.58
326.921	5.56
327.374	5.55
327.827	5.54
328.28	5.53
328.733	5.52
329.186	5.52
329.639	5.51
330.092	5.5
330.545	5.5
330.997	5.49
331.45	5.48
331.903	5.48
332.355	5.47
332.808	5.47
333.26	5.47
333.713	5.47
334.165	5.46
334.617	5.46
335.069	5.47
335.522	5.47
335.974	5.47
336.426	5.46
336.878	5.46
337.33	5.47
337.782	5.46
338.234	5.45
338.686	5.45
339.137	5.45
339.589	5.44
340.041	5.42
340.493	5.4
340.944	5.4
341.396	5.4
341.847	5.38
342.299	5.35
342.75	5.33
343.201	5.3
343.653	5.28
344.104	5.25
344.555	5.23
345.006	5.22
345.457	5.21
345.908	5.19
346.359	5.18
346.81	5.17
347.261	5.16
347.712	5.16
348.163	5.15
348.613	5.14
349.064	5.13
349.515	5.12
349.965	5.11
350.416	5.1
350.866	5.1
351.317	5.08
351.767	5.09
352.217	5.08
352.668	5.08
353.118	5.08
353.568	5.09
354.018	5.1
354.468	5.1
354.918	5.12
355.368	5.12
355.818	5.11
356.268	5.12
356.718	5.12
357.168	5.12
357.617	5.12
358.067	5.11
358.517	5.1
358.966	5.09
359.416	5.09
359.865	5.08
360.315	5.08
360.764	5.08
361.213	5.08
361.663	5.08
362.112	5.08
362.561	5.07
363.01	5.08
363.459	5.08
363.908	5.07
364.357	5.07
364.806	5.07
365.255	5.07
365.703	5.06
366.152	5.06
366.601	5.05
367.05	5.06
367.498	5.07
367.947	5.07
368.395	5.07
368.844	5.07
369.292	5.07
369.74	5.07
370.189	5.08
370.637	5.09
371.085	5.1
371.533	5.1
371.981	5.11
372.429	5.11
372.877	5.12
373.325	5.13
373.773	5.15
374.221	5.17
374.669	5.19
375.116	5.19
375.564	5.21
376.012	5.22
376.459	5.24
376.907	5.26
377.354	5.28
377.801	5.31
378.249	5.34
378.696	5.37
379.143	5.41
379.591	5.44
380.038	5.48
380.485	5.52
380.932	5.54
381.379	5.58
381.826	5.62
382.273	5.66
382.72	5.7
383.166	5.73
383.613	5.76
384.06	5.81
384.506	5.85
384.953	5.9
385.4	5.94
385.846	5.99
386.292	6.04
386.739	6.08
387.185	6.15
387.631	6.2
388.078	6.27
388.524	6.3
388.97	6.36
389.416	6.41
389.862	6.46
390.308	6.51
390.754	6.57
391.2	6.62
391.645	6.67
392.091	6.72
392.537	6.78
392.983	6.83
393.428	6.9
393.874	6.96
394.319	7.01
394.765	7.06
395.21	7.09
395.655	7.13
396.101	7.18
396.546	7.22
396.991	7.26
397.436	7.27
397.881	7.3
398.326	7.36
398.771	7.4
399.216	7.43
399.661	7.48
400.106	7.52
400.551	7.54
400.995	7.54
401.44	7.54
401.885	7.55
402.329	7.58
402.774	7.58
403.218	7.58
403.663	7.57
404.107	7.58
404.551	7.58
404.995	7.58
405.44	7.58
405.884	7.59
406.328	7.61
406.772	7.63
407.216	7.64
407.66	7.65
408.104	7.65
408.547	7.66
408.991	7.65
409.435	7.64
409.879	7.65
410.322	7.67
410.766	7.68
411.209	7.67
411.653	7.66
412.096	7.66
412.54	7.65
412.983	7.66
413.426	7.67
413.869	7.69
414.312	7.72
414.756	7.73
415.199	7.74
415.642	7.77
416.085	7.79
416.527	7.81
416.97	7.83
417.413	7.84
417.856	7.84
418.298	7.82
418.741	7.81
419.184	7.8
419.626	7.79
420.069	7.78
420.511	7.76
420.953	7.75
421.396	7.76
421.838	7.76
422.28	7.78
422.722	7.79
423.164	7.79
423.606	7.78
424.048	7.77
424.49	7.79
424.932	7.78
425.374	7.76
425.816	7.73
426.258	7.69
426.699	7.65
427.141	7.61
427.582	7.6
428.024	7.61
428.465	7.62
428.907	7.63
429.348	7.62
429.789	7.62
430.231	7.64
430.672	7.66
431.113	7.69
431.554	7.72
431.995	7.74
432.436	7.75
432.877	7.75
433.318	7.76
433.759	7.78
434.2	7.79
434.64	7.8
435.081	7.81
435.522	7.85
435.962	7.87
436.403	7.9
436.843	7.93
437.284	7.96
437.724	8
438.164	8.03
438.604	8.07
439.045	8.09
439.485	8.12
439.925	8.15
440.365	8.15
440.805	8.17
441.245	8.19
441.685	8.24
442.125	8.27
442.564	8.29
443.004	8.34
443.444	8.39
443.883	8.45
444.323	8.49
444.762	8.57
445.202	8.67
445.641	8.74
446.081	8.81
446.52	8.87
446.959	8.93
447.398	9.03
447.837	9.11
448.276	9.16
448.716	9.22
449.154	9.29
449.593	9.32
450.032	9.35
450.471	9.37
450.91	9.4
451.349	9.45
451.787	9.47
452.226	9.47
452.664	9.46
453.103	9.46
453.541	9.47
453.98	9.49
454.418	9.5
454.856	9.5
455.295	9.5
455.733	9.5
456.171	9.49
456.609	9.5
457.047	9.51
457.485	9.52
457.923	9.53
458.361	9.52
458.798	9.53
459.236	9.54
459.674	9.54
460.111	9.57
460.549	9.58
460.987	9.58
461.424	9.58
461.862	9.59
462.299	9.58
462.736	9.59
463.173	9.61
463.611	9.59
464.048	9.61
464.485	9.6
464.922	9.59
465.359	9.59
465.796	9.6
466.233	9.6
466.67	9.61
467.106	9.62
467.543	9.64
467.98	9.64
468.416	9.67
468.853	9.68
469.29	9.69
469.726	9.7
470.162	9.71
470.599	9.71
471.035	9.73
471.471	9.74
471.907	9.73
472.344	9.74
472.78	9.74
473.216	9.74
473.652	9.73
474.088	9.75
474.523	9.76
474.959	9.76
475.395	9.77
475.831	9.79
476.266	9.79
476.702	9.81
477.138	9.8
477.573	9.79
478.008	9.78
478.444	9.78
478.879	9.8
479.314	9.79
479.75	9.8
480.185	9.8
480.62	9.8
481.055	9.81
481.49	9.8
481.925	9.81
482.36	9.82
482.795	9.83
483.229	9.84
483.664	9.84
484.099	9.84
484.534	9.86
484.968	9.87
485.403	9.88
485.837	9.89
486.271	9.91
486.706	9.94
487.14	9.97
487.574	9.99
488.009	10.04
488.443	10.09
488.877	10.13
489.311	10.18
489.745	10.23
490.179	10.3
490.613	10.36
491.046	10.43
491.48	10.51
491.914	10.58
492.348	10.67
492.781	10.75
493.215	10.83
493.648	10.94
494.082	11.05
494.515	11.15
494.948	11.27
495.382	11.38
495.815	11.51
496.248	11.63
496.681	11.77
497.114	11.91
497.547	12.05
497.98	12.21
498.413	12.37
498.846	12.53
499.279	12.7
499.711	12.87
500.144	13.08
500.577	13.26
501.009	13.49
501.442	13.71
501.874	13.94
502.306	14.16
502.739	14.38
503.171	14.64
503.603	14.9
504.036	15.18
504.468	15.47
504.9	15.75
505.332	16.06
505.764	16.37
506.196	16.67
506.627	17
507.059	17.34
507.491	17.69
507.923	18.02
508.354	18.37
508.786	18.73
509.217	19.09
509.649	19.47
510.08	19.85
510.512	20.23
510.943	20.63
511.374	21.02
511.805	21.43
512.237	21.85
512.668	22.28
513.099	22.7
513.53	23.13
513.961	23.56
514.391	23.99
514.822	24.42
515.253	24.85
515.684	25.28
516.114	25.72
516.545	26.14
516.975	26.59
517.406	27.02
517.836	27.45
518.267	27.89
518.697	28.33
519.127	28.76
519.558	29.16
519.988	29.58
520.418	29.95
520.848	30.36
521.278	30.77
521.708	31.04
522.138	31.41
522.567	31.78
522.997	32.12
523.427	32.46
523.857	32.78
524.286	33.12
524.716	33.43
525.145	33.78
525.575	34.08
526.004	34.38
526.433	34.76
526.863	35.06
527.292	35.34
527.721	35.61
528.15	35.84
528.579	36.12
529.008	36.36
529.437	36.56
529.866	36.75
530.295	36.97
530.724	37.19
531.152	37.4
531.581	37.56
532.01	37.71
532.438	37.9
532.867	38.08
533.295	38.23
533.723	38.4
534.152	38.56
534.58	38.7
535.008	38.8
535.436	38.9
535.865	39
536.293	39.12
536.721	39.25
537.149	39.31
537.576	39.41
538.004	39.46
538.432	39.55
538.86	39.61
539.287	39.69
539.715	39.76
540.143	39.83
540.57	39.89
540.998	39.95
541.425	40
541.852	40.06
542.28	40.11
542.707	40.19
543.134	40.22
543.561	40.25
543.988	40.31
544.415	40.37
544.842	40.41
545.269	40.46
545.696	40.52
546.123	40.56
546.549	40.61
546.976	40.63
547.403	40.65
547.829	40.69
548.256	40.76
548.682	40.77
549.108	40.8
549.535	40.86
549.961	40.88
550.387	40.88
550.813	40.91
551.24	40.92
551.666	40.97
552.092	41.01
552.518	40.99
552.943	40.99
553.369	41
553.795	41.01
554.221	40.97
554.646	40.96
555.072	40.93
555.498	40.89
555.923	40.86
556.349	40.77
556.774	40.71
557.199	40.66
557.625	40.57
558.05	40.49
558.475	40.42
558.9	40.36
559.325	40.28
559.75	40.18
560.175	40.09
560.6	39.97
561.025	39.89
561.449	39.79
561.874	39.7
562.299	39.62
562.723	39.51
563.148	39.38
563.572	39.25
563.997	39.12
564.421	38.99
564.846	38.86
565.27	38.73
565.694	38.58
566.118	38.43
566.542	38.29
566.966	38.12
567.39	37.95
567.814	37.78
568.238	37.58
568.662	37.41
569.086	37.23
569.509	37.04
569.933	36.86
570.357	36.66
570.78	36.46
571.204	36.27
571.627	36.08
572.05	35.91
572.474	35.73
572.897	35.57
573.32	35.36
573.743	35.21
574.166	35.02
574.589	34.85
575.012	34.71
575.435	34.54
575.858	34.38
576.281	34.22
576.704	34.06
577.126	33.91
577.549	33.79
577.972	33.71
578.394	33.57
578.817	33.46
579.239	33.34
579.661	33.24
580.084	33.15
580.506	33.03
580.928	32.92
581.35	32.83
581.772	32.76
582.194	32.64
582.616	32.53
583.038	32.45
583.46	32.37
583.882	32.29
584.303	32.17
584.725	32.07
585.147	31.97
585.568	31.87
585.99	31.79
586.411	31.7
586.833	31.62
587.254	31.55
587.675	31.46
588.096	31.39
588.518	31.3
588.939	31.25
589.36	31.19
589.781	31.16
590.202	31.14
590.623	31.06
591.043	31
591.464	30.95
591.885	30.89
592.305	30.83
592.726	30.77
593.147	30.75
593.567	30.69
593.987	30.67
594.408	30.6
594.828	30.56
595.248	30.54
595.669	30.5
596.089	30.46
596.509	30.4
596.929	30.35
597.349	30.32
597.769	30.26
598.189	30.23
598.608	30.16
599.028	30.12
599.448	30.05
599.867	29.97
600.287	29.91
600.706	29.83
601.126	29.77
601.545	29.7
601.965	29.62
602.384	29.54
602.803	29.44
603.222	29.33
603.641	29.23
604.061	29.15
604.48	29.05
604.898	28.95
605.317	28.83
605.736	28.72
606.155	28.61
606.574	28.5
606.992	28.38
607.411	28.28
607.829	28.13
608.248	28.01
608.666	27.86
609.085	27.77
609.503	27.63
609.921	27.51
610.339	27.4
610.758	27.29
611.176	27.19
611.594	27.07
612.012	26.91
612.43	26.85
612.847	26.75
613.265	26.65
613.683	26.53
614.101	26.42
614.518	26.31
614.936	26.2
615.353	26.1
615.771	25.97
616.188	25.89
616.606	25.8
617.023	25.71
617.44	25.6
617.857	25.5
618.274	25.41
618.691	25.34
619.108	25.27
619.525	25.21
619.942	25.14
620.359	25.09
620.776	25.03
621.192	24.98
621.609	24.91
622.026	24.87
622.442	24.84
622.859	24.82
623.275	24.82
623.691	24.78
624.108	24.76
624.524	24.73
624.94	24.71
625.356	24.7
625.772	24.7
626.188	24.71
626.604	24.68
627.02	24.68
627.436	24.64
627.852	24.6
628.268	24.58
628.683	24.55
629.099	24.54
629.514	24.49
629.93	24.45
630.345	24.41
630.761	24.34
631.176	24.3
631.591	24.22
632.007	24.15
632.422	24.08
632.837	24.01
633.252	23.93
633.667	23.83
634.082	23.74
634.497	23.62
634.911	23.5
635.326	23.35
635.741	23.21
636.155	23.05
636.57	22.9
636.984	22.71
637.399	22.51
637.813	22.3
638.228	22.09
638.642	21.87
639.056	21.66
639.47	21.41
639.884	21.2
640.298	20.98
640.712	20.74
641.126	20.49
641.54	20.27
641.954	20.06
642.368	19.83
642.781	19.59
643.195	19.36
643.609	19.13
644.022	18.92
644.436	18.7
644.849	18.49
645.262	18.3
645.676	18.1
646.089	17.91
646.502	17.72
646.915	17.55
647.328	17.41
647.741	17.25
648.154	17.11
648.567	16.99
648.98	16.88
649.393	16.76
649.805	16.65
650.218	16.56
650.631	16.47
651.043	16.37
651.456	16.3
651.868	16.2
652.28	16.11
652.693	16
653.105	15.9
653.517	15.78
653.929	15.69
654.341	15.58
654.753	15.45
655.165	15.3
655.577	15.15
655.989	14.99
656.401	14.81
656.813	14.65
657.224	14.5
657.636	14.33
658.047	14.15
658.459	13.95
658.87	13.75
659.282	13.57
659.693	13.39
660.104	13.21
660.515	13
660.926	12.83
661.338	12.63
661.749	12.44
662.159	12.25
662.57	12.07
662.981	11.9
663.392	11.72
663.803	11.54
664.213	11.37
664.624	11.21
665.035	11.06
665.445	10.92
665.855	10.79
666.266	10.66
666.676	10.53
667.086	10.39
667.497	10.27
667.907	10.15
668.317	10.06
668.727	9.98
669.137	9.91
669.547	9.85
669.956	9.78
670.366	9.74
670.776	9.7
671.186	9.67
671.595	9.65
672.005	9.64
672.414	9.64
672.824	9.63
673.233	9.64
673.642	9.63
674.052	9.64
674.461	9.65
674.87	9.66
675.279	9.69
675.688	9.72
676.097	9.75
676.506	9.78
676.915	9.84
677.323	9.89
677.732	9.95
678.141	10.04
678.549	10.12
678.958	10.23
679.366	10.35
679.775	10.49
680.183	10.65
680.592	10.83
681	11.03
681.408	11.27
681.816	11.52
682.224	11.79
682.632	12.11
683.04	12.45
683.448	12.84
683.856	13.26
684.264	13.72
684.671	14.22
685.079	14.76
685.487	15.34
685.894	15.96
686.302	16.6
686.709	17.28
687.116	18.01
687.524	18.76
687.931	19.53
688.338	20.33
688.745	21.17
689.152	22.01
689.559	22.86
689.966	23.72
690.373	24.62
690.78	25.54
691.187	26.47
691.593	27.37
692	28.26
692.407	29.18
692.813	30.08
693.22	30.94
693.626	31.81
694.032	32.69
694.439	33.56
694.845	34.41
695.251	35.22
695.657	36
696.063	36.8
696.469	37.6
696.875	38.32
697.281	39.04
697.687	39.77
698.093	40.48
698.498	41.15
698.904	41.81
699.31	42.41
699.715	43.03
700.12	43.62
700.526	44.21
700.931	44.74
701.337	45.3
701.742	45.83
702.147	46.35
702.552	46.88
702.957	47.37
703.362	47.84
703.767	48.32
704.172	48.77
704.577	49.24
704.981	49.64
705.386	50.06
705.791	50.47
706.195	50.82
706.6	51.19
707.004	51.51
707.408	51.88
707.813	52.21
708.217	52.54
708.621	52.87
709.025	53.15
709.43	53.48
709.834	53.78
710.237	54.06
710.641	54.38
711.045	54.64
711.449	54.91
711.853	55.15
712.256	55.42
712.66	55.67
713.064	55.92
713.467	56.16
713.87	56.37
714.274	56.62
714.677	56.84
715.08	57.05
715.484	57.31
715.887	57.54
716.29	57.73
716.693	57.93
717.096	58.11
717.499	58.28
717.901	58.45
718.304	58.65
718.707	58.79
719.109	58.97
719.512	59.16
719.915	59.33
720.317	59.47
720.719	59.63
721.122	59.79
721.524	59.98
721.926	60.13
722.328	60.28
722.731	60.43
723.133	60.55
723.535	60.69
723.937	60.79
724.338	60.9
724.74	61
725.142	61.12
725.544	61.21
725.945	61.27
726.347	61.38
726.748	61.46
727.15	61.52
727.551	61.63
727.952	61.68
728.354	61.77
728.755	61.83
729.156	61.93
729.557	62.01
729.958	62.09
730.359	62.18
730.76	62.23
731.161	62.31
731.562	62.37
731.962	62.46
732.363	62.55
732.763	62.59
733.164	62.63
733.564	62.68
733.965	62.69
734.365	62.7
734.766	62.74
735.166	62.74
735.566	62.73
735.966	62.77
736.366	62.74
736.766	62.75
737.166	62.77
737.566	62.76
737.966	62.78
738.365	62.84
738.765	62.9
739.165	62.89
739.564	62.92
739.964	62.94
740.363	62.96
740.763	62.96
741.162	62.96
741.561	62.98
741.96	63.01
742.36	63.03
742.759	62.99
743.158	62.99
743.557	63.02
743.955	63.07
744.354	63.1
744.753	63.12
745.152	63.15
745.55	63.18
745.949	63.18
746.348	63.21
746.746	63.23
747.144	63.29
747.543	63.3
747.941	63.35
748.339	63.36
748.737	63.39
749.136	63.42
749.534	63.44
749.932	63.46
750.33	63.48
750.727	63.47
751.125	63.47
751.523	63.45
751.921	63.49
752.318	63.51
752.716	63.52
753.113	63.52
753.511	63.48
753.908	63.46
754.305	63.45
754.703	63.42
755.1	63.42
755.497	63.42
755.894	63.43
756.291	63.42
756.688	63.36
757.085	63.35
757.482	63.36
757.878	63.39
758.275	63.41
758.672	63.44
759.068	63.49
759.465	63.49
759.861	63.46
760.258	63.43
760.654	63.39
761.05	63.42
761.447	63.37
761.843	63.3
762.239	63.23
762.635	63.23
763.031	63.19
763.427	63.14
763.822	63.12
764.218	63.08
764.614	63.07
765.01	63.05
765.405	62.96
765.801	62.94
766.196	62.93
766.592	62.96
766.987	62.93
767.382	62.92
767.778	62.92
768.173	62.92
768.568	62.89
768.963	62.89
769.358	62.9
769.753	62.98
770.148	62.99
770.542	63.02
770.937	62.99
771.332	62.96
771.726	62.94
772.121	62.92
772.515	62.92
772.91	62.99
773.304	63
773.699	62.99
774.093	62.91
774.487	62.95
774.881	62.93
775.275	62.93
775.669	62.94
776.063	62.96
776.457	62.95
776.851	62.92
777.245	62.94
777.638	62.93
778.032	62.94
778.425	62.98
778.819	62.97
779.212	62.97
779.606	63
779.999	63.02
780.392	63.01
780.786	63.03
781.179	63.02
781.572	62.99
781.965	62.99
782.358	62.94
782.751	62.93
783.143	62.95
783.536	63.01
783.929	63.03
784.322	63.05
784.714	63.05
785.107	63.03
785.499	63.07
785.891	63.07
786.284	63.04
786.676	63.08
787.068	63.07
787.46	63.07
787.852	63.04
788.245	63.01
788.636	62.98
789.028	62.98
789.42	63.01
789.812	63
790.204	62.96
790.595	63.01
790.987	63.02
791.378	63.04
791.77	63.06
792.161	63.07
792.553	63.11
792.944	63.1
793.335	63.13
793.726	63.13
794.117	63.11
794.508	63.14
794.899	63.13
795.29	63.13
795.681	63.12
796.072	63.07
796.463	63.06
796.853	63.03
797.244	63.07
797.634	63.06
798.025	63.06
798.415	63.09
798.806	63.11
799.196	63.13
799.586	63.15
799.976	63.19
800.366	63.19
800.756	63.19
801.146	63.17
801.536	63.15
801.926	63.16
802.316	63.2
802.706	63.23
803.095	63.24
803.485	63.24
803.874	63.26
804.264	63.24
804.653	63.22
805.043	63.22
805.432	63.22
805.821	63.24
806.21	63.25
806.599	63.27
806.988	63.24
807.377	63.26
807.766	63.26
808.155	63.26
808.544	63.24
808.933	63.3
809.321	63.33
809.71	63.39
810.098	63.37
810.487	63.39
810.875	63.34
811.264	63.38
811.652	63.41
812.04	63.43
812.428	63.44
812.816	63.49
813.204	63.5
813.592	63.5
813.98	63.49
814.368	63.53
814.756	63.57
815.144	63.63
815.531	63.67
815.919	63.65
816.306	63.67
816.694	63.69
817.081	63.68
817.469	63.69
817.856	63.72
818.243	63.77
818.63	63.81
819.017	63.79
819.404	63.73
819.791	63.72
820.178	63.73
820.565	63.76
820.952	63.77
821.339	63.83
821.725	63.87
822.112	63.85
822.498	63.85
822.885	63.83
823.271	63.89
823.657	63.95
824.044	63.97
824.43	63.99
824.816	63.98
825.202	63.99
825.588	63.99
825.974	63.98
826.36	64.02
826.746	64.05
827.132	64.03
827.517	64
827.903	64.01
828.289	64.02
828.674	63.98
829.06	64.02
829.445	64.06
829.83	64.02
830.216	64.03
830.601	64.01
830.986	64.03
831.371	64.08
831.756	64.07
832.141	64.09
832.526	64.07
832.911	64.09
833.295	64.07
833.68	64.04
834.065	64.08
834.449	64.06
834.834	64.05
835.218	64.01
835.603	63.97
835.987	63.97
836.371	63.98
836.755	63.95
837.139	63.97
837.524	63.97
837.908	63.94
838.291	63.91
838.675	63.93
839.059	63.93
839.443	63.94
839.827	63.93
840.21	63.96
840.594	63.94
840.977	63.92
841.361	63.94
841.744	63.93
842.127	63.93
842.511	63.94
842.894	63.9
843.277	63.91
843.66	63.9
844.043	63.91
844.426	63.88
844.809	63.84
845.191	63.84
845.574	63.82
845.957	63.79
846.339	63.79
846.722	63.81
847.104	63.81
847.487	63.83
847.869	63.84
848.252	63.83
848.634	63.86
849.016	63.87
849.398	63.89
849.78	63.86
850.162	63.87
850.544	63.91
850.926	63.88
851.307	63.9
851.689	63.87
852.071	63.86
852.452	63.85
852.834	63.83
853.215	63.87
853.597	63.88
853.978	63.9
854.359	63.89
854.741	63.89
855.122	63.89
855.503	63.91
855.884	63.93
856.265	63.92
856.646	63.91
857.026	63.92
857.407	63.86
857.788	63.88
858.169	63.86
858.549	63.88
858.93	63.83
859.31	63.8
859.69	63.77
860.071	63.75
860.451	63.76
860.831	63.79
861.211	63.78
861.591	63.81
861.971	63.75
862.351	63.77
862.731	63.79
863.111	63.79
863.491	63.83
863.87	63.82
864.25	63.86
864.629	63.86
865.009	63.84
865.388	63.85
865.768	63.83
866.147	63.87
866.526	63.84
866.905	63.83
867.284	63.85
867.663	63.83
868.042	63.83
868.421	63.8
868.8	63.79
869.179	63.79
869.558	63.78
869.936	63.79
870.315	63.79
870.693	63.82
871.072	63.78
871.45	63.78
871.828	63.79
872.207	63.81
872.585	63.8
872.963	63.81
873.341	63.82
873.719	63.8
874.097	63.8
874.475	63.82
874.853	63.81
875.23	63.83
875.608	63.85
875.986	63.83
876.363	63.81
876.741	63.81
877.118	63.81
877.495	63.77
877.873	63.75
878.25	63.73
878.627	63.69
879.004	63.68
879.381	63.68
879.758	63.63
880.135	63.62
880.512	63.6
880.889	63.6
881.265	63.6
881.642	63.61
882.019	63.63
882.395	63.62
882.772	63.62
883.148	63.62
883.524	63.65
883.901	63.62
884.277	63.61
884.653	63.62
885.029	63.62
885.405	63.61
885.781	63.59
886.157	63.55
886.532	63.54
886.908	63.55
887.284	63.54
887.659	63.5
888.035	63.55
888.411	63.54
888.786	63.56
889.161	63.56
889.537	63.58
889.912	63.55
890.287	63.56
890.662	63.57
891.037	63.56
891.412	63.51
891.787	63.51
892.162	63.45
892.536	63.46
892.911	63.41
893.286	63.37
893.66	63.32
894.035	63.33
894.409	63.31
894.784	63.28
895.158	63.25
895.532	63.27
895.906	63.24
896.281	63.22
896.655	63.21
897.029	63.22
897.402	63.24
897.776	63.23
898.15	63.22
898.524	63.22
898.898	63.22
899.271	63.22
899.645	63.21
900.018	63.21
900.392	63.25
900.765	63.23
901.138	63.21
901.511	63.2
901.884	63.23
902.258	63.23
902.631	63.24
903.003	63.24
903.376	63.24
903.749	63.26
904.122	63.29
904.495	63.29
904.867	63.27
905.24	63.25
905.612	63.22
905.985	63.17
906.357	63.14
906.729	63.11
907.102	63.1
907.474	63.1
907.846	63.05
908.218	62.98
908.59	62.96
908.962	62.96
909.334	62.97
909.705	62.95
910.077	62.96
910.449	62.95
910.82	62.94
911.192	62.94
911.563	62.91
911.935	62.88
912.306	62.89
912.677	62.84
913.048	62.83
913.419	62.82
913.79	62.79
914.161	62.76
914.532	62.79
914.903	62.77
915.274	62.74
915.645	62.73
916.015	62.78
916.386	62.75
916.756	62.74
917.127	62.7
917.497	62.69
917.868	62.74
918.238	62.76
918.608	62.69
918.978	62.68
919.348	62.64
919.718	62.62
920.088	62.61
920.458	62.64
920.828	62.67
921.198	62.71
921.567	62.71
921.937	62.72
922.306	62.68
922.676	62.72
923.045	62.7
923.415	62.76
923.784	62.76
924.153	62.75
924.522	62.71
924.891	62.69
925.26	62.61
925.629	62.6
925.998	62.53
926.367	62.52
926.736	62.46
927.104	62.46
927.473	62.46
927.842	62.46
928.21	62.45
928.578	62.46
928.947	62.44
929.315	62.46
929.683	62.45
930.051	62.44
930.42	62.44
930.788	62.47
931.156	62.49
931.523	62.48
931.891	62.41
932.259	62.33
932.627	62.24
932.994	62.21
933.362	62.19
933.729	62.15
934.097	62.15
934.464	62.1
934.831	62.05
935.199	61.94
935.566	61.84
935.933	61.92
936.3	61.9
936.667	61.88
937.034	61.85
937.401	61.78
937.767	61.74
938.134	61.68
938.501	61.61
938.867	61.61
939.234	61.67
939.6	61.68
939.967	61.54
940.333	61.57
940.699	61.74
941.065	61.83
941.431	61.9
941.798	61.95
942.163	62.04
942.529	62.18
942.895	62.15
943.261	62.25
943.627	62.34
943.992	62.37
944.358	62.43
944.723	62.3
945.089	62.27
945.454	62.3
945.82	62.25
946.185	62.29
946.55	62.29
946.915	62.35
947.28	62.21
947.645	62.15
948.01	62.18
948.375	62.2
948.74	62.23
949.104	62.22
949.469	62.15
949.834	62.14
950.198	62.12
950.562	62.04
950.927	61.95
951.291	61.96
951.655	61.97
952.02	61.87
952.384	61.76
952.748	61.77
953.112	61.76
953.476	61.74
953.839	61.77
954.203	61.68
954.567	61.62
954.931	61.56
955.294	61.5
955.658	61.4
956.021	61.49
956.385	61.57
956.748	61.6
957.111	61.51
957.474	61.54
957.837	61.5
958.2	61.39
958.563	61.41
958.926	61.42
959.289	61.41
959.652	61.44
960.015	61.36
960.377	61.29
960.74	61.12
961.102	61.12
961.465	61.11
961.827	61
962.189	61.01
962.552	60.97
962.914	60.97
963.276	60.97
963.638	60.88
964	60.83
964.362	60.82
964.724	60.84
965.085	60.85
965.447	60.71
965.809	60.67
966.17	60.65
966.532	60.64
966.893	60.58
967.255	60.49
967.616	60.59
967.977	60.59
968.338	60.55
968.699	60.58
969.061	60.53
969.421	60.56
969.782	60.58
970.143	60.64
970.504	60.57
970.865	60.55
971.225	60.56
971.586	60.5
971.946	60.49
972.307	60.45
972.667	60.39
973.027	60.4
973.388	60.41
973.748	60.44
974.108	60.42
974.468	60.46
974.828	60.52
975.188	60.59
975.548	60.61
975.907	60.61
976.267	60.7
976.627	60.66
976.986	60.63
977.346	60.56
977.705	60.62
978.064	60.6
978.424	60.53
978.783	60.39
979.142	60.31
979.501	60.21
979.86	60.16
980.219	59.99
980.578	59.97
980.937	60.01
981.296	60.04
981.654	59.89
982.013	59.86
982.371	59.79
982.73	59.75
983.088	59.72
983.447	59.73
983.805	59.7
984.163	59.8
984.521	59.76
984.879	59.74
985.237	59.65
985.595	59.71
985.953	59.7
986.311	59.84
986.669	59.98
987.026	59.98
987.384	60.04
987.741	60.11
988.099	60.1
988.456	60.06
988.814	60.07
989.171	60.04
989.528	59.95
989.885	59.91
990.242	59.98
990.599	59.89
990.956	59.86
991.313	59.77
991.67	59.69
992.027	59.68
992.383	59.78
992.74	59.68
993.096	59.69
993.453	59.75
993.809	59.7
994.165	59.61
994.522	59.77
994.878	59.78
995.234	59.6
995.59	59.64
995.946	59.62
996.302	59.49
996.658	59.33
997.013	59.42
997.369	59.36
997.725	59.54
998.08	59.46
998.436	59.22
998.791	59.23
999.147	59.46
999.502	59.46
999.857	59.37
1000.212	59.3
1000.567	59.46
1000.922	59.26
1001.277	59.17
1001.632	59.09
1001.987	58.99
1002.342	59.13
1002.696	59.04
1003.051	58.77
1003.406	58.49
1003.76	58.39
1004.114	58.5
1004.469	58.43
1004.823	58.42
1005.177	58.44
1005.531	58.2
1005.885	58.25
1006.239	58.12
1006.593	58.07
1006.947	58.2
1007.301	58.44
1007.655	58.57
1008.008	58.52
1008.362	58.45
1008.715	58.46
1009.069	58.47
1009.422	58.51
1009.776	58.5
1010.129	58.35
1010.482	58.48
1010.835	58.5
1011.188	58.3
1011.541	57.95
1011.894	57.88
1012.247	57.9
1012.6	58.08
1012.952	58
1013.305	57.92
1013.657	57.88
1014.01	58.11
1014.362	58.22
1014.715	58.15
1015.067	58.31
1015.419	58.69
1015.771	58.8
1016.123	58.88
1016.475	58.77
1016.827	58.91
1017.179	59.08
1017.531	59.11
1017.883	59.18
1018.234	58.9
1018.586	58.83
1018.938	58.47
1019.289	58.18
1019.64	58.31
1019.992	58.05
1020.343	57.73
1020.694	57.49
1021.045	57.37
1021.396	57.19
1021.747	56.81
1022.098	56.69
1022.449	56.56
1022.8	56.57
1023.151	56.73
1023.501	56.5
1023.852	56.65
1024.202	56.81
1024.553	56.71
1024.903	56.39
1025.253	56.32
1025.604	56.17
1025.954	55.86
1026.304	56.21
1026.654	56.48
1027.004	56.39
1027.354	56.31
1027.703	56.16
1028.053	55.62
1028.403	55.52
1028.753	55.9
1029.102	55.98
1029.452	56.27
1029.801	56.68
1030.15	56.49
1030.499	56.28
897.758	844.48
901.051	849.55
904.343	863.27
907.636	853.35
910.928	835.73
914.22	850.11
917.511	832.33
920.803	800.89
924.094	762.31
927.384	770.4
930.675	746.76
933.965	740.45
937.255	744.91
940.544	710.12
943.834	669.5
947.123	661.26
950.411	624.71
953.7	612.73
956.988	592.32
960.276	567.03
963.563	558.08
966.851	526.14
970.138	516.82
973.424	478.92
976.711	471.74
979.997	463.12
983.283	452.67
986.568	438.61
989.853	423.07
993.138	408.91
996.423	405.3
999.708	393
1002.992	395.04
1006.275	382.47
1009.559	380.32
1012.842	369.48
1016.125	353.7
1019.408	347.94
1022.69	343.86
1025.972	342.7
1029.254	332.91
1032.536	326.93
1035.817	315.66
1039.098	309.97
1042.379	303.79
1045.659	298.86
1048.939	296.75
1052.219	294.44
1055.498	286.9
1058.778	282.4
1062.057	276.39
1065.335	275.94
1068.614	270.58
1071.892	268.17
1075.17	262.45
1078.447	259.73
1081.724	256.98
1085.001	251.98
1088.278	250.22
1091.554	250.06
1094.83	247.95
1098.106	244.98
1101.382	242.99
1104.657	241.93
1107.932	241.8
1111.206	239.82
1114.481	237.66
1117.755	235.36
1121.029	234.95
1124.302	231.28
1127.575	227.01
1130.848	227.05
1134.121	223
1137.393	222.7
1140.665	221.13
1143.937	218.08
1147.208	215.9
1150.48	213.34
1153.75	213.32
1157.021	210.4
1160.291	209.88
1163.561	210.66
1166.831	207.75
1170.101	208.72
1173.37	205.76
1176.639	204.06
1179.907	203.34
1183.176	204.22
1186.444	204.42
1189.711	202.9
1192.979	205.01
1196.246	205.94
1199.513	204.15
1202.78	204.95
1206.046	204.66
1209.312	206.66
1212.578	208.04
1215.843	211.28
1219.108	211.81
1222.373	214.93
1225.638	218.5
1228.902	223.73
1232.166	228.42
1235.43	233.18
1238.693	238.99
1241.956	244.99
1245.219	252.16
1248.482	252.26
1251.744	251.82
1255.006	251.93
1258.268	246.46
1261.529	244.35
1264.79	236.27
1268.051	232.58
1271.312	229.46
1274.572	225.19
1277.832	217.96
1281.092	213.95
1284.351	210.48
1287.61	210.28
1290.869	208.82
1294.128	207.94
1297.386	206.01
1300.644	206.24
1303.902	204.67
1307.159	203.56
1310.416	205.04
1313.673	209.59
1316.93	211.23
1320.186	214.85
1323.442	216.98
1326.697	221.53
1329.953	224.03
1333.208	232.23
1336.463	241.56
1339.717	246.76
1342.972	257.78
1346.226	264.63
1349.479	266.31
1352.733	278.21
1355.986	283.73
1359.238	290.09
1362.491	294.45
1365.743	303.13
1368.995	304.63
1372.247	301.39
1375.498	301.91
1378.749	313.54
1382	312.87
1385.251	311.84
1388.501	309.99
1391.751	315.09
1395	313.52
1398.25	315.49
1401.499	314.67
1404.748	315.8
1407.996	310.05
1411.244	309.63
1414.492	303.84
1417.74	296.41
1420.987	289.73
1424.234	285.09
1427.481	273.21
1430.728	266.84
1433.974	257.02
1437.22	248.97
1440.465	240.28
1443.711	234.06
1446.956	227.6
1450.201	218.4
1453.445	208.07
1456.689	202.05
1459.933	195.59
1463.177	187.57
1466.42	183.07
1469.663	177.77
1472.906	172.89
1476.148	168.24
1479.391	164.32
1482.633	161.26
1485.874	157.84
1489.115	156.75
1492.356	154.21
1495.597	152.26
1498.838	151.57
1502.078	149.97
1505.318	149.48
1508.557	148.99
1511.797	146.6
1515.036	146.45
1518.274	145.34
1521.513	144.07
1524.751	143.38
1527.989	144.25
1531.227	143.34
1534.464	143.05
1537.701	141.95
1540.938	141.04
1544.174	140.23
1547.41	140.62
1550.646	140.12
1553.882	140.15
1557.117	139.22
1560.352	138.75
1563.587	137.53
1566.821	137.25
1570.055	135.71
1573.289	135.58
1576.523	136.28
1579.756	135.47
1582.989	136.01
1586.222	135.15
1589.454	134.11
1592.686	134.58
1595.918	134.16
1599.15	133.58
1602.381	134.33
1605.612	134.92
1608.843	134.88
1612.073	134.31
1615.303	134.75
1618.533	134.06
1621.762	135.13
1624.992	136.05
1628.221	135.65
1631.449	136.13
1634.678	135.91
1637.906	135.48
1641.134	135.65
1644.361	135.8
1647.588	135.84
1650.815	136.06
1654.042	135.81
1657.269	135.28
1660.495	135.47
1663.72	135.01
1666.946	135.61
1670.171	136.48
1673.396	136.68
1676.621	137.21
1679.845	137.31
1683.069	137.04
1686.293	136.8
1689.517	137.39
1692.74	137.58
1695.963	137.72
1699.185	139.79
1702.408	138.56
1705.63	139.01
1708.852	139.74
1712.073	139.31
1715.294	139.31
1718.515	139.88
1721.736	140.21
1724.956	140.46
1728.176	140.19
1731.396	141.55
1734.616	140.96
1737.835	142.32
1741.054	141.56
1744.272	140.71
1747.491	141.49
1750.709	142.29
1753.927	143.03
1757.144	142.49
1760.361	143.09
1763.578	144.09
1766.795	143.72
1770.011	144.03
1773.227	144.32
1776.443	145.78
1779.658	147.53
1782.874	147.64
1786.089	148.01
1789.303	148.23
1792.518	150.35
1795.732	150.94
1798.945	152.67
1802.159	152.58
1805.372	154.98
1808.585	156.25
1811.797	157.47
1815.01	157.81
1818.222	159.1
1821.434	160
1824.645	161.54
1827.856	163.74
1831.067	164.99
1834.278	165.24
1837.488	167.47
1840.698	168.35
1843.908	168.69
1847.117	170.77
1850.326	173.02
1853.535	172.88
1856.744	175.4
1859.952	176.81
1863.16	177.16
1866.368	175.87
1869.575	178.57
1872.782	177.11
1875.989	176.05
1879.196	175.11
1882.402	173.73
1885.608	174.36
1888.814	175.21
1892.019	175.72
1895.224	173.36
1898.429	173.39
1901.634	176.36
1904.838	175.02
1908.042	177.75
1911.246	177.15
1914.449	179.15
1917.652	178.25
1920.855	178.53
1924.058	177.87
1927.26	177.47
1930.462	178.84
1933.664	179.18
1936.865	177.16
1940.066	176.43
1943.267	174.32
1946.467	176.77
1949.668	176.6
1952.868	177.24
1956.067	176.46
1959.267	177.64
1962.466	178.27
1965.665	180.01
1968.863	181.43
1972.061	183.27
1975.259	186.52
1978.457	188.07
1981.654	188.66
1984.852	190.91
1988.048	193.57
1991.245	196.99
1994.441	201.04
1997.637	204.79
2000.833	208.15
2004.028	209.3
2007.223	217.33
2010.418	221.25
2013.613	231.59
2016.807	238.29
2020.001	242.44
2023.194	247.89
2026.388	256.44
2029.581	268.53
2032.774	277.43
2035.966	286.29
2039.158	295.62
2042.35	298.68
2045.542	303.8
2048.733	315.7
2051.924	318.88
2055.115	324.44
2058.306	328.2
2061.496	335.01
2064.686	336.75
2067.875	330.59
2071.065	333.38
2074.254	335.43
2077.442	344.04
2080.631	348.29
2083.819	346.76
2087.007	356.23
2090.195	360.68
2093.382	361.75
2096.569	360.78
2099.756	364.34
2102.942	376.07
2106.128	384.24
2109.314	385.16
2112.5	386.34
2115.685	385.44
2118.87	386.35
2122.055	386.2
2125.239	395.52
2128.424	404.66
2131.608	403.21
2134.791	405.72
2137.974	406.28
2141.157	408.18
2144.34	412.38
2147.523	417.67
2150.705	427.2
2153.887	423.95
2157.068	428.09
2160.25	429.66
2163.431	426.44
2166.611	433.32
2169.792	440.3
2172.972	448.48
2176.152	447.06
2179.331	458.35
2182.511	458.68
2185.69	463.09
2188.868	484.66
2192.047	495.74
2195.225	503.6
2198.403	513.38
2201.58	507.65
2204.758	523.55
2207.935	525.25
2211.111	540.49
2214.288	541.37
2217.464	548.49
2220.64	554.4
2223.815	553.99
2226.991	546.31
2230.166	551.67
2233.34	569
2236.515	584.23
2239.689	575.84
2242.863	585.5
2246.036	577.19
2249.209	594.49
2252.382	595.25
2255.555	612.56
2258.727	613.12
2261.9	634.41
2265.071	643.3
2268.243	634.49
2271.414	656.2
2274.585	669.71
2277.756	673.17
2280.926	699.06
2284.096	697.56
2287.266	701.33
2290.436	688.52
2293.605	704.92
2296.774	729.46
2299.942	729.68
2303.111	755.25
2306.279	767.24
2309.447	771.76
2312.614	772.27
2315.781	793.96
2318.948	801.38
2322.115	816.68
2325.281	860.57
2328.447	859.68
2331.613	857.08
2334.779	871.21
2337.944	882.38
2341.109	900.75
2344.274	913.61
2347.438	938.42
2350.602	951.69
2353.766	1015.39
2356.929	1016.53
2360.092	1032.21
2363.255	1032.18
2366.418	1052.49
2369.58	1080.2
2372.742	1073.3
2375.904	1065.43
2379.066	1091.61
2382.227	1154.24
2385.388	1154.08
2388.548	1097.26
2391.709	1085.88
2394.869	1122.38
2398.029	1118.11
2401.188	1118.87
2404.347	1150.62
2407.506	1196.52
2410.665	1153.13
2413.823	1153.59
2416.981	1151.74
2420.139	1090.26
2423.296	1169.23
2426.453	1250.05
2429.61	1185.49
2432.767	1274.92
2435.923	1320.87
2439.079	1250.07
2442.235	1282.06
2445.391	1311.85
2448.546	1304.36
2451.701	1387.88
2454.855	1487.94
2458.009	1310.6
2461.163	1335.45
2464.317	1353.35
2467.471	1323.51
2470.624	1368.08
2473.777	1359.46
2476.929	1313.52
2480.082	1403.98
2483.234	1471.52
2486.385	1483.63
2489.537	1518.4
2492.688	1688.12
2495.839	1642.66
2498.989	1692.94
2502.14	1704.6
2505.29	1617.37
2508.439	1812.89
2511.589	1863.28
2514.738	1801.34
2517.887	1787.62
2521.035	1669.92
2524.183	1646.47
2527.331	1628.94
2530.479	1601.71
2533.627	1638.41
