Data from N_2_dec_oh_4n_045_Splice17_20.txt Node
Date: Sat Feb 29 13:55:06 EST 2020
User: sa697716
Spectrometer: FLMS03696
Trigger mode: 0
Integration Time (sec): 3.180400E-1
Scans to average: 20
Electric dark correction enabled: true
Nonlinearity correction enabled: true
Boxcar width: 5
XAxis mode: Wavelengths
Number of Pixels in Spectrum: 2048
>>>>>Begin Spectral Data<<<<<
187.83	87.01
188.298	88.99
188.766	99.94
189.233	104.1
189.701	113.01
190.169	103.26
190.636	104.75
191.104	100.62
191.571	290.4
192.039	228.5
192.506	-159.13
192.974	3043.95
193.441	-451.14
193.908	196.05
194.375	309.82
194.842	396.36
195.31	169.45
195.777	189.06
196.244	54.45
196.711	31.59
197.177	28.04
197.644	27.19
198.111	26.98
198.578	26.5
199.045	26.96
199.511	27.38
199.978	28.23
200.445	28.47
200.911	28.76
201.378	28.89
201.844	29.71
202.31	30.21
202.777	30.45
203.243	31.04
203.709	31.26
204.176	30.62
204.642	30.78
205.108	30.76
205.574	31.09
206.04	30.62
206.506	30.43
206.972	30.18
207.438	29.66
207.903	29.94
208.369	29.71
208.835	29.75
209.301	29.94
209.766	29.77
210.232	29.37
210.697	29.26
211.163	29.28
211.628	28.84
212.094	28.34
212.559	28.09
213.024	27.1
213.49	26.51
213.955	25.98
214.42	25.32
214.885	24.56
215.35	23.64
215.815	22.21
216.28	21.18
216.745	20.25
217.21	19.31
217.675	18.31
218.14	17.25
218.604	16.32
219.069	15.55
219.534	14.87
219.998	14.3
220.463	13.94
220.927	13.55
221.392	13.17
221.856	12.79
222.32	12.48
222.785	12.16
223.249	12
223.713	11.82
224.177	11.57
224.642	11.39
225.106	11.19
225.57	10.95
226.034	10.81
226.497	10.63
226.961	10.52
227.425	10.35
227.889	10.21
228.353	10.06
228.816	9.92
229.28	9.79
229.744	9.66
230.207	9.56
230.671	9.41
231.134	9.28
231.597	9.16
232.061	9.03
232.524	8.93
232.987	8.84
233.45	8.72
233.914	8.62
234.377	8.52
234.84	8.43
235.303	8.34
235.766	8.27
236.229	8.21
236.691	8.13
237.154	8.05
237.617	7.97
238.08	7.88
238.542	7.83
239.005	7.74
239.468	7.66
239.93	7.58
240.393	7.5
240.855	7.42
241.317	7.34
241.78	7.27
242.242	7.21
242.704	7.13
243.166	7.06
243.629	6.99
244.091	6.93
244.553	6.87
245.015	6.81
245.477	6.74
245.939	6.69
246.4	6.63
246.862	6.58
247.324	6.53
247.786	6.49
248.247	6.44
248.709	6.38
249.17	6.34
249.632	6.28
250.093	6.22
250.555	6.2
251.016	6.16
251.477	6.1
251.939	6.07
252.4	6.03
252.861	5.98
253.322	5.94
253.783	5.92
254.244	5.88
254.705	5.87
255.166	5.85
255.627	5.81
256.088	5.78
256.549	5.77
257.009	5.73
257.47	5.69
257.931	5.66
258.391	5.63
258.852	5.59
259.312	5.57
259.773	5.53
260.233	5.49
260.694	5.45
261.154	5.41
261.614	5.38
262.074	5.35
262.534	5.3
262.994	5.27
263.455	5.24
263.915	5.21
264.374	5.18
264.834	5.16
265.294	5.13
265.754	5.1
266.214	5.08
266.673	5.05
267.133	5.03
267.593	5.01
268.052	4.99
268.512	4.97
268.971	4.96
269.431	4.94
269.89	4.91
270.349	4.9
270.809	4.9
271.268	4.88
271.727	4.87
272.186	4.86
272.645	4.84
273.104	4.83
273.563	4.82
274.022	4.8
274.481	4.79
274.94	4.78
275.399	4.76
275.857	4.75
276.316	4.73
276.775	4.71
277.233	4.69
277.692	4.67
278.15	4.65
278.609	4.63
279.067	4.61
279.525	4.59
279.984	4.57
280.442	4.56
280.9	4.55
281.358	4.53
281.816	4.52
282.274	4.51
282.732	4.5
283.19	4.49
283.648	4.48
284.106	4.46
284.564	4.46
285.021	4.46
285.479	4.45
285.937	4.43
286.394	4.42
286.852	4.41
287.309	4.4
287.767	4.38
288.224	4.37
288.682	4.35
289.139	4.35
289.596	4.33
290.053	4.3
290.511	4.28
290.968	4.26
291.425	4.24
291.882	4.22
292.339	4.2
292.796	4.19
293.252	4.17
293.709	4.16
294.166	4.14
294.623	4.13
295.079	4.11
295.536	4.1
295.992	4.09
296.449	4.08
296.905	4.07
297.362	4.06
297.818	4.05
298.274	4.03
298.731	4.03
299.187	4.02
299.643	4.01
300.099	4.01
300.555	3.99
301.011	3.99
301.467	3.98
301.923	3.97
302.379	3.97
302.835	3.96
303.291	3.95
303.746	3.94
304.202	3.93
304.658	3.92
305.113	3.91
305.569	3.91
306.024	3.9
306.479	3.89
306.935	3.88
307.39	3.87
307.845	3.87
308.301	3.87
308.756	3.87
309.211	3.87
309.666	3.86
310.121	3.86
310.576	3.84
311.031	3.83
311.486	3.83
311.94	3.82
312.395	3.83
312.85	3.82
313.305	3.81
313.759	3.8
314.214	3.8
314.668	3.8
315.123	3.8
315.577	3.8
316.032	3.8
316.486	3.78
316.94	3.78
317.394	3.77
317.849	3.75
318.303	3.75
318.757	3.74
319.211	3.72
319.665	3.71
320.119	3.69
320.572	3.69
321.026	3.68
321.48	3.67
321.934	3.67
322.387	3.67
322.841	3.67
323.295	3.66
323.748	3.65
324.202	3.66
324.655	3.66
325.108	3.65
325.562	3.63
326.015	3.62
326.468	3.61
326.921	3.6
327.374	3.58
327.827	3.57
328.28	3.55
328.733	3.54
329.186	3.53
329.639	3.52
330.092	3.51
330.545	3.51
330.997	3.51
331.45	3.51
331.903	3.5
332.355	3.49
332.808	3.5
333.26	3.5
333.713	3.5
334.165	3.5
334.617	3.5
335.069	3.5
335.522	3.5
335.974	3.5
336.426	3.5
336.878	3.5
337.33	3.49
337.782	3.49
338.234	3.49
338.686	3.49
339.137	3.49
339.589	3.49
340.041	3.49
340.493	3.47
340.944	3.47
341.396	3.46
341.847	3.45
342.299	3.43
342.75	3.41
343.201	3.39
343.653	3.38
344.104	3.36
344.555	3.35
345.006	3.33
345.457	3.33
345.908	3.32
346.359	3.31
346.81	3.32
347.261	3.31
347.712	3.31
348.163	3.31
348.613	3.31
349.064	3.29
349.515	3.29
349.965	3.29
350.416	3.28
350.866	3.27
351.317	3.27
351.767	3.26
352.217	3.27
352.668	3.27
353.118	3.27
353.568	3.29
354.018	3.3
354.468	3.3
354.918	3.31
355.368	3.32
355.818	3.32
356.268	3.32
356.718	3.32
357.168	3.3
357.617	3.31
358.067	3.29
358.517	3.29
358.966	3.29
359.416	3.29
359.865	3.29
360.315	3.29
360.764	3.31
361.213	3.3
361.663	3.3
362.112	3.31
362.561	3.31
363.01	3.32
363.459	3.31
363.908	3.3
364.357	3.3
364.806	3.3
365.255	3.3
365.703	3.3
366.152	3.3
366.601	3.3
367.05	3.3
367.498	3.3
367.947	3.31
368.395	3.32
368.844	3.33
369.292	3.32
369.74	3.33
370.189	3.33
370.637	3.34
371.085	3.35
371.533	3.36
371.981	3.37
372.429	3.36
372.877	3.36
373.325	3.36
373.773	3.37
374.221	3.38
374.669	3.37
375.116	3.37
375.564	3.37
376.012	3.37
376.459	3.38
376.907	3.39
377.354	3.4
377.801	3.41
378.249	3.41
378.696	3.41
379.143	3.42
379.591	3.43
380.038	3.45
380.485	3.46
380.932	3.46
381.379	3.46
381.826	3.47
382.273	3.48
382.72	3.49
383.166	3.5
383.613	3.51
384.06	3.52
384.506	3.52
384.953	3.52
385.4	3.53
385.846	3.54
386.292	3.55
386.739	3.56
387.185	3.58
387.631	3.59
388.078	3.61
388.524	3.6
388.97	3.62
389.416	3.62
389.862	3.64
390.308	3.64
390.754	3.66
391.2	3.67
391.645	3.69
392.091	3.69
392.537	3.7
392.983	3.72
393.428	3.74
393.874	3.76
394.319	3.77
394.765	3.78
395.21	3.79
395.655	3.8
396.101	3.82
396.546	3.83
396.991	3.85
397.436	3.85
397.881	3.87
398.326	3.88
398.771	3.9
399.216	3.92
399.661	3.95
400.106	3.96
400.551	3.96
400.995	3.95
401.44	3.96
401.885	3.96
402.329	3.98
402.774	3.98
403.218	3.98
403.663	3.97
404.107	3.98
404.551	3.99
404.995	4.01
405.44	4.02
405.884	4.04
406.328	4.03
406.772	4.05
407.216	4.06
407.66	4.06
408.104	4.07
408.547	4.09
408.991	4.08
409.435	4.07
409.879	4.06
410.322	4.08
410.766	4.09
411.209	4.11
411.653	4.1
412.096	4.1
412.54	4.11
412.983	4.12
413.426	4.12
413.869	4.15
414.312	4.17
414.756	4.19
415.199	4.2
415.642	4.21
416.085	4.21
416.527	4.24
416.97	4.25
417.413	4.25
417.856	4.24
418.298	4.24
418.741	4.25
419.184	4.25
419.626	4.23
420.069	4.23
420.511	4.23
420.953	4.24
421.396	4.23
421.838	4.26
422.28	4.27
422.722	4.29
423.164	4.31
423.606	4.3
424.048	4.29
424.49	4.32
424.932	4.31
425.374	4.3
425.816	4.29
426.258	4.29
426.699	4.26
427.141	4.24
427.582	4.24
428.024	4.24
428.465	4.24
428.907	4.26
429.348	4.24
429.789	4.27
430.231	4.28
430.672	4.29
431.113	4.3
431.554	4.32
431.995	4.34
432.436	4.35
432.877	4.33
433.318	4.34
433.759	4.35
434.2	4.38
434.64	4.38
435.081	4.38
435.522	4.41
435.962	4.43
436.403	4.44
436.843	4.46
437.284	4.46
437.724	4.5
438.164	4.52
438.604	4.52
439.045	4.51
439.485	4.52
439.925	4.52
440.365	4.5
440.805	4.49
441.245	4.48
441.685	4.49
442.125	4.51
442.564	4.51
443.004	4.51
443.444	4.53
443.883	4.54
444.323	4.53
444.762	4.56
445.202	4.6
445.641	4.62
446.081	4.67
446.52	4.66
446.959	4.65
447.398	4.67
447.837	4.7
448.276	4.71
448.716	4.74
449.154	4.77
449.593	4.79
450.032	4.76
450.471	4.76
450.91	4.72
451.349	4.73
451.787	4.73
452.226	4.7
452.664	4.67
453.103	4.65
453.541	4.63
453.98	4.6
454.418	4.56
454.856	4.55
455.295	4.53
455.733	4.53
456.171	4.52
456.609	4.55
457.047	4.53
457.485	4.52
457.923	4.52
458.361	4.51
458.798	4.53
459.236	4.53
459.674	4.54
460.111	4.54
460.549	4.55
460.987	4.55
461.424	4.53
461.862	4.54
462.299	4.54
462.736	4.55
463.173	4.56
463.611	4.56
464.048	4.59
464.485	4.6
464.922	4.6
465.359	4.61
465.796	4.63
466.233	4.63
466.67	4.65
467.106	4.66
467.543	4.67
467.98	4.68
468.416	4.68
468.853	4.67
469.29	4.66
469.726	4.67
470.162	4.65
470.599	4.63
471.035	4.63
471.471	4.62
471.907	4.62
472.344	4.61
472.78	4.6
473.216	4.58
473.652	4.58
474.088	4.58
474.523	4.57
474.959	4.56
475.395	4.56
475.831	4.54
476.266	4.54
476.702	4.52
477.138	4.49
477.573	4.46
478.008	4.47
478.444	4.44
478.879	4.43
479.314	4.41
479.75	4.42
480.185	4.4
480.62	4.4
481.055	4.39
481.49	4.38
481.925	4.38
482.36	4.38
482.795	4.36
483.229	4.37
483.664	4.36
484.099	4.36
484.534	4.35
484.968	4.35
485.403	4.35
485.837	4.35
486.271	4.35
486.706	4.34
487.14	4.35
487.574	4.35
488.009	4.35
488.443	4.36
488.877	4.36
489.311	4.37
489.745	4.37
490.179	4.38
490.613	4.38
491.046	4.4
491.48	4.42
491.914	4.44
492.348	4.46
492.781	4.47
493.215	4.48
493.648	4.5
494.082	4.53
494.515	4.56
494.948	4.57
495.382	4.6
495.815	4.63
496.248	4.66
496.681	4.68
497.114	4.71
497.547	4.75
497.98	4.8
498.413	4.84
498.846	4.87
499.279	4.92
499.711	4.96
500.144	5.01
500.577	5.06
501.009	5.12
501.442	5.18
501.874	5.25
502.306	5.32
502.739	5.38
503.171	5.47
503.603	5.57
504.036	5.66
504.468	5.76
504.9	5.87
505.332	5.99
505.764	6.11
506.196	6.24
506.627	6.37
507.059	6.5
507.491	6.65
507.923	6.79
508.354	6.93
508.786	7.08
509.217	7.23
509.649	7.41
510.08	7.58
510.512	7.75
510.943	7.95
511.374	8.15
511.805	8.36
512.237	8.58
512.668	8.8
513.099	9.04
513.53	9.3
513.961	9.55
514.391	9.79
514.822	10.05
515.253	10.32
515.684	10.58
516.114	10.86
516.545	11.15
516.975	11.44
517.406	11.73
517.836	12.03
518.267	12.34
518.697	12.65
519.127	12.97
519.558	13.27
519.988	13.57
520.418	13.87
520.848	14.17
521.278	14.48
521.708	14.8
522.138	15.1
522.567	15.39
522.997	15.67
523.427	15.95
523.857	16.22
524.286	16.5
524.716	16.78
525.145	17.06
525.575	17.33
526.004	17.58
526.433	17.79
526.863	18.03
527.292	18.25
527.721	18.47
528.15	18.69
528.579	18.9
529.008	19.09
529.437	19.28
529.866	19.45
530.295	19.62
530.724	19.79
531.152	19.96
531.581	20.11
532.01	20.25
532.438	20.41
532.867	20.53
533.295	20.66
533.723	20.79
534.152	20.88
534.58	20.98
535.008	21.05
535.436	21.12
535.865	21.19
536.293	21.27
536.721	21.35
537.149	21.4
537.576	21.46
538.004	21.52
538.432	21.56
538.86	21.61
539.287	21.67
539.715	21.72
540.143	21.77
540.57	21.81
540.998	21.87
541.425	21.92
541.852	21.96
542.28	21.99
542.707	22.03
543.134	22.07
543.561	22.1
543.988	22.12
544.415	22.17
544.842	22.22
545.269	22.27
545.696	22.28
546.123	22.28
546.549	22.32
546.976	22.36
547.403	22.37
547.829	22.38
548.256	22.42
548.682	22.42
549.108	22.44
549.535	22.43
549.961	22.43
550.387	22.43
550.813	22.43
551.24	22.41
551.666	22.41
552.092	22.39
552.518	22.39
552.943	22.36
553.369	22.36
553.795	22.33
554.221	22.29
554.646	22.23
555.072	22.18
555.498	22.12
555.923	22.05
556.349	21.96
556.774	21.88
557.199	21.78
557.625	21.7
558.05	21.59
558.475	21.48
558.9	21.37
559.325	21.25
559.75	21.12
560.175	20.99
560.6	20.87
561.025	20.72
561.449	20.56
561.874	20.39
562.299	20.23
562.723	20.06
563.148	19.89
563.572	19.72
563.997	19.56
564.421	19.39
564.846	19.21
565.27	19.03
565.694	18.85
566.118	18.69
566.542	18.51
566.966	18.33
567.39	18.14
567.814	17.94
568.238	17.74
568.662	17.54
569.086	17.35
569.509	17.17
569.933	16.97
570.357	16.78
570.78	16.59
571.204	16.41
571.627	16.22
572.05	16.05
572.474	15.86
572.897	15.69
573.32	15.53
573.743	15.36
574.166	15.21
574.589	15.04
575.012	14.89
575.435	14.73
575.858	14.6
576.281	14.47
576.704	14.33
577.126	14.21
577.549	14.11
577.972	13.99
578.394	13.87
578.817	13.75
579.239	13.66
579.661	13.55
580.084	13.44
580.506	13.35
580.928	13.26
581.35	13.17
581.772	13.1
582.194	12.99
582.616	12.9
583.038	12.83
583.46	12.75
583.882	12.67
584.303	12.61
584.725	12.55
585.147	12.46
585.568	12.38
585.99	12.31
586.411	12.22
586.833	12.17
587.254	12.12
587.675	12.05
588.096	12.01
588.518	11.95
588.939	11.9
589.36	11.83
589.781	11.79
590.202	11.74
590.623	11.7
591.043	11.67
591.464	11.62
591.885	11.59
592.305	11.55
592.726	11.5
593.147	11.48
593.567	11.43
593.987	11.4
594.408	11.37
594.828	11.34
595.248	11.3
595.669	11.27
596.089	11.23
596.509	11.18
596.929	11.14
597.349	11.1
597.769	11.05
598.189	11.02
598.608	10.99
599.028	10.94
599.448	10.92
599.867	10.87
600.287	10.83
600.706	10.8
601.126	10.76
601.545	10.72
601.965	10.67
602.384	10.63
602.803	10.57
603.222	10.52
603.641	10.47
604.061	10.39
604.48	10.34
604.898	10.28
605.317	10.2
605.736	10.15
606.155	10.08
606.574	10.01
606.992	9.93
607.411	9.87
607.829	9.76
608.248	9.69
608.666	9.61
609.085	9.54
609.503	9.47
609.921	9.4
610.339	9.33
610.758	9.26
611.176	9.18
611.594	9.13
612.012	9.05
612.43	9.02
612.847	8.95
613.265	8.9
613.683	8.83
614.101	8.77
614.518	8.71
614.936	8.65
615.353	8.58
615.771	8.53
616.188	8.47
616.606	8.41
617.023	8.35
617.44	8.3
617.857	8.23
618.274	8.19
618.691	8.15
619.108	8.12
619.525	8.08
619.942	8.05
620.359	8.03
620.776	8
621.192	7.98
621.609	7.96
622.026	7.94
622.442	7.92
622.859	7.91
623.275	7.91
623.691	7.89
624.108	7.87
624.524	7.86
624.94	7.84
625.356	7.83
625.772	7.82
626.188	7.82
626.604	7.81
627.02	7.81
627.436	7.81
627.852	7.78
628.268	7.77
628.683	7.75
629.099	7.75
629.514	7.75
629.93	7.73
630.345	7.71
630.761	7.69
631.176	7.66
631.591	7.63
632.007	7.6
632.422	7.56
632.837	7.52
633.252	7.48
633.667	7.42
634.082	7.37
634.497	7.31
634.911	7.26
635.326	7.2
635.741	7.14
636.155	7.07
636.57	6.99
636.984	6.92
637.399	6.84
637.813	6.77
638.228	6.7
638.642	6.62
639.056	6.54
639.47	6.45
639.884	6.37
640.298	6.3
640.712	6.22
641.126	6.15
641.54	6.06
641.954	6
642.368	5.94
642.781	5.87
643.195	5.78
643.609	5.72
644.022	5.67
644.436	5.62
644.849	5.55
645.262	5.5
645.676	5.44
646.089	5.39
646.502	5.33
646.915	5.28
647.328	5.24
647.741	5.21
648.154	5.18
648.567	5.15
648.98	5.12
649.393	5.1
649.805	5.07
650.218	5.06
650.631	5.04
651.043	5.02
651.456	5
651.868	4.98
652.28	4.96
652.693	4.93
653.105	4.9
653.517	4.87
653.929	4.85
654.341	4.85
654.753	4.81
655.165	4.79
655.577	4.77
655.989	4.73
656.401	4.7
656.813	4.67
657.224	4.63
657.636	4.61
658.047	4.57
658.459	4.54
658.87	4.49
659.282	4.48
659.693	4.45
660.104	4.42
660.515	4.41
660.926	4.38
661.338	4.35
661.749	4.33
662.159	4.31
662.57	4.3
662.981	4.28
663.392	4.26
663.803	4.25
664.213	4.23
664.624	4.22
665.035	4.21
665.445	4.21
665.855	4.21
666.266	4.21
666.676	4.21
667.086	4.19
667.497	4.18
667.907	4.19
668.317	4.18
668.727	4.18
669.137	4.19
669.547	4.21
669.956	4.22
670.366	4.23
670.776	4.24
671.186	4.26
671.595	4.29
672.005	4.33
672.414	4.35
672.824	4.38
673.233	4.42
673.642	4.43
674.052	4.45
674.461	4.48
674.87	4.5
675.279	4.53
675.688	4.55
676.097	4.56
676.506	4.59
676.915	4.63
677.323	4.67
677.732	4.71
678.141	4.76
678.549	4.79
678.958	4.83
679.366	4.86
679.775	4.9
680.183	4.96
680.592	5
681	5.04
681.408	5.08
681.816	5.1
682.224	5.15
682.632	5.19
683.04	5.25
683.448	5.32
683.856	5.4
684.264	5.47
684.671	5.53
685.079	5.62
685.487	5.73
685.894	5.86
686.302	5.98
686.709	6.13
687.116	6.29
687.524	6.48
687.931	6.68
688.338	6.92
688.745	7.19
689.152	7.48
689.559	7.8
689.966	8.13
690.373	8.52
690.78	8.92
691.187	9.35
691.593	9.8
692	10.29
692.407	10.8
692.813	11.34
693.22	11.89
693.626	12.48
694.032	13.1
694.439	13.74
694.845	14.38
695.251	15.08
695.657	15.75
696.063	16.46
696.469	17.17
696.875	17.89
697.281	18.6
697.687	19.37
698.093	20.12
698.498	20.88
698.904	21.65
699.31	22.4
699.715	23.15
700.12	23.9
700.526	24.64
700.931	25.4
701.337	26.16
701.742	26.89
702.147	27.62
702.552	28.34
702.957	29.04
703.362	29.76
703.767	30.48
704.172	31.19
704.577	31.91
704.981	32.62
705.386	33.36
705.791	34.08
706.195	34.8
706.6	35.48
707.004	36.17
707.408	36.89
707.813	37.54
708.217	38.18
708.621	38.83
709.025	39.5
709.43	40.14
709.834	40.79
710.237	41.4
710.641	42.04
711.045	42.63
711.449	43.26
711.853	43.84
712.256	44.47
712.66	45.11
713.064	45.73
713.467	46.34
713.87	46.94
714.274	47.52
714.677	48.12
715.08	48.69
715.484	49.28
715.887	49.84
716.29	50.39
716.693	50.93
717.096	51.46
717.499	51.98
717.901	52.47
718.304	52.96
718.707	53.44
719.109	53.92
719.512	54.41
719.915	54.87
720.317	55.35
720.719	55.8
721.122	56.25
721.524	56.73
721.926	57.18
722.328	57.62
722.731	58.04
723.133	58.48
723.535	58.9
723.937	59.31
724.338	59.7
724.74	60.1
725.142	60.46
725.544	60.81
725.945	61.15
726.347	61.5
726.748	61.77
727.15	62.07
727.551	62.35
727.952	62.62
728.354	62.9
728.755	63.18
729.156	63.45
729.557	63.73
729.958	63.99
730.359	64.21
730.76	64.37
731.161	64.66
731.562	64.9
731.962	65.09
732.363	65.28
732.763	65.51
733.164	65.67
733.564	65.86
733.965	65.99
734.365	66.16
734.766	66.34
735.166	66.5
735.566	66.62
735.966	66.72
736.366	66.85
736.766	66.98
737.166	67.08
737.566	67.19
737.966	67.27
738.365	67.38
738.765	67.48
739.165	67.55
739.564	67.68
739.964	67.77
740.363	67.87
740.763	67.94
741.162	68.02
741.561	68.11
741.96	68.21
742.36	68.29
742.759	68.36
743.158	68.41
743.557	68.48
743.955	68.56
744.354	68.61
744.753	68.71
745.152	68.79
745.55	68.86
745.949	68.89
746.348	68.9
746.746	68.94
747.144	69.05
747.543	69.15
747.941	69.23
748.339	69.29
748.737	69.37
749.136	69.43
749.534	69.49
749.932	69.51
750.33	69.6
750.727	69.67
751.125	69.74
751.523	69.72
751.921	69.75
752.318	69.74
752.716	69.73
753.113	69.74
753.511	69.73
753.908	69.72
754.305	69.75
754.703	69.71
755.1	69.74
755.497	69.73
755.894	69.75
756.291	69.72
756.688	69.75
757.085	69.75
757.482	69.74
757.878	69.76
758.275	69.84
758.672	69.86
759.068	69.89
759.465	69.88
759.861	69.89
760.258	69.87
760.654	69.89
761.05	69.91
761.447	69.91
761.843	69.9
762.239	69.87
762.635	69.82
763.031	69.82
763.427	69.8
763.822	69.77
764.218	69.75
764.614	69.73
765.01	69.73
765.405	69.71
765.801	69.68
766.196	69.66
766.592	69.67
766.987	69.71
767.382	69.69
767.778	69.71
768.173	69.71
768.568	69.68
768.963	69.69
769.358	69.72
769.753	69.72
770.148	69.74
770.542	69.78
770.937	69.77
771.332	69.73
771.726	69.71
772.121	69.65
772.515	69.69
772.91	69.73
773.304	69.75
773.699	69.7
774.093	69.65
774.487	69.65
774.881	69.64
775.275	69.64
775.669	69.65
776.063	69.64
776.457	69.64
776.851	69.6
777.245	69.6
777.638	69.54
778.032	69.53
778.425	69.57
778.819	69.6
779.212	69.55
779.606	69.53
779.999	69.52
780.392	69.5
780.786	69.47
781.179	69.47
781.572	69.49
781.965	69.53
782.358	69.54
782.751	69.54
783.143	69.53
783.536	69.59
783.929	69.62
784.322	69.65
784.714	69.68
785.107	69.78
785.499	69.82
785.891	69.84
786.284	69.83
786.676	69.88
787.068	69.91
787.46	69.89
787.852	69.88
788.245	69.89
788.636	69.86
789.028	69.87
789.42	69.84
789.812	69.78
790.204	69.72
790.595	69.72
790.987	69.68
791.378	69.71
791.77	69.77
792.161	69.77
792.553	69.79
792.944	69.82
793.335	69.84
793.726	69.82
794.117	69.83
794.508	69.88
794.899	69.88
795.29	69.92
795.681	69.88
796.072	69.81
796.463	69.81
796.853	69.78
797.244	69.77
797.634	69.74
798.025	69.77
798.415	69.8
798.806	69.84
799.196	69.86
799.586	69.86
799.976	69.87
800.366	69.9
800.756	69.89
801.146	69.89
801.536	69.88
801.926	69.89
802.316	69.91
802.706	69.93
803.095	69.89
803.485	69.93
803.874	69.93
804.264	69.95
804.653	69.93
805.043	69.92
805.432	69.87
805.821	69.89
806.21	69.94
806.599	69.96
806.988	69.91
807.377	69.94
807.766	69.93
808.155	69.95
808.544	69.91
808.933	69.92
809.321	69.98
809.71	70.06
810.098	70.02
810.487	70.02
810.875	69.99
811.264	70.06
811.652	70.07
812.04	70.08
812.428	70.09
812.816	70.14
813.204	70.13
813.592	70.1
813.98	70.09
814.368	70.15
814.756	70.13
815.144	70.14
815.531	70.12
815.919	70.07
816.306	70.03
816.694	70.05
817.081	70.04
817.469	70.1
817.856	70.16
818.243	70.16
818.63	70.22
819.017	70.25
819.404	70.25
819.791	70.26
820.178	70.33
820.565	70.36
820.952	70.35
821.339	70.37
821.725	70.39
822.112	70.39
822.498	70.43
822.885	70.38
823.271	70.41
823.657	70.43
824.044	70.45
824.43	70.49
824.816	70.51
825.202	70.52
825.588	70.54
825.974	70.54
826.36	70.54
826.746	70.58
827.132	70.59
827.517	70.59
827.903	70.57
828.289	70.56
828.674	70.53
829.06	70.53
829.445	70.55
829.83	70.53
830.216	70.53
830.601	70.49
830.986	70.45
831.371	70.49
831.756	70.46
832.141	70.5
832.526	70.5
832.911	70.51
833.295	70.53
833.68	70.5
834.065	70.56
834.449	70.55
834.834	70.56
835.218	70.58
835.603	70.57
835.987	70.55
836.371	70.55
836.755	70.55
837.139	70.55
837.524	70.51
837.908	70.53
838.291	70.46
838.675	70.47
839.059	70.47
839.443	70.46
839.827	70.44
840.21	70.48
840.594	70.45
840.977	70.39
841.361	70.39
841.744	70.42
842.127	70.38
842.511	70.37
842.894	70.35
843.277	70.35
843.66	70.33
844.043	70.34
844.426	70.33
844.809	70.33
845.191	70.33
845.574	70.31
845.957	70.25
846.339	70.28
846.722	70.29
847.104	70.31
847.487	70.34
847.869	70.33
848.252	70.29
848.634	70.27
849.016	70.27
849.398	70.32
849.78	70.32
850.162	70.36
850.544	70.38
850.926	70.38
851.307	70.37
851.689	70.35
852.071	70.36
852.452	70.37
852.834	70.38
853.215	70.42
853.597	70.42
853.978	70.39
854.359	70.36
854.741	70.33
855.122	70.33
855.503	70.36
855.884	70.37
856.265	70.35
856.646	70.34
857.026	70.34
857.407	70.29
857.788	70.29
858.169	70.32
858.549	70.35
858.93	70.35
859.31	70.33
859.69	70.31
860.071	70.27
860.451	70.27
860.831	70.28
861.211	70.27
861.591	70.29
861.971	70.25
862.351	70.25
862.731	70.26
863.111	70.29
863.491	70.3
863.87	70.3
864.25	70.36
864.629	70.36
865.009	70.37
865.388	70.35
865.768	70.37
866.147	70.4
866.526	70.37
866.905	70.38
867.284	70.36
867.663	70.37
868.042	70.34
868.421	70.3
868.8	70.3
869.179	70.34
869.558	70.36
869.936	70.36
870.315	70.36
870.693	70.38
871.072	70.33
871.45	70.32
871.828	70.29
872.207	70.33
872.585	70.33
872.963	70.33
873.341	70.25
873.719	70.25
874.097	70.25
874.475	70.23
874.853	70.24
875.23	70.26
875.608	70.24
875.986	70.24
876.363	70.22
876.741	70.23
877.118	70.21
877.495	70.23
877.873	70.2
878.25	70.2
878.627	70.22
879.004	70.21
879.381	70.21
879.758	70.19
880.135	70.2
880.512	70.17
880.889	70.14
881.265	70.13
881.642	70.13
882.019	70.13
882.395	70.12
882.772	70.06
883.148	70.03
883.524	70.01
883.901	70.02
884.277	69.98
884.653	70.05
885.029	70.05
885.405	70.06
885.781	70.03
886.157	70.05
886.532	70.02
886.908	70.07
887.284	70.1
887.659	70.11
888.035	70.11
888.411	70.1
888.786	70.07
889.161	70.07
889.537	70.06
889.912	70.08
890.287	70.05
890.662	70.06
891.037	70.03
891.412	70.01
891.787	69.99
892.162	69.98
892.536	69.97
892.911	69.93
893.286	69.88
893.66	69.84
894.035	69.8
894.409	69.8
894.784	69.8
895.158	69.79
895.532	69.75
895.906	69.73
896.281	69.7
896.655	69.72
897.029	69.73
897.402	69.74
897.776	69.74
898.15	69.74
898.524	69.71
898.898	69.66
899.271	69.65
899.645	69.63
900.018	69.64
900.392	69.66
900.765	69.66
901.138	69.65
901.511	69.66
901.884	69.68
902.258	69.67
902.631	69.7
903.003	69.75
903.376	69.73
903.749	69.78
904.122	69.78
904.495	69.77
904.867	69.76
905.24	69.76
905.612	69.73
905.985	69.71
906.357	69.68
906.729	69.66
907.102	69.63
907.474	69.61
907.846	69.61
908.218	69.58
908.59	69.53
908.962	69.51
909.334	69.47
909.705	69.51
910.077	69.46
910.449	69.5
910.82	69.48
911.192	69.49
911.563	69.48
911.935	69.41
912.306	69.4
912.677	69.4
913.048	69.35
913.419	69.35
913.79	69.29
914.161	69.3
914.532	69.25
914.903	69.24
915.274	69.18
915.645	69.17
916.015	69.16
916.386	69.11
916.756	69.07
917.127	69.08
917.497	69.06
917.868	69.09
918.238	69.14
918.608	69.13
918.978	69.08
919.348	69.08
919.718	69.07
920.088	69.11
920.458	69.16
920.828	69.2
921.198	69.2
921.567	69.21
921.937	69.19
922.306	69.14
922.676	69.14
923.045	69.15
923.415	69.15
923.784	69.14
924.153	69.11
924.522	69.1
924.891	69.07
925.26	69.04
925.629	69.02
925.998	69
926.367	68.96
926.736	68.91
927.104	68.89
927.473	68.9
927.842	68.86
928.21	68.85
928.578	68.74
928.947	68.73
929.315	68.73
929.683	68.69
930.051	68.67
930.42	68.67
930.788	68.69
931.156	68.67
931.523	68.59
931.891	68.56
932.259	68.46
932.627	68.43
932.994	68.35
933.362	68.26
933.729	68.18
934.097	68.12
934.464	68.1
934.831	68
935.199	67.89
935.566	67.84
935.933	67.79
936.3	67.73
936.667	67.69
937.034	67.62
937.401	67.57
937.767	67.56
938.134	67.48
938.501	67.35
938.867	67.38
939.234	67.39
939.6	67.34
939.967	67.37
940.333	67.5
940.699	67.56
941.065	67.67
941.431	67.73
941.798	67.87
942.163	67.95
942.529	68.06
942.895	68.04
943.261	68.14
943.627	68.22
943.992	68.19
944.358	68.07
944.723	68.1
945.089	68.11
945.454	68.2
945.82	68
946.185	68.01
946.55	68.02
946.915	68.05
947.28	68
947.645	68.04
948.01	68.08
948.375	68.17
948.74	68.11
949.104	68.11
949.469	67.99
949.834	68.09
950.198	67.96
950.562	67.86
950.927	67.82
951.291	67.76
951.655	67.62
952.02	67.53
952.384	67.56
952.748	67.5
953.112	67.49
953.476	67.46
953.839	67.35
954.203	67.27
954.567	67.27
954.931	67.23
955.294	67.24
955.658	67.27
956.021	67.25
956.385	67.22
956.748	67.22
957.111	67.17
957.474	67.2
957.837	67.28
958.2	67.26
958.563	67.18
958.926	67.13
959.289	67.06
959.652	67.1
960.015	67.05
960.377	66.92
960.74	66.84
961.102	66.8
961.465	66.78
961.827	66.71
962.189	66.72
962.552	66.71
962.914	66.65
963.276	66.63
963.638	66.52
964	66.51
964.362	66.51
964.724	66.53
965.085	66.59
965.447	66.5
965.809	66.39
966.17	66.46
966.532	66.48
966.893	66.5
967.255	66.52
967.616	66.52
967.977	66.58
968.338	66.56
968.699	66.54
969.061	66.41
969.421	66.38
969.782	66.45
970.143	66.39
970.504	66.36
970.865	66.28
971.225	66.26
971.586	66.29
971.946	66.2
972.307	66.21
972.667	66.27
973.027	66.32
973.388	66.26
973.748	66.26
974.108	66.2
974.468	66.17
974.828	66.25
975.188	66.21
975.548	66.12
975.907	66.19
976.267	66.18
976.627	66.13
976.986	66.09
977.346	66.13
977.705	66.1
978.064	66.17
978.424	66.12
978.783	66.06
979.142	66.06
979.501	66.12
979.86	66.08
980.219	66
980.578	65.96
980.937	65.93
981.296	65.86
981.654	65.88
982.013	65.88
982.371	65.91
982.73	65.9
983.088	65.88
983.447	65.85
983.805	65.83
984.163	65.83
984.521	65.76
984.879	65.81
985.237	65.9
985.595	65.85
985.953	65.79
986.311	65.83
986.669	65.85
987.026	65.88
987.384	65.8
987.741	65.74
988.099	65.75
988.456	65.77
988.814	65.69
989.171	65.55
989.528	65.51
989.885	65.49
990.242	65.5
990.599	65.5
990.956	65.42
991.313	65.5
991.67	65.56
992.027	65.45
992.383	65.47
992.74	65.38
993.096	65.5
993.453	65.38
993.809	65.44
994.165	65.37
994.522	65.3
994.878	65.27
995.234	65.1
995.59	64.94
995.946	65
996.302	64.92
996.658	64.99
997.013	64.92
997.369	64.94
997.725	64.87
998.08	64.85
998.436	64.98
998.791	64.91
999.147	64.98
999.502	64.96
999.857	65.03
1000.212	65.08
1000.567	65.06
1000.922	65.02
1001.277	64.95
1001.632	64.93
1001.987	64.87
1002.342	64.77
1002.696	64.85
1003.051	64.69
1003.406	64.67
1003.76	64.38
1004.114	64.49
1004.469	64.46
1004.823	64.63
1005.177	64.81
1005.531	64.68
1005.885	64.72
1006.239	64.56
1006.593	64.41
1006.947	64.46
1007.301	64.41
1007.655	64.58
1008.008	64.19
1008.362	64.19
1008.715	63.86
1009.069	63.64
1009.422	63.68
1009.776	63.53
1010.129	63.49
1010.482	63.7
1010.835	63.81
1011.188	63.87
1011.541	63.59
1011.894	63.72
1012.247	63.66
1012.6	63.72
1012.952	63.74
1013.305	63.61
1013.657	63.68
1014.01	63.98
1014.362	63.97
1014.715	63.83
1015.067	63.76
1015.419	64.16
1015.771	64.33
1016.123	64.27
1016.475	64.57
1016.827	64.81
1017.179	64.84
1017.531	64.41
1017.883	64.23
1018.234	64.15
1018.586	64.16
1018.938	64.12
1019.289	63.99
1019.64	63.94
1019.992	63.77
1020.343	63.1
1020.694	62.92
1021.045	63.01
1021.396	63.31
1021.747	63.02
1022.098	63.04
1022.449	62.95
1022.8	63.03
1023.151	62.72
1023.501	62.48
1023.852	62.66
1024.202	62.92
1024.553	62.8
1024.903	62.59
1025.253	62.52
1025.604	62.54
1025.954	62
1026.304	62.29
1026.654	62.14
1027.004	62.15
1027.354	61.81
1027.703	61.77
1028.053	61.03
1028.403	60.94
1028.753	61.12
1029.102	60.96
1029.452	60.84
1029.801	60.96
1030.15	60.48
1030.499	60.34
897.758	694.02
901.051	696.64
904.343	708.26
907.636	699.07
910.928	686.38
914.22	695.98
917.511	684.61
920.803	654.19
924.094	631.01
927.384	635.8
930.675	612.62
933.965	606.72
937.255	613.08
940.544	583.76
943.834	556.83
947.123	549.74
950.411	521.65
953.7	511.23
956.988	497.5
960.276	474.51
963.563	468.31
966.851	447.49
970.138	436.94
973.424	405.15
976.711	398.9
979.997	386.66
983.283	379.19
986.568	368.01
989.853	356.81
993.138	343.52
996.423	339.23
999.708	329.01
1002.992	329.26
1006.275	321.09
1009.559	319.32
1012.842	312.26
1016.125	301.93
1019.408	294.98
1022.69	293.53
1025.972	292.56
1029.254	285.27
1032.536	279.17
1035.817	271.58
1039.098	267.92
1042.379	261.5
1045.659	257.3
1048.939	254.83
1052.219	252.23
1055.498	247.24
1058.778	242.64
1062.057	238.09
1065.335	237.17
1068.614	233.76
1071.892	230.09
1075.17	225.64
1078.447	223.83
1081.724	222.47
1085.001	218.17
1088.278	216.54
1091.554	216.26
1094.83	214.75
1098.106	211.3
1101.382	210.91
1104.657	209.29
1107.932	209.06
1111.206	207.23
1114.481	205.1
1117.755	203.37
1121.029	202.2
1124.302	199.09
1127.575	196.21
1130.848	195.27
1134.121	192.74
1137.393	192.12
1140.665	191.5
1143.937	188.83
1147.208	187.35
1150.48	185.96
1153.75	185.32
1157.021	183.2
1160.291	183.22
1163.561	183.19
1166.831	181.18
1170.101	181.64
1173.37	179.33
1176.639	177.51
1179.907	177.96
1183.176	177.68
1186.444	178.1
1189.711	176.13
1192.979	178.86
1196.246	178.24
1199.513	176.45
1202.78	177.17
1206.046	176.49
1209.312	178.08
1212.578	179.17
1215.843	180.93
1219.108	182.16
1222.373	184.81
1225.638	187.86
1228.902	190.82
1232.166	196.82
1235.43	200.47
1238.693	206.08
1241.956	210.43
1245.219	215.61
1248.482	217.03
1251.744	216.43
1255.006	216.12
1258.268	211.29
1261.529	210.1
1264.79	203.75
1268.051	200.08
1271.312	198.82
1274.572	193.97
1277.832	189.65
1281.092	186.66
1284.351	183.47
1287.61	182.96
1290.869	182.74
1294.128	181.55
1297.386	180.17
1300.644	180.36
1303.902	179.55
1307.159	178.57
1310.416	180.15
1313.673	183.02
1316.93	183.22
1320.186	186.04
1323.442	188.6
1326.697	192.2
1329.953	192.95
1333.208	199.52
1336.463	207.88
1339.717	211.25
1342.972	219.89
1346.226	225.55
1349.479	227.06
1352.733	238.08
1355.986	241.16
1359.238	246.37
1362.491	247.89
1365.743	258.12
1368.995	259.91
1372.247	256.13
1375.498	254.92
1378.749	263.45
1382	262.05
1385.251	261.16
1388.501	259.57
1391.751	264.33
1395	262.42
1398.25	263.39
1401.499	260.09
1404.748	259.21
1407.996	254.21
1411.244	255.68
1414.492	250.45
1417.74	243.8
1420.987	238.29
1424.234	234.17
1427.481	225.19
1430.728	218.65
1433.974	211.19
1437.22	206.44
1440.465	198.72
1443.711	193.7
1446.956	187.7
1450.201	180.68
1453.445	172.15
1456.689	167.31
1459.933	161.86
1463.177	155.03
1466.42	152.05
1469.663	147.66
1472.906	142.84
1476.148	140.13
1479.391	137.24
1482.633	134.89
1485.874	132.4
1489.115	131.79
1492.356	129.45
1495.597	128.06
1498.838	127.53
1502.078	126.3
1505.318	125.98
1508.557	125.47
1511.797	123.67
1515.036	123.43
1518.274	122.86
1521.513	121.97
1524.751	121.64
1527.989	122.72
1531.227	121.86
1534.464	121.78
1537.701	121.29
1540.938	120.87
1544.174	120.68
1547.41	120.83
1550.646	120.93
1553.882	120.75
1557.117	120.05
1560.352	119.94
1563.587	118.86
1566.821	119
1570.055	118.1
1573.289	118.14
1576.523	118.42
1579.756	117.97
1582.989	118.66
1586.222	117.49
1589.454	117.6
1592.686	118.13
1595.918	117.58
1599.15	117.57
1602.381	117.62
1605.612	117.96
1608.843	117.88
1612.073	118.54
1615.303	118.81
1618.533	117.79
1621.762	118.96
1624.992	118.59
1628.221	118.21
1631.449	119.01
1634.678	118.96
1637.906	119.13
1641.134	119.66
1644.361	119.5
1647.588	119.01
1650.815	118.97
1654.042	119.9
1657.269	119.63
1660.495	120.5
1663.72	120.44
1666.946	120.4
1670.171	120.99
1673.396	121.35
1676.621	121.64
1679.845	121.74
1683.069	121.44
1686.293	121.73
1689.517	121.5
1692.74	121.54
1695.963	121.69
1699.185	122.7
1702.408	122.35
1705.63	122.53
1708.852	123.3
1712.073	122.96
1715.294	123.02
1718.515	123.59
1721.736	123.46
1724.956	123.96
1728.176	123.85
1731.396	124.24
1734.616	123.98
1737.835	124.41
1741.054	124.14
1744.272	123.47
1747.491	123.38
1750.709	124.15
1753.927	124.3
1757.144	124.75
1760.361	124.6
1763.578	125.61
1766.795	125.95
1770.011	125.47
1773.227	126.53
1776.443	127.5
1779.658	128.08
1782.874	128.93
1786.089	129.19
1789.303	129.35
1792.518	130.51
1795.732	131.84
1798.945	132.39
1802.159	132.49
1805.372	134.49
1808.585	134.89
1811.797	135.64
1815.01	136.55
1818.222	137.46
1821.434	138.73
1824.645	139.56
1827.856	141.22
1831.067	140.46
1834.278	142.14
1837.488	142.59
1840.698	143.77
1843.908	143.72
1847.117	145.69
1850.326	146.68
1853.535	146.13
1856.744	146.46
1859.952	148.94
1863.16	148.59
1866.368	148.85
1869.575	148.79
1872.782	148.52
1875.989	146.67
1879.196	146.02
1882.402	143.92
1885.608	144.5
1888.814	144.81
1892.019	145.92
1895.224	142.83
1898.429	143.23
1901.634	143.81
1904.838	144.13
1908.042	144.82
1911.246	144.99
1914.449	146.19
1917.652	146.32
1920.855	145.67
1924.058	145.28
1927.26	144.14
1930.462	144.56
1933.664	144.28
1936.865	144.9
1940.066	142.27
1943.267	142.51
1946.467	143.85
1949.668	143.73
1952.868	143.97
1956.067	144
1959.267	145.43
1962.466	145.91
1965.665	147.79
1968.863	148.85
1972.061	148.95
1975.259	152.44
1978.457	152.51
1981.654	154.31
1984.852	155.35
1988.048	157.06
1991.245	160.05
1994.441	162.06
1997.637	165.48
2000.833	169.12
2004.028	169.22
2007.223	174.5
2010.418	178.41
2013.613	186.5
2016.807	190.93
2020.001	195.13
2023.194	200.16
2026.388	206.83
2029.581	217.48
2032.774	224.99
2035.966	231.04
2039.158	240.06
2042.35	244.27
2045.542	248.28
2048.733	259.93
2051.924	260.96
2055.115	266.15
2058.306	268.8
2061.496	274.77
2064.686	274.94
2067.875	271.87
2071.065	273.19
2074.254	274.8
2077.442	283.13
2080.631	285.23
2083.819	283.81
2087.007	291.15
2090.195	293.99
2093.382	294.57
2096.569	293.09
2099.756	298.87
2102.942	306.31
2106.128	313.9
2109.314	314.44
2112.5	314.52
2115.685	315.08
2118.87	315.58
2122.055	316.34
2125.239	324.39
2128.424	334
2131.608	330.72
2134.791	331.09
2137.974	330.8
2141.157	332.1
2144.34	335.9
2147.523	339.56
2150.705	346.9
2153.887	347.25
2157.068	351.79
2160.25	354.1
2163.431	351.3
2166.611	357.22
2169.792	363.28
2172.972	370.63
2176.152	371.2
2179.331	380.88
2182.511	380.45
2185.69	385.97
2188.868	396.92
2192.047	406.75
2195.225	412
2198.403	419.64
2201.58	416.6
2204.758	432.06
2207.935	433.68
2211.111	442.89
2214.288	442.75
2217.464	449.46
2220.64	451.8
2223.815	454.73
2226.991	446.86
2230.166	452.04
2233.34	464.9
2236.515	480.9
2239.689	471.93
2242.863	478.19
2246.036	473.52
2249.209	485.65
2252.382	485.35
2255.555	502.72
2258.727	504.51
2261.9	523.22
2265.071	528.06
2268.243	521.6
2271.414	535.18
2274.585	543.06
2277.756	547.1
2280.926	570.76
2284.096	566.31
2287.266	569.27
2290.436	555.68
2293.605	568.08
2296.774	586.97
2299.942	588.65
2303.111	610.25
2306.279	619.75
2309.447	619.95
2312.614	622.09
2315.781	634.76
2318.948	645.95
2322.115	658.01
2325.281	694.11
2328.447	693.63
2331.613	688.9
2334.779	699.74
2337.944	705.14
2341.109	720.96
2344.274	735.22
2347.438	751.46
2350.602	762.67
2353.766	813.77
2356.929	819.16
2360.092	827.8
2363.255	827.84
2366.418	845.31
2369.58	860.36
2372.742	869.85
2375.904	862.12
2379.066	879.63
2382.227	930.73
2385.388	932.54
2388.548	882.1
2391.709	874.27
2394.869	902.66
2398.029	901.54
2401.188	909.23
2404.347	936.28
2407.506	958.06
2410.665	919.88
2413.823	928.37
2416.981	928.8
2420.139	878.13
2423.296	947.64
2426.453	1009.07
2429.61	960.13
2432.767	1029.52
2435.923	1054.11
2439.079	1018.37
2442.235	1039.83
2445.391	1073.33
2448.546	1060.92
2451.701	1122.21
2454.855	1204.6
2458.009	1063.45
2461.163	1088.62
2464.317	1094.54
2467.471	1071.28
2470.624	1110.1
2473.777	1086.63
2476.929	1052.73
2480.082	1121.54
2483.234	1179.87
2486.385	1194.52
2489.537	1218.29
2492.688	1344.53
2495.839	1311.56
2498.989	1364.72
2502.14	1366.51
2505.29	1297.92
2508.439	1453.53
2511.589	1493.9
2514.738	1447.36
2517.887	1432.74
2521.035	1342.22
2524.183	1328.28
2527.331	1316.16
2530.479	1284.64
2533.627	1308.95
