Data from N_2_dec_on_6n_057_Splice17_11.txt Node
Date: Sat Feb 29 14:00:06 EST 2020
User: sa697716
Spectrometer: FLMS03696
Trigger mode: 0
Integration Time (sec): 3.180400E-1
Scans to average: 20
Electric dark correction enabled: true
Nonlinearity correction enabled: true
Boxcar width: 5
XAxis mode: Wavelengths
Number of Pixels in Spectrum: 2048
>>>>>Begin Spectral Data<<<<<
187.83	92.45
188.298	85.85
188.766	86.88
189.233	80.49
189.701	88.16
190.169	85.63
190.636	98.46
191.104	101.48
191.571	266.48
192.039	263.7
192.506	-335.05
192.974	217.33
193.441	246.43
193.908	64.24
194.375	33
194.842	177.26
195.31	133.48
195.777	181.74
196.244	54.95
196.711	22.45
197.177	15.57
197.644	16.3
198.111	15.06
198.578	14.35
199.045	14.82
199.511	15.48
199.978	15.25
200.445	14.77
200.911	15.37
201.378	15.48
201.844	16.06
202.31	16.72
202.777	16.73
203.243	17.26
203.709	18.03
204.176	17.77
204.642	17.63
205.108	17.69
205.574	18.02
206.04	17.68
206.506	17.84
206.972	17.63
207.438	17.37
207.903	17.94
208.369	17.88
208.835	17.84
209.301	18.18
209.766	18.17
210.232	18.25
210.697	18.14
211.163	18.1
211.628	17.72
212.094	17.65
212.559	17.87
213.024	17.39
213.49	17.42
213.955	17.28
214.42	16.82
214.885	16.72
215.35	16.65
215.815	16.5
216.28	16.32
216.745	16.28
217.21	16.17
217.675	16
218.14	15.89
218.604	15.53
219.069	15.33
219.534	15.1
219.998	14.83
220.463	14.7
220.927	14.55
221.392	14.43
221.856	14.31
222.32	14.12
222.785	14.01
223.249	13.89
223.713	13.81
224.177	13.69
224.642	13.64
225.106	13.56
225.57	13.41
226.034	13.31
226.497	13.17
226.961	13.01
227.425	12.89
227.889	12.74
228.353	12.61
228.816	12.5
229.28	12.36
229.744	12.22
230.207	12.12
230.671	12
231.134	11.89
231.597	11.79
232.061	11.7
232.524	11.63
232.987	11.52
233.45	11.4
233.914	11.3
234.377	11.2
234.84	11.11
235.303	11.02
235.766	10.91
236.229	10.82
236.691	10.74
237.154	10.66
237.617	10.57
238.08	10.49
238.542	10.41
239.005	10.33
239.468	10.24
239.93	10.17
240.393	10.1
240.855	10.02
241.317	9.95
241.78	9.87
242.242	9.77
242.704	9.68
243.166	9.61
243.629	9.54
244.091	9.48
244.553	9.44
245.015	9.38
245.477	9.31
245.939	9.25
246.4	9.17
246.862	9.13
247.324	9.09
247.786	9.04
248.247	8.98
248.709	8.93
249.17	8.88
249.632	8.81
250.093	8.74
250.555	8.7
251.016	8.68
251.477	8.64
251.939	8.58
252.4	8.55
252.861	8.51
253.322	8.47
253.783	8.45
254.244	8.43
254.705	8.39
255.166	8.37
255.627	8.33
256.088	8.29
256.549	8.27
257.009	8.23
257.47	8.21
257.931	8.18
258.391	8.15
258.852	8.1
259.312	8.06
259.773	8.04
260.233	8.01
260.694	7.98
261.154	7.94
261.614	7.91
262.074	7.89
262.534	7.85
262.994	7.82
263.455	7.8
263.915	7.78
264.374	7.76
264.834	7.73
265.294	7.72
265.754	7.69
266.214	7.69
266.673	7.68
267.133	7.66
267.593	7.64
268.052	7.62
268.512	7.6
268.971	7.58
269.431	7.57
269.89	7.56
270.349	7.54
270.809	7.53
271.268	7.51
271.727	7.49
272.186	7.48
272.645	7.46
273.104	7.46
273.563	7.45
274.022	7.43
274.481	7.41
274.94	7.39
275.399	7.37
275.857	7.36
276.316	7.34
276.775	7.32
277.233	7.29
277.692	7.28
278.15	7.25
278.609	7.23
279.067	7.21
279.525	7.19
279.984	7.17
280.442	7.15
280.9	7.14
281.358	7.12
281.816	7.1
282.274	7.07
282.732	7.06
283.19	7.05
283.648	7.04
284.106	7.02
284.564	7.02
285.021	7.01
285.479	7
285.937	6.98
286.394	6.96
286.852	6.96
287.309	6.96
287.767	6.95
288.224	6.94
288.682	6.92
289.139	6.93
289.596	6.92
290.053	6.9
290.511	6.88
290.968	6.88
291.425	6.86
291.882	6.85
292.339	6.84
292.796	6.82
293.252	6.81
293.709	6.8
294.166	6.78
294.623	6.78
295.079	6.77
295.536	6.76
295.992	6.75
296.449	6.74
296.905	6.74
297.362	6.73
297.818	6.72
298.274	6.72
298.731	6.7
299.187	6.69
299.643	6.68
300.099	6.69
300.555	6.68
301.011	6.67
301.467	6.67
301.923	6.65
302.379	6.65
302.835	6.65
303.291	6.65
303.746	6.65
304.202	6.64
304.658	6.63
305.113	6.62
305.569	6.61
306.024	6.61
306.479	6.6
306.935	6.6
307.39	6.59
307.845	6.57
308.301	6.57
308.756	6.58
309.211	6.58
309.666	6.57
310.121	6.57
310.576	6.56
311.031	6.56
311.486	6.56
311.94	6.56
312.395	6.58
312.85	6.58
313.305	6.59
313.759	6.58
314.214	6.57
314.668	6.57
315.123	6.58
315.577	6.57
316.032	6.57
316.486	6.56
316.94	6.55
317.394	6.54
317.849	6.53
318.303	6.53
318.757	6.52
319.211	6.51
319.665	6.51
320.119	6.51
320.572	6.52
321.026	6.5
321.48	6.49
321.934	6.49
322.387	6.48
322.841	6.48
323.295	6.46
323.748	6.46
324.202	6.46
324.655	6.44
325.108	6.43
325.562	6.41
326.015	6.42
326.468	6.42
326.921	6.42
327.374	6.41
327.827	6.41
328.28	6.4
328.733	6.39
329.186	6.4
329.639	6.4
330.092	6.39
330.545	6.39
330.997	6.37
331.45	6.37
331.903	6.36
332.355	6.35
332.808	6.35
333.26	6.34
333.713	6.34
334.165	6.32
334.617	6.32
335.069	6.33
335.522	6.33
335.974	6.34
336.426	6.34
336.878	6.33
337.33	6.33
337.782	6.33
338.234	6.34
338.686	6.33
339.137	6.34
339.589	6.33
340.041	6.33
340.493	6.33
340.944	6.32
341.396	6.32
341.847	6.31
342.299	6.31
342.75	6.28
343.201	6.28
343.653	6.27
344.104	6.26
344.555	6.25
345.006	6.23
345.457	6.21
345.908	6.2
346.359	6.19
346.81	6.19
347.261	6.18
347.712	6.18
348.163	6.18
348.613	6.16
349.064	6.15
349.515	6.15
349.965	6.15
350.416	6.15
350.866	6.13
351.317	6.12
351.767	6.12
352.217	6.11
352.668	6.11
353.118	6.11
353.568	6.12
354.018	6.12
354.468	6.11
354.918	6.11
355.368	6.11
355.818	6.11
356.268	6.12
356.718	6.12
357.168	6.12
357.617	6.11
358.067	6.11
358.517	6.11
358.966	6.11
359.416	6.12
359.865	6.13
360.315	6.12
360.764	6.13
361.213	6.13
361.663	6.12
362.112	6.13
362.561	6.15
363.01	6.14
363.459	6.14
363.908	6.14
364.357	6.14
364.806	6.15
365.255	6.16
365.703	6.16
366.152	6.16
366.601	6.18
367.05	6.17
367.498	6.17
367.947	6.17
368.395	6.19
368.844	6.19
369.292	6.18
369.74	6.18
370.189	6.19
370.637	6.21
371.085	6.22
371.533	6.22
371.981	6.23
372.429	6.25
372.877	6.26
373.325	6.26
373.773	6.27
374.221	6.28
374.669	6.29
375.116	6.29
375.564	6.3
376.012	6.31
376.459	6.33
376.907	6.34
377.354	6.35
377.801	6.36
378.249	6.37
378.696	6.39
379.143	6.4
379.591	6.41
380.038	6.43
380.485	6.44
380.932	6.45
381.379	6.46
381.826	6.47
382.273	6.48
382.72	6.5
383.166	6.52
383.613	6.54
384.06	6.56
384.506	6.59
384.953	6.6
385.4	6.61
385.846	6.62
386.292	6.65
386.739	6.66
387.185	6.69
387.631	6.71
388.078	6.73
388.524	6.72
388.97	6.72
389.416	6.73
389.862	6.74
390.308	6.75
390.754	6.77
391.2	6.78
391.645	6.8
392.091	6.8
392.537	6.82
392.983	6.84
393.428	6.87
393.874	6.89
394.319	6.91
394.765	6.92
395.21	6.92
395.655	6.93
396.101	6.94
396.546	6.95
396.991	6.96
397.436	6.96
397.881	6.96
398.326	6.97
398.771	6.99
399.216	7
399.661	7
400.106	7.03
400.551	7.04
400.995	7.03
401.44	7.02
401.885	7.03
402.329	7.03
402.774	7.03
403.218	7.03
403.663	7.01
404.107	7.02
404.551	7.04
404.995	7.04
405.44	7.03
405.884	7.03
406.328	7.03
406.772	7.04
407.216	7.05
407.66	7.05
408.104	7.05
408.547	7.06
408.991	7.03
409.435	7
409.879	6.99
410.322	7
410.766	7.01
411.209	7.02
411.653	6.99
412.096	6.97
412.54	6.97
412.983	6.96
413.426	6.96
413.869	6.97
414.312	6.99
414.756	6.99
415.199	6.98
415.642	6.99
416.085	6.98
416.527	7.01
416.97	7.02
417.413	7.01
417.856	7.01
418.298	6.99
418.741	6.99
419.184	6.98
419.626	6.97
420.069	6.97
420.511	6.95
420.953	6.95
421.396	6.95
421.838	6.95
422.28	6.97
422.722	6.99
423.164	6.99
423.606	7
424.048	7
424.49	7.02
424.932	7.03
425.374	7.03
425.816	7.01
426.258	6.99
426.699	6.96
427.141	6.93
427.582	6.91
428.024	6.92
428.465	6.91
428.907	6.92
429.348	6.9
429.789	6.9
430.231	6.89
430.672	6.89
431.113	6.89
431.554	6.89
431.995	6.91
432.436	6.91
432.877	6.89
433.318	6.88
433.759	6.87
434.2	6.86
434.64	6.85
435.081	6.85
435.522	6.87
435.962	6.9
436.403	6.91
436.843	6.9
437.284	6.9
437.724	6.93
438.164	6.95
438.604	6.95
439.045	6.95
439.485	6.97
439.925	6.98
440.365	6.96
440.805	6.93
441.245	6.94
441.685	6.96
442.125	6.97
442.564	6.98
443.004	6.99
443.444	7.02
443.883	7.05
444.323	7.05
444.762	7.09
445.202	7.13
445.641	7.17
446.081	7.21
446.52	7.2
446.959	7.23
447.398	7.28
447.837	7.3
448.276	7.28
448.716	7.31
449.154	7.32
449.593	7.33
450.032	7.34
450.471	7.33
450.91	7.32
451.349	7.34
451.787	7.31
452.226	7.28
452.664	7.28
453.103	7.3
453.541	7.28
453.98	7.29
454.418	7.26
454.856	7.25
455.295	7.25
455.733	7.26
456.171	7.25
456.609	7.26
457.047	7.27
457.485	7.26
457.923	7.26
458.361	7.26
458.798	7.27
459.236	7.29
459.674	7.3
460.111	7.31
460.549	7.31
460.987	7.3
461.424	7.31
461.862	7.31
462.299	7.31
462.736	7.29
463.173	7.31
463.611	7.3
464.048	7.31
464.485	7.29
464.922	7.29
465.359	7.29
465.796	7.3
466.233	7.31
466.67	7.31
467.106	7.29
467.543	7.3
467.98	7.3
468.416	7.3
468.853	7.27
469.29	7.29
469.726	7.28
470.162	7.28
470.599	7.28
471.035	7.28
471.471	7.28
471.907	7.3
472.344	7.29
472.78	7.3
473.216	7.29
473.652	7.29
474.088	7.29
474.523	7.29
474.959	7.3
475.395	7.29
475.831	7.3
476.266	7.29
476.702	7.29
477.138	7.29
477.573	7.29
478.008	7.29
478.444	7.3
478.879	7.29
479.314	7.28
479.75	7.28
480.185	7.28
480.62	7.27
481.055	7.29
481.49	7.27
481.925	7.26
482.36	7.25
482.795	7.24
483.229	7.23
483.664	7.24
484.099	7.24
484.534	7.25
484.968	7.26
485.403	7.25
485.837	7.24
486.271	7.26
486.706	7.27
487.14	7.27
487.574	7.28
488.009	7.31
488.443	7.31
488.877	7.33
489.311	7.34
489.745	7.36
490.179	7.39
490.613	7.42
491.046	7.44
491.48	7.49
491.914	7.52
492.348	7.56
492.781	7.59
493.215	7.62
493.648	7.65
494.082	7.7
494.515	7.74
494.948	7.78
495.382	7.82
495.815	7.87
496.248	7.92
496.681	7.97
497.114	8.02
497.547	8.08
497.98	8.15
498.413	8.21
498.846	8.27
499.279	8.35
499.711	8.41
500.144	8.49
500.577	8.56
501.009	8.63
501.442	8.72
501.874	8.81
502.306	8.9
502.739	9
503.171	9.12
503.603	9.24
504.036	9.36
504.468	9.49
504.9	9.62
505.332	9.77
505.764	9.92
506.196	10.08
506.627	10.23
507.059	10.37
507.491	10.53
507.923	10.68
508.354	10.84
508.786	11.01
509.217	11.17
509.649	11.36
510.08	11.53
510.512	11.7
510.943	11.9
511.374	12.09
511.805	12.3
512.237	12.51
512.668	12.72
513.099	12.95
513.53	13.16
513.961	13.38
514.391	13.58
514.822	13.81
515.253	14.04
515.684	14.26
516.114	14.51
516.545	14.73
516.975	14.96
517.406	15.19
517.836	15.42
518.267	15.66
518.697	15.91
519.127	16.17
519.558	16.4
519.988	16.63
520.418	16.84
520.848	17.07
521.278	17.29
521.708	17.39
522.138	17.59
522.567	17.79
522.997	18
523.427	18.2
523.857	18.36
524.286	18.56
524.716	18.73
525.145	18.93
525.575	19.08
526.004	19.25
526.433	19.53
526.863	19.71
527.292	19.88
527.721	20.02
528.15	20.12
528.579	20.27
529.008	20.38
529.437	20.52
529.866	20.62
530.295	20.73
530.724	20.85
531.152	20.96
531.581	21.03
532.01	21.1
532.438	21.18
532.867	21.27
533.295	21.35
533.723	21.44
534.152	21.51
534.58	21.57
535.008	21.61
535.436	21.65
535.865	21.69
536.293	21.75
536.721	21.8
537.149	21.83
537.576	21.88
538.004	21.93
538.432	21.95
538.86	21.96
539.287	22.02
539.715	22.07
540.143	22.09
540.57	22.12
540.998	22.14
541.425	22.17
541.852	22.2
542.28	22.21
542.707	22.25
543.134	22.27
543.561	22.29
543.988	22.3
544.415	22.32
544.842	22.36
545.269	22.39
545.696	22.4
546.123	22.44
546.549	22.46
546.976	22.49
547.403	22.49
547.829	22.5
548.256	22.53
548.682	22.54
549.108	22.55
549.535	22.55
549.961	22.55
550.387	22.56
550.813	22.53
551.24	22.52
551.666	22.52
552.092	22.51
552.518	22.5
552.943	22.5
553.369	22.49
553.795	22.46
554.221	22.44
554.646	22.42
555.072	22.4
555.498	22.37
555.923	22.36
556.349	22.31
556.774	22.28
557.199	22.24
557.625	22.17
558.05	22.1
558.475	22.02
558.9	21.96
559.325	21.89
559.75	21.82
560.175	21.74
560.6	21.65
561.025	21.55
561.449	21.45
561.874	21.35
562.299	21.26
562.723	21.17
563.148	21.08
563.572	20.98
563.997	20.88
564.421	20.76
564.846	20.65
565.27	20.53
565.694	20.42
566.118	20.3
566.542	20.19
566.966	20.06
567.39	19.94
567.814	19.82
568.238	19.68
568.662	19.56
569.086	19.44
569.509	19.31
569.933	19.19
570.357	19.05
570.78	18.93
571.204	18.8
571.627	18.67
572.05	18.56
572.474	18.44
572.897	18.33
573.32	18.21
573.743	18.12
574.166	18
574.589	17.91
575.012	17.81
575.435	17.7
575.858	17.62
576.281	17.54
576.704	17.46
577.126	17.37
577.549	17.31
577.972	17.24
578.394	17.15
578.817	17.09
579.239	17.01
579.661	16.94
580.084	16.88
580.506	16.82
580.928	16.75
581.35	16.69
581.772	16.64
582.194	16.56
582.616	16.49
583.038	16.42
583.46	16.35
583.882	16.3
584.303	16.24
584.725	16.19
585.147	16.12
585.568	16.06
585.99	16
586.411	15.95
586.833	15.89
587.254	15.82
587.675	15.78
588.096	15.72
588.518	15.66
588.939	15.62
589.36	15.57
589.781	15.53
590.202	15.49
590.623	15.44
591.043	15.4
591.464	15.37
591.885	15.34
592.305	15.31
592.726	15.27
593.147	15.25
593.567	15.19
593.987	15.16
594.408	15.13
594.828	15.11
595.248	15.09
595.669	15.06
596.089	15.04
596.509	15.01
596.929	14.98
597.349	14.95
597.769	14.91
598.189	14.9
598.608	14.88
599.028	14.84
599.448	14.81
599.867	14.76
600.287	14.72
600.706	14.7
601.126	14.66
601.545	14.63
601.965	14.58
602.384	14.56
602.803	14.51
603.222	14.47
603.641	14.43
604.061	14.37
604.48	14.33
604.898	14.28
605.317	14.22
605.736	14.18
606.155	14.12
606.574	14.09
606.992	14.02
607.411	13.99
607.829	13.89
608.248	13.85
608.666	13.8
609.085	13.77
609.503	13.71
609.921	13.64
610.339	13.6
610.758	13.56
611.176	13.51
611.594	13.47
612.012	13.41
612.43	13.42
612.847	13.35
613.265	13.3
613.683	13.23
614.101	13.18
614.518	13.14
614.936	13.1
615.353	13.05
615.771	12.98
616.188	12.94
616.606	12.9
617.023	12.85
617.44	12.81
617.857	12.76
618.274	12.74
618.691	12.71
619.108	12.67
619.525	12.64
619.942	12.59
620.359	12.58
620.776	12.56
621.192	12.52
621.609	12.49
622.026	12.46
622.442	12.45
622.859	12.42
623.275	12.42
623.691	12.4
624.108	12.38
624.524	12.37
624.94	12.36
625.356	12.35
625.772	12.35
626.188	12.36
626.604	12.36
627.02	12.36
627.436	12.36
627.852	12.35
628.268	12.34
628.683	12.32
629.099	12.31
629.514	12.3
629.93	12.28
630.345	12.24
630.761	12.21
631.176	12.19
631.591	12.14
632.007	12.1
632.422	12.04
632.837	11.99
633.252	11.93
633.667	11.86
634.082	11.79
634.497	11.7
634.911	11.61
635.326	11.53
635.741	11.43
636.155	11.34
636.57	11.24
636.984	11.14
637.399	11.03
637.813	10.93
638.228	10.82
638.642	10.72
639.056	10.63
639.47	10.54
639.884	10.44
640.298	10.33
640.712	10.22
641.126	10.12
641.54	10.01
641.954	9.93
642.368	9.84
642.781	9.77
643.195	9.67
643.609	9.57
644.022	9.49
644.436	9.4
644.849	9.32
645.262	9.26
645.676	9.2
646.089	9.14
646.502	9.08
646.915	9.02
647.328	8.96
647.741	8.91
648.154	8.88
648.567	8.85
648.98	8.82
649.393	8.79
649.805	8.76
650.218	8.74
650.631	8.72
651.043	8.7
651.456	8.7
651.868	8.68
652.28	8.69
652.693	8.65
653.105	8.64
653.517	8.61
653.929	8.6
654.341	8.57
654.753	8.55
655.165	8.52
655.577	8.49
655.989	8.45
656.401	8.4
656.813	8.35
657.224	8.32
657.636	8.28
658.047	8.22
658.459	8.17
658.87	8.13
659.282	8.07
659.693	8.01
660.104	7.95
660.515	7.89
660.926	7.87
661.338	7.83
661.749	7.77
662.159	7.73
662.57	7.69
662.981	7.66
663.392	7.61
663.803	7.57
664.213	7.55
664.624	7.53
665.035	7.51
665.445	7.49
665.855	7.48
666.266	7.47
666.676	7.45
667.086	7.44
667.497	7.43
667.907	7.43
668.317	7.41
668.727	7.42
669.137	7.41
669.547	7.42
669.956	7.43
670.366	7.44
670.776	7.46
671.186	7.47
671.595	7.5
672.005	7.53
672.414	7.56
672.824	7.61
673.233	7.66
673.642	7.68
674.052	7.71
674.461	7.75
674.87	7.79
675.279	7.85
675.688	7.88
676.097	7.92
676.506	7.96
676.915	8.03
677.323	8.09
677.732	8.14
678.141	8.22
678.549	8.28
678.958	8.35
679.366	8.4
679.775	8.47
680.183	8.57
680.592	8.67
681	8.76
681.408	8.84
681.816	8.91
682.224	9.02
682.632	9.14
683.04	9.26
683.448	9.39
683.856	9.54
684.264	9.7
684.671	9.86
685.079	10.03
685.487	10.25
685.894	10.48
686.302	10.74
686.709	11
687.116	11.28
687.524	11.58
687.931	11.91
688.338	12.26
688.745	12.62
689.152	13.01
689.559	13.42
689.966	13.81
690.373	14.25
690.78	14.68
691.187	15.15
691.593	15.62
692	16.1
692.407	16.59
692.813	17.1
693.22	17.62
693.626	18.12
694.032	18.64
694.439	19.18
694.845	19.72
695.251	20.24
695.657	20.75
696.063	21.27
696.469	21.8
696.875	22.29
697.281	22.79
697.687	23.3
698.093	23.8
698.498	24.29
698.904	24.78
699.31	25.22
699.715	25.71
700.12	26.15
700.526	26.61
700.931	27.05
701.337	27.48
701.742	27.89
702.147	28.3
702.552	28.72
702.957	29.13
703.362	29.54
703.767	29.94
704.172	30.32
704.577	30.71
704.981	31.07
705.386	31.44
705.791	31.83
706.195	32.18
706.6	32.51
707.004	32.84
707.408	33.2
707.813	33.49
708.217	33.8
708.621	34.1
709.025	34.43
709.43	34.72
709.834	35.03
710.237	35.31
710.641	35.6
711.045	35.86
711.449	36.14
711.853	36.38
712.256	36.67
712.66	36.94
713.064	37.19
713.467	37.43
713.87	37.67
714.274	37.92
714.677	38.16
715.08	38.4
715.484	38.66
715.887	38.91
716.29	39.13
716.693	39.34
717.096	39.57
717.499	39.78
717.901	39.99
718.304	40.2
718.707	40.38
719.109	40.57
719.512	40.78
719.915	40.95
720.317	41.11
720.719	41.26
721.122	41.41
721.524	41.57
721.926	41.72
722.328	41.89
722.731	42.03
723.133	42.17
723.535	42.33
723.937	42.45
724.338	42.55
724.74	42.68
725.142	42.83
725.544	42.95
725.945	43.06
726.347	43.16
726.748	43.2
727.15	43.27
727.551	43.37
727.952	43.43
728.354	43.54
728.755	43.64
729.156	43.75
729.557	43.83
729.958	43.93
730.359	43.97
730.76	44.05
731.161	44.19
731.562	44.28
731.962	44.37
732.363	44.42
732.763	44.49
733.164	44.54
733.564	44.58
733.965	44.62
734.365	44.65
734.766	44.71
735.166	44.75
735.566	44.78
735.966	44.82
736.366	44.84
736.766	44.88
737.166	44.94
737.566	44.98
737.966	45.02
738.365	45.05
738.765	45.1
739.165	45.13
739.564	45.15
739.964	45.18
740.363	45.19
740.763	45.24
741.162	45.26
741.561	45.25
741.96	45.3
742.36	45.32
742.759	45.31
743.158	45.34
743.557	45.41
743.955	45.46
744.354	45.52
744.753	45.55
745.152	45.57
745.55	45.6
745.949	45.61
746.348	45.6
746.746	45.6
747.144	45.66
747.543	45.64
747.941	45.65
748.339	45.67
748.737	45.66
749.136	45.66
749.534	45.68
749.932	45.68
750.33	45.7
750.727	45.71
751.125	45.72
751.523	45.68
751.921	45.67
752.318	45.66
752.716	45.65
753.113	45.65
753.511	45.65
753.908	45.64
754.305	45.59
754.703	45.54
755.1	45.54
755.497	45.56
755.894	45.56
756.291	45.55
756.688	45.53
757.085	45.47
757.482	45.46
757.878	45.45
758.275	45.44
758.672	45.48
759.068	45.51
759.465	45.47
759.861	45.42
760.258	45.4
760.654	45.39
761.05	45.37
761.447	45.39
761.843	45.35
762.239	45.31
762.635	45.29
763.031	45.28
763.427	45.23
763.822	45.2
764.218	45.21
764.614	45.22
765.01	45.21
765.405	45.19
765.801	45.18
766.196	45.14
766.592	45.12
766.987	45.15
767.382	45.12
767.778	45.16
768.173	45.2
768.568	45.16
768.963	45.15
769.358	45.18
769.753	45.24
770.148	45.23
770.542	45.26
770.937	45.3
771.332	45.3
771.726	45.32
772.121	45.27
772.515	45.27
772.91	45.31
773.304	45.34
773.699	45.29
774.093	45.24
774.487	45.26
774.881	45.27
775.275	45.29
775.669	45.28
776.063	45.25
776.457	45.3
776.851	45.27
777.245	45.27
777.638	45.26
778.032	45.3
778.425	45.3
778.819	45.3
779.212	45.28
779.606	45.24
779.999	45.2
780.392	45.24
780.786	45.22
781.179	45.25
781.572	45.25
781.965	45.23
782.358	45.18
782.751	45.18
783.143	45.16
783.536	45.2
783.929	45.24
784.322	45.24
784.714	45.2
785.107	45.2
785.499	45.19
785.891	45.16
786.284	45.14
786.676	45.19
787.068	45.18
787.46	45.19
787.852	45.17
788.245	45.15
788.636	45.19
789.028	45.18
789.42	45.18
789.812	45.17
790.204	45.16
790.595	45.17
790.987	45.14
791.378	45.16
791.77	45.17
792.161	45.16
792.553	45.14
792.944	45.14
793.335	45.15
793.726	45.1
794.117	45.1
794.508	45.11
794.899	45.09
795.29	45.08
795.681	45.03
796.072	45.01
796.463	45.05
796.853	45.03
797.244	44.99
797.634	44.98
798.025	44.98
798.415	44.99
798.806	45.01
799.196	45.04
799.586	45.05
799.976	45.12
800.366	45.14
800.756	45.1
801.146	45.12
801.536	45.13
801.926	45.13
802.316	45.18
802.706	45.2
803.095	45.2
803.485	45.2
803.874	45.19
804.264	45.19
804.653	45.18
805.043	45.2
805.432	45.2
805.821	45.24
806.21	45.28
806.599	45.32
806.988	45.32
807.377	45.32
807.766	45.33
808.155	45.35
808.544	45.35
808.933	45.39
809.321	45.4
809.71	45.46
810.098	45.47
810.487	45.46
810.875	45.42
811.264	45.45
811.652	45.48
812.04	45.47
812.428	45.47
812.816	45.46
813.204	45.42
813.592	45.39
813.98	45.35
814.368	45.32
814.756	45.34
815.144	45.38
815.531	45.35
815.919	45.32
816.306	45.33
816.694	45.37
817.081	45.37
817.469	45.39
817.856	45.4
818.243	45.42
818.63	45.46
819.017	45.45
819.404	45.4
819.791	45.39
820.178	45.4
820.565	45.4
820.952	45.4
821.339	45.42
821.725	45.44
822.112	45.45
822.498	45.43
822.885	45.42
823.271	45.45
823.657	45.47
824.044	45.47
824.43	45.48
824.816	45.51
825.202	45.47
825.588	45.45
825.974	45.43
826.36	45.39
826.746	45.42
827.132	45.39
827.517	45.37
827.903	45.37
828.289	45.38
828.674	45.37
829.06	45.36
829.445	45.39
829.83	45.4
830.216	45.41
830.601	45.43
830.986	45.42
831.371	45.44
831.756	45.4
832.141	45.42
832.526	45.42
832.911	45.45
833.295	45.47
833.68	45.46
834.065	45.49
834.449	45.46
834.834	45.46
835.218	45.46
835.603	45.46
835.987	45.49
836.371	45.48
836.755	45.46
837.139	45.44
837.524	45.42
837.908	45.43
838.291	45.41
838.675	45.42
839.059	45.42
839.443	45.43
839.827	45.45
840.21	45.48
840.594	45.49
840.977	45.51
841.361	45.53
841.744	45.51
842.127	45.52
842.511	45.53
842.894	45.53
843.277	45.56
843.66	45.55
844.043	45.55
844.426	45.54
844.809	45.54
845.191	45.55
845.574	45.53
845.957	45.53
846.339	45.53
846.722	45.54
847.104	45.52
847.487	45.53
847.869	45.55
848.252	45.53
848.634	45.49
849.016	45.49
849.398	45.5
849.78	45.52
850.162	45.56
850.544	45.57
850.926	45.54
851.307	45.54
851.689	45.47
852.071	45.45
852.452	45.45
852.834	45.47
853.215	45.47
853.597	45.44
853.978	45.42
854.359	45.38
854.741	45.36
855.122	45.37
855.503	45.37
855.884	45.38
856.265	45.4
856.646	45.41
857.026	45.41
857.407	45.38
857.788	45.38
858.169	45.38
858.549	45.4
858.93	45.42
859.31	45.42
859.69	45.43
860.071	45.44
860.451	45.42
860.831	45.39
861.211	45.39
861.591	45.4
861.971	45.37
862.351	45.38
862.731	45.35
863.111	45.31
863.491	45.3
863.87	45.3
864.25	45.32
864.629	45.32
865.009	45.33
865.388	45.32
865.768	45.3
866.147	45.31
866.526	45.29
866.905	45.31
867.284	45.33
867.663	45.35
868.042	45.33
868.421	45.3
868.8	45.31
869.179	45.32
869.558	45.3
869.936	45.32
870.315	45.34
870.693	45.36
871.072	45.34
871.45	45.34
871.828	45.34
872.207	45.34
872.585	45.33
872.963	45.33
873.341	45.32
873.719	45.35
874.097	45.35
874.475	45.33
874.853	45.33
875.23	45.35
875.608	45.34
875.986	45.33
876.363	45.34
876.741	45.39
877.118	45.37
877.495	45.36
877.873	45.33
878.25	45.33
878.627	45.34
879.004	45.33
879.381	45.33
879.758	45.31
880.135	45.32
880.512	45.33
880.889	45.31
881.265	45.34
881.642	45.33
882.019	45.39
882.395	45.41
882.772	45.4
883.148	45.41
883.524	45.42
883.901	45.46
884.277	45.47
884.653	45.47
885.029	45.48
885.405	45.5
885.781	45.51
886.157	45.49
886.532	45.5
886.908	45.54
887.284	45.53
887.659	45.53
888.035	45.54
888.411	45.53
888.786	45.54
889.161	45.54
889.537	45.52
889.912	45.53
890.287	45.51
890.662	45.48
891.037	45.43
891.412	45.42
891.787	45.4
892.162	45.36
892.536	45.34
892.911	45.33
893.286	45.31
893.66	45.3
894.035	45.27
894.409	45.28
894.784	45.26
895.158	45.27
895.532	45.26
895.906	45.24
896.281	45.23
896.655	45.25
897.029	45.23
897.402	45.22
897.776	45.2
898.15	45.22
898.524	45.21
898.898	45.18
899.271	45.18
899.645	45.18
900.018	45.17
900.392	45.16
900.765	45.13
901.138	45.12
901.511	45.11
901.884	45.12
902.258	45.08
902.631	45.06
903.003	45.08
903.376	45.05
903.749	45.05
904.122	45.06
904.495	45.06
904.867	45.05
905.24	45.03
905.612	45.01
905.985	44.99
906.357	45
906.729	44.97
907.102	45
907.474	45.02
907.846	45.01
908.218	45
908.59	45
908.962	44.98
909.334	44.96
909.705	44.99
910.077	44.98
910.449	45
910.82	45
911.192	44.97
911.563	44.93
911.935	44.89
912.306	44.89
912.677	44.89
913.048	44.91
913.419	44.9
913.79	44.89
914.161	44.87
914.532	44.85
914.903	44.88
915.274	44.88
915.645	44.91
916.015	44.92
916.386	44.91
916.756	44.9
917.127	44.91
917.497	44.92
917.868	44.92
918.238	44.92
918.608	44.94
918.978	44.92
919.348	44.92
919.718	44.9
920.088	44.94
920.458	45.01
920.828	45
921.198	45
921.567	44.98
921.937	44.99
922.306	45.01
922.676	45
923.045	45.01
923.415	44.96
923.784	44.97
924.153	44.96
924.522	44.93
924.891	44.94
925.26	44.91
925.629	44.91
925.998	44.89
926.367	44.9
926.736	44.86
927.104	44.84
927.473	44.87
927.842	44.85
928.21	44.86
928.578	44.83
928.947	44.81
929.315	44.84
929.683	44.86
930.051	44.87
930.42	44.86
930.788	44.86
931.156	44.87
931.523	44.85
931.891	44.81
932.259	44.76
932.627	44.73
932.994	44.71
933.362	44.63
933.729	44.51
934.097	44.44
934.464	44.35
934.831	44.29
935.199	44.26
935.566	44.28
935.933	44.29
936.3	44.18
936.667	44.08
937.034	44.04
937.401	43.97
937.767	43.99
938.134	43.96
938.501	43.97
938.867	43.94
939.234	43.86
939.6	43.73
939.967	43.7
940.333	43.76
940.699	43.79
941.065	43.78
941.431	43.86
941.798	43.91
942.163	43.91
942.529	43.82
942.895	43.85
943.261	43.85
943.627	43.88
943.992	43.85
944.358	43.86
944.723	43.81
945.089	43.84
945.454	43.86
945.82	43.87
946.185	43.93
946.55	44.08
946.915	43.95
947.28	43.9
947.645	43.89
948.01	43.95
948.375	43.95
948.74	43.93
949.104	43.92
949.469	43.86
949.834	43.76
950.198	43.75
950.562	43.68
950.927	43.73
951.291	43.76
951.655	43.77
952.02	43.75
952.384	43.78
952.748	43.84
953.112	43.81
953.476	43.8
953.839	43.84
954.203	43.74
954.567	43.69
954.931	43.72
955.294	43.73
955.658	43.74
956.021	43.73
956.385	43.74
956.748	43.68
957.111	43.64
957.474	43.74
957.837	43.72
958.2	43.76
958.563	43.78
958.926	43.77
959.289	43.78
959.652	43.78
960.015	43.8
960.377	43.76
960.74	43.79
961.102	43.8
961.465	43.78
961.827	43.75
962.189	43.73
962.552	43.66
962.914	43.61
963.276	43.6
963.638	43.52
964	43.49
964.362	43.47
964.724	43.5
965.085	43.52
965.447	43.38
965.809	43.31
966.17	43.26
966.532	43.31
966.893	43.3
967.255	43.28
967.616	43.32
967.977	43.28
968.338	43.26
968.699	43.21
969.061	43.15
969.421	43.2
969.782	43.24
970.143	43.24
970.504	43.29
970.865	43.3
971.225	43.24
971.586	43.28
971.946	43.3
972.307	43.28
972.667	43.32
973.027	43.36
973.388	43.32
973.748	43.29
974.108	43.35
974.468	43.31
974.828	43.31
975.188	43.31
975.548	43.26
975.907	43.24
976.267	43.28
976.627	43.24
976.986	43.23
977.346	43.27
977.705	43.3
978.064	43.29
978.424	43.25
978.783	43.33
979.142	43.3
979.501	43.26
979.86	43.22
980.219	43.1
980.578	43.06
980.937	43.07
981.296	43.08
981.654	43.11
982.013	43.11
982.371	43.14
982.73	43.06
983.088	43.13
983.447	43.1
983.805	43.1
984.163	43.21
984.521	43.22
984.879	43.19
985.237	43.24
985.595	43.23
985.953	43.19
986.311	43.22
986.669	43.24
987.026	43.19
987.384	43.26
987.741	43.32
988.099	43.24
988.456	43.25
988.814	43.24
989.171	43.15
989.528	43.13
989.885	43.12
990.242	43.05
990.599	43.02
990.956	43.07
991.313	43.01
991.67	43.03
992.027	43.09
992.383	43.11
992.74	43.05
993.096	43.01
993.453	42.95
993.809	42.93
994.165	42.89
994.522	42.95
994.878	42.86
995.234	42.88
995.59	42.64
995.946	42.65
996.302	42.49
996.658	42.43
997.013	42.47
997.369	42.59
997.725	42.74
998.08	42.76
998.436	42.69
998.791	42.69
999.147	42.73
999.502	42.78
999.857	42.66
1000.212	42.73
1000.567	42.76
1000.922	42.7
1001.277	42.43
1001.632	42.39
1001.987	42.29
1002.342	42.22
1002.696	42.36
1003.051	42.23
1003.406	42.2
1003.76	42.19
1004.114	42.2
1004.469	42.14
1004.823	42.16
1005.177	42.26
1005.531	41.94
1005.885	42.08
1006.239	42.02
1006.593	41.81
1006.947	41.72
1007.301	41.83
1007.655	41.84
1008.008	41.75
1008.362	41.84
1008.715	41.82
1009.069	41.74
1009.422	41.74
1009.776	41.73
1010.129	41.68
1010.482	41.68
1010.835	41.79
1011.188	41.53
1011.541	41.29
1011.894	41.14
1012.247	41.01
1012.6	40.85
1012.952	40.83
1013.305	40.86
1013.657	40.81
1014.01	40.94
1014.362	40.87
1014.715	40.79
1015.067	41.11
1015.419	41.41
1015.771	41.74
1016.123	41.62
1016.475	41.84
1016.827	41.96
1017.179	41.87
1017.531	41.82
1017.883	41.64
1018.234	41.6
1018.586	41.46
1018.938	41.29
1019.289	40.93
1019.64	40.9
1019.992	41.03
1020.343	40.8
1020.694	40.54
1021.045	40.31
1021.396	39.95
1021.747	39.75
1022.098	39.93
1022.449	39.76
1022.8	39.72
1023.151	39.72
1023.501	39.64
1023.852	39.68
1024.202	39.83
1024.553	39.82
1024.903	40.2
1025.253	40.49
1025.604	40.66
1025.954	40.28
1026.304	41
1026.654	41.08
1027.004	41.42
1027.354	41.32
1027.703	40.99
1028.053	40.83
1028.403	40.98
1028.753	41
1029.102	40.88
1029.452	40.84
1029.801	40.93
1030.15	40.45
1030.499	40.27
897.758	765.54
901.051	768.51
904.343	778.97
907.636	766.18
910.928	750.66
914.22	762.18
917.511	747.14
920.803	712.54
924.094	686.36
927.384	688.91
930.675	664.04
933.965	657.47
937.255	658.72
940.544	628.3
943.834	596.84
947.123	590.16
950.411	555.85
953.7	544.44
956.988	530.77
960.276	503.9
963.563	494.86
966.851	470.02
970.138	460.88
973.424	428.28
976.711	422.07
979.997	409.13
983.283	398.54
986.568	387.2
989.853	374.15
993.138	359.85
996.423	354.11
999.708	343.94
1002.992	344.64
1006.275	333.77
1009.559	330.94
1012.842	320.13
1016.125	309.11
1019.408	303.16
1022.69	299.89
1025.972	297.48
1029.254	289.18
1032.536	283.79
1035.817	274.11
1039.098	269.3
1042.379	263.24
1045.659	259.17
1048.939	257.23
1052.219	252.76
1055.498	247.31
1058.778	242.4
1062.057	238.1
1065.335	237.2
1068.614	233.1
1071.892	230.28
1075.17	224.65
1078.447	221.14
1081.724	219.27
1085.001	214.69
1088.278	212.64
1091.554	212.1
1094.83	211.26
1098.106	206.39
1101.382	205.12
1104.657	204.53
1107.932	203.1
1111.206	202.88
1114.481	200.05
1117.755	198.13
1121.029	197.21
1124.302	194.83
1127.575	190.87
1130.848	189.87
1134.121	187.92
1137.393	187.45
1140.665	185.17
1143.937	183.32
1147.208	180.67
1150.48	179.52
1153.75	178.83
1157.021	175.08
1160.291	175.05
1163.561	175.2
1166.831	173.33
1170.101	173.32
1173.37	170.69
1176.639	169.14
1179.907	169.2
1183.176	168.74
1186.444	169.1
1189.711	167.21
1192.979	170.08
1196.246	170.35
1199.513	168.59
1202.78	168.97
1206.046	168.99
1209.312	170.56
1212.578	171.67
1215.843	174.14
1219.108	175.1
1222.373	178.4
1225.638	181.55
1228.902	186.29
1232.166	192.07
1235.43	196.38
1238.693	203.01
1241.956	207.54
1245.219	213.76
1248.482	215.45
1251.744	214.79
1255.006	215.24
1258.268	209.65
1261.529	208.35
1264.79	201.6
1268.051	196.92
1271.312	194.48
1274.572	189.38
1277.832	184.6
1281.092	180.84
1284.351	177.04
1287.61	176.6
1290.869	175.97
1294.128	174.58
1297.386	174.54
1300.644	173.79
1303.902	172.93
1307.159	172.69
1310.416	173.77
1313.673	176.87
1316.93	178.46
1320.186	181.31
1323.442	184.7
1326.697	188.91
1329.953	190.23
1333.208	196.85
1336.463	205.79
1339.717	210.12
1342.972	220.65
1346.226	227.69
1349.479	229.02
1352.733	240.42
1355.986	245.63
1359.238	249.95
1362.491	252.83
1365.743	263.99
1368.995	265.51
1372.247	263.67
1375.498	263.55
1378.749	271.99
1382	272.07
1385.251	271.88
1388.501	271.41
1391.751	275.03
1395	274.29
1398.25	276.23
1401.499	275.36
1404.748	274.52
1407.996	270.38
1411.244	271.21
1414.492	266.91
1417.74	259.14
1420.987	253.7
1424.234	249.16
1427.481	240.13
1430.728	234.24
1433.974	225.31
1437.22	218.19
1440.465	210.42
1443.711	204.65
1446.956	198.99
1450.201	190.34
1453.445	181.91
1456.689	176.57
1459.933	170.53
1463.177	163.36
1466.42	159.86
1469.663	154.43
1472.906	149.82
1476.148	146.21
1479.391	141.78
1482.633	138.82
1485.874	135.73
1489.115	134.32
1492.356	131.1
1495.597	128.99
1498.838	128.3
1502.078	126.19
1505.318	126.04
1508.557	124.65
1511.797	123.03
1515.036	122.45
1518.274	121.59
1521.513	120.48
1524.751	119.2
1527.989	120.45
1531.227	119.67
1534.464	118.88
1537.701	117.95
1540.938	117.27
1544.174	117.17
1547.41	116.6
1550.646	116.28
1553.882	116.22
1557.117	115.16
1560.352	115.09
1563.587	113.28
1566.821	113.2
1570.055	111.91
1573.289	111.71
1576.523	111.96
1579.756	111.48
1582.989	111.24
1586.222	111
1589.454	110.2
1592.686	110.47
1595.918	110.32
1599.15	110.2
1602.381	110.39
1605.612	110.92
1608.843	110.99
1612.073	110.67
1615.303	110.89
1618.533	110.87
1621.762	111.01
1624.992	111.48
1628.221	111.03
1631.449	111.43
1634.678	110.84
1637.906	111.11
1641.134	111.24
1644.361	110.94
1647.588	111.37
1650.815	111.31
1654.042	111.7
1657.269	111.34
1660.495	111.55
1663.72	111.62
1666.946	111.81
1670.171	113.14
1673.396	113.06
1676.621	113.16
1679.845	113.76
1683.069	113.03
1686.293	113.35
1689.517	113.29
1692.74	113.92
1695.963	113.95
1699.185	115.15
1702.408	115
1705.63	114.97
1708.852	115.92
1712.073	115.77
1715.294	115.43
1718.515	116.51
1721.736	116.56
1724.956	116.53
1728.176	116.42
1731.396	117.42
1734.616	116.8
1737.835	117.07
1741.054	117.25
1744.272	117.11
1747.491	117.55
1750.709	118.21
1753.927	118.55
1757.144	118.8
1760.361	119.64
1763.578	120.23
1766.795	120.47
1770.011	121.28
1773.227	121.86
1776.443	122.77
1779.658	123.31
1782.874	123.91
1786.089	124.65
1789.303	124.91
1792.518	125.63
1795.732	126.66
1798.945	127.95
1802.159	128.19
1805.372	130.22
1808.585	131.29
1811.797	132.53
1815.01	133.15
1818.222	134.58
1821.434	135.24
1824.645	136.17
1827.856	138.41
1831.067	139.15
1834.278	140.39
1837.488	141.34
1840.698	142.09
1843.908	142.22
1847.117	144.12
1850.326	145.18
1853.535	146.01
1856.744	148.62
1859.952	150.9
1863.16	151.03
1866.368	151.03
1869.575	152.43
1872.782	152.78
1875.989	152.77
1879.196	152.52
1882.402	152.36
1885.608	153.65
1888.814	154.85
1892.019	155.71
1895.224	153.75
1898.429	156.26
1901.634	157.59
1904.838	158.57
1908.042	160.23
1911.246	160.21
1914.449	162.42
1917.652	160.99
1920.855	161.48
1924.058	160.04
1927.26	159.95
1930.462	160.85
1933.664	159.93
1936.865	159.86
1940.066	157.72
1943.267	157.69
1946.467	158.55
1949.668	158.52
1952.868	159.78
1956.067	159.53
1959.267	159.44
1962.466	160.16
1965.665	161.53
1968.863	162.13
1972.061	163.41
1975.259	166.41
1978.457	166.41
1981.654	168.57
1984.852	170.04
1988.048	171.44
1991.245	173.86
1994.441	179.76
1997.637	182.19
2000.833	186
2004.028	187.45
2007.223	193.4
2010.418	198.15
2013.613	206.29
2016.807	211.24
2020.001	215.29
2023.194	220.36
2026.388	229.06
2029.581	238
2032.774	246.15
2035.966	253.91
2039.158	261.29
2042.35	265.08
2045.542	269.24
2048.733	283.07
2051.924	284.55
2055.115	289.4
2058.306	293.81
2061.496	298.46
2064.686	298.03
2067.875	294.51
2071.065	297
2074.254	298.5
2077.442	307.04
2080.631	310.18
2083.819	307.62
2087.007	315.65
2090.195	320.49
2093.382	320.48
2096.569	319.68
2099.756	327.5
2102.942	336.82
2106.128	344.25
2109.314	345.31
2112.5	345.03
2115.685	345.31
2118.87	345.57
2122.055	347.56
2125.239	355.13
2128.424	364.11
2131.608	360.46
2134.791	362.8
2137.974	361.45
2141.157	363.67
2144.34	368.52
2147.523	372.49
2150.705	379.96
2153.887	380.23
2157.068	383.36
2160.25	386.35
2163.431	384.92
2166.611	393.49
2169.792	396.76
2172.972	404.89
2176.152	402.33
2179.331	412.27
2182.511	415.18
2185.69	421.92
2188.868	434.08
2192.047	445.62
2195.225	450.05
2198.403	460.03
2201.58	456.08
2204.758	470.33
2207.935	474.94
2211.111	487.01
2214.288	488.22
2217.464	493.26
2220.64	494.28
2223.815	498.53
2226.991	488.04
2230.166	493.11
2233.34	505.88
2236.515	521.44
2239.689	512.28
2242.863	520.91
2246.036	514.05
2249.209	530.37
2252.382	530.13
2255.555	546.64
2258.727	548.69
2261.9	572.8
2265.071	580.91
2268.243	571.7
2271.414	589.65
2274.585	604.43
2277.756	601.96
2280.926	631.18
2284.096	627.79
2287.266	629.91
2290.436	621.81
2293.605	634.48
2296.774	654.38
2299.942	651.38
2303.111	678.17
2306.279	687.7
2309.447	689.25
2312.614	694.09
2315.781	708.83
2318.948	716.46
2322.115	733.87
2325.281	771.47
2328.447	765.32
2331.613	767.88
2334.779	785.22
2337.944	793.25
2341.109	808.94
2344.274	819.84
2347.438	844.5
2350.602	857.4
2353.766	913.45
2356.929	917.1
2360.092	930.76
2363.255	938.68
2366.418	949.87
2369.58	974.17
2372.742	964.55
2375.904	960.03
2379.066	988.71
2382.227	1039.1
2385.388	1046.2
2388.548	988.57
2391.709	976.39
2394.869	1005.95
2398.029	1004.67
2401.188	1003.31
2404.347	1028.82
2407.506	1071.47
2410.665	1028.97
2413.823	1035.04
2416.981	1035.88
2420.139	975.16
2423.296	1055.64
2426.453	1126.33
2429.61	1074.27
2432.767	1151.87
2435.923	1192.97
2439.079	1145.29
2442.235	1174.02
2445.391	1203.9
2448.546	1190.18
2451.701	1272
2454.855	1362.22
2458.009	1201.83
2461.163	1225.76
2464.317	1230.01
2467.471	1207.13
2470.624	1252.42
2473.777	1224.63
2476.929	1184.48
2480.082	1264.86
2483.234	1330.93
2486.385	1332.82
2489.537	1366.62
2492.688	1512.79
2495.839	1469.21
2498.989	1523.46
2502.14	1521.76
2505.29	1449.93
2508.439	1632.42
2511.589	1675.61
2514.738	1628.47
2517.887	1610.95
2521.035	1502.81
2524.183	1481.2
2527.331	1466.3
2530.479	1445.55
2533.627	1474.47
