Data from N_2_div_wi_4n_061_Splice17_19.txt Node
Date: Sat Feb 29 14:02:02 EST 2020
User: sa697716
Spectrometer: FLMS03696
Trigger mode: 0
Integration Time (sec): 3.180400E-1
Scans to average: 20
Electric dark correction enabled: true
Nonlinearity correction enabled: true
Boxcar width: 5
XAxis mode: Wavelengths
Number of Pixels in Spectrum: 2048
>>>>>Begin Spectral Data<<<<<
187.83	110.8
188.298	123.86
188.766	104.62
189.233	89.93
189.701	102.05
190.169	106.98
190.636	117.07
191.104	130.23
191.571	331.23
192.039	183.22
192.506	71.71
192.974	1479.61
193.441	122.55
193.908	31.79
194.375	-9.55
194.842	50.69
195.31	64.82
195.777	74.24
196.244	28.88
196.711	19.3
197.177	18.05
197.644	18.37
198.111	17.82
198.578	19.15
199.045	19.44
199.511	19.59
199.978	20.27
200.445	20.58
200.911	20.72
201.378	20.93
201.844	21.57
202.31	22.13
202.777	22.5
203.243	23.31
203.709	23.81
204.176	23.72
204.642	23.75
205.108	23.48
205.574	24.11
206.04	24.2
206.506	24.6
206.972	24.31
207.438	23.97
207.903	24.61
208.369	24.29
208.835	23.9
209.301	23.97
209.766	23.78
210.232	23.77
210.697	22.99
211.163	22.86
211.628	22.23
212.094	22.22
212.559	22.04
213.024	21.54
213.49	21.29
213.955	21.18
214.42	20.79
214.885	20.24
215.35	19.95
215.815	19.42
216.28	18.63
216.745	18.02
217.21	17.27
217.675	16.53
218.14	15.77
218.604	15.08
219.069	14.45
219.534	14.01
219.998	13.61
220.463	13.22
220.927	12.89
221.392	12.58
221.856	12.31
222.32	12.07
222.785	11.86
223.249	11.67
223.713	11.52
224.177	11.35
224.642	11.18
225.106	11.01
225.57	10.84
226.034	10.72
226.497	10.57
226.961	10.41
227.425	10.22
227.889	10.07
228.353	9.89
228.816	9.73
229.28	9.56
229.744	9.42
230.207	9.31
230.671	9.16
231.134	9.02
231.597	8.9
232.061	8.78
232.524	8.68
232.987	8.57
233.45	8.46
233.914	8.36
234.377	8.28
234.84	8.17
235.303	8.08
235.766	7.99
236.229	7.91
236.691	7.82
237.154	7.75
237.617	7.66
238.08	7.58
238.542	7.52
239.005	7.44
239.468	7.34
239.93	7.27
240.393	7.19
240.855	7.12
241.317	7.05
241.78	6.97
242.242	6.88
242.704	6.82
243.166	6.75
243.629	6.67
244.091	6.61
244.553	6.55
245.015	6.48
245.477	6.42
245.939	6.34
246.4	6.27
246.862	6.22
247.324	6.17
247.786	6.11
248.247	6.06
248.709	6.01
249.17	5.96
249.632	5.9
250.093	5.85
250.555	5.8
251.016	5.77
251.477	5.71
251.939	5.66
252.4	5.61
252.861	5.56
253.322	5.51
253.783	5.47
254.244	5.43
254.705	5.39
255.166	5.37
255.627	5.32
256.088	5.29
256.549	5.26
257.009	5.23
257.47	5.2
257.931	5.15
258.391	5.11
258.852	5.06
259.312	5.03
259.773	4.98
260.233	4.94
260.694	4.91
261.154	4.86
261.614	4.83
262.074	4.79
262.534	4.75
262.994	4.72
263.455	4.7
263.915	4.66
264.374	4.63
264.834	4.6
265.294	4.57
265.754	4.53
266.214	4.51
266.673	4.47
267.133	4.45
267.593	4.43
268.052	4.4
268.512	4.37
268.971	4.34
269.431	4.33
269.89	4.31
270.349	4.29
270.809	4.28
271.268	4.26
271.727	4.25
272.186	4.22
272.645	4.21
273.104	4.19
273.563	4.18
274.022	4.16
274.481	4.14
274.94	4.11
275.399	4.1
275.857	4.08
276.316	4.05
276.775	4.03
277.233	4.01
277.692	3.99
278.15	3.97
278.609	3.95
279.067	3.93
279.525	3.9
279.984	3.89
280.442	3.87
280.9	3.85
281.358	3.84
281.816	3.83
282.274	3.82
282.732	3.8
283.19	3.8
283.648	3.78
284.106	3.76
284.564	3.76
285.021	3.75
285.479	3.74
285.937	3.72
286.394	3.72
286.852	3.71
287.309	3.69
287.767	3.68
288.224	3.66
288.682	3.65
289.139	3.63
289.596	3.61
290.053	3.59
290.511	3.56
290.968	3.55
291.425	3.53
291.882	3.51
292.339	3.49
292.796	3.46
293.252	3.44
293.709	3.42
294.166	3.41
294.623	3.4
295.079	3.39
295.536	3.37
295.992	3.35
296.449	3.35
296.905	3.33
297.362	3.32
297.818	3.3
298.274	3.29
298.731	3.29
299.187	3.27
299.643	3.27
300.099	3.26
300.555	3.25
301.011	3.24
301.467	3.22
301.923	3.21
302.379	3.21
302.835	3.21
303.291	3.21
303.746	3.19
304.202	3.18
304.658	3.17
305.113	3.16
305.569	3.16
306.024	3.15
306.479	3.14
306.935	3.13
307.39	3.12
307.845	3.12
308.301	3.11
308.756	3.11
309.211	3.11
309.666	3.11
310.121	3.11
310.576	3.1
311.031	3.1
311.486	3.09
311.94	3.09
312.395	3.09
312.85	3.08
313.305	3.08
313.759	3.07
314.214	3.06
314.668	3.05
315.123	3.05
315.577	3.04
316.032	3.03
316.486	3.03
316.94	3.03
317.394	3.02
317.849	3.01
318.303	3
318.757	2.98
319.211	2.97
319.665	2.96
320.119	2.96
320.572	2.96
321.026	2.95
321.48	2.94
321.934	2.93
322.387	2.92
322.841	2.91
323.295	2.91
323.748	2.91
324.202	2.9
324.655	2.89
325.108	2.88
325.562	2.87
326.015	2.86
326.468	2.85
326.921	2.85
327.374	2.85
327.827	2.85
328.28	2.83
328.733	2.83
329.186	2.83
329.639	2.82
330.092	2.82
330.545	2.82
330.997	2.82
331.45	2.82
331.903	2.82
332.355	2.82
332.808	2.81
333.26	2.8
333.713	2.8
334.165	2.79
334.617	2.8
335.069	2.79
335.522	2.8
335.974	2.79
336.426	2.79
336.878	2.79
337.33	2.78
337.782	2.78
338.234	2.79
338.686	2.78
339.137	2.78
339.589	2.78
340.041	2.77
340.493	2.75
340.944	2.74
341.396	2.74
341.847	2.74
342.299	2.72
342.75	2.71
343.201	2.7
343.653	2.68
344.104	2.67
344.555	2.66
345.006	2.65
345.457	2.64
345.908	2.64
346.359	2.64
346.81	2.64
347.261	2.64
347.712	2.64
348.163	2.63
348.613	2.63
349.064	2.62
349.515	2.61
349.965	2.6
350.416	2.6
350.866	2.6
351.317	2.59
351.767	2.58
352.217	2.57
352.668	2.56
353.118	2.57
353.568	2.56
354.018	2.57
354.468	2.57
354.918	2.58
355.368	2.58
355.818	2.57
356.268	2.58
356.718	2.57
357.168	2.57
357.617	2.57
358.067	2.56
358.517	2.57
358.966	2.57
359.416	2.58
359.865	2.57
360.315	2.57
360.764	2.57
361.213	2.56
361.663	2.56
362.112	2.57
362.561	2.57
363.01	2.58
363.459	2.56
363.908	2.56
364.357	2.57
364.806	2.57
365.255	2.58
365.703	2.58
366.152	2.59
366.601	2.59
367.05	2.59
367.498	2.58
367.947	2.58
368.395	2.6
368.844	2.6
369.292	2.59
369.74	2.59
370.189	2.58
370.637	2.59
371.085	2.6
371.533	2.61
371.981	2.61
372.429	2.6
372.877	2.61
373.325	2.6
373.773	2.61
374.221	2.61
374.669	2.62
375.116	2.62
375.564	2.61
376.012	2.62
376.459	2.62
376.907	2.64
377.354	2.65
377.801	2.66
378.249	2.68
378.696	2.7
379.143	2.72
379.591	2.73
380.038	2.75
380.485	2.78
380.932	2.78
381.379	2.79
381.826	2.8
382.273	2.81
382.72	2.82
383.166	2.82
383.613	2.83
384.06	2.84
384.506	2.84
384.953	2.85
385.4	2.85
385.846	2.86
386.292	2.87
386.739	2.87
387.185	2.89
387.631	2.91
388.078	2.93
388.524	2.93
388.97	2.94
389.416	2.96
389.862	2.98
390.308	2.99
390.754	3.01
391.2	3.04
391.645	3.06
392.091	3.08
392.537	3.09
392.983	3.11
393.428	3.15
393.874	3.17
394.319	3.2
394.765	3.22
395.21	3.23
395.655	3.25
396.101	3.26
396.546	3.27
396.991	3.29
397.436	3.29
397.881	3.31
398.326	3.33
398.771	3.34
399.216	3.34
399.661	3.35
400.106	3.37
400.551	3.37
400.995	3.38
401.44	3.36
401.885	3.37
402.329	3.38
402.774	3.38
403.218	3.38
403.663	3.37
404.107	3.37
404.551	3.38
404.995	3.38
405.44	3.38
405.884	3.38
406.328	3.39
406.772	3.4
407.216	3.41
407.66	3.41
408.104	3.41
408.547	3.43
408.991	3.42
409.435	3.41
409.879	3.42
410.322	3.45
410.766	3.46
411.209	3.48
411.653	3.47
412.096	3.46
412.54	3.47
412.983	3.48
413.426	3.5
413.869	3.51
414.312	3.54
414.756	3.56
415.199	3.56
415.642	3.58
416.085	3.59
416.527	3.61
416.97	3.62
417.413	3.61
417.856	3.59
418.298	3.57
418.741	3.58
419.184	3.57
419.626	3.56
420.069	3.56
420.511	3.54
420.953	3.55
421.396	3.55
421.838	3.57
422.28	3.6
422.722	3.61
423.164	3.63
423.606	3.64
424.048	3.63
424.49	3.63
424.932	3.63
425.374	3.63
425.816	3.6
426.258	3.6
426.699	3.58
427.141	3.57
427.582	3.56
428.024	3.55
428.465	3.55
428.907	3.57
429.348	3.56
429.789	3.58
430.231	3.59
430.672	3.61
431.113	3.62
431.554	3.63
431.995	3.64
432.436	3.65
432.877	3.66
433.318	3.66
433.759	3.67
434.2	3.69
434.64	3.68
435.081	3.67
435.522	3.68
435.962	3.68
436.403	3.69
436.843	3.69
437.284	3.72
437.724	3.74
438.164	3.76
438.604	3.78
439.045	3.78
439.485	3.81
439.925	3.83
440.365	3.83
440.805	3.84
441.245	3.85
441.685	3.87
442.125	3.86
442.564	3.86
443.004	3.87
443.444	3.89
443.883	3.91
444.323	3.91
444.762	3.93
445.202	3.97
445.641	4
446.081	4.04
446.52	4.04
446.959	4.06
447.398	4.09
447.837	4.12
448.276	4.14
448.716	4.14
449.154	4.18
449.593	4.19
450.032	4.2
450.471	4.2
450.91	4.2
451.349	4.23
451.787	4.21
452.226	4.2
452.664	4.19
453.103	4.19
453.541	4.19
453.98	4.19
454.418	4.17
454.856	4.15
455.295	4.16
455.733	4.14
456.171	4.13
456.609	4.13
457.047	4.13
457.485	4.14
457.923	4.13
458.361	4.14
458.798	4.15
459.236	4.15
459.674	4.16
460.111	4.16
460.549	4.16
460.987	4.17
461.424	4.17
461.862	4.17
462.299	4.18
462.736	4.19
463.173	4.17
463.611	4.16
464.048	4.16
464.485	4.15
464.922	4.16
465.359	4.17
465.796	4.18
466.233	4.19
466.67	4.19
467.106	4.17
467.543	4.17
467.98	4.18
468.416	4.19
468.853	4.19
469.29	4.2
469.726	4.19
470.162	4.19
470.599	4.18
471.035	4.19
471.471	4.2
471.907	4.21
472.344	4.2
472.78	4.21
473.216	4.2
473.652	4.2
474.088	4.22
474.523	4.21
474.959	4.22
475.395	4.22
475.831	4.22
476.266	4.21
476.702	4.2
477.138	4.21
477.573	4.19
478.008	4.19
478.444	4.19
478.879	4.18
479.314	4.17
479.75	4.16
480.185	4.15
480.62	4.15
481.055	4.14
481.49	4.14
481.925	4.12
482.36	4.12
482.795	4.12
483.229	4.13
483.664	4.12
484.099	4.12
484.534	4.13
484.968	4.13
485.403	4.13
485.837	4.13
486.271	4.15
486.706	4.16
487.14	4.18
487.574	4.19
488.009	4.2
488.443	4.21
488.877	4.23
489.311	4.25
489.745	4.28
490.179	4.31
490.613	4.34
491.046	4.37
491.48	4.41
491.914	4.44
492.348	4.48
492.781	4.51
493.215	4.55
493.648	4.6
494.082	4.65
494.515	4.69
494.948	4.73
495.382	4.78
495.815	4.83
496.248	4.89
496.681	4.96
497.114	5.02
497.547	5.08
497.98	5.17
498.413	5.25
498.846	5.34
499.279	5.44
499.711	5.54
500.144	5.64
500.577	5.74
501.009	5.85
501.442	5.99
501.874	6.1
502.306	6.25
502.739	6.38
503.171	6.53
503.603	6.68
504.036	6.85
504.468	7.03
504.9	7.2
505.332	7.39
505.764	7.57
506.196	7.77
506.627	7.98
507.059	8.19
507.491	8.4
507.923	8.63
508.354	8.86
508.786	9.1
509.217	9.33
509.649	9.61
510.08	9.88
510.512	10.16
510.943	10.44
511.374	10.73
511.805	11.03
512.237	11.35
512.668	11.66
513.099	11.99
513.53	12.33
513.961	12.68
514.391	13
514.822	13.35
515.253	13.71
515.684	14.07
516.114	14.44
516.545	14.82
516.975	15.18
517.406	15.56
517.836	15.92
518.267	16.29
518.697	16.67
519.127	17.06
519.558	17.43
519.988	17.79
520.418	18.16
520.848	18.51
521.278	18.87
521.708	19.12
522.138	19.46
522.567	19.82
522.997	20.15
523.427	20.49
523.857	20.8
524.286	21.11
524.716	21.42
525.145	21.72
525.575	22.02
526.004	22.29
526.433	22.65
526.863	22.94
527.292	23.2
527.721	23.44
528.15	23.66
528.579	23.88
529.008	24.1
529.437	24.32
529.866	24.5
530.295	24.69
530.724	24.89
531.152	25.07
531.581	25.21
532.01	25.34
532.438	25.49
532.867	25.63
533.295	25.77
533.723	25.89
534.152	26
534.58	26.1
535.008	26.19
535.436	26.26
535.865	26.33
536.293	26.42
536.721	26.51
537.149	26.58
537.576	26.65
538.004	26.71
538.432	26.76
538.86	26.81
539.287	26.86
539.715	26.91
540.143	26.95
540.57	27
540.998	27.03
541.425	27.07
541.852	27.1
542.28	27.11
542.707	27.14
543.134	27.17
543.561	27.18
543.988	27.22
544.415	27.26
544.842	27.3
545.269	27.32
545.696	27.35
546.123	27.36
546.549	27.39
546.976	27.44
547.403	27.46
547.829	27.48
548.256	27.52
548.682	27.52
549.108	27.53
549.535	27.54
549.961	27.55
550.387	27.55
550.813	27.55
551.24	27.55
551.666	27.55
552.092	27.55
552.518	27.55
552.943	27.56
553.369	27.55
553.795	27.52
554.221	27.48
554.646	27.46
555.072	27.43
555.498	27.36
555.923	27.3
556.349	27.21
556.774	27.11
557.199	27.04
557.625	26.92
558.05	26.82
558.475	26.71
558.9	26.6
559.325	26.48
559.75	26.33
560.175	26.21
560.6	26.08
561.025	25.95
561.449	25.79
561.874	25.63
562.299	25.47
562.723	25.31
563.148	25.14
563.572	24.97
563.997	24.8
564.421	24.61
564.846	24.42
565.27	24.21
565.694	24.01
566.118	23.83
566.542	23.65
566.966	23.46
567.39	23.24
567.814	23.02
568.238	22.79
568.662	22.58
569.086	22.38
569.509	22.19
569.933	21.98
570.357	21.76
570.78	21.55
571.204	21.32
571.627	21.12
572.05	20.94
572.474	20.76
572.897	20.57
573.32	20.37
573.743	20.18
574.166	19.99
574.589	19.82
575.012	19.67
575.435	19.5
575.858	19.36
576.281	19.2
576.704	19.07
577.126	18.9
577.549	18.79
577.972	18.68
578.394	18.54
578.817	18.44
579.239	18.33
579.661	18.2
580.084	18.09
580.506	17.98
580.928	17.87
581.35	17.76
581.772	17.68
582.194	17.55
582.616	17.43
583.038	17.32
583.46	17.21
583.882	17.11
584.303	17.03
584.725	16.94
585.147	16.86
585.568	16.75
585.99	16.67
586.411	16.58
586.833	16.51
587.254	16.44
587.675	16.38
588.096	16.29
588.518	16.22
588.939	16.14
589.36	16.06
589.781	15.99
590.202	15.93
590.623	15.86
591.043	15.8
591.464	15.73
591.885	15.68
592.305	15.63
592.726	15.59
593.147	15.54
593.567	15.49
593.987	15.46
594.408	15.42
594.828	15.38
595.248	15.35
595.669	15.33
596.089	15.29
596.509	15.23
596.929	15.19
597.349	15.13
597.769	15.09
598.189	15.05
598.608	15.01
599.028	14.97
599.448	14.94
599.867	14.89
600.287	14.83
600.706	14.79
601.126	14.74
601.545	14.68
601.965	14.65
602.384	14.59
602.803	14.53
603.222	14.45
603.641	14.37
604.061	14.29
604.48	14.22
604.898	14.14
605.317	14.05
605.736	13.97
606.155	13.89
606.574	13.79
606.992	13.7
607.411	13.62
607.829	13.48
608.248	13.39
608.666	13.3
609.085	13.21
609.503	13.12
609.921	13.04
610.339	12.94
610.758	12.86
611.176	12.76
611.594	12.67
612.012	12.58
612.43	12.54
612.847	12.46
613.265	12.38
613.683	12.29
614.101	12.19
614.518	12.09
614.936	12.01
615.353	11.92
615.771	11.85
616.188	11.77
616.606	11.68
617.023	11.6
617.44	11.52
617.857	11.45
618.274	11.38
618.691	11.32
619.108	11.27
619.525	11.21
619.942	11.16
620.359	11.12
620.776	11.08
621.192	11.04
621.609	11.01
622.026	10.99
622.442	10.95
622.859	10.93
623.275	10.92
623.691	10.9
624.108	10.88
624.524	10.86
624.94	10.83
625.356	10.81
625.772	10.81
626.188	10.8
626.604	10.77
627.02	10.76
627.436	10.74
627.852	10.71
628.268	10.69
628.683	10.67
629.099	10.65
629.514	10.63
629.93	10.62
630.345	10.58
630.761	10.54
631.176	10.5
631.591	10.46
632.007	10.41
632.422	10.36
632.837	10.31
633.252	10.24
633.667	10.16
634.082	10.08
634.497	9.99
634.911	9.89
635.326	9.78
635.741	9.67
636.155	9.57
636.57	9.46
636.984	9.34
637.399	9.21
637.813	9.08
638.228	8.96
638.642	8.83
639.056	8.7
639.47	8.57
639.884	8.45
640.298	8.33
640.712	8.2
641.126	8.06
641.54	7.93
641.954	7.82
642.368	7.7
642.781	7.59
643.195	7.47
643.609	7.35
644.022	7.24
644.436	7.14
644.849	7.03
645.262	6.93
645.676	6.83
646.089	6.74
646.502	6.65
646.915	6.58
647.328	6.51
647.741	6.45
648.154	6.4
648.567	6.34
648.98	6.3
649.393	6.26
649.805	6.22
650.218	6.2
650.631	6.16
651.043	6.12
651.456	6.09
651.868	6.04
652.28	6.01
652.693	5.95
653.105	5.91
653.517	5.86
653.929	5.82
654.341	5.78
654.753	5.72
655.165	5.67
655.577	5.62
655.989	5.55
656.401	5.49
656.813	5.41
657.224	5.35
657.636	5.29
658.047	5.22
658.459	5.13
658.87	5.05
659.282	4.99
659.693	4.92
660.104	4.85
660.515	4.79
660.926	4.73
661.338	4.67
661.749	4.6
662.159	4.55
662.57	4.49
662.981	4.45
663.392	4.39
663.803	4.35
664.213	4.3
664.624	4.26
665.035	4.2
665.445	4.18
665.855	4.16
666.266	4.13
666.676	4.11
667.086	4.09
667.497	4.07
667.907	4.04
668.317	4.02
668.727	4.01
669.137	4
669.547	4.01
669.956	4
670.366	4
670.776	4.01
671.186	4.01
671.595	4.02
672.005	4.04
672.414	4.06
672.824	4.1
673.233	4.11
673.642	4.12
674.052	4.14
674.461	4.17
674.87	4.18
675.279	4.21
675.688	4.24
676.097	4.26
676.506	4.28
676.915	4.33
677.323	4.37
677.732	4.41
678.141	4.46
678.549	4.51
678.958	4.56
679.366	4.62
679.775	4.68
680.183	4.75
680.592	4.82
681	4.89
681.408	4.95
681.816	5.01
682.224	5.11
682.632	5.21
683.04	5.31
683.448	5.43
683.856	5.58
684.264	5.75
684.671	5.92
685.079	6.12
685.487	6.35
685.894	6.6
686.302	6.88
686.709	7.16
687.116	7.48
687.524	7.83
687.931	8.22
688.338	8.63
688.745	9.06
689.152	9.52
689.559	10.03
689.966	10.55
690.373	11.14
690.78	11.73
691.187	12.38
691.593	13.03
692	13.7
692.407	14.38
692.813	15.09
693.22	15.82
693.626	16.55
694.032	17.28
694.439	18.06
694.845	18.8
695.251	19.58
695.657	20.33
696.063	21.11
696.469	21.88
696.875	22.64
697.281	23.4
697.687	24.17
698.093	24.95
698.498	25.74
698.904	26.51
699.31	27.26
699.715	28.02
700.12	28.75
700.526	29.49
700.931	30.22
701.337	30.96
701.742	31.67
702.147	32.38
702.552	33.05
702.957	33.72
703.362	34.38
703.767	35.01
704.172	35.65
704.577	36.3
704.981	36.91
705.386	37.51
705.791	38.13
706.195	38.73
706.6	39.3
707.004	39.9
707.408	40.47
707.813	41.04
708.217	41.59
708.621	42.12
709.025	42.67
709.43	43.18
709.834	43.75
710.237	44.24
710.641	44.77
711.045	45.28
711.449	45.8
711.853	46.31
712.256	46.81
712.66	47.32
713.064	47.81
713.467	48.28
713.87	48.78
714.274	49.24
714.677	49.7
715.08	50.12
715.484	50.56
715.887	50.98
716.29	51.36
716.693	51.75
717.096	52.13
717.499	52.53
717.901	52.9
718.304	53.29
718.707	53.63
719.109	54.01
719.512	54.39
719.915	54.73
720.317	55.07
720.719	55.41
721.122	55.71
721.524	56.05
721.926	56.38
722.328	56.68
722.731	56.94
723.133	57.24
723.535	57.52
723.937	57.78
724.338	58.02
724.74	58.27
725.142	58.53
725.544	58.79
725.945	59.01
726.347	59.22
726.748	59.43
727.15	59.65
727.551	59.86
727.952	60.02
728.354	60.21
728.755	60.41
729.156	60.59
729.557	60.72
729.958	60.92
730.359	61.08
730.76	61.21
731.161	61.36
731.562	61.48
731.962	61.56
732.363	61.7
732.763	61.85
733.164	61.96
733.564	62.06
733.965	62.16
734.365	62.22
734.766	62.3
735.166	62.39
735.566	62.47
735.966	62.55
736.366	62.65
736.766	62.74
737.166	62.78
737.566	62.87
737.966	62.97
738.365	63.06
738.765	63.14
739.165	63.2
739.564	63.26
739.964	63.32
740.363	63.4
740.763	63.45
741.162	63.48
741.561	63.54
741.96	63.61
742.36	63.66
742.759	63.66
743.158	63.7
743.557	63.77
743.955	63.84
744.354	63.93
744.753	64
745.152	64.06
745.55	64.13
745.949	64.17
746.348	64.19
746.746	64.23
747.144	64.32
747.543	64.35
747.941	64.39
748.339	64.45
748.737	64.46
749.136	64.46
749.534	64.51
749.932	64.51
750.33	64.52
750.727	64.5
751.125	64.51
751.523	64.51
751.921	64.55
752.318	64.58
752.716	64.55
753.113	64.55
753.511	64.54
753.908	64.49
754.305	64.49
754.703	64.49
755.1	64.52
755.497	64.49
755.894	64.44
756.291	64.41
756.688	64.36
757.085	64.35
757.482	64.35
757.878	64.36
758.275	64.36
758.672	64.4
759.068	64.43
759.465	64.45
759.861	64.46
760.258	64.47
760.654	64.44
761.05	64.46
761.447	64.43
761.843	64.41
762.239	64.37
762.635	64.4
763.031	64.34
763.427	64.26
763.822	64.2
764.218	64.2
764.614	64.18
765.01	64.2
765.405	64.19
765.801	64.18
766.196	64.21
766.592	64.22
766.987	64.2
767.382	64.22
767.778	64.26
768.173	64.28
768.568	64.23
768.963	64.25
769.358	64.23
769.753	64.27
770.148	64.28
770.542	64.22
770.937	64.2
771.332	64.19
771.726	64.17
772.121	64.13
772.515	64.16
772.91	64.2
773.304	64.18
773.699	64.17
774.093	64.1
774.487	64.08
774.881	64.1
775.275	64.13
775.669	64.11
776.063	64.08
776.457	64.08
776.851	63.99
777.245	63.95
777.638	63.96
778.032	63.98
778.425	64
778.819	64.02
779.212	63.98
779.606	63.98
779.999	63.94
780.392	63.98
780.786	63.97
781.179	64.01
781.572	63.99
781.965	63.97
782.358	63.97
782.751	63.95
783.143	63.96
783.536	64.01
783.929	64.02
784.322	64.08
784.714	64.09
785.107	64.15
785.499	64.13
785.891	64.2
786.284	64.2
786.676	64.21
787.068	64.19
787.46	64.16
787.852	64.13
788.245	64.1
788.636	64.05
789.028	64.04
789.42	63.95
789.812	63.96
790.204	63.92
790.595	63.91
790.987	63.88
791.378	63.91
791.77	63.96
792.161	63.91
792.553	63.92
792.944	63.94
793.335	63.92
793.726	63.94
794.117	63.96
794.508	63.98
794.899	64
795.29	64
795.681	63.97
796.072	63.97
796.463	64.07
796.853	64.09
797.244	64.11
797.634	64.11
798.025	64.13
798.415	64.13
798.806	64.16
799.196	64.15
799.586	64.21
799.976	64.29
800.366	64.29
800.756	64.26
801.146	64.23
801.536	64.25
801.926	64.28
802.316	64.3
802.706	64.3
803.095	64.31
803.485	64.32
803.874	64.3
804.264	64.32
804.653	64.31
805.043	64.25
805.432	64.24
805.821	64.21
806.21	64.22
806.599	64.26
806.988	64.25
807.377	64.27
807.766	64.28
808.155	64.3
808.544	64.27
808.933	64.29
809.321	64.38
809.71	64.42
810.098	64.44
810.487	64.46
810.875	64.46
811.264	64.49
811.652	64.45
812.04	64.47
812.428	64.46
812.816	64.48
813.204	64.45
813.592	64.41
813.98	64.45
814.368	64.43
814.756	64.44
815.144	64.44
815.531	64.45
815.919	64.45
816.306	64.42
816.694	64.42
817.081	64.39
817.469	64.43
817.856	64.47
818.243	64.46
818.63	64.5
819.017	64.5
819.404	64.49
819.791	64.49
820.178	64.5
820.565	64.52
820.952	64.55
821.339	64.61
821.725	64.63
822.112	64.61
822.498	64.62
822.885	64.61
823.271	64.63
823.657	64.63
824.044	64.64
824.43	64.69
824.816	64.69
825.202	64.67
825.588	64.65
825.974	64.62
826.36	64.65
826.746	64.68
827.132	64.67
827.517	64.65
827.903	64.64
828.289	64.64
828.674	64.59
829.06	64.58
829.445	64.62
829.83	64.63
830.216	64.65
830.601	64.63
830.986	64.61
831.371	64.68
831.756	64.68
832.141	64.72
832.526	64.69
832.911	64.71
833.295	64.77
833.68	64.73
834.065	64.75
834.449	64.72
834.834	64.72
835.218	64.73
835.603	64.68
835.987	64.64
836.371	64.65
836.755	64.67
837.139	64.68
837.524	64.62
837.908	64.59
838.291	64.57
838.675	64.59
839.059	64.59
839.443	64.56
839.827	64.56
840.21	64.59
840.594	64.58
840.977	64.55
841.361	64.54
841.744	64.57
842.127	64.58
842.511	64.58
842.894	64.55
843.277	64.57
843.66	64.58
844.043	64.56
844.426	64.55
844.809	64.54
845.191	64.53
845.574	64.52
845.957	64.48
846.339	64.47
846.722	64.48
847.104	64.49
847.487	64.46
847.869	64.45
848.252	64.44
848.634	64.47
849.016	64.48
849.398	64.5
849.78	64.5
850.162	64.5
850.544	64.51
850.926	64.47
851.307	64.42
851.689	64.4
852.071	64.37
852.452	64.39
852.834	64.35
853.215	64.32
853.597	64.31
853.978	64.27
854.359	64.25
854.741	64.26
855.122	64.29
855.503	64.32
855.884	64.31
856.265	64.32
856.646	64.27
857.026	64.26
857.407	64.23
857.788	64.27
858.169	64.28
858.549	64.3
858.93	64.3
859.31	64.27
859.69	64.23
860.071	64.22
860.451	64.22
860.831	64.26
861.211	64.28
861.591	64.29
861.971	64.25
862.351	64.27
862.731	64.28
863.111	64.27
863.491	64.28
863.87	64.31
864.25	64.35
864.629	64.37
865.009	64.34
865.388	64.28
865.768	64.3
866.147	64.32
866.526	64.32
866.905	64.31
867.284	64.31
867.663	64.31
868.042	64.31
868.421	64.29
868.8	64.26
869.179	64.3
869.558	64.34
869.936	64.31
870.315	64.29
870.693	64.3
871.072	64.3
871.45	64.27
871.828	64.26
872.207	64.26
872.585	64.27
872.963	64.25
873.341	64.22
873.719	64.23
874.097	64.24
874.475	64.26
874.853	64.25
875.23	64.25
875.608	64.31
875.986	64.32
876.363	64.31
876.741	64.28
877.118	64.29
877.495	64.3
877.873	64.29
878.25	64.29
878.627	64.28
879.004	64.28
879.381	64.26
879.758	64.23
880.135	64.23
880.512	64.27
880.889	64.28
881.265	64.33
881.642	64.3
882.019	64.31
882.395	64.34
882.772	64.33
883.148	64.3
883.524	64.32
883.901	64.29
884.277	64.3
884.653	64.3
885.029	64.32
885.405	64.27
885.781	64.24
886.157	64.25
886.532	64.2
886.908	64.23
887.284	64.25
887.659	64.23
888.035	64.26
888.411	64.23
888.786	64.22
889.161	64.2
889.537	64.2
889.912	64.22
890.287	64.2
890.662	64.2
891.037	64.17
891.412	64.16
891.787	64.11
892.162	64.07
892.536	64.06
892.911	64.05
893.286	63.99
893.66	63.97
894.035	63.95
894.409	63.91
894.784	63.9
895.158	63.86
895.532	63.81
895.906	63.8
896.281	63.77
896.655	63.75
897.029	63.71
897.402	63.73
897.776	63.71
898.15	63.71
898.524	63.7
898.898	63.64
899.271	63.64
899.645	63.62
900.018	63.63
900.392	63.64
900.765	63.65
901.138	63.63
901.511	63.62
901.884	63.62
902.258	63.58
902.631	63.6
903.003	63.63
903.376	63.63
903.749	63.65
904.122	63.64
904.495	63.63
904.867	63.61
905.24	63.59
905.612	63.55
905.985	63.53
906.357	63.53
906.729	63.52
907.102	63.54
907.474	63.53
907.846	63.53
908.218	63.48
908.59	63.45
908.962	63.44
909.334	63.44
909.705	63.46
910.077	63.42
910.449	63.42
910.82	63.39
911.192	63.37
911.563	63.32
911.935	63.27
912.306	63.29
912.677	63.28
913.048	63.26
913.419	63.24
913.79	63.23
914.161	63.24
914.532	63.24
914.903	63.24
915.274	63.2
915.645	63.25
916.015	63.23
916.386	63.22
916.756	63.19
917.127	63.2
917.497	63.21
917.868	63.19
918.238	63.21
918.608	63.15
918.978	63.1
919.348	63.04
919.718	63.02
920.088	63.08
920.458	63.09
920.828	63.16
921.198	63.19
921.567	63.15
921.937	63.17
922.306	63.1
922.676	63.12
923.045	63.15
923.415	63.22
923.784	63.23
924.153	63.2
924.522	63.13
924.891	63.07
925.26	63
925.629	63.04
925.998	63
926.367	63.06
926.736	63.05
927.104	63.04
927.473	63.05
927.842	63.01
928.21	63.02
928.578	63.05
928.947	63.02
929.315	63.04
929.683	63.04
930.051	63.04
930.42	62.97
930.788	62.99
931.156	62.93
931.523	62.87
931.891	62.8
932.259	62.71
932.627	62.63
932.994	62.6
933.362	62.55
933.729	62.46
934.097	62.41
934.464	62.39
934.831	62.31
935.199	62.3
935.566	62.23
935.933	62.25
936.3	62.15
936.667	62.1
937.034	62.04
937.401	61.89
937.767	61.86
938.134	61.83
938.501	61.72
938.867	61.71
939.234	61.67
939.6	61.6
939.967	61.56
940.333	61.62
940.699	61.65
941.065	61.64
941.431	61.74
941.798	61.75
942.163	61.75
942.529	61.73
942.895	61.65
943.261	61.65
943.627	61.75
943.992	61.74
944.358	61.76
944.723	61.74
945.089	61.79
945.454	61.75
945.82	61.73
946.185	61.77
946.55	61.96
946.915	61.98
947.28	62
947.645	61.92
948.01	61.93
948.375	62.03
948.74	62.04
949.104	61.96
949.469	61.91
949.834	61.83
950.198	61.78
950.562	61.63
950.927	61.66
951.291	61.59
951.655	61.65
952.02	61.59
952.384	61.59
952.748	61.58
953.112	61.64
953.476	61.72
953.839	61.68
954.203	61.73
954.567	61.79
954.931	61.7
955.294	61.68
955.658	61.62
956.021	61.59
956.385	61.53
956.748	61.54
957.111	61.45
957.474	61.44
957.837	61.44
958.2	61.27
958.563	61.22
958.926	61.24
959.289	61.28
959.652	61.25
960.015	61.26
960.377	61.22
960.74	61.15
961.102	61.19
961.465	61.19
961.827	61.13
962.189	61.18
962.552	61.12
962.914	61.08
963.276	61.06
963.638	61.03
964	61.01
964.362	60.99
964.724	60.98
965.085	61
965.447	60.92
965.809	60.93
966.17	60.94
966.532	60.98
966.893	60.99
967.255	60.97
967.616	61.05
967.977	61.06
968.338	61
968.699	60.97
969.061	60.86
969.421	60.87
969.782	60.95
970.143	60.97
970.504	60.94
970.865	60.87
971.225	60.85
971.586	60.78
971.946	60.77
972.307	60.81
972.667	60.93
973.027	61.03
973.388	61
973.748	60.93
974.108	60.93
974.468	60.93
974.828	60.94
975.188	60.93
975.548	60.92
975.907	60.88
976.267	60.83
976.627	60.76
976.986	60.66
977.346	60.68
977.705	60.7
978.064	60.65
978.424	60.56
978.783	60.61
979.142	60.61
979.501	60.58
979.86	60.62
980.219	60.54
980.578	60.48
980.937	60.6
981.296	60.52
981.654	60.5
982.013	60.52
982.371	60.56
982.73	60.48
983.088	60.44
983.447	60.45
983.805	60.42
984.163	60.45
984.521	60.37
984.879	60.28
985.237	60.36
985.595	60.32
985.953	60.34
986.311	60.43
986.669	60.47
987.026	60.46
987.384	60.44
987.741	60.45
988.099	60.44
988.456	60.42
988.814	60.45
989.171	60.32
989.528	60.38
989.885	60.29
990.242	60.19
990.599	60.2
990.956	60.24
991.313	60.27
991.67	60.25
992.027	60.32
992.383	60.44
992.74	60.46
993.096	60.42
993.453	60.34
993.809	60.33
994.165	60.34
994.522	60.28
994.878	60.21
995.234	60.08
995.59	60.04
995.946	60.01
996.302	59.9
996.658	59.76
997.013	59.78
997.369	59.75
997.725	59.76
998.08	59.57
998.436	59.6
998.791	59.58
999.147	59.57
999.502	59.5
999.857	59.46
1000.212	59.38
1000.567	59.42
1000.922	59.27
1001.277	59.22
1001.632	59.24
1001.987	59.28
1002.342	59.25
1002.696	59.21
1003.051	59.07
1003.406	59.1
1003.76	58.93
1004.114	58.96
1004.469	58.88
1004.823	58.89
1005.177	58.97
1005.531	58.7
1005.885	58.72
1006.239	58.65
1006.593	58.64
1006.947	58.57
1007.301	58.54
1007.655	58.67
1008.008	58.77
1008.362	58.7
1008.715	58.71
1009.069	58.51
1009.422	58.54
1009.776	58.61
1010.129	58.59
1010.482	58.65
1010.835	58.88
1011.188	58.77
1011.541	58.45
1011.894	58.11
1012.247	58.07
1012.6	58.02
1012.952	58.07
1013.305	57.97
1013.657	57.71
1014.01	57.55
1014.362	57.43
1014.715	57.11
1015.067	57.21
1015.419	57.49
1015.771	57.83
1016.123	57.83
1016.475	57.92
1016.827	58.04
1017.179	58.16
1017.531	57.98
1017.883	58.13
1018.234	58.15
1018.586	58.15
1018.938	57.94
1019.289	57.72
1019.64	57.67
1019.992	57.71
1020.343	57.69
1020.694	57.51
1021.045	57.32
1021.396	57.6
1021.747	57.51
1022.098	57.43
1022.449	57.51
1022.8	57.26
1023.151	57.14
1023.501	56.8
1023.852	56.54
1024.202	56.28
1024.553	55.85
1024.903	55.79
1025.253	55.45
1025.604	55.09
1025.954	54.82
1026.304	55.24
1026.654	55.56
1027.004	55.6
1027.354	55.77
1027.703	55.81
1028.053	55.7
1028.403	56.06
1028.753	56.32
1029.102	56.16
1029.452	55.86
1029.801	55.6
1030.15	55.03
1030.499	54.74
897.758	800.08
901.051	809.32
904.343	816.81
907.636	806.58
910.928	792.03
914.22	804.27
917.511	789.11
920.803	755.58
924.094	723.98
927.384	729.46
930.675	706.63
933.965	701.15
937.255	701.97
940.544	670.96
943.834	640.34
947.123	632
950.411	595.77
953.7	584.7
956.988	569.09
960.276	539.9
963.563	534.62
966.851	504.68
970.138	495.78
973.424	460.98
976.711	455.12
979.997	438.25
983.283	428.22
986.568	416.88
989.853	403.06
993.138	387.81
996.423	384.44
999.708	369.92
1002.992	371.9
1006.275	359.36
1009.559	356.9
1012.842	346.06
1016.125	334.45
1019.408	327.83
1022.69	323.67
1025.972	320.57
1029.254	313.67
1032.536	307.41
1035.817	297.94
1039.098	293.26
1042.379	287.09
1045.659	281.37
1048.939	279.18
1052.219	275.45
1055.498	268.79
1058.778	264.39
1062.057	259.72
1065.335	257.1
1068.614	253.29
1071.892	250.93
1075.17	245.1
1078.447	241.98
1081.724	241.24
1085.001	235.97
1088.278	233.88
1091.554	233.96
1094.83	232.33
1098.106	229.13
1101.382	227.46
1104.657	226.41
1107.932	224.54
1111.206	223.8
1114.481	222.32
1117.755	219.27
1121.029	219.13
1124.302	216.05
1127.575	211.66
1130.848	211.13
1134.121	207.81
1137.393	207.38
1140.665	205.72
1143.937	204.25
1147.208	200.76
1150.48	197.88
1153.75	197.58
1157.021	195.24
1160.291	195.07
1163.561	195.33
1166.831	192.87
1170.101	192.78
1173.37	190.86
1176.639	188.84
1179.907	188.36
1183.176	188.67
1186.444	189.24
1189.711	187.82
1192.979	189.83
1196.246	190.07
1199.513	188.43
1202.78	189.38
1206.046	189.5
1209.312	190.92
1212.578	191.9
1215.843	194.76
1219.108	195.65
1222.373	198.64
1225.638	202.01
1228.902	206.27
1232.166	211.98
1235.43	216.51
1238.693	222.7
1241.956	228.07
1245.219	234.41
1248.482	236.52
1251.744	235.9
1255.006	235.97
1258.268	229.47
1261.529	227.65
1264.79	221.23
1268.051	217.77
1271.312	214.69
1274.572	209.56
1277.832	203.72
1281.092	200.67
1284.351	196.3
1287.61	195.76
1290.869	195.04
1294.128	194.56
1297.386	193.7
1300.644	192.65
1303.902	191.18
1307.159	190.87
1310.416	192.25
1313.673	195.61
1316.93	195.84
1320.186	199.81
1323.442	202.92
1326.697	207.16
1329.953	208.5
1333.208	215.57
1336.463	225.04
1339.717	229.76
1342.972	240.05
1346.226	247.22
1349.479	249.08
1352.733	261.63
1355.986	265.09
1359.238	270.22
1362.491	273.72
1365.743	284.59
1368.995	286.97
1372.247	283.13
1375.498	282.48
1378.749	293.33
1382	291.66
1385.251	291.04
1388.501	287.52
1391.751	293.1
1395	292.09
1398.25	293.56
1401.499	293.54
1404.748	292.12
1407.996	287.46
1411.244	287.94
1414.492	282.92
1417.74	275.12
1420.987	269.31
1424.234	267.83
1427.481	256.13
1430.728	249.19
1433.974	241.01
1437.22	232.19
1440.465	224.45
1443.711	218.64
1446.956	211.93
1450.201	203.36
1453.445	194.91
1456.689	188.58
1459.933	181.46
1463.177	174.41
1466.42	171.28
1469.663	166.21
1472.906	161.5
1476.148	156.97
1479.391	153.27
1482.633	150.87
1485.874	147.26
1489.115	145.97
1492.356	143.31
1495.597	141.61
1498.838	140.5
1502.078	138.42
1505.318	137.64
1508.557	136.96
1511.797	135.33
1515.036	135.19
1518.274	134
1521.513	132.74
1524.751	131.64
1527.989	132.59
1531.227	131.55
1534.464	131.31
1537.701	130.18
1540.938	129.77
1544.174	129.4
1547.41	129.31
1550.646	128.78
1553.882	128.72
1557.117	127.91
1560.352	127.74
1563.587	126.5
1566.821	126.44
1570.055	125.57
1573.289	125.28
1576.523	125.16
1579.756	124.8
1582.989	125.11
1586.222	124.46
1589.454	123.71
1592.686	124.03
1595.918	123.51
1599.15	123.07
1602.381	123.62
1605.612	123.83
1608.843	123.78
1612.073	124.19
1615.303	124.24
1618.533	123.62
1621.762	124.13
1624.992	124.43
1628.221	124.34
1631.449	124.96
1634.678	124.88
1637.906	124.25
1641.134	124.75
1644.361	125.02
1647.588	124.64
1650.815	124.71
1654.042	124.89
1657.269	124.68
1660.495	125.42
1663.72	124.92
1666.946	125.27
1670.171	125.97
1673.396	127.15
1676.621	127.19
1679.845	127
1683.069	126.74
1686.293	126.62
1689.517	127.07
1692.74	127.27
1695.963	127.17
1699.185	128.69
1702.408	128.52
1705.63	128.49
1708.852	128.58
1712.073	128.34
1715.294	128.52
1718.515	129.32
1721.736	129.93
1724.956	129.9
1728.176	129.72
1731.396	131.07
1734.616	130.51
1737.835	131.09
1741.054	130.39
1744.272	130.31
1747.491	130.9
1750.709	131.59
1753.927	131.97
1757.144	131.66
1760.361	132.07
1763.578	132.88
1766.795	132.92
1770.011	133.36
1773.227	133.83
1776.443	135.61
1779.658	136.43
1782.874	137.19
1786.089	137.37
1789.303	137.54
1792.518	139.13
1795.732	139.64
1798.945	141.28
1802.159	141.13
1805.372	143.06
1808.585	144.38
1811.797	145.31
1815.01	146.14
1818.222	146.86
1821.434	147.86
1824.645	148.95
1827.856	151.4
1831.067	152.87
1834.278	153.38
1837.488	155.27
1840.698	156.77
1843.908	156.64
1847.117	158.51
1850.326	160.33
1853.535	160.78
1856.744	163.49
1859.952	165.33
1863.16	165.02
1866.368	164.28
1869.575	166.08
1872.782	164.75
1875.989	163.72
1879.196	163.38
1882.402	163.03
1885.608	163.39
1888.814	164.04
1892.019	164.82
1895.224	163.24
1898.429	164.14
1901.634	165.8
1904.838	166.32
1908.042	168.23
1911.246	167.21
1914.449	168.85
1917.652	168.83
1920.855	169.13
1924.058	167.17
1927.26	166.87
1930.462	167.43
1933.664	167.08
1936.865	167.4
1940.066	165.25
1943.267	164.93
1946.467	167.6
1949.668	167.39
1952.868	167.07
1956.067	166.53
1959.267	168.79
1962.466	169.52
1965.665	171.15
1968.863	172.07
1972.061	173.23
1975.259	176.78
1978.457	177.9
1981.654	178.9
1984.852	180.87
1988.048	183.47
1991.245	185.9
1994.441	189.89
1997.637	193.37
2000.833	196.92
2004.028	198.91
2007.223	204.47
2010.418	208.59
2013.613	217.24
2016.807	222.66
2020.001	226.64
2023.194	232.83
2026.388	241.03
2029.581	251.86
2032.774	260
2035.966	266.95
2039.158	275.14
2042.35	280.24
2045.542	285.08
2048.733	298.16
2051.924	300.94
2055.115	304.94
2058.306	307.64
2061.496	314.98
2064.686	316.8
2067.875	311.7
2071.065	315.55
2074.254	315.93
2077.442	324.89
2080.631	327.93
2083.819	326
2087.007	333
2090.195	341.65
2093.382	341.75
2096.569	339.96
2099.756	344.94
2102.942	355.71
2106.128	365.21
2109.314	365.21
2112.5	364.93
2115.685	363.81
2118.87	364.24
2122.055	367.37
2125.239	372.88
2128.424	383.04
2131.608	381.26
2134.791	379.79
2137.974	380.6
2141.157	381.28
2144.34	388.01
2147.523	391.82
2150.705	400.84
2153.887	398.18
2157.068	401.55
2160.25	405.85
2163.431	403.04
2166.611	410.67
2169.792	418.61
2172.972	424.45
2176.152	425.87
2179.331	434.66
2182.511	437.97
2185.69	444.28
2188.868	463.82
2192.047	473.82
2195.225	479.11
2198.403	486.58
2201.58	481.05
2204.758	497.03
2207.935	500.57
2211.111	508.99
2214.288	512.29
2217.464	517.14
2220.64	521.25
2223.815	521.43
2226.991	514.91
2230.166	519.79
2233.34	536.24
2236.515	553.05
2239.689	543.77
2242.863	551.74
2246.036	548.52
2249.209	562.45
2252.382	562.09
2255.555	583.02
2258.727	584.03
2261.9	607.88
2265.071	615.29
2268.243	606.21
2271.414	624.71
2274.585	639
2277.756	641.95
2280.926	670.99
2284.096	668.55
2287.266	672.4
2290.436	655.95
2293.605	672.78
2296.774	691.82
2299.942	691.68
2303.111	719.24
2306.279	731.65
2309.447	731.01
2312.614	737.28
2315.781	752.02
2318.948	757.92
2322.115	774.47
2325.281	820.58
2328.447	811.44
2331.613	812.8
2334.779	828.63
2337.944	834.41
2341.109	850.34
2344.274	868.52
2347.438	885.82
2350.602	897.96
2353.766	964.06
2356.929	965.99
2360.092	977.67
2363.255	985.67
2366.418	997.39
2369.58	1019.22
2372.742	1017.09
2375.904	1010.69
2379.066	1036.35
2382.227	1093.21
2385.388	1092.01
2388.548	1034.96
2391.709	1027.13
2394.869	1058.23
2398.029	1055.94
2401.188	1055.93
2404.347	1083.22
2407.506	1128.1
2410.665	1084.54
2413.823	1087.28
2416.981	1090.73
2420.139	1031.3
2423.296	1111.75
2426.453	1184.89
2429.61	1124.75
2432.767	1208.19
2435.923	1253.66
2439.079	1203.92
2442.235	1225.58
2445.391	1256.53
2448.546	1244.91
2451.701	1320.95
2454.855	1418.13
2458.009	1248.17
2461.163	1265.85
2464.317	1277.43
2467.471	1257.59
2470.624	1298.3
2473.777	1276.63
2476.929	1236.39
2480.082	1320.92
2483.234	1390.2
2486.385	1405.51
2489.537	1436.69
2492.688	1591.75
2495.839	1554
2498.989	1605.64
2502.14	1604.45
2505.29	1526.68
2508.439	1717.86
2511.589	1766.76
2514.738	1709.46
2517.887	1691.56
2521.035	1580.29
2524.183	1558.55
2527.331	1539.94
2530.479	1515.65
2533.627	1547.72
