Data from N_2_dec_oh_4n_045_Splice17_01.txt Node
Date: Sat Feb 29 13:54:28 EST 2020
User: sa697716
Spectrometer: FLMS03696
Trigger mode: 0
Integration Time (sec): 3.180400E-1
Scans to average: 20
Electric dark correction enabled: true
Nonlinearity correction enabled: true
Boxcar width: 5
XAxis mode: Wavelengths
Number of Pixels in Spectrum: 2048
>>>>>Begin Spectral Data<<<<<
187.83	97.51
188.298	90.36
188.766	79.43
189.233	77.34
189.701	89.86
190.169	85.11
190.636	70.58
191.104	26.67
191.571	-161.85
192.039	-64.72
192.506	603.1
192.974	6588.33
193.441	-333.5
193.908	46.47
194.375	60.68
194.842	50.93
195.31	29.87
195.777	24.81
196.244	5.13
196.711	20.29
197.177	21.77
197.644	23.37
198.111	23.63
198.578	23.24
199.045	24.45
199.511	24.7
199.978	26.16
200.445	26.23
200.911	26.45
201.378	27.2
201.844	27.91
202.31	28.23
202.777	28.66
203.243	29.37
203.709	30.14
204.176	29.79
204.642	29.86
205.108	29.66
205.574	30.12
206.04	29.64
206.506	29.2
206.972	28.81
207.438	28.79
207.903	28.96
208.369	28.38
208.835	28.15
209.301	28.21
209.766	27.97
210.232	27.38
210.697	26.91
211.163	26.67
211.628	26.17
212.094	25.89
212.559	25.47
213.024	24.57
213.49	24.32
213.955	24.1
214.42	23.63
214.885	23.26
215.35	22.97
215.815	22.13
216.28	21.29
216.745	20.55
217.21	19.47
217.675	18.44
218.14	17.48
218.604	16.49
219.069	15.66
219.534	15
219.998	14.34
220.463	13.83
220.927	13.47
221.392	13.17
221.856	12.81
222.32	12.53
222.785	12.24
223.249	12.01
223.713	11.85
224.177	11.63
224.642	11.47
225.106	11.32
225.57	11.13
226.034	10.95
226.497	10.75
226.961	10.57
227.425	10.4
227.889	10.29
228.353	10.14
228.816	10.02
229.28	9.87
229.744	9.75
230.207	9.64
230.671	9.53
231.134	9.39
231.597	9.28
232.061	9.19
232.524	9.11
232.987	8.99
233.45	8.9
233.914	8.8
234.377	8.73
234.84	8.63
235.303	8.52
235.766	8.42
236.229	8.35
236.691	8.29
237.154	8.21
237.617	8.1
238.08	8.03
238.542	7.95
239.005	7.88
239.468	7.78
239.93	7.7
240.393	7.63
240.855	7.56
241.317	7.47
241.78	7.41
242.242	7.33
242.704	7.28
243.166	7.23
243.629	7.18
244.091	7.11
244.553	7.06
245.015	6.99
245.477	6.93
245.939	6.88
246.4	6.82
246.862	6.76
247.324	6.73
247.786	6.68
248.247	6.62
248.709	6.56
249.17	6.51
249.632	6.47
250.093	6.41
250.555	6.38
251.016	6.35
251.477	6.32
251.939	6.28
252.4	6.22
252.861	6.18
253.322	6.13
253.783	6.12
254.244	6.08
254.705	6.05
255.166	6.03
255.627	6
256.088	5.96
256.549	5.92
257.009	5.89
257.47	5.86
257.931	5.82
258.391	5.78
258.852	5.74
259.312	5.71
259.773	5.67
260.233	5.63
260.694	5.59
261.154	5.56
261.614	5.53
262.074	5.51
262.534	5.47
262.994	5.45
263.455	5.44
263.915	5.41
264.374	5.38
264.834	5.36
265.294	5.33
265.754	5.3
266.214	5.27
266.673	5.25
267.133	5.22
267.593	5.2
268.052	5.17
268.512	5.14
268.971	5.12
269.431	5.1
269.89	5.08
270.349	5.06
270.809	5.05
271.268	5.05
271.727	5.02
272.186	5.01
272.645	4.99
273.104	4.98
273.563	4.97
274.022	4.96
274.481	4.95
274.94	4.93
275.399	4.92
275.857	4.9
276.316	4.87
276.775	4.85
277.233	4.84
277.692	4.84
278.15	4.81
278.609	4.79
279.067	4.77
279.525	4.74
279.984	4.73
280.442	4.72
280.9	4.7
281.358	4.69
281.816	4.68
282.274	4.67
282.732	4.65
283.19	4.64
283.648	4.64
284.106	4.61
284.564	4.61
285.021	4.6
285.479	4.59
285.937	4.57
286.394	4.56
286.852	4.56
287.309	4.55
287.767	4.54
288.224	4.53
288.682	4.51
289.139	4.51
289.596	4.49
290.053	4.47
290.511	4.44
290.968	4.43
291.425	4.41
291.882	4.39
292.339	4.36
292.796	4.35
293.252	4.33
293.709	4.31
294.166	4.3
294.623	4.28
295.079	4.27
295.536	4.26
295.992	4.25
296.449	4.25
296.905	4.23
297.362	4.22
297.818	4.21
298.274	4.2
298.731	4.2
299.187	4.19
299.643	4.18
300.099	4.18
300.555	4.16
301.011	4.15
301.467	4.14
301.923	4.13
302.379	4.12
302.835	4.12
303.291	4.12
303.746	4.11
304.202	4.1
304.658	4.09
305.113	4.08
305.569	4.08
306.024	4.07
306.479	4.07
306.935	4.07
307.39	4.05
307.845	4.05
308.301	4.05
308.756	4.05
309.211	4.05
309.666	4.05
310.121	4.06
310.576	4.05
311.031	4.04
311.486	4.04
311.94	4.04
312.395	4.05
312.85	4.03
313.305	4.03
313.759	4.02
314.214	4.02
314.668	4.01
315.123	4
315.577	3.99
316.032	3.99
316.486	3.97
316.94	3.97
317.394	3.95
317.849	3.95
318.303	3.94
318.757	3.92
319.211	3.9
319.665	3.89
320.119	3.88
320.572	3.88
321.026	3.87
321.48	3.86
321.934	3.86
322.387	3.85
322.841	3.84
323.295	3.82
323.748	3.83
324.202	3.83
324.655	3.82
325.108	3.81
325.562	3.79
326.015	3.78
326.468	3.77
326.921	3.76
327.374	3.75
327.827	3.74
328.28	3.73
328.733	3.72
329.186	3.71
329.639	3.7
330.092	3.7
330.545	3.71
330.997	3.7
331.45	3.69
331.903	3.68
332.355	3.68
332.808	3.68
333.26	3.68
333.713	3.69
334.165	3.7
334.617	3.7
335.069	3.69
335.522	3.69
335.974	3.7
336.426	3.69
336.878	3.7
337.33	3.69
337.782	3.7
338.234	3.69
338.686	3.69
339.137	3.68
339.589	3.66
340.041	3.66
340.493	3.65
340.944	3.64
341.396	3.64
341.847	3.62
342.299	3.61
342.75	3.59
343.201	3.58
343.653	3.55
344.104	3.55
344.555	3.53
345.006	3.52
345.457	3.51
345.908	3.5
346.359	3.5
346.81	3.5
347.261	3.5
347.712	3.5
348.163	3.49
348.613	3.49
349.064	3.47
349.515	3.48
349.965	3.47
350.416	3.47
350.866	3.47
351.317	3.45
351.767	3.44
352.217	3.43
352.668	3.44
353.118	3.44
353.568	3.44
354.018	3.45
354.468	3.45
354.918	3.46
355.368	3.46
355.818	3.45
356.268	3.47
356.718	3.46
357.168	3.46
357.617	3.45
358.067	3.44
358.517	3.45
358.966	3.45
359.416	3.45
359.865	3.44
360.315	3.44
360.764	3.45
361.213	3.45
361.663	3.45
362.112	3.45
362.561	3.46
363.01	3.47
363.459	3.46
363.908	3.46
364.357	3.45
364.806	3.46
365.255	3.47
365.703	3.47
366.152	3.48
366.601	3.48
367.05	3.49
367.498	3.5
367.947	3.49
368.395	3.49
368.844	3.49
369.292	3.49
369.74	3.49
370.189	3.48
370.637	3.48
371.085	3.48
371.533	3.47
371.981	3.47
372.429	3.47
372.877	3.48
373.325	3.47
373.773	3.47
374.221	3.48
374.669	3.48
375.116	3.48
375.564	3.49
376.012	3.49
376.459	3.52
376.907	3.52
377.354	3.52
377.801	3.52
378.249	3.54
378.696	3.56
379.143	3.58
379.591	3.59
380.038	3.62
380.485	3.63
380.932	3.63
381.379	3.63
381.826	3.65
382.273	3.65
382.72	3.66
383.166	3.67
383.613	3.68
384.06	3.68
384.506	3.68
384.953	3.67
385.4	3.67
385.846	3.68
386.292	3.69
386.739	3.7
387.185	3.72
387.631	3.73
388.078	3.74
388.524	3.74
388.97	3.75
389.416	3.76
389.862	3.77
390.308	3.78
390.754	3.8
391.2	3.82
391.645	3.83
392.091	3.84
392.537	3.85
392.983	3.88
393.428	3.9
393.874	3.92
394.319	3.93
394.765	3.94
395.21	3.94
395.655	3.96
396.101	3.97
396.546	3.98
396.991	3.99
397.436	3.99
397.881	4
398.326	4.02
398.771	4.04
399.216	4.06
399.661	4.08
400.106	4.11
400.551	4.12
400.995	4.11
401.44	4.12
401.885	4.13
402.329	4.14
402.774	4.13
403.218	4.13
403.663	4.12
404.107	4.12
404.551	4.13
404.995	4.13
405.44	4.11
405.884	4.12
406.328	4.12
406.772	4.12
407.216	4.13
407.66	4.15
408.104	4.16
408.547	4.16
408.991	4.16
409.435	4.17
409.879	4.18
410.322	4.21
410.766	4.22
411.209	4.22
411.653	4.22
412.096	4.21
412.54	4.22
412.983	4.22
413.426	4.24
413.869	4.25
414.312	4.26
414.756	4.27
415.199	4.27
415.642	4.3
416.085	4.32
416.527	4.35
416.97	4.37
417.413	4.36
417.856	4.34
418.298	4.32
418.741	4.3
419.184	4.3
419.626	4.29
420.069	4.29
420.511	4.29
420.953	4.28
421.396	4.28
421.838	4.29
422.28	4.31
422.722	4.34
423.164	4.35
423.606	4.37
424.048	4.37
424.49	4.38
424.932	4.37
425.374	4.37
425.816	4.36
426.258	4.35
426.699	4.34
427.141	4.32
427.582	4.33
428.024	4.32
428.465	4.32
428.907	4.32
429.348	4.31
429.789	4.33
430.231	4.34
430.672	4.35
431.113	4.35
431.554	4.37
431.995	4.39
432.436	4.39
432.877	4.4
433.318	4.42
433.759	4.43
434.2	4.44
434.64	4.43
435.081	4.43
435.522	4.44
435.962	4.45
436.403	4.47
436.843	4.47
437.284	4.48
437.724	4.52
438.164	4.52
438.604	4.53
439.045	4.53
439.485	4.55
439.925	4.56
440.365	4.55
440.805	4.55
441.245	4.55
441.685	4.55
442.125	4.54
442.564	4.54
443.004	4.55
443.444	4.57
443.883	4.57
444.323	4.59
444.762	4.59
445.202	4.62
445.641	4.64
446.081	4.65
446.52	4.66
446.959	4.66
447.398	4.68
447.837	4.71
448.276	4.7
448.716	4.71
449.154	4.71
449.593	4.73
450.032	4.71
450.471	4.71
450.91	4.7
451.349	4.72
451.787	4.7
452.226	4.67
452.664	4.63
453.103	4.62
453.541	4.62
453.98	4.62
454.418	4.58
454.856	4.57
455.295	4.55
455.733	4.55
456.171	4.53
456.609	4.53
457.047	4.53
457.485	4.53
457.923	4.54
458.361	4.52
458.798	4.51
459.236	4.53
459.674	4.53
460.111	4.54
460.549	4.54
460.987	4.55
461.424	4.54
461.862	4.55
462.299	4.55
462.736	4.55
463.173	4.57
463.611	4.57
464.048	4.57
464.485	4.58
464.922	4.58
465.359	4.57
465.796	4.56
466.233	4.58
466.67	4.59
467.106	4.58
467.543	4.59
467.98	4.59
468.416	4.6
468.853	4.59
469.29	4.6
469.726	4.6
470.162	4.58
470.599	4.58
471.035	4.59
471.471	4.56
471.907	4.56
472.344	4.56
472.78	4.55
473.216	4.53
473.652	4.52
474.088	4.52
474.523	4.52
474.959	4.53
475.395	4.52
475.831	4.51
476.266	4.51
476.702	4.5
477.138	4.49
477.573	4.47
478.008	4.48
478.444	4.48
478.879	4.46
479.314	4.45
479.75	4.44
480.185	4.43
480.62	4.43
481.055	4.43
481.49	4.41
481.925	4.4
482.36	4.4
482.795	4.39
483.229	4.37
483.664	4.37
484.099	4.36
484.534	4.35
484.968	4.36
485.403	4.35
485.837	4.33
486.271	4.33
486.706	4.32
487.14	4.32
487.574	4.32
488.009	4.33
488.443	4.33
488.877	4.33
489.311	4.33
489.745	4.33
490.179	4.33
490.613	4.35
491.046	4.37
491.48	4.39
491.914	4.4
492.348	4.42
492.781	4.43
493.215	4.44
493.648	4.47
494.082	4.5
494.515	4.52
494.948	4.55
495.382	4.57
495.815	4.6
496.248	4.62
496.681	4.65
497.114	4.68
497.547	4.71
497.98	4.75
498.413	4.79
498.846	4.83
499.279	4.87
499.711	4.91
500.144	4.96
500.577	5
501.009	5.06
501.442	5.12
501.874	5.18
502.306	5.24
502.739	5.32
503.171	5.38
503.603	5.46
504.036	5.55
504.468	5.65
504.9	5.76
505.332	5.86
505.764	5.97
506.196	6.09
506.627	6.21
507.059	6.34
507.491	6.47
507.923	6.61
508.354	6.76
508.786	6.91
509.217	7.07
509.649	7.24
510.08	7.43
510.512	7.59
510.943	7.79
511.374	7.98
511.805	8.18
512.237	8.38
512.668	8.58
513.099	8.8
513.53	9.03
513.961	9.27
514.391	9.51
514.822	9.75
515.253	10.01
515.684	10.27
516.114	10.54
516.545	10.83
516.975	11.11
517.406	11.42
517.836	11.69
518.267	11.97
518.697	12.27
519.127	12.57
519.558	12.86
519.988	13.16
520.418	13.46
520.848	13.75
521.278	14.03
521.708	14.36
522.138	14.65
522.567	14.96
522.997	15.23
523.427	15.53
523.857	15.79
524.286	16.06
524.716	16.32
525.145	16.59
525.575	16.83
526.004	17.08
526.433	17.28
526.863	17.53
527.292	17.75
527.721	17.98
528.15	18.18
528.579	18.4
529.008	18.59
529.437	18.77
529.866	18.94
530.295	19.13
530.724	19.3
531.152	19.47
531.581	19.6
532.01	19.73
532.438	19.87
532.867	19.99
533.295	20.11
533.723	20.24
534.152	20.35
534.58	20.44
535.008	20.51
535.436	20.6
535.865	20.66
536.293	20.76
536.721	20.85
537.149	20.92
537.576	21
538.004	21.05
538.432	21.1
538.86	21.16
539.287	21.22
539.715	21.27
540.143	21.32
540.57	21.36
540.998	21.4
541.425	21.43
541.852	21.46
542.28	21.48
542.707	21.52
543.134	21.55
543.561	21.58
543.988	21.62
544.415	21.66
544.842	21.67
545.269	21.73
545.696	21.76
546.123	21.79
546.549	21.81
546.976	21.85
547.403	21.88
547.829	21.91
548.256	21.94
548.682	21.94
549.108	21.97
549.535	22
549.961	21.99
550.387	21.97
550.813	21.98
551.24	21.98
551.666	21.97
552.092	21.95
552.518	21.93
552.943	21.92
553.369	21.91
553.795	21.87
554.221	21.84
554.646	21.8
555.072	21.74
555.498	21.68
555.923	21.63
556.349	21.53
556.774	21.45
557.199	21.38
557.625	21.27
558.05	21.17
558.475	21.06
558.9	20.93
559.325	20.82
559.75	20.72
560.175	20.6
560.6	20.46
561.025	20.34
561.449	20.21
561.874	20.04
562.299	19.89
562.723	19.74
563.148	19.59
563.572	19.44
563.997	19.27
564.421	19.08
564.846	18.89
565.27	18.7
565.694	18.51
566.118	18.33
566.542	18.15
566.966	17.97
567.39	17.77
567.814	17.58
568.238	17.38
568.662	17.19
569.086	17.01
569.509	16.83
569.933	16.64
570.357	16.44
570.78	16.26
571.204	16.07
571.627	15.89
572.05	15.72
572.474	15.55
572.897	15.38
573.32	15.22
573.743	15.04
574.166	14.89
574.589	14.76
575.012	14.63
575.435	14.48
575.858	14.36
576.281	14.22
576.704	14.1
577.126	13.97
577.549	13.86
577.972	13.74
578.394	13.65
578.817	13.54
579.239	13.42
579.661	13.33
580.084	13.23
580.506	13.14
580.928	13.05
581.35	12.95
581.772	12.89
582.194	12.79
582.616	12.71
583.038	12.64
583.46	12.56
583.882	12.49
584.303	12.4
584.725	12.33
585.147	12.25
585.568	12.18
585.99	12.12
586.411	12.06
586.833	12.01
587.254	11.95
587.675	11.88
588.096	11.83
588.518	11.77
588.939	11.73
589.36	11.68
589.781	11.64
590.202	11.6
590.623	11.53
591.043	11.49
591.464	11.45
591.885	11.41
592.305	11.37
592.726	11.33
593.147	11.3
593.567	11.26
593.987	11.25
594.408	11.22
594.828	11.19
595.248	11.16
595.669	11.13
596.089	11.1
596.509	11.05
596.929	11.02
597.349	10.97
597.769	10.93
598.189	10.91
598.608	10.85
599.028	10.81
599.448	10.77
599.867	10.73
600.287	10.69
600.706	10.64
601.126	10.61
601.545	10.55
601.965	10.5
602.384	10.46
602.803	10.4
603.222	10.35
603.641	10.3
604.061	10.24
604.48	10.19
604.898	10.12
605.317	10.06
605.736	10.01
606.155	9.95
606.574	9.88
606.992	9.8
607.411	9.74
607.829	9.63
608.248	9.57
608.666	9.5
609.085	9.42
609.503	9.34
609.921	9.26
610.339	9.19
610.758	9.12
611.176	9.06
611.594	9
612.012	8.91
612.43	8.89
612.847	8.81
613.265	8.75
613.683	8.67
614.101	8.61
614.518	8.55
614.936	8.49
615.353	8.42
615.771	8.36
616.188	8.31
616.606	8.27
617.023	8.22
617.44	8.18
617.857	8.13
618.274	8.09
618.691	8.05
619.108	8.02
619.525	7.99
619.942	7.96
620.359	7.95
620.776	7.91
621.192	7.88
621.609	7.84
622.026	7.82
622.442	7.81
622.859	7.78
623.275	7.78
623.691	7.76
624.108	7.74
624.524	7.74
624.94	7.72
625.356	7.7
625.772	7.7
626.188	7.71
626.604	7.7
627.02	7.69
627.436	7.69
627.852	7.67
628.268	7.64
628.683	7.62
629.099	7.61
629.514	7.59
629.93	7.57
630.345	7.55
630.761	7.51
631.176	7.49
631.591	7.47
632.007	7.43
632.422	7.41
632.837	7.39
633.252	7.35
633.667	7.29
634.082	7.25
634.497	7.21
634.911	7.16
635.326	7.1
635.741	7.04
636.155	6.97
636.57	6.92
636.984	6.85
637.399	6.77
637.813	6.68
638.228	6.61
638.642	6.53
639.056	6.44
639.47	6.37
639.884	6.29
640.298	6.23
640.712	6.15
641.126	6.07
641.54	5.99
641.954	5.94
642.368	5.88
642.781	5.81
643.195	5.74
643.609	5.67
644.022	5.61
644.436	5.54
644.849	5.47
645.262	5.42
645.676	5.36
646.089	5.29
646.502	5.23
646.915	5.18
647.328	5.16
647.741	5.11
648.154	5.1
648.567	5.06
648.98	5.05
649.393	5.04
649.805	5
650.218	5
650.631	4.98
651.043	4.96
651.456	4.97
651.868	4.94
652.28	4.94
652.693	4.91
653.105	4.89
653.517	4.86
653.929	4.85
654.341	4.83
654.753	4.81
655.165	4.79
655.577	4.76
655.989	4.72
656.401	4.69
656.813	4.64
657.224	4.61
657.636	4.59
658.047	4.56
658.459	4.5
658.87	4.47
659.282	4.45
659.693	4.42
660.104	4.39
660.515	4.37
660.926	4.35
661.338	4.33
661.749	4.31
662.159	4.28
662.57	4.27
662.981	4.27
663.392	4.25
663.803	4.23
664.213	4.21
664.624	4.21
665.035	4.19
665.445	4.18
665.855	4.19
666.266	4.18
666.676	4.18
667.086	4.17
667.497	4.17
667.907	4.17
668.317	4.15
668.727	4.15
669.137	4.16
669.547	4.19
669.956	4.19
670.366	4.21
670.776	4.23
671.186	4.26
671.595	4.28
672.005	4.3
672.414	4.33
672.824	4.37
673.233	4.4
673.642	4.42
674.052	4.43
674.461	4.46
674.87	4.49
675.279	4.51
675.688	4.53
676.097	4.56
676.506	4.59
676.915	4.61
677.323	4.65
677.732	4.67
678.141	4.72
678.549	4.76
678.958	4.8
679.366	4.83
679.775	4.87
680.183	4.92
680.592	4.96
681	5
681.408	5.04
681.816	5.07
682.224	5.13
682.632	5.18
683.04	5.23
683.448	5.28
683.856	5.37
684.264	5.43
684.671	5.5
685.079	5.58
685.487	5.69
685.894	5.81
686.302	5.95
686.709	6.08
687.116	6.25
687.524	6.42
687.931	6.63
688.338	6.86
688.745	7.12
689.152	7.43
689.559	7.75
689.966	8.11
690.373	8.47
690.78	8.86
691.187	9.3
691.593	9.74
692	10.22
692.407	10.74
692.813	11.26
693.22	11.81
693.626	12.37
694.032	12.97
694.439	13.6
694.845	14.22
695.251	14.88
695.657	15.55
696.063	16.23
696.469	16.92
696.875	17.59
697.281	18.31
697.687	19.04
698.093	19.76
698.498	20.49
698.904	21.21
699.31	21.95
699.715	22.69
700.12	23.42
700.526	24.16
700.931	24.89
701.337	25.64
701.742	26.36
702.147	27.06
702.552	27.77
702.957	28.49
703.362	29.2
703.767	29.89
704.172	30.59
704.577	31.27
704.981	31.96
705.386	32.64
705.791	33.31
706.195	33.99
706.6	34.65
707.004	35.32
707.408	35.98
707.813	36.63
708.217	37.26
708.621	37.91
709.025	38.58
709.43	39.21
709.834	39.86
710.237	40.47
710.641	41.1
711.045	41.7
711.449	42.31
711.853	42.91
712.256	43.52
712.66	44.12
713.064	44.68
713.467	45.26
713.87	45.84
714.274	46.41
714.677	46.99
715.08	47.55
715.484	48.15
715.887	48.71
716.29	49.26
716.693	49.79
717.096	50.35
717.499	50.9
717.901	51.38
718.304	51.9
718.707	52.39
719.109	52.88
719.512	53.34
719.915	53.79
720.317	54.23
720.719	54.66
721.122	55.1
721.524	55.51
721.926	55.94
722.328	56.33
722.731	56.73
723.133	57.13
723.535	57.53
723.937	57.93
724.338	58.29
724.74	58.67
725.142	59.03
725.544	59.35
725.945	59.71
726.347	60.05
726.748	60.35
727.15	60.65
727.551	60.96
727.952	61.23
728.354	61.51
728.755	61.8
729.156	62.08
729.557	62.35
729.958	62.63
730.359	62.85
730.76	63.05
731.161	63.29
731.562	63.5
731.962	63.72
732.363	63.9
732.763	64.11
733.164	64.28
733.564	64.44
733.965	64.55
734.365	64.71
734.766	64.83
735.166	64.94
735.566	65.08
735.966	65.21
736.366	65.34
736.766	65.45
737.166	65.56
737.566	65.68
737.966	65.79
738.365	65.93
738.765	66.01
739.165	66.12
739.564	66.26
739.964	66.36
740.363	66.44
740.763	66.51
741.162	66.6
741.561	66.68
741.96	66.79
742.36	66.87
742.759	66.94
743.158	67.01
743.557	67.12
743.955	67.22
744.354	67.3
744.753	67.37
745.152	67.4
745.55	67.47
745.949	67.52
746.348	67.53
746.746	67.53
747.144	67.62
747.543	67.68
747.941	67.75
748.339	67.79
748.737	67.81
749.136	67.86
749.534	67.92
749.932	67.97
750.33	68
750.727	68.07
751.125	68.12
751.523	68.09
751.921	68.13
752.318	68.13
752.716	68.15
753.113	68.19
753.511	68.18
753.908	68.18
754.305	68.16
754.703	68.15
755.1	68.13
755.497	68.15
755.894	68.15
756.291	68.16
756.688	68.19
757.085	68.17
757.482	68.17
757.878	68.24
758.275	68.26
758.672	68.32
759.068	68.35
759.465	68.35
759.861	68.36
760.258	68.37
760.654	68.36
761.05	68.34
761.447	68.32
761.843	68.31
762.239	68.25
762.635	68.24
763.031	68.2
763.427	68.18
763.822	68.14
764.218	68.12
764.614	68.09
765.01	68.07
765.405	68.07
765.801	68.07
766.196	68.07
766.592	68.11
766.987	68.13
767.382	68.12
767.778	68.19
768.173	68.24
768.568	68.22
768.963	68.24
769.358	68.22
769.753	68.22
770.148	68.21
770.542	68.18
770.937	68.14
771.332	68.12
771.726	68.07
772.121	67.99
772.515	67.97
772.91	67.96
773.304	67.97
773.699	68
774.093	67.96
774.487	67.97
774.881	67.97
775.275	67.99
775.669	67.98
776.063	68
776.457	68
776.851	67.96
777.245	67.96
777.638	67.94
778.032	67.91
778.425	67.95
778.819	67.96
779.212	67.95
779.606	67.95
779.999	67.91
780.392	67.95
780.786	67.98
781.179	68
781.572	68
781.965	67.99
782.358	67.97
782.751	67.94
783.143	67.97
783.536	68.02
783.929	68.05
784.322	68.08
784.714	68.05
785.107	68.04
785.499	68.09
785.891	68.11
786.284	68.09
786.676	68.12
787.068	68.14
787.46	68.09
787.852	68.1
788.245	68.08
788.636	68.1
789.028	68.1
789.42	68.1
789.812	68.09
790.204	68.04
790.595	68.06
790.987	68.06
791.378	68.08
791.77	68.14
792.161	68.1
792.553	68.08
792.944	68.08
793.335	68.1
793.726	68.1
794.117	68.07
794.508	68.1
794.899	68.1
795.29	68.09
795.681	68.1
796.072	68.06
796.463	68.1
796.853	68.09
797.244	68.09
797.634	68.07
798.025	68.09
798.415	68.1
798.806	68.11
799.196	68.12
799.586	68.14
799.976	68.11
800.366	68.12
800.756	68.08
801.146	68.08
801.536	68.1
801.926	68.1
802.316	68.1
802.706	68.1
803.095	68.15
803.485	68.15
803.874	68.13
804.264	68.16
804.653	68.14
805.043	68.17
805.432	68.15
805.821	68.09
806.21	68.12
806.599	68.14
806.988	68.15
807.377	68.15
807.766	68.14
808.155	68.19
808.544	68.16
808.933	68.21
809.321	68.24
809.71	68.3
810.098	68.31
810.487	68.31
810.875	68.28
811.264	68.3
811.652	68.3
812.04	68.34
812.428	68.33
812.816	68.36
813.204	68.33
813.592	68.31
813.98	68.3
814.368	68.33
814.756	68.33
815.144	68.39
815.531	68.39
815.919	68.38
816.306	68.38
816.694	68.4
817.081	68.37
817.469	68.43
817.856	68.5
818.243	68.52
818.63	68.56
819.017	68.6
819.404	68.59
819.791	68.61
820.178	68.62
820.565	68.61
820.952	68.62
821.339	68.67
821.725	68.68
822.112	68.65
822.498	68.65
822.885	68.65
823.271	68.67
823.657	68.69
824.044	68.67
824.43	68.71
824.816	68.75
825.202	68.75
825.588	68.76
825.974	68.73
826.36	68.75
826.746	68.8
827.132	68.75
827.517	68.77
827.903	68.76
828.289	68.8
828.674	68.79
829.06	68.79
829.445	68.79
829.83	68.8
830.216	68.82
830.601	68.8
830.986	68.77
831.371	68.84
831.756	68.82
832.141	68.84
832.526	68.8
832.911	68.81
833.295	68.84
833.68	68.86
834.065	68.86
834.449	68.85
834.834	68.82
835.218	68.82
835.603	68.77
835.987	68.75
836.371	68.73
836.755	68.74
837.139	68.74
837.524	68.68
837.908	68.63
838.291	68.6
838.675	68.59
839.059	68.63
839.443	68.62
839.827	68.64
840.21	68.65
840.594	68.64
840.977	68.6
841.361	68.58
841.744	68.6
842.127	68.6
842.511	68.59
842.894	68.59
843.277	68.58
843.66	68.57
844.043	68.58
844.426	68.55
844.809	68.55
845.191	68.57
845.574	68.54
845.957	68.49
846.339	68.48
846.722	68.5
847.104	68.49
847.487	68.48
847.869	68.46
848.252	68.43
848.634	68.49
849.016	68.49
849.398	68.49
849.78	68.5
850.162	68.51
850.544	68.55
850.926	68.53
851.307	68.53
851.689	68.52
852.071	68.51
852.452	68.53
852.834	68.47
853.215	68.48
853.597	68.48
853.978	68.46
854.359	68.43
854.741	68.43
855.122	68.45
855.503	68.45
855.884	68.41
856.265	68.42
856.646	68.41
857.026	68.44
857.407	68.42
857.788	68.43
858.169	68.46
858.549	68.53
858.93	68.52
859.31	68.48
859.69	68.44
860.071	68.47
860.451	68.48
860.831	68.5
861.211	68.48
861.591	68.52
861.971	68.48
862.351	68.48
862.731	68.47
863.111	68.48
863.491	68.54
863.87	68.56
864.25	68.6
864.629	68.58
865.009	68.57
865.388	68.58
865.768	68.53
866.147	68.57
866.526	68.54
866.905	68.54
867.284	68.55
867.663	68.53
868.042	68.51
868.421	68.48
868.8	68.48
869.179	68.48
869.558	68.48
869.936	68.49
870.315	68.44
870.693	68.46
871.072	68.43
871.45	68.37
871.828	68.36
872.207	68.39
872.585	68.37
872.963	68.36
873.341	68.37
873.719	68.34
874.097	68.35
874.475	68.38
874.853	68.38
875.23	68.38
875.608	68.41
875.986	68.39
876.363	68.38
876.741	68.39
877.118	68.39
877.495	68.37
877.873	68.37
878.25	68.34
878.627	68.35
879.004	68.34
879.381	68.35
879.758	68.33
880.135	68.31
880.512	68.3
880.889	68.29
881.265	68.27
881.642	68.25
882.019	68.27
882.395	68.28
882.772	68.25
883.148	68.25
883.524	68.29
883.901	68.29
884.277	68.32
884.653	68.32
885.029	68.33
885.405	68.35
885.781	68.33
886.157	68.33
886.532	68.32
886.908	68.35
887.284	68.38
887.659	68.35
888.035	68.38
888.411	68.35
888.786	68.34
889.161	68.33
889.537	68.34
889.912	68.34
890.287	68.31
890.662	68.27
891.037	68.2
891.412	68.14
891.787	68.12
892.162	68.07
892.536	68.05
892.911	68.04
893.286	68.02
893.66	68
894.035	67.98
894.409	67.98
894.784	68
895.158	68.03
895.532	68.04
895.906	68.02
896.281	68.04
896.655	68.03
897.029	68.01
897.402	68.02
897.776	68.02
898.15	68.07
898.524	68.08
898.898	68.02
899.271	68.03
899.645	68.01
900.018	68.03
900.392	68.03
900.765	68.06
901.138	68.04
901.511	68.02
901.884	68
902.258	67.93
902.631	67.94
903.003	67.99
903.376	67.96
903.749	67.99
904.122	67.98
904.495	67.95
904.867	67.91
905.24	67.9
905.612	67.9
905.985	67.89
906.357	67.87
906.729	67.81
907.102	67.79
907.474	67.78
907.846	67.74
908.218	67.71
908.59	67.69
908.962	67.7
909.334	67.7
909.705	67.68
910.077	67.67
910.449	67.71
910.82	67.7
911.192	67.69
911.563	67.68
911.935	67.64
912.306	67.61
912.677	67.6
913.048	67.56
913.419	67.52
913.79	67.49
914.161	67.44
914.532	67.41
914.903	67.4
915.274	67.37
915.645	67.35
916.015	67.34
916.386	67.31
916.756	67.3
917.127	67.31
917.497	67.32
917.868	67.33
918.238	67.41
918.608	67.37
918.978	67.36
919.348	67.32
919.718	67.33
920.088	67.35
920.458	67.41
920.828	67.41
921.198	67.43
921.567	67.4
921.937	67.37
922.306	67.3
922.676	67.34
923.045	67.34
923.415	67.33
923.784	67.31
924.153	67.33
924.522	67.26
924.891	67.23
925.26	67.18
925.629	67.19
925.998	67.2
926.367	67.17
926.736	67.12
927.104	67.11
927.473	67.12
927.842	67.08
928.21	67.07
928.578	67.07
928.947	67.05
929.315	67.04
929.683	67.06
930.051	67.01
930.42	67.05
930.788	67.12
931.156	67.07
931.523	67.07
931.891	67.06
932.259	66.95
932.627	66.9
932.994	66.86
933.362	66.79
933.729	66.68
934.097	66.71
934.464	66.64
934.831	66.52
935.199	66.46
935.566	66.37
935.933	66.33
936.3	66.26
936.667	66.13
937.034	66.09
937.401	66.03
937.767	65.97
938.134	65.88
938.501	65.79
938.867	65.74
939.234	65.73
939.6	65.68
939.967	65.64
940.333	65.73
940.699	65.89
941.065	65.95
941.431	66.09
941.798	66.19
942.163	66.18
942.529	66.21
942.895	66.28
943.261	66.29
943.627	66.43
943.992	66.46
944.358	66.42
944.723	66.36
945.089	66.33
945.454	66.36
945.82	66.29
946.185	66.35
946.55	66.5
946.915	66.4
947.28	66.37
947.645	66.31
948.01	66.29
948.375	66.41
948.74	66.35
949.104	66.43
949.469	66.33
949.834	66.35
950.198	66.2
950.562	66.07
950.927	66.12
951.291	66.14
951.655	66.07
952.02	66.03
952.384	65.94
952.748	65.99
953.112	65.95
953.476	66.01
953.839	65.98
954.203	65.99
954.567	66.01
954.931	65.95
955.294	65.88
955.658	65.83
956.021	65.84
956.385	65.82
956.748	65.79
957.111	65.76
957.474	65.68
957.837	65.68
958.2	65.66
958.563	65.62
958.926	65.57
959.289	65.59
959.652	65.64
960.015	65.58
960.377	65.52
960.74	65.46
961.102	65.4
961.465	65.43
961.827	65.31
962.189	65.34
962.552	65.27
962.914	65.3
963.276	65.26
963.638	65.2
964	65.17
964.362	65.17
964.724	65.16
965.085	65.14
965.447	64.97
965.809	64.92
966.17	64.87
966.532	64.91
966.893	64.87
967.255	64.87
967.616	64.94
967.977	65
968.338	64.98
968.699	65.02
969.061	64.98
969.421	65.04
969.782	65.05
970.143	65.05
970.504	65
970.865	64.92
971.225	64.89
971.586	64.85
971.946	64.85
972.307	64.81
972.667	64.78
973.027	64.83
973.388	64.76
973.748	64.8
974.108	64.74
974.468	64.75
974.828	64.78
975.188	64.79
975.548	64.77
975.907	64.67
976.267	64.66
976.627	64.63
976.986	64.55
977.346	64.57
977.705	64.58
978.064	64.56
978.424	64.53
978.783	64.53
979.142	64.47
979.501	64.42
979.86	64.43
980.219	64.38
980.578	64.34
980.937	64.33
981.296	64.41
981.654	64.49
982.013	64.55
982.371	64.48
982.73	64.51
983.088	64.43
983.447	64.43
983.805	64.4
984.163	64.47
984.521	64.36
984.879	64.39
985.237	64.39
985.595	64.23
985.953	64.11
986.311	64.34
986.669	64.32
987.026	64.4
987.384	64.38
987.741	64.38
988.099	64.36
988.456	64.47
988.814	64.4
989.171	64.34
989.528	64.28
989.885	64.28
990.242	64.13
990.599	64.1
990.956	64.09
991.313	64.12
991.67	64.21
992.027	64.23
992.383	64.27
992.74	64.25
993.096	64.23
993.453	64.24
993.809	64.32
994.165	64.26
994.522	64.4
994.878	64.29
995.234	64.15
995.59	63.94
995.946	63.95
996.302	63.73
996.658	63.83
997.013	63.81
997.369	63.8
997.725	63.9
998.08	63.87
998.436	63.76
998.791	63.83
999.147	63.97
999.502	63.98
999.857	63.89
1000.212	63.88
1000.567	63.83
1000.922	63.79
1001.277	63.75
1001.632	63.64
1001.987	63.64
1002.342	63.57
1002.696	63.53
1003.051	63.27
1003.406	63.25
1003.76	63.12
1004.114	63.37
1004.469	63.23
1004.823	63.24
1005.177	63.4
1005.531	63.07
1005.885	63.04
1006.239	62.99
1006.593	63.02
1006.947	63.07
1007.301	63.2
1007.655	63.19
1008.008	62.94
1008.362	62.79
1008.715	62.65
1009.069	62.5
1009.422	62.61
1009.776	62.46
1010.129	62.41
1010.482	62.39
1010.835	62.62
1011.188	62.56
1011.541	62.4
1011.894	62.66
1012.247	62.85
1012.6	62.97
1012.952	62.81
1013.305	62.77
1013.657	62.85
1014.01	62.87
1014.362	62.78
1014.715	62.42
1015.067	62.49
1015.419	62.76
1015.771	62.6
1016.123	62.62
1016.475	62.69
1016.827	62.85
1017.179	62.96
1017.531	63.01
1017.883	62.95
1018.234	62.99
1018.586	63.07
1018.938	62.83
1019.289	62.6
1019.64	62.75
1019.992	62.51
1020.343	62.4
1020.694	62.38
1021.045	62.2
1021.396	62.07
1021.747	61.99
1022.098	61.66
1022.449	61.56
1022.8	61.27
1023.151	61.65
1023.501	61.09
1023.852	60.98
1024.202	60.78
1024.553	60.49
1024.903	60.68
1025.253	60.74
1025.604	60.59
1025.954	60.31
1026.304	60.6
1026.654	61.02
1027.004	60.7
1027.354	61.07
1027.703	61.01
1028.053	60.52
1028.403	60.86
1028.753	60.63
1029.102	60.42
1029.452	60.39
1029.801	60.69
1030.15	60.32
1030.499	60.04
897.758	687.3
901.051	690.8
904.343	701.21
907.636	689.3
910.928	677.58
914.22	687.11
917.511	677.62
920.803	646.5
924.094	620.64
927.384	627.96
930.675	605.24
933.965	598.52
937.255	600.32
940.544	572.05
943.834	545.63
947.123	537.96
950.411	510.59
953.7	498.39
956.988	487.88
960.276	464.62
963.563	457.59
966.851	436.2
970.138	426.73
973.424	398.76
976.711	392.5
979.997	382.11
983.283	373.61
986.568	362.49
989.853	352.44
993.138	337.64
996.423	336.3
999.708	325.96
1002.992	326.06
1006.275	315.93
1009.559	313.33
1012.842	305.77
1016.125	295.68
1019.408	290.55
1022.69	288.8
1025.972	286.6
1029.254	279.1
1032.536	272.62
1035.817	264.66
1039.098	261.24
1042.379	256.3
1045.659	253.21
1048.939	250.94
1052.219	246.71
1055.498	241.86
1058.778	237.53
1062.057	232.9
1065.335	232.61
1068.614	229.5
1071.892	225.86
1075.17	221.61
1078.447	220.01
1081.724	217.5
1085.001	213.08
1088.278	213.61
1091.554	212.47
1094.83	211.07
1098.106	208.49
1101.382	206.89
1104.657	205.74
1107.932	205.68
1111.206	204.45
1114.481	201.67
1117.755	200.45
1121.029	200.19
1124.302	196.18
1127.575	193.64
1130.848	192.36
1134.121	190.35
1137.393	190.24
1140.665	188.31
1143.937	186.28
1147.208	184.53
1150.48	183.43
1153.75	182.24
1157.021	179.88
1160.291	179.77
1163.561	179.88
1166.831	178.18
1170.101	178.15
1173.37	176.27
1176.639	174.5
1179.907	175.64
1183.176	175.12
1186.444	175.18
1189.711	173.94
1192.979	176.54
1196.246	176.15
1199.513	173.97
1202.78	175.16
1206.046	175.05
1209.312	175.51
1212.578	176.91
1215.843	178.25
1219.108	179.26
1222.373	181.93
1225.638	185.2
1228.902	188.09
1232.166	193.21
1235.43	197.54
1238.693	202.6
1241.956	206.24
1245.219	212.75
1248.482	213.86
1251.744	212.36
1255.006	212.9
1258.268	208.23
1261.529	206.69
1264.79	200.98
1268.051	197.53
1271.312	196.12
1274.572	190.83
1277.832	186.35
1281.092	183.99
1284.351	180.6
1287.61	180.73
1290.869	179.53
1294.128	178.88
1297.386	177.39
1300.644	177.4
1303.902	176.05
1307.159	175.95
1310.416	177.36
1313.673	180.58
1316.93	180.6
1320.186	183.43
1323.442	185.34
1326.697	189.82
1329.953	190.15
1333.208	197.1
1336.463	203.76
1339.717	208.7
1342.972	215.14
1346.226	221.81
1349.479	223.21
1352.733	233.12
1355.986	236.88
1359.238	242.3
1362.491	243.41
1365.743	253.06
1368.995	253.38
1372.247	251.69
1375.498	250.02
1378.749	259.53
1382	257.64
1385.251	256.14
1388.501	254.73
1391.751	259.02
1395	256.47
1398.25	258.72
1401.499	256.95
1404.748	256.88
1407.996	251.07
1411.244	252.39
1414.492	247.06
1417.74	241
1420.987	235.09
1424.234	232.2
1427.481	222.77
1430.728	217.47
1433.974	209.56
1437.22	204.23
1440.465	195.98
1443.711	191.42
1446.956	185.25
1450.201	178.64
1453.445	170.34
1456.689	165.41
1459.933	159.89
1463.177	153.13
1466.42	149.94
1469.663	145.28
1472.906	140.42
1476.148	137.4
1479.391	134.96
1482.633	132.9
1485.874	129.88
1489.115	128.93
1492.356	126.78
1495.597	125.36
1498.838	124.9
1502.078	123.83
1505.318	123.65
1508.557	122.73
1511.797	121.92
1515.036	121.31
1518.274	121.14
1521.513	119.54
1524.751	119.1
1527.989	120.78
1531.227	119.92
1534.464	120.18
1537.701	119.22
1540.938	118.85
1544.174	119.17
1547.41	118.7
1550.646	118.39
1553.882	117.93
1557.117	118.16
1560.352	118.13
1563.587	116.69
1566.821	116.77
1570.055	115.81
1573.289	115.65
1576.523	116.09
1579.756	115.39
1582.989	116.06
1586.222	115.65
1589.454	115.3
1592.686	115.79
1595.918	115.03
1599.15	115.11
1602.381	115.49
1605.612	115.98
1608.843	115.76
1612.073	115.97
1615.303	116.58
1618.533	116.01
1621.762	116.85
1624.992	116.96
1628.221	116.58
1631.449	117.79
1634.678	117.46
1637.906	117.48
1641.134	117.59
1644.361	118.04
1647.588	117.93
1650.815	117.85
1654.042	118.22
1657.269	117.63
1660.495	118.5
1663.72	118.14
1666.946	117.86
1670.171	118.82
1673.396	119.27
1676.621	119.18
1679.845	119.4
1683.069	119.25
1686.293	119.19
1689.517	119.23
1692.74	119.58
1695.963	119.93
1699.185	121.08
1702.408	121.07
1705.63	121.01
1708.852	121.34
1712.073	121.43
1715.294	121.33
1718.515	121.58
1721.736	121.8
1724.956	121.79
1728.176	121.75
1731.396	121.72
1734.616	121.85
1737.835	122.13
1741.054	121.53
1744.272	121.01
1747.491	121.21
1750.709	121.93
1753.927	122.12
1757.144	122.25
1760.361	122.52
1763.578	123.71
1766.795	124.09
1770.011	123.02
1773.227	123.94
1776.443	125.45
1779.658	125.84
1782.874	127.02
1786.089	127.26
1789.303	127.38
1792.518	128.49
1795.732	129.65
1798.945	130.05
1802.159	130.33
1805.372	132.97
1808.585	133.19
1811.797	133.37
1815.01	135.1
1818.222	135.42
1821.434	136.33
1824.645	137.34
1827.856	139.05
1831.067	138.98
1834.278	140.24
1837.488	140.73
1840.698	142.08
1843.908	142.64
1847.117	144.29
1850.326	144.48
1853.535	143.82
1856.744	144.37
1859.952	146.42
1863.16	146.13
1866.368	146.3
1869.575	146.69
1872.782	146.74
1875.989	145.09
1879.196	143.16
1882.402	141.89
1885.608	142.19
1888.814	142.6
1892.019	144.59
1895.224	141.5
1898.429	141.59
1901.634	142.86
1904.838	142.52
1908.042	142.74
1911.246	142.74
1914.449	145.03
1917.652	144
1920.855	144.27
1924.058	144.13
1927.26	142.39
1930.462	143.9
1933.664	144.43
1936.865	143.3
1940.066	141.69
1943.267	140.8
1946.467	141.81
1949.668	142.12
1952.868	142.68
1956.067	142.37
1959.267	143.3
1962.466	144.24
1965.665	145.65
1968.863	146.08
1972.061	147.63
1975.259	150.06
1978.457	151.88
1981.654	153.02
1984.852	153.84
1988.048	156.38
1991.245	158.65
1994.441	161
1997.637	163.72
2000.833	166.18
2004.028	167.28
2007.223	172.98
2010.418	177.67
2013.613	183.82
2016.807	188.95
2020.001	192.41
2023.194	197.48
2026.388	204
2029.581	214.56
2032.774	221.76
2035.966	228.98
2039.158	237.59
2042.35	240.12
2045.542	243.99
2048.733	254.69
2051.924	254.74
2055.115	260.84
2058.306	263.71
2061.496	270.18
2064.686	270.77
2067.875	268.02
2071.065	269.05
2074.254	270.37
2077.442	278.29
2080.631	280.75
2083.819	281.53
2087.007	288.93
2090.195	290.85
2093.382	292.76
2096.569	291.61
2099.756	296.04
2102.942	303.7
2106.128	311.22
2109.314	311.66
2112.5	311.51
2115.685	311.61
2118.87	311.68
2122.055	315.25
2125.239	324
2128.424	330.22
2131.608	327.66
2134.791	328.26
2137.974	328.04
2141.157	329.61
2144.34	334.3
2147.523	338.04
2150.705	345.61
2153.887	343.84
2157.068	346.88
2160.25	348.97
2163.431	344.96
2166.611	350.91
2169.792	359.17
2172.972	365.79
2176.152	365.94
2179.331	373.6
2182.511	374.56
2185.69	380.36
2188.868	394.85
2192.047	402.76
2195.225	409.52
2198.403	416.98
2201.58	413.72
2204.758	424.17
2207.935	427.81
2211.111	436.46
2214.288	437.44
2217.464	443.57
2220.64	444.26
2223.815	446.86
2226.991	437.3
2230.166	441.51
2233.34	456.84
2236.515	470.41
2239.689	464.22
2242.863	468.53
2246.036	465.04
2249.209	475.79
2252.382	474.4
2255.555	493.47
2258.727	494.38
2261.9	514.64
2265.071	519.24
2268.243	511.29
2271.414	524.91
2274.585	536.8
2277.756	539.58
2280.926	564.19
2284.096	563.52
2287.266	566.96
2290.436	552.71
2293.605	565.29
2296.774	585.58
2299.942	587.37
2303.111	608.23
2306.279	619.6
2309.447	619.65
2312.614	621.65
2315.781	631.94
2318.948	641.78
2322.115	655.67
2325.281	689.5
2328.447	688.18
2331.613	683.61
2334.779	693.52
2337.944	701.9
2341.109	719.09
2344.274	728.52
2347.438	748.6
2350.602	758.17
2353.766	804.63
2356.929	806.75
2360.092	820.16
2363.255	821.21
2366.418	840.15
2369.58	855.57
2372.742	856.44
2375.904	847.97
2379.066	870.63
2382.227	920.23
2385.388	920.54
2388.548	876.99
2391.709	868.11
2394.869	890.49
2398.029	890.83
2401.188	890.73
2404.347	918.47
2407.506	950.8
2410.665	912.87
2413.823	912.94
2416.981	912.69
2420.139	869.13
2423.296	933.08
2426.453	993.79
2429.61	950.87
2432.767	1016.49
2435.923	1052.78
2439.079	1006.32
2442.235	1029.38
2445.391	1055.23
2448.546	1052.33
2451.701	1107.65
2454.855	1183.39
2458.009	1050.18
2461.163	1067.83
2464.317	1078.81
2467.471	1054.69
2470.624	1088.13
2473.777	1076.74
2476.929	1038.52
2480.082	1110.4
2483.234	1161.44
2486.385	1183.56
2489.537	1208.48
2492.688	1326.43
2495.839	1304.42
2498.989	1344.53
2502.14	1350.73
2505.29	1283.25
2508.439	1442.52
2511.589	1487.15
2514.738	1436.89
2517.887	1425
2521.035	1328.32
2524.183	1311.67
2527.331	1307.24
2530.479	1276.54
2533.627	1303.71
