Data from N_2_dec_nc_4n_069_Splice17_07.txt Node
Date: Sat Feb 29 14:05:59 EST 2020
User: sa697716
Spectrometer: FLMS03696
Trigger mode: 0
Integration Time (sec): 3.180400E-1
Scans to average: 20
Electric dark correction enabled: true
Nonlinearity correction enabled: true
Boxcar width: 5
XAxis mode: Wavelengths
Number of Pixels in Spectrum: 2048
>>>>>Begin Spectral Data<<<<<
187.83	66.51
188.298	55.8
188.766	53.63
189.233	42.03
189.701	47.98
190.169	53.38
190.636	42.16
191.104	33.59
191.571	44.57
192.039	32.79
192.506	137.22
192.974	-588.84
193.441	202.84
193.908	19.11
194.375	-76.37
194.842	-79.15
195.31	19.55
195.777	-14.19
196.244	19.69
196.711	28.02
197.177	28.18
197.644	28.79
198.111	28.67
198.578	28.38
199.045	28.86
199.511	29.39
199.978	29.69
200.445	29.56
200.911	29.84
201.378	29.88
201.844	29.93
202.31	30.18
202.777	30.42
203.243	30.57
203.709	31
204.176	30.5
204.642	30.55
205.108	30.69
205.574	30.45
206.04	30.36
206.506	30.39
206.972	30.72
207.438	30.52
207.903	30.68
208.369	30.52
208.835	30.33
209.301	30.76
209.766	30.46
210.232	30.16
210.697	30.22
211.163	29.89
211.628	29.44
212.094	28.69
212.559	28.32
213.024	27.74
213.49	27.45
213.955	27.02
214.42	26.35
214.885	25.54
215.35	25.13
215.815	24.33
216.28	23.75
216.745	23.06
217.21	22.3
217.675	21.39
218.14	20.46
218.604	19.64
219.069	18.97
219.534	18.33
219.998	17.82
220.463	17.34
220.927	16.94
221.392	16.52
221.856	16.19
222.32	15.91
222.785	15.67
223.249	15.47
223.713	15.28
224.177	15.07
224.642	14.89
225.106	14.71
225.57	14.52
226.034	14.36
226.497	14.19
226.961	14
227.425	13.81
227.889	13.65
228.353	13.46
228.816	13.31
229.28	13.12
229.744	12.95
230.207	12.82
230.671	12.65
231.134	12.5
231.597	12.36
232.061	12.23
232.524	12.12
232.987	12
233.45	11.89
233.914	11.76
234.377	11.66
234.84	11.55
235.303	11.44
235.766	11.34
236.229	11.23
236.691	11.14
237.154	11.05
237.617	10.96
238.08	10.86
238.542	10.78
239.005	10.69
239.468	10.58
239.93	10.51
240.393	10.41
240.855	10.32
241.317	10.24
241.78	10.14
242.242	10.05
242.704	9.96
243.166	9.88
243.629	9.79
244.091	9.71
244.553	9.65
245.015	9.59
245.477	9.53
245.939	9.45
246.4	9.37
246.862	9.31
247.324	9.25
247.786	9.19
248.247	9.14
248.709	9.07
249.17	9.02
249.632	8.96
250.093	8.89
250.555	8.85
251.016	8.81
251.477	8.76
251.939	8.73
252.4	8.68
252.861	8.65
253.322	8.61
253.783	8.58
254.244	8.55
254.705	8.53
255.166	8.51
255.627	8.47
256.088	8.44
256.549	8.42
257.009	8.39
257.47	8.36
257.931	8.32
258.391	8.28
258.852	8.24
259.312	8.2
259.773	8.15
260.233	8.1
260.694	8.08
261.154	8.05
261.614	8.01
262.074	7.98
262.534	7.94
262.994	7.91
263.455	7.88
263.915	7.86
264.374	7.82
264.834	7.8
265.294	7.78
265.754	7.73
266.214	7.72
266.673	7.71
267.133	7.69
267.593	7.67
268.052	7.64
268.512	7.62
268.971	7.61
269.431	7.6
269.89	7.58
270.349	7.57
270.809	7.57
271.268	7.56
271.727	7.53
272.186	7.52
272.645	7.51
273.104	7.5
273.563	7.49
274.022	7.48
274.481	7.47
274.94	7.45
275.399	7.44
275.857	7.42
276.316	7.39
276.775	7.37
277.233	7.35
277.692	7.32
278.15	7.3
278.609	7.27
279.067	7.25
279.525	7.22
279.984	7.2
280.442	7.18
280.9	7.18
281.358	7.16
281.816	7.15
282.274	7.14
282.732	7.13
283.19	7.12
283.648	7.12
284.106	7.11
284.564	7.11
285.021	7.09
285.479	7.08
285.937	7.06
286.394	7.05
286.852	7.03
287.309	7.02
287.767	7.01
288.224	7
288.682	6.98
289.139	6.97
289.596	6.94
290.053	6.92
290.511	6.9
290.968	6.88
291.425	6.86
291.882	6.84
292.339	6.82
292.796	6.78
293.252	6.77
293.709	6.74
294.166	6.72
294.623	6.7
295.079	6.69
295.536	6.67
295.992	6.66
296.449	6.65
296.905	6.63
297.362	6.61
297.818	6.61
298.274	6.6
298.731	6.59
299.187	6.57
299.643	6.56
300.099	6.55
300.555	6.53
301.011	6.52
301.467	6.51
301.923	6.5
302.379	6.5
302.835	6.49
303.291	6.48
303.746	6.47
304.202	6.47
304.658	6.46
305.113	6.45
305.569	6.44
306.024	6.42
306.479	6.41
306.935	6.39
307.39	6.38
307.845	6.37
308.301	6.36
308.756	6.36
309.211	6.36
309.666	6.35
310.121	6.34
310.576	6.34
311.031	6.34
311.486	6.33
311.94	6.33
312.395	6.33
312.85	6.33
313.305	6.32
313.759	6.31
314.214	6.3
314.668	6.29
315.123	6.3
315.577	6.3
316.032	6.29
316.486	6.29
316.94	6.29
317.394	6.28
317.849	6.27
318.303	6.26
318.757	6.25
319.211	6.23
319.665	6.23
320.119	6.22
320.572	6.21
321.026	6.19
321.48	6.18
321.934	6.16
322.387	6.15
322.841	6.14
323.295	6.13
323.748	6.12
324.202	6.11
324.655	6.1
325.108	6.08
325.562	6.05
326.015	6.05
326.468	6.03
326.921	6.02
327.374	6.01
327.827	6
328.28	5.99
328.733	5.97
329.186	5.96
329.639	5.95
330.092	5.95
330.545	5.96
330.997	5.95
331.45	5.95
331.903	5.94
332.355	5.93
332.808	5.93
333.26	5.93
333.713	5.94
334.165	5.94
334.617	5.94
335.069	5.94
335.522	5.94
335.974	5.93
336.426	5.94
336.878	5.92
337.33	5.92
337.782	5.91
338.234	5.91
338.686	5.91
339.137	5.9
339.589	5.88
340.041	5.88
340.493	5.87
340.944	5.87
341.396	5.86
341.847	5.85
342.299	5.83
342.75	5.81
343.201	5.79
343.653	5.76
344.104	5.75
344.555	5.74
345.006	5.72
345.457	5.7
345.908	5.69
346.359	5.69
346.81	5.68
347.261	5.68
347.712	5.68
348.163	5.68
348.613	5.67
349.064	5.66
349.515	5.66
349.965	5.65
350.416	5.66
350.866	5.65
351.317	5.64
351.767	5.64
352.217	5.63
352.668	5.63
353.118	5.63
353.568	5.64
354.018	5.66
354.468	5.66
354.918	5.67
355.368	5.67
355.818	5.67
356.268	5.68
356.718	5.69
357.168	5.69
357.617	5.68
358.067	5.68
358.517	5.68
358.966	5.69
359.416	5.7
359.865	5.71
360.315	5.71
360.764	5.72
361.213	5.73
361.663	5.73
362.112	5.75
362.561	5.78
363.01	5.8
363.459	5.81
363.908	5.82
364.357	5.83
364.806	5.85
365.255	5.87
365.703	5.89
366.152	5.91
366.601	5.94
367.05	5.97
367.498	5.99
367.947	6.03
368.395	6.06
368.844	6.09
369.292	6.12
369.74	6.16
370.189	6.21
370.637	6.24
371.085	6.28
371.533	6.32
371.981	6.36
372.429	6.4
372.877	6.44
373.325	6.48
373.773	6.53
374.221	6.58
374.669	6.62
375.116	6.64
375.564	6.69
376.012	6.73
376.459	6.77
376.907	6.81
377.354	6.86
377.801	6.9
378.249	6.96
378.696	7.01
379.143	7.05
379.591	7.08
380.038	7.15
380.485	7.2
380.932	7.24
381.379	7.27
381.826	7.31
382.273	7.34
382.72	7.37
383.166	7.41
383.613	7.45
384.06	7.49
384.506	7.54
384.953	7.55
385.4	7.58
385.846	7.6
386.292	7.64
386.739	7.66
387.185	7.7
387.631	7.73
388.078	7.76
388.524	7.76
388.97	7.77
389.416	7.78
389.862	7.81
390.308	7.84
390.754	7.85
391.2	7.88
391.645	7.9
392.091	7.91
392.537	7.92
392.983	7.93
393.428	7.96
393.874	7.97
394.319	7.98
394.765	7.98
395.21	7.97
395.655	7.97
396.101	7.96
396.546	7.94
396.991	7.94
397.436	7.92
397.881	7.92
398.326	7.92
398.771	7.93
399.216	7.93
399.661	7.93
400.106	7.94
400.551	7.92
400.995	7.9
401.44	7.88
401.885	7.87
402.329	7.85
402.774	7.84
403.218	7.81
403.663	7.77
404.107	7.75
404.551	7.73
404.995	7.71
405.44	7.69
405.884	7.69
406.328	7.67
406.772	7.66
407.216	7.65
407.66	7.65
408.104	7.62
408.547	7.62
408.991	7.59
409.435	7.56
409.879	7.54
410.322	7.53
410.766	7.52
411.209	7.5
411.653	7.49
412.096	7.48
412.54	7.46
412.983	7.47
413.426	7.48
413.869	7.48
414.312	7.49
414.756	7.49
415.199	7.49
415.642	7.51
416.085	7.51
416.527	7.52
416.97	7.51
417.413	7.49
417.856	7.47
418.298	7.44
418.741	7.43
419.184	7.42
419.626	7.39
420.069	7.38
420.511	7.36
420.953	7.34
421.396	7.33
421.838	7.32
422.28	7.34
422.722	7.32
423.164	7.33
423.606	7.34
424.048	7.31
424.49	7.33
424.932	7.31
425.374	7.3
425.816	7.28
426.258	7.27
426.699	7.22
427.141	7.2
427.582	7.18
428.024	7.18
428.465	7.18
428.907	7.2
429.348	7.18
429.789	7.18
430.231	7.16
430.672	7.18
431.113	7.18
431.554	7.21
431.995	7.22
432.436	7.23
432.877	7.2
433.318	7.18
433.759	7.16
434.2	7.16
434.64	7.18
435.081	7.18
435.522	7.19
435.962	7.2
436.403	7.21
436.843	7.21
437.284	7.23
437.724	7.26
438.164	7.26
438.604	7.28
439.045	7.29
439.485	7.27
439.925	7.28
440.365	7.27
440.805	7.28
441.245	7.26
441.685	7.28
442.125	7.3
442.564	7.32
443.004	7.35
443.444	7.35
443.883	7.37
444.323	7.39
444.762	7.43
445.202	7.48
445.641	7.51
446.081	7.55
446.52	7.55
446.959	7.58
447.398	7.62
447.837	7.66
448.276	7.68
448.716	7.71
449.154	7.76
449.593	7.78
450.032	7.79
450.471	7.82
450.91	7.85
451.349	7.88
451.787	7.87
452.226	7.85
452.664	7.85
453.103	7.86
453.541	7.86
453.98	7.85
454.418	7.82
454.856	7.8
455.295	7.8
455.733	7.76
456.171	7.77
456.609	7.78
457.047	7.77
457.485	7.75
457.923	7.75
458.361	7.74
458.798	7.74
459.236	7.75
459.674	7.77
460.111	7.78
460.549	7.78
460.987	7.78
461.424	7.77
461.862	7.79
462.299	7.79
462.736	7.78
463.173	7.78
463.611	7.79
464.048	7.8
464.485	7.8
464.922	7.78
465.359	7.79
465.796	7.78
466.233	7.79
466.67	7.78
467.106	7.79
467.543	7.8
467.98	7.8
468.416	7.79
468.853	7.78
469.29	7.77
469.726	7.77
470.162	7.77
470.599	7.77
471.035	7.78
471.471	7.79
471.907	7.79
472.344	7.78
472.78	7.79
473.216	7.79
473.652	7.8
474.088	7.8
474.523	7.81
474.959	7.8
475.395	7.81
475.831	7.81
476.266	7.82
476.702	7.81
477.138	7.81
477.573	7.8
478.008	7.8
478.444	7.78
478.879	7.79
479.314	7.79
479.75	7.8
480.185	7.79
480.62	7.79
481.055	7.78
481.49	7.77
481.925	7.77
482.36	7.78
482.795	7.78
483.229	7.78
483.664	7.77
484.099	7.77
484.534	7.77
484.968	7.78
485.403	7.77
485.837	7.78
486.271	7.8
486.706	7.81
487.14	7.83
487.574	7.86
488.009	7.88
488.443	7.91
488.877	7.94
489.311	7.97
489.745	8.01
490.179	8.04
490.613	8.08
491.046	8.13
491.48	8.17
491.914	8.22
492.348	8.27
492.781	8.31
493.215	8.37
493.648	8.43
494.082	8.5
494.515	8.56
494.948	8.64
495.382	8.71
495.815	8.8
496.248	8.88
496.681	8.95
497.114	9.04
497.547	9.14
497.98	9.24
498.413	9.34
498.846	9.45
499.279	9.57
499.711	9.68
500.144	9.81
500.577	9.93
501.009	10.07
501.442	10.23
501.874	10.37
502.306	10.51
502.739	10.66
503.171	10.83
503.603	10.99
504.036	11.16
504.468	11.35
504.9	11.55
505.332	11.74
505.764	11.95
506.196	12.16
506.627	12.37
507.059	12.61
507.491	12.85
507.923	13.09
508.354	13.34
508.786	13.59
509.217	13.86
509.649	14.13
510.08	14.43
510.512	14.69
510.943	14.98
511.374	15.28
511.805	15.59
512.237	15.9
512.668	16.22
513.099	16.55
513.53	16.88
513.961	17.2
514.391	17.51
514.822	17.83
515.253	18.18
515.684	18.5
516.114	18.85
516.545	19.18
516.975	19.52
517.406	19.86
517.836	20.2
518.267	20.54
518.697	20.89
519.127	21.25
519.558	21.59
519.988	21.92
520.418	22.25
520.848	22.57
521.278	22.89
521.708	23.11
522.138	23.41
522.567	23.72
522.997	24.01
523.427	24.3
523.857	24.57
524.286	24.85
524.716	25.11
525.145	25.38
525.575	25.65
526.004	25.89
526.433	26.24
526.863	26.48
527.292	26.71
527.721	26.94
528.15	27.13
528.579	27.36
529.008	27.54
529.437	27.72
529.866	27.89
530.295	28.05
530.724	28.23
531.152	28.36
531.581	28.51
532.01	28.64
532.438	28.77
532.867	28.9
533.295	28.99
533.723	29.13
534.152	29.25
534.58	29.33
535.008	29.4
535.436	29.46
535.865	29.56
536.293	29.63
536.721	29.71
537.149	29.78
537.576	29.83
538.004	29.89
538.432	29.94
538.86	29.98
539.287	30.05
539.715	30.13
540.143	30.18
540.57	30.22
540.998	30.27
541.425	30.31
541.852	30.33
542.28	30.35
542.707	30.38
543.134	30.42
543.561	30.45
543.988	30.47
544.415	30.5
544.842	30.54
545.269	30.57
545.696	30.59
546.123	30.61
546.549	30.65
546.976	30.7
547.403	30.73
547.829	30.74
548.256	30.76
548.682	30.79
549.108	30.81
549.535	30.83
549.961	30.84
550.387	30.86
550.813	30.86
551.24	30.88
551.666	30.89
552.092	30.88
552.518	30.88
552.943	30.88
553.369	30.86
553.795	30.83
554.221	30.8
554.646	30.77
555.072	30.74
555.498	30.72
555.923	30.65
556.349	30.57
556.774	30.51
557.199	30.45
557.625	30.36
558.05	30.28
558.475	30.2
558.9	30.1
559.325	30.01
559.75	29.89
560.175	29.77
560.6	29.67
561.025	29.56
561.449	29.45
561.874	29.33
562.299	29.22
562.723	29.09
563.148	28.95
563.572	28.83
563.997	28.69
564.421	28.53
564.846	28.37
565.27	28.21
565.694	28.06
566.118	27.88
566.542	27.7
566.966	27.54
567.39	27.36
567.814	27.19
568.238	27
568.662	26.82
569.086	26.65
569.509	26.48
569.933	26.29
570.357	26.09
570.78	25.92
571.204	25.75
571.627	25.56
572.05	25.39
572.474	25.22
572.897	25.04
573.32	24.86
573.743	24.71
574.166	24.55
574.589	24.41
575.012	24.27
575.435	24.11
575.858	23.97
576.281	23.85
576.704	23.72
577.126	23.6
577.549	23.49
577.972	23.38
578.394	23.24
578.817	23.14
579.239	23.03
579.661	22.93
580.084	22.83
580.506	22.74
580.928	22.62
581.35	22.53
581.772	22.43
582.194	22.33
582.616	22.24
583.038	22.16
583.46	22.07
583.882	21.99
584.303	21.89
584.725	21.81
585.147	21.72
585.568	21.64
585.99	21.56
586.411	21.49
586.833	21.41
587.254	21.34
587.675	21.28
588.096	21.19
588.518	21.12
588.939	21.07
589.36	21.03
589.781	20.98
590.202	20.92
590.623	20.87
591.043	20.8
591.464	20.76
591.885	20.71
592.305	20.67
592.726	20.64
593.147	20.61
593.567	20.55
593.987	20.52
594.408	20.46
594.828	20.42
595.248	20.38
595.669	20.36
596.089	20.32
596.509	20.27
596.929	20.21
597.349	20.17
597.769	20.12
598.189	20.1
598.608	20.03
599.028	20
599.448	19.96
599.867	19.9
600.287	19.85
600.706	19.79
601.126	19.73
601.545	19.68
601.965	19.62
602.384	19.58
602.803	19.51
603.222	19.45
603.641	19.37
604.061	19.3
604.48	19.22
604.898	19.15
605.317	19.08
605.736	19
606.155	18.91
606.574	18.82
606.992	18.72
607.411	18.64
607.829	18.53
608.248	18.44
608.666	18.34
609.085	18.27
609.503	18.16
609.921	18.08
610.339	17.99
610.758	17.9
611.176	17.82
611.594	17.72
612.012	17.62
612.43	17.56
612.847	17.48
613.265	17.4
613.683	17.31
614.101	17.22
614.518	17.13
614.936	17.04
615.353	16.97
615.771	16.88
616.188	16.81
616.606	16.73
617.023	16.65
617.44	16.57
617.857	16.49
618.274	16.43
618.691	16.37
619.108	16.3
619.525	16.25
619.942	16.2
620.359	16.16
620.776	16.1
621.192	16.08
621.609	16.05
622.026	16.01
622.442	15.98
622.859	15.95
623.275	15.94
623.691	15.92
624.108	15.9
624.524	15.88
624.94	15.86
625.356	15.84
625.772	15.82
626.188	15.81
626.604	15.78
627.02	15.78
627.436	15.78
627.852	15.75
628.268	15.72
628.683	15.7
629.099	15.68
629.514	15.65
629.93	15.62
630.345	15.58
630.761	15.53
631.176	15.51
631.591	15.45
632.007	15.37
632.422	15.31
632.837	15.24
633.252	15.18
633.667	15.09
634.082	15.01
634.497	14.91
634.911	14.8
635.326	14.68
635.741	14.57
636.155	14.45
636.57	14.33
636.984	14.2
637.399	14.05
637.813	13.9
638.228	13.75
638.642	13.62
639.056	13.47
639.47	13.32
639.884	13.17
640.298	13.02
640.712	12.87
641.126	12.71
641.54	12.56
641.954	12.44
642.368	12.3
642.781	12.16
643.195	11.99
643.609	11.87
644.022	11.75
644.436	11.62
644.849	11.5
645.262	11.39
645.676	11.28
646.089	11.18
646.502	11.08
646.915	10.97
647.328	10.9
647.741	10.82
648.154	10.73
648.567	10.67
648.98	10.61
649.393	10.55
649.805	10.47
650.218	10.42
650.631	10.37
651.043	10.32
651.456	10.29
651.868	10.24
652.28	10.21
652.693	10.15
653.105	10.1
653.517	10.04
653.929	10
654.341	9.97
654.753	9.91
655.165	9.84
655.577	9.76
655.989	9.67
656.401	9.57
656.813	9.49
657.224	9.42
657.636	9.32
658.047	9.24
658.459	9.14
658.87	9.04
659.282	8.94
659.693	8.85
660.104	8.76
660.515	8.67
660.926	8.59
661.338	8.49
661.749	8.39
662.159	8.3
662.57	8.21
662.981	8.12
663.392	8.03
663.803	7.95
664.213	7.87
664.624	7.81
665.035	7.74
665.445	7.68
665.855	7.61
666.266	7.57
666.676	7.53
667.086	7.48
667.497	7.43
667.907	7.39
668.317	7.36
668.727	7.34
669.137	7.31
669.547	7.3
669.956	7.28
670.366	7.27
670.776	7.26
671.186	7.26
671.595	7.26
672.005	7.29
672.414	7.3
672.824	7.31
673.233	7.32
673.642	7.32
674.052	7.34
674.461	7.36
674.87	7.39
675.279	7.41
675.688	7.42
676.097	7.47
676.506	7.5
676.915	7.55
677.323	7.59
677.732	7.65
678.141	7.71
678.549	7.77
678.958	7.83
679.366	7.89
679.775	7.97
680.183	8.06
680.592	8.16
681	8.25
681.408	8.35
681.816	8.47
682.224	8.6
682.632	8.75
683.04	8.91
683.448	9.08
683.856	9.31
684.264	9.54
684.671	9.78
685.079	10.04
685.487	10.36
685.894	10.68
686.302	11.02
686.709	11.4
687.116	11.79
687.524	12.21
687.931	12.66
688.338	13.14
688.745	13.63
689.152	14.15
689.559	14.7
689.966	15.26
690.373	15.87
690.78	16.49
691.187	17.12
691.593	17.78
692	18.47
692.407	19.17
692.813	19.87
693.22	20.54
693.626	21.26
694.032	21.96
694.439	22.69
694.845	23.39
695.251	24.1
695.657	24.82
696.063	25.54
696.469	26.23
696.875	26.87
697.281	27.52
697.687	28.25
698.093	28.9
698.498	29.58
698.904	30.23
699.31	30.87
699.715	31.5
700.12	32.09
700.526	32.7
700.931	33.28
701.337	33.91
701.742	34.51
702.147	35.07
702.552	35.66
702.957	36.18
703.362	36.73
703.767	37.27
704.172	37.79
704.577	38.33
704.981	38.82
705.386	39.34
705.791	39.84
706.195	40.3
706.6	40.75
707.004	41.17
707.408	41.64
707.813	42.05
708.217	42.48
708.621	42.91
709.025	43.32
709.43	43.73
709.834	44.14
710.237	44.51
710.641	44.92
711.045	45.29
711.449	45.67
711.853	46.04
712.256	46.41
712.66	46.75
713.064	47.08
713.467	47.43
713.87	47.75
714.274	48.08
714.677	48.43
715.08	48.76
715.484	49.12
715.887	49.47
716.29	49.78
716.693	50.08
717.096	50.38
717.499	50.68
717.901	50.94
718.304	51.23
718.707	51.48
719.109	51.73
719.512	51.99
719.915	52.21
720.317	52.44
720.719	52.69
721.122	52.91
721.524	53.18
721.926	53.44
722.328	53.68
722.731	53.91
723.133	54.11
723.535	54.34
723.937	54.52
724.338	54.7
724.74	54.91
725.142	55.06
725.544	55.23
725.945	55.37
726.347	55.49
726.748	55.62
727.15	55.73
727.551	55.91
727.952	56.02
728.354	56.17
728.755	56.31
729.156	56.42
729.557	56.6
729.958	56.73
730.359	56.86
730.76	56.96
731.161	57.11
731.562	57.24
731.962	57.33
732.363	57.4
732.763	57.51
733.164	57.59
733.564	57.66
733.965	57.72
734.365	57.75
734.766	57.82
735.166	57.9
735.566	57.92
735.966	57.96
736.366	58
736.766	58.08
737.166	58.11
737.566	58.16
737.966	58.22
738.365	58.26
738.765	58.36
739.165	58.36
739.564	58.42
739.964	58.48
740.363	58.52
740.763	58.55
741.162	58.55
741.561	58.62
741.96	58.68
742.36	58.68
742.759	58.69
743.158	58.66
743.557	58.68
743.955	58.72
744.354	58.75
744.753	58.8
745.152	58.81
745.55	58.84
745.949	58.8
746.348	58.82
746.746	58.86
747.144	58.91
747.543	58.99
747.941	59.06
748.339	59.08
748.737	59.1
749.136	59.1
749.534	59.13
749.932	59.16
750.33	59.18
750.727	59.2
751.125	59.21
751.523	59.19
751.921	59.21
752.318	59.19
752.716	59.17
753.113	59.19
753.511	59.15
753.908	59.17
754.305	59.17
754.703	59.17
755.1	59.16
755.497	59.15
755.894	59.15
756.291	59.12
756.688	59.15
757.085	59.17
757.482	59.16
757.878	59.22
758.275	59.24
758.672	59.28
759.068	59.29
759.465	59.28
759.861	59.3
760.258	59.3
760.654	59.33
761.05	59.31
761.447	59.29
761.843	59.25
762.239	59.21
762.635	59.18
763.031	59.14
763.427	59.13
763.822	59.12
764.218	59.09
764.614	59.04
765.01	59
765.405	58.94
765.801	58.93
766.196	58.91
766.592	58.91
766.987	58.9
767.382	58.88
767.778	58.88
768.173	58.86
768.568	58.83
768.963	58.81
769.358	58.79
769.753	58.83
770.148	58.83
770.542	58.81
770.937	58.8
771.332	58.8
771.726	58.77
772.121	58.75
772.515	58.76
772.91	58.78
773.304	58.77
773.699	58.75
774.093	58.71
774.487	58.71
774.881	58.73
775.275	58.73
775.669	58.7
776.063	58.7
776.457	58.66
776.851	58.61
777.245	58.61
777.638	58.62
778.032	58.64
778.425	58.71
778.819	58.73
779.212	58.7
779.606	58.72
779.999	58.73
780.392	58.73
780.786	58.74
781.179	58.76
781.572	58.78
781.965	58.79
782.358	58.78
782.751	58.74
783.143	58.7
783.536	58.74
783.929	58.75
784.322	58.76
784.714	58.75
785.107	58.79
785.499	58.85
785.891	58.87
786.284	58.86
786.676	58.89
787.068	58.88
787.46	58.89
787.852	58.91
788.245	58.92
788.636	58.91
789.028	58.93
789.42	58.9
789.812	58.89
790.204	58.84
790.595	58.86
790.987	58.87
791.378	58.9
791.77	58.91
792.161	58.88
792.553	58.87
792.944	58.93
793.335	58.94
793.726	58.91
794.117	58.88
794.508	58.92
794.899	58.92
795.29	58.88
795.681	58.87
796.072	58.85
796.463	58.85
796.853	58.82
797.244	58.76
797.634	58.74
798.025	58.77
798.415	58.81
798.806	58.83
799.196	58.82
799.586	58.87
799.976	58.9
800.366	58.91
800.756	58.92
801.146	58.91
801.536	58.95
801.926	58.97
802.316	58.98
802.706	59.01
803.095	59.02
803.485	59.04
803.874	59.03
804.264	59.02
804.653	59.01
805.043	58.99
805.432	58.99
805.821	59
806.21	59
806.599	59.03
806.988	58.97
807.377	58.93
807.766	58.92
808.155	58.93
808.544	58.9
808.933	58.94
809.321	59.01
809.71	59.08
810.098	59.04
810.487	59.05
810.875	59.03
811.264	59.07
811.652	59.12
812.04	59.13
812.428	59.14
812.816	59.19
813.204	59.18
813.592	59.18
813.98	59.13
814.368	59.16
814.756	59.18
815.144	59.2
815.531	59.23
815.919	59.19
816.306	59.2
816.694	59.21
817.081	59.21
817.469	59.26
817.856	59.3
818.243	59.34
818.63	59.41
819.017	59.46
819.404	59.49
819.791	59.48
820.178	59.53
820.565	59.57
820.952	59.59
821.339	59.64
821.725	59.64
822.112	59.63
822.498	59.65
822.885	59.64
823.271	59.62
823.657	59.63
824.044	59.64
824.43	59.66
824.816	59.64
825.202	59.63
825.588	59.64
825.974	59.64
826.36	59.66
826.746	59.69
827.132	59.66
827.517	59.68
827.903	59.69
828.289	59.68
828.674	59.67
829.06	59.7
829.445	59.73
829.83	59.69
830.216	59.69
830.601	59.69
830.986	59.68
831.371	59.73
831.756	59.7
832.141	59.71
832.526	59.72
832.911	59.74
833.295	59.75
833.68	59.73
834.065	59.77
834.449	59.77
834.834	59.73
835.218	59.71
835.603	59.68
835.987	59.68
836.371	59.69
836.755	59.67
837.139	59.62
837.524	59.57
837.908	59.55
838.291	59.49
838.675	59.5
839.059	59.49
839.443	59.48
839.827	59.48
840.21	59.51
840.594	59.49
840.977	59.47
841.361	59.5
841.744	59.52
842.127	59.49
842.511	59.5
842.894	59.45
843.277	59.44
843.66	59.44
844.043	59.45
844.426	59.44
844.809	59.42
845.191	59.43
845.574	59.41
845.957	59.39
846.339	59.41
846.722	59.43
847.104	59.44
847.487	59.44
847.869	59.44
848.252	59.39
848.634	59.37
849.016	59.38
849.398	59.37
849.78	59.37
850.162	59.4
850.544	59.42
850.926	59.39
851.307	59.41
851.689	59.38
852.071	59.37
852.452	59.38
852.834	59.4
853.215	59.4
853.597	59.38
853.978	59.37
854.359	59.38
854.741	59.38
855.122	59.4
855.503	59.4
855.884	59.44
856.265	59.45
856.646	59.47
857.026	59.48
857.407	59.43
857.788	59.48
858.169	59.47
858.549	59.48
858.93	59.49
859.31	59.49
859.69	59.47
860.071	59.47
860.451	59.47
860.831	59.46
861.211	59.42
861.591	59.46
861.971	59.42
862.351	59.45
862.731	59.41
863.111	59.41
863.491	59.42
863.87	59.43
864.25	59.47
864.629	59.47
865.009	59.48
865.388	59.51
865.768	59.52
866.147	59.55
866.526	59.54
866.905	59.56
867.284	59.57
867.663	59.57
868.042	59.53
868.421	59.52
868.8	59.52
869.179	59.52
869.558	59.5
869.936	59.49
870.315	59.5
870.693	59.54
871.072	59.52
871.45	59.47
871.828	59.48
872.207	59.54
872.585	59.54
872.963	59.52
873.341	59.53
873.719	59.54
874.097	59.54
874.475	59.5
874.853	59.48
875.23	59.46
875.608	59.5
875.986	59.48
876.363	59.44
876.741	59.43
877.118	59.42
877.495	59.4
877.873	59.4
878.25	59.4
878.627	59.44
879.004	59.46
879.381	59.47
879.758	59.46
880.135	59.45
880.512	59.45
880.889	59.46
881.265	59.49
881.642	59.49
882.019	59.48
882.395	59.46
882.772	59.42
883.148	59.38
883.524	59.41
883.901	59.39
884.277	59.38
884.653	59.38
885.029	59.33
885.405	59.29
885.781	59.27
886.157	59.24
886.532	59.22
886.908	59.24
887.284	59.26
887.659	59.26
888.035	59.27
888.411	59.26
888.786	59.24
889.161	59.24
889.537	59.26
889.912	59.26
890.287	59.26
890.662	59.27
891.037	59.21
891.412	59.19
891.787	59.14
892.162	59.1
892.536	59.08
892.911	59.08
893.286	59.06
893.66	59.02
894.035	59
894.409	59
894.784	58.99
895.158	58.99
895.532	58.96
895.906	58.93
896.281	58.92
896.655	58.92
897.029	58.9
897.402	58.9
897.776	58.9
898.15	58.91
898.524	58.9
898.898	58.85
899.271	58.86
899.645	58.86
900.018	58.86
900.392	58.89
900.765	58.9
901.138	58.91
901.511	58.9
901.884	58.91
902.258	58.89
902.631	58.91
903.003	58.95
903.376	58.95
903.749	58.98
904.122	59.03
904.495	59.03
904.867	59.02
905.24	58.98
905.612	58.96
905.985	58.91
906.357	58.86
906.729	58.79
907.102	58.77
907.474	58.77
907.846	58.68
908.218	58.61
908.59	58.57
908.962	58.58
909.334	58.58
909.705	58.61
910.077	58.61
910.449	58.67
910.82	58.71
911.192	58.71
911.563	58.68
911.935	58.72
912.306	58.73
912.677	58.74
913.048	58.7
913.419	58.67
913.79	58.64
914.161	58.63
914.532	58.59
914.903	58.55
915.274	58.52
915.645	58.5
916.015	58.49
916.386	58.47
916.756	58.45
917.127	58.45
917.497	58.49
917.868	58.47
918.238	58.48
918.608	58.49
918.978	58.49
919.348	58.46
919.718	58.45
920.088	58.44
920.458	58.49
920.828	58.48
921.198	58.47
921.567	58.41
921.937	58.41
922.306	58.43
922.676	58.4
923.045	58.37
923.415	58.37
923.784	58.4
924.153	58.4
924.522	58.36
924.891	58.33
925.26	58.33
925.629	58.34
925.998	58.35
926.367	58.3
926.736	58.31
927.104	58.34
927.473	58.37
927.842	58.31
928.21	58.33
928.578	58.24
928.947	58.23
929.315	58.21
929.683	58.21
930.051	58.17
930.42	58.15
930.788	58.14
931.156	58.1
931.523	58.08
931.891	58.04
932.259	57.95
932.627	57.98
932.994	57.97
933.362	57.93
933.729	57.84
934.097	57.77
934.464	57.75
934.831	57.64
935.199	57.58
935.566	57.5
935.933	57.58
936.3	57.51
936.667	57.46
937.034	57.41
937.401	57.33
937.767	57.28
938.134	57.23
938.501	57.13
938.867	57.19
939.234	57.21
939.6	57.21
939.967	57.02
940.333	57.1
940.699	57.17
941.065	57.27
941.431	57.35
941.798	57.51
942.163	57.64
942.529	57.7
942.895	57.69
943.261	57.73
943.627	57.82
943.992	57.91
944.358	57.89
944.723	57.9
945.089	57.91
945.454	58.05
945.82	57.97
946.185	58.02
946.55	58.12
946.915	58.09
947.28	58.05
947.645	58.04
948.01	58.01
948.375	58.07
948.74	57.99
949.104	58
949.469	57.87
949.834	57.87
950.198	57.73
950.562	57.63
950.927	57.61
951.291	57.57
951.655	57.48
952.02	57.41
952.384	57.37
952.748	57.37
953.112	57.35
953.476	57.31
953.839	57.33
954.203	57.27
954.567	57.21
954.931	57.18
955.294	57.16
955.658	57.11
956.021	57.08
956.385	57.09
956.748	57.09
957.111	57.05
957.474	57.03
957.837	56.97
958.2	56.91
958.563	56.92
958.926	56.86
959.289	56.88
959.652	56.89
960.015	56.92
960.377	56.84
960.74	56.76
961.102	56.7
961.465	56.69
961.827	56.57
962.189	56.58
962.552	56.54
962.914	56.52
963.276	56.5
963.638	56.42
964	56.31
964.362	56.35
964.724	56.38
965.085	56.36
965.447	56.29
965.809	56.3
966.17	56.33
966.532	56.37
966.893	56.38
967.255	56.26
967.616	56.32
967.977	56.38
968.338	56.3
968.699	56.25
969.061	56.18
969.421	56.21
969.782	56.23
970.143	56.21
970.504	56.16
970.865	56.19
971.225	56.26
971.586	56.28
971.946	56.26
972.307	56.31
972.667	56.33
973.027	56.33
973.388	56.3
973.748	56.29
974.108	56.26
974.468	56.24
974.828	56.22
975.188	56.17
975.548	56.09
975.907	56.04
976.267	55.97
976.627	55.95
976.986	55.95
977.346	55.98
977.705	55.99
978.064	56.05
978.424	56.02
978.783	55.95
979.142	55.88
979.501	55.9
979.86	55.92
980.219	55.88
980.578	55.81
980.937	55.91
981.296	55.89
981.654	55.99
982.013	55.96
982.371	55.97
982.73	55.97
983.088	55.95
983.447	55.99
983.805	55.9
984.163	55.98
984.521	55.94
984.879	55.88
985.237	55.83
985.595	55.7
985.953	55.63
986.311	55.66
986.669	55.75
987.026	55.9
987.384	55.8
987.741	55.86
988.099	55.79
988.456	55.82
988.814	55.7
989.171	55.7
989.528	55.6
989.885	55.58
990.242	55.53
990.599	55.44
990.956	55.25
991.313	55.25
991.67	55.19
992.027	55.25
992.383	55.28
992.74	55.32
993.096	55.26
993.453	55.23
993.809	55.2
994.165	55.23
994.522	55.22
994.878	55.4
995.234	55.46
995.59	55.41
995.946	55.34
996.302	55.32
996.658	55.36
997.013	55.44
997.369	55.54
997.725	55.79
998.08	55.74
998.436	55.85
998.791	55.78
999.147	55.87
999.502	55.75
999.857	55.77
1000.212	55.68
1000.567	55.69
1000.922	55.62
1001.277	55.62
1001.632	55.52
1001.987	55.58
1002.342	55.51
1002.696	55.65
1003.051	55.48
1003.406	55.65
1003.76	55.56
1004.114	55.72
1004.469	55.63
1004.823	55.76
1005.177	55.89
1005.531	55.64
1005.885	55.62
1006.239	55.41
1006.593	55.28
1006.947	55.29
1007.301	55.28
1007.655	55.32
1008.008	55.25
1008.362	55.27
1008.715	55.14
1009.069	54.9
1009.422	54.95
1009.776	54.83
1010.129	54.78
1010.482	54.75
1010.835	54.81
1011.188	54.46
1011.541	54.2
1011.894	54.1
1012.247	53.99
1012.6	53.96
1012.952	53.94
1013.305	53.83
1013.657	53.87
1014.01	54.08
1014.362	53.92
1014.715	53.72
1015.067	54.09
1015.419	54.49
1015.771	54.7
1016.123	54.52
1016.475	54.45
1016.827	54.67
1017.179	54.85
1017.531	54.69
1017.883	54.77
1018.234	54.93
1018.586	54.86
1018.938	54.7
1019.289	54.48
1019.64	54.44
1019.992	54.8
1020.343	54.66
1020.694	54.36
1021.045	54.33
1021.396	54.4
1021.747	54.06
1022.098	53.85
1022.449	54.04
1022.8	54.21
1023.151	54.13
1023.501	53.82
1023.852	53.83
1024.202	54.04
1024.553	53.87
1024.903	53.92
1025.253	54.1
1025.604	54.2
1025.954	53.98
1026.304	54.27
1026.654	54.32
1027.004	54.28
1027.354	54.37
1027.703	54.03
1028.053	53.64
1028.403	53.71
1028.753	53.74
1029.102	53.6
1029.452	53.59
1029.801	53.76
1030.15	53.38
1030.499	53.08
897.758	826.44
901.051	831.53
904.343	837.94
907.636	822.94
910.928	809.95
914.22	827.14
917.511	810.45
920.803	774.14
924.094	737.58
927.384	743.57
930.675	720.99
933.965	713.57
937.255	713.77
940.544	683.08
943.834	650.18
947.123	639.49
950.411	602
953.7	589.64
956.988	573.6
960.276	550.07
963.563	540.87
966.851	511.13
970.138	500.7
973.424	465.83
976.711	459.3
979.997	446.03
983.283	435.99
986.568	422.44
989.853	407.69
993.138	391.63
996.423	387.65
999.708	375.75
1002.992	377.66
1006.275	365.44
1009.559	362.95
1012.842	351.66
1016.125	338.93
1019.408	332.66
1022.69	329.91
1025.972	327.69
1029.254	318.97
1032.536	312.16
1035.817	301.48
1039.098	296.1
1042.379	289.58
1045.659	284.98
1048.939	283.16
1052.219	279.89
1055.498	273.4
1058.778	268.2
1062.057	263.3
1065.335	262.82
1068.614	257.56
1071.892	255.04
1075.17	249.43
1078.447	246.12
1081.724	244.61
1085.001	239.04
1088.278	237.88
1091.554	236.6
1094.83	235.32
1098.106	231.27
1101.382	229.94
1104.657	229.97
1107.932	229.08
1111.206	228.61
1114.481	225.17
1117.755	222.72
1121.029	222.41
1124.302	218.55
1127.575	215.63
1130.848	214.09
1134.121	211.85
1137.393	211.18
1140.665	207.66
1143.937	205.75
1147.208	202.51
1150.48	201.25
1153.75	200.47
1157.021	198.18
1160.291	197.61
1163.561	197.43
1166.831	194.79
1170.101	194.93
1173.37	192.39
1176.639	191.44
1179.907	191.13
1183.176	190.65
1186.444	191.56
1189.711	190.32
1192.979	191.83
1196.246	192.41
1199.513	190.86
1202.78	192.31
1206.046	192.22
1209.312	193.99
1212.578	195.07
1215.843	197.98
1219.108	199.59
1222.373	202.71
1225.638	205.92
1228.902	210.76
1232.166	216.43
1235.43	220.51
1238.693	226.44
1241.956	231.98
1245.219	238.79
1248.482	239.54
1251.744	238.51
1255.006	239.14
1258.268	233.01
1261.529	230.62
1264.79	224.29
1268.051	220.07
1271.312	217.53
1274.572	213.08
1277.832	206.38
1281.092	203.7
1284.351	200.22
1287.61	200.08
1290.869	198.41
1294.128	197.86
1297.386	196.63
1300.644	195.91
1303.902	194.93
1307.159	193.8
1310.416	194.93
1313.673	198.66
1316.93	199.09
1320.186	202.79
1323.442	204.95
1326.697	208.98
1329.953	211.64
1333.208	219.02
1336.463	229.17
1339.717	233.36
1342.972	245.4
1346.226	252.21
1349.479	254.08
1352.733	265.69
1355.986	270.83
1359.238	277.46
1362.491	281.18
1365.743	291.31
1368.995	292.42
1372.247	287.85
1375.498	287.89
1378.749	298.53
1382	298.36
1385.251	298.32
1388.501	296.89
1391.751	301.02
1395	297.49
1398.25	299.84
1401.499	298.72
1404.748	298.8
1407.996	296.47
1411.244	297.48
1414.492	291.33
1417.74	282.81
1420.987	275.79
1424.234	271.09
1427.481	260.97
1430.728	255.74
1433.974	246.17
1437.22	236.55
1440.465	229.26
1443.711	221.07
1446.956	214.02
1450.201	205.36
1453.445	196.53
1456.689	190.87
1459.933	184.69
1463.177	177.49
1466.42	173.57
1469.663	168.32
1472.906	164.18
1476.148	158.74
1479.391	155.3
1482.633	152.51
1485.874	149.17
1489.115	148.03
1492.356	145.27
1495.597	143.02
1498.838	141.92
1502.078	140.24
1505.318	139.97
1508.557	138.72
1511.797	137.83
1515.036	136.82
1518.274	135.52
1521.513	134.26
1524.751	133.37
1527.989	134.6
1531.227	133.96
1534.464	133.5
1537.701	132.38
1540.938	131.45
1544.174	131.64
1547.41	131.38
1550.646	131.34
1553.882	131.53
1557.117	130.77
1560.352	130.31
1563.587	128.85
1566.821	128.73
1570.055	127.48
1573.289	127.29
1576.523	127.57
1579.756	126.84
1582.989	126.86
1586.222	126.45
1589.454	125.66
1592.686	125.6
1595.918	125.61
1599.15	125.28
1602.381	125.31
1605.612	125.62
1608.843	125.8
1612.073	125.91
1615.303	125.83
1618.533	125.68
1621.762	125.75
1624.992	126.79
1628.221	127.02
1631.449	127.05
1634.678	126.52
1637.906	126.58
1641.134	126.72
1644.361	126.79
1647.588	127.09
1650.815	127.43
1654.042	127.13
1657.269	127.23
1660.495	127.19
1663.72	127.12
1666.946	127.57
1670.171	128.57
1673.396	129.55
1676.621	130.11
1679.845	129.7
1683.069	129.44
1686.293	129.3
1689.517	129.98
1692.74	130.38
1695.963	130.62
1699.185	131.88
1702.408	131.28
1705.63	131.35
1708.852	131.89
1712.073	131.45
1715.294	131.94
1718.515	132.59
1721.736	133.03
1724.956	133.1
1728.176	132.9
1731.396	134.14
1734.616	133.68
1737.835	134.41
1741.054	134.22
1744.272	133.29
1747.491	133.85
1750.709	134.54
1753.927	134.64
1757.144	134.42
1760.361	134.73
1763.578	135.6
1766.795	135.3
1770.011	135.81
1773.227	136.47
1776.443	137.98
1779.658	139.11
1782.874	139.93
1786.089	140.42
1789.303	140.75
1792.518	142.61
1795.732	143.68
1798.945	144.99
1802.159	145.04
1805.372	147.05
1808.585	148.04
1811.797	148.92
1815.01	149.57
1818.222	150.67
1821.434	151.46
1824.645	152.73
1827.856	154.8
1831.067	156.34
1834.278	157.04
1837.488	158.83
1840.698	160.27
1843.908	160.93
1847.117	163.08
1850.326	164.85
1853.535	165.12
1856.744	167.25
1859.952	169.05
1863.16	169.21
1866.368	167.48
1869.575	170.65
1872.782	169.39
1875.989	167.73
1879.196	167.21
1882.402	165.65
1885.608	166.76
1888.814	167.11
1892.019	169.38
1895.224	166.88
1898.429	167.57
1901.634	169.83
1904.838	168.24
1908.042	171.24
1911.246	170.71
1914.449	172.26
1917.652	171.38
1920.855	171.72
1924.058	171.05
1927.26	169.67
1930.462	171.21
1933.664	171.1
1936.865	170.38
1940.066	169.02
1943.267	167.36
1946.467	169.9
1949.668	169.86
1952.868	170.7
1956.067	169.82
1959.267	171.23
1962.466	171.76
1965.665	173.79
1968.863	174.08
1972.061	176.04
1975.259	180.29
1978.457	180.97
1981.654	181.81
1984.852	183.42
1988.048	186.02
1991.245	188.92
1994.441	192.37
1997.637	195.72
2000.833	198.76
2004.028	200.86
2007.223	207.55
2010.418	211.27
2013.613	219.62
2016.807	225.84
2020.001	230.62
2023.194	237.49
2026.388	245.77
2029.581	256.6
2032.774	266.68
2035.966	274.53
2039.158	283.27
2042.35	286.39
2045.542	292.05
2048.733	307.11
2051.924	310.39
2055.115	314.77
2058.306	317.01
2061.496	324.11
2064.686	325.09
2067.875	319.42
2071.065	322.95
2074.254	324.58
2077.442	333.08
2080.631	335.04
2083.819	333.94
2087.007	340.67
2090.195	347.15
2093.382	347.06
2096.569	346.52
2099.756	352.38
2102.942	362.43
2106.128	371.62
2109.314	371.17
2112.5	372.21
2115.685	369.16
2118.87	369.86
2122.055	371.58
2125.239	378.68
2128.424	388.35
2131.608	386.93
2134.791	386.6
2137.974	387.77
2141.157	388.08
2144.34	393.73
2147.523	399.53
2150.705	411.99
2153.887	408.38
2157.068	412.41
2160.25	415.46
2163.431	414.06
2166.611	420.25
2169.792	428.89
2172.972	435.7
2176.152	435.69
2179.331	444.48
2182.511	446.53
2185.69	450.62
2188.868	470.68
2192.047	479.6
2195.225	485.23
2198.403	495.14
2201.58	488.31
2204.758	501.78
2207.935	505.8
2211.111	518.18
2214.288	521.15
2217.464	526.81
2220.64	532.08
2223.815	532.34
2226.991	523.83
2230.166	529.61
2233.34	542.88
2236.515	561.24
2239.689	553.95
2242.863	561.52
2246.036	554.34
2249.209	571.49
2252.382	571.16
2255.555	591.09
2258.727	592.77
2261.9	616.82
2265.071	624.42
2268.243	617.32
2271.414	637.3
2274.585	652.29
2277.756	653.56
2280.926	683.58
2284.096	683.27
2287.266	684.66
2290.436	669.9
2293.605	685.71
2296.774	706.48
2299.942	705.82
2303.111	732.34
2306.279	744.17
2309.447	745.34
2312.614	747.92
2315.781	764.05
2318.948	764.25
2322.115	782.8
2325.281	825.29
2328.447	819.26
2331.613	822.33
2334.779	838.04
2337.944	843.93
2341.109	862.64
2344.274	868.74
2347.438	897.94
2350.602	904.81
2353.766	970.05
2356.929	971.53
2360.092	977.48
2363.255	986.65
2366.418	1001.68
2369.58	1020.47
2372.742	1017.71
2375.904	1008.79
2379.066	1044.3
2382.227	1093.17
2385.388	1099.05
2388.548	1046.43
2391.709	1036.59
2394.869	1072.09
2398.029	1069.42
2401.188	1072.35
2404.347	1109.71
2407.506	1152.73
2410.665	1109.28
2413.823	1109.96
2416.981	1113.28
2420.139	1052.37
2423.296	1134.01
2426.453	1207.8
2429.61	1154.14
2432.767	1234.4
2435.923	1273.55
2439.079	1209.54
2442.235	1238.59
2445.391	1265.35
2448.546	1259.84
2451.701	1335.81
2454.855	1430.18
2458.009	1263.22
2461.163	1287.84
2464.317	1299.73
2467.471	1272.79
2470.624	1315.35
2473.777	1307.36
2476.929	1262.14
2480.082	1351.24
2483.234	1414.27
2486.385	1429.61
2489.537	1463.55
2492.688	1616.94
2495.839	1588.52
2498.989	1637.34
2502.14	1642.85
2505.29	1564.85
2508.439	1740.19
2511.589	1791.66
2514.738	1740.93
2517.887	1724.73
2521.035	1614.07
2524.183	1591.71
2527.331	1571.51
2530.479	1530.67
2533.627	1567.75
