Data from N_2_dec_nc_4n_069_Splice17_03.txt Node
Date: Sat Feb 29 14:05:51 EST 2020
User: sa697716
Spectrometer: FLMS03696
Trigger mode: 0
Integration Time (sec): 3.180400E-1
Scans to average: 20
Electric dark correction enabled: true
Nonlinearity correction enabled: true
Boxcar width: 5
XAxis mode: Wavelengths
Number of Pixels in Spectrum: 2048
>>>>>Begin Spectral Data<<<<<
187.83	117.99
188.298	118.28
188.766	104.11
189.233	101.51
189.701	99.4
190.169	106.53
190.636	112.91
191.104	118.31
191.571	341.66
192.039	246.23
192.506	-210.01
192.974	467.14
193.441	241.38
193.908	67.86
194.375	-2.7
194.842	-11.96
195.31	80.16
195.777	165.89
196.244	56.3
196.711	34.64
197.177	29.3
197.644	28.11
198.111	26.46
198.578	25.99
199.045	25.63
199.511	26.68
199.978	26.77
200.445	25.97
200.911	25.79
201.378	26.1
201.844	26.52
202.31	27.62
202.777	28.18
203.243	28.81
203.709	29.36
204.176	29.2
204.642	29.07
205.108	29.32
205.574	30.19
206.04	30.14
206.506	30.35
206.972	30.07
207.438	29.38
207.903	29.37
208.369	28.67
208.835	28.63
209.301	28.56
209.766	28.73
210.232	28.62
210.697	28.37
211.163	28.04
211.628	27.46
212.094	27.14
212.559	27.01
213.024	26.61
213.49	26.86
213.955	26.5
214.42	26.08
214.885	25.26
215.35	24.8
215.815	23.85
216.28	23.06
216.745	22.23
217.21	21.37
217.675	20.58
218.14	19.77
218.604	18.92
219.069	18.31
219.534	17.77
219.998	17.31
220.463	16.88
220.927	16.63
221.392	16.28
221.856	16
222.32	15.76
222.785	15.52
223.249	15.27
223.713	15.09
224.177	14.87
224.642	14.75
225.106	14.6
225.57	14.41
226.034	14.2
226.497	14.05
226.961	13.9
227.425	13.71
227.889	13.54
228.353	13.38
228.816	13.25
229.28	13.06
229.744	12.9
230.207	12.75
230.671	12.6
231.134	12.49
231.597	12.33
232.061	12.19
232.524	12.1
232.987	11.97
233.45	11.85
233.914	11.71
234.377	11.61
234.84	11.49
235.303	11.39
235.766	11.27
236.229	11.15
236.691	11.07
237.154	10.99
237.617	10.89
238.08	10.81
238.542	10.71
239.005	10.62
239.468	10.54
239.93	10.46
240.393	10.36
240.855	10.28
241.317	10.2
241.78	10.14
242.242	10.03
242.704	9.95
243.166	9.85
243.629	9.78
244.091	9.69
244.553	9.62
245.015	9.54
245.477	9.48
245.939	9.41
246.4	9.34
246.862	9.27
247.324	9.23
247.786	9.18
248.247	9.14
248.709	9.08
249.17	9.04
249.632	8.98
250.093	8.93
250.555	8.89
251.016	8.84
251.477	8.8
251.939	8.76
252.4	8.71
252.861	8.66
253.322	8.63
253.783	8.6
254.244	8.57
254.705	8.54
255.166	8.51
255.627	8.46
256.088	8.42
256.549	8.39
257.009	8.35
257.47	8.33
257.931	8.3
258.391	8.26
258.852	8.21
259.312	8.19
259.773	8.16
260.233	8.12
260.694	8.09
261.154	8.07
261.614	8.04
262.074	8.01
262.534	7.97
262.994	7.95
263.455	7.91
263.915	7.88
264.374	7.85
264.834	7.82
265.294	7.79
265.754	7.77
266.214	7.75
266.673	7.73
267.133	7.7
267.593	7.68
268.052	7.65
268.512	7.63
268.971	7.62
269.431	7.61
269.89	7.59
270.349	7.58
270.809	7.56
271.268	7.55
271.727	7.53
272.186	7.52
272.645	7.5
273.104	7.49
273.563	7.49
274.022	7.46
274.481	7.44
274.94	7.43
275.399	7.41
275.857	7.39
276.316	7.37
276.775	7.35
277.233	7.32
277.692	7.31
278.15	7.29
278.609	7.26
279.067	7.24
279.525	7.22
279.984	7.2
280.442	7.19
280.9	7.18
281.358	7.16
281.816	7.15
282.274	7.14
282.732	7.12
283.19	7.11
283.648	7.11
284.106	7.08
284.564	7.08
285.021	7.07
285.479	7.06
285.937	7.04
286.394	7.02
286.852	7
287.309	7
287.767	6.98
288.224	6.96
288.682	6.94
289.139	6.94
289.596	6.92
290.053	6.89
290.511	6.87
290.968	6.86
291.425	6.84
291.882	6.82
292.339	6.8
292.796	6.77
293.252	6.75
293.709	6.73
294.166	6.7
294.623	6.69
295.079	6.68
295.536	6.66
295.992	6.64
296.449	6.63
296.905	6.62
297.362	6.6
297.818	6.6
298.274	6.6
298.731	6.59
299.187	6.59
299.643	6.57
300.099	6.56
300.555	6.54
301.011	6.53
301.467	6.52
301.923	6.5
302.379	6.5
302.835	6.48
303.291	6.47
303.746	6.46
304.202	6.44
304.658	6.43
305.113	6.41
305.569	6.41
306.024	6.38
306.479	6.38
306.935	6.38
307.39	6.37
307.845	6.36
308.301	6.36
308.756	6.35
309.211	6.35
309.666	6.35
310.121	6.35
310.576	6.34
311.031	6.35
311.486	6.34
311.94	6.33
312.395	6.32
312.85	6.32
313.305	6.31
313.759	6.31
314.214	6.31
314.668	6.3
315.123	6.29
315.577	6.29
316.032	6.29
316.486	6.28
316.94	6.27
317.394	6.26
317.849	6.24
318.303	6.23
318.757	6.21
319.211	6.2
319.665	6.19
320.119	6.18
320.572	6.17
321.026	6.15
321.48	6.15
321.934	6.13
322.387	6.12
322.841	6.11
323.295	6.11
323.748	6.1
324.202	6.1
324.655	6.09
325.108	6.08
325.562	6.06
326.015	6.05
326.468	6.04
326.921	6.03
327.374	6.02
327.827	6.02
328.28	6.01
328.733	5.99
329.186	5.98
329.639	5.96
330.092	5.94
330.545	5.94
330.997	5.92
331.45	5.92
331.903	5.92
332.355	5.92
332.808	5.91
333.26	5.9
333.713	5.9
334.165	5.91
334.617	5.91
335.069	5.91
335.522	5.91
335.974	5.91
336.426	5.9
336.878	5.89
337.33	5.88
337.782	5.89
338.234	5.89
338.686	5.87
339.137	5.86
339.589	5.86
340.041	5.86
340.493	5.86
340.944	5.86
341.396	5.85
341.847	5.83
342.299	5.83
342.75	5.8
343.201	5.78
343.653	5.76
344.104	5.75
344.555	5.73
345.006	5.71
345.457	5.7
345.908	5.68
346.359	5.68
346.81	5.68
347.261	5.68
347.712	5.68
348.163	5.68
348.613	5.68
349.064	5.67
349.515	5.66
349.965	5.67
350.416	5.67
350.866	5.66
351.317	5.66
351.767	5.64
352.217	5.65
352.668	5.65
353.118	5.65
353.568	5.65
354.018	5.66
354.468	5.65
354.918	5.65
355.368	5.65
355.818	5.64
356.268	5.65
356.718	5.67
357.168	5.66
357.617	5.65
358.067	5.65
358.517	5.66
358.966	5.67
359.416	5.68
359.865	5.69
360.315	5.69
360.764	5.71
361.213	5.71
361.663	5.71
362.112	5.73
362.561	5.75
363.01	5.77
363.459	5.78
363.908	5.79
364.357	5.81
364.806	5.82
365.255	5.85
365.703	5.86
366.152	5.88
366.601	5.9
367.05	5.92
367.498	5.94
367.947	5.97
368.395	6
368.844	6.05
369.292	6.08
369.74	6.12
370.189	6.15
370.637	6.2
371.085	6.24
371.533	6.28
371.981	6.33
372.429	6.36
372.877	6.4
373.325	6.44
373.773	6.47
374.221	6.5
374.669	6.54
375.116	6.58
375.564	6.61
376.012	6.65
376.459	6.69
376.907	6.73
377.354	6.78
377.801	6.83
378.249	6.89
378.696	6.94
379.143	6.99
379.591	7.04
380.038	7.09
380.485	7.15
380.932	7.2
381.379	7.24
381.826	7.28
382.273	7.32
382.72	7.36
383.166	7.39
383.613	7.43
384.06	7.47
384.506	7.51
384.953	7.54
385.4	7.57
385.846	7.58
386.292	7.61
386.739	7.64
387.185	7.68
387.631	7.71
388.078	7.72
388.524	7.73
388.97	7.74
389.416	7.75
389.862	7.77
390.308	7.78
390.754	7.81
391.2	7.83
391.645	7.84
392.091	7.86
392.537	7.86
392.983	7.88
393.428	7.91
393.874	7.93
394.319	7.94
394.765	7.95
395.21	7.96
395.655	7.95
396.101	7.95
396.546	7.96
396.991	7.95
397.436	7.93
397.881	7.94
398.326	7.95
398.771	7.94
399.216	7.94
399.661	7.93
400.106	7.95
400.551	7.93
400.995	7.9
401.44	7.87
401.885	7.86
402.329	7.84
402.774	7.81
403.218	7.79
403.663	7.77
404.107	7.76
404.551	7.74
404.995	7.7
405.44	7.68
405.884	7.66
406.328	7.64
406.772	7.63
407.216	7.62
407.66	7.6
408.104	7.57
408.547	7.55
408.991	7.51
409.435	7.47
409.879	7.46
410.322	7.47
410.766	7.46
411.209	7.45
411.653	7.42
412.096	7.4
412.54	7.4
412.983	7.4
413.426	7.42
413.869	7.42
414.312	7.43
414.756	7.44
415.199	7.43
415.642	7.45
416.085	7.46
416.527	7.48
416.97	7.48
417.413	7.46
417.856	7.43
418.298	7.41
418.741	7.39
419.184	7.39
419.626	7.36
420.069	7.35
420.511	7.32
420.953	7.3
421.396	7.29
421.838	7.31
422.28	7.31
422.722	7.34
423.164	7.32
423.606	7.32
424.048	7.29
424.49	7.29
424.932	7.28
425.374	7.26
425.816	7.25
426.258	7.23
426.699	7.17
427.141	7.14
427.582	7.11
428.024	7.11
428.465	7.1
428.907	7.09
429.348	7.09
429.789	7.09
430.231	7.09
430.672	7.08
431.113	7.07
431.554	7.09
431.995	7.1
432.436	7.11
432.877	7.1
433.318	7.1
433.759	7.11
434.2	7.11
434.64	7.11
435.081	7.09
435.522	7.11
435.962	7.14
436.403	7.16
436.843	7.17
437.284	7.18
437.724	7.2
438.164	7.21
438.604	7.22
439.045	7.22
439.485	7.23
439.925	7.24
440.365	7.24
440.805	7.25
441.245	7.24
441.685	7.26
442.125	7.27
442.564	7.29
443.004	7.31
443.444	7.34
443.883	7.36
444.323	7.38
444.762	7.41
445.202	7.47
445.641	7.48
446.081	7.53
446.52	7.55
446.959	7.58
447.398	7.61
447.837	7.65
448.276	7.66
448.716	7.7
449.154	7.74
449.593	7.77
450.032	7.76
450.471	7.81
450.91	7.82
451.349	7.83
451.787	7.84
452.226	7.82
452.664	7.81
453.103	7.82
453.541	7.82
453.98	7.81
454.418	7.79
454.856	7.77
455.295	7.73
455.733	7.72
456.171	7.71
456.609	7.72
457.047	7.73
457.485	7.72
457.923	7.71
458.361	7.7
458.798	7.7
459.236	7.71
459.674	7.72
460.111	7.72
460.549	7.74
460.987	7.74
461.424	7.74
461.862	7.72
462.299	7.71
462.736	7.71
463.173	7.7
463.611	7.69
464.048	7.69
464.485	7.7
464.922	7.69
465.359	7.69
465.796	7.68
466.233	7.68
466.67	7.7
467.106	7.71
467.543	7.73
467.98	7.73
468.416	7.75
468.853	7.75
469.29	7.75
469.726	7.75
470.162	7.75
470.599	7.76
471.035	7.76
471.471	7.75
471.907	7.74
472.344	7.74
472.78	7.75
473.216	7.74
473.652	7.74
474.088	7.75
474.523	7.76
474.959	7.75
475.395	7.76
475.831	7.78
476.266	7.78
476.702	7.78
477.138	7.77
477.573	7.77
478.008	7.78
478.444	7.79
478.879	7.77
479.314	7.77
479.75	7.78
480.185	7.76
480.62	7.75
481.055	7.75
481.49	7.75
481.925	7.76
482.36	7.76
482.795	7.75
483.229	7.75
483.664	7.76
484.099	7.76
484.534	7.76
484.968	7.77
485.403	7.78
485.837	7.78
486.271	7.8
486.706	7.8
487.14	7.82
487.574	7.83
488.009	7.85
488.443	7.87
488.877	7.89
489.311	7.91
489.745	7.95
490.179	7.98
490.613	8.01
491.046	8.06
491.48	8.11
491.914	8.16
492.348	8.21
492.781	8.26
493.215	8.32
493.648	8.39
494.082	8.46
494.515	8.52
494.948	8.59
495.382	8.66
495.815	8.74
496.248	8.82
496.681	8.89
497.114	8.98
497.547	9.06
497.98	9.16
498.413	9.25
498.846	9.36
499.279	9.48
499.711	9.58
500.144	9.69
500.577	9.82
501.009	9.95
501.442	10.1
501.874	10.24
502.306	10.39
502.739	10.54
503.171	10.71
503.603	10.88
504.036	11.05
504.468	11.24
504.9	11.44
505.332	11.64
505.764	11.85
506.196	12.07
506.627	12.3
507.059	12.53
507.491	12.76
507.923	13
508.354	13.26
508.786	13.54
509.217	13.8
509.649	14.07
510.08	14.37
510.512	14.65
510.943	14.94
511.374	15.24
511.805	15.54
512.237	15.86
512.668	16.16
513.099	16.49
513.53	16.82
513.961	17.16
514.391	17.48
514.822	17.79
515.253	18.12
515.684	18.43
516.114	18.77
516.545	19.12
516.975	19.46
517.406	19.81
517.836	20.15
518.267	20.48
518.697	20.82
519.127	21.19
519.558	21.53
519.988	21.87
520.418	22.21
520.848	22.53
521.278	22.86
521.708	23.07
522.138	23.36
522.567	23.64
522.997	23.94
523.427	24.22
523.857	24.5
524.286	24.79
524.716	25.06
525.145	25.33
525.575	25.58
526.004	25.83
526.433	26.15
526.863	26.42
527.292	26.67
527.721	26.88
528.15	27.08
528.579	27.27
529.008	27.44
529.437	27.62
529.866	27.79
530.295	27.98
530.724	28.17
531.152	28.33
531.581	28.45
532.01	28.56
532.438	28.72
532.867	28.83
533.295	28.96
533.723	29.08
534.152	29.18
534.58	29.28
535.008	29.36
535.436	29.41
535.865	29.47
536.293	29.54
536.721	29.62
537.149	29.67
537.576	29.76
538.004	29.81
538.432	29.85
538.86	29.91
539.287	29.96
539.715	29.99
540.143	30.04
540.57	30.1
540.998	30.18
541.425	30.21
541.852	30.26
542.28	30.27
542.707	30.32
543.134	30.35
543.561	30.35
543.988	30.37
544.415	30.41
544.842	30.45
545.269	30.48
545.696	30.49
546.123	30.52
546.549	30.55
546.976	30.6
547.403	30.62
547.829	30.65
548.256	30.69
548.682	30.72
549.108	30.76
549.535	30.78
549.961	30.78
550.387	30.79
550.813	30.8
551.24	30.79
551.666	30.77
552.092	30.76
552.518	30.76
552.943	30.75
553.369	30.73
553.795	30.7
554.221	30.68
554.646	30.66
555.072	30.64
555.498	30.59
555.923	30.56
556.349	30.48
556.774	30.43
557.199	30.38
557.625	30.3
558.05	30.22
558.475	30.13
558.9	30.03
559.325	29.94
559.75	29.83
560.175	29.73
560.6	29.6
561.025	29.5
561.449	29.39
561.874	29.26
562.299	29.16
562.723	29.03
563.148	28.9
563.572	28.74
563.997	28.58
564.421	28.42
564.846	28.26
565.27	28.1
565.694	27.93
566.118	27.77
566.542	27.6
566.966	27.42
567.39	27.26
567.814	27.09
568.238	26.91
568.662	26.74
569.086	26.58
569.509	26.41
569.933	26.23
570.357	26.04
570.78	25.85
571.204	25.66
571.627	25.46
572.05	25.29
572.474	25.12
572.897	24.94
573.32	24.77
573.743	24.6
574.166	24.44
574.589	24.28
575.012	24.15
575.435	24
575.858	23.86
576.281	23.73
576.704	23.61
577.126	23.46
577.549	23.36
577.972	23.24
578.394	23.12
578.817	23.01
579.239	22.92
579.661	22.81
580.084	22.72
580.506	22.63
580.928	22.53
581.35	22.43
581.772	22.36
582.194	22.27
582.616	22.19
583.038	22.11
583.46	22.03
583.882	21.92
584.303	21.85
584.725	21.76
585.147	21.66
585.568	21.57
585.99	21.5
586.411	21.41
586.833	21.34
587.254	21.27
587.675	21.21
588.096	21.13
588.518	21.08
588.939	21.01
589.36	20.95
589.781	20.9
590.202	20.84
590.623	20.78
591.043	20.72
591.464	20.66
591.885	20.6
592.305	20.56
592.726	20.52
593.147	20.47
593.567	20.42
593.987	20.4
594.408	20.34
594.828	20.31
595.248	20.28
595.669	20.24
596.089	20.2
596.509	20.16
596.929	20.11
597.349	20.06
597.769	20.02
598.189	19.99
598.608	19.93
599.028	19.9
599.448	19.86
599.867	19.81
600.287	19.75
600.706	19.7
601.126	19.66
601.545	19.61
601.965	19.56
602.384	19.51
602.803	19.44
603.222	19.36
603.641	19.31
604.061	19.25
604.48	19.18
604.898	19.11
605.317	19.04
605.736	18.95
606.155	18.86
606.574	18.78
606.992	18.68
607.411	18.6
607.829	18.48
608.248	18.38
608.666	18.27
609.085	18.2
609.503	18.12
609.921	18.02
610.339	17.94
610.758	17.86
611.176	17.78
611.594	17.69
612.012	17.6
612.43	17.55
612.847	17.46
613.265	17.39
613.683	17.28
614.101	17.18
614.518	17.09
614.936	17.01
615.353	16.93
615.771	16.83
616.188	16.76
616.606	16.7
617.023	16.61
617.44	16.53
617.857	16.47
618.274	16.4
618.691	16.34
619.108	16.29
619.525	16.24
619.942	16.18
620.359	16.14
620.776	16.11
621.192	16.06
621.609	16.02
622.026	15.98
622.442	15.96
622.859	15.93
623.275	15.92
623.691	15.89
624.108	15.86
624.524	15.86
624.94	15.84
625.356	15.81
625.772	15.8
626.188	15.79
626.604	15.79
627.02	15.76
627.436	15.74
627.852	15.7
628.268	15.68
628.683	15.65
629.099	15.62
629.514	15.58
629.93	15.56
630.345	15.51
630.761	15.46
631.176	15.43
631.591	15.38
632.007	15.32
632.422	15.27
632.837	15.2
633.252	15.14
633.667	15.05
634.082	14.99
634.497	14.89
634.911	14.78
635.326	14.67
635.741	14.55
636.155	14.43
636.57	14.32
636.984	14.17
637.399	14.03
637.813	13.87
638.228	13.72
638.642	13.57
639.056	13.42
639.47	13.29
639.884	13.14
640.298	13
640.712	12.84
641.126	12.69
641.54	12.55
641.954	12.42
642.368	12.3
642.781	12.15
643.195	12
643.609	11.86
644.022	11.71
644.436	11.58
644.849	11.46
645.262	11.36
645.676	11.24
646.089	11.13
646.502	11.02
646.915	10.91
647.328	10.82
647.741	10.72
648.154	10.66
648.567	10.59
648.98	10.54
649.393	10.48
649.805	10.4
650.218	10.35
650.631	10.3
651.043	10.27
651.456	10.24
651.868	10.19
652.28	10.16
652.693	10.11
653.105	10.05
653.517	10
653.929	9.94
654.341	9.89
654.753	9.82
655.165	9.76
655.577	9.68
655.989	9.6
656.401	9.51
656.813	9.43
657.224	9.35
657.636	9.26
658.047	9.17
658.459	9.07
658.87	8.97
659.282	8.89
659.693	8.79
660.104	8.69
660.515	8.59
660.926	8.52
661.338	8.42
661.749	8.31
662.159	8.23
662.57	8.15
662.981	8.07
663.392	7.97
663.803	7.88
664.213	7.81
664.624	7.75
665.035	7.67
665.445	7.61
665.855	7.56
666.266	7.52
666.676	7.47
667.086	7.41
667.497	7.37
667.907	7.33
668.317	7.3
668.727	7.27
669.137	7.25
669.547	7.24
669.956	7.21
670.366	7.21
670.776	7.2
671.186	7.19
671.595	7.2
672.005	7.21
672.414	7.22
672.824	7.24
673.233	7.26
673.642	7.25
674.052	7.27
674.461	7.29
674.87	7.3
675.279	7.32
675.688	7.36
676.097	7.39
676.506	7.41
676.915	7.45
677.323	7.49
677.732	7.54
678.141	7.61
678.549	7.66
678.958	7.73
679.366	7.8
679.775	7.87
680.183	7.96
680.592	8.05
681	8.13
681.408	8.25
681.816	8.36
682.224	8.48
682.632	8.63
683.04	8.8
683.448	8.97
683.856	9.18
684.264	9.4
684.671	9.64
685.079	9.89
685.487	10.21
685.894	10.53
686.302	10.89
686.709	11.27
687.116	11.68
687.524	12.11
687.931	12.57
688.338	13.05
688.745	13.55
689.152	14.1
689.559	14.67
689.966	15.26
690.373	15.88
690.78	16.49
691.187	17.13
691.593	17.77
692	18.43
692.407	19.1
692.813	19.79
693.22	20.48
693.626	21.18
694.032	21.9
694.439	22.63
694.845	23.33
695.251	24.01
695.657	24.72
696.063	25.45
696.469	26.17
696.875	26.86
697.281	27.53
697.687	28.22
698.093	28.87
698.498	29.52
698.904	30.16
699.31	30.79
699.715	31.45
700.12	32.04
700.526	32.63
700.931	33.22
701.337	33.81
701.742	34.38
702.147	34.96
702.552	35.55
702.957	36.1
703.362	36.62
703.767	37.15
704.172	37.69
704.577	38.21
704.981	38.71
705.386	39.19
705.791	39.69
706.195	40.16
706.6	40.59
707.004	41.02
707.408	41.46
707.813	41.93
708.217	42.37
708.621	42.75
709.025	43.17
709.43	43.56
709.834	44
710.237	44.37
710.641	44.8
711.045	45.2
711.449	45.56
711.853	45.96
712.256	46.32
712.66	46.67
713.064	47.05
713.467	47.4
713.87	47.75
714.274	48.07
714.677	48.43
715.08	48.72
715.484	49.05
715.887	49.41
716.29	49.66
716.693	49.94
717.096	50.25
717.499	50.54
717.901	50.81
718.304	51.08
718.707	51.34
719.109	51.59
719.512	51.9
719.915	52.16
720.317	52.39
720.719	52.68
721.122	52.9
721.524	53.1
721.926	53.32
722.328	53.54
722.731	53.79
723.133	54
723.535	54.21
723.937	54.38
724.338	54.56
724.74	54.74
725.142	54.89
725.544	55.08
725.945	55.25
726.347	55.42
726.748	55.53
727.15	55.63
727.551	55.78
727.952	55.89
728.354	56.05
728.755	56.17
729.156	56.3
729.557	56.46
729.958	56.63
730.359	56.74
730.76	56.83
731.161	56.97
731.562	57.09
731.962	57.18
732.363	57.26
732.763	57.34
733.164	57.44
733.564	57.51
733.965	57.56
734.365	57.58
734.766	57.65
735.166	57.7
735.566	57.74
735.966	57.78
736.366	57.8
736.766	57.84
737.166	57.9
737.566	57.92
737.966	58
738.365	58.04
738.765	58.08
739.165	58.09
739.564	58.14
739.964	58.19
740.363	58.27
740.763	58.32
741.162	58.37
741.561	58.38
741.96	58.42
742.36	58.42
742.759	58.43
743.158	58.43
743.557	58.5
743.955	58.54
744.354	58.58
744.753	58.58
745.152	58.59
745.55	58.61
745.949	58.63
746.348	58.63
746.746	58.66
747.144	58.74
747.543	58.78
747.941	58.82
748.339	58.84
748.737	58.88
749.136	58.93
749.534	58.97
749.932	59
750.33	59.03
750.727	59.06
751.125	59.08
751.523	59.06
751.921	59.09
752.318	59.12
752.716	59.11
753.113	59.07
753.511	59.05
753.908	59.04
754.305	59.04
754.703	59.01
755.1	59.01
755.497	59.01
755.894	59.01
756.291	58.99
756.688	58.95
757.085	58.94
757.482	58.96
757.878	59
758.275	59.03
758.672	59.07
759.068	59.09
759.465	59.1
759.861	59.08
760.258	59.08
760.654	59.07
761.05	59.08
761.447	59.09
761.843	59.06
762.239	58.99
762.635	58.98
763.031	58.97
763.427	58.94
763.822	58.92
764.218	58.93
764.614	58.89
765.01	58.89
765.405	58.83
765.801	58.82
766.196	58.85
766.592	58.84
766.987	58.81
767.382	58.79
767.778	58.82
768.173	58.85
768.568	58.79
768.963	58.8
769.358	58.81
769.753	58.82
770.148	58.81
770.542	58.75
770.937	58.75
771.332	58.76
771.726	58.71
772.121	58.67
772.515	58.63
772.91	58.67
773.304	58.65
773.699	58.63
774.093	58.61
774.487	58.61
774.881	58.62
775.275	58.64
775.669	58.59
776.063	58.56
776.457	58.53
776.851	58.49
777.245	58.46
777.638	58.46
778.032	58.44
778.425	58.45
778.819	58.45
779.212	58.41
779.606	58.36
779.999	58.39
780.392	58.42
780.786	58.46
781.179	58.51
781.572	58.49
781.965	58.51
782.358	58.51
782.751	58.53
783.143	58.56
783.536	58.64
783.929	58.69
784.322	58.7
784.714	58.69
785.107	58.7
785.499	58.68
785.891	58.73
786.284	58.71
786.676	58.78
787.068	58.78
787.46	58.76
787.852	58.78
788.245	58.78
788.636	58.77
789.028	58.8
789.42	58.78
789.812	58.77
790.204	58.74
790.595	58.75
790.987	58.71
791.378	58.7
791.77	58.72
792.161	58.7
792.553	58.7
792.944	58.75
793.335	58.75
793.726	58.77
794.117	58.78
794.508	58.83
794.899	58.83
795.29	58.83
795.681	58.84
796.072	58.84
796.463	58.82
796.853	58.83
797.244	58.78
797.634	58.78
798.025	58.81
798.415	58.81
798.806	58.78
799.196	58.79
799.586	58.81
799.976	58.81
800.366	58.83
800.756	58.85
801.146	58.82
801.536	58.83
801.926	58.85
802.316	58.85
802.706	58.87
803.095	58.84
803.485	58.85
803.874	58.84
804.264	58.85
804.653	58.83
805.043	58.82
805.432	58.81
805.821	58.79
806.21	58.8
806.599	58.81
806.988	58.79
807.377	58.84
807.766	58.85
808.155	58.89
808.544	58.87
808.933	58.87
809.321	58.88
809.71	58.93
810.098	58.98
810.487	58.98
810.875	58.94
811.264	58.94
811.652	58.95
812.04	58.92
812.428	58.94
812.816	59
813.204	59.01
813.592	59.04
813.98	59.03
814.368	59.04
814.756	59.06
815.144	59.11
815.531	59.15
815.919	59.13
816.306	59.18
816.694	59.2
817.081	59.17
817.469	59.17
817.856	59.22
818.243	59.24
818.63	59.3
819.017	59.31
819.404	59.34
819.791	59.35
820.178	59.4
820.565	59.4
820.952	59.43
821.339	59.47
821.725	59.53
822.112	59.51
822.498	59.5
822.885	59.46
823.271	59.48
823.657	59.45
824.044	59.47
824.43	59.49
824.816	59.5
825.202	59.44
825.588	59.44
825.974	59.45
826.36	59.43
826.746	59.47
827.132	59.46
827.517	59.46
827.903	59.49
828.289	59.49
828.674	59.47
829.06	59.51
829.445	59.58
829.83	59.6
830.216	59.59
830.601	59.62
830.986	59.62
831.371	59.65
831.756	59.65
832.141	59.66
832.526	59.66
832.911	59.69
833.295	59.68
833.68	59.66
834.065	59.67
834.449	59.66
834.834	59.62
835.218	59.61
835.603	59.61
835.987	59.61
836.371	59.62
836.755	59.57
837.139	59.55
837.524	59.51
837.908	59.46
838.291	59.41
838.675	59.39
839.059	59.42
839.443	59.39
839.827	59.38
840.21	59.37
840.594	59.31
840.977	59.29
841.361	59.27
841.744	59.3
842.127	59.34
842.511	59.35
842.894	59.33
843.277	59.3
843.66	59.33
844.043	59.3
844.426	59.27
844.809	59.29
845.191	59.31
845.574	59.28
845.957	59.24
846.339	59.21
846.722	59.19
847.104	59.2
847.487	59.21
847.869	59.21
848.252	59.22
848.634	59.28
849.016	59.3
849.398	59.3
849.78	59.35
850.162	59.38
850.544	59.38
850.926	59.38
851.307	59.41
851.689	59.39
852.071	59.38
852.452	59.37
852.834	59.34
853.215	59.33
853.597	59.34
853.978	59.32
854.359	59.29
854.741	59.31
855.122	59.3
855.503	59.31
855.884	59.3
856.265	59.27
856.646	59.27
857.026	59.28
857.407	59.23
857.788	59.26
858.169	59.25
858.549	59.29
858.93	59.28
859.31	59.26
859.69	59.25
860.071	59.25
860.451	59.28
860.831	59.28
861.211	59.29
861.591	59.32
861.971	59.3
862.351	59.32
862.731	59.31
863.111	59.29
863.491	59.33
863.87	59.32
864.25	59.36
864.629	59.36
865.009	59.36
865.388	59.32
865.768	59.32
866.147	59.35
866.526	59.33
866.905	59.31
867.284	59.34
867.663	59.34
868.042	59.35
868.421	59.34
868.8	59.35
869.179	59.38
869.558	59.41
869.936	59.4
870.315	59.38
870.693	59.38
871.072	59.37
871.45	59.35
871.828	59.38
872.207	59.4
872.585	59.4
872.963	59.34
873.341	59.32
873.719	59.32
874.097	59.31
874.475	59.31
874.853	59.31
875.23	59.32
875.608	59.33
875.986	59.32
876.363	59.29
876.741	59.25
877.118	59.25
877.495	59.25
877.873	59.22
878.25	59.2
878.627	59.19
879.004	59.23
879.381	59.23
879.758	59.18
880.135	59.13
880.512	59.13
880.889	59.13
881.265	59.18
881.642	59.15
882.019	59.21
882.395	59.24
882.772	59.23
883.148	59.21
883.524	59.23
883.901	59.23
884.277	59.24
884.653	59.25
885.029	59.28
885.405	59.25
885.781	59.25
886.157	59.2
886.532	59.18
886.908	59.2
887.284	59.18
887.659	59.16
888.035	59.17
888.411	59.18
888.786	59.15
889.161	59.14
889.537	59.15
889.912	59.12
890.287	59.12
890.662	59.14
891.037	59.09
891.412	59.06
891.787	59.05
892.162	59.04
892.536	59.03
892.911	59.01
893.286	58.97
893.66	58.95
894.035	58.96
894.409	58.96
894.784	58.94
895.158	58.93
895.532	58.96
895.906	58.93
896.281	58.92
896.655	58.92
897.029	58.92
897.402	58.93
897.776	58.92
898.15	58.91
898.524	58.9
898.898	58.85
899.271	58.84
899.645	58.82
900.018	58.83
900.392	58.87
900.765	58.85
901.138	58.85
901.511	58.84
901.884	58.83
902.258	58.81
902.631	58.8
903.003	58.85
903.376	58.87
903.749	58.85
904.122	58.85
904.495	58.8
904.867	58.76
905.24	58.75
905.612	58.75
905.985	58.72
906.357	58.69
906.729	58.65
907.102	58.65
907.474	58.64
907.846	58.65
908.218	58.6
908.59	58.56
908.962	58.56
909.334	58.53
909.705	58.5
910.077	58.46
910.449	58.54
910.82	58.53
911.192	58.48
911.563	58.45
911.935	58.43
912.306	58.44
912.677	58.49
913.048	58.48
913.419	58.47
913.79	58.48
914.161	58.49
914.532	58.42
914.903	58.42
915.274	58.43
915.645	58.45
916.015	58.46
916.386	58.43
916.756	58.36
917.127	58.38
917.497	58.4
917.868	58.4
918.238	58.4
918.608	58.41
918.978	58.4
919.348	58.36
919.718	58.33
920.088	58.31
920.458	58.34
920.828	58.38
921.198	58.36
921.567	58.3
921.937	58.3
922.306	58.28
922.676	58.31
923.045	58.25
923.415	58.27
923.784	58.3
924.153	58.27
924.522	58.23
924.891	58.18
925.26	58.13
925.629	58.13
925.998	58.11
926.367	58.1
926.736	58.04
927.104	58.07
927.473	58.07
927.842	58
928.21	57.99
928.578	57.99
928.947	57.96
929.315	58
929.683	58
930.051	57.96
930.42	57.99
930.788	57.98
931.156	57.93
931.523	57.88
931.891	57.86
932.259	57.82
932.627	57.74
932.994	57.78
933.362	57.76
933.729	57.69
934.097	57.67
934.464	57.58
934.831	57.52
935.199	57.52
935.566	57.47
935.933	57.56
936.3	57.52
936.667	57.46
937.034	57.32
937.401	57.17
937.767	57.13
938.134	57.06
938.501	57.04
938.867	57.09
939.234	57.08
939.6	57.04
939.967	56.89
940.333	56.97
940.699	57.09
941.065	57.2
941.431	57.35
941.798	57.44
942.163	57.54
942.529	57.64
942.895	57.57
943.261	57.62
943.627	57.66
943.992	57.67
944.358	57.59
944.723	57.65
945.089	57.65
945.454	57.67
945.82	57.69
946.185	57.68
946.55	57.64
946.915	57.65
947.28	57.54
947.645	57.6
948.01	57.59
948.375	57.68
948.74	57.56
949.104	57.59
949.469	57.44
949.834	57.43
950.198	57.36
950.562	57.31
950.927	57.32
951.291	57.33
951.655	57.27
952.02	57.26
952.384	57.28
952.748	57.24
953.112	57.18
953.476	57.21
953.839	57.1
954.203	57.13
954.567	57.1
954.931	57.1
955.294	57.08
955.658	57.07
956.021	57
956.385	56.97
956.748	57.09
957.111	57.07
957.474	57.11
957.837	57.18
958.2	57.11
958.563	57.12
958.926	57.01
959.289	57
959.652	56.96
960.015	56.92
960.377	56.88
960.74	56.76
961.102	56.7
961.465	56.65
961.827	56.55
962.189	56.49
962.552	56.42
962.914	56.38
963.276	56.34
963.638	56.35
964	56.31
964.362	56.27
964.724	56.3
965.085	56.33
965.447	56.21
965.809	56.18
966.17	56.24
966.532	56.3
966.893	56.29
967.255	56.22
967.616	56.15
967.977	56.19
968.338	56.16
968.699	56.05
969.061	56.01
969.421	56.07
969.782	56.1
970.143	56
970.504	55.94
970.865	55.92
971.225	55.96
971.586	55.99
971.946	55.94
972.307	55.93
972.667	56.02
973.027	56.03
973.388	55.94
973.748	55.9
974.108	56.01
974.468	56
974.828	56.07
975.188	56.1
975.548	56.07
975.907	56.02
976.267	56.02
976.627	55.98
976.986	55.86
977.346	55.97
977.705	56.08
978.064	55.98
978.424	56
978.783	55.88
979.142	55.8
979.501	55.82
979.86	55.82
980.219	55.71
980.578	55.62
980.937	55.73
981.296	55.65
981.654	55.57
982.013	55.67
982.371	55.56
982.73	55.6
983.088	55.56
983.447	55.53
983.805	55.61
984.163	55.67
984.521	55.58
984.879	55.56
985.237	55.58
985.595	55.6
985.953	55.53
986.311	55.57
986.669	55.55
987.026	55.54
987.384	55.51
987.741	55.53
988.099	55.54
988.456	55.62
988.814	55.51
989.171	55.46
989.528	55.39
989.885	55.31
990.242	55.3
990.599	55.31
990.956	55.34
991.313	55.35
991.67	55.28
992.027	55.2
992.383	55.26
992.74	55.2
993.096	55.22
993.453	55.26
993.809	55.3
994.165	55.32
994.522	55.34
994.878	55.25
995.234	55.21
995.59	55.08
995.946	55.12
996.302	55.08
996.658	55.18
997.013	55.18
997.369	55.12
997.725	55.16
998.08	55.13
998.436	55.14
998.791	55.09
999.147	55.21
999.502	55.37
999.857	55.39
1000.212	55.29
1000.567	55.18
1000.922	55.21
1001.277	55.15
1001.632	55.19
1001.987	54.94
1002.342	54.88
1002.696	54.95
1003.051	54.67
1003.406	54.43
1003.76	54.34
1004.114	54.47
1004.469	54.48
1004.823	54.4
1005.177	54.44
1005.531	54.22
1005.885	54.38
1006.239	54.36
1006.593	54.56
1006.947	54.55
1007.301	54.77
1007.655	54.71
1008.008	54.59
1008.362	54.6
1008.715	54.57
1009.069	54.49
1009.422	54.44
1009.776	54.38
1010.129	54.14
1010.482	53.82
1010.835	53.99
1011.188	53.77
1011.541	53.62
1011.894	53.66
1012.247	53.52
1012.6	53.61
1012.952	53.75
1013.305	53.75
1013.657	53.68
1014.01	53.92
1014.362	53.97
1014.715	53.93
1015.067	53.98
1015.419	54.23
1015.771	54.36
1016.123	54.49
1016.475	54.52
1016.827	54.44
1017.179	54.51
1017.531	54.39
1017.883	54.35
1018.234	54.44
1018.586	54.52
1018.938	54.45
1019.289	54.17
1019.64	54.29
1019.992	54.28
1020.343	53.98
1020.694	54.03
1021.045	53.96
1021.396	54.2
1021.747	54.33
1022.098	54.34
1022.449	53.95
1022.8	53.96
1023.151	53.67
1023.501	53.06
1023.852	53.03
1024.202	52.94
1024.553	52.47
1024.903	52.41
1025.253	52.14
1025.604	51.78
1025.954	51.28
1026.304	51.65
1026.654	51.55
1027.004	52.11
1027.354	52.16
1027.703	51.81
1028.053	51.61
1028.403	51.52
1028.753	51.57
1029.102	51.23
1029.452	50.85
1029.801	50.56
1030.15	50.04
1030.499	49.81
897.758	822.52
901.051	827.38
904.343	834.97
907.636	823.93
910.928	809.68
914.22	825.95
917.511	813.27
920.803	772.83
924.094	740.62
927.384	743.16
930.675	723.52
933.965	715.09
937.255	715.68
940.544	684.79
943.834	647.45
947.123	637.98
950.411	601.82
953.7	589.26
956.988	575.49
960.276	550.24
963.563	539.19
966.851	511.81
970.138	501.11
973.424	467.23
976.711	460.82
979.997	449
983.283	439.91
986.568	425.57
989.853	411.21
993.138	395.83
996.423	390.15
999.708	380.01
1002.992	380.38
1006.275	367.66
1009.559	365.85
1012.842	354.5
1016.125	341.19
1019.408	333.79
1022.69	331.24
1025.972	328.87
1029.254	319.72
1032.536	313.7
1035.817	303.09
1039.098	297.56
1042.379	291.78
1045.659	285.87
1048.939	283.39
1052.219	281.17
1055.498	273.93
1058.778	268.85
1062.057	264.26
1065.335	263.36
1068.614	259.15
1071.892	255.88
1075.17	250.62
1078.447	246.89
1081.724	245.48
1085.001	240.08
1088.278	238.48
1091.554	239.21
1094.83	237.02
1098.106	232.78
1101.382	231.55
1104.657	230.79
1107.932	230.08
1111.206	229.68
1114.481	226.64
1117.755	223.42
1121.029	223.67
1124.302	220.39
1127.575	215.81
1130.848	215.09
1134.121	212.41
1137.393	211.89
1140.665	208.52
1143.937	206.64
1147.208	202.62
1150.48	201.55
1153.75	201.46
1157.021	198.4
1160.291	197.38
1163.561	197.38
1166.831	194.62
1170.101	194.96
1173.37	192.33
1176.639	191.39
1179.907	191.27
1183.176	191.08
1186.444	191.17
1189.711	190.45
1192.979	192.58
1196.246	192.94
1199.513	191.21
1202.78	192.83
1206.046	192.69
1209.312	193.96
1212.578	195.15
1215.843	197.82
1219.108	199.2
1222.373	202.86
1225.638	205.61
1228.902	210.73
1232.166	216.59
1235.43	220.91
1238.693	227.28
1241.956	232.46
1245.219	239.81
1248.482	240.03
1251.744	239.47
1255.006	240.56
1258.268	234.62
1261.529	232.51
1264.79	225.13
1268.051	221.01
1271.312	218.39
1274.572	213.54
1277.832	206.59
1281.092	203.97
1284.351	200.82
1287.61	200.46
1290.869	199.56
1294.128	198.88
1297.386	196.91
1300.644	196.33
1303.902	195.73
1307.159	194.49
1310.416	195.82
1313.673	200.15
1316.93	200.72
1320.186	203.98
1323.442	206.11
1326.697	210.1
1329.953	211.35
1333.208	219.9
1336.463	229.86
1339.717	233.86
1342.972	246.08
1346.226	252.9
1349.479	254.72
1352.733	266.32
1355.986	271.29
1359.238	277.9
1362.491	281.3
1365.743	293.3
1368.995	294.34
1372.247	288.19
1375.498	287.34
1378.749	298.01
1382	298.21
1385.251	297.96
1388.501	296.78
1391.751	301.64
1395	299.07
1398.25	299.89
1401.499	299.18
1404.748	298.73
1407.996	298.55
1411.244	299.04
1414.492	293.47
1417.74	284.29
1420.987	278.58
1424.234	273.72
1427.481	262.02
1430.728	256.99
1433.974	248.6
1437.22	237.29
1440.465	229.54
1443.711	221.79
1446.956	215.59
1450.201	206.5
1453.445	197.69
1456.689	191.31
1459.933	184.91
1463.177	178.38
1466.42	174.29
1469.663	168.31
1472.906	165.12
1476.148	160.02
1479.391	156.04
1482.633	153.29
1485.874	150.03
1489.115	148.55
1492.356	145.83
1495.597	143.72
1498.838	142.67
1502.078	140.63
1505.318	140.79
1508.557	139.26
1511.797	137.76
1515.036	137.1
1518.274	136.23
1521.513	134.51
1524.751	134.01
1527.989	134.87
1531.227	134.22
1534.464	133.73
1537.701	132.65
1540.938	131.79
1544.174	131.97
1547.41	131.87
1550.646	131.83
1553.882	131.43
1557.117	131.14
1560.352	130.45
1563.587	129.09
1566.821	129.13
1570.055	127.65
1573.289	127.51
1576.523	127.62
1579.756	126.98
1582.989	127.21
1586.222	126.49
1589.454	126.1
1592.686	125.99
1595.918	125.93
1599.15	125.8
1602.381	125.84
1605.612	126.3
1608.843	126.49
1612.073	126.57
1615.303	126.5
1618.533	126.4
1621.762	127.09
1624.992	127.29
1628.221	127.55
1631.449	127.69
1634.678	127.47
1637.906	126.79
1641.134	127.36
1644.361	127.39
1647.588	127.25
1650.815	127.77
1654.042	127.4
1657.269	127.22
1660.495	127.73
1663.72	127.36
1666.946	128.14
1670.171	128.73
1673.396	129.76
1676.621	130.53
1679.845	130.06
1683.069	130.21
1686.293	129.69
1689.517	130.71
1692.74	130.95
1695.963	131.07
1699.185	132.58
1702.408	131.66
1705.63	131.69
1708.852	132.6
1712.073	131.68
1715.294	132.33
1718.515	133.04
1721.736	133.8
1724.956	133.32
1728.176	133.03
1731.396	134.11
1734.616	133.57
1737.835	134.36
1741.054	134.37
1744.272	133.76
1747.491	134.25
1750.709	134.97
1753.927	135.02
1757.144	134.74
1760.361	135.45
1763.578	136.34
1766.795	136.33
1770.011	136.47
1773.227	137.43
1776.443	138.82
1779.658	139.83
1782.874	140.49
1786.089	141.14
1789.303	141.51
1792.518	143
1795.732	144.18
1798.945	145.75
1802.159	145.86
1805.372	148.37
1808.585	148.97
1811.797	149.67
1815.01	150.88
1818.222	152.42
1821.434	152.27
1824.645	153.61
1827.856	156.03
1831.067	157.16
1834.278	157.59
1837.488	159.15
1840.698	160.54
1843.908	161.07
1847.117	163.28
1850.326	164.49
1853.535	164.17
1856.744	167.16
1859.952	169.02
1863.16	169.18
1866.368	167.75
1869.575	170.57
1872.782	169.57
1875.989	168.21
1879.196	167.57
1882.402	166.25
1885.608	167.22
1888.814	168.3
1892.019	169.94
1895.224	167.54
1898.429	168.06
1901.634	170.3
1904.838	169.56
1908.042	172.22
1911.246	171.56
1914.449	173.2
1917.652	172.74
1920.855	172.94
1924.058	172.29
1927.26	171.27
1930.462	172.49
1933.664	173.17
1936.865	172.01
1940.066	170.21
1943.267	168.57
1946.467	170.97
1949.668	170.82
1952.868	171.2
1956.067	170.41
1959.267	171.37
1962.466	172.12
1965.665	174.5
1968.863	174.36
1972.061	175.75
1975.259	180.69
1978.457	181.48
1981.654	182
1984.852	183.87
1988.048	186.51
1991.245	189.59
1994.441	193.3
1997.637	197.04
2000.833	199.82
2004.028	201.18
2007.223	209.6
2010.418	211.89
2013.613	221.6
2016.807	228.53
2020.001	233.06
2023.194	238.77
2026.388	247.87
2029.581	259.51
2032.774	268.03
2035.966	276.13
2039.158	286.08
2042.35	288.24
2045.542	294.16
2048.733	306.25
2051.924	310.08
2055.115	314.9
2058.306	319.02
2061.496	324.67
2064.686	324.73
2067.875	319.81
2071.065	323.24
2074.254	325.15
2077.442	334.22
2080.631	336.77
2083.819	337.34
2087.007	343.39
2090.195	349.15
2093.382	348.74
2096.569	348.58
2099.756	354.32
2102.942	364.82
2106.128	373.78
2109.314	374.66
2112.5	374.9
2115.685	372.47
2118.87	372.48
2122.055	374.89
2125.239	383.1
2128.424	392.38
2131.608	390.02
2134.791	391.71
2137.974	391.29
2141.157	392.56
2144.34	396.21
2147.523	401.82
2150.705	414.05
2153.887	409.74
2157.068	414.36
2160.25	415.02
2163.431	413.05
2166.611	422.1
2169.792	426.61
2172.972	434.91
2176.152	434.06
2179.331	444.1
2182.511	445.14
2185.69	449.85
2188.868	468.19
2192.047	478.1
2195.225	486.13
2198.403	498.36
2201.58	487.64
2204.758	504.51
2207.935	507.72
2211.111	522.55
2214.288	524.44
2217.464	530.85
2220.64	533.42
2223.815	537.3
2226.991	528.01
2230.166	533.57
2233.34	547.69
2236.515	567.05
2239.689	559.13
2242.863	569.22
2246.036	559.06
2249.209	577.16
2252.382	576.14
2255.555	598.39
2258.727	600.05
2261.9	621.36
2265.071	629.35
2268.243	619.57
2271.414	638.67
2274.585	654.74
2277.756	654.72
2280.926	682.84
2284.096	680.37
2287.266	681.86
2290.436	666.4
2293.605	683.91
2296.774	704.6
2299.942	705.42
2303.111	731.61
2306.279	745.99
2309.447	746.94
2312.614	748.37
2315.781	766.8
2318.948	767.94
2322.115	787.11
2325.281	827.26
2328.447	820.59
2331.613	823.67
2334.779	836.85
2337.944	846.28
2341.109	860.46
2344.274	869.1
2347.438	898.59
2350.602	905.22
2353.766	971.47
2356.929	972.25
2360.092	988.03
2363.255	994.33
2366.418	1013.66
2369.58	1035.27
2372.742	1029.12
2375.904	1022.96
2379.066	1053.71
2382.227	1106.73
2385.388	1115.98
2388.548	1059.87
2391.709	1050.99
2394.869	1082.3
2398.029	1080.35
2401.188	1081.76
2404.347	1116.39
2407.506	1161.29
2410.665	1116.6
2413.823	1117.58
2416.981	1117.3
2420.139	1055.58
2423.296	1136.52
2426.453	1210.84
2429.61	1158.39
2432.767	1240.86
2435.923	1279.61
2439.079	1216.65
2442.235	1243.38
2445.391	1276.4
2448.546	1268.17
2451.701	1346.24
2454.855	1442.9
2458.009	1272.69
2461.163	1300.15
2464.317	1305.74
2467.471	1278.52
2470.624	1319.43
2473.777	1309.61
2476.929	1266.99
2480.082	1351.2
2483.234	1418.12
2486.385	1435.39
2489.537	1470.41
2492.688	1627.72
2495.839	1594.68
2498.989	1650.42
2502.14	1654.71
2505.29	1574.43
2508.439	1756.56
2511.589	1807.54
2514.738	1750.92
2517.887	1732.36
2521.035	1616.46
2524.183	1590.37
2527.331	1574.03
2530.479	1533.13
2533.627	1566.13
