Data from N_2_hir_il_4n_053_Splice17_20.txt Node
Date: Sat Feb 29 13:58:24 EST 2020
User: sa697716
Spectrometer: FLMS03696
Trigger mode: 0
Integration Time (sec): 3.180400E-1
Scans to average: 20
Electric dark correction enabled: true
Nonlinearity correction enabled: true
Boxcar width: 5
XAxis mode: Wavelengths
Number of Pixels in Spectrum: 2048
>>>>>Begin Spectral Data<<<<<
187.83	120.07
188.298	104.05
188.766	98.64
189.233	89.99
189.701	105.49
190.169	105.29
190.636	103.98
191.104	90.61
191.571	162.81
192.039	249.74
192.506	-444.9
192.974	3732.64
193.441	358.1
193.908	13.22
194.375	-42.86
194.842	137.39
195.31	99.73
195.777	109.7
196.244	46.52
196.711	27
197.177	22.22
197.644	20.76
198.111	19.63
198.578	19.25
199.045	20.04
199.511	19.59
199.978	19.56
200.445	19.54
200.911	19.69
201.378	19.57
201.844	20.13
202.31	20.84
202.777	21.62
203.243	22.08
203.709	22.5
204.176	22.23
204.642	22.94
205.108	22.69
205.574	23.01
206.04	23.09
206.506	23.27
206.972	22.88
207.438	22.59
207.903	22.47
208.369	22.07
208.835	22.14
209.301	21.96
209.766	21.68
210.232	21.66
210.697	21.68
211.163	21.42
211.628	20.92
212.094	20.99
212.559	21.16
213.024	20.83
213.49	20.46
213.955	20.17
214.42	19.78
214.885	19.34
215.35	19.05
215.815	18.45
216.28	17.87
216.745	17.51
217.21	16.66
217.675	15.96
218.14	15.19
218.604	14.59
219.069	14.16
219.534	13.77
219.998	13.35
220.463	13.02
220.927	12.67
221.392	12.38
221.856	12.1
222.32	11.89
222.785	11.67
223.249	11.54
223.713	11.41
224.177	11.21
224.642	11.08
225.106	10.94
225.57	10.78
226.034	10.64
226.497	10.51
226.961	10.37
227.425	10.21
227.889	10.07
228.353	9.92
228.816	9.8
229.28	9.67
229.744	9.54
230.207	9.44
230.671	9.31
231.134	9.21
231.597	9.08
232.061	8.98
232.524	8.91
232.987	8.82
233.45	8.71
233.914	8.61
234.377	8.53
234.84	8.44
235.303	8.34
235.766	8.26
236.229	8.17
236.691	8.12
237.154	8.03
237.617	7.93
238.08	7.83
238.542	7.78
239.005	7.7
239.468	7.61
239.93	7.54
240.393	7.47
240.855	7.4
241.317	7.33
241.78	7.26
242.242	7.18
242.704	7.12
243.166	7.07
243.629	7
244.091	6.95
244.553	6.89
245.015	6.84
245.477	6.77
245.939	6.71
246.4	6.65
246.862	6.6
247.324	6.57
247.786	6.51
248.247	6.48
248.709	6.42
249.17	6.38
249.632	6.34
250.093	6.27
250.555	6.23
251.016	6.18
251.477	6.15
251.939	6.11
252.4	6.07
252.861	6.03
253.322	5.97
253.783	5.94
254.244	5.9
254.705	5.87
255.166	5.85
255.627	5.82
256.088	5.8
256.549	5.77
257.009	5.73
257.47	5.7
257.931	5.67
258.391	5.64
258.852	5.61
259.312	5.57
259.773	5.54
260.233	5.51
260.694	5.47
261.154	5.44
261.614	5.41
262.074	5.39
262.534	5.34
262.994	5.32
263.455	5.29
263.915	5.26
264.374	5.23
264.834	5.2
265.294	5.18
265.754	5.15
266.214	5.13
266.673	5.12
267.133	5.09
267.593	5.08
268.052	5.05
268.512	5.03
268.971	5.02
269.431	5
269.89	4.99
270.349	4.98
270.809	4.97
271.268	4.95
271.727	4.93
272.186	4.92
272.645	4.9
273.104	4.89
273.563	4.88
274.022	4.86
274.481	4.85
274.94	4.82
275.399	4.8
275.857	4.78
276.316	4.76
276.775	4.74
277.233	4.72
277.692	4.71
278.15	4.69
278.609	4.66
279.067	4.64
279.525	4.62
279.984	4.61
280.442	4.6
280.9	4.59
281.358	4.57
281.816	4.56
282.274	4.55
282.732	4.53
283.19	4.52
283.648	4.51
284.106	4.5
284.564	4.5
285.021	4.48
285.479	4.47
285.937	4.45
286.394	4.43
286.852	4.42
287.309	4.41
287.767	4.4
288.224	4.38
288.682	4.37
289.139	4.35
289.596	4.33
290.053	4.3
290.511	4.28
290.968	4.27
291.425	4.26
291.882	4.23
292.339	4.21
292.796	4.18
293.252	4.17
293.709	4.14
294.166	4.12
294.623	4.11
295.079	4.1
295.536	4.09
295.992	4.07
296.449	4.07
296.905	4.06
297.362	4.05
297.818	4.04
298.274	4.04
298.731	4.03
299.187	4.02
299.643	4.01
300.099	4.01
300.555	3.99
301.011	3.97
301.467	3.96
301.923	3.94
302.379	3.94
302.835	3.93
303.291	3.92
303.746	3.91
304.202	3.89
304.658	3.89
305.113	3.88
305.569	3.87
306.024	3.86
306.479	3.85
306.935	3.84
307.39	3.83
307.845	3.82
308.301	3.82
308.756	3.81
309.211	3.81
309.666	3.8
310.121	3.8
310.576	3.78
311.031	3.78
311.486	3.78
311.94	3.77
312.395	3.77
312.85	3.76
313.305	3.75
313.759	3.75
314.214	3.75
314.668	3.74
315.123	3.73
315.577	3.73
316.032	3.73
316.486	3.72
316.94	3.71
317.394	3.7
317.849	3.69
318.303	3.68
318.757	3.67
319.211	3.65
319.665	3.65
320.119	3.64
320.572	3.63
321.026	3.62
321.48	3.61
321.934	3.61
322.387	3.6
322.841	3.59
323.295	3.59
323.748	3.58
324.202	3.58
324.655	3.57
325.108	3.55
325.562	3.54
326.015	3.52
326.468	3.51
326.921	3.5
327.374	3.49
327.827	3.49
328.28	3.49
328.733	3.47
329.186	3.46
329.639	3.46
330.092	3.46
330.545	3.46
330.997	3.47
331.45	3.47
331.903	3.46
332.355	3.45
332.808	3.44
333.26	3.43
333.713	3.43
334.165	3.43
334.617	3.42
335.069	3.42
335.522	3.42
335.974	3.41
336.426	3.41
336.878	3.41
337.33	3.42
337.782	3.42
338.234	3.43
338.686	3.42
339.137	3.42
339.589	3.42
340.041	3.41
340.493	3.39
340.944	3.37
341.396	3.38
341.847	3.37
342.299	3.34
342.75	3.32
343.201	3.31
343.653	3.29
344.104	3.28
344.555	3.27
345.006	3.27
345.457	3.26
345.908	3.25
346.359	3.24
346.81	3.24
347.261	3.24
347.712	3.23
348.163	3.23
348.613	3.22
349.064	3.21
349.515	3.19
349.965	3.18
350.416	3.18
350.866	3.17
351.317	3.17
351.767	3.17
352.217	3.15
352.668	3.16
353.118	3.15
353.568	3.15
354.018	3.15
354.468	3.15
354.918	3.16
355.368	3.16
355.818	3.15
356.268	3.15
356.718	3.15
357.168	3.14
357.617	3.13
358.067	3.12
358.517	3.12
358.966	3.12
359.416	3.12
359.865	3.11
360.315	3.11
360.764	3.11
361.213	3.1
361.663	3.1
362.112	3.11
362.561	3.11
363.01	3.12
363.459	3.11
363.908	3.11
364.357	3.11
364.806	3.11
365.255	3.11
365.703	3.11
366.152	3.11
366.601	3.11
367.05	3.11
367.498	3.11
367.947	3.11
368.395	3.12
368.844	3.12
369.292	3.12
369.74	3.11
370.189	3.1
370.637	3.09
371.085	3.09
371.533	3.08
371.981	3.08
372.429	3.06
372.877	3.05
373.325	3.03
373.773	3.02
374.221	3.02
374.669	3.02
375.116	3.02
375.564	3.02
376.012	3.03
376.459	3.03
376.907	3.03
377.354	3.03
377.801	3.04
378.249	3.06
378.696	3.08
379.143	3.08
379.591	3.08
380.038	3.09
380.485	3.09
380.932	3.08
381.379	3.08
381.826	3.08
382.273	3.09
382.72	3.09
383.166	3.08
383.613	3.08
384.06	3.08
384.506	3.09
384.953	3.1
385.4	3.09
385.846	3.11
386.292	3.11
386.739	3.12
387.185	3.13
387.631	3.14
388.078	3.15
388.524	3.15
388.97	3.16
389.416	3.17
389.862	3.18
390.308	3.19
390.754	3.21
391.2	3.23
391.645	3.24
392.091	3.26
392.537	3.27
392.983	3.29
393.428	3.3
393.874	3.33
394.319	3.34
394.765	3.36
395.21	3.37
395.655	3.39
396.101	3.41
396.546	3.42
396.991	3.43
397.436	3.43
397.881	3.45
398.326	3.48
398.771	3.5
399.216	3.52
399.661	3.54
400.106	3.57
400.551	3.58
400.995	3.58
401.44	3.6
401.885	3.62
402.329	3.64
402.774	3.65
403.218	3.67
403.663	3.67
404.107	3.68
404.551	3.7
404.995	3.72
405.44	3.74
405.884	3.76
406.328	3.78
406.772	3.8
407.216	3.82
407.66	3.83
408.104	3.84
408.547	3.86
408.991	3.88
409.435	3.89
409.879	3.89
410.322	3.91
410.766	3.93
411.209	3.95
411.653	3.95
412.096	3.96
412.54	3.99
412.983	4.01
413.426	4.03
413.869	4.05
414.312	4.08
414.756	4.11
415.199	4.13
415.642	4.16
416.085	4.19
416.527	4.22
416.97	4.24
417.413	4.24
417.856	4.23
418.298	4.23
418.741	4.24
419.184	4.23
419.626	4.23
420.069	4.23
420.511	4.22
420.953	4.22
421.396	4.24
421.838	4.25
422.28	4.28
422.722	4.3
423.164	4.32
423.606	4.35
424.048	4.35
424.49	4.36
424.932	4.37
425.374	4.37
425.816	4.36
426.258	4.35
426.699	4.34
427.141	4.33
427.582	4.32
428.024	4.32
428.465	4.31
428.907	4.32
429.348	4.32
429.789	4.34
430.231	4.35
430.672	4.37
431.113	4.39
431.554	4.41
431.995	4.43
432.436	4.43
432.877	4.43
433.318	4.42
433.759	4.44
434.2	4.44
434.64	4.45
435.081	4.43
435.522	4.44
435.962	4.44
436.403	4.46
436.843	4.45
437.284	4.47
437.724	4.49
438.164	4.5
438.604	4.51
439.045	4.52
439.485	4.53
439.925	4.53
440.365	4.53
440.805	4.52
441.245	4.5
441.685	4.53
442.125	4.54
442.564	4.55
443.004	4.58
443.444	4.59
443.883	4.6
444.323	4.58
444.762	4.61
445.202	4.64
445.641	4.67
446.081	4.69
446.52	4.7
446.959	4.71
447.398	4.72
447.837	4.75
448.276	4.76
448.716	4.77
449.154	4.81
449.593	4.84
450.032	4.85
450.471	4.86
450.91	4.86
451.349	4.87
451.787	4.87
452.226	4.85
452.664	4.84
453.103	4.84
453.541	4.84
453.98	4.81
454.418	4.78
454.856	4.76
455.295	4.74
455.733	4.73
456.171	4.73
456.609	4.72
457.047	4.71
457.485	4.71
457.923	4.71
458.361	4.7
458.798	4.71
459.236	4.72
459.674	4.72
460.111	4.73
460.549	4.72
460.987	4.71
461.424	4.72
461.862	4.71
462.299	4.71
462.736	4.71
463.173	4.71
463.611	4.7
464.048	4.69
464.485	4.69
464.922	4.68
465.359	4.7
465.796	4.7
466.233	4.71
466.67	4.74
467.106	4.73
467.543	4.73
467.98	4.72
468.416	4.74
468.853	4.75
469.29	4.75
469.726	4.75
470.162	4.73
470.599	4.72
471.035	4.71
471.471	4.69
471.907	4.69
472.344	4.68
472.78	4.67
473.216	4.65
473.652	4.64
474.088	4.64
474.523	4.63
474.959	4.64
475.395	4.63
475.831	4.65
476.266	4.63
476.702	4.64
477.138	4.64
477.573	4.65
478.008	4.65
478.444	4.65
478.879	4.65
479.314	4.64
479.75	4.64
480.185	4.63
480.62	4.61
481.055	4.62
481.49	4.6
481.925	4.59
482.36	4.58
482.795	4.57
483.229	4.56
483.664	4.56
484.099	4.56
484.534	4.55
484.968	4.55
485.403	4.55
485.837	4.55
486.271	4.55
486.706	4.55
487.14	4.56
487.574	4.57
488.009	4.59
488.443	4.59
488.877	4.6
489.311	4.61
489.745	4.63
490.179	4.64
490.613	4.65
491.046	4.67
491.48	4.69
491.914	4.7
492.348	4.72
492.781	4.72
493.215	4.74
493.648	4.77
494.082	4.8
494.515	4.82
494.948	4.85
495.382	4.88
495.815	4.91
496.248	4.95
496.681	4.99
497.114	5.03
497.547	5.08
497.98	5.13
498.413	5.18
498.846	5.23
499.279	5.29
499.711	5.34
500.144	5.41
500.577	5.47
501.009	5.53
501.442	5.6
501.874	5.67
502.306	5.75
502.739	5.83
503.171	5.92
503.603	6.01
504.036	6.11
504.468	6.21
504.9	6.32
505.332	6.42
505.764	6.55
506.196	6.68
506.627	6.8
507.059	6.93
507.491	7.07
507.923	7.21
508.354	7.36
508.786	7.51
509.217	7.67
509.649	7.85
510.08	8.03
510.512	8.2
510.943	8.39
511.374	8.59
511.805	8.78
512.237	8.99
512.668	9.2
513.099	9.42
513.53	9.65
513.961	9.88
514.391	10.09
514.822	10.32
515.253	10.58
515.684	10.81
516.114	11.07
516.545	11.32
516.975	11.59
517.406	11.85
517.836	12.13
518.267	12.4
518.697	12.66
519.127	12.94
519.558	13.22
519.988	13.49
520.418	13.74
520.848	14
521.278	14.29
521.708	14.43
522.138	14.67
522.567	14.9
522.997	15.15
523.427	15.4
523.857	15.64
524.286	15.87
524.716	16.09
525.145	16.34
525.575	16.57
526.004	16.77
526.433	17.1
526.863	17.33
527.292	17.53
527.721	17.7
528.15	17.88
528.579	18.06
529.008	18.23
529.437	18.4
529.866	18.53
530.295	18.66
530.724	18.83
531.152	18.96
531.581	19.07
532.01	19.19
532.438	19.32
532.867	19.44
533.295	19.53
533.723	19.64
534.152	19.73
534.58	19.82
535.008	19.89
535.436	19.95
535.865	20.01
536.293	20.11
536.721	20.18
537.149	20.23
537.576	20.27
538.004	20.32
538.432	20.36
538.86	20.41
539.287	20.46
539.715	20.53
540.143	20.55
540.57	20.59
540.998	20.62
541.425	20.65
541.852	20.69
542.28	20.71
542.707	20.76
543.134	20.79
543.561	20.8
543.988	20.83
544.415	20.83
544.842	20.85
545.269	20.87
545.696	20.88
546.123	20.9
546.549	20.92
546.976	20.96
547.403	20.98
547.829	21.01
548.256	21.04
548.682	21.05
549.108	21.08
549.535	21.11
549.961	21.12
550.387	21.13
550.813	21.12
551.24	21.1
551.666	21.1
552.092	21.09
552.518	21.06
552.943	21.06
553.369	21.04
553.795	21.03
554.221	20.98
554.646	20.96
555.072	20.93
555.498	20.9
555.923	20.84
556.349	20.76
556.774	20.69
557.199	20.63
557.625	20.54
558.05	20.45
558.475	20.34
558.9	20.26
559.325	20.14
559.75	20.03
560.175	19.93
560.6	19.82
561.025	19.71
561.449	19.59
561.874	19.46
562.299	19.34
562.723	19.21
563.148	19.08
563.572	18.95
563.997	18.83
564.421	18.67
564.846	18.51
565.27	18.35
565.694	18.2
566.118	18.06
566.542	17.91
566.966	17.75
567.39	17.58
567.814	17.42
568.238	17.25
568.662	17.08
569.086	16.92
569.509	16.76
569.933	16.61
570.357	16.45
570.78	16.3
571.204	16.13
571.627	15.97
572.05	15.83
572.474	15.68
572.897	15.54
573.32	15.39
573.743	15.26
574.166	15.13
574.589	15.01
575.012	14.88
575.435	14.74
575.858	14.63
576.281	14.51
576.704	14.4
577.126	14.27
577.549	14.18
577.972	14.08
578.394	13.99
578.817	13.9
579.239	13.81
579.661	13.72
580.084	13.63
580.506	13.54
580.928	13.45
581.35	13.36
581.772	13.31
582.194	13.22
582.616	13.14
583.038	13.05
583.46	12.98
583.882	12.9
584.303	12.83
584.725	12.75
585.147	12.69
585.568	12.63
585.99	12.58
586.411	12.52
586.833	12.47
587.254	12.41
587.675	12.37
588.096	12.32
588.518	12.27
588.939	12.23
589.36	12.21
589.781	12.15
590.202	12.12
590.623	12.06
591.043	12.01
591.464	11.98
591.885	11.95
592.305	11.94
592.726	11.9
593.147	11.86
593.567	11.82
593.987	11.79
594.408	11.76
594.828	11.72
595.248	11.71
595.669	11.7
596.089	11.66
596.509	11.61
596.929	11.56
597.349	11.53
597.769	11.5
598.189	11.47
598.608	11.43
599.028	11.4
599.448	11.35
599.867	11.31
600.287	11.24
600.706	11.19
601.126	11.15
601.545	11.12
601.965	11.07
602.384	11.03
602.803	10.97
603.222	10.91
603.641	10.86
604.061	10.82
604.48	10.77
604.898	10.72
605.317	10.66
605.736	10.61
606.155	10.54
606.574	10.47
606.992	10.39
607.411	10.35
607.829	10.25
608.248	10.18
608.666	10.11
609.085	10.05
609.503	9.99
609.921	9.93
610.339	9.86
610.758	9.8
611.176	9.74
611.594	9.68
612.012	9.6
612.43	9.58
612.847	9.52
613.265	9.46
613.683	9.38
614.101	9.31
614.518	9.25
614.936	9.19
615.353	9.12
615.771	9.06
616.188	9.02
616.606	8.97
617.023	8.9
617.44	8.85
617.857	8.79
618.274	8.76
618.691	8.72
619.108	8.68
619.525	8.65
619.942	8.62
620.359	8.6
620.776	8.56
621.192	8.53
621.609	8.52
622.026	8.49
622.442	8.48
622.859	8.46
623.275	8.45
623.691	8.43
624.108	8.43
624.524	8.41
624.94	8.38
625.356	8.37
625.772	8.36
626.188	8.35
626.604	8.34
627.02	8.33
627.436	8.31
627.852	8.3
628.268	8.3
628.683	8.27
629.099	8.25
629.514	8.25
629.93	8.23
630.345	8.2
630.761	8.18
631.176	8.16
631.591	8.13
632.007	8.1
632.422	8.07
632.837	8.02
633.252	7.98
633.667	7.94
634.082	7.89
634.497	7.83
634.911	7.78
635.326	7.72
635.741	7.65
636.155	7.59
636.57	7.53
636.984	7.46
637.399	7.38
637.813	7.29
638.228	7.22
638.642	7.14
639.056	7.06
639.47	6.98
639.884	6.9
640.298	6.82
640.712	6.74
641.126	6.65
641.54	6.57
641.954	6.52
642.368	6.45
642.781	6.38
643.195	6.3
643.609	6.23
644.022	6.16
644.436	6.1
644.849	6.02
645.262	5.97
645.676	5.9
646.089	5.83
646.502	5.76
646.915	5.72
647.328	5.67
647.741	5.62
648.154	5.59
648.567	5.57
648.98	5.53
649.393	5.51
649.805	5.47
650.218	5.45
650.631	5.44
651.043	5.42
651.456	5.4
651.868	5.37
652.28	5.34
652.693	5.31
653.105	5.28
653.517	5.24
653.929	5.22
654.341	5.19
654.753	5.16
655.165	5.13
655.577	5.08
655.989	5.05
656.401	5
656.813	4.96
657.224	4.93
657.636	4.9
658.047	4.86
658.459	4.81
658.87	4.77
659.282	4.74
659.693	4.69
660.104	4.65
660.515	4.6
660.926	4.58
661.338	4.54
661.749	4.5
662.159	4.44
662.57	4.43
662.981	4.39
663.392	4.35
663.803	4.32
664.213	4.3
664.624	4.29
665.035	4.26
665.445	4.24
665.855	4.23
666.266	4.23
666.676	4.23
667.086	4.21
667.497	4.2
667.907	4.19
668.317	4.18
668.727	4.18
669.137	4.17
669.547	4.19
669.956	4.2
670.366	4.21
670.776	4.21
671.186	4.22
671.595	4.22
672.005	4.24
672.414	4.25
672.824	4.28
673.233	4.29
673.642	4.3
674.052	4.3
674.461	4.32
674.87	4.33
675.279	4.35
675.688	4.36
676.097	4.4
676.506	4.42
676.915	4.45
677.323	4.46
677.732	4.5
678.141	4.53
678.549	4.57
678.958	4.6
679.366	4.63
679.775	4.67
680.183	4.71
680.592	4.75
681	4.79
681.408	4.83
681.816	4.87
682.224	4.92
682.632	4.99
683.04	5.05
683.448	5.11
683.856	5.2
684.264	5.28
684.671	5.39
685.079	5.48
685.487	5.61
685.894	5.75
686.302	5.91
686.709	6.08
687.116	6.25
687.524	6.45
687.931	6.69
688.338	6.94
688.745	7.2
689.152	7.49
689.559	7.81
689.966	8.14
690.373	8.51
690.78	8.9
691.187	9.3
691.593	9.72
692	10.17
692.407	10.65
692.813	11.13
693.22	11.64
693.626	12.15
694.032	12.7
694.439	13.26
694.845	13.8
695.251	14.38
695.657	14.95
696.063	15.57
696.469	16.18
696.875	16.78
697.281	17.37
697.687	17.99
698.093	18.6
698.498	19.22
698.904	19.84
699.31	20.44
699.715	21.06
700.12	21.66
700.526	22.23
700.931	22.82
701.337	23.41
701.742	24.01
702.147	24.58
702.552	25.17
702.957	25.73
703.362	26.32
703.767	26.88
704.172	27.43
704.577	28
704.981	28.57
705.386	29.12
705.791	29.67
706.195	30.2
706.6	30.7
707.004	31.23
707.408	31.74
707.813	32.2
708.217	32.72
708.621	33.25
709.025	33.75
709.43	34.24
709.834	34.71
710.237	35.18
710.641	35.66
711.045	36.14
711.449	36.6
711.853	37.1
712.256	37.6
712.66	38.06
713.064	38.48
713.467	38.9
713.87	39.34
714.274	39.79
714.677	40.23
715.08	40.68
715.484	41.12
715.887	41.53
716.29	41.9
716.693	42.29
717.096	42.66
717.499	43.04
717.901	43.41
718.304	43.76
718.707	44.1
719.109	44.44
719.512	44.76
719.915	45.1
720.317	45.43
720.719	45.76
721.122	46.04
721.524	46.37
721.926	46.72
722.328	47.06
722.731	47.39
723.133	47.7
723.535	48.02
723.937	48.31
724.338	48.54
724.74	48.79
725.142	49.06
725.544	49.35
725.945	49.62
726.347	49.83
726.748	50.02
727.15	50.23
727.551	50.43
727.952	50.59
728.354	50.8
728.755	51.02
729.156	51.26
729.557	51.44
729.958	51.63
730.359	51.77
730.76	51.94
731.161	52.11
731.562	52.29
731.962	52.44
732.363	52.58
732.763	52.72
733.164	52.86
733.564	52.95
733.965	53.03
734.365	53.11
734.766	53.23
735.166	53.3
735.566	53.39
735.966	53.45
736.366	53.54
736.766	53.67
737.166	53.78
737.566	53.86
737.966	53.96
738.365	54.08
738.765	54.2
739.165	54.26
739.564	54.36
739.964	54.45
740.363	54.54
740.763	54.63
741.162	54.67
741.561	54.71
741.96	54.81
742.36	54.91
742.759	54.95
743.158	54.98
743.557	55.05
743.955	55.16
744.354	55.21
744.753	55.29
745.152	55.33
745.55	55.38
745.949	55.44
746.348	55.48
746.746	55.47
747.144	55.56
747.543	55.59
747.941	55.64
748.339	55.68
748.737	55.73
749.136	55.76
749.534	55.8
749.932	55.85
750.33	55.84
750.727	55.85
751.125	55.85
751.523	55.84
751.921	55.88
752.318	55.89
752.716	55.88
753.113	55.86
753.511	55.82
753.908	55.85
754.305	55.85
754.703	55.86
755.1	55.84
755.497	55.86
755.894	55.88
756.291	55.82
756.688	55.8
757.085	55.75
757.482	55.77
757.878	55.8
758.275	55.76
758.672	55.79
759.068	55.82
759.465	55.82
759.861	55.83
760.258	55.79
760.654	55.82
761.05	55.83
761.447	55.85
761.843	55.83
762.239	55.78
762.635	55.8
763.031	55.75
763.427	55.7
763.822	55.7
764.218	55.68
764.614	55.69
765.01	55.68
765.405	55.67
765.801	55.67
766.196	55.66
766.592	55.69
766.987	55.69
767.382	55.69
767.778	55.73
768.173	55.74
768.568	55.71
768.963	55.72
769.358	55.74
769.753	55.76
770.148	55.77
770.542	55.77
770.937	55.75
771.332	55.75
771.726	55.75
772.121	55.71
772.515	55.72
772.91	55.75
773.304	55.72
773.699	55.74
774.093	55.71
774.487	55.72
774.881	55.73
775.275	55.74
775.669	55.74
776.063	55.72
776.457	55.72
776.851	55.68
777.245	55.68
777.638	55.66
778.032	55.64
778.425	55.64
778.819	55.63
779.212	55.59
779.606	55.58
779.999	55.56
780.392	55.57
780.786	55.58
781.179	55.6
781.572	55.55
781.965	55.58
782.358	55.57
782.751	55.55
783.143	55.54
783.536	55.57
783.929	55.6
784.322	55.63
784.714	55.63
785.107	55.65
785.499	55.63
785.891	55.67
786.284	55.64
786.676	55.66
787.068	55.65
787.46	55.63
787.852	55.62
788.245	55.61
788.636	55.59
789.028	55.56
789.42	55.52
789.812	55.54
790.204	55.49
790.595	55.48
790.987	55.47
791.378	55.5
791.77	55.53
792.161	55.55
792.553	55.55
792.944	55.57
793.335	55.61
793.726	55.6
794.117	55.59
794.508	55.6
794.899	55.61
795.29	55.6
795.681	55.55
796.072	55.53
796.463	55.54
796.853	55.55
797.244	55.53
797.634	55.54
798.025	55.58
798.415	55.59
798.806	55.62
799.196	55.65
799.586	55.68
799.976	55.73
800.366	55.79
800.756	55.77
801.146	55.76
801.536	55.79
801.926	55.79
802.316	55.8
802.706	55.82
803.095	55.84
803.485	55.86
803.874	55.84
804.264	55.87
804.653	55.84
805.043	55.85
805.432	55.86
805.821	55.83
806.21	55.88
806.599	55.92
806.988	55.89
807.377	55.89
807.766	55.88
808.155	55.92
808.544	55.88
808.933	55.9
809.321	55.93
809.71	55.96
810.098	55.98
810.487	55.97
810.875	55.94
811.264	55.97
811.652	55.96
812.04	55.97
812.428	55.96
812.816	55.97
813.204	55.95
813.592	55.92
813.98	55.89
814.368	55.85
814.756	55.83
815.144	55.83
815.531	55.82
815.919	55.82
816.306	55.83
816.694	55.86
817.081	55.83
817.469	55.85
817.856	55.9
818.243	55.94
818.63	56.01
819.017	56.03
819.404	56.04
819.791	56.07
820.178	56.08
820.565	56.09
820.952	56.12
821.339	56.18
821.725	56.21
822.112	56.2
822.498	56.19
822.885	56.18
823.271	56.18
823.657	56.21
824.044	56.18
824.43	56.2
824.816	56.2
825.202	56.15
825.588	56.13
825.974	56.1
826.36	56.1
826.746	56.14
827.132	56.13
827.517	56.14
827.903	56.14
828.289	56.15
828.674	56.1
829.06	56.12
829.445	56.14
829.83	56.16
830.216	56.17
830.601	56.18
830.986	56.15
831.371	56.16
831.756	56.13
832.141	56.15
832.526	56.16
832.911	56.23
833.295	56.25
833.68	56.26
834.065	56.25
834.449	56.25
834.834	56.24
835.218	56.25
835.603	56.25
835.987	56.27
836.371	56.27
836.755	56.27
837.139	56.26
837.524	56.24
837.908	56.24
838.291	56.26
838.675	56.27
839.059	56.3
839.443	56.31
839.827	56.34
840.21	56.36
840.594	56.34
840.977	56.34
841.361	56.35
841.744	56.39
842.127	56.37
842.511	56.35
842.894	56.32
843.277	56.31
843.66	56.28
844.043	56.26
844.426	56.23
844.809	56.24
845.191	56.25
845.574	56.21
845.957	56.16
846.339	56.17
846.722	56.19
847.104	56.22
847.487	56.24
847.869	56.23
848.252	56.23
848.634	56.27
849.016	56.25
849.398	56.22
849.78	56.22
850.162	56.24
850.544	56.22
850.926	56.19
851.307	56.19
851.689	56.13
852.071	56.15
852.452	56.16
852.834	56.13
853.215	56.16
853.597	56.2
853.978	56.2
854.359	56.17
854.741	56.18
855.122	56.17
855.503	56.18
855.884	56.19
856.265	56.19
856.646	56.14
857.026	56.15
857.407	56.06
857.788	56.07
858.169	56.06
858.549	56.06
858.93	56.05
859.31	56.03
859.69	55.99
860.071	55.98
860.451	55.98
860.831	56
861.211	55.98
861.591	56.01
861.971	55.97
862.351	56
862.731	56.01
863.111	56.03
863.491	56.05
863.87	56.05
864.25	56.08
864.629	56.07
865.009	56.07
865.388	56.06
865.768	56.06
866.147	56.06
866.526	56.04
866.905	56.05
867.284	56.05
867.663	56.04
868.042	56.05
868.421	55.99
868.8	55.98
869.179	55.97
869.558	55.98
869.936	55.98
870.315	55.97
870.693	55.98
871.072	55.96
871.45	55.95
871.828	55.95
872.207	55.96
872.585	55.98
872.963	55.95
873.341	55.96
873.719	55.96
874.097	55.97
874.475	55.97
874.853	55.96
875.23	55.95
875.608	55.96
875.986	55.94
876.363	55.92
876.741	55.93
877.118	55.95
877.495	55.95
877.873	55.94
878.25	55.95
878.627	55.97
879.004	55.99
879.381	55.98
879.758	55.98
880.135	55.99
880.512	56.02
880.889	56.03
881.265	56.06
881.642	56.07
882.019	56.07
882.395	56.06
882.772	56.06
883.148	56.05
883.524	56.06
883.901	56.04
884.277	56.07
884.653	56.06
885.029	56.07
885.405	56.04
885.781	56.03
886.157	56.05
886.532	56.06
886.908	56.06
887.284	56.08
887.659	56.08
888.035	56.1
888.411	56.07
888.786	56.07
889.161	56.07
889.537	56.08
889.912	56.08
890.287	56.04
890.662	56.01
891.037	55.97
891.412	55.92
891.787	55.89
892.162	55.86
892.536	55.84
892.911	55.82
893.286	55.76
893.66	55.74
894.035	55.73
894.409	55.71
894.784	55.72
895.158	55.71
895.532	55.67
895.906	55.67
896.281	55.65
896.655	55.63
897.029	55.61
897.402	55.62
897.776	55.6
898.15	55.57
898.524	55.56
898.898	55.53
899.271	55.55
899.645	55.57
900.018	55.54
900.392	55.56
900.765	55.57
901.138	55.58
901.511	55.58
901.884	55.57
902.258	55.56
902.631	55.57
903.003	55.56
903.376	55.56
903.749	55.56
904.122	55.58
904.495	55.56
904.867	55.52
905.24	55.5
905.612	55.49
905.985	55.47
906.357	55.43
906.729	55.41
907.102	55.38
907.474	55.36
907.846	55.31
908.218	55.26
908.59	55.19
908.962	55.23
909.334	55.2
909.705	55.16
910.077	55.16
910.449	55.2
910.82	55.17
911.192	55.18
911.563	55.15
911.935	55.13
912.306	55.15
912.677	55.19
913.048	55.17
913.419	55.15
913.79	55.14
914.161	55.15
914.532	55.11
914.903	55.11
915.274	55.1
915.645	55.09
916.015	55.12
916.386	55.09
916.756	55.05
917.127	55.05
917.497	55.06
917.868	55.09
918.238	55.1
918.608	55.1
918.978	55.11
919.348	55.07
919.718	55.09
920.088	55.11
920.458	55.18
920.828	55.22
921.198	55.24
921.567	55.24
921.937	55.23
922.306	55.2
922.676	55.19
923.045	55.19
923.415	55.22
923.784	55.22
924.153	55.17
924.522	55.11
924.891	55.08
925.26	55.07
925.629	55.05
925.998	55.03
926.367	55.04
926.736	55.02
927.104	55.03
927.473	55.02
927.842	54.98
928.21	55.06
928.578	55.06
928.947	55.07
929.315	55.07
929.683	55.11
930.051	55.08
930.42	55.05
930.788	55.06
931.156	55.05
931.523	55.07
931.891	55.08
932.259	55
932.627	54.99
932.994	54.92
933.362	54.83
933.729	54.72
934.097	54.7
934.464	54.71
934.831	54.65
935.199	54.59
935.566	54.51
935.933	54.49
936.3	54.38
936.667	54.2
937.034	54.16
937.401	54.09
937.767	54.09
938.134	54.05
938.501	53.92
938.867	53.91
939.234	53.89
939.6	53.84
939.967	53.82
940.333	53.96
940.699	54.15
941.065	54.23
941.431	54.37
941.798	54.45
942.163	54.49
942.529	54.47
942.895	54.47
943.261	54.47
943.627	54.51
943.992	54.58
944.358	54.54
944.723	54.44
945.089	54.43
945.454	54.38
945.82	54.3
946.185	54.36
946.55	54.55
946.915	54.58
947.28	54.56
947.645	54.51
948.01	54.46
948.375	54.42
948.74	54.44
949.104	54.44
949.469	54.42
949.834	54.37
950.198	54.23
950.562	54.13
950.927	54.08
951.291	54.05
951.655	54.05
952.02	54.02
952.384	54.03
952.748	54.04
953.112	54.01
953.476	53.96
953.839	53.95
954.203	54
954.567	54.02
954.931	53.98
955.294	53.99
955.658	53.99
956.021	53.95
956.385	53.96
956.748	53.95
957.111	53.91
957.474	53.88
957.837	53.91
958.2	53.86
958.563	53.79
958.926	53.72
959.289	53.76
959.652	53.66
960.015	53.69
960.377	53.64
960.74	53.55
961.102	53.55
961.465	53.61
961.827	53.49
962.189	53.49
962.552	53.44
962.914	53.43
963.276	53.38
963.638	53.39
964	53.32
964.362	53.31
964.724	53.32
965.085	53.29
965.447	53.2
965.809	53.15
966.17	53.13
966.532	53.25
966.893	53.26
967.255	53.16
967.616	53.23
967.977	53.25
968.338	53.18
968.699	53.21
969.061	53.18
969.421	53.19
969.782	53.32
970.143	53.26
970.504	53.15
970.865	53.04
971.225	53.11
971.586	53.04
971.946	53.05
972.307	53.08
972.667	53.03
973.027	53.04
973.388	53.05
973.748	53.05
974.108	53.1
974.468	53.13
974.828	53.23
975.188	53.26
975.548	53.29
975.907	53.22
976.267	53.25
976.627	53.24
976.986	53.22
977.346	53.18
977.705	53.16
978.064	53.17
978.424	53.2
978.783	53.22
979.142	53.09
979.501	53
979.86	53.05
980.219	52.95
980.578	52.96
980.937	53
981.296	53.01
981.654	52.99
982.013	52.99
982.371	52.93
982.73	52.98
983.088	52.99
983.447	53.12
983.805	53.06
984.163	53.08
984.521	53
984.879	53.06
985.237	53.08
985.595	53.12
985.953	53.12
986.311	53.13
986.669	53.02
987.026	53.08
987.384	53
987.741	53.06
988.099	53.08
988.456	53.09
988.814	53.01
989.171	52.98
989.528	52.9
989.885	52.77
990.242	52.77
990.599	52.77
990.956	52.76
991.313	52.79
991.67	52.82
992.027	52.8
992.383	52.89
992.74	53.01
993.096	53.02
993.453	53.04
993.809	53.15
994.165	52.99
994.522	53.01
994.878	52.99
995.234	52.99
995.59	52.8
995.946	52.81
996.302	52.7
996.658	52.56
997.013	52.54
997.369	52.47
997.725	52.39
998.08	52.52
998.436	52.55
998.791	52.43
999.147	52.35
999.502	52.38
999.857	52.36
1000.212	52.26
1000.567	52.3
1000.922	52.26
1001.277	52.22
1001.632	52.38
1001.987	52.35
1002.342	52.35
1002.696	52.37
1003.051	52.3
1003.406	52.3
1003.76	52.33
1004.114	52.43
1004.469	52.36
1004.823	52.3
1005.177	52.4
1005.531	52.08
1005.885	52.17
1006.239	52.01
1006.593	51.87
1006.947	51.82
1007.301	51.85
1007.655	51.79
1008.008	51.61
1008.362	51.41
1008.715	51.5
1009.069	51.27
1009.422	51.35
1009.776	51.16
1010.129	51.15
1010.482	51.32
1010.835	51.38
1011.188	51.24
1011.541	50.95
1011.894	50.93
1012.247	50.93
1012.6	50.77
1012.952	50.8
1013.305	50.79
1013.657	50.61
1014.01	50.8
1014.362	50.77
1014.715	50.72
1015.067	50.93
1015.419	51.27
1015.771	51.5
1016.123	51.7
1016.475	51.77
1016.827	51.92
1017.179	51.87
1017.531	51.93
1017.883	51.82
1018.234	51.94
1018.586	51.73
1018.938	51.33
1019.289	50.93
1019.64	51.06
1019.992	50.99
1020.343	50.77
1020.694	50.51
1021.045	50.54
1021.396	50.35
1021.747	50.44
1022.098	50.46
1022.449	50.69
1022.8	50.65
1023.151	50.73
1023.501	50.35
1023.852	50.18
1024.202	50.13
1024.553	49.92
1024.903	49.8
1025.253	50
1025.604	49.46
1025.954	49.09
1026.304	49.4
1026.654	49.71
1027.004	49.76
1027.354	49.48
1027.703	49.03
1028.053	48.9
1028.403	48.71
1028.753	48.71
1029.102	48.62
1029.452	48.7
1029.801	48.62
1030.15	47.89
1030.499	47.52
897.758	734.27
901.051	739.38
904.343	751.83
907.636	738.09
910.928	727.27
914.22	736.57
917.511	722.57
920.803	695.77
924.094	666.44
927.384	670.58
930.675	649.72
933.965	643.74
937.255	646.45
940.544	616.18
943.834	589.41
947.123	579.73
950.411	548.72
953.7	539.12
956.988	523.23
960.276	495.91
963.563	489.94
966.851	463.42
970.138	454.88
973.424	423.9
976.711	418.09
979.997	403.23
983.283	395.77
986.568	384.3
989.853	370.06
993.138	357.96
996.423	354.9
999.708	344.26
1002.992	345.57
1006.275	333.74
1009.559	330.6
1012.842	319.7
1016.125	310.21
1019.408	304.07
1022.69	300.45
1025.972	300.48
1029.254	292.61
1032.536	287.73
1035.817	276.79
1039.098	272.59
1042.379	267.27
1045.659	263.21
1048.939	262.4
1052.219	258.62
1055.498	252.26
1058.778	248.96
1062.057	243.78
1065.335	242.15
1068.614	238.68
1071.892	236.11
1075.17	231.23
1078.447	228.23
1081.724	227.18
1085.001	221.83
1088.278	219.84
1091.554	218.79
1094.83	217.67
1098.106	213.35
1101.382	211.97
1104.657	211.06
1107.932	210.31
1111.206	208.78
1114.481	207.53
1117.755	204.47
1121.029	204.38
1124.302	201.35
1127.575	198.53
1130.848	197.39
1134.121	194.86
1137.393	194.26
1140.665	191.83
1143.937	190.08
1147.208	188.44
1150.48	185.88
1153.75	185.7
1157.021	183.15
1160.291	183.84
1163.561	183.49
1166.831	181.24
1170.101	181.37
1173.37	180.39
1176.639	178.75
1179.907	179.01
1183.176	178.42
1186.444	178.79
1189.711	177.75
1192.979	179.56
1196.246	178.91
1199.513	177.49
1202.78	178.91
1206.046	179.17
1209.312	179.61
1212.578	180.53
1215.843	183.15
1219.108	184.33
1222.373	187.31
1225.638	189.55
1228.902	194.42
1232.166	200.05
1235.43	204.25
1238.693	209.67
1241.956	214.56
1245.219	219.69
1248.482	221.95
1251.744	220.38
1255.006	221.55
1258.268	215.55
1261.529	214.41
1264.79	207.83
1268.051	203.87
1271.312	200.83
1274.572	197.08
1277.832	191.82
1281.092	189.23
1284.351	185.73
1287.61	185.54
1290.869	183.78
1294.128	183.54
1297.386	182.98
1300.644	182.37
1303.902	181.37
1307.159	181.46
1310.416	181.61
1313.673	184.43
1316.93	185.53
1320.186	188.66
1323.442	190.88
1326.697	195.47
1329.953	197.04
1333.208	203.62
1336.463	210.92
1339.717	215.26
1342.972	225.56
1346.226	231.98
1349.479	233.92
1352.733	244.67
1355.986	248.87
1359.238	254.55
1362.491	257.02
1365.743	266.53
1368.995	266.86
1372.247	266.35
1375.498	265.15
1378.749	274.53
1382	273.12
1385.251	272.33
1388.501	270.75
1391.751	275.13
1395	272.91
1398.25	274.45
1401.499	273.02
1404.748	273.28
1407.996	268.03
1411.244	269.26
1414.492	263.3
1417.74	256.48
1420.987	250.67
1424.234	247.63
1427.481	238.28
1430.728	232.14
1433.974	223.37
1437.22	216.96
1440.465	209.84
1443.711	204.34
1446.956	198.98
1450.201	190.68
1453.445	183.09
1456.689	178.14
1459.933	171.7
1463.177	164.19
1466.42	161.13
1469.663	156.35
1472.906	152.09
1476.148	147.84
1479.391	144.24
1482.633	141.31
1485.874	138.72
1489.115	136.94
1492.356	134.44
1495.597	132.51
1498.838	132.14
1502.078	130.54
1505.318	130.2
1508.557	128.87
1511.797	127.28
1515.036	126.98
1518.274	126.26
1521.513	125.08
1524.751	124.9
1527.989	125.4
1531.227	124.82
1534.464	124.24
1537.701	123.45
1540.938	122.87
1544.174	122.91
1547.41	123.13
1550.646	122.58
1553.882	122.34
1557.117	121.7
1560.352	121.31
1563.587	120.27
1566.821	120.23
1570.055	119.15
1573.289	118.71
1576.523	119.11
1579.756	118.16
1582.989	117.92
1586.222	117.77
1589.454	117.22
1592.686	117.25
1595.918	116.67
1599.15	116.69
1602.381	116.86
1605.612	117.26
1608.843	117.38
1612.073	117.63
1615.303	118.07
1618.533	117.78
1621.762	118.05
1624.992	118.5
1628.221	118.46
1631.449	119.38
1634.678	118.6
1637.906	118.55
1641.134	118.91
1644.361	118.9
1647.588	118.58
1650.815	118.73
1654.042	119.21
1657.269	118.72
1660.495	119.12
1663.72	119.07
1666.946	118.63
1670.171	119.74
1673.396	120.59
1676.621	120.34
1679.845	120.75
1683.069	120.59
1686.293	120.5
1689.517	120.34
1692.74	120.94
1695.963	120.86
1699.185	121.86
1702.408	121.82
1705.63	121.89
1708.852	122.3
1712.073	121.93
1715.294	121.84
1718.515	122.4
1721.736	122.45
1724.956	123.12
1728.176	122.79
1731.396	123.77
1734.616	123.49
1737.835	124.17
1741.054	123.24
1744.272	123.05
1747.491	123.37
1750.709	124.1
1753.927	124.33
1757.144	124.75
1760.361	125.04
1763.578	125.61
1766.795	126
1770.011	125.97
1773.227	126.58
1776.443	128.53
1779.658	128.65
1782.874	130.38
1786.089	130.77
1789.303	130.95
1792.518	132.22
1795.732	133.03
1798.945	134.55
1802.159	134.24
1805.372	136.64
1808.585	137.17
1811.797	138.43
1815.01	139.76
1818.222	140.54
1821.434	140.71
1824.645	142.26
1827.856	144.08
1831.067	144.79
1834.278	146.12
1837.488	147.37
1840.698	148.63
1843.908	149.1
1847.117	150.66
1850.326	151.55
1853.535	151.7
1856.744	154.94
1859.952	155.91
1863.16	156.35
1866.368	155.73
1869.575	156.51
1872.782	157.07
1875.989	155.55
1879.196	154.55
1882.402	153.64
1885.608	154.62
1888.814	154.52
1892.019	154.25
1895.224	152.24
1898.429	153.57
1901.634	154.86
1904.838	155.06
1908.042	155.22
1911.246	155.89
1914.449	158.01
1917.652	156.78
1920.855	156.31
1924.058	155.7
1927.26	155.5
1930.462	156.65
1933.664	155.58
1936.865	154.85
1940.066	153.68
1943.267	152.91
1946.467	154.29
1949.668	154.3
1952.868	155.09
1956.067	154.93
1959.267	155.55
1962.466	156.55
1965.665	157.83
1968.863	158.85
1972.061	159.86
1975.259	163.11
1978.457	164.35
1981.654	164.62
1984.852	165.77
1988.048	167.81
1991.245	170.19
1994.441	174.95
1997.637	177.69
2000.833	180.6
2004.028	182.03
2007.223	189.29
2010.418	192.66
2013.613	200.89
2016.807	206.41
2020.001	210.53
2023.194	215.36
2026.388	224.46
2029.581	232.26
2032.774	240.29
2035.966	249.35
2039.158	256.31
2042.35	259.79
2045.542	263.49
2048.733	274.24
2051.924	276.89
2055.115	282.49
2058.306	286.21
2061.496	291
2064.686	291.63
2067.875	289.63
2071.065	290.61
2074.254	293.16
2077.442	300.85
2080.631	304.58
2083.819	305.2
2087.007	312.2
2090.195	315.98
2093.382	316.1
2096.569	315.19
2099.756	322.39
2102.942	329.89
2106.128	337.06
2109.314	338.01
2112.5	337.99
2115.685	336.55
2118.87	336.07
2122.055	337.73
2125.239	344.94
2128.424	354.39
2131.608	349.04
2134.791	350.99
2137.974	349.21
2141.157	352.76
2144.34	356.27
2147.523	360.86
2150.705	369.15
2153.887	369.22
2157.068	371.96
2160.25	373.99
2163.431	372.21
2166.611	383.64
2169.792	387.24
2172.972	395.74
2176.152	393.49
2179.331	402.03
2182.511	403.87
2185.69	409.26
2188.868	422.58
2192.047	433.85
2195.225	440.89
2198.403	446.2
2201.58	440.96
2204.758	459.12
2207.935	460.88
2211.111	472.98
2214.288	474.58
2217.464	479.88
2220.64	480.61
2223.815	484.99
2226.991	475.37
2230.166	480.87
2233.34	495.37
2236.515	509.36
2239.689	500.26
2242.863	508.68
2246.036	501.22
2249.209	516.75
2252.382	514.17
2255.555	536.7
2258.727	536.53
2261.9	557.94
2265.071	564.68
2268.243	557.81
2271.414	571.33
2274.585	583.66
2277.756	586.42
2280.926	611.9
2284.096	609.27
2287.266	615.82
2290.436	599.77
2293.605	616.07
2296.774	636.81
2299.942	633.44
2303.111	659.83
2306.279	674.37
2309.447	673.87
2312.614	675.14
2315.781	693.57
2318.948	697.32
2322.115	711.12
2325.281	749.52
2328.447	742.3
2331.613	743.52
2334.779	757.76
2337.944	762.6
2341.109	778.35
2344.274	788.25
2347.438	812.42
2350.602	820.91
2353.766	877.1
2356.929	879.55
2360.092	890.51
2363.255	893.9
2366.418	905.03
2369.58	928.94
2372.742	929.15
2375.904	922.09
2379.066	945.34
2382.227	992.02
2385.388	995.93
2388.548	941.89
2391.709	933.4
2394.869	964.23
2398.029	962.88
2401.188	964.82
2404.347	993.99
2407.506	1029.93
2410.665	990.37
2413.823	994.94
2416.981	998.99
2420.139	948.24
2423.296	1022.18
2426.453	1090.05
2429.61	1041.21
2432.767	1120.76
2435.923	1157.15
2439.079	1104.7
2442.235	1125.09
2445.391	1158.08
2448.546	1151.73
2451.701	1216.82
2454.855	1297.56
2458.009	1145.64
2461.163	1173.26
2464.317	1180.72
2467.471	1155.04
2470.624	1190.69
2473.777	1176.27
2476.929	1138.1
2480.082	1211.87
2483.234	1270.06
2486.385	1294.43
2489.537	1320.61
2492.688	1475.57
2495.839	1428.14
2498.989	1476.1
2502.14	1479.27
2505.29	1415.83
2508.439	1580.81
2511.589	1626.8
2514.738	1575.8
2517.887	1565.38
2521.035	1453.94
2524.183	1432.69
2527.331	1413.95
2530.479	1391.1
2533.627	1419.68
