Data from N_2_dec_nc_4n_069_Splice17_11.txt Node
Date: Sat Feb 29 14:06:08 EST 2020
User: sa697716
Spectrometer: FLMS03696
Trigger mode: 0
Integration Time (sec): 3.180400E-1
Scans to average: 20
Electric dark correction enabled: true
Nonlinearity correction enabled: true
Boxcar width: 5
XAxis mode: Wavelengths
Number of Pixels in Spectrum: 2048
>>>>>Begin Spectral Data<<<<<
187.83	73.97
188.298	72.44
188.766	73.78
189.233	64.5
189.701	73.22
190.169	76.04
190.636	87.76
191.104	96.91
191.571	378.99
192.039	149.63
192.506	189.78
192.974	2440.5
193.441	-135.36
193.908	62.63
194.375	64.6
194.842	91.64
195.31	58.62
195.777	76.51
196.244	42.87
196.711	32.1
197.177	28.08
197.644	26.67
198.111	26.91
198.578	26.36
199.045	27.18
199.511	26.85
199.978	27.29
200.445	27.26
200.911	27.5
201.378	27.42
201.844	27.72
202.31	28.19
202.777	28.62
203.243	29
203.709	29.67
204.176	29.61
204.642	30.13
205.108	30.21
205.574	30.32
206.04	30.33
206.506	30.51
206.972	30.21
207.438	29.95
207.903	29.51
208.369	28.86
208.835	28.62
209.301	28.34
209.766	27.95
210.232	27.92
210.697	27.7
211.163	27.5
211.628	27.07
212.094	27.11
212.559	26.81
213.024	26.7
213.49	26.69
213.955	26.29
214.42	25.79
214.885	25.15
215.35	24.53
215.815	23.86
216.28	23.17
216.745	22.38
217.21	21.45
217.675	20.65
218.14	19.82
218.604	18.95
219.069	18.39
219.534	17.83
219.998	17.39
220.463	17.01
220.927	16.69
221.392	16.29
221.856	15.96
222.32	15.7
222.785	15.41
223.249	15.18
223.713	15.02
224.177	14.81
224.642	14.67
225.106	14.47
225.57	14.29
226.034	14.13
226.497	13.97
226.961	13.8
227.425	13.63
227.889	13.46
228.353	13.31
228.816	13.13
229.28	12.93
229.744	12.79
230.207	12.66
230.671	12.5
231.134	12.36
231.597	12.2
232.061	12.07
232.524	11.95
232.987	11.82
233.45	11.7
233.914	11.6
234.377	11.52
234.84	11.39
235.303	11.28
235.766	11.16
236.229	11.05
236.691	10.96
237.154	10.86
237.617	10.78
238.08	10.7
238.542	10.61
239.005	10.51
239.468	10.39
239.93	10.3
240.393	10.22
240.855	10.13
241.317	10.04
241.78	9.98
242.242	9.89
242.704	9.81
243.166	9.71
243.629	9.63
244.091	9.55
244.553	9.5
245.015	9.44
245.477	9.36
245.939	9.31
246.4	9.23
246.862	9.16
247.324	9.11
247.786	9.05
248.247	9
248.709	8.95
249.17	8.91
249.632	8.86
250.093	8.78
250.555	8.75
251.016	8.71
251.477	8.67
251.939	8.64
252.4	8.59
252.861	8.56
253.322	8.52
253.783	8.5
254.244	8.46
254.705	8.42
255.166	8.41
255.627	8.36
256.088	8.33
256.549	8.3
257.009	8.27
257.47	8.24
257.931	8.21
258.391	8.17
258.852	8.13
259.312	8.09
259.773	8.07
260.233	8.03
260.694	8.01
261.154	7.98
261.614	7.95
262.074	7.91
262.534	7.87
262.994	7.84
263.455	7.82
263.915	7.79
264.374	7.76
264.834	7.73
265.294	7.71
265.754	7.68
266.214	7.66
266.673	7.64
267.133	7.61
267.593	7.6
268.052	7.58
268.512	7.56
268.971	7.55
269.431	7.53
269.89	7.52
270.349	7.51
270.809	7.5
271.268	7.48
271.727	7.47
272.186	7.46
272.645	7.44
273.104	7.43
273.563	7.42
274.022	7.41
274.481	7.4
274.94	7.38
275.399	7.35
275.857	7.33
276.316	7.31
276.775	7.28
277.233	7.26
277.692	7.24
278.15	7.22
278.609	7.19
279.067	7.16
279.525	7.14
279.984	7.11
280.442	7.1
280.9	7.08
281.358	7.07
281.816	7.06
282.274	7.03
282.732	7.02
283.19	7.01
283.648	7
284.106	6.98
284.564	6.98
285.021	6.98
285.479	6.97
285.937	6.95
286.394	6.94
286.852	6.93
287.309	6.93
287.767	6.92
288.224	6.9
288.682	6.89
289.139	6.89
289.596	6.86
290.053	6.84
290.511	6.82
290.968	6.8
291.425	6.79
291.882	6.77
292.339	6.75
292.796	6.72
293.252	6.7
293.709	6.68
294.166	6.67
294.623	6.65
295.079	6.63
295.536	6.62
295.992	6.61
296.449	6.59
296.905	6.58
297.362	6.57
297.818	6.56
298.274	6.55
298.731	6.53
299.187	6.51
299.643	6.5
300.099	6.49
300.555	6.47
301.011	6.46
301.467	6.45
301.923	6.43
302.379	6.42
302.835	6.41
303.291	6.41
303.746	6.39
304.202	6.38
304.658	6.37
305.113	6.36
305.569	6.35
306.024	6.33
306.479	6.32
306.935	6.31
307.39	6.3
307.845	6.3
308.301	6.29
308.756	6.3
309.211	6.29
309.666	6.28
310.121	6.28
310.576	6.27
311.031	6.27
311.486	6.27
311.94	6.26
312.395	6.26
312.85	6.26
313.305	6.25
313.759	6.24
314.214	6.24
314.668	6.24
315.123	6.25
315.577	6.25
316.032	6.24
316.486	6.23
316.94	6.21
317.394	6.19
317.849	6.18
318.303	6.17
318.757	6.16
319.211	6.14
319.665	6.13
320.119	6.11
320.572	6.1
321.026	6.09
321.48	6.09
321.934	6.09
322.387	6.09
322.841	6.07
323.295	6.07
323.748	6.07
324.202	6.05
324.655	6.04
325.108	6.03
325.562	6
326.015	6
326.468	5.97
326.921	5.96
327.374	5.94
327.827	5.93
328.28	5.91
328.733	5.9
329.186	5.89
329.639	5.88
330.092	5.87
330.545	5.87
330.997	5.86
331.45	5.86
331.903	5.85
332.355	5.86
332.808	5.87
333.26	5.87
333.713	5.86
334.165	5.86
334.617	5.87
335.069	5.88
335.522	5.87
335.974	5.87
336.426	5.87
336.878	5.87
337.33	5.86
337.782	5.85
338.234	5.86
338.686	5.85
339.137	5.86
339.589	5.84
340.041	5.83
340.493	5.81
340.944	5.81
341.396	5.8
341.847	5.79
342.299	5.78
342.75	5.75
343.201	5.73
343.653	5.71
344.104	5.69
344.555	5.68
345.006	5.67
345.457	5.66
345.908	5.65
346.359	5.65
346.81	5.65
347.261	5.63
347.712	5.64
348.163	5.64
348.613	5.63
349.064	5.62
349.515	5.6
349.965	5.6
350.416	5.59
350.866	5.58
351.317	5.57
351.767	5.56
352.217	5.56
352.668	5.55
353.118	5.56
353.568	5.57
354.018	5.58
354.468	5.58
354.918	5.58
355.368	5.58
355.818	5.58
356.268	5.58
356.718	5.58
357.168	5.58
357.617	5.58
358.067	5.57
358.517	5.57
358.966	5.57
359.416	5.59
359.865	5.6
360.315	5.61
360.764	5.64
361.213	5.65
361.663	5.67
362.112	5.69
362.561	5.69
363.01	5.72
363.459	5.74
363.908	5.75
364.357	5.77
364.806	5.8
365.255	5.82
365.703	5.82
366.152	5.85
366.601	5.89
367.05	5.91
367.498	5.95
367.947	5.97
368.395	6.01
368.844	6.04
369.292	6.07
369.74	6.12
370.189	6.15
370.637	6.19
371.085	6.23
371.533	6.25
371.981	6.3
372.429	6.33
372.877	6.37
373.325	6.4
373.773	6.44
374.221	6.48
374.669	6.51
375.116	6.56
375.564	6.6
376.012	6.64
376.459	6.68
376.907	6.72
377.354	6.77
377.801	6.82
378.249	6.86
378.696	6.91
379.143	6.96
379.591	7.02
380.038	7.06
380.485	7.12
380.932	7.16
381.379	7.19
381.826	7.24
382.273	7.28
382.72	7.31
383.166	7.35
383.613	7.39
384.06	7.42
384.506	7.43
384.953	7.46
385.4	7.49
385.846	7.52
386.292	7.55
386.739	7.57
387.185	7.6
387.631	7.63
388.078	7.66
388.524	7.66
388.97	7.68
389.416	7.7
389.862	7.71
390.308	7.73
390.754	7.74
391.2	7.76
391.645	7.78
392.091	7.8
392.537	7.81
392.983	7.83
393.428	7.86
393.874	7.88
394.319	7.88
394.765	7.9
395.21	7.9
395.655	7.91
396.101	7.9
396.546	7.9
396.991	7.88
397.436	7.86
397.881	7.85
398.326	7.83
398.771	7.83
399.216	7.84
399.661	7.84
400.106	7.85
400.551	7.83
400.995	7.81
401.44	7.78
401.885	7.77
402.329	7.78
402.774	7.76
403.218	7.74
403.663	7.72
404.107	7.7
404.551	7.68
404.995	7.65
405.44	7.62
405.884	7.61
406.328	7.6
406.772	7.58
407.216	7.56
407.66	7.54
408.104	7.52
408.547	7.52
408.991	7.48
409.435	7.46
409.879	7.46
410.322	7.47
410.766	7.46
411.209	7.45
411.653	7.42
412.096	7.41
412.54	7.39
412.983	7.38
413.426	7.38
413.869	7.39
414.312	7.41
414.756	7.41
415.199	7.4
415.642	7.4
416.085	7.4
416.527	7.41
416.97	7.42
417.413	7.4
417.856	7.38
418.298	7.36
418.741	7.34
419.184	7.3
419.626	7.27
420.069	7.25
420.511	7.26
420.953	7.25
421.396	7.24
421.838	7.25
422.28	7.28
422.722	7.28
423.164	7.28
423.606	7.28
424.048	7.28
424.49	7.29
424.932	7.27
425.374	7.25
425.816	7.23
426.258	7.2
426.699	7.15
427.141	7.11
427.582	7.11
428.024	7.1
428.465	7.1
428.907	7.09
429.348	7.07
429.789	7.08
430.231	7.08
430.672	7.09
431.113	7.09
431.554	7.12
431.995	7.14
432.436	7.14
432.877	7.12
433.318	7.1
433.759	7.1
434.2	7.1
434.64	7.1
435.081	7.08
435.522	7.1
435.962	7.11
436.403	7.13
436.843	7.12
437.284	7.15
437.724	7.17
438.164	7.18
438.604	7.19
439.045	7.2
439.485	7.21
439.925	7.23
440.365	7.22
440.805	7.23
441.245	7.21
441.685	7.23
442.125	7.22
442.564	7.23
443.004	7.25
443.444	7.27
443.883	7.29
444.323	7.32
444.762	7.36
445.202	7.42
445.641	7.45
446.081	7.5
446.52	7.52
446.959	7.56
447.398	7.6
447.837	7.67
448.276	7.7
448.716	7.73
449.154	7.75
449.593	7.76
450.032	7.76
450.471	7.75
450.91	7.75
451.349	7.77
451.787	7.76
452.226	7.75
452.664	7.7
453.103	7.7
453.541	7.7
453.98	7.7
454.418	7.7
454.856	7.69
455.295	7.69
455.733	7.69
456.171	7.67
456.609	7.68
457.047	7.68
457.485	7.7
457.923	7.7
458.361	7.7
458.798	7.71
459.236	7.71
459.674	7.72
460.111	7.74
460.549	7.73
460.987	7.73
461.424	7.72
461.862	7.71
462.299	7.7
462.736	7.7
463.173	7.68
463.611	7.67
464.048	7.67
464.485	7.65
464.922	7.63
465.359	7.64
465.796	7.64
466.233	7.65
466.67	7.65
467.106	7.65
467.543	7.66
467.98	7.67
468.416	7.67
468.853	7.67
469.29	7.69
469.726	7.71
470.162	7.71
470.599	7.71
471.035	7.71
471.471	7.71
471.907	7.71
472.344	7.7
472.78	7.69
473.216	7.69
473.652	7.68
474.088	7.69
474.523	7.68
474.959	7.67
475.395	7.68
475.831	7.68
476.266	7.69
476.702	7.69
477.138	7.69
477.573	7.69
478.008	7.69
478.444	7.69
478.879	7.68
479.314	7.67
479.75	7.68
480.185	7.67
480.62	7.67
481.055	7.66
481.49	7.65
481.925	7.65
482.36	7.66
482.795	7.65
483.229	7.66
483.664	7.67
484.099	7.69
484.534	7.69
484.968	7.7
485.403	7.72
485.837	7.73
486.271	7.76
486.706	7.77
487.14	7.78
487.574	7.81
488.009	7.83
488.443	7.86
488.877	7.88
489.311	7.91
489.745	7.95
490.179	7.98
490.613	8.01
491.046	8.04
491.48	8.09
491.914	8.14
492.348	8.2
492.781	8.24
493.215	8.29
493.648	8.34
494.082	8.41
494.515	8.48
494.948	8.55
495.382	8.63
495.815	8.72
496.248	8.8
496.681	8.87
497.114	8.95
497.547	9.04
497.98	9.14
498.413	9.24
498.846	9.34
499.279	9.45
499.711	9.55
500.144	9.67
500.577	9.79
501.009	9.92
501.442	10.07
501.874	10.22
502.306	10.37
502.739	10.51
503.171	10.68
503.603	10.86
504.036	11.04
504.468	11.24
504.9	11.44
505.332	11.64
505.764	11.85
506.196	12.05
506.627	12.28
507.059	12.51
507.491	12.76
507.923	13
508.354	13.26
508.786	13.5
509.217	13.76
509.649	14.02
510.08	14.3
510.512	14.57
510.943	14.88
511.374	15.17
511.805	15.47
512.237	15.77
512.668	16.09
513.099	16.41
513.53	16.74
513.961	17.08
514.391	17.39
514.822	17.71
515.253	18.04
515.684	18.35
516.114	18.69
516.545	19.03
516.975	19.39
517.406	19.74
517.836	20.06
518.267	20.4
518.697	20.75
519.127	21.12
519.558	21.44
519.988	21.76
520.418	22.1
520.848	22.42
521.278	22.75
521.708	22.93
522.138	23.22
522.567	23.51
522.997	23.8
523.427	24.09
523.857	24.34
524.286	24.63
524.716	24.92
525.145	25.19
525.575	25.46
526.004	25.68
526.433	26.03
526.863	26.26
527.292	26.5
527.721	26.7
528.15	26.89
528.579	27.09
529.008	27.27
529.437	27.44
529.866	27.61
530.295	27.76
530.724	27.95
531.152	28.09
531.581	28.26
532.01	28.4
532.438	28.54
532.867	28.68
533.295	28.79
533.723	28.91
534.152	29.02
534.58	29.12
535.008	29.2
535.436	29.28
535.865	29.36
536.293	29.43
536.721	29.49
537.149	29.56
537.576	29.62
538.004	29.69
538.432	29.72
538.86	29.76
539.287	29.8
539.715	29.86
540.143	29.87
540.57	29.91
540.998	29.94
541.425	29.98
541.852	30
542.28	30
542.707	30.03
543.134	30.08
543.561	30.11
543.988	30.15
544.415	30.14
544.842	30.18
545.269	30.21
545.696	30.22
546.123	30.26
546.549	30.31
546.976	30.37
547.403	30.39
547.829	30.41
548.256	30.45
548.682	30.46
549.108	30.5
549.535	30.53
549.961	30.53
550.387	30.54
550.813	30.54
551.24	30.53
551.666	30.53
552.092	30.52
552.518	30.51
552.943	30.49
553.369	30.48
553.795	30.47
554.221	30.44
554.646	30.41
555.072	30.39
555.498	30.34
555.923	30.29
556.349	30.21
556.774	30.15
557.199	30.08
557.625	30
558.05	29.92
558.475	29.82
558.9	29.72
559.325	29.63
559.75	29.52
560.175	29.43
560.6	29.34
561.025	29.25
561.449	29.13
561.874	29
562.299	28.89
562.723	28.76
563.148	28.63
563.572	28.51
563.997	28.37
564.421	28.22
564.846	28.06
565.27	27.89
565.694	27.74
566.118	27.58
566.542	27.42
566.966	27.27
567.39	27.1
567.814	26.92
568.238	26.73
568.662	26.56
569.086	26.38
569.509	26.2
569.933	26.02
570.357	25.83
570.78	25.65
571.204	25.46
571.627	25.27
572.05	25.09
572.474	24.93
572.897	24.76
573.32	24.6
573.743	24.43
574.166	24.26
574.589	24.1
575.012	23.95
575.435	23.8
575.858	23.67
576.281	23.54
576.704	23.41
577.126	23.28
577.549	23.18
577.972	23.06
578.394	22.93
578.817	22.83
579.239	22.74
579.661	22.65
580.084	22.54
580.506	22.45
580.928	22.36
581.35	22.26
581.772	22.18
582.194	22.06
582.616	21.97
583.038	21.9
583.46	21.81
583.882	21.74
584.303	21.66
584.725	21.59
585.147	21.5
585.568	21.42
585.99	21.34
586.411	21.27
586.833	21.21
587.254	21.14
587.675	21.07
588.096	21
588.518	20.91
588.939	20.83
589.36	20.76
589.781	20.7
590.202	20.64
590.623	20.6
591.043	20.53
591.464	20.47
591.885	20.44
592.305	20.39
592.726	20.35
593.147	20.34
593.567	20.31
593.987	20.29
594.408	20.27
594.828	20.2
595.248	20.15
595.669	20.13
596.089	20.1
596.509	20.04
596.929	20
597.349	19.94
597.769	19.87
598.189	19.83
598.608	19.78
599.028	19.71
599.448	19.69
599.867	19.65
600.287	19.58
600.706	19.52
601.126	19.47
601.545	19.43
601.965	19.39
602.384	19.34
602.803	19.26
603.222	19.2
603.641	19.16
604.061	19.09
604.48	19.02
604.898	18.96
605.317	18.89
605.736	18.83
606.155	18.75
606.574	18.67
606.992	18.58
607.411	18.51
607.829	18.38
608.248	18.28
608.666	18.19
609.085	18.1
609.503	17.99
609.921	17.89
610.339	17.8
610.758	17.72
611.176	17.61
611.594	17.52
612.012	17.42
612.43	17.37
612.847	17.29
613.265	17.2
613.683	17.11
614.101	17.02
614.518	16.93
614.936	16.85
615.353	16.76
615.771	16.69
616.188	16.62
616.606	16.56
617.023	16.48
617.44	16.42
617.857	16.34
618.274	16.28
618.691	16.23
619.108	16.19
619.525	16.13
619.942	16.06
620.359	16.03
620.776	15.98
621.192	15.94
621.609	15.9
622.026	15.87
622.442	15.83
622.859	15.8
623.275	15.78
623.691	15.76
624.108	15.74
624.524	15.72
624.94	15.69
625.356	15.66
625.772	15.64
626.188	15.64
626.604	15.6
627.02	15.6
627.436	15.6
627.852	15.57
628.268	15.54
628.683	15.5
629.099	15.48
629.514	15.45
629.93	15.42
630.345	15.38
630.761	15.32
631.176	15.28
631.591	15.23
632.007	15.16
632.422	15.1
632.837	15.04
633.252	14.97
633.667	14.89
634.082	14.8
634.497	14.71
634.911	14.61
635.326	14.51
635.741	14.39
636.155	14.28
636.57	14.17
636.984	14.03
637.399	13.9
637.813	13.76
638.228	13.63
638.642	13.49
639.056	13.34
639.47	13.19
639.884	13.04
640.298	12.91
640.712	12.76
641.126	12.61
641.54	12.47
641.954	12.33
642.368	12.2
642.781	12.06
643.195	11.92
643.609	11.79
644.022	11.65
644.436	11.52
644.849	11.39
645.262	11.28
645.676	11.15
646.089	11.04
646.502	10.93
646.915	10.84
647.328	10.76
647.741	10.67
648.154	10.6
648.567	10.55
648.98	10.49
649.393	10.43
649.805	10.38
650.218	10.35
650.631	10.31
651.043	10.26
651.456	10.21
651.868	10.16
652.28	10.13
652.693	10.06
653.105	10.02
653.517	9.97
653.929	9.93
654.341	9.88
654.753	9.8
655.165	9.72
655.577	9.65
655.989	9.58
656.401	9.5
656.813	9.41
657.224	9.34
657.636	9.26
658.047	9.16
658.459	9.05
658.87	8.96
659.282	8.87
659.693	8.79
660.104	8.7
660.515	8.61
660.926	8.51
661.338	8.42
661.749	8.32
662.159	8.22
662.57	8.14
662.981	8.07
663.392	7.97
663.803	7.9
664.213	7.82
664.624	7.76
665.035	7.68
665.445	7.63
665.855	7.59
666.266	7.54
666.676	7.5
667.086	7.45
667.497	7.4
667.907	7.37
668.317	7.33
668.727	7.3
669.137	7.28
669.547	7.28
669.956	7.25
670.366	7.24
670.776	7.22
671.186	7.22
671.595	7.23
672.005	7.25
672.414	7.27
672.824	7.3
673.233	7.32
673.642	7.34
674.052	7.36
674.461	7.39
674.87	7.41
675.279	7.43
675.688	7.46
676.097	7.49
676.506	7.52
676.915	7.55
677.323	7.59
677.732	7.63
678.141	7.68
678.549	7.74
678.958	7.8
679.366	7.86
679.775	7.94
680.183	8.03
680.592	8.13
681	8.22
681.408	8.34
681.816	8.45
682.224	8.59
682.632	8.75
683.04	8.92
683.448	9.1
683.856	9.31
684.264	9.53
684.671	9.77
685.079	10.04
685.487	10.34
685.894	10.63
686.302	10.97
686.709	11.33
687.116	11.7
687.524	12.12
687.931	12.56
688.338	13.02
688.745	13.53
689.152	14.06
689.559	14.59
689.966	15.16
690.373	15.78
690.78	16.39
691.187	17.02
691.593	17.66
692	18.31
692.407	18.98
692.813	19.68
693.22	20.36
693.626	21.04
694.032	21.74
694.439	22.44
694.845	23.12
695.251	23.82
695.657	24.51
696.063	25.24
696.469	25.93
696.875	26.59
697.281	27.23
697.687	27.91
698.093	28.55
698.498	29.23
698.904	29.89
699.31	30.53
699.715	31.16
700.12	31.76
700.526	32.35
700.931	32.96
701.337	33.55
701.742	34.15
702.147	34.7
702.552	35.29
702.957	35.81
703.362	36.36
703.767	36.88
704.172	37.4
704.577	37.9
704.981	38.4
705.386	38.89
705.791	39.38
706.195	39.85
706.6	40.32
707.004	40.75
707.408	41.2
707.813	41.63
708.217	42.04
708.621	42.46
709.025	42.88
709.43	43.26
709.834	43.65
710.237	44.03
710.641	44.43
711.045	44.8
711.449	45.16
711.853	45.55
712.256	45.92
712.66	46.26
713.064	46.61
713.467	46.96
713.87	47.34
714.274	47.68
714.677	47.97
715.08	48.3
715.484	48.66
715.887	48.99
716.29	49.28
716.693	49.58
717.096	49.9
717.499	50.18
717.901	50.43
718.304	50.69
718.707	50.94
719.109	51.25
719.512	51.48
719.915	51.7
720.317	51.93
720.719	52.14
721.122	52.36
721.524	52.59
721.926	52.85
722.328	53.11
722.731	53.3
723.133	53.52
723.535	53.71
723.937	53.92
724.338	54.1
724.74	54.27
725.142	54.48
725.544	54.66
725.945	54.81
726.347	54.95
726.748	55.09
727.15	55.23
727.551	55.41
727.952	55.54
728.354	55.68
728.755	55.82
729.156	55.95
729.557	56.1
729.958	56.24
730.359	56.33
730.76	56.41
731.161	56.53
731.562	56.66
731.962	56.72
732.363	56.8
732.763	56.88
733.164	56.96
733.564	57.08
733.965	57.11
734.365	57.15
734.766	57.26
735.166	57.31
735.566	57.36
735.966	57.39
736.366	57.41
736.766	57.47
737.166	57.52
737.566	57.56
737.966	57.6
738.365	57.64
738.765	57.69
739.165	57.71
739.564	57.78
739.964	57.81
740.363	57.87
740.763	57.95
741.162	58
741.561	58.03
741.96	58.07
742.36	58.06
742.759	58.07
743.158	58.09
743.557	58.1
743.955	58.13
744.354	58.18
744.753	58.19
745.152	58.2
745.55	58.21
745.949	58.26
746.348	58.29
746.746	58.37
747.144	58.41
747.543	58.45
747.941	58.51
748.339	58.54
748.737	58.55
749.136	58.58
749.534	58.62
749.932	58.64
750.33	58.63
750.727	58.63
751.125	58.62
751.523	58.62
751.921	58.65
752.318	58.63
752.716	58.63
753.113	58.64
753.511	58.62
753.908	58.59
754.305	58.58
754.703	58.58
755.1	58.59
755.497	58.57
755.894	58.59
756.291	58.58
756.688	58.6
757.085	58.6
757.482	58.61
757.878	58.64
758.275	58.63
758.672	58.69
759.068	58.71
759.465	58.73
759.861	58.75
760.258	58.74
760.654	58.72
761.05	58.69
761.447	58.69
761.843	58.64
762.239	58.58
762.635	58.6
763.031	58.54
763.427	58.5
763.822	58.44
764.218	58.42
764.614	58.41
765.01	58.38
765.405	58.34
765.801	58.32
766.196	58.32
766.592	58.35
766.987	58.33
767.382	58.34
767.778	58.35
768.173	58.37
768.568	58.35
768.963	58.33
769.358	58.32
769.753	58.35
770.148	58.33
770.542	58.32
770.937	58.3
771.332	58.29
771.726	58.24
772.121	58.24
772.515	58.19
772.91	58.18
773.304	58.14
773.699	58.14
774.093	58.1
774.487	58.12
774.881	58.1
775.275	58.07
775.669	58.05
776.063	58.01
776.457	57.95
776.851	57.93
777.245	57.96
777.638	57.95
778.032	57.96
778.425	57.97
778.819	57.98
779.212	57.99
779.606	57.99
779.999	58
780.392	58.03
780.786	58.07
781.179	58.11
781.572	58.08
781.965	58.12
782.358	58.07
782.751	58.08
783.143	58.09
783.536	58.14
783.929	58.2
784.322	58.21
784.714	58.25
785.107	58.29
785.499	58.28
785.891	58.29
786.284	58.29
786.676	58.33
787.068	58.35
787.46	58.33
787.852	58.33
788.245	58.3
788.636	58.31
789.028	58.3
789.42	58.29
789.812	58.3
790.204	58.3
790.595	58.33
790.987	58.36
791.378	58.37
791.77	58.36
792.161	58.33
792.553	58.34
792.944	58.38
793.335	58.4
793.726	58.36
794.117	58.36
794.508	58.37
794.899	58.37
795.29	58.34
795.681	58.33
796.072	58.36
796.463	58.34
796.853	58.34
797.244	58.33
797.634	58.27
798.025	58.3
798.415	58.33
798.806	58.32
799.196	58.34
799.586	58.32
799.976	58.33
800.366	58.35
800.756	58.38
801.146	58.39
801.536	58.38
801.926	58.42
802.316	58.4
802.706	58.39
803.095	58.42
803.485	58.41
803.874	58.43
804.264	58.47
804.653	58.42
805.043	58.39
805.432	58.33
805.821	58.32
806.21	58.33
806.599	58.37
806.988	58.36
807.377	58.37
807.766	58.36
808.155	58.38
808.544	58.34
808.933	58.38
809.321	58.42
809.71	58.48
810.098	58.49
810.487	58.46
810.875	58.42
811.264	58.45
811.652	58.47
812.04	58.47
812.428	58.5
812.816	58.53
813.204	58.48
813.592	58.48
813.98	58.48
814.368	58.52
814.756	58.59
815.144	58.66
815.531	58.68
815.919	58.68
816.306	58.69
816.694	58.69
817.081	58.68
817.469	58.77
817.856	58.81
818.243	58.84
818.63	58.88
819.017	58.89
819.404	58.87
819.791	58.86
820.178	58.91
820.565	58.94
820.952	58.94
821.339	58.98
821.725	59
822.112	58.99
822.498	59.01
822.885	59
823.271	59.03
823.657	59.07
824.044	59.11
824.43	59.08
824.816	59.06
825.202	59.11
825.588	59.13
825.974	59.12
826.36	59.12
826.746	59.14
827.132	59.13
827.517	59.11
827.903	59.14
828.289	59.12
828.674	59.12
829.06	59.16
829.445	59.18
829.83	59.18
830.216	59.19
830.601	59.2
830.986	59.17
831.371	59.21
831.756	59.18
832.141	59.15
832.526	59.15
832.911	59.18
833.295	59.17
833.68	59.15
834.065	59.12
834.449	59.09
834.834	59.08
835.218	59.07
835.603	59.03
835.987	59.06
836.371	59.08
836.755	59.08
837.139	59.05
837.524	59.04
837.908	59.02
838.291	59.01
838.675	59.02
839.059	59.03
839.443	59.05
839.827	59.03
840.21	59.02
840.594	58.99
840.977	58.97
841.361	58.97
841.744	58.98
842.127	58.95
842.511	58.94
842.894	58.88
843.277	58.88
843.66	58.89
844.043	58.89
844.426	58.88
844.809	58.86
845.191	58.87
845.574	58.85
845.957	58.79
846.339	58.77
846.722	58.8
847.104	58.84
847.487	58.84
847.869	58.8
848.252	58.81
848.634	58.81
849.016	58.83
849.398	58.82
849.78	58.8
850.162	58.87
850.544	58.92
850.926	58.89
851.307	58.91
851.689	58.87
852.071	58.87
852.452	58.88
852.834	58.85
853.215	58.85
853.597	58.86
853.978	58.86
854.359	58.83
854.741	58.83
855.122	58.86
855.503	58.83
855.884	58.85
856.265	58.85
856.646	58.86
857.026	58.89
857.407	58.87
857.788	58.88
858.169	58.88
858.549	58.9
858.93	58.91
859.31	58.87
859.69	58.86
860.071	58.84
860.451	58.85
860.831	58.85
861.211	58.84
861.591	58.86
861.971	58.85
862.351	58.87
862.731	58.85
863.111	58.85
863.491	58.88
863.87	58.89
864.25	58.92
864.629	58.91
865.009	58.9
865.388	58.88
865.768	58.87
866.147	58.86
866.526	58.88
866.905	58.87
867.284	58.86
867.663	58.85
868.042	58.87
868.421	58.86
868.8	58.88
869.179	58.88
869.558	58.9
869.936	58.9
870.315	58.91
870.693	58.93
871.072	58.93
871.45	58.92
871.828	58.96
872.207	58.99
872.585	59
872.963	58.98
873.341	58.99
873.719	58.97
874.097	58.97
874.475	58.95
874.853	58.91
875.23	58.91
875.608	58.94
875.986	58.9
876.363	58.87
876.741	58.87
877.118	58.85
877.495	58.84
877.873	58.86
878.25	58.85
878.627	58.86
879.004	58.85
879.381	58.84
879.758	58.81
880.135	58.81
880.512	58.79
880.889	58.79
881.265	58.81
881.642	58.81
882.019	58.79
882.395	58.79
882.772	58.78
883.148	58.76
883.524	58.78
883.901	58.79
884.277	58.76
884.653	58.8
885.029	58.8
885.405	58.8
885.781	58.79
886.157	58.75
886.532	58.75
886.908	58.74
887.284	58.78
887.659	58.79
888.035	58.78
888.411	58.77
888.786	58.74
889.161	58.72
889.537	58.71
889.912	58.69
890.287	58.71
890.662	58.71
891.037	58.66
891.412	58.62
891.787	58.57
892.162	58.55
892.536	58.57
892.911	58.54
893.286	58.51
893.66	58.5
894.035	58.49
894.409	58.5
894.784	58.49
895.158	58.52
895.532	58.51
895.906	58.5
896.281	58.47
896.655	58.43
897.029	58.43
897.402	58.44
897.776	58.43
898.15	58.43
898.524	58.44
898.898	58.39
899.271	58.39
899.645	58.37
900.018	58.36
900.392	58.38
900.765	58.39
901.138	58.41
901.511	58.38
901.884	58.38
902.258	58.37
902.631	58.36
903.003	58.37
903.376	58.34
903.749	58.35
904.122	58.38
904.495	58.39
904.867	58.36
905.24	58.34
905.612	58.33
905.985	58.3
906.357	58.24
906.729	58.18
907.102	58.17
907.474	58.16
907.846	58.17
908.218	58.13
908.59	58.09
908.962	58.11
909.334	58.1
909.705	58.13
910.077	58.13
910.449	58.15
910.82	58.19
911.192	58.18
911.563	58.2
911.935	58.13
912.306	58.13
912.677	58.14
913.048	58.11
913.419	58.11
913.79	58.08
914.161	58.06
914.532	58.05
914.903	58.01
915.274	57.97
915.645	57.95
916.015	57.99
916.386	57.95
916.756	57.9
917.127	57.89
917.497	57.85
917.868	57.88
918.238	57.89
918.608	57.87
918.978	57.83
919.348	57.82
919.718	57.81
920.088	57.77
920.458	57.83
920.828	57.87
921.198	57.89
921.567	57.86
921.937	57.84
922.306	57.8
922.676	57.82
923.045	57.83
923.415	57.86
923.784	57.88
924.153	57.88
924.522	57.82
924.891	57.78
925.26	57.75
925.629	57.8
925.998	57.79
926.367	57.8
926.736	57.74
927.104	57.77
927.473	57.74
927.842	57.68
928.21	57.71
928.578	57.72
928.947	57.7
929.315	57.68
929.683	57.66
930.051	57.63
930.42	57.58
930.788	57.57
931.156	57.49
931.523	57.46
931.891	57.45
932.259	57.37
932.627	57.3
932.994	57.27
933.362	57.25
933.729	57.15
934.097	57.11
934.464	57.08
934.831	57.04
935.199	57.03
935.566	57.01
935.933	57.07
936.3	57
936.667	56.97
937.034	56.96
937.401	56.87
937.767	56.83
938.134	56.78
938.501	56.74
938.867	56.74
939.234	56.75
939.6	56.64
939.967	56.5
940.333	56.56
940.699	56.63
941.065	56.61
941.431	56.69
941.798	56.81
942.163	56.92
942.529	56.94
942.895	56.98
943.261	56.99
943.627	57.11
943.992	57.1
944.358	57.07
944.723	57.08
945.089	57.15
945.454	57.17
945.82	57.14
946.185	57.17
946.55	57.26
946.915	57.23
947.28	57.22
947.645	57.22
948.01	57.27
948.375	57.4
948.74	57.31
949.104	57.34
949.469	57.25
949.834	57.2
950.198	57.08
950.562	57.01
950.927	56.95
951.291	56.93
951.655	56.87
952.02	56.8
952.384	56.74
952.748	56.72
953.112	56.67
953.476	56.7
953.839	56.63
954.203	56.62
954.567	56.58
954.931	56.62
955.294	56.58
955.658	56.49
956.021	56.48
956.385	56.37
956.748	56.41
957.111	56.31
957.474	56.38
957.837	56.48
958.2	56.39
958.563	56.4
958.926	56.3
959.289	56.27
959.652	56.29
960.015	56.25
960.377	56.27
960.74	56.18
961.102	56.15
961.465	56.08
961.827	55.96
962.189	55.97
962.552	55.85
962.914	55.86
963.276	55.9
963.638	55.88
964	55.81
964.362	55.83
964.724	55.82
965.085	55.86
965.447	55.77
965.809	55.73
966.17	55.78
966.532	55.85
966.893	55.79
967.255	55.72
967.616	55.71
967.977	55.76
968.338	55.66
968.699	55.6
969.061	55.55
969.421	55.63
969.782	55.64
970.143	55.65
970.504	55.59
970.865	55.56
971.225	55.56
971.586	55.59
971.946	55.61
972.307	55.63
972.667	55.72
973.027	55.74
973.388	55.65
973.748	55.66
974.108	55.58
974.468	55.56
974.828	55.63
975.188	55.68
975.548	55.64
975.907	55.59
976.267	55.6
976.627	55.53
976.986	55.54
977.346	55.51
977.705	55.55
978.064	55.53
978.424	55.53
978.783	55.49
979.142	55.39
979.501	55.36
979.86	55.36
980.219	55.25
980.578	55.22
980.937	55.2
981.296	55.2
981.654	55.19
982.013	55.23
982.371	55.19
982.73	55.18
983.088	55.16
983.447	55.22
983.805	55.23
984.163	55.31
984.521	55.28
984.879	55.2
985.237	55.24
985.595	55.24
985.953	55.14
986.311	55.22
986.669	55.18
987.026	55.19
987.384	55.19
987.741	55.26
988.099	55.18
988.456	55.23
988.814	55.38
989.171	55.27
989.528	55.17
989.885	55.18
990.242	55.23
990.599	55.26
990.956	55.32
991.313	55.34
991.67	55.22
992.027	55.27
992.383	55.3
992.74	55.17
993.096	55.18
993.453	55.28
993.809	55.32
994.165	55.26
994.522	55.3
994.878	55.24
995.234	55.11
995.59	55.06
995.946	54.92
996.302	54.8
996.658	54.72
997.013	54.84
997.369	54.76
997.725	54.86
998.08	54.83
998.436	54.8
998.791	54.67
999.147	54.7
999.502	54.76
999.857	54.86
1000.212	54.88
1000.567	55.08
1000.922	54.99
1001.277	54.91
1001.632	54.8
1001.987	54.77
1002.342	54.79
1002.696	54.79
1003.051	54.64
1003.406	54.49
1003.76	54.44
1004.114	54.52
1004.469	54.29
1004.823	54.35
1005.177	54.65
1005.531	54.47
1005.885	54.46
1006.239	54.42
1006.593	54.5
1006.947	54.56
1007.301	54.78
1007.655	54.93
1008.008	54.81
1008.362	54.84
1008.715	54.81
1009.069	54.35
1009.422	54.25
1009.776	54.22
1010.129	54.06
1010.482	54.05
1010.835	54.14
1011.188	53.81
1011.541	53.49
1011.894	53.42
1012.247	53.23
1012.6	52.99
1012.952	53
1013.305	53.06
1013.657	52.92
1014.01	53.03
1014.362	52.99
1014.715	52.66
1015.067	52.75
1015.419	52.97
1015.771	53.13
1016.123	53.12
1016.475	53.25
1016.827	53.32
1017.179	53.45
1017.531	53.74
1017.883	53.82
1018.234	53.79
1018.586	53.98
1018.938	53.99
1019.289	53.8
1019.64	53.84
1019.992	53.99
1020.343	53.9
1020.694	53.79
1021.045	53.84
1021.396	53.37
1021.747	53.21
1022.098	53.36
1022.449	53.25
1022.8	53.01
1023.151	53.14
1023.501	52.9
1023.852	52.78
1024.202	52.51
1024.553	52.42
1024.903	52.46
1025.253	52.96
1025.604	53.14
1025.954	52.73
1026.304	53.25
1026.654	53.66
1027.004	53.49
1027.354	53.5
1027.703	53.64
1028.053	53.84
1028.403	53.58
1028.753	53.4
1029.102	53.01
1029.452	52.73
1029.801	52.81
1030.15	52.32
1030.499	52.1
897.758	812.24
901.051	822.17
904.343	829.9
907.636	815.18
910.928	801.84
914.22	820.71
917.511	802.15
920.803	766.85
924.094	734.17
927.384	739.38
930.675	719.06
933.965	712.92
937.255	715.2
940.544	684.08
943.834	649.17
947.123	639.22
950.411	601.29
953.7	591.44
956.988	575.84
960.276	548.97
963.563	540.24
966.851	509.25
970.138	500.32
973.424	463.02
976.711	456.66
979.997	444.35
983.283	434.34
986.568	420.3
989.853	407.44
993.138	391.71
996.423	386.2
999.708	374.75
1002.992	375.86
1006.275	362.8
1009.559	361.21
1012.842	350.14
1016.125	338.33
1019.408	332.14
1022.69	328.05
1025.972	324.36
1029.254	316.5
1032.536	310.96
1035.817	300.82
1039.098	294.77
1042.379	289.37
1045.659	284.01
1048.939	281.8
1052.219	277.83
1055.498	270.9
1058.778	266.59
1062.057	262.35
1065.335	260.92
1068.614	256.19
1071.892	252.79
1075.17	249.09
1078.447	244.72
1081.724	243.39
1085.001	238.67
1088.278	237.29
1091.554	237.28
1094.83	235.8
1098.106	231.01
1101.382	229.64
1104.657	229.96
1107.932	228.89
1111.206	227.14
1114.481	224.61
1117.755	221.29
1121.029	220.98
1124.302	217.93
1127.575	213.68
1130.848	212.48
1134.121	209.97
1137.393	209.6
1140.665	206.02
1143.937	204.29
1147.208	201.5
1150.48	199.85
1153.75	199.83
1157.021	196.69
1160.291	196.01
1163.561	196.15
1166.831	193.73
1170.101	194.23
1173.37	192
1176.639	190.69
1179.907	190.71
1183.176	190.19
1186.444	190.59
1189.711	189.34
1192.979	191.86
1196.246	192.12
1199.513	190.36
1202.78	191.84
1206.046	191.88
1209.312	192.85
1212.578	194.43
1215.843	196.57
1219.108	198.03
1222.373	201.28
1225.638	204.56
1228.902	208.7
1232.166	214.72
1235.43	219.08
1238.693	224.41
1241.956	230.73
1245.219	237.01
1248.482	237.92
1251.744	237.39
1255.006	237.74
1258.268	232.58
1261.529	230.45
1264.79	223.73
1268.051	219.16
1271.312	216.64
1274.572	212.19
1277.832	205.23
1281.092	202.93
1284.351	199.29
1287.61	199.15
1290.869	197.85
1294.128	196.76
1297.386	195.47
1300.644	194.56
1303.902	193.4
1307.159	192.81
1310.416	194.43
1313.673	198.1
1316.93	198.71
1320.186	202.02
1323.442	204.47
1326.697	208.97
1329.953	210.87
1333.208	218.12
1336.463	228.05
1339.717	232.78
1342.972	243.45
1346.226	250.54
1349.479	252.11
1352.733	263.32
1355.986	268.94
1359.238	274.61
1362.491	278.01
1365.743	288.99
1368.995	291.14
1372.247	287.23
1375.498	286.84
1378.749	298.24
1382	297.67
1385.251	296.69
1388.501	295.72
1391.751	299.96
1395	297.68
1398.25	299.26
1401.499	298.24
1404.748	297.61
1407.996	294.8
1411.244	295.39
1414.492	289.43
1417.74	280.2
1420.987	273.94
1424.234	269.06
1427.481	258.21
1430.728	253.03
1433.974	244.36
1437.22	235.15
1440.465	227.5
1443.711	220.06
1446.956	212.84
1450.201	205.06
1453.445	196.07
1456.689	190.52
1459.933	184.55
1463.177	177.51
1466.42	173.66
1469.663	167.91
1472.906	163.42
1476.148	158.37
1479.391	154.82
1482.633	152.47
1485.874	148.88
1489.115	147.95
1492.356	145.61
1495.597	143.22
1498.838	142.15
1502.078	140.08
1505.318	139.88
1508.557	139.09
1511.797	137.53
1515.036	137.01
1518.274	135.25
1521.513	134.41
1524.751	133.14
1527.989	133.85
1531.227	133.35
1534.464	132.98
1537.701	131.83
1540.938	131.12
1544.174	131.08
1547.41	131.07
1550.646	130.46
1553.882	130.86
1557.117	129.91
1560.352	129.74
1563.587	128.35
1566.821	128.17
1570.055	126.9
1573.289	126.69
1576.523	126.85
1579.756	126.02
1582.989	126.14
1586.222	125.87
1589.454	125.38
1592.686	124.93
1595.918	124.9
1599.15	124.61
1602.381	124.79
1605.612	125.08
1608.843	125.26
1612.073	125.69
1615.303	125.52
1618.533	125.38
1621.762	126.05
1624.992	126.28
1628.221	126.57
1631.449	126.52
1634.678	125.86
1637.906	125.82
1641.134	126.01
1644.361	125.95
1647.588	126.04
1650.815	126.45
1654.042	126.27
1657.269	125.58
1660.495	126.14
1663.72	125.85
1666.946	126.61
1670.171	127.62
1673.396	128.35
1676.621	129.04
1679.845	129.04
1683.069	128.56
1686.293	128.4
1689.517	129.14
1692.74	129.84
1695.963	129.75
1699.185	131.48
1702.408	130.78
1705.63	130.86
1708.852	131.47
1712.073	131.05
1715.294	131.26
1718.515	132.16
1721.736	132.71
1724.956	132.51
1728.176	132.33
1731.396	133.53
1734.616	132.88
1737.835	133.52
1741.054	133.78
1744.272	132.79
1747.491	133.2
1750.709	133.6
1753.927	133.61
1757.144	133.41
1760.361	133.97
1763.578	134.65
1766.795	134.53
1770.011	134.9
1773.227	135.69
1776.443	136.56
1779.658	138.09
1782.874	138.55
1786.089	139.44
1789.303	139.73
1792.518	141.19
1795.732	142.04
1798.945	143.59
1802.159	144.13
1805.372	146.15
1808.585	147.06
1811.797	148.37
1815.01	148.65
1818.222	150.12
1821.434	151.04
1824.645	152.23
1827.856	154.96
1831.067	156.36
1834.278	156.79
1837.488	158.11
1840.698	159.48
1843.908	160.06
1847.117	162.06
1850.326	164.18
1853.535	164.44
1856.744	166.78
1859.952	168.17
1863.16	168.01
1866.368	166.37
1869.575	169.7
1872.782	168.51
1875.989	167.12
1879.196	166.77
1882.402	165.05
1885.608	165.88
1888.814	166.09
1892.019	167.95
1895.224	165.89
1898.429	167.27
1901.634	169.28
1904.838	168.42
1908.042	171.28
1911.246	170.82
1914.449	172.44
1917.652	171.02
1920.855	170.95
1924.058	171.74
1927.26	170.62
1930.462	172.1
1933.664	171.13
1936.865	170.59
1940.066	168.49
1943.267	166.7
1946.467	169.19
1949.668	168.99
1952.868	170.17
1956.067	169.94
1959.267	169.93
1962.466	170.58
1965.665	172.43
1968.863	172.99
1972.061	174.86
1975.259	178.61
1978.457	179.78
1981.654	180.47
1984.852	182.09
1988.048	185.01
1991.245	187.67
1994.441	191.01
1997.637	194.35
2000.833	197.74
2004.028	199.49
2007.223	206.69
2010.418	210.94
2013.613	219.48
2016.807	225.68
2020.001	230.65
2023.194	236.93
2026.388	245.83
2029.581	256.66
2032.774	265.4
2035.966	272.79
2039.158	281.91
2042.35	284.79
2045.542	290.32
2048.733	305.16
2051.924	307.14
2055.115	312.55
2058.306	315.41
2061.496	321.35
2064.686	322.49
2067.875	317.12
2071.065	321.19
2074.254	323.13
2077.442	332.09
2080.631	334.24
2083.819	332.65
2087.007	341.15
2090.195	344.95
2093.382	346.1
2096.569	345.51
2099.756	351.51
2102.942	362.85
2106.128	371.32
2109.314	370.63
2112.5	371.49
2115.685	368.75
2118.87	369
2122.055	371.18
2125.239	379.61
2128.424	387.47
2131.608	386.48
2134.791	388.23
2137.974	388.5
2141.157	388.49
2144.34	394.56
2147.523	400.04
2150.705	412.19
2153.887	408.33
2157.068	411.94
2160.25	415.15
2163.431	413.13
2166.611	421.29
2169.792	425.91
2172.972	434.04
2176.152	432.66
2179.331	441.6
2182.511	442.86
2185.69	447.22
2188.868	466.08
2192.047	476.23
2195.225	481.14
2198.403	493.87
2201.58	485.25
2204.758	500.57
2207.935	503.4
2211.111	518.71
2214.288	521.26
2217.464	527.23
2220.64	531.61
2223.815	533.2
2226.991	523.05
2230.166	529.19
2233.34	541.43
2236.515	560.24
2239.689	553.2
2242.863	561.34
2246.036	553.6
2249.209	569.2
2252.382	567.29
2255.555	588.24
2258.727	590.01
2261.9	614.93
2265.071	621.43
2268.243	612.78
2271.414	631.67
2274.585	645.22
2277.756	647.24
2280.926	675.32
2284.096	675.11
2287.266	677.6
2290.436	663.59
2293.605	679.78
2296.774	700.56
2299.942	700.77
2303.111	728.79
2306.279	738.32
2309.447	742.21
2312.614	740.22
2315.781	759.33
2318.948	763.77
2322.115	781.82
2325.281	823.5
2328.447	816.06
2331.613	818.19
2334.779	832.86
2337.944	839.81
2341.109	860.27
2344.274	863.8
2347.438	896.04
2350.602	899.87
2353.766	963.32
2356.929	965.31
2360.092	970.62
2363.255	979.99
2366.418	995.57
2369.58	1015.13
2372.742	1014.74
2375.904	1005.43
2379.066	1041.96
2382.227	1094.05
2385.388	1104
2388.548	1044.17
2391.709	1037.64
2394.869	1076.73
2398.029	1071.28
2401.188	1071.15
2404.347	1109.23
2407.506	1148.11
2410.665	1106.04
2413.823	1105.98
2416.981	1106.99
2420.139	1047.8
2423.296	1135.01
2426.453	1203.92
2429.61	1148.02
2432.767	1233.56
2435.923	1274.58
2439.079	1214.39
2442.235	1240.54
2445.391	1268.34
2448.546	1260.35
2451.701	1333.1
2454.855	1424.5
2458.009	1259.6
2461.163	1286.2
2464.317	1294.28
2467.471	1267.93
2470.624	1307.38
2473.777	1297.42
2476.929	1252.87
2480.082	1339.12
2483.234	1406.84
2486.385	1426.19
2489.537	1461.05
2492.688	1608.45
2495.839	1576.38
2498.989	1629.47
2502.14	1632.66
2505.29	1556.49
2508.439	1730.53
2511.589	1784.17
2514.738	1734.02
2517.887	1712.93
2521.035	1599.82
2524.183	1580.14
2527.331	1565.82
2530.479	1531.71
2533.627	1567.21
