Data from N_2_div_il_4n_081_Splice17_10.txt Node
Date: Sat Feb 29 14:12:31 EST 2020
User: sa697716
Spectrometer: FLMS03696
Trigger mode: 0
Integration Time (sec): 3.180400E-1
Scans to average: 20
Electric dark correction enabled: true
Nonlinearity correction enabled: true
Boxcar width: 5
XAxis mode: Wavelengths
Number of Pixels in Spectrum: 2048
>>>>>Begin Spectral Data<<<<<
187.83	97.7
188.298	98.34
188.766	91.91
189.233	95.07
189.701	111.73
190.169	114.05
190.636	128.99
191.104	152.06
191.571	608.26
192.039	355.66
192.506	-403.94
192.974	-414.58
193.441	196.28
193.908	64
194.375	123.66
194.842	254.68
195.31	148.94
195.777	113.39
196.244	40.47
196.711	41.75
197.177	38.66
197.644	38.64
198.111	39.26
198.578	39.08
199.045	39.31
199.511	39.64
199.978	40.3
200.445	40.53
200.911	41.14
201.378	41.75
201.844	42.07
202.31	42.66
202.777	42.74
203.243	42.89
203.709	43.45
204.176	43.2
204.642	43.11
205.108	42.81
205.574	43.05
206.04	42.92
206.506	42.52
206.972	42.1
207.438	42.07
207.903	42.27
208.369	41.27
208.835	41.24
209.301	40.95
209.766	40.61
210.232	40.23
210.697	39.69
211.163	38.75
211.628	38.32
212.094	37.7
212.559	36.81
213.024	35.95
213.49	35.43
213.955	34.44
214.42	33.72
214.885	32.72
215.35	31.78
215.815	30.24
216.28	29.24
216.745	27.63
217.21	26.18
217.675	24.74
218.14	23.24
218.604	21.97
219.069	20.82
219.534	19.83
219.998	19.06
220.463	18.32
220.927	17.81
221.392	17.25
221.856	16.79
222.32	16.38
222.785	16.05
223.249	15.73
223.713	15.51
224.177	15.2
224.642	14.96
225.106	14.68
225.57	14.45
226.034	14.22
226.497	13.98
226.961	13.77
227.425	13.52
227.889	13.3
228.353	13.11
228.816	12.89
229.28	12.72
229.744	12.55
230.207	12.38
230.671	12.21
231.134	12.03
231.597	11.87
232.061	11.7
232.524	11.58
232.987	11.43
233.45	11.28
233.914	11.13
234.377	11
234.84	10.85
235.303	10.74
235.766	10.61
236.229	10.52
236.691	10.42
237.154	10.31
237.617	10.19
238.08	10.08
238.542	9.99
239.005	9.9
239.468	9.79
239.93	9.71
240.393	9.61
240.855	9.5
241.317	9.41
241.78	9.33
242.242	9.24
242.704	9.16
243.166	9.09
243.629	9.01
244.091	8.92
244.553	8.85
245.015	8.77
245.477	8.7
245.939	8.62
246.4	8.54
246.862	8.46
247.324	8.4
247.786	8.35
248.247	8.29
248.709	8.22
249.17	8.16
249.632	8.09
250.093	8.01
250.555	7.95
251.016	7.91
251.477	7.84
251.939	7.78
252.4	7.72
252.861	7.65
253.322	7.6
253.783	7.56
254.244	7.51
254.705	7.48
255.166	7.45
255.627	7.4
256.088	7.34
256.549	7.31
257.009	7.27
257.47	7.23
257.931	7.19
258.391	7.14
258.852	7.08
259.312	7.04
259.773	6.99
260.233	6.94
260.694	6.9
261.154	6.86
261.614	6.81
262.074	6.78
262.534	6.73
262.994	6.69
263.455	6.65
263.915	6.62
264.374	6.58
264.834	6.54
265.294	6.5
265.754	6.46
266.214	6.43
266.673	6.41
267.133	6.37
267.593	6.35
268.052	6.31
268.512	6.29
268.971	6.26
269.431	6.24
269.89	6.22
270.349	6.2
270.809	6.18
271.268	6.17
271.727	6.15
272.186	6.13
272.645	6.11
273.104	6.09
273.563	6.07
274.022	6.05
274.481	6.02
274.94	6
275.399	5.98
275.857	5.97
276.316	5.93
276.775	5.9
277.233	5.87
277.692	5.85
278.15	5.83
278.609	5.81
279.067	5.79
279.525	5.76
279.984	5.75
280.442	5.73
280.9	5.71
281.358	5.69
281.816	5.68
282.274	5.67
282.732	5.65
283.19	5.64
283.648	5.63
284.106	5.61
284.564	5.61
285.021	5.6
285.479	5.58
285.937	5.57
286.394	5.55
286.852	5.54
287.309	5.53
287.767	5.51
288.224	5.5
288.682	5.47
289.139	5.46
289.596	5.44
290.053	5.41
290.511	5.38
290.968	5.36
291.425	5.35
291.882	5.33
292.339	5.31
292.796	5.29
293.252	5.26
293.709	5.24
294.166	5.22
294.623	5.2
295.079	5.18
295.536	5.17
295.992	5.15
296.449	5.13
296.905	5.11
297.362	5.09
297.818	5.08
298.274	5.07
298.731	5.05
299.187	5.05
299.643	5.04
300.099	5.03
300.555	5.01
301.011	5.01
301.467	4.99
301.923	4.98
302.379	4.97
302.835	4.96
303.291	4.95
303.746	4.93
304.202	4.91
304.658	4.89
305.113	4.89
305.569	4.88
306.024	4.87
306.479	4.86
306.935	4.86
307.39	4.84
307.845	4.84
308.301	4.84
308.756	4.85
309.211	4.84
309.666	4.84
310.121	4.84
310.576	4.83
311.031	4.82
311.486	4.82
311.94	4.8
312.395	4.8
312.85	4.8
313.305	4.79
313.759	4.79
314.214	4.79
314.668	4.78
315.123	4.78
315.577	4.79
316.032	4.78
316.486	4.78
316.94	4.77
317.394	4.76
317.849	4.74
318.303	4.73
318.757	4.71
319.211	4.69
319.665	4.67
320.119	4.66
320.572	4.64
321.026	4.63
321.48	4.6
321.934	4.6
322.387	4.59
322.841	4.58
323.295	4.56
323.748	4.55
324.202	4.55
324.655	4.54
325.108	4.53
325.562	4.52
326.015	4.5
326.468	4.5
326.921	4.48
327.374	4.48
327.827	4.47
328.28	4.46
328.733	4.44
329.186	4.44
329.639	4.42
330.092	4.42
330.545	4.42
330.997	4.42
331.45	4.42
331.903	4.41
332.355	4.41
332.808	4.41
333.26	4.42
333.713	4.43
334.165	4.44
334.617	4.44
335.069	4.44
335.522	4.43
335.974	4.44
336.426	4.44
336.878	4.44
337.33	4.45
337.782	4.45
338.234	4.44
338.686	4.43
339.137	4.43
339.589	4.43
340.041	4.43
340.493	4.42
340.944	4.41
341.396	4.4
341.847	4.4
342.299	4.38
342.75	4.35
343.201	4.34
343.653	4.32
344.104	4.3
344.555	4.29
345.006	4.27
345.457	4.25
345.908	4.25
346.359	4.24
346.81	4.23
347.261	4.23
347.712	4.23
348.163	4.22
348.613	4.21
349.064	4.2
349.515	4.19
349.965	4.19
350.416	4.19
350.866	4.18
351.317	4.17
351.767	4.17
352.217	4.16
352.668	4.15
353.118	4.16
353.568	4.16
354.018	4.17
354.468	4.16
354.918	4.16
355.368	4.17
355.818	4.16
356.268	4.17
356.718	4.16
357.168	4.15
357.617	4.16
358.067	4.14
358.517	4.14
358.966	4.15
359.416	4.16
359.865	4.16
360.315	4.15
360.764	4.15
361.213	4.14
361.663	4.14
362.112	4.15
362.561	4.15
363.01	4.16
363.459	4.15
363.908	4.14
364.357	4.14
364.806	4.14
365.255	4.14
365.703	4.14
366.152	4.15
366.601	4.15
367.05	4.15
367.498	4.15
367.947	4.14
368.395	4.15
368.844	4.15
369.292	4.15
369.74	4.15
370.189	4.15
370.637	4.14
371.085	4.14
371.533	4.13
371.981	4.13
372.429	4.13
372.877	4.13
373.325	4.12
373.773	4.12
374.221	4.12
374.669	4.12
375.116	4.12
375.564	4.13
376.012	4.12
376.459	4.13
376.907	4.13
377.354	4.13
377.801	4.15
378.249	4.16
378.696	4.17
379.143	4.17
379.591	4.18
380.038	4.2
380.485	4.2
380.932	4.22
381.379	4.22
381.826	4.23
382.273	4.24
382.72	4.25
383.166	4.26
383.613	4.26
384.06	4.28
384.506	4.26
384.953	4.27
385.4	4.27
385.846	4.27
386.292	4.29
386.739	4.29
387.185	4.31
387.631	4.31
388.078	4.33
388.524	4.33
388.97	4.34
389.416	4.36
389.862	4.37
390.308	4.38
390.754	4.4
391.2	4.42
391.645	4.44
392.091	4.45
392.537	4.48
392.983	4.51
393.428	4.53
393.874	4.56
394.319	4.58
394.765	4.6
395.21	4.62
395.655	4.65
396.101	4.67
396.546	4.69
396.991	4.71
397.436	4.72
397.881	4.74
398.326	4.77
398.771	4.8
399.216	4.84
399.661	4.88
400.106	4.92
400.551	4.94
400.995	4.94
401.44	4.95
401.885	4.96
402.329	4.98
402.774	4.98
403.218	4.98
403.663	4.99
404.107	5
404.551	5.01
404.995	5.02
405.44	5.03
405.884	5.06
406.328	5.08
406.772	5.1
407.216	5.13
407.66	5.17
408.104	5.18
408.547	5.2
408.991	5.22
409.435	5.22
409.879	5.23
410.322	5.26
410.766	5.28
411.209	5.3
411.653	5.3
412.096	5.31
412.54	5.31
412.983	5.33
413.426	5.36
413.869	5.38
414.312	5.42
414.756	5.46
415.199	5.47
415.642	5.49
416.085	5.52
416.527	5.56
416.97	5.57
417.413	5.58
417.856	5.59
418.298	5.57
418.741	5.58
419.184	5.58
419.626	5.56
420.069	5.55
420.511	5.55
420.953	5.56
421.396	5.57
421.838	5.59
422.28	5.62
422.722	5.65
423.164	5.66
423.606	5.67
424.048	5.68
424.49	5.71
424.932	5.73
425.374	5.73
425.816	5.73
426.258	5.7
426.699	5.67
427.141	5.65
427.582	5.64
428.024	5.65
428.465	5.66
428.907	5.68
429.348	5.67
429.789	5.69
430.231	5.68
430.672	5.68
431.113	5.73
431.554	5.76
431.995	5.78
432.436	5.79
432.877	5.78
433.318	5.79
433.759	5.78
434.2	5.8
434.64	5.8
435.081	5.82
435.522	5.85
435.962	5.84
436.403	5.87
436.843	5.88
437.284	5.9
437.724	5.94
438.164	5.95
438.604	5.97
439.045	5.98
439.485	5.97
439.925	5.98
440.365	5.98
440.805	5.99
441.245	5.97
441.685	5.99
442.125	6.01
442.564	6.01
443.004	6.02
443.444	6.03
443.883	6.04
444.323	6.08
444.762	6.11
445.202	6.15
445.641	6.17
446.081	6.19
446.52	6.2
446.959	6.23
447.398	6.27
447.837	6.3
448.276	6.33
448.716	6.36
449.154	6.37
449.593	6.39
450.032	6.4
450.471	6.42
450.91	6.42
451.349	6.43
451.787	6.42
452.226	6.39
452.664	6.39
453.103	6.37
453.541	6.38
453.98	6.37
454.418	6.33
454.856	6.32
455.295	6.3
455.733	6.3
456.171	6.29
456.609	6.28
457.047	6.29
457.485	6.28
457.923	6.27
458.361	6.25
458.798	6.25
459.236	6.27
459.674	6.26
460.111	6.26
460.549	6.25
460.987	6.24
461.424	6.23
461.862	6.23
462.299	6.23
462.736	6.23
463.173	6.24
463.611	6.22
464.048	6.22
464.485	6.23
464.922	6.23
465.359	6.25
465.796	6.23
466.233	6.25
466.67	6.26
467.106	6.24
467.543	6.24
467.98	6.24
468.416	6.26
468.853	6.26
469.29	6.26
469.726	6.26
470.162	6.25
470.599	6.27
471.035	6.27
471.471	6.25
471.907	6.26
472.344	6.27
472.78	6.26
473.216	6.26
473.652	6.25
474.088	6.26
474.523	6.25
474.959	6.24
475.395	6.23
475.831	6.22
476.266	6.22
476.702	6.22
477.138	6.19
477.573	6.18
478.008	6.18
478.444	6.17
478.879	6.15
479.314	6.14
479.75	6.14
480.185	6.13
480.62	6.12
481.055	6.11
481.49	6.09
481.925	6.09
482.36	6.07
482.795	6.06
483.229	6.05
483.664	6.04
484.099	6.03
484.534	6.01
484.968	6.01
485.403	6.02
485.837	6.02
486.271	6.03
486.706	6.02
487.14	6.04
487.574	6.05
488.009	6.07
488.443	6.08
488.877	6.09
489.311	6.11
489.745	6.12
490.179	6.13
490.613	6.15
491.046	6.17
491.48	6.2
491.914	6.2
492.348	6.22
492.781	6.23
493.215	6.25
493.648	6.29
494.082	6.31
494.515	6.34
494.948	6.37
495.382	6.41
495.815	6.46
496.248	6.51
496.681	6.56
497.114	6.61
497.547	6.67
497.98	6.73
498.413	6.79
498.846	6.85
499.279	6.94
499.711	7.01
500.144	7.09
500.577	7.15
501.009	7.23
501.442	7.33
501.874	7.41
502.306	7.52
502.739	7.61
503.171	7.72
503.603	7.84
504.036	7.96
504.468	8.09
504.9	8.23
505.332	8.37
505.764	8.53
506.196	8.7
506.627	8.86
507.059	9.03
507.491	9.22
507.923	9.41
508.354	9.61
508.786	9.81
509.217	9.99
509.649	10.21
510.08	10.43
510.512	10.65
510.943	10.88
511.374	11.13
511.805	11.38
512.237	11.64
512.668	11.89
513.099	12.16
513.53	12.45
513.961	12.76
514.391	13.03
514.822	13.32
515.253	13.62
515.684	13.91
516.114	14.22
516.545	14.54
516.975	14.85
517.406	15.17
517.836	15.48
518.267	15.79
518.697	16.11
519.127	16.44
519.558	16.77
519.988	17.1
520.418	17.41
520.848	17.72
521.278	18.04
521.708	18.33
522.138	18.63
522.567	18.94
522.997	19.23
523.427	19.53
523.857	19.82
524.286	20.09
524.716	20.37
525.145	20.65
525.575	20.92
526.004	21.17
526.433	21.45
526.863	21.7
527.292	21.95
527.721	22.17
528.15	22.38
528.579	22.59
529.008	22.79
529.437	22.97
529.866	23.12
530.295	23.29
530.724	23.47
531.152	23.62
531.581	23.76
532.01	23.88
532.438	24.01
532.867	24.14
533.295	24.27
533.723	24.42
534.152	24.52
534.58	24.64
535.008	24.74
535.436	24.8
535.865	24.87
536.293	24.96
536.721	25.05
537.149	25.12
537.576	25.18
538.004	25.24
538.432	25.29
538.86	25.35
539.287	25.41
539.715	25.46
540.143	25.52
540.57	25.55
540.998	25.6
541.425	25.64
541.852	25.69
542.28	25.72
542.707	25.75
543.134	25.77
543.561	25.78
543.988	25.8
544.415	25.84
544.842	25.86
545.269	25.92
545.696	25.94
546.123	25.96
546.549	25.99
546.976	26.03
547.403	26.05
547.829	26.1
548.256	26.12
548.682	26.15
549.108	26.18
549.535	26.21
549.961	26.21
550.387	26.21
550.813	26.22
551.24	26.22
551.666	26.24
552.092	26.23
552.518	26.22
552.943	26.23
553.369	26.22
553.795	26.17
554.221	26.13
554.646	26.1
555.072	26.05
555.498	26
555.923	25.94
556.349	25.84
556.774	25.78
557.199	25.7
557.625	25.62
558.05	25.53
558.475	25.43
558.9	25.34
559.325	25.24
559.75	25.14
560.175	25.03
560.6	24.9
561.025	24.79
561.449	24.66
561.874	24.53
562.299	24.37
562.723	24.24
563.148	24.1
563.572	23.96
563.997	23.81
564.421	23.64
564.846	23.46
565.27	23.31
565.694	23.13
566.118	22.94
566.542	22.76
566.966	22.56
567.39	22.35
567.814	22.14
568.238	21.93
568.662	21.73
569.086	21.54
569.509	21.35
569.933	21.15
570.357	20.94
570.78	20.77
571.204	20.57
571.627	20.4
572.05	20.23
572.474	20.06
572.897	19.9
573.32	19.73
573.743	19.56
574.166	19.41
574.589	19.26
575.012	19.13
575.435	18.97
575.858	18.85
576.281	18.71
576.704	18.59
577.126	18.48
577.549	18.35
577.972	18.25
578.394	18.12
578.817	18
579.239	17.9
579.661	17.81
580.084	17.7
580.506	17.59
580.928	17.49
581.35	17.41
581.772	17.3
582.194	17.21
582.616	17.1
583.038	17.03
583.46	16.97
583.882	16.89
584.303	16.81
584.725	16.74
585.147	16.65
585.568	16.58
585.99	16.51
586.411	16.45
586.833	16.39
587.254	16.33
587.675	16.27
588.096	16.18
588.518	16.11
588.939	16.06
589.36	16.01
589.781	15.96
590.202	15.91
590.623	15.86
591.043	15.81
591.464	15.76
591.885	15.7
592.305	15.67
592.726	15.63
593.147	15.59
593.567	15.57
593.987	15.54
594.408	15.5
594.828	15.46
595.248	15.43
595.669	15.4
596.089	15.38
596.509	15.35
596.929	15.31
597.349	15.27
597.769	15.23
598.189	15.18
598.608	15.12
599.028	15.09
599.448	15.06
599.867	15
600.287	14.95
600.706	14.89
601.126	14.84
601.545	14.8
601.965	14.75
602.384	14.69
602.803	14.63
603.222	14.57
603.641	14.51
604.061	14.43
604.48	14.36
604.898	14.29
605.317	14.22
605.736	14.15
606.155	14.06
606.574	13.99
606.992	13.89
607.411	13.81
607.829	13.69
608.248	13.62
608.666	13.53
609.085	13.45
609.503	13.36
609.921	13.27
610.339	13.18
610.758	13.09
611.176	13.01
611.594	12.92
612.012	12.83
612.43	12.8
612.847	12.71
613.265	12.64
613.683	12.58
614.101	12.5
614.518	12.43
614.936	12.36
615.353	12.28
615.771	12.21
616.188	12.16
616.606	12.11
617.023	12.03
617.44	11.97
617.857	11.9
618.274	11.84
618.691	11.79
619.108	11.76
619.525	11.71
619.942	11.68
620.359	11.65
620.776	11.62
621.192	11.58
621.609	11.54
622.026	11.52
622.442	11.51
622.859	11.5
623.275	11.47
623.691	11.45
624.108	11.43
624.524	11.41
624.94	11.39
625.356	11.38
625.772	11.35
626.188	11.36
626.604	11.33
627.02	11.31
627.436	11.29
627.852	11.28
628.268	11.26
628.683	11.25
629.099	11.22
629.514	11.21
629.93	11.19
630.345	11.17
630.761	11.13
631.176	11.12
631.591	11.09
632.007	11.05
632.422	11.02
632.837	10.98
633.252	10.93
633.667	10.86
634.082	10.81
634.497	10.73
634.911	10.66
635.326	10.57
635.741	10.47
636.155	10.39
636.57	10.29
636.984	10.19
637.399	10.07
637.813	9.96
638.228	9.87
638.642	9.77
639.056	9.67
639.47	9.56
639.884	9.46
640.298	9.35
640.712	9.24
641.126	9.13
641.54	9.03
641.954	8.95
642.368	8.86
642.781	8.75
643.195	8.65
643.609	8.55
644.022	8.47
644.436	8.38
644.849	8.33
645.262	8.25
645.676	8.18
646.089	8.1
646.502	8.02
646.915	7.95
647.328	7.9
647.741	7.84
648.154	7.79
648.567	7.73
648.98	7.68
649.393	7.61
649.805	7.58
650.218	7.55
650.631	7.52
651.043	7.48
651.456	7.45
651.868	7.42
652.28	7.39
652.693	7.36
653.105	7.33
653.517	7.31
653.929	7.28
654.341	7.23
654.753	7.19
655.165	7.14
655.577	7.1
655.989	7.03
656.401	6.97
656.813	6.91
657.224	6.86
657.636	6.8
658.047	6.74
658.459	6.68
658.87	6.63
659.282	6.58
659.693	6.53
660.104	6.48
660.515	6.44
660.926	6.4
661.338	6.34
661.749	6.29
662.159	6.25
662.57	6.21
662.981	6.17
663.392	6.12
663.803	6.08
664.213	6.04
664.624	6.01
665.035	5.97
665.445	5.94
665.855	5.94
666.266	5.92
666.676	5.89
667.086	5.87
667.497	5.84
667.907	5.83
668.317	5.8
668.727	5.8
669.137	5.78
669.547	5.79
669.956	5.8
670.366	5.79
670.776	5.79
671.186	5.8
671.595	5.83
672.005	5.85
672.414	5.86
672.824	5.9
673.233	5.91
673.642	5.92
674.052	5.93
674.461	5.94
674.87	5.96
675.279	5.98
675.688	6.01
676.097	6.03
676.506	6.05
676.915	6.08
677.323	6.12
677.732	6.16
678.141	6.2
678.549	6.25
678.958	6.3
679.366	6.34
679.775	6.4
680.183	6.45
680.592	6.5
681	6.56
681.408	6.62
681.816	6.68
682.224	6.76
682.632	6.85
683.04	6.93
683.448	7.02
683.856	7.14
684.264	7.25
684.671	7.4
685.079	7.56
685.487	7.75
685.894	7.94
686.302	8.17
686.709	8.4
687.116	8.65
687.524	8.95
687.931	9.28
688.338	9.64
688.745	10.02
689.152	10.42
689.559	10.85
689.966	11.29
690.373	11.78
690.78	12.27
691.187	12.81
691.593	13.38
692	13.96
692.407	14.54
692.813	15.16
693.22	15.79
693.626	16.44
694.032	17.08
694.439	17.78
694.845	18.48
695.251	19.19
695.657	19.88
696.063	20.57
696.469	21.28
696.875	21.99
697.281	22.68
697.687	23.42
698.093	24.14
698.498	24.87
698.904	25.58
699.31	26.27
699.715	26.98
700.12	27.68
700.526	28.39
700.931	29.07
701.337	29.77
701.742	30.43
702.147	31.11
702.552	31.77
702.957	32.4
703.362	33.06
703.767	33.68
704.172	34.3
704.577	34.93
704.981	35.55
705.386	36.18
705.791	36.81
706.195	37.42
706.6	37.97
707.004	38.54
707.408	39.12
707.813	39.68
708.217	40.24
708.621	40.79
709.025	41.32
709.43	41.83
709.834	42.36
710.237	42.87
710.641	43.41
711.045	43.93
711.449	44.46
711.853	44.97
712.256	45.51
712.66	46.02
713.064	46.52
713.467	46.99
713.87	47.49
714.274	47.98
714.677	48.43
715.08	48.84
715.484	49.32
715.887	49.74
716.29	50.17
716.693	50.55
717.096	50.96
717.499	51.39
717.901	51.8
718.304	52.16
718.707	52.53
719.109	52.92
719.512	53.35
719.915	53.7
720.317	54.06
720.719	54.4
721.122	54.74
721.524	55.05
721.926	55.37
722.328	55.69
722.731	56.02
723.133	56.31
723.535	56.62
723.937	56.88
724.338	57.14
724.74	57.42
725.142	57.61
725.544	57.84
725.945	58.09
726.347	58.32
726.748	58.54
727.15	58.77
727.551	59
727.952	59.18
728.354	59.37
728.755	59.56
729.156	59.74
729.557	59.99
729.958	60.22
730.359	60.41
730.76	60.55
731.161	60.7
731.562	60.84
731.962	61.02
732.363	61.16
732.763	61.33
733.164	61.44
733.564	61.58
733.965	61.69
734.365	61.77
734.766	61.88
735.166	61.97
735.566	62.06
735.966	62.14
736.366	62.21
736.766	62.31
737.166	62.4
737.566	62.52
737.966	62.58
738.365	62.69
738.765	62.76
739.165	62.81
739.564	62.88
739.964	62.97
740.363	63.04
740.763	63.06
741.162	63.11
741.561	63.15
741.96	63.22
742.36	63.29
742.759	63.3
743.158	63.34
743.557	63.41
743.955	63.52
744.354	63.57
744.753	63.64
745.152	63.7
745.55	63.75
745.949	63.8
746.348	63.84
746.746	63.89
747.144	63.97
747.543	64.03
747.941	64.1
748.339	64.16
748.737	64.24
749.136	64.28
749.534	64.36
749.932	64.38
750.33	64.4
750.727	64.45
751.125	64.48
751.523	64.48
751.921	64.53
752.318	64.54
752.716	64.47
753.113	64.47
753.511	64.45
753.908	64.43
754.305	64.42
754.703	64.41
755.1	64.39
755.497	64.35
755.894	64.37
756.291	64.33
756.688	64.29
757.085	64.32
757.482	64.26
757.878	64.26
758.275	64.24
758.672	64.26
759.068	64.29
759.465	64.26
759.861	64.32
760.258	64.26
760.654	64.25
761.05	64.27
761.447	64.24
761.843	64.25
762.239	64.24
762.635	64.25
763.031	64.24
763.427	64.21
763.822	64.21
764.218	64.16
764.614	64.18
765.01	64.16
765.405	64.16
765.801	64.15
766.196	64.17
766.592	64.2
766.987	64.2
767.382	64.19
767.778	64.2
768.173	64.21
768.568	64.19
768.963	64.16
769.358	64.19
769.753	64.22
770.148	64.23
770.542	64.18
770.937	64.14
771.332	64.12
771.726	64.08
772.121	64.04
772.515	64.06
772.91	64.06
773.304	64.09
773.699	64.08
774.093	64.04
774.487	64.05
774.881	64.09
775.275	64.1
775.669	64.13
776.063	64.09
776.457	64.1
776.851	64.06
777.245	64.09
777.638	64.11
778.032	64.1
778.425	64.12
778.819	64.12
779.212	64.07
779.606	64.08
779.999	64.05
780.392	64.11
780.786	64.16
781.179	64.22
781.572	64.21
781.965	64.22
782.358	64.2
782.751	64.21
783.143	64.21
783.536	64.27
783.929	64.27
784.322	64.27
784.714	64.29
785.107	64.3
785.499	64.28
785.891	64.3
786.284	64.28
786.676	64.33
787.068	64.33
787.46	64.34
787.852	64.34
788.245	64.35
788.636	64.38
789.028	64.37
789.42	64.35
789.812	64.36
790.204	64.29
790.595	64.3
790.987	64.28
791.378	64.29
791.77	64.29
792.161	64.29
792.553	64.32
792.944	64.34
793.335	64.36
793.726	64.32
794.117	64.32
794.508	64.37
794.899	64.35
795.29	64.36
795.681	64.35
796.072	64.34
796.463	64.34
796.853	64.34
797.244	64.32
797.634	64.3
798.025	64.34
798.415	64.34
798.806	64.37
799.196	64.44
799.586	64.47
799.976	64.52
800.366	64.55
800.756	64.53
801.146	64.53
801.536	64.55
801.926	64.57
802.316	64.55
802.706	64.56
803.095	64.59
803.485	64.58
803.874	64.58
804.264	64.6
804.653	64.6
805.043	64.59
805.432	64.56
805.821	64.56
806.21	64.6
806.599	64.66
806.988	64.67
807.377	64.65
807.766	64.64
808.155	64.65
808.544	64.61
808.933	64.6
809.321	64.64
809.71	64.7
810.098	64.7
810.487	64.72
810.875	64.72
811.264	64.76
811.652	64.77
812.04	64.8
812.428	64.81
812.816	64.86
813.204	64.9
813.592	64.94
813.98	64.94
814.368	64.95
814.756	64.95
815.144	64.95
815.531	64.96
815.919	64.95
816.306	64.92
816.694	64.94
817.081	64.9
817.469	64.91
817.856	64.95
818.243	64.96
818.63	64.99
819.017	65
819.404	64.99
819.791	64.96
820.178	65
820.565	65.02
820.952	65.01
821.339	65.07
821.725	65.07
822.112	65.06
822.498	65.07
822.885	65.09
823.271	65.13
823.657	65.14
824.044	65.14
824.43	65.18
824.816	65.19
825.202	65.21
825.588	65.19
825.974	65.2
826.36	65.21
826.746	65.22
827.132	65.18
827.517	65.17
827.903	65.19
828.289	65.16
828.674	65.12
829.06	65.14
829.445	65.15
829.83	65.15
830.216	65.16
830.601	65.15
830.986	65.13
831.371	65.18
831.756	65.14
832.141	65.14
832.526	65.15
832.911	65.2
833.295	65.18
833.68	65.15
834.065	65.16
834.449	65.11
834.834	65.08
835.218	65.05
835.603	65.03
835.987	65.04
836.371	65.06
836.755	65.03
837.139	64.97
837.524	64.97
837.908	64.96
838.291	64.93
838.675	64.94
839.059	64.94
839.443	64.93
839.827	64.92
840.21	64.93
840.594	64.89
840.977	64.89
841.361	64.91
841.744	64.91
842.127	64.88
842.511	64.84
842.894	64.84
843.277	64.81
843.66	64.79
844.043	64.77
844.426	64.74
844.809	64.75
845.191	64.72
845.574	64.7
845.957	64.66
846.339	64.65
846.722	64.67
847.104	64.65
847.487	64.72
847.869	64.7
848.252	64.71
848.634	64.71
849.016	64.73
849.398	64.74
849.78	64.75
850.162	64.75
850.544	64.77
850.926	64.78
851.307	64.8
851.689	64.78
852.071	64.8
852.452	64.78
852.834	64.79
853.215	64.73
853.597	64.75
853.978	64.73
854.359	64.73
854.741	64.75
855.122	64.74
855.503	64.71
855.884	64.69
856.265	64.72
856.646	64.71
857.026	64.72
857.407	64.71
857.788	64.74
858.169	64.74
858.549	64.76
858.93	64.76
859.31	64.76
859.69	64.76
860.071	64.76
860.451	64.76
860.831	64.81
861.211	64.81
861.591	64.84
861.971	64.77
862.351	64.82
862.731	64.82
863.111	64.81
863.491	64.84
863.87	64.83
864.25	64.86
864.629	64.83
865.009	64.82
865.388	64.79
865.768	64.76
866.147	64.8
866.526	64.78
866.905	64.79
867.284	64.81
867.663	64.8
868.042	64.81
868.421	64.77
868.8	64.8
869.179	64.8
869.558	64.83
869.936	64.87
870.315	64.85
870.693	64.83
871.072	64.79
871.45	64.78
871.828	64.76
872.207	64.79
872.585	64.81
872.963	64.79
873.341	64.82
873.719	64.81
874.097	64.76
874.475	64.81
874.853	64.83
875.23	64.87
875.608	64.86
875.986	64.88
876.363	64.87
876.741	64.87
877.118	64.88
877.495	64.87
877.873	64.91
878.25	64.95
878.627	64.96
879.004	64.97
879.381	64.96
879.758	64.97
880.135	64.94
880.512	64.95
880.889	64.95
881.265	64.96
881.642	64.98
882.019	64.98
882.395	64.97
882.772	64.96
883.148	64.96
883.524	64.98
883.901	65
884.277	65.01
884.653	65
885.029	65.01
885.405	65
885.781	64.98
886.157	64.97
886.532	65.01
886.908	65.03
887.284	65.03
887.659	65.04
888.035	65.03
888.411	65.03
888.786	65.02
889.161	65.02
889.537	65.04
889.912	65.03
890.287	65.03
890.662	65.01
891.037	64.95
891.412	64.92
891.787	64.89
892.162	64.87
892.536	64.86
892.911	64.83
893.286	64.79
893.66	64.76
894.035	64.72
894.409	64.68
894.784	64.67
895.158	64.67
895.532	64.65
895.906	64.6
896.281	64.59
896.655	64.59
897.029	64.61
897.402	64.62
897.776	64.6
898.15	64.6
898.524	64.61
898.898	64.58
899.271	64.58
899.645	64.58
900.018	64.6
900.392	64.59
900.765	64.59
901.138	64.6
901.511	64.61
901.884	64.62
902.258	64.64
902.631	64.64
903.003	64.66
903.376	64.67
903.749	64.7
904.122	64.73
904.495	64.75
904.867	64.77
905.24	64.77
905.612	64.75
905.985	64.72
906.357	64.71
906.729	64.74
907.102	64.73
907.474	64.74
907.846	64.71
908.218	64.68
908.59	64.65
908.962	64.62
909.334	64.6
909.705	64.61
910.077	64.62
910.449	64.64
910.82	64.6
911.192	64.59
911.563	64.57
911.935	64.54
912.306	64.57
912.677	64.62
913.048	64.61
913.419	64.61
913.79	64.6
914.161	64.57
914.532	64.55
914.903	64.55
915.274	64.55
915.645	64.56
916.015	64.61
916.386	64.57
916.756	64.5
917.127	64.51
917.497	64.47
917.868	64.5
918.238	64.52
918.608	64.56
918.978	64.54
919.348	64.52
919.718	64.49
920.088	64.49
920.458	64.51
920.828	64.55
921.198	64.56
921.567	64.55
921.937	64.51
922.306	64.5
922.676	64.48
923.045	64.5
923.415	64.51
923.784	64.54
924.153	64.47
924.522	64.45
924.891	64.4
925.26	64.37
925.629	64.41
925.998	64.44
926.367	64.46
926.736	64.44
927.104	64.4
927.473	64.42
927.842	64.37
928.21	64.39
928.578	64.36
928.947	64.37
929.315	64.37
929.683	64.41
930.051	64.39
930.42	64.33
930.788	64.31
931.156	64.3
931.523	64.26
931.891	64.19
932.259	64.16
932.627	64.11
932.994	64.09
933.362	64.01
933.729	63.87
934.097	63.79
934.464	63.71
934.831	63.59
935.199	63.52
935.566	63.41
935.933	63.4
936.3	63.32
936.667	63.23
937.034	63.12
937.401	63.06
937.767	63
938.134	62.94
938.501	62.96
938.867	63.04
939.234	63.09
939.6	63.13
939.967	63.17
940.333	63.29
940.699	63.5
941.065	63.63
941.431	63.76
941.798	63.93
942.163	64.07
942.529	64.13
942.895	64.23
943.261	64.34
943.627	64.5
943.992	64.61
944.358	64.63
944.723	64.64
945.089	64.7
945.454	64.81
945.82	64.81
946.185	64.91
946.55	65.02
946.915	65.02
947.28	65
947.645	64.92
948.01	64.84
948.375	64.89
948.74	64.73
949.104	64.66
949.469	64.57
949.834	64.54
950.198	64.36
950.562	64.24
950.927	64.17
951.291	64.02
951.655	64.02
952.02	64.03
952.384	64.04
952.748	64.05
953.112	64.09
953.476	64.02
953.839	63.93
954.203	63.92
954.567	63.9
954.931	63.85
955.294	63.81
955.658	63.75
956.021	63.72
956.385	63.64
956.748	63.61
957.111	63.51
957.474	63.48
957.837	63.46
958.2	63.41
958.563	63.36
958.926	63.34
959.289	63.37
959.652	63.38
960.015	63.31
960.377	63.3
960.74	63.2
961.102	63.17
961.465	63.14
961.827	63.06
962.189	63.06
962.552	62.98
962.914	62.99
963.276	63.03
963.638	62.97
964	62.95
964.362	62.87
964.724	62.91
965.085	62.95
965.447	62.92
965.809	62.91
966.17	62.88
966.532	62.95
966.893	62.93
967.255	62.9
967.616	62.91
967.977	62.93
968.338	62.97
968.699	63
969.061	62.83
969.421	62.82
969.782	62.91
970.143	62.95
970.504	62.9
970.865	62.73
971.225	62.7
971.586	62.68
971.946	62.72
972.307	62.67
972.667	62.74
973.027	62.87
973.388	62.8
973.748	62.8
974.108	62.77
974.468	62.81
974.828	62.96
975.188	62.95
975.548	62.96
975.907	62.87
976.267	62.86
976.627	62.75
976.986	62.74
977.346	62.85
977.705	62.86
978.064	62.87
978.424	62.8
978.783	62.75
979.142	62.69
979.501	62.59
979.86	62.61
980.219	62.53
980.578	62.53
980.937	62.61
981.296	62.51
981.654	62.53
982.013	62.52
982.371	62.52
982.73	62.56
983.088	62.58
983.447	62.67
983.805	62.55
984.163	62.65
984.521	62.56
984.879	62.52
985.237	62.61
985.595	62.57
985.953	62.52
986.311	62.61
986.669	62.6
987.026	62.61
987.384	62.59
987.741	62.71
988.099	62.69
988.456	62.71
988.814	62.8
989.171	62.8
989.528	62.7
989.885	62.73
990.242	62.7
990.599	62.64
990.956	62.67
991.313	62.65
991.67	62.57
992.027	62.48
992.383	62.52
992.74	62.42
993.096	62.37
993.453	62.45
993.809	62.54
994.165	62.49
994.522	62.49
994.878	62.45
995.234	62.41
995.59	62.49
995.946	62.57
996.302	62.57
996.658	62.48
997.013	62.45
997.369	62.47
997.725	62.46
998.08	62.43
998.436	62.53
998.791	62.53
999.147	62.63
999.502	62.56
999.857	62.66
1000.212	62.55
1000.567	62.79
1000.922	62.87
1001.277	62.74
1001.632	62.75
1001.987	62.71
1002.342	62.54
1002.696	62.52
1003.051	62.34
1003.406	62.39
1003.76	62.29
1004.114	62.46
1004.469	62.04
1004.823	61.89
1005.177	62.06
1005.531	61.85
1005.885	61.96
1006.239	61.98
1006.593	61.98
1006.947	61.97
1007.301	61.83
1007.655	61.69
1008.008	61.63
1008.362	61.65
1008.715	61.73
1009.069	61.61
1009.422	61.67
1009.776	61.47
1010.129	61.43
1010.482	61.55
1010.835	61.76
1011.188	61.78
1011.541	61.58
1011.894	61.67
1012.247	61.75
1012.6	61.75
1012.952	61.68
1013.305	61.64
1013.657	61.91
1014.01	62.11
1014.362	62.11
1014.715	61.88
1015.067	61.98
1015.419	62.32
1015.771	62.23
1016.123	62.27
1016.475	62.22
1016.827	62.3
1017.179	62.26
1017.531	61.97
1017.883	62
1018.234	61.87
1018.586	61.79
1018.938	61.36
1019.289	61.23
1019.64	61.3
1019.992	61.31
1020.343	60.99
1020.694	60.87
1021.045	60.87
1021.396	60.95
1021.747	60.85
1022.098	60.8
1022.449	60.92
1022.8	61.31
1023.151	61.31
1023.501	61.33
1023.852	61.41
1024.202	61.54
1024.553	61.31
1024.903	61.63
1025.253	61.95
1025.604	61.88
1025.954	61.81
1026.304	62.22
1026.654	62.47
1027.004	62.65
1027.354	62.2
1027.703	62.2
1028.053	62.13
1028.403	62.23
1028.753	62.07
1029.102	61.95
1029.452	62.04
1029.801	62.27
1030.15	61.87
1030.499	61.67
897.758	440.68
901.051	447.51
904.343	452.33
907.636	443.51
910.928	436.28
914.22	442.52
917.511	432.21
920.803	411.26
924.094	397.37
927.384	403.27
930.675	394.2
933.965	389.07
937.255	390.9
940.544	374.19
943.834	357.43
947.123	353.33
950.411	336.03
953.7	332.94
956.988	325.78
960.276	308.65
963.563	307.2
966.851	290.08
970.138	284.91
973.424	266.18
976.711	265.72
979.997	259.65
983.283	252.44
986.568	246.04
989.853	238.25
993.138	230.59
996.423	230.44
999.708	222.55
1002.992	222.84
1006.275	218.19
1009.559	217.24
1012.842	209.9
1016.125	202.56
1019.408	200.81
1022.69	199.56
1025.972	198.18
1029.254	194.22
1032.536	190.04
1035.817	184.43
1039.098	182.57
1042.379	179.07
1045.659	176.4
1048.939	175.68
1052.219	173.35
1055.498	170.68
1058.778	167.49
1062.057	165.12
1065.335	164.72
1068.614	162.54
1071.892	160.86
1075.17	157.91
1078.447	156.72
1081.724	154.76
1085.001	151.49
1088.278	152.18
1091.554	151.05
1094.83	150.77
1098.106	148.7
1101.382	147.49
1104.657	147.48
1107.932	147.48
1111.206	146.51
1114.481	145.66
1117.755	144.44
1121.029	143.98
1124.302	141.96
1127.575	140.18
1130.848	138.93
1134.121	137.69
1137.393	137.84
1140.665	136.34
1143.937	134.08
1147.208	133.25
1150.48	131.46
1153.75	130.77
1157.021	129.9
1160.291	129.89
1163.561	129.3
1166.831	129.35
1170.101	129.26
1173.37	127.04
1176.639	126.02
1179.907	127.25
1183.176	126.03
1186.444	126
1189.711	125.45
1192.979	126.47
1196.246	126.56
1199.513	126.69
1202.78	125.89
1206.046	125.67
1209.312	126.6
1212.578	127.8
1215.843	128.37
1219.108	129.62
1222.373	131.58
1225.638	133.71
1228.902	135.89
1232.166	138.71
1235.43	139.85
1238.693	143.62
1241.956	146.92
1245.219	151.4
1248.482	151.91
1251.744	151.62
1255.006	151.26
1258.268	147.83
1261.529	146.92
1264.79	143.89
1268.051	141.87
1271.312	140.18
1274.572	137.98
1277.832	134.98
1281.092	133.01
1284.351	130.41
1287.61	130.54
1290.869	131.29
1294.128	130.82
1297.386	129.94
1300.644	129.18
1303.902	127.76
1307.159	127.71
1310.416	128
1313.673	129.58
1316.93	130.28
1320.186	132.2
1323.442	133.44
1326.697	134.75
1329.953	134.86
1333.208	139.03
1336.463	143
1339.717	146.33
1342.972	151.48
1346.226	155.42
1349.479	155.9
1352.733	161.65
1355.986	163.34
1359.238	165.94
1362.491	166.89
1365.743	172.54
1368.995	174.45
1372.247	171.71
1375.498	170.38
1378.749	175.31
1382	174.34
1385.251	171.99
1388.501	170.92
1391.751	172.17
1395	170.1
1398.25	171.22
1401.499	170.22
1404.748	167.37
1407.996	167.22
1411.244	167.25
1414.492	164.24
1417.74	159.06
1420.987	156.72
1424.234	153.67
1427.481	149.01
1430.728	145.44
1433.974	139.57
1437.22	136.23
1440.465	131.96
1443.711	127.8
1446.956	124.31
1450.201	119.03
1453.445	114.34
1456.689	111.13
1459.933	108.25
1463.177	103.55
1466.42	102.65
1469.663	100.49
1472.906	97.45
1476.148	94.62
1479.391	93.39
1482.633	92.02
1485.874	91.58
1489.115	91.16
1492.356	90.05
1495.597	88.66
1498.838	88.92
1502.078	87.97
1505.318	88.03
1508.557	87.25
1511.797	87.87
1515.036	87.59
1518.274	87.01
1521.513	86.67
1524.751	85.89
1527.989	87.18
1531.227	87.03
1534.464	87.19
1537.701	87.35
1540.938	86.93
1544.174	87.01
1547.41	86.69
1550.646	86.99
1553.882	87.23
1557.117	86.96
1560.352	87.66
1563.587	86.46
1566.821	86.69
1570.055	86.4
1573.289	86.24
1576.523	86.41
1579.756	86.72
1582.989	87.24
1586.222	86.8
1589.454	86.78
1592.686	86.77
1595.918	86.26
1599.15	86.67
1602.381	86.94
1605.612	87.17
1608.843	86.72
1612.073	87.25
1615.303	87.07
1618.533	86.52
1621.762	87.21
1624.992	87.04
1628.221	87.28
1631.449	87.42
1634.678	87.45
1637.906	87.24
1641.134	87.5
1644.361	87.82
1647.588	87.34
1650.815	87.96
1654.042	87.93
1657.269	87.54
1660.495	88.44
1663.72	87.74
1666.946	88.1
1670.171	88.49
1673.396	89.12
1676.621	89.2
1679.845	89.27
1683.069	88.93
1686.293	88.66
1689.517	88.87
1692.74	89.05
1695.963	88.71
1699.185	89.54
1702.408	90
1705.63	89.8
1708.852	89.87
1712.073	89.44
1715.294	89.3
1718.515	90.18
1721.736	90.24
1724.956	90.1
1728.176	90.06
1731.396	90.07
1734.616	90.18
1737.835	89.69
1741.054	89.29
1744.272	89.01
1747.491	89.47
1750.709	89.88
1753.927	89.74
1757.144	90.4
1760.361	90.76
1763.578	90.6
1766.795	91.33
1770.011	91.19
1773.227	91.39
1776.443	92.46
1779.658	92.53
1782.874	92.96
1786.089	93.1
1789.303	93.03
1792.518	93.18
1795.732	93.86
1798.945	94.94
1802.159	94.43
1805.372	95.59
1808.585	95.61
1811.797	96.25
1815.01	97.1
1818.222	97.33
1821.434	97.28
1824.645	97.9
1827.856	98.48
1831.067	98.89
1834.278	98.91
1837.488	100.03
1840.698	101.04
1843.908	101.54
1847.117	101.92
1850.326	102.05
1853.535	102.09
1856.744	103.83
1859.952	104.1
1863.16	104.15
1866.368	102.25
1869.575	103.43
1872.782	101.75
1875.989	98.77
1879.196	98.41
1882.402	97.2
1885.608	97.28
1888.814	96.13
1892.019	94.75
1895.224	93.37
1898.429	92.53
1901.634	92.99
1904.838	92.26
1908.042	93.1
1911.246	94.11
1914.449	94.16
1917.652	92.73
1920.855	92.43
1924.058	92.34
1927.26	91.88
1930.462	92.53
1933.664	92.73
1936.865	92.5
1940.066	90.53
1943.267	89.33
1946.467	90.97
1949.668	90.29
1952.868	91.4
1956.067	91.21
1959.267	91.75
1962.466	92.38
1965.665	93.59
1968.863	94.23
1972.061	95.42
1975.259	97.91
1978.457	99.83
1981.654	99.32
1984.852	101.19
1988.048	102.41
1991.245	104.17
1994.441	106.26
1997.637	107.69
2000.833	109.96
2004.028	111.11
2007.223	114.23
2010.418	116.24
2013.613	121.22
2016.807	124.09
2020.001	126.39
2023.194	130.5
2026.388	134.6
2029.581	140.37
2032.774	145.76
2035.966	148.34
2039.158	153.27
2042.35	154.45
2045.542	158
2048.733	162.72
2051.924	163.14
2055.115	165.97
2058.306	167.25
2061.496	169.49
2064.686	171.36
2067.875	167.93
2071.065	170.68
2074.254	170.84
2077.442	177.45
2080.631	178.3
2083.819	179.64
2087.007	185.06
2090.195	187.8
2093.382	187.98
2096.569	188.81
2099.756	189.96
2102.942	196.74
2106.128	200.87
2109.314	203.81
2112.5	203.42
2115.685	201.32
2118.87	201.63
2122.055	203.38
2125.239	206.29
2128.424	212.64
2131.608	208.95
2134.791	211.2
2137.974	210.11
2141.157	211.51
2144.34	211.7
2147.523	217.01
2150.705	224.32
2153.887	221.86
2157.068	223.58
2160.25	226.37
2163.431	224.72
2166.611	230.87
2169.792	235.32
2172.972	240.33
2176.152	239.07
2179.331	243.96
2182.511	243.86
2185.69	246.78
2188.868	256.82
2192.047	261.61
2195.225	265.03
2198.403	267.36
2201.58	264.17
2204.758	272.28
2207.935	273.46
2211.111	279.06
2214.288	279.63
2217.464	280.95
2220.64	283.66
2223.815	283.6
2226.991	280.73
2230.166	283.34
2233.34	292.99
2236.515	301.14
2239.689	294.57
2242.863	301.99
2246.036	298.8
2249.209	307.61
2252.382	306.54
2255.555	313.64
2258.727	316.29
2261.9	329.94
2265.071	331.73
2268.243	325.3
2271.414	336.17
2274.585	343.5
2277.756	344.63
2280.926	357.84
2284.096	353.58
2287.266	357.92
2290.436	354.66
2293.605	359.79
2296.774	369.82
2299.942	370.63
2303.111	385.92
2306.279	391.32
2309.447	395.07
2312.614	386.48
2315.781	397.14
2318.948	406.01
2322.115	414.69
2325.281	434.64
2328.447	432.05
2331.613	429.24
2334.779	440.47
2337.944	440.24
2341.109	449.17
2344.274	450.26
2347.438	468.57
2350.602	478.51
2353.766	496.74
2356.929	496.53
2360.092	504.31
2363.255	509.03
2366.418	515.84
2369.58	524.13
2372.742	528.44
2375.904	524.97
2379.066	542.13
2382.227	569.68
2385.388	559.39
2388.548	545.89
2391.709	536.38
2394.869	551.38
2398.029	551.32
2401.188	550.99
2404.347	567.02
2407.506	585.57
2410.665	567.16
2413.823	569.07
2416.981	571.41
2420.139	547.72
2423.296	592.4
2426.453	631.58
2429.61	599.4
2432.767	639.32
2435.923	666.39
2439.079	640.89
2442.235	649.8
2445.391	668.17
2448.546	660.12
2451.701	698.68
2454.855	743.82
2458.009	655.37
2461.163	667.64
2464.317	675.73
2467.471	661.79
2470.624	677.48
2473.777	667.61
2476.929	653.61
2480.082	682.94
2483.234	719.92
2486.385	719.63
2489.537	742.55
2492.688	812.47
2495.839	798.9
2498.989	821.76
2502.14	827.76
2505.29	793.13
2508.439	864.45
2511.589	883.56
2514.738	875.17
2517.887	860.4
2521.035	814.58
2524.183	799.12
2527.331	796.35
2530.479	777.39
2533.627	794.96
