Data from N_2_dec_nc_4n_069_Splice17_08.txt Node
Date: Sat Feb 29 14:06:02 EST 2020
User: sa697716
Spectrometer: FLMS03696
Trigger mode: 0
Integration Time (sec): 3.180400E-1
Scans to average: 20
Electric dark correction enabled: true
Nonlinearity correction enabled: true
Boxcar width: 5
XAxis mode: Wavelengths
Number of Pixels in Spectrum: 2048
>>>>>Begin Spectral Data<<<<<
187.83	63.88
188.298	51.22
188.766	58.24
189.233	42.94
189.701	60.93
190.169	64.72
190.636	71.95
191.104	56.73
191.571	69.81
192.039	77.35
192.506	-66.77
192.974	3687.11
193.441	42.59
193.908	82.78
194.375	-3.14
194.842	72.44
195.31	62.76
195.777	103.39
196.244	37.64
196.711	32.93
197.177	29.13
197.644	29.11
198.111	27.89
198.578	27.06
199.045	27.21
199.511	27.66
199.978	27.83
200.445	27.8
200.911	28.18
201.378	28.28
201.844	28.6
202.31	29.15
202.777	29.54
203.243	29.9
203.709	30.78
204.176	30.27
204.642	30.15
205.108	30.08
205.574	30.73
206.04	30.33
206.506	30.29
206.972	29.65
207.438	29.43
207.903	29.35
208.369	29.1
208.835	28.82
209.301	29.44
209.766	29.31
210.232	29.55
210.697	28.97
211.163	28.63
211.628	28.01
212.094	27.91
212.559	27.77
213.024	27.38
213.49	27.2
213.955	27.02
214.42	26.29
214.885	25.87
215.35	25.4
215.815	24.77
216.28	24.01
216.745	23.39
217.21	22.33
217.675	21.24
218.14	20.26
218.604	19.35
219.069	18.62
219.534	18.04
219.998	17.58
220.463	17.13
220.927	16.76
221.392	16.42
221.856	16.13
222.32	15.88
222.785	15.64
223.249	15.42
223.713	15.22
224.177	15.01
224.642	14.84
225.106	14.65
225.57	14.43
226.034	14.28
226.497	14.09
226.961	13.92
227.425	13.75
227.889	13.6
228.353	13.45
228.816	13.32
229.28	13.14
229.744	12.98
230.207	12.84
230.671	12.68
231.134	12.52
231.597	12.4
232.061	12.25
232.524	12.12
232.987	11.98
233.45	11.85
233.914	11.7
234.377	11.59
234.84	11.47
235.303	11.35
235.766	11.28
236.229	11.14
236.691	11.04
237.154	10.95
237.617	10.84
238.08	10.75
238.542	10.65
239.005	10.57
239.468	10.48
239.93	10.4
240.393	10.32
240.855	10.21
241.317	10.14
241.78	10.07
242.242	9.97
242.704	9.91
243.166	9.84
243.629	9.75
244.091	9.69
244.553	9.62
245.015	9.55
245.477	9.48
245.939	9.41
246.4	9.34
246.862	9.28
247.324	9.23
247.786	9.17
248.247	9.11
248.709	9.05
249.17	8.99
249.632	8.93
250.093	8.87
250.555	8.82
251.016	8.77
251.477	8.72
251.939	8.66
252.4	8.62
252.861	8.57
253.322	8.53
253.783	8.5
254.244	8.47
254.705	8.44
255.166	8.42
255.627	8.4
256.088	8.36
256.549	8.34
257.009	8.33
257.47	8.3
257.931	8.26
258.391	8.22
258.852	8.19
259.312	8.15
259.773	8.12
260.233	8.08
260.694	8.04
261.154	8.01
261.614	7.98
262.074	7.94
262.534	7.9
262.994	7.87
263.455	7.85
263.915	7.82
264.374	7.8
264.834	7.78
265.294	7.74
265.754	7.72
266.214	7.69
266.673	7.67
267.133	7.66
267.593	7.65
268.052	7.63
268.512	7.61
268.971	7.59
269.431	7.58
269.89	7.55
270.349	7.55
270.809	7.54
271.268	7.53
271.727	7.51
272.186	7.49
272.645	7.47
273.104	7.47
273.563	7.46
274.022	7.44
274.481	7.42
274.94	7.4
275.399	7.38
275.857	7.36
276.316	7.34
276.775	7.31
277.233	7.29
277.692	7.27
278.15	7.25
278.609	7.22
279.067	7.21
279.525	7.19
279.984	7.17
280.442	7.15
280.9	7.14
281.358	7.12
281.816	7.1
282.274	7.08
282.732	7.08
283.19	7.06
283.648	7.06
284.106	7.04
284.564	7.03
285.021	7.02
285.479	7.01
285.937	6.99
286.394	6.98
286.852	6.98
287.309	6.98
287.767	6.97
288.224	6.95
288.682	6.93
289.139	6.92
289.596	6.9
290.053	6.88
290.511	6.85
290.968	6.83
291.425	6.8
291.882	6.78
292.339	6.75
292.796	6.72
293.252	6.71
293.709	6.7
294.166	6.68
294.623	6.66
295.079	6.65
295.536	6.63
295.992	6.62
296.449	6.61
296.905	6.6
297.362	6.58
297.818	6.57
298.274	6.55
298.731	6.54
299.187	6.52
299.643	6.51
300.099	6.51
300.555	6.49
301.011	6.48
301.467	6.47
301.923	6.46
302.379	6.46
302.835	6.45
303.291	6.44
303.746	6.42
304.202	6.42
304.658	6.41
305.113	6.4
305.569	6.39
306.024	6.37
306.479	6.36
306.935	6.35
307.39	6.35
307.845	6.34
308.301	6.33
308.756	6.34
309.211	6.33
309.666	6.32
310.121	6.32
310.576	6.31
311.031	6.31
311.486	6.31
311.94	6.31
312.395	6.31
312.85	6.3
313.305	6.29
313.759	6.28
314.214	6.28
314.668	6.28
315.123	6.27
315.577	6.26
316.032	6.26
316.486	6.24
316.94	6.23
317.394	6.21
317.849	6.2
318.303	6.2
318.757	6.19
319.211	6.18
319.665	6.16
320.119	6.16
320.572	6.16
321.026	6.15
321.48	6.14
321.934	6.14
322.387	6.13
322.841	6.12
323.295	6.11
323.748	6.1
324.202	6.08
324.655	6.08
325.108	6.06
325.562	6.03
326.015	6.01
326.468	6
326.921	5.98
327.374	5.97
327.827	5.96
328.28	5.95
328.733	5.95
329.186	5.93
329.639	5.92
330.092	5.92
330.545	5.92
330.997	5.92
331.45	5.92
331.903	5.91
332.355	5.9
332.808	5.89
333.26	5.89
333.713	5.89
334.165	5.89
334.617	5.9
335.069	5.89
335.522	5.9
335.974	5.9
336.426	5.89
336.878	5.89
337.33	5.89
337.782	5.9
338.234	5.9
338.686	5.89
339.137	5.89
339.589	5.88
340.041	5.88
340.493	5.85
340.944	5.85
341.396	5.83
341.847	5.82
342.299	5.8
342.75	5.78
343.201	5.77
343.653	5.76
344.104	5.74
344.555	5.73
345.006	5.72
345.457	5.71
345.908	5.69
346.359	5.69
346.81	5.68
347.261	5.68
347.712	5.66
348.163	5.65
348.613	5.64
349.064	5.63
349.515	5.62
349.965	5.61
350.416	5.59
350.866	5.59
351.317	5.58
351.767	5.58
352.217	5.57
352.668	5.58
353.118	5.58
353.568	5.59
354.018	5.6
354.468	5.62
354.918	5.63
355.368	5.65
355.818	5.64
356.268	5.65
356.718	5.66
357.168	5.67
357.617	5.66
358.067	5.67
358.517	5.67
358.966	5.68
359.416	5.68
359.865	5.68
360.315	5.67
360.764	5.69
361.213	5.69
361.663	5.7
362.112	5.72
362.561	5.73
363.01	5.75
363.459	5.77
363.908	5.78
364.357	5.79
364.806	5.81
365.255	5.84
365.703	5.87
366.152	5.89
366.601	5.92
367.05	5.95
367.498	5.98
367.947	6
368.395	6.03
368.844	6.05
369.292	6.1
369.74	6.14
370.189	6.17
370.637	6.2
371.085	6.24
371.533	6.28
371.981	6.32
372.429	6.35
372.877	6.4
373.325	6.44
373.773	6.48
374.221	6.52
374.669	6.56
375.116	6.6
375.564	6.63
376.012	6.67
376.459	6.71
376.907	6.76
377.354	6.8
377.801	6.85
378.249	6.9
378.696	6.95
379.143	6.99
379.591	7.04
380.038	7.09
380.485	7.14
380.932	7.19
381.379	7.23
381.826	7.27
382.273	7.31
382.72	7.36
383.166	7.39
383.613	7.42
384.06	7.46
384.506	7.49
384.953	7.52
385.4	7.55
385.846	7.58
386.292	7.61
386.739	7.64
387.185	7.68
387.631	7.7
388.078	7.73
388.524	7.74
388.97	7.76
389.416	7.77
389.862	7.79
390.308	7.81
390.754	7.83
391.2	7.84
391.645	7.85
392.091	7.87
392.537	7.88
392.983	7.9
393.428	7.93
393.874	7.94
394.319	7.95
394.765	7.96
395.21	7.95
395.655	7.95
396.101	7.96
396.546	7.96
396.991	7.95
397.436	7.91
397.881	7.89
398.326	7.9
398.771	7.9
399.216	7.89
399.661	7.89
400.106	7.9
400.551	7.89
400.995	7.87
401.44	7.85
401.885	7.83
402.329	7.85
402.774	7.81
403.218	7.78
403.663	7.74
404.107	7.73
404.551	7.71
404.995	7.68
405.44	7.65
405.884	7.62
406.328	7.61
406.772	7.59
407.216	7.57
407.66	7.56
408.104	7.55
408.547	7.55
408.991	7.52
409.435	7.49
409.879	7.49
410.322	7.49
410.766	7.49
411.209	7.47
411.653	7.45
412.096	7.43
412.54	7.41
412.983	7.38
413.426	7.38
413.869	7.4
414.312	7.39
414.756	7.39
415.199	7.38
415.642	7.4
416.085	7.41
416.527	7.42
416.97	7.43
417.413	7.43
417.856	7.42
418.298	7.39
418.741	7.36
419.184	7.35
419.626	7.33
420.069	7.32
420.511	7.29
420.953	7.28
421.396	7.26
421.838	7.26
422.28	7.28
422.722	7.3
423.164	7.3
423.606	7.32
424.048	7.3
424.49	7.31
424.932	7.3
425.374	7.29
425.816	7.27
426.258	7.26
426.699	7.22
427.141	7.18
427.582	7.15
428.024	7.13
428.465	7.11
428.907	7.12
429.348	7.11
429.789	7.11
430.231	7.11
430.672	7.1
431.113	7.11
431.554	7.12
431.995	7.14
432.436	7.14
432.877	7.12
433.318	7.12
433.759	7.11
434.2	7.11
434.64	7.12
435.081	7.13
435.522	7.15
435.962	7.14
436.403	7.17
436.843	7.17
437.284	7.19
437.724	7.24
438.164	7.25
438.604	7.27
439.045	7.27
439.485	7.26
439.925	7.27
440.365	7.27
440.805	7.26
441.245	7.24
441.685	7.27
442.125	7.27
442.564	7.27
443.004	7.29
443.444	7.31
443.883	7.33
444.323	7.35
444.762	7.39
445.202	7.44
445.641	7.48
446.081	7.54
446.52	7.54
446.959	7.56
447.398	7.61
447.837	7.67
448.276	7.68
448.716	7.72
449.154	7.75
449.593	7.77
450.032	7.77
450.471	7.77
450.91	7.78
451.349	7.83
451.787	7.85
452.226	7.83
452.664	7.8
453.103	7.8
453.541	7.81
453.98	7.81
454.418	7.81
454.856	7.81
455.295	7.8
455.733	7.79
456.171	7.79
456.609	7.77
457.047	7.77
457.485	7.78
457.923	7.79
458.361	7.77
458.798	7.77
459.236	7.76
459.674	7.74
460.111	7.76
460.549	7.74
460.987	7.72
461.424	7.74
461.862	7.74
462.299	7.73
462.736	7.71
463.173	7.72
463.611	7.72
464.048	7.73
464.485	7.73
464.922	7.73
465.359	7.76
465.796	7.76
466.233	7.75
466.67	7.76
467.106	7.75
467.543	7.76
467.98	7.76
468.416	7.75
468.853	7.75
469.29	7.77
469.726	7.76
470.162	7.75
470.599	7.74
471.035	7.75
471.471	7.74
471.907	7.74
472.344	7.74
472.78	7.74
473.216	7.75
473.652	7.74
474.088	7.75
474.523	7.75
474.959	7.75
475.395	7.75
475.831	7.76
476.266	7.77
476.702	7.78
477.138	7.77
477.573	7.76
478.008	7.77
478.444	7.78
478.879	7.77
479.314	7.75
479.75	7.76
480.185	7.76
480.62	7.74
481.055	7.75
481.49	7.73
481.925	7.74
482.36	7.74
482.795	7.73
483.229	7.73
483.664	7.74
484.099	7.75
484.534	7.76
484.968	7.76
485.403	7.78
485.837	7.79
486.271	7.8
486.706	7.81
487.14	7.84
487.574	7.86
488.009	7.88
488.443	7.9
488.877	7.93
489.311	7.95
489.745	7.99
490.179	8.02
490.613	8.06
491.046	8.11
491.48	8.16
491.914	8.2
492.348	8.25
492.781	8.3
493.215	8.37
493.648	8.43
494.082	8.5
494.515	8.56
494.948	8.64
495.382	8.7
495.815	8.78
496.248	8.85
496.681	8.93
497.114	9.02
497.547	9.11
497.98	9.2
498.413	9.3
498.846	9.41
499.279	9.52
499.711	9.64
500.144	9.76
500.577	9.88
501.009	10.03
501.442	10.16
501.874	10.3
502.306	10.45
502.739	10.6
503.171	10.76
503.603	10.92
504.036	11.1
504.468	11.28
504.9	11.47
505.332	11.67
505.764	11.88
506.196	12.09
506.627	12.32
507.059	12.55
507.491	12.79
507.923	13.04
508.354	13.3
508.786	13.54
509.217	13.8
509.649	14.07
510.08	14.36
510.512	14.64
510.943	14.93
511.374	15.21
511.805	15.51
512.237	15.81
512.668	16.11
513.099	16.44
513.53	16.77
513.961	17.11
514.391	17.43
514.822	17.73
515.253	18.07
515.684	18.39
516.114	18.73
516.545	19.07
516.975	19.43
517.406	19.78
517.836	20.11
518.267	20.46
518.697	20.81
519.127	21.16
519.558	21.51
519.988	21.84
520.418	22.18
520.848	22.51
521.278	22.84
521.708	23.05
522.138	23.34
522.567	23.62
522.997	23.9
523.427	24.19
523.857	24.46
524.286	24.73
524.716	25.01
525.145	25.29
525.575	25.54
526.004	25.79
526.433	26.13
526.863	26.37
527.292	26.61
527.721	26.84
528.15	27.02
528.579	27.22
529.008	27.42
529.437	27.59
529.866	27.74
530.295	27.9
530.724	28.08
531.152	28.22
531.581	28.36
532.01	28.5
532.438	28.63
532.867	28.76
533.295	28.89
533.723	29.01
534.152	29.12
534.58	29.21
535.008	29.29
535.436	29.36
535.865	29.43
536.293	29.51
536.721	29.57
537.149	29.65
537.576	29.7
538.004	29.76
538.432	29.79
538.86	29.83
539.287	29.89
539.715	29.94
540.143	29.96
540.57	29.99
540.998	30.03
541.425	30.06
541.852	30.08
542.28	30.1
542.707	30.13
543.134	30.16
543.561	30.18
543.988	30.24
544.415	30.27
544.842	30.31
545.269	30.36
545.696	30.39
546.123	30.41
546.549	30.45
546.976	30.49
547.403	30.52
547.829	30.56
548.256	30.59
548.682	30.58
549.108	30.61
549.535	30.64
549.961	30.64
550.387	30.65
550.813	30.64
551.24	30.65
551.666	30.68
552.092	30.69
552.518	30.68
552.943	30.67
553.369	30.65
553.795	30.65
554.221	30.63
554.646	30.61
555.072	30.59
555.498	30.58
555.923	30.52
556.349	30.44
556.774	30.38
557.199	30.33
557.625	30.26
558.05	30.18
558.475	30.06
558.9	29.96
559.325	29.87
559.75	29.76
560.175	29.65
560.6	29.54
561.025	29.44
561.449	29.31
561.874	29.18
562.299	29.04
562.723	28.92
563.148	28.8
563.572	28.68
563.997	28.54
564.421	28.37
564.846	28.21
565.27	28.07
565.694	27.9
566.118	27.74
566.542	27.58
566.966	27.43
567.39	27.26
567.814	27.06
568.238	26.85
568.662	26.68
569.086	26.51
569.509	26.32
569.933	26.13
570.357	25.95
570.78	25.78
571.204	25.59
571.627	25.41
572.05	25.24
572.474	25.07
572.897	24.92
573.32	24.73
573.743	24.57
574.166	24.4
574.589	24.24
575.012	24.08
575.435	23.92
575.858	23.78
576.281	23.64
576.704	23.51
577.126	23.38
577.549	23.28
577.972	23.17
578.394	23.05
578.817	22.95
579.239	22.84
579.661	22.75
580.084	22.64
580.506	22.55
580.928	22.46
581.35	22.37
581.772	22.29
582.194	22.18
582.616	22.08
583.038	22
583.46	21.94
583.882	21.87
584.303	21.78
584.725	21.71
585.147	21.61
585.568	21.52
585.99	21.42
586.411	21.35
586.833	21.27
587.254	21.21
587.675	21.14
588.096	21.05
588.518	20.96
588.939	20.9
589.36	20.84
589.781	20.78
590.202	20.73
590.623	20.7
591.043	20.64
591.464	20.6
591.885	20.57
592.305	20.53
592.726	20.5
593.147	20.47
593.567	20.42
593.987	20.38
594.408	20.35
594.828	20.3
595.248	20.25
595.669	20.21
596.089	20.17
596.509	20.1
596.929	20.05
597.349	20
597.769	19.97
598.189	19.94
598.608	19.88
599.028	19.83
599.448	19.79
599.867	19.74
600.287	19.7
600.706	19.65
601.126	19.62
601.545	19.56
601.965	19.51
602.384	19.45
602.803	19.38
603.222	19.32
603.641	19.27
604.061	19.2
604.48	19.12
604.898	19.05
605.317	18.98
605.736	18.9
606.155	18.83
606.574	18.74
606.992	18.63
607.411	18.56
607.829	18.45
608.248	18.37
608.666	18.27
609.085	18.2
609.503	18.1
609.921	18
610.339	17.9
610.758	17.81
611.176	17.73
611.594	17.64
612.012	17.54
612.43	17.5
612.847	17.41
613.265	17.33
613.683	17.23
614.101	17.15
614.518	17.07
614.936	16.98
615.353	16.9
615.771	16.8
616.188	16.73
616.606	16.65
617.023	16.56
617.44	16.47
617.857	16.4
618.274	16.33
618.691	16.27
619.108	16.22
619.525	16.17
619.942	16.12
620.359	16.09
620.776	16.04
621.192	16
621.609	15.96
622.026	15.92
622.442	15.89
622.859	15.86
623.275	15.84
623.691	15.81
624.108	15.79
624.524	15.77
624.94	15.76
625.356	15.74
625.772	15.73
626.188	15.72
626.604	15.71
627.02	15.7
627.436	15.68
627.852	15.67
628.268	15.63
628.683	15.6
629.099	15.58
629.514	15.54
629.93	15.52
630.345	15.47
630.761	15.44
631.176	15.4
631.591	15.36
632.007	15.3
632.422	15.24
632.837	15.19
633.252	15.12
633.667	15.03
634.082	14.95
634.497	14.86
634.911	14.77
635.326	14.64
635.741	14.52
636.155	14.4
636.57	14.28
636.984	14.14
637.399	13.99
637.813	13.83
638.228	13.68
638.642	13.55
639.056	13.4
639.47	13.26
639.884	13.11
640.298	12.95
640.712	12.79
641.126	12.65
641.54	12.49
641.954	12.37
642.368	12.24
642.781	12.1
643.195	11.94
643.609	11.81
644.022	11.68
644.436	11.55
644.849	11.43
645.262	11.32
645.676	11.21
646.089	11.11
646.502	11
646.915	10.9
647.328	10.81
647.741	10.74
648.154	10.67
648.567	10.6
648.98	10.55
649.393	10.5
649.805	10.44
650.218	10.39
650.631	10.33
651.043	10.28
651.456	10.24
651.868	10.21
652.28	10.17
652.693	10.11
653.105	10.04
653.517	9.99
653.929	9.95
654.341	9.9
654.753	9.84
655.165	9.78
655.577	9.71
655.989	9.62
656.401	9.54
656.813	9.45
657.224	9.37
657.636	9.3
658.047	9.19
658.459	9.08
658.87	8.99
659.282	8.9
659.693	8.8
660.104	8.7
660.515	8.6
660.926	8.5
661.338	8.4
661.749	8.3
662.159	8.21
662.57	8.13
662.981	8.04
663.392	7.95
663.803	7.88
664.213	7.81
664.624	7.75
665.035	7.7
665.445	7.64
665.855	7.6
666.266	7.58
666.676	7.54
667.086	7.49
667.497	7.45
667.907	7.43
668.317	7.39
668.727	7.36
669.137	7.33
669.547	7.33
669.956	7.3
670.366	7.29
670.776	7.26
671.186	7.26
671.595	7.27
672.005	7.28
672.414	7.28
672.824	7.29
673.233	7.32
673.642	7.33
674.052	7.34
674.461	7.38
674.87	7.41
675.279	7.43
675.688	7.44
676.097	7.48
676.506	7.5
676.915	7.53
677.323	7.57
677.732	7.61
678.141	7.66
678.549	7.72
678.958	7.79
679.366	7.85
679.775	7.93
680.183	8.03
680.592	8.12
681	8.22
681.408	8.34
681.816	8.45
682.224	8.59
682.632	8.75
683.04	8.92
683.448	9.09
683.856	9.29
684.264	9.51
684.671	9.74
685.079	10.01
685.487	10.31
685.894	10.62
686.302	10.97
686.709	11.33
687.116	11.73
687.524	12.14
687.931	12.6
688.338	13.08
688.745	13.58
689.152	14.11
689.559	14.66
689.966	15.23
690.373	15.85
690.78	16.45
691.187	17.08
691.593	17.71
692	18.38
692.407	19.05
692.813	19.74
693.22	20.41
693.626	21.08
694.032	21.79
694.439	22.5
694.845	23.19
695.251	23.89
695.657	24.59
696.063	25.3
696.469	26
696.875	26.68
697.281	27.33
697.687	28.03
698.093	28.71
698.498	29.38
698.904	30.02
699.31	30.66
699.715	31.3
700.12	31.91
700.526	32.52
700.931	33.1
701.337	33.7
701.742	34.28
702.147	34.85
702.552	35.41
702.957	35.94
703.362	36.51
703.767	37.03
704.172	37.56
704.577	38.08
704.981	38.58
705.386	39.1
705.791	39.61
706.195	40.07
706.6	40.51
707.004	40.97
707.408	41.41
707.813	41.83
708.217	42.28
708.621	42.66
709.025	43.09
709.43	43.48
709.834	43.88
710.237	44.21
710.641	44.64
711.045	45.02
711.449	45.41
711.853	45.79
712.256	46.19
712.66	46.55
713.064	46.92
713.467	47.26
713.87	47.6
714.274	47.93
714.677	48.29
715.08	48.59
715.484	48.94
715.887	49.22
716.29	49.53
716.693	49.77
717.096	50.05
717.499	50.35
717.901	50.62
718.304	50.89
718.707	51.14
719.109	51.39
719.512	51.65
719.915	51.89
720.317	52.14
720.719	52.36
721.122	52.59
721.524	52.82
721.926	53.05
722.328	53.29
722.731	53.53
723.133	53.75
723.535	53.98
723.937	54.19
724.338	54.36
724.74	54.55
725.142	54.74
725.544	54.92
725.945	55.1
726.347	55.26
726.748	55.38
727.15	55.52
727.551	55.68
727.952	55.8
728.354	55.92
728.755	56.06
729.156	56.17
729.557	56.32
729.958	56.45
730.359	56.55
730.76	56.63
731.161	56.74
731.562	56.83
731.962	56.93
732.363	57.03
732.763	57.13
733.164	57.19
733.564	57.28
733.965	57.32
734.365	57.36
734.766	57.43
735.166	57.5
735.566	57.55
735.966	57.6
736.366	57.62
736.766	57.66
737.166	57.75
737.566	57.8
737.966	57.83
738.365	57.9
738.765	57.99
739.165	58
739.564	58.06
739.964	58.1
740.363	58.15
740.763	58.19
741.162	58.19
741.561	58.18
741.96	58.23
742.36	58.29
742.759	58.3
743.158	58.28
743.557	58.35
743.955	58.38
744.354	58.44
744.753	58.44
745.152	58.47
745.55	58.53
745.949	58.57
746.348	58.6
746.746	58.59
747.144	58.65
747.543	58.68
747.941	58.7
748.339	58.76
748.737	58.8
749.136	58.84
749.534	58.88
749.932	58.87
750.33	58.87
750.727	58.89
751.125	58.9
751.523	58.88
751.921	58.89
752.318	58.9
752.716	58.86
753.113	58.83
753.511	58.83
753.908	58.8
754.305	58.82
754.703	58.84
755.1	58.85
755.497	58.86
755.894	58.9
756.291	58.89
756.688	58.87
757.085	58.87
757.482	58.87
757.878	58.88
758.275	58.89
758.672	58.92
759.068	58.92
759.465	58.89
759.861	58.87
760.258	58.85
760.654	58.88
761.05	58.88
761.447	58.86
761.843	58.84
762.239	58.84
762.635	58.83
763.031	58.79
763.427	58.73
763.822	58.75
764.218	58.74
764.614	58.69
765.01	58.65
765.405	58.65
765.801	58.63
766.196	58.61
766.592	58.59
766.987	58.56
767.382	58.56
767.778	58.58
768.173	58.55
768.568	58.53
768.963	58.53
769.358	58.53
769.753	58.54
770.148	58.56
770.542	58.57
770.937	58.53
771.332	58.54
771.726	58.49
772.121	58.47
772.515	58.45
772.91	58.44
773.304	58.42
773.699	58.38
774.093	58.35
774.487	58.32
774.881	58.32
775.275	58.31
775.669	58.29
776.063	58.29
776.457	58.28
776.851	58.26
777.245	58.28
777.638	58.31
778.032	58.3
778.425	58.3
778.819	58.3
779.212	58.28
779.606	58.28
779.999	58.3
780.392	58.3
780.786	58.29
781.179	58.33
781.572	58.35
781.965	58.36
782.358	58.34
782.751	58.32
783.143	58.33
783.536	58.36
783.929	58.39
784.322	58.41
784.714	58.46
785.107	58.48
785.499	58.48
785.891	58.45
786.284	58.42
786.676	58.49
787.068	58.51
787.46	58.5
787.852	58.52
788.245	58.54
788.636	58.54
789.028	58.51
789.42	58.48
789.812	58.5
790.204	58.49
790.595	58.53
790.987	58.55
791.378	58.55
791.77	58.56
792.161	58.53
792.553	58.51
792.944	58.51
793.335	58.54
793.726	58.54
794.117	58.51
794.508	58.55
794.899	58.53
795.29	58.49
795.681	58.49
796.072	58.49
796.463	58.53
796.853	58.52
797.244	58.52
797.634	58.51
798.025	58.56
798.415	58.55
798.806	58.54
799.196	58.56
799.586	58.57
799.976	58.59
800.366	58.59
800.756	58.55
801.146	58.59
801.536	58.59
801.926	58.59
802.316	58.58
802.706	58.62
803.095	58.63
803.485	58.64
803.874	58.63
804.264	58.64
804.653	58.63
805.043	58.64
805.432	58.6
805.821	58.57
806.21	58.61
806.599	58.64
806.988	58.66
807.377	58.68
807.766	58.65
808.155	58.69
808.544	58.7
808.933	58.69
809.321	58.71
809.71	58.76
810.098	58.79
810.487	58.77
810.875	58.73
811.264	58.74
811.652	58.74
812.04	58.73
812.428	58.74
812.816	58.77
813.204	58.81
813.592	58.83
813.98	58.81
814.368	58.83
814.756	58.87
815.144	58.94
815.531	58.91
815.919	58.91
816.306	58.97
816.694	58.98
817.081	58.97
817.469	59
817.856	59.03
818.243	59.08
818.63	59.13
819.017	59.15
819.404	59.11
819.791	59.15
820.178	59.16
820.565	59.17
820.952	59.17
821.339	59.21
821.725	59.22
822.112	59.24
822.498	59.23
822.885	59.23
823.271	59.24
823.657	59.27
824.044	59.28
824.43	59.31
824.816	59.31
825.202	59.32
825.588	59.31
825.974	59.3
826.36	59.29
826.746	59.33
827.132	59.31
827.517	59.31
827.903	59.3
828.289	59.31
828.674	59.29
829.06	59.3
829.445	59.31
829.83	59.33
830.216	59.34
830.601	59.36
830.986	59.36
831.371	59.39
831.756	59.38
832.141	59.42
832.526	59.44
832.911	59.46
833.295	59.47
833.68	59.5
834.065	59.52
834.449	59.5
834.834	59.47
835.218	59.45
835.603	59.41
835.987	59.42
836.371	59.43
836.755	59.41
837.139	59.37
837.524	59.35
837.908	59.25
838.291	59.2
838.675	59.2
839.059	59.21
839.443	59.17
839.827	59.17
840.21	59.15
840.594	59.12
840.977	59.08
841.361	59.1
841.744	59.13
842.127	59.15
842.511	59.17
842.894	59.16
843.277	59.12
843.66	59.12
844.043	59.11
844.426	59.11
844.809	59.1
845.191	59.09
845.574	59.05
845.957	58.99
846.339	58.98
846.722	58.98
847.104	59
847.487	59.04
847.869	59.03
848.252	59.03
848.634	59.01
849.016	59.05
849.398	59.06
849.78	59.07
850.162	59.1
850.544	59.13
850.926	59.08
851.307	59.08
851.689	59.04
852.071	59.04
852.452	59.06
852.834	59.03
853.215	59.03
853.597	59.02
853.978	59.03
854.359	59.02
854.741	58.98
855.122	59.03
855.503	59.02
855.884	59.02
856.265	59.05
856.646	59.04
857.026	59.07
857.407	59.01
857.788	59.06
858.169	59.08
858.549	59.12
858.93	59.16
859.31	59.13
859.69	59.13
860.071	59.13
860.451	59.12
860.831	59.1
861.211	59.13
861.591	59.18
861.971	59.14
862.351	59.15
862.731	59.14
863.111	59.11
863.491	59.13
863.87	59.1
864.25	59.13
864.629	59.15
865.009	59.17
865.388	59.15
865.768	59.13
866.147	59.14
866.526	59.1
866.905	59.12
867.284	59.14
867.663	59.14
868.042	59.19
868.421	59.16
868.8	59.15
869.179	59.16
869.558	59.14
869.936	59.15
870.315	59.15
870.693	59.17
871.072	59.16
871.45	59.14
871.828	59.13
872.207	59.12
872.585	59.15
872.963	59.11
873.341	59.09
873.719	59.09
874.097	59.1
874.475	59.12
874.853	59.08
875.23	59.08
875.608	59.11
875.986	59.1
876.363	59.1
876.741	59.07
877.118	59.09
877.495	59.1
877.873	59.1
878.25	59.08
878.627	59.07
879.004	59.12
879.381	59.13
879.758	59.09
880.135	59.08
880.512	59.07
880.889	59.07
881.265	59.07
881.642	59.05
882.019	59.04
882.395	59.02
882.772	58.98
883.148	58.94
883.524	58.93
883.901	58.92
884.277	58.91
884.653	58.92
885.029	58.91
885.405	58.93
885.781	58.92
886.157	58.92
886.532	58.92
886.908	58.95
887.284	59
887.659	58.97
888.035	58.99
888.411	58.96
888.786	58.92
889.161	58.92
889.537	58.9
889.912	58.9
890.287	58.88
890.662	58.88
891.037	58.83
891.412	58.77
891.787	58.75
892.162	58.72
892.536	58.72
892.911	58.74
893.286	58.71
893.66	58.71
894.035	58.68
894.409	58.68
894.784	58.68
895.158	58.71
895.532	58.7
895.906	58.7
896.281	58.69
896.655	58.66
897.029	58.63
897.402	58.63
897.776	58.63
898.15	58.63
898.524	58.63
898.898	58.6
899.271	58.55
899.645	58.57
900.018	58.52
900.392	58.56
900.765	58.59
901.138	58.59
901.511	58.58
901.884	58.55
902.258	58.53
902.631	58.54
903.003	58.52
903.376	58.54
903.749	58.54
904.122	58.6
904.495	58.55
904.867	58.55
905.24	58.53
905.612	58.54
905.985	58.51
906.357	58.49
906.729	58.43
907.102	58.47
907.474	58.46
907.846	58.46
908.218	58.43
908.59	58.43
908.962	58.4
909.334	58.41
909.705	58.39
910.077	58.43
910.449	58.49
910.82	58.52
911.192	58.49
911.563	58.46
911.935	58.44
912.306	58.43
912.677	58.42
913.048	58.38
913.419	58.38
913.79	58.37
914.161	58.33
914.532	58.28
914.903	58.25
915.274	58.22
915.645	58.24
916.015	58.21
916.386	58.19
916.756	58.16
917.127	58.17
917.497	58.14
917.868	58.13
918.238	58.17
918.608	58.17
918.978	58.18
919.348	58.17
919.718	58.13
920.088	58.14
920.458	58.19
920.828	58.22
921.198	58.24
921.567	58.24
921.937	58.25
922.306	58.21
922.676	58.2
923.045	58.18
923.415	58.16
923.784	58.16
924.153	58.12
924.522	58.09
924.891	58.03
925.26	57.96
925.629	57.97
925.998	57.93
926.367	57.88
926.736	57.84
927.104	57.85
927.473	57.88
927.842	57.88
928.21	57.89
928.578	57.86
928.947	57.86
929.315	57.89
929.683	57.86
930.051	57.83
930.42	57.84
930.788	57.85
931.156	57.81
931.523	57.76
931.891	57.68
932.259	57.6
932.627	57.54
932.994	57.47
933.362	57.42
933.729	57.33
934.097	57.3
934.464	57.28
934.831	57.19
935.199	57.17
935.566	57.1
935.933	57.22
936.3	57.19
936.667	57.12
937.034	57.12
937.401	57.09
937.767	57.08
938.134	57.07
938.501	56.93
938.867	56.95
939.234	56.92
939.6	56.96
939.967	56.77
940.333	56.89
940.699	57.11
941.065	57.18
941.431	57.2
941.798	57.36
942.163	57.49
942.529	57.56
942.895	57.59
943.261	57.64
943.627	57.65
943.992	57.64
944.358	57.55
944.723	57.48
945.089	57.52
945.454	57.57
945.82	57.44
946.185	57.47
946.55	57.59
946.915	57.58
947.28	57.54
947.645	57.58
948.01	57.63
948.375	57.61
948.74	57.56
949.104	57.56
949.469	57.44
949.834	57.41
950.198	57.3
950.562	57.23
950.927	57.15
951.291	57.08
951.655	56.99
952.02	57.01
952.384	57.1
952.748	57.03
953.112	56.93
953.476	56.99
953.839	56.91
954.203	56.93
954.567	56.88
954.931	56.94
955.294	56.94
955.658	56.86
956.021	56.75
956.385	56.7
956.748	56.81
957.111	56.8
957.474	56.79
957.837	56.9
958.2	56.76
958.563	56.75
958.926	56.64
959.289	56.63
959.652	56.61
960.015	56.62
960.377	56.53
960.74	56.42
961.102	56.38
961.465	56.35
961.827	56.23
962.189	56.28
962.552	56.22
962.914	56.21
963.276	56.2
963.638	56.21
964	56.16
964.362	56.22
964.724	56.25
965.085	56.18
965.447	56.12
965.809	56.08
966.17	56.11
966.532	56.11
966.893	56.15
967.255	56.09
967.616	56.15
967.977	56.16
968.338	56.06
968.699	56
969.061	55.95
969.421	56.01
969.782	56.04
970.143	56.01
970.504	55.97
970.865	55.91
971.225	55.88
971.586	55.83
971.946	55.81
972.307	55.84
972.667	55.86
973.027	55.98
973.388	55.9
973.748	55.94
974.108	55.83
974.468	55.8
974.828	55.81
975.188	55.84
975.548	55.84
975.907	55.82
976.267	55.8
976.627	55.77
976.986	55.69
977.346	55.68
977.705	55.69
978.064	55.77
978.424	55.78
978.783	55.8
979.142	55.79
979.501	55.7
979.86	55.64
980.219	55.6
980.578	55.61
980.937	55.63
981.296	55.65
981.654	55.7
982.013	55.73
982.371	55.72
982.73	55.58
983.088	55.56
983.447	55.71
983.805	55.73
984.163	55.81
984.521	55.61
984.879	55.63
985.237	55.6
985.595	55.49
985.953	55.44
986.311	55.45
986.669	55.63
987.026	55.63
987.384	55.46
987.741	55.5
988.099	55.5
988.456	55.61
988.814	55.51
989.171	55.49
989.528	55.44
989.885	55.37
990.242	55.4
990.599	55.32
990.956	55.25
991.313	55.29
991.67	55.32
992.027	55.14
992.383	55.12
992.74	55.05
993.096	54.98
993.453	54.96
993.809	55.08
994.165	55.08
994.522	55.1
994.878	55.08
995.234	55.06
995.59	54.98
995.946	55.16
996.302	55.13
996.658	55.18
997.013	55.14
997.369	55.22
997.725	55.27
998.08	55.23
998.436	55.31
998.791	55.21
999.147	55.23
999.502	55.27
999.857	55.2
1000.212	55.22
1000.567	55.22
1000.922	55.27
1001.277	55.21
1001.632	55.14
1001.987	55.06
1002.342	54.94
1002.696	55.22
1003.051	55.09
1003.406	54.94
1003.76	54.78
1004.114	54.89
1004.469	54.91
1004.823	54.93
1005.177	55.15
1005.531	54.92
1005.885	54.96
1006.239	54.98
1006.593	54.95
1006.947	55.02
1007.301	55.06
1007.655	55.16
1008.008	54.99
1008.362	54.93
1008.715	54.91
1009.069	54.4
1009.422	54.43
1009.776	54.34
1010.129	54.16
1010.482	54.03
1010.835	54.07
1011.188	54.07
1011.541	53.9
1011.894	53.67
1012.247	53.56
1012.6	53.49
1012.952	53.6
1013.305	53.53
1013.657	53.62
1014.01	53.69
1014.362	53.76
1014.715	53.49
1015.067	53.4
1015.419	53.53
1015.771	54.05
1016.123	54.28
1016.475	54.27
1016.827	54.52
1017.179	54.75
1017.531	54.53
1017.883	54.58
1018.234	54.45
1018.586	54.58
1018.938	54.71
1019.289	54.59
1019.64	54.45
1019.992	54.27
1020.343	54.15
1020.694	54.11
1021.045	53.82
1021.396	53.99
1021.747	53.79
1022.098	53.65
1022.449	53.56
1022.8	53.3
1023.151	53.38
1023.501	53.29
1023.852	53.26
1024.202	53.31
1024.553	52.97
1024.903	53.03
1025.253	52.8
1025.604	52.76
1025.954	52.71
1026.304	53.01
1026.654	53.5
1027.004	53.51
1027.354	53.3
1027.703	53.46
1028.053	53.21
1028.403	52.91
1028.753	52.83
1029.102	53.06
1029.452	53.27
1029.801	53.55
1030.15	53.37
1030.499	53.05
897.758	826.44
901.051	831.53
904.343	837.94
907.636	822.94
910.928	809.95
914.22	827.14
917.511	810.45
920.803	774.14
924.094	737.58
927.384	743.57
930.675	720.99
933.965	713.57
937.255	713.77
940.544	683.08
943.834	650.18
947.123	639.49
950.411	602
953.7	589.64
956.988	573.6
960.276	550.07
963.563	540.87
966.851	511.13
970.138	500.7
973.424	465.83
976.711	459.3
979.997	446.03
983.283	435.99
986.568	422.44
989.853	407.69
993.138	391.63
996.423	387.65
999.708	375.75
1002.992	377.66
1006.275	365.44
1009.559	362.95
1012.842	351.66
1016.125	338.93
1019.408	332.66
1022.69	329.91
1025.972	327.69
1029.254	318.97
1032.536	312.16
1035.817	301.48
1039.098	296.1
1042.379	289.58
1045.659	284.98
1048.939	283.16
1052.219	279.89
1055.498	273.4
1058.778	268.2
1062.057	263.3
1065.335	262.82
1068.614	257.56
1071.892	255.04
1075.17	249.43
1078.447	246.12
1081.724	244.61
1085.001	239.04
1088.278	237.88
1091.554	236.6
1094.83	235.32
1098.106	231.27
1101.382	229.94
1104.657	229.97
1107.932	229.08
1111.206	228.61
1114.481	225.17
1117.755	222.72
1121.029	222.41
1124.302	218.55
1127.575	215.63
1130.848	214.09
1134.121	211.85
1137.393	211.18
1140.665	207.66
1143.937	205.75
1147.208	202.51
1150.48	201.25
1153.75	200.47
1157.021	198.18
1160.291	197.61
1163.561	197.43
1166.831	194.79
1170.101	194.93
1173.37	192.39
1176.639	191.44
1179.907	191.13
1183.176	190.65
1186.444	191.56
1189.711	190.32
1192.979	191.83
1196.246	192.41
1199.513	190.86
1202.78	192.31
1206.046	192.22
1209.312	193.99
1212.578	195.07
1215.843	197.98
1219.108	199.59
1222.373	202.71
1225.638	205.92
1228.902	210.76
1232.166	216.43
1235.43	220.51
1238.693	226.44
1241.956	231.98
1245.219	238.79
1248.482	239.54
1251.744	238.51
1255.006	239.14
1258.268	233.01
1261.529	230.62
1264.79	224.29
1268.051	220.07
1271.312	217.53
1274.572	213.08
1277.832	206.38
1281.092	203.7
1284.351	200.22
1287.61	200.08
1290.869	198.41
1294.128	197.86
1297.386	196.63
1300.644	195.91
1303.902	194.93
1307.159	193.8
1310.416	194.93
1313.673	198.66
1316.93	199.09
1320.186	202.79
1323.442	204.95
1326.697	208.98
1329.953	211.64
1333.208	219.02
1336.463	229.17
1339.717	233.36
1342.972	245.4
1346.226	252.21
1349.479	254.08
1352.733	265.69
1355.986	270.83
1359.238	277.46
1362.491	281.18
1365.743	291.31
1368.995	292.42
1372.247	287.85
1375.498	287.89
1378.749	298.53
1382	298.36
1385.251	298.32
1388.501	296.89
1391.751	301.02
1395	297.49
1398.25	299.84
1401.499	298.72
1404.748	298.8
1407.996	296.47
1411.244	297.48
1414.492	291.33
1417.74	282.81
1420.987	275.79
1424.234	271.09
1427.481	260.97
1430.728	255.74
1433.974	246.17
1437.22	236.55
1440.465	229.26
1443.711	221.07
1446.956	214.02
1450.201	205.36
1453.445	196.53
1456.689	190.87
1459.933	184.69
1463.177	177.49
1466.42	173.57
1469.663	168.32
1472.906	164.18
1476.148	158.74
1479.391	155.3
1482.633	152.51
1485.874	149.17
1489.115	148.03
1492.356	145.27
1495.597	143.02
1498.838	141.92
1502.078	140.24
1505.318	139.97
1508.557	138.72
1511.797	137.83
1515.036	136.82
1518.274	135.52
1521.513	134.26
1524.751	133.37
1527.989	134.6
1531.227	133.96
1534.464	133.5
1537.701	132.38
1540.938	131.45
1544.174	131.64
1547.41	131.38
1550.646	131.34
1553.882	131.53
1557.117	130.77
1560.352	130.31
1563.587	128.85
1566.821	128.73
1570.055	127.48
1573.289	127.29
1576.523	127.57
1579.756	126.84
1582.989	126.86
1586.222	126.45
1589.454	125.66
1592.686	125.6
1595.918	125.61
1599.15	125.28
1602.381	125.31
1605.612	125.62
1608.843	125.8
1612.073	125.91
1615.303	125.83
1618.533	125.68
1621.762	125.75
1624.992	126.79
1628.221	127.02
1631.449	127.05
1634.678	126.52
1637.906	126.58
1641.134	126.72
1644.361	126.79
1647.588	127.09
1650.815	127.43
1654.042	127.13
1657.269	127.23
1660.495	127.19
1663.72	127.12
1666.946	127.57
1670.171	128.57
1673.396	129.55
1676.621	130.11
1679.845	129.7
1683.069	129.44
1686.293	129.3
1689.517	129.98
1692.74	130.38
1695.963	130.62
1699.185	131.88
1702.408	131.28
1705.63	131.35
1708.852	131.89
1712.073	131.45
1715.294	131.94
1718.515	132.59
1721.736	133.03
1724.956	133.1
1728.176	132.9
1731.396	134.14
1734.616	133.68
1737.835	134.41
1741.054	134.22
1744.272	133.29
1747.491	133.85
1750.709	134.54
1753.927	134.64
1757.144	134.42
1760.361	134.73
1763.578	135.6
1766.795	135.3
1770.011	135.81
1773.227	136.47
1776.443	137.98
1779.658	139.11
1782.874	139.93
1786.089	140.42
1789.303	140.75
1792.518	142.61
1795.732	143.68
1798.945	144.99
1802.159	145.04
1805.372	147.05
1808.585	148.04
1811.797	148.92
1815.01	149.57
1818.222	150.67
1821.434	151.46
1824.645	152.73
1827.856	154.8
1831.067	156.34
1834.278	157.04
1837.488	158.83
1840.698	160.27
1843.908	160.93
1847.117	163.08
1850.326	164.85
1853.535	165.12
1856.744	167.25
1859.952	169.05
1863.16	169.21
1866.368	167.48
1869.575	170.65
1872.782	169.39
1875.989	167.73
1879.196	167.21
1882.402	165.65
1885.608	166.76
1888.814	167.11
1892.019	169.38
1895.224	166.88
1898.429	167.57
1901.634	169.83
1904.838	168.24
1908.042	171.24
1911.246	170.71
1914.449	172.26
1917.652	171.38
1920.855	171.72
1924.058	171.05
1927.26	169.67
1930.462	171.21
1933.664	171.1
1936.865	170.38
1940.066	169.02
1943.267	167.36
1946.467	169.9
1949.668	169.86
1952.868	170.7
1956.067	169.82
1959.267	171.23
1962.466	171.76
1965.665	173.79
1968.863	174.08
1972.061	176.04
1975.259	180.29
1978.457	180.97
1981.654	181.81
1984.852	183.42
1988.048	186.02
1991.245	188.92
1994.441	192.37
1997.637	195.72
2000.833	198.76
2004.028	200.86
2007.223	207.55
2010.418	211.27
2013.613	219.62
2016.807	225.84
2020.001	230.62
2023.194	237.49
2026.388	245.77
2029.581	256.6
2032.774	266.68
2035.966	274.53
2039.158	283.27
2042.35	286.39
2045.542	292.05
2048.733	307.11
2051.924	310.39
2055.115	314.77
2058.306	317.01
2061.496	324.11
2064.686	325.09
2067.875	319.42
2071.065	322.95
2074.254	324.58
2077.442	333.08
2080.631	335.04
2083.819	333.94
2087.007	340.67
2090.195	347.15
2093.382	347.06
2096.569	346.52
2099.756	352.38
2102.942	362.43
2106.128	371.62
2109.314	371.17
2112.5	372.21
2115.685	369.16
2118.87	369.86
2122.055	371.58
2125.239	378.68
2128.424	388.35
2131.608	386.93
2134.791	386.6
2137.974	387.77
2141.157	388.08
2144.34	393.73
2147.523	399.53
2150.705	411.99
2153.887	408.38
2157.068	412.41
2160.25	415.46
2163.431	414.06
2166.611	420.25
2169.792	428.89
2172.972	435.7
2176.152	435.69
2179.331	444.48
2182.511	446.53
2185.69	450.62
2188.868	470.68
2192.047	479.6
2195.225	485.23
2198.403	495.14
2201.58	488.31
2204.758	501.78
2207.935	505.8
2211.111	518.18
2214.288	521.15
2217.464	526.81
2220.64	532.08
2223.815	532.34
2226.991	523.83
2230.166	529.61
2233.34	542.88
2236.515	561.24
2239.689	553.95
2242.863	561.52
2246.036	554.34
2249.209	571.49
2252.382	571.16
2255.555	591.09
2258.727	592.77
2261.9	616.82
2265.071	624.42
2268.243	617.32
2271.414	637.3
2274.585	652.29
2277.756	653.56
2280.926	683.58
2284.096	683.27
2287.266	684.66
2290.436	669.9
2293.605	685.71
2296.774	706.48
2299.942	705.82
2303.111	732.34
2306.279	744.17
2309.447	745.34
2312.614	747.92
2315.781	764.05
2318.948	764.25
2322.115	782.8
2325.281	825.29
2328.447	819.26
2331.613	822.33
2334.779	838.04
2337.944	843.93
2341.109	862.64
2344.274	868.74
2347.438	897.94
2350.602	904.81
2353.766	970.05
2356.929	971.53
2360.092	977.48
2363.255	986.65
2366.418	1001.68
2369.58	1020.47
2372.742	1017.71
2375.904	1008.79
2379.066	1044.3
2382.227	1093.17
2385.388	1099.05
2388.548	1046.43
2391.709	1036.59
2394.869	1072.09
2398.029	1069.42
2401.188	1072.35
2404.347	1109.71
2407.506	1152.73
2410.665	1109.28
2413.823	1109.96
2416.981	1113.28
2420.139	1052.37
2423.296	1134.01
2426.453	1207.8
2429.61	1154.14
2432.767	1234.4
2435.923	1273.55
2439.079	1209.54
2442.235	1238.59
2445.391	1265.35
2448.546	1259.84
2451.701	1335.81
2454.855	1430.18
2458.009	1263.22
2461.163	1287.84
2464.317	1299.73
2467.471	1272.79
2470.624	1315.35
2473.777	1307.36
2476.929	1262.14
2480.082	1351.24
2483.234	1414.27
2486.385	1429.61
2489.537	1463.55
2492.688	1616.94
2495.839	1588.52
2498.989	1637.34
2502.14	1642.85
2505.29	1564.85
2508.439	1740.19
2511.589	1791.66
2514.738	1740.93
2517.887	1724.73
2521.035	1614.07
2524.183	1591.71
2527.331	1571.51
2530.479	1530.67
2533.627	1567.75
