Data from N_2_dec_va_2n_049_Splice17_13.txt Node
Date: Sat Feb 29 13:56:23 EST 2020
User: sa697716
Spectrometer: FLMS03696
Trigger mode: 0
Integration Time (sec): 3.180400E-1
Scans to average: 20
Electric dark correction enabled: true
Nonlinearity correction enabled: true
Boxcar width: 5
XAxis mode: Wavelengths
Number of Pixels in Spectrum: 2048
>>>>>Begin Spectral Data<<<<<
187.83	94.74
188.298	91.43
188.766	72.67
189.233	61.79
189.701	63.53
190.169	58.33
190.636	50.17
191.104	-0.45
191.571	-248.86
192.039	-105.96
192.506	804.39
192.974	9837.55
193.441	-450.8
193.908	55.68
194.375	-57.03
194.842	-120.35
195.31	-65.24
195.777	-54.71
196.244	-21.52
196.711	7.51
197.177	8.65
197.644	10.85
198.111	11.44
198.578	12.59
199.045	13.2
199.511	14.12
199.978	14.84
200.445	15.15
200.911	15.43
201.378	15.73
201.844	16.51
202.31	17.01
202.777	17.41
203.243	18.25
203.709	18.48
204.176	18.56
204.642	19.19
205.108	19.31
205.574	19.62
206.04	19.69
206.506	19.88
206.972	19.81
207.438	19.67
207.903	19.85
208.369	19.36
208.835	19.58
209.301	19.64
209.766	19.09
210.232	19.26
210.697	19.09
211.163	18.84
211.628	18.58
212.094	18.11
212.559	18
213.024	17.29
213.49	17.17
213.955	16.84
214.42	16.37
214.885	16.01
215.35	15.26
215.815	14.59
216.28	14.07
216.745	13.62
217.21	13.18
217.675	12.6
218.14	11.99
218.604	11.39
219.069	10.99
219.534	10.68
219.998	10.25
220.463	10.04
220.927	9.85
221.392	9.62
221.856	9.37
222.32	9.18
222.785	9.01
223.249	8.89
223.713	8.79
224.177	8.62
224.642	8.51
225.106	8.42
225.57	8.3
226.034	8.15
226.497	8.02
226.961	7.9
227.425	7.75
227.889	7.65
228.353	7.55
228.816	7.45
229.28	7.32
229.744	7.21
230.207	7.12
230.671	7.01
231.134	6.9
231.597	6.82
232.061	6.74
232.524	6.67
232.987	6.58
233.45	6.49
233.914	6.39
234.377	6.34
234.84	6.25
235.303	6.18
235.766	6.12
236.229	6.07
236.691	6
237.154	5.95
237.617	5.88
238.08	5.81
238.542	5.75
239.005	5.71
239.468	5.64
239.93	5.59
240.393	5.55
240.855	5.48
241.317	5.43
241.78	5.39
242.242	5.33
242.704	5.28
243.166	5.25
243.629	5.2
244.091	5.14
244.553	5.12
245.015	5.07
245.477	5.02
245.939	4.98
246.4	4.93
246.862	4.89
247.324	4.86
247.786	4.81
248.247	4.78
248.709	4.74
249.17	4.71
249.632	4.65
250.093	4.6
250.555	4.57
251.016	4.54
251.477	4.5
251.939	4.47
252.4	4.43
252.861	4.41
253.322	4.37
253.783	4.35
254.244	4.32
254.705	4.29
255.166	4.27
255.627	4.25
256.088	4.23
256.549	4.2
257.009	4.18
257.47	4.15
257.931	4.12
258.391	4.09
258.852	4.06
259.312	4.04
259.773	4.02
260.233	4
260.694	3.97
261.154	3.95
261.614	3.92
262.074	3.9
262.534	3.87
262.994	3.86
263.455	3.84
263.915	3.82
264.374	3.8
264.834	3.78
265.294	3.76
265.754	3.74
266.214	3.72
266.673	3.71
267.133	3.69
267.593	3.67
268.052	3.65
268.512	3.64
268.971	3.63
269.431	3.61
269.89	3.6
270.349	3.6
270.809	3.59
271.268	3.59
271.727	3.57
272.186	3.56
272.645	3.55
273.104	3.54
273.563	3.53
274.022	3.51
274.481	3.5
274.94	3.48
275.399	3.47
275.857	3.45
276.316	3.44
276.775	3.42
277.233	3.41
277.692	3.4
278.15	3.38
278.609	3.36
279.067	3.35
279.525	3.33
279.984	3.32
280.442	3.31
280.9	3.3
281.358	3.29
281.816	3.29
282.274	3.27
282.732	3.26
283.19	3.26
283.648	3.25
284.106	3.24
284.564	3.23
285.021	3.23
285.479	3.22
285.937	3.21
286.394	3.19
286.852	3.18
287.309	3.17
287.767	3.16
288.224	3.16
288.682	3.14
289.139	3.13
289.596	3.12
290.053	3.1
290.511	3.08
290.968	3.07
291.425	3.06
291.882	3.04
292.339	3.03
292.796	3.01
293.252	2.99
293.709	2.98
294.166	2.96
294.623	2.95
295.079	2.94
295.536	2.93
295.992	2.92
296.449	2.91
296.905	2.9
297.362	2.89
297.818	2.88
298.274	2.87
298.731	2.86
299.187	2.85
299.643	2.84
300.099	2.83
300.555	2.83
301.011	2.82
301.467	2.82
301.923	2.81
302.379	2.81
302.835	2.81
303.291	2.81
303.746	2.8
304.202	2.79
304.658	2.78
305.113	2.78
305.569	2.78
306.024	2.77
306.479	2.75
306.935	2.75
307.39	2.74
307.845	2.73
308.301	2.73
308.756	2.73
309.211	2.73
309.666	2.73
310.121	2.73
310.576	2.72
311.031	2.72
311.486	2.71
311.94	2.7
312.395	2.7
312.85	2.7
313.305	2.69
313.759	2.68
314.214	2.67
314.668	2.67
315.123	2.67
315.577	2.67
316.032	2.67
316.486	2.66
316.94	2.66
317.394	2.64
317.849	2.64
318.303	2.63
318.757	2.63
319.211	2.61
319.665	2.6
320.119	2.58
320.572	2.58
321.026	2.57
321.48	2.56
321.934	2.56
322.387	2.56
322.841	2.56
323.295	2.56
323.748	2.55
324.202	2.55
324.655	2.55
325.108	2.55
325.562	2.53
326.015	2.52
326.468	2.5
326.921	2.5
327.374	2.49
327.827	2.49
328.28	2.49
328.733	2.47
329.186	2.47
329.639	2.47
330.092	2.47
330.545	2.47
330.997	2.47
331.45	2.48
331.903	2.47
332.355	2.47
332.808	2.47
333.26	2.46
333.713	2.47
334.165	2.46
334.617	2.47
335.069	2.47
335.522	2.47
335.974	2.48
336.426	2.47
336.878	2.47
337.33	2.46
337.782	2.46
338.234	2.46
338.686	2.45
339.137	2.45
339.589	2.44
340.041	2.43
340.493	2.41
340.944	2.41
341.396	2.41
341.847	2.4
342.299	2.4
342.75	2.39
343.201	2.39
343.653	2.38
344.104	2.37
344.555	2.36
345.006	2.36
345.457	2.36
345.908	2.35
346.359	2.35
346.81	2.36
347.261	2.35
347.712	2.35
348.163	2.34
348.613	2.35
349.064	2.33
349.515	2.33
349.965	2.33
350.416	2.31
350.866	2.31
351.317	2.31
351.767	2.29
352.217	2.3
352.668	2.29
353.118	2.29
353.568	2.28
354.018	2.29
354.468	2.29
354.918	2.29
355.368	2.3
355.818	2.3
356.268	2.3
356.718	2.3
357.168	2.3
357.617	2.3
358.067	2.29
358.517	2.29
358.966	2.29
359.416	2.29
359.865	2.29
360.315	2.29
360.764	2.29
361.213	2.28
361.663	2.28
362.112	2.28
362.561	2.27
363.01	2.28
363.459	2.27
363.908	2.26
364.357	2.26
364.806	2.27
365.255	2.27
365.703	2.26
366.152	2.27
366.601	2.26
367.05	2.27
367.498	2.27
367.947	2.25
368.395	2.27
368.844	2.27
369.292	2.26
369.74	2.26
370.189	2.26
370.637	2.26
371.085	2.27
371.533	2.27
371.981	2.28
372.429	2.28
372.877	2.29
373.325	2.29
373.773	2.31
374.221	2.31
374.669	2.31
375.116	2.32
375.564	2.33
376.012	2.34
376.459	2.36
376.907	2.36
377.354	2.37
377.801	2.38
378.249	2.4
378.696	2.42
379.143	2.44
379.591	2.46
380.038	2.47
380.485	2.49
380.932	2.51
381.379	2.53
381.826	2.55
382.273	2.57
382.72	2.59
383.166	2.61
383.613	2.64
384.06	2.66
384.506	2.68
384.953	2.71
385.4	2.73
385.846	2.75
386.292	2.78
386.739	2.8
387.185	2.84
387.631	2.88
388.078	2.92
388.524	2.93
388.97	2.96
389.416	2.99
389.862	3.02
390.308	3.05
390.754	3.09
391.2	3.12
391.645	3.15
392.091	3.18
392.537	3.21
392.983	3.23
393.428	3.28
393.874	3.31
394.319	3.34
394.765	3.37
395.21	3.39
395.655	3.42
396.101	3.45
396.546	3.47
396.991	3.5
397.436	3.5
397.881	3.53
398.326	3.55
398.771	3.57
399.216	3.6
399.661	3.62
400.106	3.64
400.551	3.63
400.995	3.64
401.44	3.64
401.885	3.65
402.329	3.67
402.774	3.67
403.218	3.68
403.663	3.67
404.107	3.69
404.551	3.69
404.995	3.69
405.44	3.69
405.884	3.69
406.328	3.7
406.772	3.7
407.216	3.71
407.66	3.71
408.104	3.69
408.547	3.7
408.991	3.69
409.435	3.68
409.879	3.68
410.322	3.69
410.766	3.69
411.209	3.7
411.653	3.69
412.096	3.69
412.54	3.69
412.983	3.68
413.426	3.7
413.869	3.7
414.312	3.73
414.756	3.73
415.199	3.73
415.642	3.76
416.085	3.75
416.527	3.77
416.97	3.77
417.413	3.76
417.856	3.77
418.298	3.75
418.741	3.75
419.184	3.73
419.626	3.72
420.069	3.72
420.511	3.69
420.953	3.7
421.396	3.71
421.838	3.73
422.28	3.75
422.722	3.74
423.164	3.74
423.606	3.75
424.048	3.73
424.49	3.74
424.932	3.74
425.374	3.73
425.816	3.71
426.258	3.67
426.699	3.65
427.141	3.62
427.582	3.63
428.024	3.62
428.465	3.6
428.907	3.61
429.348	3.59
429.789	3.58
430.231	3.58
430.672	3.59
431.113	3.6
431.554	3.6
431.995	3.61
432.436	3.6
432.877	3.59
433.318	3.59
433.759	3.58
434.2	3.59
434.64	3.61
435.081	3.63
435.522	3.63
435.962	3.65
436.403	3.67
436.843	3.67
437.284	3.68
437.724	3.71
438.164	3.73
438.604	3.75
439.045	3.77
439.485	3.78
439.925	3.77
440.365	3.79
440.805	3.8
441.245	3.8
441.685	3.84
442.125	3.86
442.564	3.91
443.004	3.96
443.444	3.99
443.883	4.03
444.323	4.05
444.762	4.11
445.202	4.15
445.641	4.18
446.081	4.25
446.52	4.27
446.959	4.32
447.398	4.36
447.837	4.4
448.276	4.43
448.716	4.46
449.154	4.51
449.593	4.55
450.032	4.58
450.471	4.61
450.91	4.63
451.349	4.65
451.787	4.67
452.226	4.66
452.664	4.67
453.103	4.68
453.541	4.71
453.98	4.71
454.418	4.72
454.856	4.71
455.295	4.72
455.733	4.73
456.171	4.74
456.609	4.74
457.047	4.75
457.485	4.74
457.923	4.75
458.361	4.74
458.798	4.75
459.236	4.76
459.674	4.76
460.111	4.75
460.549	4.73
460.987	4.73
461.424	4.72
461.862	4.71
462.299	4.7
462.736	4.71
463.173	4.7
463.611	4.69
464.048	4.7
464.485	4.7
464.922	4.71
465.359	4.73
465.796	4.74
466.233	4.76
466.67	4.76
467.106	4.77
467.543	4.77
467.98	4.78
468.416	4.81
468.853	4.81
469.29	4.81
469.726	4.82
470.162	4.81
470.599	4.82
471.035	4.82
471.471	4.82
471.907	4.83
472.344	4.83
472.78	4.84
473.216	4.83
473.652	4.84
474.088	4.86
474.523	4.86
474.959	4.87
475.395	4.88
475.831	4.88
476.266	4.91
476.702	4.93
477.138	4.93
477.573	4.93
478.008	4.93
478.444	4.93
478.879	4.92
479.314	4.94
479.75	4.94
480.185	4.95
480.62	4.96
481.055	4.95
481.49	4.94
481.925	4.96
482.36	4.97
482.795	4.98
483.229	4.98
483.664	4.99
484.099	5
484.534	5
484.968	5.02
485.403	5.04
485.837	5.05
486.271	5.08
486.706	5.1
487.14	5.13
487.574	5.17
488.009	5.21
488.443	5.23
488.877	5.27
489.311	5.32
489.745	5.37
490.179	5.42
490.613	5.48
491.046	5.54
491.48	5.61
491.914	5.67
492.348	5.74
492.781	5.8
493.215	5.88
493.648	5.96
494.082	6.03
494.515	6.11
494.948	6.2
495.382	6.3
495.815	6.4
496.248	6.49
496.681	6.59
497.114	6.69
497.547	6.82
497.98	6.95
498.413	7.08
498.846	7.22
499.279	7.36
499.711	7.49
500.144	7.63
500.577	7.8
501.009	7.97
501.442	8.14
501.874	8.33
502.306	8.52
502.739	8.71
503.171	8.91
503.603	9.12
504.036	9.34
504.468	9.57
504.9	9.81
505.332	10.05
505.764	10.3
506.196	10.55
506.627	10.8
507.059	11.07
507.491	11.36
507.923	11.65
508.354	11.95
508.786	12.25
509.217	12.55
509.649	12.87
510.08	13.19
510.512	13.51
510.943	13.86
511.374	14.2
511.805	14.54
512.237	14.88
512.668	15.23
513.099	15.61
513.53	15.97
513.961	16.35
514.391	16.69
514.822	17.05
515.253	17.42
515.684	17.78
516.114	18.16
516.545	18.53
516.975	18.92
517.406	19.3
517.836	19.65
518.267	20.01
518.697	20.38
519.127	20.76
519.558	21.13
519.988	21.49
520.418	21.83
520.848	22.17
521.278	22.51
521.708	22.74
522.138	23.04
522.567	23.35
522.997	23.65
523.427	23.94
523.857	24.21
524.286	24.48
524.716	24.74
525.145	25.01
525.575	25.28
526.004	25.53
526.433	25.86
526.863	26.11
527.292	26.35
527.721	26.56
528.15	26.75
528.579	26.95
529.008	27.16
529.437	27.33
529.866	27.5
530.295	27.65
530.724	27.82
531.152	27.98
531.581	28.09
532.01	28.2
532.438	28.34
532.867	28.48
533.295	28.62
533.723	28.73
534.152	28.84
534.58	28.93
535.008	29.01
535.436	29.11
535.865	29.17
536.293	29.27
536.721	29.35
537.149	29.41
537.576	29.46
538.004	29.48
538.432	29.52
538.86	29.58
539.287	29.64
539.715	29.71
540.143	29.73
540.57	29.78
540.998	29.8
541.425	29.84
541.852	29.87
542.28	29.9
542.707	29.96
543.134	29.99
543.561	30
543.988	30.02
544.415	30.05
544.842	30.07
545.269	30.11
545.696	30.14
546.123	30.18
546.549	30.2
546.976	30.24
547.403	30.25
547.829	30.28
548.256	30.31
548.682	30.33
549.108	30.33
549.535	30.34
549.961	30.34
550.387	30.33
550.813	30.33
551.24	30.32
551.666	30.31
552.092	30.31
552.518	30.29
552.943	30.28
553.369	30.26
553.795	30.25
554.221	30.23
554.646	30.2
555.072	30.17
555.498	30.13
555.923	30.12
556.349	30.06
556.774	30.01
557.199	29.96
557.625	29.9
558.05	29.81
558.475	29.73
558.9	29.67
559.325	29.59
559.75	29.5
560.175	29.41
560.6	29.29
561.025	29.19
561.449	29.07
561.874	28.97
562.299	28.85
562.723	28.75
563.148	28.62
563.572	28.49
563.997	28.37
564.421	28.22
564.846	28.07
565.27	27.92
565.694	27.75
566.118	27.61
566.542	27.44
566.966	27.3
567.39	27.13
567.814	26.97
568.238	26.78
568.662	26.59
569.086	26.45
569.509	26.29
569.933	26.11
570.357	25.95
570.78	25.77
571.204	25.6
571.627	25.43
572.05	25.26
572.474	25.11
572.897	24.97
573.32	24.81
573.743	24.63
574.166	24.46
574.589	24.31
575.012	24.17
575.435	24.02
575.858	23.9
576.281	23.76
576.704	23.64
577.126	23.51
577.549	23.4
577.972	23.3
578.394	23.19
578.817	23.09
579.239	23.01
579.661	22.89
580.084	22.79
580.506	22.67
580.928	22.56
581.35	22.46
581.772	22.36
582.194	22.26
582.616	22.16
583.038	22.07
583.46	21.99
583.882	21.89
584.303	21.82
584.725	21.75
585.147	21.67
585.568	21.6
585.99	21.51
586.411	21.44
586.833	21.35
587.254	21.29
587.675	21.22
588.096	21.15
588.518	21.1
588.939	21.02
589.36	20.95
589.781	20.89
590.202	20.84
590.623	20.79
591.043	20.73
591.464	20.67
591.885	20.63
592.305	20.6
592.726	20.54
593.147	20.5
593.567	20.46
593.987	20.43
594.408	20.39
594.828	20.34
595.248	20.3
595.669	20.27
596.089	20.24
596.509	20.19
596.929	20.13
597.349	20.09
597.769	20.05
598.189	20.01
598.608	19.95
599.028	19.91
599.448	19.86
599.867	19.82
600.287	19.77
600.706	19.72
601.126	19.66
601.545	19.61
601.965	19.56
602.384	19.51
602.803	19.42
603.222	19.35
603.641	19.3
604.061	19.23
604.48	19.15
604.898	19.06
605.317	18.98
605.736	18.9
606.155	18.82
606.574	18.73
606.992	18.62
607.411	18.53
607.829	18.39
608.248	18.29
608.666	18.18
609.085	18.1
609.503	18
609.921	17.9
610.339	17.81
610.758	17.71
611.176	17.61
611.594	17.52
612.012	17.43
612.43	17.39
612.847	17.3
613.265	17.22
613.683	17.12
614.101	17.03
614.518	16.92
614.936	16.83
615.353	16.73
615.771	16.65
616.188	16.56
616.606	16.47
617.023	16.39
617.44	16.31
617.857	16.23
618.274	16.15
618.691	16.08
619.108	16.02
619.525	15.96
619.942	15.91
620.359	15.85
620.776	15.82
621.192	15.77
621.609	15.73
622.026	15.69
622.442	15.63
622.859	15.61
623.275	15.59
623.691	15.57
624.108	15.54
624.524	15.52
624.94	15.48
625.356	15.45
625.772	15.44
626.188	15.44
626.604	15.4
627.02	15.38
627.436	15.35
627.852	15.33
628.268	15.29
628.683	15.28
629.099	15.26
629.514	15.24
629.93	15.21
630.345	15.15
630.761	15.11
631.176	15.09
631.591	15.05
632.007	15
632.422	14.94
632.837	14.89
633.252	14.81
633.667	14.72
634.082	14.63
634.497	14.53
634.911	14.44
635.326	14.31
635.741	14.19
636.155	14.07
636.57	13.94
636.984	13.79
637.399	13.64
637.813	13.48
638.228	13.32
638.642	13.17
639.056	13
639.47	12.83
639.884	12.66
640.298	12.49
640.712	12.32
641.126	12.14
641.54	11.98
641.954	11.81
642.368	11.65
642.781	11.49
643.195	11.32
643.609	11.16
644.022	11.01
644.436	10.84
644.849	10.7
645.262	10.56
645.676	10.41
646.089	10.27
646.502	10.14
646.915	10.01
647.328	9.9
647.741	9.8
648.154	9.7
648.567	9.62
648.98	9.57
649.393	9.49
649.805	9.42
650.218	9.37
650.631	9.31
651.043	9.24
651.456	9.19
651.868	9.12
652.28	9.05
652.693	8.99
653.105	8.89
653.517	8.81
653.929	8.74
654.341	8.66
654.753	8.57
655.165	8.49
655.577	8.4
655.989	8.28
656.401	8.16
656.813	8.05
657.224	7.93
657.636	7.82
658.047	7.69
658.459	7.54
658.87	7.4
659.282	7.27
659.693	7.13
660.104	6.99
660.515	6.87
660.926	6.75
661.338	6.62
661.749	6.48
662.159	6.35
662.57	6.24
662.981	6.12
663.392	6.01
663.803	5.9
664.213	5.8
664.624	5.71
665.035	5.6
665.445	5.5
665.855	5.41
666.266	5.33
666.676	5.25
667.086	5.17
667.497	5.11
667.907	5.03
668.317	4.96
668.727	4.92
669.137	4.87
669.547	4.84
669.956	4.82
670.366	4.8
670.776	4.79
671.186	4.78
671.595	4.77
672.005	4.77
672.414	4.78
672.824	4.79
673.233	4.8
673.642	4.8
674.052	4.8
674.461	4.81
674.87	4.83
675.279	4.83
675.688	4.85
676.097	4.87
676.506	4.9
676.915	4.94
677.323	4.99
677.732	5.02
678.141	5.08
678.549	5.14
678.958	5.21
679.366	5.28
679.775	5.38
680.183	5.48
680.592	5.61
681	5.73
681.408	5.87
681.816	6.02
682.224	6.2
682.632	6.39
683.04	6.61
683.448	6.85
683.856	7.12
684.264	7.41
684.671	7.74
685.079	8.09
685.487	8.5
685.894	8.93
686.302	9.37
686.709	9.84
687.116	10.34
687.524	10.88
687.931	11.45
688.338	12.03
688.745	12.65
689.152	13.29
689.559	13.93
689.966	14.59
690.373	15.28
690.78	15.99
691.187	16.72
691.593	17.44
692	18.16
692.407	18.87
692.813	19.62
693.22	20.34
693.626	21.07
694.032	21.8
694.439	22.53
694.845	23.27
695.251	23.98
695.657	24.64
696.063	25.35
696.469	26.02
696.875	26.69
697.281	27.31
697.687	27.96
698.093	28.59
698.498	29.21
698.904	29.8
699.31	30.34
699.715	30.91
700.12	31.47
700.526	32.01
700.931	32.54
701.337	33.07
701.742	33.55
702.147	34.04
702.552	34.52
702.957	34.99
703.362	35.45
703.767	35.91
704.172	36.32
704.577	36.76
704.981	37.16
705.386	37.57
705.791	37.96
706.195	38.34
706.6	38.72
707.004	39.08
707.408	39.43
707.813	39.77
708.217	40.11
708.621	40.44
709.025	40.79
709.43	41.11
709.834	41.43
710.237	41.73
710.641	42.06
711.045	42.34
711.449	42.61
711.853	42.88
712.256	43.17
712.66	43.41
713.064	43.68
713.467	43.94
713.87	44.19
714.274	44.43
714.677	44.67
715.08	44.92
715.484	45.17
715.887	45.39
716.29	45.59
716.693	45.78
717.096	45.98
717.499	46.18
717.901	46.35
718.304	46.55
718.707	46.71
719.109	46.9
719.512	47.07
719.915	47.24
720.317	47.39
720.719	47.56
721.122	47.72
721.524	47.91
721.926	48.06
722.328	48.22
722.731	48.35
723.133	48.51
723.535	48.63
723.937	48.76
724.338	48.88
724.74	49.02
725.142	49.2
725.544	49.31
725.945	49.42
726.347	49.53
726.748	49.61
727.15	49.69
727.551	49.8
727.952	49.89
728.354	49.99
728.755	50.08
729.156	50.14
729.557	50.14
729.958	50.22
730.359	50.3
730.76	50.36
731.161	50.44
731.562	50.53
731.962	50.58
732.363	50.63
732.763	50.69
733.164	50.74
733.564	50.81
733.965	50.9
734.365	50.93
734.766	50.96
735.166	50.99
735.566	51.01
735.966	51.04
736.366	51.08
736.766	51.12
737.166	51.15
737.566	51.18
737.966	51.23
738.365	51.26
738.765	51.3
739.165	51.3
739.564	51.33
739.964	51.38
740.363	51.41
740.763	51.43
741.162	51.46
741.561	51.48
741.96	51.52
742.36	51.51
742.759	51.51
743.158	51.51
743.557	51.52
743.955	51.57
744.354	51.59
744.753	51.62
745.152	51.63
745.55	51.61
745.949	51.6
746.348	51.6
746.746	51.62
747.144	51.67
747.543	51.7
747.941	51.75
748.339	51.77
748.737	51.79
749.136	51.81
749.534	51.83
749.932	51.86
750.33	51.91
750.727	51.94
751.125	51.96
751.523	51.92
751.921	51.92
752.318	51.95
752.716	51.94
753.113	51.92
753.511	51.92
753.908	51.9
754.305	51.89
754.703	51.87
755.1	51.85
755.497	51.86
755.894	51.9
756.291	51.89
756.688	51.86
757.085	51.86
757.482	51.89
757.878	51.91
758.275	51.93
758.672	51.96
759.068	51.97
759.465	52
759.861	51.98
760.258	51.94
760.654	51.95
761.05	51.94
761.447	51.91
761.843	51.89
762.239	51.84
762.635	51.82
763.031	51.8
763.427	51.77
763.822	51.73
764.218	51.71
764.614	51.67
765.01	51.64
765.405	51.63
765.801	51.61
766.196	51.59
766.592	51.57
766.987	51.56
767.382	51.56
767.778	51.58
768.173	51.58
768.568	51.57
768.963	51.59
769.358	51.6
769.753	51.62
770.148	51.64
770.542	51.64
770.937	51.64
771.332	51.64
771.726	51.6
772.121	51.59
772.515	51.55
772.91	51.56
773.304	51.56
773.699	51.54
774.093	51.5
774.487	51.5
774.881	51.49
775.275	51.49
775.669	51.47
776.063	51.48
776.457	51.46
776.851	51.45
777.245	51.45
777.638	51.47
778.032	51.5
778.425	51.52
778.819	51.51
779.212	51.49
779.606	51.51
779.999	51.53
780.392	51.54
780.786	51.55
781.179	51.58
781.572	51.59
781.965	51.57
782.358	51.55
782.751	51.53
783.143	51.52
783.536	51.58
783.929	51.58
784.322	51.59
784.714	51.56
785.107	51.55
785.499	51.56
785.891	51.58
786.284	51.55
786.676	51.57
787.068	51.55
787.46	51.55
787.852	51.51
788.245	51.49
788.636	51.47
789.028	51.48
789.42	51.49
789.812	51.51
790.204	51.46
790.595	51.49
790.987	51.47
791.378	51.49
791.77	51.49
792.161	51.51
792.553	51.52
792.944	51.56
793.335	51.59
793.726	51.56
794.117	51.51
794.508	51.52
794.899	51.51
795.29	51.52
795.681	51.51
796.072	51.5
796.463	51.5
796.853	51.5
797.244	51.48
797.634	51.43
798.025	51.49
798.415	51.51
798.806	51.55
799.196	51.59
799.586	51.61
799.976	51.63
800.366	51.64
800.756	51.65
801.146	51.66
801.536	51.66
801.926	51.69
802.316	51.67
802.706	51.67
803.095	51.66
803.485	51.66
803.874	51.66
804.264	51.68
804.653	51.69
805.043	51.69
805.432	51.68
805.821	51.69
806.21	51.73
806.599	51.77
806.988	51.78
807.377	51.8
807.766	51.79
808.155	51.79
808.544	51.79
808.933	51.78
809.321	51.81
809.71	51.84
810.098	51.85
810.487	51.82
810.875	51.78
811.264	51.81
811.652	51.83
812.04	51.84
812.428	51.86
812.816	51.88
813.204	51.9
813.592	51.9
813.98	51.88
814.368	51.88
814.756	51.88
815.144	51.88
815.531	51.86
815.919	51.84
816.306	51.84
816.694	51.87
817.081	51.84
817.469	51.84
817.856	51.86
818.243	51.85
818.63	51.89
819.017	51.93
819.404	51.93
819.791	51.95
820.178	51.95
820.565	51.94
820.952	51.93
821.339	51.98
821.725	52.01
822.112	52
822.498	52.05
822.885	52.05
823.271	52.06
823.657	52.08
824.044	52.07
824.43	52.12
824.816	52.15
825.202	52.13
825.588	52.12
825.974	52.11
826.36	52.11
826.746	52.12
827.132	52.11
827.517	52.09
827.903	52.1
828.289	52.14
828.674	52.11
829.06	52.13
829.445	52.17
829.83	52.19
830.216	52.2
830.601	52.24
830.986	52.23
831.371	52.26
831.756	52.27
832.141	52.27
832.526	52.25
832.911	52.29
833.295	52.31
833.68	52.32
834.065	52.33
834.449	52.33
834.834	52.3
835.218	52.3
835.603	52.3
835.987	52.28
836.371	52.31
836.755	52.33
837.139	52.3
837.524	52.27
837.908	52.25
838.291	52.23
838.675	52.22
839.059	52.22
839.443	52.23
839.827	52.2
840.21	52.22
840.594	52.23
840.977	52.22
841.361	52.25
841.744	52.26
842.127	52.25
842.511	52.26
842.894	52.25
843.277	52.24
843.66	52.24
844.043	52.27
844.426	52.27
844.809	52.25
845.191	52.22
845.574	52.19
845.957	52.16
846.339	52.16
846.722	52.19
847.104	52.19
847.487	52.2
847.869	52.18
848.252	52.17
848.634	52.19
849.016	52.19
849.398	52.22
849.78	52.24
850.162	52.25
850.544	52.26
850.926	52.21
851.307	52.2
851.689	52.17
852.071	52.17
852.452	52.14
852.834	52.1
853.215	52.12
853.597	52.12
853.978	52.11
854.359	52.12
854.741	52.13
855.122	52.14
855.503	52.16
855.884	52.19
856.265	52.17
856.646	52.18
857.026	52.19
857.407	52.14
857.788	52.13
858.169	52.12
858.549	52.12
858.93	52.1
859.31	52.1
859.69	52.09
860.071	52.06
860.451	52.09
860.831	52.1
861.211	52.12
861.591	52.14
861.971	52.14
862.351	52.15
862.731	52.14
863.111	52.13
863.491	52.14
863.87	52.15
864.25	52.2
864.629	52.18
865.009	52.17
865.388	52.16
865.768	52.13
866.147	52.13
866.526	52.14
866.905	52.14
867.284	52.14
867.663	52.15
868.042	52.13
868.421	52.1
868.8	52.1
869.179	52.09
869.558	52.06
869.936	52.05
870.315	52.04
870.693	52.02
871.072	52
871.45	52
871.828	51.97
872.207	51.98
872.585	52
872.963	51.97
873.341	51.99
873.719	51.99
874.097	52.02
874.475	52.03
874.853	52.02
875.23	52.02
875.608	52.03
875.986	52.02
876.363	52.03
876.741	52.01
877.118	52.03
877.495	52.04
877.873	52.05
878.25	52.03
878.627	52.01
879.004	52.02
879.381	52
879.758	51.94
880.135	51.95
880.512	51.94
880.889	51.95
881.265	51.95
881.642	51.93
882.019	51.94
882.395	51.95
882.772	51.99
883.148	51.99
883.524	52.02
883.901	52.04
884.277	52.04
884.653	52.06
885.029	52.06
885.405	52.06
885.781	52.04
886.157	52.03
886.532	52.03
886.908	52.01
887.284	52.01
887.659	52.02
888.035	52.01
888.411	52
888.786	51.98
889.161	51.95
889.537	51.94
889.912	51.93
890.287	51.93
890.662	51.93
891.037	51.92
891.412	51.91
891.787	51.91
892.162	51.9
892.536	51.9
892.911	51.88
893.286	51.87
893.66	51.85
894.035	51.85
894.409	51.85
894.784	51.85
895.158	51.82
895.532	51.8
895.906	51.76
896.281	51.75
896.655	51.72
897.029	51.72
897.402	51.72
897.776	51.7
898.15	51.72
898.524	51.7
898.898	51.64
899.271	51.66
899.645	51.65
900.018	51.61
900.392	51.59
900.765	51.59
901.138	51.6
901.511	51.57
901.884	51.56
902.258	51.51
902.631	51.51
903.003	51.5
903.376	51.47
903.749	51.51
904.122	51.52
904.495	51.52
904.867	51.5
905.24	51.49
905.612	51.47
905.985	51.47
906.357	51.44
906.729	51.43
907.102	51.46
907.474	51.44
907.846	51.39
908.218	51.35
908.59	51.35
908.962	51.37
909.334	51.34
909.705	51.34
910.077	51.3
910.449	51.37
910.82	51.33
911.192	51.28
911.563	51.3
911.935	51.28
912.306	51.32
912.677	51.32
913.048	51.3
913.419	51.3
913.79	51.28
914.161	51.3
914.532	51.27
914.903	51.28
915.274	51.26
915.645	51.25
916.015	51.26
916.386	51.21
916.756	51.17
917.127	51.19
917.497	51.19
917.868	51.21
918.238	51.24
918.608	51.23
918.978	51.2
919.348	51.19
919.718	51.2
920.088	51.21
920.458	51.24
920.828	51.28
921.198	51.27
921.567	51.23
921.937	51.24
922.306	51.19
922.676	51.2
923.045	51.21
923.415	51.21
923.784	51.21
924.153	51.17
924.522	51.17
924.891	51.15
925.26	51.13
925.629	51.16
925.998	51.14
926.367	51.13
926.736	51.13
927.104	51.16
927.473	51.17
927.842	51.1
928.21	51.11
928.578	51.06
928.947	51
929.315	51
929.683	51
930.051	50.99
930.42	50.98
930.788	50.95
931.156	50.92
931.523	50.92
931.891	50.91
932.259	50.89
932.627	50.85
932.994	50.87
933.362	50.77
933.729	50.69
934.097	50.62
934.464	50.59
934.831	50.52
935.199	50.46
935.566	50.38
935.933	50.37
936.3	50.28
936.667	50.2
937.034	50.09
937.401	50.1
937.767	50.05
938.134	50.01
938.501	49.92
938.867	49.94
939.234	49.96
939.6	49.85
939.967	49.81
940.333	49.89
940.699	49.98
941.065	50.02
941.431	50.06
941.798	50.14
942.163	50.21
942.529	50.26
942.895	50.25
943.261	50.2
943.627	50.37
943.992	50.41
944.358	50.4
944.723	50.43
945.089	50.45
945.454	50.53
945.82	50.48
946.185	50.46
946.55	50.45
946.915	50.46
947.28	50.4
947.645	50.37
948.01	50.32
948.375	50.35
948.74	50.27
949.104	50.27
949.469	50.1
949.834	50.08
950.198	50.02
950.562	50.01
950.927	49.96
951.291	49.96
951.655	49.93
952.02	49.91
952.384	49.9
952.748	49.9
953.112	49.85
953.476	49.93
953.839	49.97
954.203	50.01
954.567	50.02
954.931	50.03
955.294	50.06
955.658	50.02
956.021	50.03
956.385	49.99
956.748	50.02
957.111	50.02
957.474	50.02
957.837	49.99
958.2	49.92
958.563	49.86
958.926	49.82
959.289	49.81
959.652	49.84
960.015	49.86
960.377	49.84
960.74	49.78
961.102	49.76
961.465	49.72
961.827	49.63
962.189	49.61
962.552	49.55
962.914	49.54
963.276	49.55
963.638	49.46
964	49.38
964.362	49.38
964.724	49.41
965.085	49.47
965.447	49.4
965.809	49.42
966.17	49.47
966.532	49.52
966.893	49.49
967.255	49.41
967.616	49.49
967.977	49.53
968.338	49.52
968.699	49.48
969.061	49.38
969.421	49.45
969.782	49.4
970.143	49.36
970.504	49.35
970.865	49.3
971.225	49.33
971.586	49.34
971.946	49.38
972.307	49.41
972.667	49.44
973.027	49.49
973.388	49.45
973.748	49.51
974.108	49.52
974.468	49.53
974.828	49.56
975.188	49.48
975.548	49.42
975.907	49.33
976.267	49.29
976.627	49.27
976.986	49.23
977.346	49.2
977.705	49.24
978.064	49.24
978.424	49.2
978.783	49.26
979.142	49.35
979.501	49.34
979.86	49.34
980.219	49.3
980.578	49.26
980.937	49.22
981.296	49.25
981.654	49.21
982.013	49.18
982.371	49.21
982.73	49.13
983.088	49.08
983.447	49.07
983.805	49.03
984.163	49.03
984.521	48.96
984.879	48.98
985.237	48.98
985.595	48.97
985.953	48.92
986.311	48.92
986.669	48.94
987.026	48.91
987.384	48.9
987.741	48.92
988.099	48.9
988.456	48.9
988.814	48.94
989.171	48.91
989.528	48.86
989.885	48.86
990.242	48.91
990.599	48.81
990.956	48.8
991.313	48.74
991.67	48.74
992.027	48.78
992.383	48.79
992.74	48.74
993.096	48.63
993.453	48.61
993.809	48.68
994.165	48.56
994.522	48.68
994.878	48.7
995.234	48.73
995.59	48.62
995.946	48.56
996.302	48.51
996.658	48.47
997.013	48.48
997.369	48.49
997.725	48.42
998.08	48.42
998.436	48.39
998.791	48.29
999.147	48.28
999.502	48.35
999.857	48.31
1000.212	48.29
1000.567	48.23
1000.922	48.27
1001.277	48.24
1001.632	48.38
1001.987	48.25
1002.342	48.2
1002.696	48.34
1003.051	48.19
1003.406	48.22
1003.76	48.11
1004.114	48.16
1004.469	48.21
1004.823	48.17
1005.177	48.29
1005.531	48.13
1005.885	48.17
1006.239	48.17
1006.593	48.15
1006.947	48.1
1007.301	47.93
1007.655	47.97
1008.008	47.79
1008.362	47.64
1008.715	47.48
1009.069	47.11
1009.422	46.84
1009.776	46.84
1010.129	46.71
1010.482	46.73
1010.835	46.75
1011.188	46.68
1011.541	46.51
1011.894	46.68
1012.247	46.57
1012.6	46.57
1012.952	46.67
1013.305	46.86
1013.657	46.85
1014.01	46.85
1014.362	46.63
1014.715	46.54
1015.067	46.75
1015.419	46.88
1015.771	46.84
1016.123	46.92
1016.475	47.07
1016.827	47.29
1017.179	47.14
1017.531	47.08
1017.883	47.18
1018.234	47.26
1018.586	46.98
1018.938	46.77
1019.289	46.83
1019.64	46.86
1019.992	46.92
1020.343	46.54
1020.694	46.19
1021.045	46.13
1021.396	45.99
1021.747	45.84
1022.098	45.47
1022.449	45.89
1022.8	45.85
1023.151	45.53
1023.501	45.47
1023.852	45.23
1024.202	45.61
1024.553	45.6
1024.903	45.59
1025.253	45.34
1025.604	45.02
1025.954	45.07
1026.304	45.19
1026.654	45.32
1027.004	45.38
1027.354	45.04
1027.703	44.95
1028.053	44.57
1028.403	44.51
1028.753	44.68
1029.102	44.87
1029.452	45.03
1029.801	45.05
1030.15	44.79
1030.499	44.51
897.758	689.58
901.051	698.45
904.343	710.85
907.636	695.33
910.928	682.7
914.22	696.07
917.511	686.21
920.803	651.11
924.094	626.55
927.384	631.08
930.675	611.32
933.965	605
937.255	606.42
940.544	576.43
943.834	552.6
947.123	544.55
950.411	514.13
953.7	505.55
956.988	493.55
960.276	468.23
963.563	463.41
966.851	439.62
970.138	429.32
973.424	398.22
976.711	393.54
979.997	380.66
983.283	374.07
986.568	362.66
989.853	351.66
993.138	337.91
996.423	335.19
999.708	322.13
1002.992	323.94
1006.275	315.24
1009.559	311.85
1012.842	302.99
1016.125	293.52
1019.408	286.47
1022.69	284.01
1025.972	282.73
1029.254	274.86
1032.536	269.1
1035.817	261.92
1039.098	258
1042.379	252.58
1045.659	249.41
1048.939	247.83
1052.219	243.41
1055.498	238.45
1058.778	234.42
1062.057	228.47
1065.335	227.98
1068.614	224.23
1071.892	221.45
1075.17	217.74
1078.447	214.83
1081.724	213.68
1085.001	208.3
1088.278	207.73
1091.554	206.95
1094.83	205.43
1098.106	202.02
1101.382	201.31
1104.657	201.4
1107.932	199.55
1111.206	197.84
1114.481	196.15
1117.755	193.93
1121.029	193.25
1124.302	189.92
1127.575	187.93
1130.848	187.33
1134.121	185.06
1137.393	183.82
1140.665	182.18
1143.937	180.76
1147.208	178.07
1150.48	176.49
1153.75	176.2
1157.021	174.28
1160.291	174.29
1163.561	173.47
1166.831	171.25
1170.101	172.06
1173.37	169.92
1176.639	167.99
1179.907	168.61
1183.176	168.62
1186.444	168.33
1189.711	167.27
1192.979	169.68
1196.246	169.02
1199.513	167.99
1202.78	170.22
1206.046	169.35
1209.312	170.67
1212.578	171.64
1215.843	174.2
1219.108	174.25
1222.373	177.53
1225.638	179.78
1228.902	182.91
1232.166	189.23
1235.43	191.95
1238.693	195.88
1241.956	200.94
1245.219	207.02
1248.482	208.6
1251.744	206.7
1255.006	208.31
1258.268	202.27
1261.529	201.24
1264.79	195.92
1268.051	192.41
1271.312	191.32
1274.572	186.27
1277.832	181.54
1281.092	178.66
1284.351	175.45
1287.61	175.5
1290.869	174.03
1294.128	173.99
1297.386	172.61
1300.644	172.06
1303.902	171.1
1307.159	169.97
1310.416	171.63
1313.673	174.44
1316.93	175.08
1320.186	178.05
1323.442	179.48
1326.697	184.02
1329.953	185.38
1333.208	192.37
1336.463	200.06
1339.717	203.75
1342.972	213.72
1346.226	218.69
1349.479	220.64
1352.733	231.19
1355.986	234.67
1359.238	241.49
1362.491	242.52
1365.743	253.32
1368.995	254.25
1372.247	253.02
1375.498	252.06
1378.749	260.84
1382	259.88
1385.251	259.6
1388.501	258.34
1391.751	262.77
1395	259.43
1398.25	262.56
1401.499	260.1
1404.748	259.67
1407.996	254.3
1411.244	255.44
1414.492	249.89
1417.74	245.06
1420.987	239.01
1424.234	236.62
1427.481	227.58
1430.728	222.58
1433.974	215.11
1437.22	208.19
1440.465	200.94
1443.711	195.77
1446.956	190.67
1450.201	183.27
1453.445	175.28
1456.689	170.61
1459.933	163.55
1463.177	157.73
1466.42	154.75
1469.663	149.49
1472.906	145.65
1476.148	141.81
1479.391	139.39
1482.633	136.47
1485.874	134.18
1489.115	133.19
1492.356	130.39
1495.597	129.73
1498.838	128.9
1502.078	127.49
1505.318	127.5
1508.557	126.61
1511.797	125.28
1515.036	124.76
1518.274	123.76
1521.513	122.52
1524.751	122.3
1527.989	123.1
1531.227	122.05
1534.464	121.55
1537.701	120.69
1540.938	120.3
1544.174	120.42
1547.41	120.35
1550.646	119.87
1553.882	120.09
1557.117	119.18
1560.352	118.81
1563.587	118
1566.821	117.8
1570.055	116.55
1573.289	116.45
1576.523	116.71
1579.756	115.68
1582.989	116.05
1586.222	115.8
1589.454	114.78
1592.686	115.12
1595.918	114.26
1599.15	114.14
1602.381	114.34
1605.612	114.73
1608.843	114.44
1612.073	114.92
1615.303	115.27
1618.533	114.47
1621.762	114.83
1624.992	115.29
1628.221	115.27
1631.449	115.9
1634.678	115.02
1637.906	115.26
1641.134	115.82
1644.361	115.84
1647.588	115.28
1650.815	115.26
1654.042	115.97
1657.269	115.32
1660.495	116
1663.72	115.56
1666.946	115.6
1670.171	116.88
1673.396	117.5
1676.621	116.9
1679.845	117.59
1683.069	117.06
1686.293	117.2
1689.517	117.02
1692.74	117.54
1695.963	117.87
1699.185	118.88
1702.408	118.67
1705.63	118.92
1708.852	118.75
1712.073	119.36
1715.294	118.91
1718.515	119.73
1721.736	119.62
1724.956	120.09
1728.176	119.73
1731.396	120.6
1734.616	120.51
1737.835	120.97
1741.054	120.06
1744.272	120.1
1747.491	119.78
1750.709	120.42
1753.927	120.76
1757.144	121.59
1760.361	121.71
1763.578	122.86
1766.795	122.57
1770.011	122.61
1773.227	123.66
1776.443	124.98
1779.658	125.4
1782.874	126.99
1786.089	127.31
1789.303	127.48
1792.518	128.33
1795.732	129.27
1798.945	130.12
1802.159	130.22
1805.372	132
1808.585	132.75
1811.797	133.74
1815.01	135.1
1818.222	135.48
1821.434	136.54
1824.645	137.92
1827.856	139.78
1831.067	140.14
1834.278	140.77
1837.488	142.14
1840.698	143.64
1843.908	143.66
1847.117	145.13
1850.326	145.81
1853.535	145.64
1856.744	147.36
1859.952	149.07
1863.16	149.18
1866.368	149.13
1869.575	150.15
1872.782	150
1875.989	148.58
1879.196	147.68
1882.402	146.83
1885.608	147.62
1888.814	148.05
1892.019	148.85
1895.224	146.02
1898.429	146.24
1901.634	147.64
1904.838	147.96
1908.042	147.78
1911.246	148.17
1914.449	149.51
1917.652	148.74
1920.855	148.23
1924.058	147.75
1927.26	146.6
1930.462	147.4
1933.664	147.12
1936.865	146.73
1940.066	144.5
1943.267	144.55
1946.467	145.92
1949.668	145.55
1952.868	146.46
1956.067	146.5
1959.267	147.52
1962.466	148.34
1965.665	150.19
1968.863	151.41
1972.061	151.76
1975.259	156.07
1978.457	156.59
1981.654	157.4
1984.852	158.74
1988.048	160.59
1991.245	162.97
1994.441	165.77
1997.637	169.27
2000.833	172.61
2004.028	172.74
2007.223	179.74
2010.418	182.09
2013.613	190.43
2016.807	195.13
2020.001	199.72
2023.194	204.79
2026.388	211.94
2029.581	222.1
2032.774	229.03
2035.966	235.44
2039.158	244.32
2042.35	247.03
2045.542	252.46
2048.733	262.61
2051.924	265.51
2055.115	269.97
2058.306	273.17
2061.496	278.8
2064.686	279.3
2067.875	276.6
2071.065	279.08
2074.254	280.83
2077.442	288.6
2080.631	290.5
2083.819	291.56
2087.007	297.6
2090.195	300.1
2093.382	301.44
2096.569	300.75
2099.756	306.7
2102.942	313.41
2106.128	319.99
2109.314	320.7
2112.5	320.52
2115.685	320.74
2118.87	320.99
2122.055	321.85
2125.239	331.54
2128.424	338.66
2131.608	334.35
2134.791	334.26
2137.974	334.99
2141.157	337.53
2144.34	340.69
2147.523	345.48
2150.705	352.4
2153.887	349.81
2157.068	352.64
2160.25	356.61
2163.431	354.5
2166.611	360.43
2169.792	368.7
2172.972	374.22
2176.152	372.17
2179.331	382
2182.511	381.82
2185.69	386.88
2188.868	401.71
2192.047	409.6
2195.225	413.41
2198.403	420.97
2201.58	420.44
2204.758	432.02
2207.935	435.87
2211.111	446.75
2214.288	447.03
2217.464	452.39
2220.64	455.09
2223.815	455.71
2226.991	451.99
2230.166	457.08
2233.34	468.28
2236.515	480.34
2239.689	471.13
2242.863	478.52
2246.036	474.24
2249.209	487.24
2252.382	485.15
2255.555	502.31
2258.727	505.48
2261.9	524.8
2265.071	529.89
2268.243	522.37
2271.414	537.74
2274.585	549.86
2277.756	550.47
2280.926	574.96
2284.096	570.91
2287.266	577.22
2290.436	567.49
2293.605	577.09
2296.774	593.24
2299.942	593.62
2303.111	619.01
2306.279	628
2309.447	626.4
2312.614	630.91
2315.781	642.15
2318.948	652.99
2322.115	664.39
2325.281	698.83
2328.447	696.53
2331.613	695.36
2334.779	705.89
2337.944	713.67
2341.109	731.3
2344.274	740.67
2347.438	758.19
2350.602	771.76
2353.766	814.07
2356.929	820.18
2360.092	828.81
2363.255	835.19
2366.418	849.57
2369.58	867.04
2372.742	862.48
2375.904	856.57
2379.066	881.92
2382.227	935.15
2385.388	934.9
2388.548	892.27
2391.709	884.6
2394.869	910.95
2398.029	907.8
2401.188	910.42
2404.347	943.07
2407.506	979.57
2410.665	938.61
2413.823	945.53
2416.981	943.61
2420.139	887.12
2423.296	960.12
2426.453	1016.51
2429.61	978.62
2432.767	1050
2435.923	1083.35
2439.079	1032.69
2442.235	1054.99
2445.391	1083.38
2448.546	1072.05
2451.701	1135.68
2454.855	1222.47
2458.009	1074.26
2461.163	1101.16
2464.317	1098.03
2467.471	1079.01
2470.624	1109.16
2473.777	1095.81
2476.929	1062.82
2480.082	1134.59
2483.234	1188.26
2486.385	1212.02
2489.537	1237.11
2492.688	1369.04
2495.839	1332.28
2498.989	1378.73
2502.14	1382.33
2505.29	1328.42
2508.439	1472.58
2511.589	1513.77
2514.738	1466.93
2517.887	1456.73
2521.035	1345.11
2524.183	1332.47
2527.331	1321.88
2530.479	1296.75
2533.627	1324.08
