Data from N_2_div_il_4n_081_Splice17_18.txt Node
Date: Sat Feb 29 14:12:49 EST 2020
User: sa697716
Spectrometer: FLMS03696
Trigger mode: 0
Integration Time (sec): 3.180400E-1
Scans to average: 20
Electric dark correction enabled: true
Nonlinearity correction enabled: true
Boxcar width: 5
XAxis mode: Wavelengths
Number of Pixels in Spectrum: 2048
>>>>>Begin Spectral Data<<<<<
187.83	75.92
188.298	64.63
188.766	57.65
189.233	54.43
189.701	76.34
190.169	77.14
190.636	65.93
191.104	28.17
191.571	-112.88
192.039	116.57
192.506	-404.98
192.974	-340.61
193.441	682.34
193.908	-7.38
194.375	-99.59
194.842	122.91
195.31	92.34
195.777	111.3
196.244	45.8
196.711	40.65
197.177	38.9
197.644	40.02
198.111	40.03
198.578	40.5
199.045	40.37
199.511	40.39
199.978	40.53
200.445	40.28
200.911	40.36
201.378	40.77
201.844	41.75
202.31	42.36
202.777	42.46
203.243	42.67
203.709	42.63
204.176	42.35
204.642	42.57
205.108	42.05
205.574	42.41
206.04	42.22
206.506	41.97
206.972	41.17
207.438	40.97
207.903	40.91
208.369	40.44
208.835	40.36
209.301	40.46
209.766	39.99
210.232	39.7
210.697	39.27
211.163	38.97
211.628	38.41
212.094	38.22
212.559	37.29
213.024	36.62
213.49	35.97
213.955	35.48
214.42	34.57
214.885	33.84
215.35	32.98
215.815	31.36
216.28	30.02
216.745	28.62
217.21	26.99
217.675	25.5
218.14	23.92
218.604	22.51
219.069	21.33
219.534	20.23
219.998	19.29
220.463	18.57
220.927	17.99
221.392	17.33
221.856	16.84
222.32	16.42
222.785	16.08
223.249	15.75
223.713	15.48
224.177	15.13
224.642	14.92
225.106	14.69
225.57	14.43
226.034	14.23
226.497	14.03
226.961	13.79
227.425	13.55
227.889	13.35
228.353	13.16
228.816	12.98
229.28	12.78
229.744	12.6
230.207	12.44
230.671	12.27
231.134	12.11
231.597	11.93
232.061	11.79
232.524	11.64
232.987	11.49
233.45	11.32
233.914	11.17
234.377	11.06
234.84	10.93
235.303	10.8
235.766	10.66
236.229	10.53
236.691	10.44
237.154	10.33
237.617	10.23
238.08	10.12
238.542	10.03
239.005	9.95
239.468	9.84
239.93	9.75
240.393	9.67
240.855	9.58
241.317	9.5
241.78	9.41
242.242	9.31
242.704	9.22
243.166	9.14
243.629	9.06
244.091	8.96
244.553	8.9
245.015	8.82
245.477	8.73
245.939	8.66
246.4	8.57
246.862	8.5
247.324	8.45
247.786	8.39
248.247	8.32
248.709	8.26
249.17	8.22
249.632	8.15
250.093	8.08
250.555	8.02
251.016	7.97
251.477	7.91
251.939	7.86
252.4	7.79
252.861	7.74
253.322	7.68
253.783	7.64
254.244	7.57
254.705	7.52
255.166	7.48
255.627	7.43
256.088	7.38
256.549	7.34
257.009	7.29
257.47	7.25
257.931	7.19
258.391	7.14
258.852	7.08
259.312	7.04
259.773	7
260.233	6.95
260.694	6.91
261.154	6.87
261.614	6.83
262.074	6.79
262.534	6.74
262.994	6.71
263.455	6.68
263.915	6.64
264.374	6.6
264.834	6.56
265.294	6.52
265.754	6.48
266.214	6.44
266.673	6.41
267.133	6.37
267.593	6.35
268.052	6.32
268.512	6.29
268.971	6.27
269.431	6.25
269.89	6.23
270.349	6.22
270.809	6.19
271.268	6.18
271.727	6.16
272.186	6.14
272.645	6.12
273.104	6.1
273.563	6.07
274.022	6.06
274.481	6.03
274.94	6.01
275.399	5.98
275.857	5.96
276.316	5.94
276.775	5.91
277.233	5.89
277.692	5.87
278.15	5.85
278.609	5.82
279.067	5.79
279.525	5.77
279.984	5.75
280.442	5.73
280.9	5.72
281.358	5.69
281.816	5.68
282.274	5.66
282.732	5.65
283.19	5.64
283.648	5.62
284.106	5.61
284.564	5.59
285.021	5.58
285.479	5.58
285.937	5.56
286.394	5.56
286.852	5.55
287.309	5.53
287.767	5.51
288.224	5.49
288.682	5.47
289.139	5.47
289.596	5.45
290.053	5.42
290.511	5.4
290.968	5.38
291.425	5.34
291.882	5.31
292.339	5.29
292.796	5.27
293.252	5.25
293.709	5.23
294.166	5.21
294.623	5.19
295.079	5.18
295.536	5.16
295.992	5.14
296.449	5.13
296.905	5.1
297.362	5.08
297.818	5.07
298.274	5.05
298.731	5.04
299.187	5.02
299.643	5
300.099	4.99
300.555	4.97
301.011	4.97
301.467	4.95
301.923	4.96
302.379	4.95
302.835	4.94
303.291	4.93
303.746	4.92
304.202	4.91
304.658	4.9
305.113	4.89
305.569	4.88
306.024	4.87
306.479	4.87
306.935	4.85
307.39	4.84
307.845	4.84
308.301	4.83
308.756	4.84
309.211	4.84
309.666	4.84
310.121	4.83
310.576	4.83
311.031	4.81
311.486	4.81
311.94	4.8
312.395	4.79
312.85	4.78
313.305	4.78
313.759	4.77
314.214	4.76
314.668	4.76
315.123	4.76
315.577	4.76
316.032	4.76
316.486	4.75
316.94	4.74
317.394	4.73
317.849	4.72
318.303	4.71
318.757	4.69
319.211	4.67
319.665	4.65
320.119	4.64
320.572	4.63
321.026	4.61
321.48	4.6
321.934	4.59
322.387	4.57
322.841	4.56
323.295	4.55
323.748	4.54
324.202	4.54
324.655	4.53
325.108	4.52
325.562	4.5
326.015	4.49
326.468	4.47
326.921	4.47
327.374	4.46
327.827	4.45
328.28	4.44
328.733	4.42
329.186	4.42
329.639	4.41
330.092	4.41
330.545	4.42
330.997	4.42
331.45	4.41
331.903	4.41
332.355	4.43
332.808	4.43
333.26	4.44
333.713	4.45
334.165	4.45
334.617	4.45
335.069	4.44
335.522	4.45
335.974	4.46
336.426	4.46
336.878	4.47
337.33	4.46
337.782	4.46
338.234	4.46
338.686	4.46
339.137	4.47
339.589	4.45
340.041	4.45
340.493	4.44
340.944	4.42
341.396	4.42
341.847	4.39
342.299	4.36
342.75	4.33
343.201	4.31
343.653	4.29
344.104	4.27
344.555	4.26
345.006	4.25
345.457	4.23
345.908	4.22
346.359	4.21
346.81	4.21
347.261	4.22
347.712	4.23
348.163	4.22
348.613	4.21
349.064	4.19
349.515	4.18
349.965	4.17
350.416	4.17
350.866	4.17
351.317	4.15
351.767	4.15
352.217	4.14
352.668	4.13
353.118	4.14
353.568	4.14
354.018	4.16
354.468	4.16
354.918	4.18
355.368	4.19
355.818	4.18
356.268	4.19
356.718	4.19
357.168	4.19
357.617	4.19
358.067	4.19
358.517	4.19
358.966	4.19
359.416	4.2
359.865	4.19
360.315	4.17
360.764	4.17
361.213	4.15
361.663	4.15
362.112	4.15
362.561	4.15
363.01	4.15
363.459	4.15
363.908	4.14
364.357	4.14
364.806	4.14
365.255	4.15
365.703	4.16
366.152	4.17
366.601	4.17
367.05	4.16
367.498	4.16
367.947	4.16
368.395	4.16
368.844	4.17
369.292	4.17
369.74	4.17
370.189	4.17
370.637	4.17
371.085	4.16
371.533	4.17
371.981	4.18
372.429	4.17
372.877	4.17
373.325	4.18
373.773	4.17
374.221	4.16
374.669	4.16
375.116	4.15
375.564	4.15
376.012	4.15
376.459	4.15
376.907	4.16
377.354	4.17
377.801	4.18
378.249	4.19
378.696	4.19
379.143	4.2
379.591	4.21
380.038	4.23
380.485	4.24
380.932	4.25
381.379	4.24
381.826	4.24
382.273	4.25
382.72	4.26
383.166	4.27
383.613	4.28
384.06	4.28
384.506	4.28
384.953	4.28
385.4	4.3
385.846	4.3
386.292	4.32
386.739	4.33
387.185	4.34
387.631	4.35
388.078	4.36
388.524	4.36
388.97	4.37
389.416	4.39
389.862	4.41
390.308	4.41
390.754	4.43
391.2	4.45
391.645	4.48
392.091	4.49
392.537	4.51
392.983	4.53
393.428	4.57
393.874	4.6
394.319	4.63
394.765	4.65
395.21	4.67
395.655	4.69
396.101	4.72
396.546	4.72
396.991	4.75
397.436	4.75
397.881	4.77
398.326	4.8
398.771	4.83
399.216	4.86
399.661	4.88
400.106	4.91
400.551	4.92
400.995	4.93
401.44	4.94
401.885	4.94
402.329	4.97
402.774	4.99
403.218	4.99
403.663	4.98
404.107	5
404.551	5.02
404.995	5.03
405.44	5.06
405.884	5.08
406.328	5.1
406.772	5.14
407.216	5.16
407.66	5.16
408.104	5.19
408.547	5.21
408.991	5.22
409.435	5.23
409.879	5.25
410.322	5.26
410.766	5.28
411.209	5.31
411.653	5.31
412.096	5.31
412.54	5.35
412.983	5.35
413.426	5.38
413.869	5.4
414.312	5.43
414.756	5.46
415.199	5.47
415.642	5.5
416.085	5.53
416.527	5.56
416.97	5.58
417.413	5.57
417.856	5.57
418.298	5.56
418.741	5.56
419.184	5.57
419.626	5.57
420.069	5.59
420.511	5.58
420.953	5.57
421.396	5.57
421.838	5.59
422.28	5.64
422.722	5.68
423.164	5.71
423.606	5.73
424.048	5.72
424.49	5.74
424.932	5.74
425.374	5.75
425.816	5.74
426.258	5.73
426.699	5.72
427.141	5.67
427.582	5.67
428.024	5.68
428.465	5.69
428.907	5.71
429.348	5.7
429.789	5.7
430.231	5.7
430.672	5.73
431.113	5.75
431.554	5.76
431.995	5.79
432.436	5.79
432.877	5.77
433.318	5.78
433.759	5.79
434.2	5.8
434.64	5.81
435.081	5.83
435.522	5.85
435.962	5.87
436.403	5.91
436.843	5.92
437.284	5.94
437.724	5.97
438.164	5.98
438.604	5.99
439.045	6.01
439.485	6.02
439.925	6.04
440.365	6.03
440.805	6.03
441.245	6.01
441.685	6.03
442.125	6.05
442.564	6.06
443.004	6.06
443.444	6.07
443.883	6.09
444.323	6.09
444.762	6.12
445.202	6.16
445.641	6.18
446.081	6.22
446.52	6.22
446.959	6.24
447.398	6.28
447.837	6.34
448.276	6.35
448.716	6.39
449.154	6.42
449.593	6.43
450.032	6.45
450.471	6.47
450.91	6.47
451.349	6.49
451.787	6.51
452.226	6.49
452.664	6.48
453.103	6.46
453.541	6.45
453.98	6.45
454.418	6.42
454.856	6.37
455.295	6.34
455.733	6.33
456.171	6.32
456.609	6.29
457.047	6.27
457.485	6.25
457.923	6.24
458.361	6.23
458.798	6.22
459.236	6.25
459.674	6.27
460.111	6.27
460.549	6.26
460.987	6.25
461.424	6.25
461.862	6.27
462.299	6.27
462.736	6.28
463.173	6.29
463.611	6.29
464.048	6.28
464.485	6.29
464.922	6.29
465.359	6.3
465.796	6.29
466.233	6.3
466.67	6.32
467.106	6.32
467.543	6.31
467.98	6.31
468.416	6.32
468.853	6.33
469.29	6.34
469.726	6.34
470.162	6.35
470.599	6.36
471.035	6.36
471.471	6.35
471.907	6.36
472.344	6.36
472.78	6.35
473.216	6.33
473.652	6.31
474.088	6.31
474.523	6.3
474.959	6.28
475.395	6.27
475.831	6.27
476.266	6.27
476.702	6.25
477.138	6.23
477.573	6.23
478.008	6.22
478.444	6.21
478.879	6.2
479.314	6.19
479.75	6.19
480.185	6.18
480.62	6.17
481.055	6.16
481.49	6.13
481.925	6.13
482.36	6.12
482.795	6.11
483.229	6.11
483.664	6.09
484.099	6.1
484.534	6.08
484.968	6.08
485.403	6.06
485.837	6.07
486.271	6.07
486.706	6.07
487.14	6.09
487.574	6.09
488.009	6.1
488.443	6.1
488.877	6.11
489.311	6.12
489.745	6.14
490.179	6.17
490.613	6.18
491.046	6.21
491.48	6.23
491.914	6.25
492.348	6.27
492.781	6.3
493.215	6.33
493.648	6.35
494.082	6.39
494.515	6.42
494.948	6.45
495.382	6.5
495.815	6.53
496.248	6.58
496.681	6.63
497.114	6.68
497.547	6.75
497.98	6.81
498.413	6.88
498.846	6.95
499.279	7.02
499.711	7.1
500.144	7.17
500.577	7.26
501.009	7.33
501.442	7.43
501.874	7.52
502.306	7.62
502.739	7.72
503.171	7.83
503.603	7.94
504.036	8.06
504.468	8.19
504.9	8.33
505.332	8.46
505.764	8.63
506.196	8.78
506.627	8.94
507.059	9.1
507.491	9.28
507.923	9.46
508.354	9.64
508.786	9.84
509.217	10.03
509.649	10.25
510.08	10.49
510.512	10.69
510.943	10.93
511.374	11.17
511.805	11.41
512.237	11.68
512.668	11.93
513.099	12.22
513.53	12.5
513.961	12.81
514.391	13.08
514.822	13.36
515.253	13.67
515.684	13.98
516.114	14.3
516.545	14.64
516.975	14.97
517.406	15.29
517.836	15.6
518.267	15.94
518.697	16.26
519.127	16.6
519.558	16.94
519.988	17.26
520.418	17.58
520.848	17.89
521.278	18.2
521.708	18.47
522.138	18.77
522.567	19.05
522.997	19.34
523.427	19.64
523.857	19.9
524.286	20.17
524.716	20.45
525.145	20.72
525.575	21
526.004	21.25
526.433	21.53
526.863	21.79
527.292	22.04
527.721	22.28
528.15	22.48
528.579	22.71
529.008	22.91
529.437	23.1
529.866	23.29
530.295	23.44
530.724	23.63
531.152	23.8
531.581	23.95
532.01	24.07
532.438	24.19
532.867	24.34
533.295	24.44
533.723	24.58
534.152	24.68
534.58	24.78
535.008	24.87
535.436	24.94
535.865	25.01
536.293	25.09
536.721	25.18
537.149	25.26
537.576	25.3
538.004	25.36
538.432	25.38
538.86	25.43
539.287	25.49
539.715	25.55
540.143	25.59
540.57	25.64
540.998	25.68
541.425	25.72
541.852	25.74
542.28	25.78
542.707	25.84
543.134	25.88
543.561	25.92
543.988	25.96
544.415	25.98
544.842	26.01
545.269	26.03
545.696	26.06
546.123	26.09
546.549	26.13
546.976	26.17
547.403	26.19
547.829	26.22
548.256	26.26
548.682	26.27
549.108	26.29
549.535	26.31
549.961	26.34
550.387	26.35
550.813	26.35
551.24	26.35
551.666	26.35
552.092	26.34
552.518	26.31
552.943	26.3
553.369	26.28
553.795	26.25
554.221	26.24
554.646	26.2
555.072	26.16
555.498	26.1
555.923	26.05
556.349	25.96
556.774	25.89
557.199	25.82
557.625	25.73
558.05	25.65
558.475	25.58
558.9	25.47
559.325	25.36
559.75	25.23
560.175	25.15
560.6	25.02
561.025	24.91
561.449	24.79
561.874	24.67
562.299	24.51
562.723	24.36
563.148	24.2
563.572	24.05
563.997	23.89
564.421	23.75
564.846	23.56
565.27	23.38
565.694	23.2
566.118	23.02
566.542	22.85
566.966	22.67
567.39	22.47
567.814	22.28
568.238	22.06
568.662	21.86
569.086	21.65
569.509	21.46
569.933	21.24
570.357	21.03
570.78	20.83
571.204	20.63
571.627	20.43
572.05	20.26
572.474	20.09
572.897	19.93
573.32	19.76
573.743	19.58
574.166	19.42
574.589	19.29
575.012	19.16
575.435	19.02
575.858	18.89
576.281	18.77
576.704	18.63
577.126	18.5
577.549	18.4
577.972	18.28
578.394	18.18
578.817	18.07
579.239	17.97
579.661	17.87
580.084	17.77
580.506	17.67
580.928	17.55
581.35	17.47
581.772	17.38
582.194	17.29
582.616	17.2
583.038	17.13
583.46	17.06
583.882	16.98
584.303	16.89
584.725	16.82
585.147	16.74
585.568	16.66
585.99	16.58
586.411	16.5
586.833	16.43
587.254	16.37
587.675	16.28
588.096	16.21
588.518	16.14
588.939	16.08
589.36	16.02
589.781	15.97
590.202	15.93
590.623	15.87
591.043	15.84
591.464	15.79
591.885	15.75
592.305	15.72
592.726	15.69
593.147	15.68
593.567	15.63
593.987	15.62
594.408	15.59
594.828	15.56
595.248	15.54
595.669	15.51
596.089	15.48
596.509	15.45
596.929	15.39
597.349	15.35
597.769	15.27
598.189	15.24
598.608	15.17
599.028	15.13
599.448	15.09
599.867	15.05
600.287	14.98
600.706	14.93
601.126	14.87
601.545	14.82
601.965	14.78
602.384	14.75
602.803	14.69
603.222	14.62
603.641	14.56
604.061	14.48
604.48	14.4
604.898	14.34
605.317	14.28
605.736	14.2
606.155	14.14
606.574	14.04
606.992	13.94
607.411	13.86
607.829	13.74
608.248	13.66
608.666	13.58
609.085	13.48
609.503	13.38
609.921	13.3
610.339	13.21
610.758	13.12
611.176	13.04
611.594	12.95
612.012	12.88
612.43	12.86
612.847	12.77
613.265	12.7
613.683	12.62
614.101	12.55
614.518	12.47
614.936	12.4
615.353	12.33
615.771	12.26
616.188	12.21
616.606	12.14
617.023	12.07
617.44	12.01
617.857	11.96
618.274	11.91
618.691	11.88
619.108	11.83
619.525	11.78
619.942	11.74
620.359	11.7
620.776	11.65
621.192	11.62
621.609	11.58
622.026	11.55
622.442	11.52
622.859	11.49
623.275	11.48
623.691	11.46
624.108	11.46
624.524	11.44
624.94	11.42
625.356	11.41
625.772	11.4
626.188	11.4
626.604	11.37
627.02	11.37
627.436	11.36
627.852	11.33
628.268	11.31
628.683	11.29
629.099	11.27
629.514	11.25
629.93	11.22
630.345	11.18
630.761	11.15
631.176	11.13
631.591	11.1
632.007	11.04
632.422	11.02
632.837	10.99
633.252	10.93
633.667	10.87
634.082	10.8
634.497	10.74
634.911	10.68
635.326	10.59
635.741	10.5
636.155	10.41
636.57	10.33
636.984	10.21
637.399	10.1
637.813	9.99
638.228	9.91
638.642	9.81
639.056	9.7
639.47	9.6
639.884	9.5
640.298	9.39
640.712	9.29
641.126	9.17
641.54	9.08
641.954	8.99
642.368	8.9
642.781	8.8
643.195	8.69
643.609	8.6
644.022	8.51
644.436	8.43
644.849	8.34
645.262	8.28
645.676	8.21
646.089	8.12
646.502	8.05
646.915	7.98
647.328	7.92
647.741	7.88
648.154	7.84
648.567	7.79
648.98	7.74
649.393	7.71
649.805	7.65
650.218	7.62
650.631	7.59
651.043	7.57
651.456	7.53
651.868	7.5
652.28	7.46
652.693	7.41
653.105	7.37
653.517	7.33
653.929	7.29
654.341	7.26
654.753	7.23
655.165	7.19
655.577	7.13
655.989	7.08
656.401	7.02
656.813	6.96
657.224	6.9
657.636	6.87
658.047	6.8
658.459	6.75
658.87	6.69
659.282	6.64
659.693	6.57
660.104	6.52
660.515	6.48
660.926	6.44
661.338	6.4
661.749	6.36
662.159	6.29
662.57	6.25
662.981	6.2
663.392	6.15
663.803	6.11
664.213	6.08
664.624	6.04
665.035	6
665.445	5.96
665.855	5.95
666.266	5.93
666.676	5.92
667.086	5.91
667.497	5.9
667.907	5.88
668.317	5.87
668.727	5.85
669.137	5.86
669.547	5.87
669.956	5.87
670.366	5.88
670.776	5.87
671.186	5.88
671.595	5.9
672.005	5.91
672.414	5.94
672.824	5.96
673.233	5.99
673.642	6
674.052	6.02
674.461	6.03
674.87	6.04
675.279	6.08
675.688	6.09
676.097	6.12
676.506	6.16
676.915	6.18
677.323	6.22
677.732	6.24
678.141	6.28
678.549	6.32
678.958	6.38
679.366	6.41
679.775	6.45
680.183	6.52
680.592	6.56
681	6.6
681.408	6.67
681.816	6.73
682.224	6.82
682.632	6.91
683.04	7
683.448	7.1
683.856	7.23
684.264	7.37
684.671	7.51
685.079	7.67
685.487	7.86
685.894	8.06
686.302	8.28
686.709	8.51
687.116	8.78
687.524	9.07
687.931	9.39
688.338	9.73
688.745	10.1
689.152	10.5
689.559	10.92
689.966	11.38
690.373	11.86
690.78	12.38
691.187	12.93
691.593	13.47
692	14.04
692.407	14.64
692.813	15.26
693.22	15.9
693.626	16.54
694.032	17.22
694.439	17.92
694.845	18.62
695.251	19.32
695.657	20.02
696.063	20.72
696.469	21.44
696.875	22.16
697.281	22.88
697.687	23.61
698.093	24.35
698.498	25.05
698.904	25.75
699.31	26.44
699.715	27.15
700.12	27.86
700.526	28.56
700.931	29.26
701.337	29.94
701.742	30.61
702.147	31.27
702.552	31.91
702.957	32.59
703.362	33.24
703.767	33.88
704.172	34.51
704.577	35.13
704.981	35.76
705.386	36.37
705.791	36.98
706.195	37.59
706.6	38.18
707.004	38.76
707.408	39.31
707.813	39.85
708.217	40.42
708.621	40.97
709.025	41.53
709.43	42.07
709.834	42.62
710.237	43.13
710.641	43.66
711.045	44.18
711.449	44.68
711.853	45.2
712.256	45.74
712.66	46.22
713.064	46.69
713.467	47.15
713.87	47.6
714.274	48.07
714.677	48.53
715.08	48.96
715.484	49.45
715.887	49.9
716.29	50.32
716.693	50.74
717.096	51.18
717.499	51.61
717.901	52.01
718.304	52.4
718.707	52.77
719.109	53.19
719.512	53.58
719.915	53.89
720.317	54.27
720.719	54.62
721.122	54.96
721.524	55.28
721.926	55.62
722.328	55.96
722.731	56.31
723.133	56.62
723.535	56.93
723.937	57.22
724.338	57.49
724.74	57.73
725.142	57.93
725.544	58.18
725.945	58.41
726.347	58.65
726.748	58.89
727.15	59.11
727.551	59.35
727.952	59.54
728.354	59.75
728.755	59.95
729.156	60.19
729.557	60.43
729.958	60.62
730.359	60.8
730.76	60.95
731.161	61.1
731.562	61.23
731.962	61.35
732.363	61.45
732.763	61.61
733.164	61.73
733.564	61.86
733.965	61.97
734.365	62.08
734.766	62.2
735.166	62.3
735.566	62.38
735.966	62.47
736.366	62.55
736.766	62.67
737.166	62.75
737.566	62.87
737.966	62.94
738.365	63.06
738.765	63.14
739.165	63.21
739.564	63.27
739.964	63.34
740.363	63.4
740.763	63.48
741.162	63.52
741.561	63.57
741.96	63.6
742.36	63.65
742.759	63.7
743.158	63.72
743.557	63.78
743.955	63.9
744.354	63.97
744.753	64.04
745.152	64.1
745.55	64.17
745.949	64.2
746.348	64.27
746.746	64.31
747.144	64.35
747.543	64.4
747.941	64.46
748.339	64.5
748.737	64.57
749.136	64.59
749.534	64.66
749.932	64.7
750.33	64.73
750.727	64.77
751.125	64.82
751.523	64.81
751.921	64.81
752.318	64.82
752.716	64.8
753.113	64.78
753.511	64.74
753.908	64.7
754.305	64.67
754.703	64.66
755.1	64.64
755.497	64.59
755.894	64.64
756.291	64.66
756.688	64.64
757.085	64.62
757.482	64.61
757.878	64.67
758.275	64.67
758.672	64.69
759.068	64.75
759.465	64.74
759.861	64.72
760.258	64.68
760.654	64.62
761.05	64.61
761.447	64.61
761.843	64.58
762.239	64.55
762.635	64.53
763.031	64.51
763.427	64.43
763.822	64.42
764.218	64.43
764.614	64.44
765.01	64.47
765.405	64.49
765.801	64.45
766.196	64.44
766.592	64.46
766.987	64.46
767.382	64.45
767.778	64.49
768.173	64.47
768.568	64.46
768.963	64.41
769.358	64.39
769.753	64.37
770.148	64.41
770.542	64.42
770.937	64.44
771.332	64.42
771.726	64.41
772.121	64.37
772.515	64.37
772.91	64.38
773.304	64.4
773.699	64.4
774.093	64.38
774.487	64.38
774.881	64.38
775.275	64.39
775.669	64.4
776.063	64.38
776.457	64.35
776.851	64.33
777.245	64.35
777.638	64.36
778.032	64.35
778.425	64.37
778.819	64.37
779.212	64.36
779.606	64.34
779.999	64.35
780.392	64.4
780.786	64.43
781.179	64.5
781.572	64.49
781.965	64.51
782.358	64.51
782.751	64.5
783.143	64.52
783.536	64.57
783.929	64.59
784.322	64.58
784.714	64.59
785.107	64.62
785.499	64.63
785.891	64.66
786.284	64.66
786.676	64.71
787.068	64.73
787.46	64.7
787.852	64.7
788.245	64.71
788.636	64.71
789.028	64.7
789.42	64.69
789.812	64.7
790.204	64.65
790.595	64.68
790.987	64.66
791.378	64.67
791.77	64.68
792.161	64.68
792.553	64.69
792.944	64.75
793.335	64.74
793.726	64.71
794.117	64.65
794.508	64.7
794.899	64.66
795.29	64.67
795.681	64.67
796.072	64.7
796.463	64.71
796.853	64.69
797.244	64.63
797.634	64.65
798.025	64.67
798.415	64.71
798.806	64.73
799.196	64.76
799.586	64.76
799.976	64.77
800.366	64.77
800.756	64.79
801.146	64.81
801.536	64.83
801.926	64.81
802.316	64.88
802.706	64.91
803.095	64.88
803.485	64.95
803.874	64.98
804.264	65.03
804.653	65.02
805.043	64.97
805.432	64.95
805.821	64.96
806.21	65.02
806.599	65.03
806.988	65.04
807.377	65.05
807.766	65.02
808.155	65.07
808.544	65
808.933	64.99
809.321	65.05
809.71	65.13
810.098	65.14
810.487	65.16
810.875	65.09
811.264	65.12
811.652	65.15
812.04	65.17
812.428	65.13
812.816	65.18
813.204	65.21
813.592	65.22
813.98	65.19
814.368	65.18
814.756	65.15
815.144	65.21
815.531	65.21
815.919	65.19
816.306	65.17
816.694	65.2
817.081	65.16
817.469	65.19
817.856	65.22
818.243	65.24
818.63	65.28
819.017	65.32
819.404	65.33
819.791	65.33
820.178	65.33
820.565	65.34
820.952	65.35
821.339	65.41
821.725	65.39
822.112	65.4
822.498	65.41
822.885	65.41
823.271	65.44
823.657	65.43
824.044	65.41
824.43	65.45
824.816	65.47
825.202	65.45
825.588	65.46
825.974	65.45
826.36	65.42
826.746	65.43
827.132	65.41
827.517	65.39
827.903	65.37
828.289	65.4
828.674	65.36
829.06	65.39
829.445	65.43
829.83	65.39
830.216	65.42
830.601	65.45
830.986	65.43
831.371	65.47
831.756	65.44
832.141	65.46
832.526	65.48
832.911	65.48
833.295	65.44
833.68	65.43
834.065	65.45
834.449	65.41
834.834	65.37
835.218	65.34
835.603	65.31
835.987	65.32
836.371	65.31
836.755	65.29
837.139	65.27
837.524	65.29
837.908	65.28
838.291	65.27
838.675	65.3
839.059	65.28
839.443	65.27
839.827	65.29
840.21	65.29
840.594	65.29
840.977	65.24
841.361	65.24
841.744	65.21
842.127	65.17
842.511	65.16
842.894	65.12
843.277	65.14
843.66	65.17
844.043	65.15
844.426	65.12
844.809	65.1
845.191	65.1
845.574	65.08
845.957	65.1
846.339	65.11
846.722	65.11
847.104	65.13
847.487	65.15
847.869	65.15
848.252	65.14
848.634	65.15
849.016	65.16
849.398	65.17
849.78	65.18
850.162	65.16
850.544	65.18
850.926	65.13
851.307	65.14
851.689	65.09
852.071	65.08
852.452	65.07
852.834	65.07
853.215	65.05
853.597	65.04
853.978	65.02
854.359	64.98
854.741	64.98
855.122	65.04
855.503	65.02
855.884	65.01
856.265	65.01
856.646	65
857.026	64.98
857.407	64.96
857.788	65
858.169	65.02
858.549	65.08
858.93	65.07
859.31	65.05
859.69	65.06
860.071	65.09
860.451	65.1
860.831	65.12
861.211	65.12
861.591	65.16
861.971	65.12
862.351	65.14
862.731	65.12
863.111	65.12
863.491	65.13
863.87	65.11
864.25	65.11
864.629	65.1
865.009	65.13
865.388	65.14
865.768	65.13
866.147	65.19
866.526	65.17
866.905	65.17
867.284	65.18
867.663	65.17
868.042	65.17
868.421	65.19
868.8	65.19
869.179	65.17
869.558	65.19
869.936	65.16
870.315	65.13
870.693	65.14
871.072	65.14
871.45	65.12
871.828	65.1
872.207	65.14
872.585	65.12
872.963	65.11
873.341	65.08
873.719	65.1
874.097	65.14
874.475	65.16
874.853	65.18
875.23	65.19
875.608	65.22
875.986	65.26
876.363	65.23
876.741	65.28
877.118	65.29
877.495	65.33
877.873	65.32
878.25	65.32
878.627	65.32
879.004	65.29
879.381	65.3
879.758	65.27
880.135	65.31
880.512	65.34
880.889	65.36
881.265	65.39
881.642	65.37
882.019	65.37
882.395	65.38
882.772	65.37
883.148	65.38
883.524	65.42
883.901	65.42
884.277	65.38
884.653	65.37
885.029	65.36
885.405	65.35
885.781	65.36
886.157	65.35
886.532	65.37
886.908	65.41
887.284	65.43
887.659	65.43
888.035	65.43
888.411	65.45
888.786	65.43
889.161	65.42
889.537	65.42
889.912	65.42
890.287	65.41
890.662	65.37
891.037	65.32
891.412	65.27
891.787	65.24
892.162	65.23
892.536	65.21
892.911	65.2
893.286	65.15
893.66	65.12
894.035	65.09
894.409	65.07
894.784	65.04
895.158	65.02
895.532	65.02
895.906	65
896.281	64.96
896.655	64.93
897.029	64.9
897.402	64.93
897.776	64.9
898.15	64.89
898.524	64.88
898.898	64.87
899.271	64.89
899.645	64.87
900.018	64.86
900.392	64.88
900.765	64.88
901.138	64.91
901.511	64.87
901.884	64.93
902.258	64.91
902.631	64.97
903.003	65.01
903.376	64.99
903.749	65.02
904.122	65.07
904.495	65.09
904.867	65.09
905.24	65.09
905.612	65.11
905.985	65.1
906.357	65.1
906.729	65.03
907.102	65.02
907.474	65.06
907.846	65.02
908.218	65.01
908.59	65.02
908.962	65.03
909.334	65.04
909.705	65.09
910.077	65.08
910.449	65.1
910.82	65.13
911.192	65.13
911.563	65.06
911.935	65.06
912.306	65.03
912.677	64.99
913.048	64.97
913.419	64.94
913.79	64.88
914.161	64.9
914.532	64.86
914.903	64.87
915.274	64.87
915.645	64.93
916.015	64.94
916.386	64.92
916.756	64.93
917.127	64.93
917.497	64.91
917.868	64.94
918.238	64.94
918.608	65
918.978	64.98
919.348	64.99
919.718	64.98
920.088	65.01
920.458	65.08
920.828	65.06
921.198	65.1
921.567	65.14
921.937	65.15
922.306	65.14
922.676	65.11
923.045	65.09
923.415	65.11
923.784	65.12
924.153	65.1
924.522	65.04
924.891	65.04
925.26	65
925.629	64.95
925.998	64.93
926.367	64.9
926.736	64.86
927.104	64.9
927.473	64.88
927.842	64.8
928.21	64.81
928.578	64.81
928.947	64.75
929.315	64.75
929.683	64.76
930.051	64.74
930.42	64.77
930.788	64.76
931.156	64.67
931.523	64.61
931.891	64.54
932.259	64.44
932.627	64.35
932.994	64.34
933.362	64.28
933.729	64.18
934.097	64.08
934.464	63.95
934.831	63.83
935.199	63.78
935.566	63.72
935.933	63.73
936.3	63.59
936.667	63.54
937.034	63.45
937.401	63.37
937.767	63.34
938.134	63.37
938.501	63.31
938.867	63.44
939.234	63.47
939.6	63.55
939.967	63.59
940.333	63.79
940.699	63.93
941.065	64.1
941.431	64.25
941.798	64.39
942.163	64.5
942.529	64.66
942.895	64.66
943.261	64.72
943.627	64.87
943.992	65
944.358	65.08
944.723	65.1
945.089	65.17
945.454	65.27
945.82	65.27
946.185	65.37
946.55	65.44
946.915	65.46
947.28	65.49
947.645	65.45
948.01	65.42
948.375	65.37
948.74	65.35
949.104	65.34
949.469	65.25
949.834	65.23
950.198	65.09
950.562	65.04
950.927	65.01
951.291	64.99
951.655	64.92
952.02	64.84
952.384	64.86
952.748	64.91
953.112	64.87
953.476	64.82
953.839	64.8
954.203	64.76
954.567	64.72
954.931	64.65
955.294	64.54
955.658	64.5
956.021	64.49
956.385	64.44
956.748	64.38
957.111	64.31
957.474	64.29
957.837	64.26
958.2	64.15
958.563	64.11
958.926	64.02
959.289	64.07
959.652	64.05
960.015	64.07
960.377	63.98
960.74	63.93
961.102	63.89
961.465	63.88
961.827	63.76
962.189	63.8
962.552	63.7
962.914	63.76
963.276	63.69
963.638	63.63
964	63.51
964.362	63.51
964.724	63.46
965.085	63.43
965.447	63.32
965.809	63.31
966.17	63.33
966.532	63.43
966.893	63.4
967.255	63.34
967.616	63.36
967.977	63.38
968.338	63.4
968.699	63.39
969.061	63.37
969.421	63.39
969.782	63.38
970.143	63.32
970.504	63.25
970.865	63.27
971.225	63.26
971.586	63.29
971.946	63.34
972.307	63.29
972.667	63.35
973.027	63.39
973.388	63.41
973.748	63.49
974.108	63.49
974.468	63.48
974.828	63.44
975.188	63.5
975.548	63.42
975.907	63.37
976.267	63.39
976.627	63.36
976.986	63.35
977.346	63.39
977.705	63.41
978.064	63.42
978.424	63.46
978.783	63.47
979.142	63.31
979.501	63.25
979.86	63.27
980.219	63.19
980.578	63.17
980.937	63.16
981.296	63.12
981.654	63.02
982.013	63.08
982.371	62.96
982.73	63.01
983.088	63.03
983.447	63.2
983.805	63.09
984.163	63.09
984.521	63.01
984.879	63.02
985.237	63.08
985.595	63.1
985.953	63.01
986.311	63.09
986.669	63.04
987.026	63.12
987.384	63
987.741	63.18
988.099	63.25
988.456	63.27
988.814	63.3
989.171	63.15
989.528	63.06
989.885	63.03
990.242	63.12
990.599	63.11
990.956	63.08
991.313	63.19
991.67	63.11
992.027	62.98
992.383	63.02
992.74	62.93
993.096	62.94
993.453	63
993.809	63.12
994.165	63.03
994.522	62.95
994.878	63
995.234	62.87
995.59	62.84
995.946	62.9
996.302	62.86
996.658	63
997.013	63.02
997.369	63
997.725	62.94
998.08	63
998.436	63.12
998.791	63.11
999.147	63.13
999.502	63.01
999.857	63.16
1000.212	63.09
1000.567	63.05
1000.922	63.18
1001.277	63.26
1001.632	63.33
1001.987	63.15
1002.342	63.06
1002.696	63.14
1003.051	62.97
1003.406	63.07
1003.76	63.03
1004.114	63.28
1004.469	63.24
1004.823	63.14
1005.177	63.12
1005.531	62.95
1005.885	63.13
1006.239	63.22
1006.593	63.06
1006.947	63.16
1007.301	63.28
1007.655	63.26
1008.008	63.11
1008.362	63.02
1008.715	62.98
1009.069	62.92
1009.422	62.82
1009.776	62.64
1010.129	62.41
1010.482	62.52
1010.835	62.78
1011.188	62.55
1011.541	62.33
1011.894	62.36
1012.247	62.47
1012.6	62.51
1012.952	62.66
1013.305	62.79
1013.657	62.92
1014.01	63.21
1014.362	63.14
1014.715	62.83
1015.067	62.93
1015.419	63.2
1015.771	63.34
1016.123	63.3
1016.475	63.42
1016.827	63.51
1017.179	63.45
1017.531	63.62
1017.883	63.8
1018.234	63.78
1018.586	63.96
1018.938	63.76
1019.289	63.39
1019.64	63.36
1019.992	63.24
1020.343	63.16
1020.694	62.72
1021.045	62.66
1021.396	62.55
1021.747	62.2
1022.098	62.42
1022.449	62.2
1022.8	62.11
1023.151	62.25
1023.501	62.11
1023.852	62.07
1024.202	61.73
1024.553	61.73
1024.903	62.03
1025.253	61.75
1025.604	61.47
1025.954	61.07
1026.304	61.53
1026.654	61.72
1027.004	61.61
1027.354	61.49
1027.703	61.48
1028.053	61.38
1028.403	61.63
1028.753	61.49
1029.102	61.23
1029.452	61.17
1029.801	60.91
1030.15	60.5
1030.499	60.39
897.758	430.08
901.051	434.24
904.343	437.84
907.636	428.37
910.928	421.02
914.22	427.25
917.511	417.49
920.803	402.02
924.094	386.06
927.384	390.88
930.675	379.55
933.965	373.79
937.255	375.62
940.544	359.22
943.834	346.71
947.123	342.32
950.411	325.56
953.7	321.16
956.988	313.56
960.276	298.81
963.563	297.4
966.851	282.53
970.138	276.99
973.424	259.18
976.711	256.4
979.997	251.01
983.283	245.2
986.568	238.38
989.853	231.54
993.138	224.3
996.423	222.41
999.708	215.12
1002.992	215.15
1006.275	211.56
1009.559	210.19
1012.842	205.26
1016.125	196.7
1019.408	192.9
1022.69	193.94
1025.972	193.18
1029.254	188.07
1032.536	185.85
1035.817	180.63
1039.098	179.12
1042.379	174.79
1045.659	173.09
1048.939	172.29
1052.219	169.55
1055.498	167.83
1058.778	163.9
1062.057	161.21
1065.335	161.27
1068.614	158.49
1071.892	156.22
1075.17	153.33
1078.447	152.77
1081.724	150.7
1085.001	146.52
1088.278	147.8
1091.554	147.95
1094.83	147.39
1098.106	145.39
1101.382	144.56
1104.657	144.73
1107.932	144.79
1111.206	144.19
1114.481	142.72
1117.755	141.86
1121.029	142.63
1124.302	140.39
1127.575	138.28
1130.848	137.19
1134.121	135.6
1137.393	135.47
1140.665	133.68
1143.937	131.95
1147.208	131.28
1150.48	129.84
1153.75	128.83
1157.021	127.56
1160.291	127.64
1163.561	127.22
1166.831	127.46
1170.101	127.37
1173.37	125.28
1176.639	124.66
1179.907	125.57
1183.176	124.25
1186.444	124.55
1189.711	124.31
1192.979	125.35
1196.246	124.66
1199.513	123.95
1202.78	123.5
1206.046	123.8
1209.312	124.77
1212.578	125.33
1215.843	126.59
1219.108	126.43
1222.373	128.42
1225.638	130.16
1228.902	132.36
1232.166	135.75
1235.43	137.4
1238.693	139.84
1241.956	142.9
1245.219	146.91
1248.482	148.48
1251.744	146.95
1255.006	148.79
1258.268	144.89
1261.529	144.03
1264.79	141.73
1268.051	139.33
1271.312	137.63
1274.572	135.93
1277.832	132.5
1281.092	130.92
1284.351	128.5
1287.61	128.67
1290.869	128.77
1294.128	128.85
1297.386	127.64
1300.644	126.33
1303.902	126.45
1307.159	125.33
1310.416	125.83
1313.673	127.55
1316.93	127.94
1320.186	129
1323.442	130.43
1326.697	131.26
1329.953	132.09
1333.208	136.05
1336.463	140.67
1339.717	142.17
1342.972	148.78
1346.226	151.62
1349.479	152.2
1352.733	157.1
1355.986	160.24
1359.238	162.69
1362.491	164.02
1365.743	168.83
1368.995	170.75
1372.247	167.07
1375.498	166.34
1378.749	170.05
1382	171.83
1385.251	169.83
1388.501	168.93
1391.751	169.96
1395	168.41
1398.25	169.34
1401.499	167.28
1404.748	164.78
1407.996	165.13
1411.244	164.84
1414.492	162.77
1417.74	156.44
1420.987	154.44
1424.234	151.61
1427.481	145.9
1430.728	141.5
1433.974	136.66
1437.22	132.84
1440.465	129.08
1443.711	124.87
1446.956	121.4
1450.201	116.07
1453.445	110.42
1456.689	106.75
1459.933	104.86
1463.177	100.87
1466.42	100.3
1469.663	97.33
1472.906	94.96
1476.148	91.66
1479.391	90.28
1482.633	89.44
1485.874	88.38
1489.115	88.18
1492.356	87.89
1495.597	86.15
1498.838	86.5
1502.078	85.5
1505.318	85.74
1508.557	85.33
1511.797	85.67
1515.036	85.7
1518.274	85.34
1521.513	85.54
1524.751	84.85
1527.989	85.65
1531.227	85.46
1534.464	85.54
1537.701	85.9
1540.938	85.63
1544.174	85.27
1547.41	85.33
1550.646	85.42
1553.882	85.03
1557.117	85.05
1560.352	85.48
1563.587	84.4
1566.821	84.65
1570.055	84.13
1573.289	83.8
1576.523	84.18
1579.756	84.33
1582.989	84.96
1586.222	84.57
1589.454	84.92
1592.686	84.61
1595.918	84.35
1599.15	84.57
1602.381	85.21
1605.612	85.57
1608.843	85.22
1612.073	85.59
1615.303	85.77
1618.533	85.33
1621.762	85.99
1624.992	85.94
1628.221	85.99
1631.449	86.59
1634.678	86.42
1637.906	86.1
1641.134	86.45
1644.361	86.71
1647.588	86.33
1650.815	86.78
1654.042	86.32
1657.269	86.2
1660.495	86.62
1663.72	87.01
1666.946	86.94
1670.171	87.5
1673.396	88.04
1676.621	87.74
1679.845	88.38
1683.069	88.17
1686.293	87.51
1689.517	88.43
1692.74	88.31
1695.963	88.21
1699.185	88.16
1702.408	88.63
1705.63	88.37
1708.852	88.35
1712.073	88.39
1715.294	87.76
1718.515	88.53
1721.736	89.17
1724.956	88.78
1728.176	88.66
1731.396	88.91
1734.616	88.89
1737.835	88.62
1741.054	88.96
1744.272	88.2
1747.491	88.34
1750.709	88.84
1753.927	88.65
1757.144	89.07
1760.361	89.09
1763.578	89.48
1766.795	89.76
1770.011	89.92
1773.227	89.62
1776.443	90.23
1779.658	90.36
1782.874	91.47
1786.089	91.13
1789.303	91.07
1792.518	91.55
1795.732	92.2
1798.945	93.14
1802.159	92.75
1805.372	93.61
1808.585	94.29
1811.797	94.16
1815.01	95.69
1818.222	95.21
1821.434	96.36
1824.645	96.79
1827.856	97.08
1831.067	97.62
1834.278	97.29
1837.488	98.45
1840.698	99.24
1843.908	99.32
1847.117	100.21
1850.326	100.35
1853.535	100.4
1856.744	100.37
1859.952	101.14
1863.16	101.06
1866.368	99.19
1869.575	99.96
1872.782	98.41
1875.989	96.33
1879.196	96.07
1882.402	94.65
1885.608	94.5
1888.814	93.73
1892.019	92.16
1895.224	90.59
1898.429	89.88
1901.634	90.67
1904.838	89.65
1908.042	90.74
1911.246	89.79
1914.449	90.03
1917.652	88.62
1920.855	87.87
1924.058	88.44
1927.26	88.64
1930.462	88.65
1933.664	88.87
1936.865	88.8
1940.066	86.98
1943.267	86.34
1946.467	88.51
1949.668	87.84
1952.868	88.82
1956.067	88.93
1959.267	89.18
1962.466	89.6
1965.665	91.34
1968.863	92.28
1972.061	93.42
1975.259	96.31
1978.457	97.04
1981.654	96.76
1984.852	98.22
1988.048	99.76
1991.245	102.26
1994.441	104.02
1997.637	105.49
2000.833	107.51
2004.028	107.64
2007.223	110.6
2010.418	112.29
2013.613	116.87
2016.807	120.37
2020.001	122.94
2023.194	126.56
2026.388	130.2
2029.581	135.98
2032.774	140.73
2035.966	143.7
2039.158	149.54
2042.35	150.33
2045.542	154.71
2048.733	159.34
2051.924	161.89
2055.115	162.62
2058.306	164.79
2061.496	166.1
2064.686	166.58
2067.875	165.98
2071.065	168.74
2074.254	168.38
2077.442	173.99
2080.631	174.11
2083.819	176.1
2087.007	178.7
2090.195	183.86
2093.382	183.93
2096.569	184.29
2099.756	187.59
2102.942	191.4
2106.128	193.7
2109.314	197.45
2112.5	197.49
2115.685	195.87
2118.87	195.88
2122.055	198.55
2125.239	201.05
2128.424	206.16
2131.608	203.26
2134.791	203.12
2137.974	202.24
2141.157	204.68
2144.34	204.15
2147.523	207.68
2150.705	213.82
2153.887	212.74
2157.068	213.35
2160.25	215.6
2163.431	215.18
2166.611	220.82
2169.792	224.32
2172.972	229.63
2176.152	230.52
2179.331	234.86
2182.511	234.87
2185.69	238.05
2188.868	247.13
2192.047	251.64
2195.225	254.94
2198.403	257.39
2201.58	251.88
2204.758	261.99
2207.935	261.92
2211.111	266.61
2214.288	267.77
2217.464	270.78
2220.64	274.27
2223.815	272.99
2226.991	271.4
2230.166	273.71
2233.34	282.12
2236.515	293.89
2239.689	286.67
2242.863	292.53
2246.036	287.74
2249.209	296.87
2252.382	295.8
2255.555	304.41
2258.727	307.37
2261.9	320.33
2265.071	323.68
2268.243	316.94
2271.414	325.4
2274.585	332.31
2277.756	338.19
2280.926	347.94
2284.096	346.43
2287.266	352.15
2290.436	345.53
2293.605	349.99
2296.774	357.84
2299.942	358.24
2303.111	375.93
2306.279	379.72
2309.447	382.38
2312.614	374.95
2315.781	386.81
2318.948	393.02
2322.115	399.79
2325.281	419.49
2328.447	417.64
2331.613	416.03
2334.779	426.56
2337.944	427.95
2341.109	439.39
2344.274	440.09
2347.438	454.14
2350.602	463.07
2353.766	485.36
2356.929	486.98
2360.092	493.83
2363.255	498.42
2366.418	506.95
2369.58	512.98
2372.742	512.95
2375.904	510.1
2379.066	527.09
2382.227	554.48
2385.388	550.26
2388.548	525.8
2391.709	517.69
2394.869	530.72
2398.029	536.13
2401.188	534.05
2404.347	550.56
2407.506	566.94
2410.665	546.89
2413.823	553.66
2416.981	555.04
2420.139	531.29
2423.296	577.02
2426.453	612.12
2429.61	584.65
2432.767	619.76
2435.923	646.09
2439.079	624.68
2442.235	631.96
2445.391	654.88
2448.546	643.51
2451.701	677.74
2454.855	721.64
2458.009	640.83
2461.163	649.8
2464.317	655.68
2467.471	643.03
2470.624	657.92
2473.777	651.18
2476.929	634.9
2480.082	657.55
2483.234	692.22
2486.385	700.91
2489.537	720.55
2492.688	787.52
2495.839	780.13
2498.989	801.2
2502.14	809.15
2505.29	769.83
2508.439	834.89
2511.589	858.87
2514.738	856.26
2517.887	842.32
2521.035	790.68
2524.183	771.1
2527.331	762.91
2530.479	743
2533.627	759.14
