Data from N_2_dec_oh_4n_045_Splice17_06.txt Node
Date: Sat Feb 29 13:54:37 EST 2020
User: sa697716
Spectrometer: FLMS03696
Trigger mode: 0
Integration Time (sec): 3.180400E-1
Scans to average: 20
Electric dark correction enabled: true
Nonlinearity correction enabled: true
Boxcar width: 5
XAxis mode: Wavelengths
Number of Pixels in Spectrum: 2048
>>>>>Begin Spectral Data<<<<<
187.83	103.77
188.298	94.59
188.766	82.18
189.233	69.32
189.701	90.7
190.169	93.52
190.636	94.21
191.104	114.7
191.571	293.08
192.039	169.91
192.506	-140.97
192.974	-914.16
193.441	510.94
193.908	0.09
194.375	-122.45
194.842	39.22
195.31	44.13
195.777	28.87
196.244	30.72
196.711	23.76
197.177	22.14
197.644	23.82
198.111	23.87
198.578	24.32
199.045	25.37
199.511	25.78
199.978	26.41
200.445	26.56
200.911	27.03
201.378	27.09
201.844	27.75
202.31	28.71
202.777	29.19
203.243	29.68
203.709	30.13
204.176	29.83
204.642	29.85
205.108	29.81
205.574	30.29
206.04	29.87
206.506	29.78
206.972	29.82
207.438	29.29
207.903	29.23
208.369	28.92
208.835	28.57
209.301	28.46
209.766	28.08
210.232	27.57
210.697	27.01
211.163	26.62
211.628	26.37
212.094	26.02
212.559	25.86
213.024	25.45
213.49	25.27
213.955	24.8
214.42	24.24
214.885	23.51
215.35	22.86
215.815	22.18
216.28	21.32
216.745	20.26
217.21	19.14
217.675	18.12
218.14	17.12
218.604	16.02
219.069	15.34
219.534	14.65
219.998	14.18
220.463	13.77
220.927	13.32
221.392	12.97
221.856	12.66
222.32	12.36
222.785	12.12
223.249	11.91
223.713	11.78
224.177	11.54
224.642	11.39
225.106	11.21
225.57	11.03
226.034	10.89
226.497	10.72
226.961	10.55
227.425	10.39
227.889	10.24
228.353	10.09
228.816	9.94
229.28	9.79
229.744	9.65
230.207	9.53
230.671	9.39
231.134	9.24
231.597	9.14
232.061	9.03
232.524	8.94
232.987	8.82
233.45	8.72
233.914	8.62
234.377	8.54
234.84	8.44
235.303	8.36
235.766	8.27
236.229	8.18
236.691	8.1
237.154	8.03
237.617	7.94
238.08	7.86
238.542	7.78
239.005	7.71
239.468	7.63
239.93	7.56
240.393	7.48
240.855	7.4
241.317	7.33
241.78	7.27
242.242	7.19
242.704	7.12
243.166	7.05
243.629	6.99
244.091	6.93
244.553	6.87
245.015	6.81
245.477	6.75
245.939	6.7
246.4	6.64
246.862	6.59
247.324	6.55
247.786	6.5
248.247	6.44
248.709	6.39
249.17	6.35
249.632	6.29
250.093	6.24
250.555	6.19
251.016	6.16
251.477	6.12
251.939	6.07
252.4	6.03
252.861	6
253.322	5.97
253.783	5.94
254.244	5.9
254.705	5.89
255.166	5.88
255.627	5.86
256.088	5.82
256.549	5.79
257.009	5.76
257.47	5.74
257.931	5.7
258.391	5.65
258.852	5.62
259.312	5.59
259.773	5.55
260.233	5.52
260.694	5.49
261.154	5.46
261.614	5.42
262.074	5.4
262.534	5.36
262.994	5.33
263.455	5.31
263.915	5.28
264.374	5.24
264.834	5.22
265.294	5.19
265.754	5.16
266.214	5.14
266.673	5.12
267.133	5.09
267.593	5.07
268.052	5.04
268.512	5.03
268.971	5.01
269.431	5
269.89	4.98
270.349	4.96
270.809	4.95
271.268	4.94
271.727	4.92
272.186	4.91
272.645	4.89
273.104	4.88
273.563	4.86
274.022	4.85
274.481	4.84
274.94	4.82
275.399	4.81
275.857	4.8
276.316	4.78
276.775	4.75
277.233	4.74
277.692	4.72
278.15	4.71
278.609	4.69
279.067	4.67
279.525	4.64
279.984	4.63
280.442	4.61
280.9	4.6
281.358	4.58
281.816	4.58
282.274	4.57
282.732	4.55
283.19	4.54
283.648	4.53
284.106	4.51
284.564	4.51
285.021	4.5
285.479	4.49
285.937	4.48
286.394	4.47
286.852	4.46
287.309	4.44
287.767	4.43
288.224	4.41
288.682	4.4
289.139	4.39
289.596	4.37
290.053	4.35
290.511	4.33
290.968	4.31
291.425	4.29
291.882	4.27
292.339	4.26
292.796	4.24
293.252	4.22
293.709	4.2
294.166	4.19
294.623	4.18
295.079	4.17
295.536	4.16
295.992	4.15
296.449	4.14
296.905	4.12
297.362	4.1
297.818	4.1
298.274	4.09
298.731	4.08
299.187	4.08
299.643	4.07
300.099	4.06
300.555	4.05
301.011	4.04
301.467	4.03
301.923	4.03
302.379	4.02
302.835	4.01
303.291	4.01
303.746	4
304.202	3.99
304.658	3.98
305.113	3.97
305.569	3.96
306.024	3.95
306.479	3.94
306.935	3.93
307.39	3.92
307.845	3.91
308.301	3.91
308.756	3.92
309.211	3.91
309.666	3.91
310.121	3.91
310.576	3.91
311.031	3.91
311.486	3.91
311.94	3.9
312.395	3.9
312.85	3.89
313.305	3.88
313.759	3.88
314.214	3.88
314.668	3.87
315.123	3.86
315.577	3.85
316.032	3.85
316.486	3.84
316.94	3.83
317.394	3.82
317.849	3.82
318.303	3.81
318.757	3.79
319.211	3.78
319.665	3.77
320.119	3.76
320.572	3.76
321.026	3.74
321.48	3.74
321.934	3.74
322.387	3.72
322.841	3.71
323.295	3.71
323.748	3.7
324.202	3.69
324.655	3.69
325.108	3.68
325.562	3.67
326.015	3.67
326.468	3.65
326.921	3.64
327.374	3.63
327.827	3.62
328.28	3.62
328.733	3.62
329.186	3.61
329.639	3.6
330.092	3.59
330.545	3.6
330.997	3.59
331.45	3.6
331.903	3.6
332.355	3.6
332.808	3.6
333.26	3.59
333.713	3.59
334.165	3.59
334.617	3.6
335.069	3.6
335.522	3.59
335.974	3.59
336.426	3.57
336.878	3.57
337.33	3.57
337.782	3.57
338.234	3.57
338.686	3.56
339.137	3.56
339.589	3.55
340.041	3.54
340.493	3.54
340.944	3.53
341.396	3.52
341.847	3.52
342.299	3.5
342.75	3.48
343.201	3.46
343.653	3.45
344.104	3.44
344.555	3.45
345.006	3.43
345.457	3.42
345.908	3.42
346.359	3.41
346.81	3.41
347.261	3.4
347.712	3.4
348.163	3.4
348.613	3.4
349.064	3.38
349.515	3.36
349.965	3.36
350.416	3.35
350.866	3.35
351.317	3.34
351.767	3.33
352.217	3.33
352.668	3.33
353.118	3.33
353.568	3.33
354.018	3.34
354.468	3.34
354.918	3.35
355.368	3.36
355.818	3.35
356.268	3.36
356.718	3.36
357.168	3.36
357.617	3.36
358.067	3.35
358.517	3.36
358.966	3.35
359.416	3.35
359.865	3.34
360.315	3.34
360.764	3.35
361.213	3.34
361.663	3.33
362.112	3.35
362.561	3.34
363.01	3.35
363.459	3.35
363.908	3.34
364.357	3.35
364.806	3.35
365.255	3.36
365.703	3.35
366.152	3.36
366.601	3.36
367.05	3.36
367.498	3.36
367.947	3.36
368.395	3.37
368.844	3.38
369.292	3.37
369.74	3.39
370.189	3.38
370.637	3.39
371.085	3.4
371.533	3.4
371.981	3.4
372.429	3.4
372.877	3.4
373.325	3.4
373.773	3.4
374.221	3.41
374.669	3.4
375.116	3.4
375.564	3.4
376.012	3.41
376.459	3.42
376.907	3.42
377.354	3.43
377.801	3.44
378.249	3.45
378.696	3.47
379.143	3.48
379.591	3.49
380.038	3.5
380.485	3.52
380.932	3.52
381.379	3.52
381.826	3.53
382.273	3.53
382.72	3.53
383.166	3.54
383.613	3.54
384.06	3.55
384.506	3.55
384.953	3.56
385.4	3.56
385.846	3.58
386.292	3.58
386.739	3.6
387.185	3.61
387.631	3.63
388.078	3.64
388.524	3.65
388.97	3.67
389.416	3.67
389.862	3.69
390.308	3.7
390.754	3.71
391.2	3.74
391.645	3.75
392.091	3.76
392.537	3.77
392.983	3.79
393.428	3.81
393.874	3.82
394.319	3.83
394.765	3.84
395.21	3.86
395.655	3.87
396.101	3.88
396.546	3.89
396.991	3.88
397.436	3.89
397.881	3.9
398.326	3.92
398.771	3.94
399.216	3.96
399.661	3.96
400.106	3.98
400.551	3.97
400.995	3.97
401.44	3.97
401.885	3.99
402.329	4.01
402.774	4.01
403.218	4.02
403.663	4.01
404.107	4.02
404.551	4.04
404.995	4.03
405.44	4.06
405.884	4.06
406.328	4.07
406.772	4.08
407.216	4.07
407.66	4.08
408.104	4.08
408.547	4.11
408.991	4.1
409.435	4.1
409.879	4.1
410.322	4.1
410.766	4.12
411.209	4.13
411.653	4.13
412.096	4.13
412.54	4.14
412.983	4.15
413.426	4.17
413.869	4.19
414.312	4.22
414.756	4.24
415.199	4.24
415.642	4.26
416.085	4.27
416.527	4.29
416.97	4.29
417.413	4.3
417.856	4.28
418.298	4.26
418.741	4.25
419.184	4.23
419.626	4.23
420.069	4.24
420.511	4.23
420.953	4.22
421.396	4.24
421.838	4.26
422.28	4.27
422.722	4.28
423.164	4.28
423.606	4.29
424.048	4.28
424.49	4.31
424.932	4.28
425.374	4.28
425.816	4.27
426.258	4.26
426.699	4.23
427.141	4.22
427.582	4.22
428.024	4.24
428.465	4.25
428.907	4.25
429.348	4.23
429.789	4.26
430.231	4.27
430.672	4.3
431.113	4.31
431.554	4.34
431.995	4.36
432.436	4.36
432.877	4.35
433.318	4.35
433.759	4.37
434.2	4.37
434.64	4.38
435.081	4.39
435.522	4.4
435.962	4.4
436.403	4.41
436.843	4.43
437.284	4.45
437.724	4.47
438.164	4.47
438.604	4.49
439.045	4.49
439.485	4.49
439.925	4.49
440.365	4.47
440.805	4.47
441.245	4.45
441.685	4.47
442.125	4.47
442.564	4.47
443.004	4.49
443.444	4.48
443.883	4.51
444.323	4.51
444.762	4.54
445.202	4.59
445.641	4.6
446.081	4.64
446.52	4.63
446.959	4.62
447.398	4.65
447.837	4.66
448.276	4.67
448.716	4.68
449.154	4.69
449.593	4.69
450.032	4.69
450.471	4.69
450.91	4.67
451.349	4.67
451.787	4.67
452.226	4.64
452.664	4.63
453.103	4.61
453.541	4.61
453.98	4.6
454.418	4.57
454.856	4.53
455.295	4.52
455.733	4.51
456.171	4.51
456.609	4.5
457.047	4.49
457.485	4.49
457.923	4.5
458.361	4.47
458.798	4.48
459.236	4.49
459.674	4.51
460.111	4.53
460.549	4.51
460.987	4.52
461.424	4.52
461.862	4.53
462.299	4.54
462.736	4.55
463.173	4.56
463.611	4.55
464.048	4.57
464.485	4.57
464.922	4.56
465.359	4.57
465.796	4.56
466.233	4.58
466.67	4.57
467.106	4.56
467.543	4.55
467.98	4.55
468.416	4.56
468.853	4.55
469.29	4.54
469.726	4.54
470.162	4.55
470.599	4.54
471.035	4.54
471.471	4.53
471.907	4.53
472.344	4.53
472.78	4.52
473.216	4.51
473.652	4.5
474.088	4.5
474.523	4.49
474.959	4.48
475.395	4.48
475.831	4.47
476.266	4.48
476.702	4.45
477.138	4.44
477.573	4.43
478.008	4.42
478.444	4.41
478.879	4.4
479.314	4.39
479.75	4.39
480.185	4.38
480.62	4.37
481.055	4.36
481.49	4.37
481.925	4.36
482.36	4.36
482.795	4.36
483.229	4.35
483.664	4.35
484.099	4.34
484.534	4.33
484.968	4.34
485.403	4.33
485.837	4.33
486.271	4.33
486.706	4.32
487.14	4.32
487.574	4.31
488.009	4.31
488.443	4.31
488.877	4.32
489.311	4.33
489.745	4.34
490.179	4.35
490.613	4.36
491.046	4.37
491.48	4.39
491.914	4.4
492.348	4.41
492.781	4.43
493.215	4.44
493.648	4.47
494.082	4.5
494.515	4.51
494.948	4.53
495.382	4.55
495.815	4.59
496.248	4.61
496.681	4.64
497.114	4.67
497.547	4.71
497.98	4.75
498.413	4.78
498.846	4.81
499.279	4.87
499.711	4.91
500.144	4.95
500.577	5
501.009	5.05
501.442	5.11
501.874	5.17
502.306	5.24
502.739	5.31
503.171	5.4
503.603	5.49
504.036	5.57
504.468	5.67
504.9	5.77
505.332	5.88
505.764	6
506.196	6.12
506.627	6.25
507.059	6.38
507.491	6.51
507.923	6.65
508.354	6.8
508.786	6.96
509.217	7.12
509.649	7.29
510.08	7.46
510.512	7.63
510.943	7.84
511.374	8.03
511.805	8.24
512.237	8.45
512.668	8.67
513.099	8.89
513.53	9.12
513.961	9.37
514.391	9.61
514.822	9.87
515.253	10.14
515.684	10.38
516.114	10.66
516.545	10.94
516.975	11.21
517.406	11.5
517.836	11.79
518.267	12.09
518.697	12.39
519.127	12.69
519.558	12.99
519.988	13.3
520.418	13.6
520.848	13.91
521.278	14.22
521.708	14.55
522.138	14.83
522.567	15.11
522.997	15.38
523.427	15.66
523.857	15.94
524.286	16.22
524.716	16.48
525.145	16.76
525.575	17.01
526.004	17.25
526.433	17.46
526.863	17.7
527.292	17.93
527.721	18.17
528.15	18.38
528.579	18.58
529.008	18.76
529.437	18.95
529.866	19.11
530.295	19.28
530.724	19.46
531.152	19.61
531.581	19.75
532.01	19.89
532.438	20.01
532.867	20.14
533.295	20.27
533.723	20.4
534.152	20.51
534.58	20.61
535.008	20.69
535.436	20.77
535.865	20.87
536.293	20.96
536.721	21.06
537.149	21.13
537.576	21.2
538.004	21.25
538.432	21.29
538.86	21.35
539.287	21.41
539.715	21.48
540.143	21.52
540.57	21.55
540.998	21.59
541.425	21.59
541.852	21.64
542.28	21.65
542.707	21.69
543.134	21.74
543.561	21.76
543.988	21.77
544.415	21.79
544.842	21.83
545.269	21.85
545.696	21.87
546.123	21.9
546.549	21.92
546.976	21.96
547.403	21.97
547.829	21.99
548.256	22
548.682	22.02
549.108	22.04
549.535	22.06
549.961	22.08
550.387	22.09
550.813	22.11
551.24	22.1
551.666	22.11
552.092	22.11
552.518	22.09
552.943	22.09
553.369	22.08
553.795	22.04
554.221	22.01
554.646	21.95
555.072	21.9
555.498	21.82
555.923	21.74
556.349	21.66
556.774	21.57
557.199	21.5
557.625	21.4
558.05	21.29
558.475	21.17
558.9	21.07
559.325	20.96
559.75	20.84
560.175	20.72
560.6	20.6
561.025	20.46
561.449	20.32
561.874	20.18
562.299	20.02
562.723	19.87
563.148	19.7
563.572	19.54
563.997	19.38
564.421	19.19
564.846	19.01
565.27	18.81
565.694	18.64
566.118	18.45
566.542	18.26
566.966	18.06
567.39	17.87
567.814	17.69
568.238	17.48
568.662	17.28
569.086	17.09
569.509	16.9
569.933	16.72
570.357	16.52
570.78	16.34
571.204	16.15
571.627	15.98
572.05	15.81
572.474	15.64
572.897	15.47
573.32	15.31
573.743	15.15
574.166	14.99
574.589	14.85
575.012	14.73
575.435	14.57
575.858	14.44
576.281	14.31
576.704	14.19
577.126	14.05
577.549	13.95
577.972	13.84
578.394	13.73
578.817	13.64
579.239	13.53
579.661	13.41
580.084	13.31
580.506	13.22
580.928	13.12
581.35	13.03
581.772	12.96
582.194	12.87
582.616	12.79
583.038	12.69
583.46	12.61
583.882	12.52
584.303	12.44
584.725	12.38
585.147	12.31
585.568	12.24
585.99	12.17
586.411	12.09
586.833	12.03
587.254	11.97
587.675	11.93
588.096	11.87
588.518	11.82
588.939	11.78
589.36	11.73
589.781	11.68
590.202	11.64
590.623	11.58
591.043	11.55
591.464	11.49
591.885	11.45
592.305	11.41
592.726	11.35
593.147	11.32
593.567	11.29
593.987	11.25
594.408	11.21
594.828	11.18
595.248	11.16
595.669	11.14
596.089	11.12
596.509	11.08
596.929	11.04
597.349	11.01
597.769	10.97
598.189	10.94
598.608	10.9
599.028	10.86
599.448	10.82
599.867	10.77
600.287	10.71
600.706	10.67
601.126	10.62
601.545	10.57
601.965	10.53
602.384	10.47
602.803	10.41
603.222	10.35
603.641	10.32
604.061	10.25
604.48	10.2
604.898	10.16
605.317	10.09
605.736	10.03
606.155	9.98
606.574	9.91
606.992	9.85
607.411	9.8
607.829	9.69
608.248	9.63
608.666	9.56
609.085	9.48
609.503	9.39
609.921	9.32
610.339	9.26
610.758	9.19
611.176	9.1
611.594	9.03
612.012	8.95
612.43	8.93
612.847	8.86
613.265	8.8
613.683	8.73
614.101	8.67
614.518	8.6
614.936	8.54
615.353	8.48
615.771	8.44
616.188	8.39
616.606	8.35
617.023	8.28
617.44	8.22
617.857	8.16
618.274	8.13
618.691	8.1
619.108	8.06
619.525	8.03
619.942	7.99
620.359	7.96
620.776	7.93
621.192	7.9
621.609	7.89
622.026	7.87
622.442	7.86
622.859	7.82
623.275	7.8
623.691	7.78
624.108	7.76
624.524	7.76
624.94	7.73
625.356	7.7
625.772	7.7
626.188	7.7
626.604	7.68
627.02	7.68
627.436	7.68
627.852	7.66
628.268	7.67
628.683	7.65
629.099	7.64
629.514	7.63
629.93	7.63
630.345	7.6
630.761	7.56
631.176	7.56
631.591	7.53
632.007	7.49
632.422	7.48
632.837	7.43
633.252	7.4
633.667	7.34
634.082	7.3
634.497	7.25
634.911	7.2
635.326	7.15
635.741	7.08
636.155	7.01
636.57	6.95
636.984	6.86
637.399	6.78
637.813	6.7
638.228	6.63
638.642	6.56
639.056	6.48
639.47	6.4
639.884	6.31
640.298	6.24
640.712	6.17
641.126	6.08
641.54	6.02
641.954	5.96
642.368	5.88
642.781	5.82
643.195	5.74
643.609	5.68
644.022	5.62
644.436	5.55
644.849	5.5
645.262	5.45
645.676	5.4
646.089	5.33
646.502	5.28
646.915	5.24
647.328	5.2
647.741	5.16
648.154	5.13
648.567	5.11
648.98	5.08
649.393	5.05
649.805	5.02
650.218	5
650.631	4.98
651.043	4.96
651.456	4.95
651.868	4.93
652.28	4.92
652.693	4.9
653.105	4.87
653.517	4.85
653.929	4.83
654.341	4.81
654.753	4.78
655.165	4.76
655.577	4.73
655.989	4.69
656.401	4.66
656.813	4.62
657.224	4.59
657.636	4.56
658.047	4.53
658.459	4.49
658.87	4.45
659.282	4.44
659.693	4.41
660.104	4.39
660.515	4.36
660.926	4.34
661.338	4.32
661.749	4.29
662.159	4.26
662.57	4.24
662.981	4.22
663.392	4.2
663.803	4.18
664.213	4.17
664.624	4.16
665.035	4.15
665.445	4.15
665.855	4.15
666.266	4.15
666.676	4.16
667.086	4.16
667.497	4.16
667.907	4.16
668.317	4.17
668.727	4.17
669.137	4.16
669.547	4.19
669.956	4.18
670.366	4.19
670.776	4.2
671.186	4.21
671.595	4.24
672.005	4.27
672.414	4.29
672.824	4.31
673.233	4.35
673.642	4.37
674.052	4.39
674.461	4.41
674.87	4.43
675.279	4.47
675.688	4.49
676.097	4.52
676.506	4.55
676.915	4.59
677.323	4.63
677.732	4.66
678.141	4.7
678.549	4.73
678.958	4.78
679.366	4.8
679.775	4.85
680.183	4.9
680.592	4.93
681	4.97
681.408	5
681.816	5.04
682.224	5.08
682.632	5.13
683.04	5.18
683.448	5.24
683.856	5.32
684.264	5.38
684.671	5.46
685.079	5.54
685.487	5.65
685.894	5.78
686.302	5.9
686.709	6.05
687.116	6.21
687.524	6.41
687.931	6.63
688.338	6.87
688.745	7.15
689.152	7.45
689.559	7.76
689.966	8.1
690.373	8.47
690.78	8.87
691.187	9.28
691.593	9.74
692	10.22
692.407	10.71
692.813	11.26
693.22	11.81
693.626	12.38
694.032	13
694.439	13.63
694.845	14.26
695.251	14.92
695.657	15.58
696.063	16.27
696.469	16.97
696.875	17.67
697.281	18.35
697.687	19.08
698.093	19.82
698.498	20.55
698.904	21.29
699.31	22.02
699.715	22.78
700.12	23.52
700.526	24.28
700.931	25.01
701.337	25.76
701.742	26.49
702.147	27.21
702.552	27.93
702.957	28.67
703.362	29.39
703.767	30.13
704.172	30.84
704.577	31.56
704.981	32.28
705.386	32.98
705.791	33.7
706.195	34.38
706.6	35.05
707.004	35.73
707.408	36.39
707.813	37.04
708.217	37.66
708.621	38.32
709.025	38.95
709.43	39.57
709.834	40.22
710.237	40.81
710.641	41.44
711.045	42.07
711.449	42.7
711.853	43.32
712.256	43.95
712.66	44.57
713.064	45.14
713.467	45.74
713.87	46.32
714.274	46.91
714.677	47.5
715.08	48.05
715.484	48.6
715.887	49.14
716.29	49.63
716.693	50.14
717.096	50.64
717.499	51.16
717.901	51.64
718.304	52.17
718.707	52.64
719.109	53.13
719.512	53.65
719.915	54.13
720.317	54.59
720.719	55.07
721.122	55.53
721.524	56.02
721.926	56.47
722.328	56.91
722.731	57.29
723.133	57.69
723.535	58.09
723.937	58.49
724.338	58.85
724.74	59.2
725.142	59.55
725.544	59.85
725.945	60.14
726.347	60.48
726.748	60.77
727.15	61.06
727.551	61.39
727.952	61.66
728.354	61.89
728.755	62.17
729.156	62.47
729.557	62.74
729.958	63.02
730.359	63.28
730.76	63.46
731.161	63.73
731.562	63.98
731.962	64.17
732.363	64.37
732.763	64.61
733.164	64.78
733.564	64.93
733.965	65.04
734.365	65.18
734.766	65.33
735.166	65.46
735.566	65.57
735.966	65.69
736.366	65.8
736.766	65.91
737.166	66.01
737.566	66.11
737.966	66.22
738.365	66.38
738.765	66.51
739.165	66.59
739.564	66.73
739.964	66.84
740.363	66.92
740.763	66.96
741.162	67.03
741.561	67.12
741.96	67.21
742.36	67.29
742.759	67.33
743.158	67.38
743.557	67.47
743.955	67.56
744.354	67.65
744.753	67.7
745.152	67.81
745.55	67.88
745.949	67.93
746.348	68.01
746.746	68.05
747.144	68.15
747.543	68.22
747.941	68.3
748.339	68.36
748.737	68.43
749.136	68.51
749.534	68.56
749.932	68.62
750.33	68.64
750.727	68.66
751.125	68.69
751.523	68.67
751.921	68.71
752.318	68.71
752.716	68.73
753.113	68.69
753.511	68.69
753.908	68.68
754.305	68.67
754.703	68.69
755.1	68.7
755.497	68.72
755.894	68.76
756.291	68.74
756.688	68.75
757.085	68.74
757.482	68.77
757.878	68.81
758.275	68.84
758.672	68.92
759.068	68.94
759.465	69
759.861	69.02
760.258	69.03
760.654	69.07
761.05	69.09
761.447	69.08
761.843	69.04
762.239	69.03
762.635	69.01
763.031	68.99
763.427	68.96
763.822	68.89
764.218	68.85
764.614	68.82
765.01	68.79
765.405	68.74
765.801	68.72
766.196	68.74
766.592	68.7
766.987	68.69
767.382	68.68
767.778	68.69
768.173	68.69
768.568	68.68
768.963	68.65
769.358	68.63
769.753	68.65
770.148	68.66
770.542	68.62
770.937	68.63
771.332	68.61
771.726	68.54
772.121	68.52
772.515	68.52
772.91	68.54
773.304	68.56
773.699	68.59
774.093	68.54
774.487	68.56
774.881	68.56
775.275	68.58
775.669	68.58
776.063	68.56
776.457	68.54
776.851	68.5
777.245	68.51
777.638	68.5
778.032	68.49
778.425	68.51
778.819	68.47
779.212	68.48
779.606	68.46
779.999	68.46
780.392	68.5
780.786	68.52
781.179	68.56
781.572	68.52
781.965	68.55
782.358	68.51
782.751	68.5
783.143	68.54
783.536	68.58
783.929	68.64
784.322	68.66
784.714	68.64
785.107	68.71
785.499	68.75
785.891	68.79
786.284	68.75
786.676	68.8
787.068	68.81
787.46	68.77
787.852	68.79
788.245	68.78
788.636	68.76
789.028	68.78
789.42	68.73
789.812	68.68
790.204	68.63
790.595	68.65
790.987	68.65
791.378	68.65
791.77	68.69
792.161	68.65
792.553	68.67
792.944	68.71
793.335	68.71
793.726	68.72
794.117	68.74
794.508	68.78
794.899	68.77
795.29	68.77
795.681	68.77
796.072	68.74
796.463	68.75
796.853	68.72
797.244	68.71
797.634	68.69
798.025	68.72
798.415	68.73
798.806	68.75
799.196	68.78
799.586	68.79
799.976	68.8
800.366	68.86
800.756	68.86
801.146	68.84
801.536	68.82
801.926	68.83
802.316	68.79
802.706	68.79
803.095	68.76
803.485	68.76
803.874	68.72
804.264	68.76
804.653	68.7
805.043	68.66
805.432	68.63
805.821	68.62
806.21	68.66
806.599	68.72
806.988	68.75
807.377	68.78
807.766	68.79
808.155	68.83
808.544	68.8
808.933	68.85
809.321	68.95
809.71	69
810.098	69.01
810.487	69.01
810.875	68.97
811.264	68.97
811.652	68.96
812.04	68.97
812.428	69
812.816	69.03
813.204	69.02
813.592	68.99
813.98	68.99
814.368	68.99
814.756	69
815.144	69.03
815.531	69.05
815.919	69.05
816.306	69.07
816.694	69.07
817.081	69.01
817.469	69.09
817.856	69.15
818.243	69.18
818.63	69.25
819.017	69.28
819.404	69.24
819.791	69.25
820.178	69.32
820.565	69.3
820.952	69.29
821.339	69.38
821.725	69.39
822.112	69.35
822.498	69.36
822.885	69.35
823.271	69.37
823.657	69.41
824.044	69.42
824.43	69.42
824.816	69.47
825.202	69.49
825.588	69.46
825.974	69.43
826.36	69.43
826.746	69.46
827.132	69.42
827.517	69.41
827.903	69.42
828.289	69.39
828.674	69.35
829.06	69.35
829.445	69.38
829.83	69.4
830.216	69.41
830.601	69.42
830.986	69.38
831.371	69.44
831.756	69.43
832.141	69.44
832.526	69.43
832.911	69.45
833.295	69.42
833.68	69.41
834.065	69.41
834.449	69.37
834.834	69.38
835.218	69.39
835.603	69.34
835.987	69.34
836.371	69.32
836.755	69.33
837.139	69.35
837.524	69.35
837.908	69.31
838.291	69.28
838.675	69.26
839.059	69.26
839.443	69.27
839.827	69.28
840.21	69.31
840.594	69.31
840.977	69.28
841.361	69.25
841.744	69.26
842.127	69.26
842.511	69.24
842.894	69.22
843.277	69.19
843.66	69.19
844.043	69.16
844.426	69.14
844.809	69.12
845.191	69.12
845.574	69.1
845.957	69.06
846.339	69.04
846.722	69.08
847.104	69.09
847.487	69.12
847.869	69.13
848.252	69.12
848.634	69.13
849.016	69.18
849.398	69.16
849.78	69.19
850.162	69.22
850.544	69.26
850.926	69.22
851.307	69.24
851.689	69.21
852.071	69.18
852.452	69.18
852.834	69.16
853.215	69.13
853.597	69.16
853.978	69.12
854.359	69.1
854.741	69.06
855.122	69.12
855.503	69.14
855.884	69.15
856.265	69.15
856.646	69.16
857.026	69.17
857.407	69.12
857.788	69.13
858.169	69.14
858.549	69.2
858.93	69.2
859.31	69.13
859.69	69.12
860.071	69.12
860.451	69.12
860.831	69.12
861.211	69.1
861.591	69.16
861.971	69.13
862.351	69.17
862.731	69.11
863.111	69.09
863.491	69.13
863.87	69.12
864.25	69.14
864.629	69.15
865.009	69.16
865.388	69.15
865.768	69.1
866.147	69.1
866.526	69.08
866.905	69.09
867.284	69.14
867.663	69.15
868.042	69.13
868.421	69.09
868.8	69.08
869.179	69.08
869.558	69.1
869.936	69.13
870.315	69.15
870.693	69.14
871.072	69.12
871.45	69.07
871.828	69.06
872.207	69.1
872.585	69.1
872.963	69.09
873.341	69.08
873.719	69.04
874.097	69.01
874.475	68.99
874.853	69
875.23	69.01
875.608	69.04
875.986	69.03
876.363	69
876.741	69
877.118	69.01
877.495	68.99
877.873	69.01
878.25	69
878.627	69
879.004	68.99
879.381	68.98
879.758	68.92
880.135	68.91
880.512	68.94
880.889	68.91
881.265	68.94
881.642	68.93
882.019	68.95
882.395	69
882.772	68.99
883.148	69.01
883.524	69.02
883.901	69.04
884.277	69.05
884.653	69.02
885.029	69.03
885.405	69.01
885.781	68.99
886.157	68.97
886.532	68.94
886.908	68.95
887.284	68.94
887.659	68.95
888.035	68.95
888.411	68.9
888.786	68.9
889.161	68.91
889.537	68.92
889.912	68.89
890.287	68.87
890.662	68.87
891.037	68.82
891.412	68.78
891.787	68.76
892.162	68.75
892.536	68.76
892.911	68.73
893.286	68.7
893.66	68.66
894.035	68.66
894.409	68.65
894.784	68.64
895.158	68.66
895.532	68.66
895.906	68.63
896.281	68.61
896.655	68.59
897.029	68.58
897.402	68.59
897.776	68.6
898.15	68.62
898.524	68.61
898.898	68.57
899.271	68.55
899.645	68.54
900.018	68.51
900.392	68.53
900.765	68.57
901.138	68.62
901.511	68.58
901.884	68.59
902.258	68.55
902.631	68.61
903.003	68.61
903.376	68.61
903.749	68.63
904.122	68.67
904.495	68.63
904.867	68.58
905.24	68.52
905.612	68.49
905.985	68.42
906.357	68.4
906.729	68.34
907.102	68.33
907.474	68.35
907.846	68.32
908.218	68.29
908.59	68.29
908.962	68.28
909.334	68.27
909.705	68.3
910.077	68.31
910.449	68.35
910.82	68.34
911.192	68.34
911.563	68.31
911.935	68.26
912.306	68.28
912.677	68.3
913.048	68.29
913.419	68.3
913.79	68.28
914.161	68.24
914.532	68.18
914.903	68.2
915.274	68.13
915.645	68.11
916.015	68.14
916.386	68.11
916.756	68.03
917.127	67.99
917.497	68
917.868	67.97
918.238	68
918.608	68.01
918.978	67.96
919.348	67.96
919.718	67.92
920.088	67.89
920.458	67.93
920.828	67.94
921.198	67.96
921.567	67.92
921.937	67.92
922.306	67.87
922.676	67.87
923.045	67.85
923.415	67.85
923.784	67.89
924.153	67.87
924.522	67.83
924.891	67.81
925.26	67.78
925.629	67.77
925.998	67.77
926.367	67.79
926.736	67.69
927.104	67.68
927.473	67.68
927.842	67.61
928.21	67.64
928.578	67.59
928.947	67.54
929.315	67.52
929.683	67.55
930.051	67.54
930.42	67.49
930.788	67.54
931.156	67.52
931.523	67.54
931.891	67.53
932.259	67.42
932.627	67.36
932.994	67.36
933.362	67.33
933.729	67.17
934.097	67.11
934.464	67.09
934.831	67.04
935.199	67.05
935.566	66.92
935.933	66.86
936.3	66.79
936.667	66.76
937.034	66.69
937.401	66.57
937.767	66.55
938.134	66.5
938.501	66.42
938.867	66.38
939.234	66.28
939.6	66.27
939.967	66.26
940.333	66.33
940.699	66.39
941.065	66.51
941.431	66.67
941.798	66.8
942.163	66.87
942.529	66.87
942.895	66.88
943.261	66.91
943.627	67.01
943.992	67.08
944.358	67.04
944.723	66.97
945.089	66.85
945.454	66.85
945.82	66.76
946.185	66.81
946.55	66.93
946.915	66.91
947.28	66.94
947.645	66.92
948.01	67
948.375	67.13
948.74	67.1
949.104	67.14
949.469	67.02
949.834	66.95
950.198	66.78
950.562	66.77
950.927	66.79
951.291	66.71
951.655	66.66
952.02	66.52
952.384	66.4
952.748	66.45
953.112	66.5
953.476	66.51
953.839	66.52
954.203	66.52
954.567	66.42
954.931	66.38
955.294	66.35
955.658	66.25
956.021	66.27
956.385	66.28
956.748	66.27
957.111	66.17
957.474	66.14
957.837	66.17
958.2	66.1
958.563	66.06
958.926	66.04
959.289	66.16
959.652	66.23
960.015	66.18
960.377	66.15
960.74	66.16
961.102	66.14
961.465	66.13
961.827	66.03
962.189	66.01
962.552	65.98
962.914	65.88
963.276	65.72
963.638	65.61
964	65.55
964.362	65.53
964.724	65.39
965.085	65.39
965.447	65.25
965.809	65.2
966.17	65.2
966.532	65.22
966.893	65.21
967.255	65.17
967.616	65.26
967.977	65.27
968.338	65.18
968.699	65.19
969.061	65.16
969.421	65.26
969.782	65.31
970.143	65.24
970.504	65.16
970.865	65.12
971.225	65.1
971.586	65.01
971.946	65.01
972.307	65.04
972.667	65.13
973.027	65.17
973.388	65.19
973.748	65.26
974.108	65.34
974.468	65.42
974.828	65.48
975.188	65.47
975.548	65.48
975.907	65.46
976.267	65.43
976.627	65.28
976.986	65.25
977.346	65.21
977.705	65.21
978.064	65.18
978.424	65.09
978.783	65.04
979.142	65.01
979.501	64.97
979.86	64.92
980.219	64.84
980.578	64.89
980.937	64.84
981.296	64.8
981.654	64.77
982.013	64.81
982.371	64.81
982.73	64.83
983.088	64.81
983.447	64.87
983.805	64.89
984.163	64.95
984.521	64.83
984.879	64.91
985.237	64.89
985.595	64.9
985.953	64.86
986.311	64.92
986.669	64.94
987.026	65.04
987.384	65.03
987.741	65.03
988.099	65
988.456	65.05
988.814	64.93
989.171	64.87
989.528	64.71
989.885	64.71
990.242	64.73
990.599	64.59
990.956	64.53
991.313	64.46
991.67	64.36
992.027	64.36
992.383	64.43
992.74	64.33
993.096	64.32
993.453	64.29
993.809	64.23
994.165	64.19
994.522	64.23
994.878	64.1
995.234	64.04
995.59	64.03
995.946	64.03
996.302	64.02
996.658	64.06
997.013	64.04
997.369	64.11
997.725	64.13
998.08	64.01
998.436	64.03
998.791	64.02
999.147	64.09
999.502	64.1
999.857	64.09
1000.212	64.04
1000.567	63.9
1000.922	63.97
1001.277	63.74
1001.632	63.74
1001.987	63.91
1002.342	63.91
1002.696	64.18
1003.051	64.07
1003.406	64.05
1003.76	64
1004.114	63.92
1004.469	63.96
1004.823	63.93
1005.177	64.2
1005.531	63.97
1005.885	63.81
1006.239	63.78
1006.593	63.32
1006.947	63.23
1007.301	63.38
1007.655	63.28
1008.008	63.27
1008.362	63.31
1008.715	63.18
1009.069	62.84
1009.422	62.77
1009.776	62.73
1010.129	62.65
1010.482	62.89
1010.835	63.1
1011.188	62.86
1011.541	62.78
1011.894	62.59
1012.247	62.6
1012.6	62.51
1012.952	62.62
1013.305	62.76
1013.657	62.85
1014.01	62.89
1014.362	62.89
1014.715	62.7
1015.067	62.63
1015.419	62.76
1015.771	62.95
1016.123	62.88
1016.475	62.99
1016.827	63.14
1017.179	63.15
1017.531	62.93
1017.883	62.9
1018.234	62.84
1018.586	62.93
1018.938	62.97
1019.289	62.93
1019.64	62.9
1019.992	62.87
1020.343	62.6
1020.694	62.28
1021.045	61.78
1021.396	61.59
1021.747	61.56
1022.098	61.7
1022.449	61.32
1022.8	61.47
1023.151	61.41
1023.501	61.32
1023.852	61.29
1024.202	61.54
1024.553	61.55
1024.903	61.98
1025.253	61.94
1025.604	61.98
1025.954	61.8
1026.304	62.23
1026.654	62
1027.004	62.22
1027.354	62.08
1027.703	61.83
1028.053	61.31
1028.403	61.41
1028.753	61.1
1029.102	61.26
1029.452	60.98
1029.801	60.75
1030.15	60.34
1030.499	60.18
897.758	681.71
901.051	687.55
904.343	694.61
907.636	683.19
910.928	671.11
914.22	679.02
917.511	670.04
920.803	642.23
924.094	616.48
927.384	622.14
930.675	600.2
933.965	594.41
937.255	595.75
940.544	570.77
943.834	544.03
947.123	538.31
950.411	513.24
953.7	501.06
956.988	488.74
960.276	465.1
963.563	459.68
966.851	438.95
970.138	429.67
973.424	400.83
976.711	395.47
979.997	386.08
983.283	376.01
986.568	364.65
989.853	354.49
993.138	339.83
996.423	338.63
999.708	327.38
1002.992	328.01
1006.275	317.74
1009.559	315.97
1012.842	306.98
1016.125	296.9
1019.408	291.55
1022.69	290.28
1025.972	287.76
1029.254	280.67
1032.536	274.12
1035.817	266.59
1039.098	262.24
1042.379	257.68
1045.659	253.8
1048.939	252.18
1052.219	247.97
1055.498	243.11
1058.778	238.25
1062.057	234.05
1065.335	233.72
1068.614	230.46
1071.892	226.5
1075.17	223.02
1078.447	220.56
1081.724	219.03
1085.001	213.37
1088.278	213.44
1091.554	212.74
1094.83	211.2
1098.106	208.06
1101.382	206.61
1104.657	205.65
1107.932	205.65
1111.206	204.53
1114.481	202.18
1117.755	199.92
1121.029	200.33
1124.302	196.62
1127.575	194.34
1130.848	193.74
1134.121	190.81
1137.393	190.65
1140.665	189.4
1143.937	187.04
1147.208	184.83
1150.48	183.83
1153.75	183.21
1157.021	180.76
1160.291	180.39
1163.561	180.95
1166.831	178.24
1170.101	179.05
1173.37	176.79
1176.639	174.73
1179.907	175.22
1183.176	175.14
1186.444	175.51
1189.711	174.11
1192.979	176.7
1196.246	176.22
1199.513	173.46
1202.78	175.44
1206.046	175.12
1209.312	175.89
1212.578	177.29
1215.843	179.11
1219.108	179.96
1222.373	181.82
1225.638	185
1228.902	187.86
1232.166	193.8
1235.43	197.71
1238.693	202.22
1241.956	206.54
1245.219	213.24
1248.482	214.22
1251.744	213.78
1255.006	214.24
1258.268	209.59
1261.529	208.16
1264.79	202.44
1268.051	198.12
1271.312	196.66
1274.572	192.31
1277.832	187.17
1281.092	184.14
1284.351	181.1
1287.61	180.97
1290.869	179.57
1294.128	178.67
1297.386	177.24
1300.644	177.5
1303.902	177.12
1307.159	176.14
1310.416	177.33
1313.673	181.04
1316.93	180.85
1320.186	183.93
1323.442	185.87
1326.697	189.87
1329.953	190.5
1333.208	197.99
1336.463	204.37
1339.717	208.12
1342.972	217.49
1346.226	222.77
1349.479	223.92
1352.733	234.7
1355.986	238.87
1359.238	243.83
1362.491	245.89
1365.743	255.8
1368.995	255.81
1372.247	253.69
1375.498	252.17
1378.749	259.55
1382	258.73
1385.251	257.78
1388.501	256.77
1391.751	259.69
1395	257
1398.25	258.48
1401.499	256.96
1404.748	256.41
1407.996	250.76
1411.244	252.25
1414.492	248
1417.74	240.47
1420.987	235.04
1424.234	231.58
1427.481	221.75
1430.728	217.01
1433.974	209.25
1437.22	203.68
1440.465	196.55
1443.711	192.09
1446.956	186.15
1450.201	178.95
1453.445	171.37
1456.689	166.44
1459.933	160.37
1463.177	154.08
1466.42	150.87
1469.663	146.14
1472.906	141.69
1476.148	138.09
1479.391	135.31
1482.633	133.42
1485.874	130.49
1489.115	129.81
1492.356	127.45
1495.597	126.34
1498.838	125.89
1502.078	124.81
1505.318	124.71
1508.557	123.65
1511.797	122.44
1515.036	121.94
1518.274	121.34
1521.513	119.86
1524.751	119.17
1527.989	120.89
1531.227	119.99
1534.464	119.87
1537.701	118.94
1540.938	118.47
1544.174	118.98
1547.41	118.8
1550.646	118.72
1553.882	118.6
1557.117	118.67
1560.352	118.69
1563.587	117.33
1566.821	117.52
1570.055	116.78
1573.289	116.73
1576.523	117.11
1579.756	116.18
1582.989	117.11
1586.222	116.77
1589.454	116.1
1592.686	116.53
1595.918	116.09
1599.15	115.74
1602.381	116.12
1605.612	116.47
1608.843	116.68
1612.073	117.19
1615.303	117.63
1618.533	117.11
1621.762	117.72
1624.992	117.8
1628.221	117.8
1631.449	118.56
1634.678	118.13
1637.906	118.29
1641.134	118.59
1644.361	118.46
1647.588	118.43
1650.815	118.47
1654.042	118.58
1657.269	118.05
1660.495	119.01
1663.72	118.38
1666.946	118.42
1670.171	119.48
1673.396	119.86
1676.621	120.18
1679.845	120.22
1683.069	119.77
1686.293	119.69
1689.517	119.78
1692.74	120.32
1695.963	120.25
1699.185	121.61
1702.408	121.36
1705.63	121.51
1708.852	121.85
1712.073	121.26
1715.294	121.38
1718.515	121.89
1721.736	122.11
1724.956	122.47
1728.176	122.26
1731.396	122.64
1734.616	122.55
1737.835	122.93
1741.054	122.12
1744.272	121.53
1747.491	121.75
1750.709	123.07
1753.927	123
1757.144	123.12
1760.361	123.06
1763.578	124.32
1766.795	124.97
1770.011	124.02
1773.227	124.94
1776.443	126.4
1779.658	126.99
1782.874	127.82
1786.089	127.57
1789.303	127.71
1792.518	129.28
1795.732	130.34
1798.945	130.16
1802.159	130.57
1805.372	133.13
1808.585	133.64
1811.797	134.21
1815.01	135.26
1818.222	136.1
1821.434	136.52
1824.645	137.9
1827.856	139.06
1831.067	139.04
1834.278	140.8
1837.488	141.28
1840.698	142.48
1843.908	142.7
1847.117	144.48
1850.326	145.32
1853.535	145.2
1856.744	146.93
1859.952	147.98
1863.16	147.88
1866.368	147.24
1869.575	148.27
1872.782	147.61
1875.989	145.92
1879.196	144.46
1882.402	142.45
1885.608	143.14
1888.814	142.71
1892.019	144.2
1895.224	141.66
1898.429	142
1901.634	143.93
1904.838	143.12
1908.042	143.82
1911.246	144.17
1914.449	145.88
1917.652	145.71
1920.855	145.64
1924.058	145.16
1927.26	143.38
1930.462	144.48
1933.664	145
1936.865	144.04
1940.066	142.18
1943.267	141.41
1946.467	143.06
1949.668	143.03
1952.868	143.89
1956.067	143.15
1959.267	145.05
1962.466	145.75
1965.665	147.53
1968.863	147.85
1972.061	148.95
1975.259	152.82
1978.457	153.74
1981.654	154.42
1984.852	155.48
1988.048	157.28
1991.245	160.2
1994.441	161.81
1997.637	164.76
2000.833	167.6
2004.028	168.49
2007.223	174.34
2010.418	177.16
2013.613	184.84
2016.807	189.61
2020.001	192.5
2023.194	198.47
2026.388	204.64
2029.581	215.14
2032.774	222
2035.966	228.99
2039.158	237.07
2042.35	240.11
2045.542	245.43
2048.733	256.56
2051.924	256.87
2055.115	263.13
2058.306	265.32
2061.496	272.03
2064.686	271.77
2067.875	268.49
2071.065	269.81
2074.254	272.12
2077.442	279.94
2080.631	280.82
2083.819	280.45
2087.007	286.85
2090.195	290.62
2093.382	290.77
2096.569	289.4
2099.756	295.74
2102.942	304.23
2106.128	312.08
2109.314	310.46
2112.5	310.5
2115.685	311.35
2118.87	311.31
2122.055	315.99
2125.239	323.52
2128.424	331.73
2131.608	329.2
2134.791	329.33
2137.974	330.42
2141.157	330.68
2144.34	337.37
2147.523	340.38
2150.705	348.2
2153.887	346.5
2157.068	349.41
2160.25	350.32
2163.431	347.53
2166.611	352.95
2169.792	361.05
2172.972	365.67
2176.152	368.03
2179.331	375.68
2182.511	376.24
2185.69	381.47
2188.868	394.13
2192.047	403.5
2195.225	411.94
2198.403	418.11
2201.58	415.28
2204.758	427.02
2207.935	431.48
2211.111	439.25
2214.288	440.47
2217.464	447.41
2220.64	448.81
2223.815	453.97
2226.991	443.46
2230.166	447.05
2233.34	461.81
2236.515	476.28
2239.689	467.23
2242.863	471.82
2246.036	468.07
2249.209	478.57
2252.382	477.47
2255.555	495.38
2258.727	494.98
2261.9	515
2265.071	519.33
2268.243	513.97
2271.414	526.73
2274.585	539.88
2277.756	544.28
2280.926	565.91
2284.096	563.78
2287.266	566.89
2290.436	555.32
2293.605	568.03
2296.774	587.6
2299.942	589.7
2303.111	608.38
2306.279	620.34
2309.447	620.29
2312.614	620.34
2315.781	636.01
2318.948	647.61
2322.115	660.48
2325.281	693.88
2328.447	689.34
2331.613	686.91
2334.779	698.02
2337.944	708.56
2341.109	723.12
2344.274	732.73
2347.438	751.4
2350.602	758.25
2353.766	806.19
2356.929	810.22
2360.092	817.65
2363.255	822.41
2366.418	836.75
2369.58	853.1
2372.742	855.39
2375.904	847.87
2379.066	870.1
2382.227	923.69
2385.388	926.35
2388.548	876.45
2391.709	867.79
2394.869	903.94
2398.029	897.53
2401.188	898.55
2404.347	926.65
2407.506	953.94
2410.665	919.24
2413.823	919.39
2416.981	914.67
2420.139	869.17
2423.296	939.81
2426.453	1002.14
2429.61	945.66
2432.767	1017.55
2435.923	1052.95
2439.079	1008.28
2442.235	1027.25
2445.391	1055.73
2448.546	1052.71
2451.701	1109.23
2454.855	1182.61
2458.009	1047.32
2461.163	1067.03
2464.317	1078.33
2467.471	1055.91
2470.624	1087.79
2473.777	1075.55
2476.929	1045.08
2480.082	1112.45
2483.234	1163.53
2486.385	1195.66
2489.537	1218.27
2492.688	1341.69
2495.839	1312.51
2498.989	1362.06
2502.14	1364.68
2505.29	1301.84
2508.439	1453.49
2511.589	1495.54
2514.738	1447.16
2517.887	1439.8
2521.035	1334.92
2524.183	1321.05
2527.331	1310.34
2530.479	1281.53
2533.627	1307.38
