Data from N_2_hir_wi_4n_077_Splice17_01.txt Node
Date: Sat Feb 29 14:10:03 EST 2020
User: sa697716
Spectrometer: FLMS03696
Trigger mode: 0
Integration Time (sec): 3.180400E-1
Scans to average: 20
Electric dark correction enabled: true
Nonlinearity correction enabled: true
Boxcar width: 5
XAxis mode: Wavelengths
Number of Pixels in Spectrum: 2048
>>>>>Begin Spectral Data<<<<<
187.83	90.32
188.298	87.55
188.766	81.39
189.233	68.25
189.701	81.21
190.169	88
190.636	65.39
191.104	49.75
191.571	220.39
192.039	183.01
192.506	-90.29
192.974	4490.31
193.441	104.42
193.908	63
194.375	12.87
194.842	177.55
195.31	141.57
195.777	25.31
196.244	21.36
196.711	27.87
197.177	23.78
197.644	23.68
198.111	23.36
198.578	24.19
199.045	23.66
199.511	23.58
199.978	23.59
200.445	23.07
200.911	23.23
201.378	23.13
201.844	23.14
202.31	23.3
202.777	23.09
203.243	23.31
203.709	22.9
204.176	22.33
204.642	22.13
205.108	21.37
205.574	21.75
206.04	21.57
206.506	21.28
206.972	20.78
207.438	20.27
207.903	20.21
208.369	19.43
208.835	19.19
209.301	18.85
209.766	18.52
210.232	18.6
210.697	18.15
211.163	17.85
211.628	17.39
212.094	17.27
212.559	16.9
213.024	16.27
213.49	15.95
213.955	15.69
214.42	15.24
214.885	14.45
215.35	13.66
215.815	12.45
216.28	11.51
216.745	10.47
217.21	9.16
217.675	8.07
218.14	7.07
218.604	6.07
219.069	5.25
219.534	4.68
219.998	4.21
220.463	3.72
220.927	3.39
221.392	3.03
221.856	2.76
222.32	2.55
222.785	2.36
223.249	2.2
223.713	2.12
224.177	1.98
224.642	1.88
225.106	1.78
225.57	1.66
226.034	1.56
226.497	1.48
226.961	1.39
227.425	1.32
227.889	1.27
228.353	1.19
228.816	1.13
229.28	1.04
229.744	0.98
230.207	0.95
230.671	0.93
231.134	0.9
231.597	0.86
232.061	0.84
232.524	0.83
232.987	0.8
233.45	0.8
233.914	0.8
234.377	0.8
234.84	0.79
235.303	0.77
235.766	0.77
236.229	0.77
236.691	0.77
237.154	0.76
237.617	0.74
238.08	0.72
238.542	0.71
239.005	0.7
239.468	0.69
239.93	0.69
240.393	0.68
240.855	0.66
241.317	0.65
241.78	0.65
242.242	0.63
242.704	0.61
243.166	0.61
243.629	0.6
244.091	0.59
244.553	0.58
245.015	0.57
245.477	0.56
245.939	0.54
246.4	0.53
246.862	0.53
247.324	0.53
247.786	0.53
248.247	0.53
248.709	0.52
249.17	0.52
249.632	0.51
250.093	0.49
250.555	0.48
251.016	0.48
251.477	0.47
251.939	0.45
252.4	0.45
252.861	0.45
253.322	0.43
253.783	0.43
254.244	0.43
254.705	0.42
255.166	0.44
255.627	0.44
256.088	0.42
256.549	0.43
257.009	0.42
257.47	0.42
257.931	0.4
258.391	0.39
258.852	0.37
259.312	0.36
259.773	0.36
260.233	0.34
260.694	0.33
261.154	0.32
261.614	0.31
262.074	0.31
262.534	0.29
262.994	0.29
263.455	0.29
263.915	0.29
264.374	0.28
264.834	0.27
265.294	0.27
265.754	0.26
266.214	0.26
266.673	0.26
267.133	0.26
267.593	0.26
268.052	0.24
268.512	0.24
268.971	0.24
269.431	0.24
269.89	0.23
270.349	0.23
270.809	0.23
271.268	0.23
271.727	0.23
272.186	0.23
272.645	0.23
273.104	0.23
273.563	0.23
274.022	0.24
274.481	0.23
274.94	0.23
275.399	0.24
275.857	0.25
276.316	0.25
276.775	0.25
277.233	0.24
277.692	0.25
278.15	0.25
278.609	0.25
279.067	0.25
279.525	0.25
279.984	0.25
280.442	0.25
280.9	0.26
281.358	0.26
281.816	0.26
282.274	0.26
282.732	0.27
283.19	0.27
283.648	0.28
284.106	0.28
284.564	0.29
285.021	0.29
285.479	0.3
285.937	0.29
286.394	0.29
286.852	0.3
287.309	0.3
287.767	0.3
288.224	0.3
288.682	0.3
289.139	0.29
289.596	0.29
290.053	0.28
290.511	0.28
290.968	0.29
291.425	0.29
291.882	0.28
292.339	0.28
292.796	0.27
293.252	0.27
293.709	0.27
294.166	0.26
294.623	0.26
295.079	0.27
295.536	0.26
295.992	0.26
296.449	0.25
296.905	0.25
297.362	0.25
297.818	0.25
298.274	0.24
298.731	0.24
299.187	0.25
299.643	0.26
300.099	0.26
300.555	0.25
301.011	0.25
301.467	0.25
301.923	0.25
302.379	0.25
302.835	0.25
303.291	0.25
303.746	0.25
304.202	0.24
304.658	0.24
305.113	0.24
305.569	0.24
306.024	0.24
306.479	0.25
306.935	0.25
307.39	0.26
307.845	0.27
308.301	0.27
308.756	0.28
309.211	0.29
309.666	0.3
310.121	0.31
310.576	0.31
311.031	0.31
311.486	0.32
311.94	0.32
312.395	0.32
312.85	0.32
313.305	0.32
313.759	0.32
314.214	0.32
314.668	0.32
315.123	0.32
315.577	0.32
316.032	0.32
316.486	0.31
316.94	0.32
317.394	0.32
317.849	0.32
318.303	0.32
318.757	0.31
319.211	0.3
319.665	0.3
320.119	0.31
320.572	0.31
321.026	0.31
321.48	0.31
321.934	0.31
322.387	0.32
322.841	0.32
323.295	0.31
323.748	0.32
324.202	0.33
324.655	0.33
325.108	0.33
325.562	0.32
326.015	0.32
326.468	0.31
326.921	0.31
327.374	0.32
327.827	0.32
328.28	0.32
328.733	0.31
329.186	0.31
329.639	0.31
330.092	0.32
330.545	0.33
330.997	0.34
331.45	0.35
331.903	0.35
332.355	0.34
332.808	0.35
333.26	0.35
333.713	0.36
334.165	0.37
334.617	0.38
335.069	0.38
335.522	0.38
335.974	0.38
336.426	0.39
336.878	0.39
337.33	0.39
337.782	0.39
338.234	0.39
338.686	0.4
339.137	0.4
339.589	0.4
340.041	0.4
340.493	0.39
340.944	0.39
341.396	0.39
341.847	0.4
342.299	0.39
342.75	0.38
343.201	0.38
343.653	0.37
344.104	0.37
344.555	0.37
345.006	0.37
345.457	0.37
345.908	0.37
346.359	0.37
346.81	0.37
347.261	0.38
347.712	0.39
348.163	0.39
348.613	0.39
349.064	0.39
349.515	0.38
349.965	0.39
350.416	0.38
350.866	0.38
351.317	0.38
351.767	0.38
352.217	0.37
352.668	0.37
353.118	0.38
353.568	0.38
354.018	0.39
354.468	0.39
354.918	0.4
355.368	0.41
355.818	0.41
356.268	0.42
356.718	0.42
357.168	0.42
357.617	0.42
358.067	0.41
358.517	0.41
358.966	0.41
359.416	0.42
359.865	0.42
360.315	0.42
360.764	0.42
361.213	0.41
361.663	0.41
362.112	0.42
362.561	0.42
363.01	0.43
363.459	0.43
363.908	0.43
364.357	0.43
364.806	0.43
365.255	0.43
365.703	0.43
366.152	0.44
366.601	0.45
367.05	0.46
367.498	0.46
367.947	0.45
368.395	0.46
368.844	0.46
369.292	0.46
369.74	0.46
370.189	0.46
370.637	0.45
371.085	0.46
371.533	0.46
371.981	0.45
372.429	0.45
372.877	0.45
373.325	0.43
373.773	0.43
374.221	0.43
374.669	0.43
375.116	0.43
375.564	0.43
376.012	0.43
376.459	0.43
376.907	0.43
377.354	0.43
377.801	0.44
378.249	0.46
378.696	0.46
379.143	0.47
379.591	0.48
380.038	0.49
380.485	0.51
380.932	0.52
381.379	0.53
381.826	0.55
382.273	0.57
382.72	0.59
383.166	0.61
383.613	0.64
384.06	0.67
384.506	0.7
384.953	0.76
385.4	0.81
385.846	0.88
386.292	0.97
386.739	1.04
387.185	1.14
387.631	1.24
388.078	1.33
388.524	1.38
388.97	1.44
389.416	1.52
389.862	1.63
390.308	1.76
390.754	1.93
391.2	2.09
391.645	2.25
392.091	2.35
392.537	2.47
392.983	2.66
393.428	2.97
393.874	3.34
394.319	3.75
394.765	4.17
395.21	4.59
395.655	5.02
396.101	5.49
396.546	6.03
396.991	6.65
397.436	7.31
397.881	7.99
398.326	8.64
398.771	9.25
399.216	9.84
399.661	10.41
400.106	10.94
400.551	11.41
400.995	11.84
401.44	12.23
401.885	12.6
402.329	13
402.774	13.4
403.218	13.84
403.663	14.33
404.107	14.88
404.551	15.42
404.995	15.93
405.44	16.43
405.884	16.95
406.328	17.56
406.772	18.27
407.216	18.98
407.66	19.65
408.104	20.26
408.547	20.79
408.991	21.26
409.435	21.77
409.879	22.37
410.322	23.06
410.766	23.77
411.209	24.45
411.653	25.04
412.096	25.59
412.54	26.1
412.983	26.64
413.426	27.21
413.869	27.83
414.312	28.43
414.756	28.98
415.199	29.46
415.642	29.89
416.085	30.28
416.527	30.61
416.97	30.84
417.413	30.94
417.856	30.99
418.298	30.96
418.741	31.01
419.184	31.12
419.626	31.25
420.069	31.45
420.511	31.66
420.953	31.88
421.396	32.16
421.838	32.57
422.28	33.11
422.722	33.64
423.164	34.21
423.606	34.68
424.048	35.02
424.49	35.22
424.932	35.12
425.374	34.68
425.816	33.99
426.258	33.2
426.699	32.63
427.141	32.51
427.582	32.82
428.024	33.36
428.465	33.98
428.907	34.57
429.348	35.14
429.789	35.87
430.231	37.04
430.672	38.7
431.113	40.63
431.554	42.56
431.995	44.06
432.436	45.16
432.877	45.99
433.318	46.66
433.759	47.39
434.2	48.26
434.64	49.36
435.081	50.45
435.522	51.39
435.962	52.2
436.403	52.82
436.843	53.4
437.284	54.01
437.724	54.65
438.164	55.45
438.604	56.37
439.045	57.37
439.485	58.31
439.925	59.08
440.365	59.76
440.805	60.2
441.245	60.56
441.685	60.95
442.125	61.45
442.564	62.07
443.004	62.75
443.444	63.46
443.883	64.17
444.323	64.89
444.762	65.68
445.202	66.53
445.641	67.55
446.081	68.79
446.52	70.04
446.959	71.21
447.398	72.1
447.837	72.75
448.276	73.02
448.716	73.26
449.154	73.49
449.593	73.69
450.032	73.79
450.471	73.73
450.91	73.53
451.349	73.3
451.787	73.13
452.226	73.05
452.664	73.05
453.103	73.19
453.541	73.28
453.98	73.17
454.418	73
454.856	72.76
455.295	72.55
455.733	72.37
456.171	72.25
456.609	72.1
457.047	72.01
457.485	72.01
457.923	72.12
458.361	72.32
458.798	72.7
459.236	73.04
459.674	73.38
460.111	73.72
460.549	74.06
460.987	74.4
461.424	74.78
461.862	75.2
462.299	75.51
462.736	75.84
463.173	76.26
463.611	76.79
464.048	77.48
464.485	78.3
464.922	79.24
465.359	80.11
465.796	80.95
466.233	81.75
466.67	82.58
467.106	83.74
467.543	84.97
467.98	86.15
468.416	87.22
468.853	88.14
469.29	89.07
469.726	89.93
470.162	90.94
470.599	91.93
471.035	92.87
471.471	93.57
471.907	93.95
472.344	94.22
472.78	94.52
473.216	94.86
473.652	95.17
474.088	95.42
474.523	95.59
474.959	95.65
475.395	95.72
475.831	95.73
476.266	95.85
476.702	95.97
477.138	96.03
477.573	95.96
478.008	95.72
478.444	95.42
478.879	94.98
479.314	94.46
479.75	93.85
480.185	93.11
480.62	92.17
481.055	90.81
481.49	88.97
481.925	86.9
482.36	85.03
482.795	83.42
483.229	82.18
483.664	81.21
484.099	80.39
484.534	79.71
484.968	79.17
485.403	78.95
485.837	79.15
486.271	79.76
486.706	80.5
487.14	80.96
487.574	81.17
488.009	81.16
488.443	81.13
488.877	81.08
489.311	81.04
489.745	81.05
490.179	81.08
490.613	81.08
491.046	81.1
491.48	81.18
491.914	81.47
492.348	81.87
492.781	82.28
493.215	82.57
493.648	82.78
494.082	82.87
494.515	82.94
494.948	82.96
495.382	82.97
495.815	82.89
496.248	82.77
496.681	82.58
497.114	82.36
497.547	82.15
497.98	82.08
498.413	82.18
498.846	82.41
499.279	82.59
499.711	82.66
500.144	82.81
500.577	83.19
501.009	83.8
501.442	84.53
501.874	85.32
502.306	86.08
502.739	86.65
503.171	87.13
503.603	87.52
504.036	87.97
504.468	88.62
504.9	89.25
505.332	89.73
505.764	90.1
506.196	90.4
506.627	90.73
507.059	91.18
507.491	91.71
507.923	92.24
508.354	92.76
508.786	93.17
509.217	93.39
509.649	93.61
510.08	93.81
510.512	94.03
510.943	94.34
511.374	94.56
511.805	94.51
512.237	94.13
512.668	93.58
513.099	93.1
513.53	92.73
513.961	92.48
514.391	92.32
514.822	92.38
515.253	92.58
515.684	92.77
516.114	93.06
516.545	93.52
516.975	94.49
517.406	95.63
517.836	96.73
518.267	97.7
518.697	98.59
519.127	99.46
519.558	100.23
519.988	100.89
520.418	101.5
520.848	102.03
521.278	102.45
521.708	102.45
522.138	102.23
522.567	101.95
522.997	101.76
523.427	101.78
523.857	101.81
524.286	101.93
524.716	102.08
525.145	102.17
525.575	102.25
526.004	102.47
526.433	103.05
526.863	103.86
527.292	104.7
527.721	105.31
528.15	105.54
528.579	105.59
529.008	105.43
529.437	105.19
529.866	104.98
530.295	104.88
530.724	104.84
531.152	104.76
531.581	104.67
532.01	104.48
532.438	104.35
532.867	104.44
533.295	104.57
533.723	104.77
534.152	104.86
534.58	104.91
535.008	104.74
535.436	104.39
535.865	103.89
536.293	103.35
536.721	103.03
537.149	102.9
537.576	102.83
538.004	102.78
538.432	102.72
538.86	102.75
539.287	102.86
539.715	103.14
540.143	103.53
540.57	104.06
540.998	104.71
541.425	105.28
541.852	105.81
542.28	106.3
542.707	106.73
543.134	107.1
543.561	107.37
543.988	107.69
544.415	108.06
544.842	108.43
545.269	108.82
545.696	109.14
546.123	109.5
546.549	109.86
546.976	110.17
547.403	110.55
547.829	111.01
548.256	111.48
548.682	111.83
549.108	112.18
549.535	112.49
549.961	112.79
550.387	113.15
550.813	113.5
551.24	113.78
551.666	114.04
552.092	114.19
552.518	114.22
552.943	114.28
553.369	114.34
553.795	114.28
554.221	114.05
554.646	113.69
555.072	113.24
555.498	112.77
555.923	112.43
556.349	112.15
556.774	111.97
557.199	111.81
557.625	111.62
558.05	111.39
558.475	111.21
558.9	111.18
559.325	111.18
559.75	111.11
560.175	111.02
560.6	110.75
561.025	110.33
561.449	109.81
561.874	109.25
562.299	108.78
562.723	108.37
563.148	107.92
563.572	107.43
563.997	106.85
564.421	106.27
564.846	105.67
565.27	105.13
565.694	104.58
566.118	104.01
566.542	103.44
566.966	102.8
567.39	102.18
567.814	101.63
568.238	101.15
568.662	100.88
569.086	100.66
569.509	100.48
569.933	100.3
570.357	100.14
570.78	100.02
571.204	99.92
571.627	99.89
572.05	99.86
572.474	99.78
572.897	99.67
573.32	99.47
573.743	99.27
574.166	99
574.589	98.77
575.012	98.7
575.435	98.72
575.858	98.87
576.281	99.05
576.704	99.23
577.126	99.43
577.549	99.71
577.972	100.1
578.394	100.5
578.817	101.02
579.239	101.63
579.661	102.15
580.084	102.63
580.506	103
580.928	103.27
581.35	103.52
581.772	103.73
582.194	103.89
582.616	104.07
583.038	104.29
583.46	104.48
583.882	104.44
584.303	104.23
584.725	103.81
585.147	103.35
585.568	103
585.99	102.87
586.411	102.94
586.833	103.01
587.254	103.08
587.675	103.17
588.096	103.31
588.518	103.58
588.939	104.07
589.36	104.77
589.781	105.58
590.202	106.28
590.623	106.76
591.043	107.07
591.464	107.34
591.885	107.58
592.305	107.78
592.726	107.93
593.147	108.08
593.567	108.14
593.987	108.16
594.408	108.15
594.828	108.11
595.248	108.13
595.669	108.04
596.089	107.92
596.509	107.72
596.929	107.44
597.349	107.06
597.769	106.7
598.189	106.4
598.608	106.17
599.028	105.96
599.448	105.84
599.867	105.71
600.287	105.61
600.706	105.47
601.126	105.37
601.545	105.27
601.965	105.28
602.384	105.29
602.803	105.26
603.222	105.18
603.641	105.07
604.061	104.88
604.48	104.65
604.898	104.42
605.317	104.22
605.736	103.97
606.155	103.76
606.574	103.54
606.992	103.38
607.411	103.18
607.829	102.98
608.248	102.81
608.666	102.68
609.085	102.5
609.503	102.26
609.921	102.13
610.339	102.05
610.758	101.95
611.176	101.79
611.594	101.52
612.012	101.26
612.43	100.99
612.847	100.76
613.265	100.56
613.683	100.48
614.101	100.44
614.518	100.4
614.936	100.35
615.353	100.32
615.771	100.35
616.188	100.47
616.606	100.61
617.023	100.76
617.44	100.82
617.857	100.79
618.274	100.72
618.691	100.61
619.108	100.4
619.525	100.19
619.942	99.95
620.359	99.65
620.776	99.23
621.192	98.79
621.609	98.43
622.026	98.13
622.442	97.91
622.859	97.63
623.275	97.37
623.691	97.09
624.108	96.8
624.524	96.55
624.94	96.33
625.356	96.15
625.772	96.06
626.188	95.92
626.604	95.76
627.02	95.53
627.436	95.35
627.852	95.22
628.268	95.22
628.683	95.26
629.099	95.32
629.514	95.34
629.93	95.41
630.345	95.47
630.761	95.58
631.176	95.66
631.591	95.76
632.007	95.86
632.422	95.98
632.837	96.07
633.252	96.14
633.667	96.24
634.082	96.39
634.497	96.53
634.911	96.58
635.326	96.55
635.741	96.51
636.155	96.45
636.57	96.44
636.984	96.33
637.399	96.19
637.813	96.04
638.228	95.87
638.642	95.7
639.056	95.49
639.47	95.38
639.884	95.33
640.298	95.27
640.712	95.22
641.126	95.12
641.54	95.08
641.954	94.97
642.368	94.84
642.781	94.7
643.195	94.48
643.609	94.32
644.022	94.11
644.436	93.87
644.849	93.55
645.262	93.21
645.676	92.9
646.089	92.7
646.502	92.59
646.915	92.47
647.328	92.33
647.741	92.24
648.154	92.18
648.567	92.14
648.98	92.13
649.393	92.22
649.805	92.36
650.218	92.41
650.631	92.27
651.043	91.96
651.456	91.28
651.868	90.29
652.28	89.25
652.693	88.29
653.105	87.54
653.517	87
653.929	86.59
654.341	86.32
654.753	86.2
655.165	86.17
655.577	86.32
655.989	86.89
656.401	87.74
656.813	88.74
657.224	89.64
657.636	90.32
658.047	90.82
658.459	91.15
658.87	91.32
659.282	91.38
659.693	91.41
660.104	91.42
660.515	91.39
660.926	91.45
661.338	91.41
661.749	91.33
662.159	91.24
662.57	91.07
662.981	90.95
663.392	90.82
663.803	90.71
664.213	90.68
664.624	90.62
665.035	90.51
665.445	90.39
665.855	90.22
666.266	90.04
666.676	89.85
667.086	89.72
667.497	89.54
667.907	89.36
668.317	89.23
668.727	89.03
669.137	88.87
669.547	88.74
669.956	88.59
670.366	88.5
670.776	88.36
671.186	88.25
671.595	88.2
672.005	88.17
672.414	88.16
672.824	88.11
673.233	88.13
673.642	88.09
674.052	88.1
674.461	88.11
674.87	88.1
675.279	88.19
675.688	88.24
676.097	88.27
676.506	88.31
676.915	88.38
677.323	88.49
677.732	88.6
678.141	88.71
678.549	88.83
678.958	88.97
679.366	89.06
679.775	89.11
680.183	89.16
680.592	89.2
681	89.26
681.408	89.3
681.816	89.15
682.224	88.58
682.632	87.58
683.04	86.1
683.448	84.63
683.856	83.37
684.264	82.24
684.671	81.17
685.079	80.19
685.487	79.27
685.894	78.49
686.302	77.95
686.709	77.92
687.116	78.47
687.524	79.55
687.931	80.77
688.338	81.89
688.745	82.96
689.152	84.02
689.559	85.01
689.966	85.9
690.373	86.71
690.78	87.44
691.187	88.12
691.593	88.69
692	89.29
692.407	89.77
692.813	90.27
693.22	90.68
693.626	91.08
694.032	91.42
694.439	91.78
694.845	92.07
695.251	92.34
695.657	92.56
696.063	92.75
696.469	92.76
696.875	92.73
697.281	92.66
697.687	92.57
698.093	92.45
698.498	92.44
698.904	92.44
699.31	92.5
699.715	92.63
700.12	92.77
700.526	93.01
700.931	93.27
701.337	93.54
701.742	93.81
702.147	94.13
702.552	94.45
702.957	94.73
703.362	95.03
703.767	95.29
704.172	95.47
704.577	95.61
704.981	95.7
705.386	95.78
705.791	95.94
706.195	96.06
706.6	96.14
707.004	96.25
707.408	96.32
707.813	96.37
708.217	96.36
708.621	96.4
709.025	96.44
709.43	96.44
709.834	96.53
710.237	96.49
710.641	96.47
711.045	96.4
711.449	96.36
711.853	96.24
712.256	95.97
712.66	95.53
713.064	94.87
713.467	94.07
713.87	93.07
714.274	91.96
714.677	90.72
715.08	89.44
715.484	88.21
715.887	86.99
716.29	85.98
716.693	85.27
717.096	85.04
717.499	85.21
717.901	85.58
718.304	86.2
718.707	86.83
719.109	87.54
719.512	88.17
719.915	88.72
720.317	89.2
720.719	89.51
721.122	89.66
721.524	89.55
721.926	89.34
722.328	89.02
722.731	88.7
723.133	88.37
723.535	88.17
723.937	88.05
724.338	87.95
724.74	87.88
725.142	87.78
725.544	87.76
725.945	87.76
726.347	87.69
726.748	87.6
727.15	87.6
727.551	87.71
727.952	87.85
728.354	88.16
728.755	88.49
729.156	88.91
729.557	89.46
729.958	89.92
730.359	90.31
730.76	90.66
731.161	91.04
731.562	91.33
731.962	91.54
732.363	91.64
732.763	91.68
733.164	91.7
733.564	91.67
733.965	91.51
734.365	91.25
734.766	90.99
735.166	90.72
735.566	90.46
735.966	90.26
736.366	90.02
736.766	89.85
737.166	89.59
737.566	89.35
737.966	89.09
738.365	88.93
738.765	88.85
739.165	88.82
739.564	88.84
739.964	88.81
740.363	88.68
740.763	88.65
741.162	88.64
741.561	88.68
741.96	88.71
742.36	88.7
742.759	88.62
743.158	88.53
743.557	88.46
743.955	88.37
744.354	88.29
744.753	88.24
745.152	88.05
745.55	87.84
745.949	87.6
746.348	87.36
746.746	87.11
747.144	86.89
747.543	86.69
747.941	86.49
748.339	86.25
748.737	86.03
749.136	85.81
749.534	85.73
749.932	85.63
750.33	85.5
750.727	85.36
751.125	85.26
751.523	85.12
751.921	84.96
752.318	84.8
752.716	84.6
753.113	84.4
753.511	84.17
753.908	83.88
754.305	83.46
754.703	82.7
755.1	81.1
755.497	78.32
755.894	74.36
756.291	69.52
756.688	64.34
757.085	59.41
757.482	54.88
757.878	50.68
758.275	46.52
758.672	42.37
759.068	38.51
759.465	35.61
759.861	34.14
760.258	34.18
760.654	35.39
761.05	37.28
761.447	39.31
761.843	41.25
762.239	43.23
762.635	45.51
763.031	48.23
763.427	51.29
763.822	54.44
764.218	57.59
764.614	60.58
765.01	63.39
765.405	65.93
765.801	68.2
766.196	70.21
766.592	71.87
766.987	73.25
767.382	74.3
767.778	75.11
768.173	75.72
768.568	76.06
768.963	76.37
769.358	76.57
769.753	76.74
770.148	76.8
770.542	76.75
770.937	76.69
771.332	76.58
771.726	76.49
772.121	76.42
772.515	76.36
772.91	76.32
773.304	76.14
773.699	75.98
774.093	75.76
774.487	75.59
774.881	75.48
775.275	75.35
775.669	75.16
776.063	74.95
776.457	74.71
776.851	74.44
777.245	74.24
777.638	74.08
778.032	73.9
778.425	73.77
778.819	73.61
779.212	73.3
779.606	73.02
779.999	72.77
780.392	72.59
780.786	72.38
781.179	72.18
781.572	71.9
781.965	71.63
782.358	71.33
782.751	71.04
783.143	70.73
783.536	70.54
783.929	70.29
784.322	70.05
784.714	69.73
785.107	69.38
785.499	69.01
785.891	68.67
786.284	68.28
786.676	67.97
787.068	67.53
787.46	67.1
787.852	66.67
788.245	66.27
788.636	65.81
789.028	65.41
789.42	64.98
789.812	64.53
790.204	64.06
790.595	63.68
790.987	63.25
791.378	62.94
791.77	62.68
792.161	62.36
792.553	62.07
792.944	61.84
793.335	61.6
793.726	61.38
794.117	61.17
794.508	61
794.899	60.78
795.29	60.51
795.681	60.22
796.072	59.87
796.463	59.56
796.853	59.22
797.244	58.8
797.634	58.39
798.025	57.99
798.415	57.6
798.806	57.18
799.196	56.75
799.586	56.37
799.976	55.95
800.366	55.51
800.756	55.08
801.146	54.66
801.536	54.31
801.926	53.94
802.316	53.59
802.706	53.25
803.095	52.89
803.485	52.53
803.874	52.13
804.264	51.78
804.653	51.38
805.043	50.99
805.432	50.55
805.821	50.1
806.21	49.63
806.599	49.17
806.988	48.7
807.377	48.22
807.766	47.73
808.155	47.22
808.544	46.68
808.933	46.17
809.321	45.61
809.71	45.02
810.098	44.35
810.487	43.65
810.875	42.9
811.264	42.1
811.652	41.3
812.04	40.44
812.428	39.6
812.816	38.83
813.204	38.07
813.592	37.34
813.98	36.65
814.368	36.02
814.756	35.47
815.144	34.96
815.531	34.51
815.919	34.16
816.306	33.93
816.694	33.79
817.081	33.61
817.469	33.46
817.856	33.26
818.243	32.96
818.63	32.6
819.017	32.18
819.404	31.8
819.791	31.53
820.178	31.26
820.565	30.98
820.952	30.65
821.339	30.34
821.725	30.04
822.112	29.84
822.498	29.74
822.885	29.71
823.271	29.67
823.657	29.58
824.044	29.32
824.43	29.05
824.816	28.73
825.202	28.41
825.588	28.11
825.974	27.8
826.36	27.47
826.746	27.15
827.132	26.81
827.517	26.53
827.903	26.27
828.289	26.08
828.674	25.85
829.06	25.64
829.445	25.43
829.83	25.21
830.216	25.01
830.601	24.83
830.986	24.68
831.371	24.54
831.756	24.4
832.141	24.27
832.526	24.14
832.911	24.04
833.295	23.95
833.68	23.83
834.065	23.73
834.449	23.6
834.834	23.45
835.218	23.31
835.603	23.17
835.987	23.05
836.371	22.9
836.755	22.75
837.139	22.62
837.524	22.44
837.908	22.3
838.291	22.13
838.675	21.99
839.059	21.88
839.443	21.72
839.827	21.56
840.21	21.43
840.594	21.28
840.977	21.14
841.361	20.98
841.744	20.87
842.127	20.73
842.511	20.61
842.894	20.48
843.277	20.36
843.66	20.23
844.043	20.12
844.426	19.99
844.809	19.85
845.191	19.7
845.574	19.5
845.957	19.27
846.339	19.08
846.722	18.89
847.104	18.73
847.487	18.54
847.869	18.39
848.252	18.22
848.634	18.06
849.016	17.91
849.398	17.71
849.78	17.5
850.162	17.29
850.544	17.06
850.926	16.86
851.307	16.68
851.689	16.52
852.071	16.38
852.452	16.24
852.834	16.13
853.215	16.03
853.597	15.99
853.978	16.02
854.359	16.1
854.741	16.15
855.122	16.19
855.503	16.19
855.884	16.16
856.265	16.11
856.646	16.05
857.026	15.97
857.407	15.89
857.788	15.8
858.169	15.71
858.549	15.62
858.93	15.53
859.31	15.43
859.69	15.34
860.071	15.26
860.451	15.16
860.831	15.07
861.211	14.95
861.591	14.8
861.971	14.62
862.351	14.41
862.731	14.21
863.111	14.03
863.491	13.87
863.87	13.73
864.25	13.59
864.629	13.46
865.009	13.32
865.388	13.21
865.768	13.16
866.147	13.17
866.526	13.19
866.905	13.21
867.284	13.21
867.663	13.21
868.042	13.18
868.421	13.14
868.8	13.12
869.179	13.1
869.558	13.08
869.936	13.06
870.315	13
870.693	12.95
871.072	12.87
871.45	12.8
871.828	12.73
872.207	12.66
872.585	12.6
872.963	12.54
873.341	12.48
873.719	12.45
874.097	12.38
874.475	12.34
874.853	12.3
875.23	12.25
875.608	12.21
875.986	12.16
876.363	12.11
876.741	12.04
877.118	11.97
877.495	11.91
877.873	11.83
878.25	11.77
878.627	11.73
879.004	11.65
879.381	11.6
879.758	11.55
880.135	11.49
880.512	11.44
880.889	11.4
881.265	11.37
881.642	11.3
882.019	11.25
882.395	11.18
882.772	11.1
883.148	11.04
883.524	10.98
883.901	10.94
884.277	10.89
884.653	10.84
885.029	10.8
885.405	10.75
885.781	10.71
886.157	10.68
886.532	10.65
886.908	10.62
887.284	10.59
887.659	10.54
888.035	10.48
888.411	10.42
888.786	10.36
889.161	10.3
889.537	10.23
889.912	10.16
890.287	10.09
890.662	10
891.037	9.9
891.412	9.78
891.787	9.67
892.162	9.56
892.536	9.45
892.911	9.32
893.286	9.19
893.66	9.06
894.035	8.93
894.409	8.79
894.784	8.65
895.158	8.53
895.532	8.41
895.906	8.29
896.281	8.18
896.655	8.06
897.029	7.96
897.402	7.87
897.776	7.79
898.15	7.7
898.524	7.63
898.898	7.6
899.271	7.59
899.645	7.61
900.018	7.61
900.392	7.65
900.765	7.69
901.138	7.76
901.511	7.81
901.884	7.87
902.258	7.93
902.631	7.98
903.003	8
903.376	7.99
903.749	7.96
904.122	7.95
904.495	7.87
904.867	7.8
905.24	7.71
905.612	7.63
905.985	7.55
906.357	7.47
906.729	7.4
907.102	7.35
907.474	7.29
907.846	7.23
908.218	7.2
908.59	7.17
908.962	7.15
909.334	7.13
909.705	7.1
910.077	7.06
910.449	7.05
910.82	7.03
911.192	7.01
911.563	6.97
911.935	6.93
912.306	6.89
912.677	6.89
913.048	6.85
913.419	6.83
913.79	6.8
914.161	6.77
914.532	6.72
914.903	6.7
915.274	6.67
915.645	6.71
916.015	6.74
916.386	6.75
916.756	6.74
917.127	6.76
917.497	6.79
917.868	6.82
918.238	6.86
918.608	6.91
918.978	6.94
919.348	6.95
919.718	6.91
920.088	6.89
920.458	6.88
920.828	6.86
921.198	6.85
921.567	6.8
921.937	6.78
922.306	6.77
922.676	6.73
923.045	6.7
923.415	6.68
923.784	6.7
924.153	6.69
924.522	6.66
924.891	6.61
925.26	6.56
925.629	6.53
925.998	6.45
926.367	6.38
926.736	6.28
927.104	6.17
927.473	6.06
927.842	5.88
928.21	5.7
928.578	5.53
928.947	5.36
929.315	5.19
929.683	5
930.051	4.85
930.42	4.65
930.788	4.47
931.156	4.3
931.523	4.12
931.891	4
932.259	3.91
932.627	3.8
932.994	3.74
933.362	3.69
933.729	3.62
934.097	3.58
934.464	3.59
934.831	3.61
935.199	3.68
935.566	3.83
935.933	3.91
936.3	4
936.667	4.18
937.034	4.33
937.401	4.43
937.767	4.67
938.134	4.81
938.501	5
938.867	5.23
939.234	5.41
939.6	5.47
939.967	5.63
940.333	5.72
940.699	5.78
941.065	5.76
941.431	5.81
941.798	5.78
942.163	5.84
942.529	5.75
942.895	5.69
943.261	5.59
943.627	5.56
943.992	5.52
944.358	5.49
944.723	5.4
945.089	5.39
945.454	5.4
945.82	5.39
946.185	5.34
946.55	5.37
946.915	5.29
947.28	5.26
947.645	5.21
948.01	5.17
948.375	5.14
948.74	5.13
949.104	5.17
949.469	5.13
949.834	5.07
950.198	5.08
950.562	5.08
950.927	5.06
951.291	5.08
951.655	5.07
952.02	4.99
952.384	5
952.748	4.92
953.112	4.81
953.476	4.71
953.839	4.72
954.203	4.62
954.567	4.56
954.931	4.54
955.294	4.54
955.658	4.48
956.021	4.51
956.385	4.52
956.748	4.58
957.111	4.6
957.474	4.63
957.837	4.6
958.2	4.65
958.563	4.68
958.926	4.71
959.289	4.65
959.652	4.7
960.015	4.68
960.377	4.67
960.74	4.67
961.102	4.7
961.465	4.74
961.827	4.72
962.189	4.68
962.552	4.66
962.914	4.61
963.276	4.59
963.638	4.57
964	4.65
964.362	4.65
964.724	4.66
965.085	4.7
965.447	4.72
965.809	4.79
966.17	4.89
966.532	4.96
966.893	5.05
967.255	5.13
967.616	5.18
967.977	5.13
968.338	5.17
968.699	5.23
969.061	5.25
969.421	5.29
969.782	5.31
970.143	5.3
970.504	5.31
970.865	5.28
971.225	5.28
971.586	5.32
971.946	5.37
972.307	5.35
972.667	5.32
973.027	5.34
973.388	5.29
973.748	5.23
974.108	5.21
974.468	5.18
974.828	5.23
975.188	5.22
975.548	5.2
975.907	5.2
976.267	5.24
976.627	5.24
976.986	5.17
977.346	5.22
977.705	5.3
978.064	5.31
978.424	5.36
978.783	5.35
979.142	5.4
979.501	5.47
979.86	5.43
980.219	5.38
980.578	5.41
980.937	5.45
981.296	5.52
981.654	5.56
982.013	5.58
982.371	5.62
982.73	5.62
983.088	5.61
983.447	5.58
983.805	5.67
984.163	5.67
984.521	5.68
984.879	5.77
985.237	5.73
985.595	5.76
985.953	5.82
986.311	5.83
986.669	5.79
987.026	5.84
987.384	5.87
987.741	5.94
988.099	6
988.456	6.11
988.814	6.1
989.171	6.17
989.528	6.17
989.885	6.13
990.242	6.09
990.599	6.16
990.956	6.2
991.313	6.17
991.67	6.18
992.027	6.25
992.383	6.23
992.74	6.27
993.096	6.25
993.453	6.37
993.809	6.41
994.165	6.46
994.522	6.47
994.878	6.45
995.234	6.47
995.59	6.34
995.946	6.3
996.302	6.28
996.658	6.34
997.013	6.39
997.369	6.28
997.725	6.28
998.08	6.28
998.436	6.28
998.791	6.23
999.147	6.28
999.502	6.3
999.857	6.43
1000.212	6.35
1000.567	6.26
1000.922	6.23
1001.277	6.19
1001.632	6.3
1001.987	6.25
1002.342	6.37
1002.696	6.4
1003.051	6.33
1003.406	6.39
1003.76	6.37
1004.114	6.51
1004.469	6.66
1004.823	6.7
1005.177	6.92
1005.531	6.9
1005.885	7.04
1006.239	6.9
1006.593	7
1006.947	7.1
1007.301	7.25
1007.655	7.35
1008.008	7.28
1008.362	7.26
1008.715	7.21
1009.069	7.15
1009.422	7.01
1009.776	7.05
1010.129	7.19
1010.482	7.35
1010.835	7.41
1011.188	7.31
1011.541	7.13
1011.894	7.25
1012.247	7.34
1012.6	7.53
1012.952	7.45
1013.305	7.57
1013.657	7.52
1014.01	7.73
1014.362	7.69
1014.715	7.71
1015.067	7.9
1015.419	8.13
1015.771	8.38
1016.123	8.61
1016.475	8.6
1016.827	8.95
1017.179	9.21
1017.531	9.58
1017.883	9.44
1018.234	9.53
1018.586	9.58
1018.938	9.3
1019.289	8.96
1019.64	8.96
1019.992	8.77
1020.343	8.73
1020.694	8.44
1021.045	8.4
1021.396	8.22
1021.747	8.38
1022.098	8.78
1022.449	9.09
1022.8	9.41
1023.151	9.77
1023.501	9.77
1023.852	9.94
1024.202	10.42
1024.553	10.69
1024.903	10.95
1025.253	11.1
1025.604	11.12
1025.954	10.76
1026.304	11.07
1026.654	11.4
1027.004	11.52
1027.354	11.63
1027.703	11.76
1028.053	11.45
1028.403	11.58
1028.753	11.28
1029.102	11.4
1029.452	11.59
1029.801	11.86
1030.15	11.61
1030.499	11.53
897.758	593.29
901.051	597.63
904.343	603.92
907.636	593.01
910.928	583.97
914.22	597.29
917.511	583.84
920.803	553.48
924.094	529.35
927.384	530.98
930.675	515.25
933.965	510.64
937.255	512.42
940.544	488.99
943.834	468.66
947.123	460.04
950.411	434
953.7	428.54
956.988	415.08
960.276	395.95
963.563	391.93
966.851	370.51
970.138	362.41
973.424	336.01
976.711	333.61
979.997	321.53
983.283	314.81
986.568	303.58
989.853	295.56
993.138	285.79
996.423	283.78
999.708	274.38
1002.992	274.91
1006.275	267.68
1009.559	266.19
1012.842	256.92
1016.125	248.38
1019.408	242.64
1022.69	241.11
1025.972	238.34
1029.254	231.75
1032.536	226.97
1035.817	219.64
1039.098	216.78
1042.379	210.61
1045.659	207.7
1048.939	205.06
1052.219	202.21
1055.498	197.88
1058.778	193.79
1062.057	190.51
1065.335	189.88
1068.614	186.22
1071.892	183.77
1075.17	179.7
1078.447	178.68
1081.724	176.51
1085.001	173.31
1088.278	173.09
1091.554	172.9
1094.83	171.11
1098.106	167.76
1101.382	166.57
1104.657	166.86
1107.932	165.64
1111.206	165.53
1114.481	162.12
1117.755	160.7
1121.029	160.06
1124.302	156.94
1127.575	155.06
1130.848	154.65
1134.121	152.95
1137.393	152.31
1140.665	150.2
1143.937	148.68
1147.208	146.62
1150.48	145.87
1153.75	145.24
1157.021	143.69
1160.291	143.57
1163.561	142.96
1166.831	141.44
1170.101	141.2
1173.37	140.3
1176.639	139.18
1179.907	138.75
1183.176	138.14
1186.444	138.62
1189.711	137.73
1192.979	138.88
1196.246	138.42
1199.513	137.74
1202.78	138.57
1206.046	138.85
1209.312	138.75
1212.578	139.31
1215.843	142.21
1219.108	142.66
1222.373	145.03
1225.638	147.05
1228.902	150.72
1232.166	156.34
1235.43	159.43
1238.693	162.96
1241.956	167.1
1245.219	172.76
1248.482	174.22
1251.744	173.73
1255.006	173.28
1258.268	169.66
1261.529	168.89
1264.79	163.04
1268.051	159.9
1271.312	157.67
1274.572	155.37
1277.832	150.55
1281.092	147.55
1284.351	144.78
1287.61	144.13
1290.869	144.61
1294.128	143.42
1297.386	142.15
1300.644	141.8
1303.902	140.6
1307.159	140.34
1310.416	140.53
1313.673	143.06
1316.93	144.21
1320.186	146.37
1323.442	147.96
1326.697	150.99
1329.953	152.31
1333.208	158.37
1336.463	165.27
1339.717	168.86
1342.972	177.55
1346.226	182.3
1349.479	183.76
1352.733	192.5
1355.986	196.3
1359.238	200.85
1362.491	201.75
1365.743	210.56
1368.995	212.37
1372.247	210.89
1375.498	209.27
1378.749	214.47
1382	215.67
1385.251	214.59
1388.501	214.42
1391.751	217.79
1395	217
1398.25	218.59
1401.499	216.5
1404.748	214.88
1407.996	212.19
1411.244	212.23
1414.492	208.67
1417.74	202.71
1420.987	199.25
1424.234	194.9
1427.481	186.88
1430.728	181.62
1433.974	176.14
1437.22	170.02
1440.465	163.61
1443.711	158.69
1446.956	154.35
1450.201	148.13
1453.445	140.8
1456.689	135.82
1459.933	132.58
1463.177	126.39
1466.42	123.42
1469.663	119.17
1472.906	115.83
1476.148	112.39
1479.391	110.09
1482.633	108.22
1485.874	106.12
1489.115	105.23
1492.356	103.47
1495.597	100.86
1498.838	101.46
1502.078	100.48
1505.318	100.31
1508.557	99.62
1511.797	99.02
1515.036	98.59
1518.274	97.59
1521.513	96.88
1524.751	96.19
1527.989	96.88
1531.227	96.65
1534.464	96.09
1537.701	95.46
1540.938	94.88
1544.174	94.37
1547.41	94.6
1550.646	93.77
1553.882	93.64
1557.117	93.49
1560.352	93.31
1563.587	92.18
1566.821	92.18
1570.055	91.5
1573.289	91.12
1576.523	91.33
1579.756	91.38
1582.989	91.44
1586.222	91.28
1589.454	91.6
1592.686	90.91
1595.918	90.82
1599.15	90.84
1602.381	91.09
1605.612	91.35
1608.843	91.15
1612.073	91.41
1615.303	91.7
1618.533	91.03
1621.762	92.03
1624.992	91.33
1628.221	91.49
1631.449	91.88
1634.678	92.04
1637.906	91.82
1641.134	91.82
1644.361	92.15
1647.588	91.64
1650.815	91.61
1654.042	91.84
1657.269	91.17
1660.495	91.97
1663.72	91.95
1666.946	91.98
1670.171	92.34
1673.396	93.46
1676.621	93.39
1679.845	93.26
1683.069	93.91
1686.293	93.42
1689.517	94.15
1692.74	94.41
1695.963	94.13
1699.185	94.75
1702.408	94.6
1705.63	94.4
1708.852	94.12
1712.073	94.5
1715.294	94.88
1718.515	95.23
1721.736	95.6
1724.956	95.58
1728.176	95.43
1731.396	96.02
1734.616	96
1737.835	96.24
1741.054	96.98
1744.272	96.36
1747.491	96.47
1750.709	97.45
1753.927	97.31
1757.144	97.79
1760.361	97.64
1763.578	97.92
1766.795	98.49
1770.011	98.83
1773.227	99.44
1776.443	99.59
1779.658	100.09
1782.874	101.35
1786.089	100.84
1789.303	101.25
1792.518	102.59
1795.732	102.96
1798.945	104.19
1802.159	104.29
1805.372	105.59
1808.585	106.14
1811.797	107.28
1815.01	108.63
1818.222	108.72
1821.434	109.71
1824.645	110.37
1827.856	110.98
1831.067	111.86
1834.278	113.92
1837.488	115.01
1840.698	115.71
1843.908	116.39
1847.117	117.51
1850.326	118.26
1853.535	118.2
1856.744	119.74
1859.952	121.21
1863.16	121.82
1866.368	120.88
1869.575	121.16
1872.782	121.05
1875.989	119.8
1879.196	119.81
1882.402	118.93
1885.608	119.76
1888.814	120.42
1892.019	121.63
1895.224	119.59
1898.429	119.47
1901.634	121.53
1904.838	121.12
1908.042	121.51
1911.246	122.61
1914.449	123.03
1917.652	121.55
1920.855	121.69
1924.058	120.97
1927.26	119.62
1930.462	121.06
1933.664	120.88
1936.865	120.16
1940.066	117.65
1943.267	118.51
1946.467	119.11
1949.668	119.33
1952.868	120.87
1956.067	120.21
1959.267	121.35
1962.466	121.85
1965.665	123.37
1968.863	124.97
1972.061	126
1975.259	129.5
1978.457	129.02
1981.654	129.63
1984.852	130.98
1988.048	132.52
1991.245	134.41
1994.441	136.45
1997.637	139.63
2000.833	142.06
2004.028	142.26
2007.223	148.6
2010.418	151.8
2013.613	159.18
2016.807	164.11
2020.001	166.2
2023.194	171.42
2026.388	177.59
2029.581	185.62
2032.774	192.67
2035.966	196.91
2039.158	203.76
2042.35	204.52
2045.542	208.74
2048.733	216.33
2051.924	219.03
2055.115	222.68
2058.306	224.09
2061.496	229.37
2064.686	230.34
2067.875	226.91
2071.065	229.07
2074.254	231.05
2077.442	237.59
2080.631	239.09
2083.819	239.16
2087.007	243.36
2090.195	248.66
2093.382	248.13
2096.569	247.87
2099.756	255.11
2102.942	260.68
2106.128	268.32
2109.314	268.03
2112.5	268.17
2115.685	266.66
2118.87	267.47
2122.055	270.76
2125.239	275.29
2128.424	283.7
2131.608	280.23
2134.791	276.02
2137.974	278.88
2141.157	279.29
2144.34	282.38
2147.523	288.1
2150.705	296.68
2153.887	293.77
2157.068	294.83
2160.25	300.53
2163.431	298.75
2166.611	304.38
2169.792	310.03
2172.972	312.84
2176.152	314.73
2179.331	321.05
2182.511	320.48
2185.69	323.57
2188.868	335.91
2192.047	344.24
2195.225	345.86
2198.403	350.92
2201.58	348.06
2204.758	362.46
2207.935	363.21
2211.111	372.61
2214.288	372.95
2217.464	377.22
2220.64	380.93
2223.815	382.85
2226.991	375.97
2230.166	380.48
2233.34	391.37
2236.515	400.98
2239.689	392.15
2242.863	399.91
2246.036	392.27
2249.209	405.73
2252.382	405.14
2255.555	418.01
2258.727	420.03
2261.9	435.9
2265.071	439.26
2268.243	435.35
2271.414	453.84
2274.585	462.69
2277.756	466.06
2280.926	486.4
2284.096	485
2287.266	488.5
2290.436	479.34
2293.605	489
2296.774	504.92
2299.942	505.68
2303.111	524.14
2306.279	527.41
2309.447	532.62
2312.614	532.55
2315.781	545.8
2318.948	548.35
2322.115	561.02
2325.281	592.36
2328.447	585.71
2331.613	589.61
2334.779	600.35
2337.944	604.77
2341.109	618.1
2344.274	624.94
2347.438	640.53
2350.602	645.68
2353.766	690.94
2356.929	689.84
2360.092	699.53
2363.255	707.82
2366.418	713.4
2369.58	726.82
2372.742	727.95
2375.904	723.15
2379.066	740.84
2382.227	788.88
2385.388	792.05
2388.548	750.66
2391.709	744.98
2394.869	765.79
2398.029	769.54
2401.188	768.12
2404.347	795.07
2407.506	820.93
2410.665	797.1
2413.823	799.08
2416.981	795.74
2420.139	755.67
2423.296	815.45
2426.453	861.55
2429.61	827.04
2432.767	882.03
2435.923	919.87
2439.079	870.75
2442.235	891.98
2445.391	910.42
2448.546	904.34
2451.701	957.95
2454.855	1019.73
2458.009	910.11
2461.163	930.55
2464.317	929.95
2467.471	909.01
2470.624	937.33
2473.777	931.03
2476.929	896.71
2480.082	953.95
2483.234	1002.64
2486.385	1013.7
2489.537	1039.37
2492.688	1144.65
2495.839	1122.89
2498.989	1160.1
2502.14	1163.69
2505.29	1111.05
2508.439	1223.07
2511.589	1262.51
2514.738	1234
2517.887	1218.72
2521.035	1131.18
2524.183	1112.91
2527.331	1099.74
2530.479	1076.66
2533.627	1098.24
