Data from N_2_div_oh_2n_065_Splice17_07.txt Node
Date: Sat Feb 29 14:03:46 EST 2020
User: sa697716
Spectrometer: FLMS03696
Trigger mode: 0
Integration Time (sec): 3.180400E-1
Scans to average: 20
Electric dark correction enabled: true
Nonlinearity correction enabled: true
Boxcar width: 5
XAxis mode: Wavelengths
Number of Pixels in Spectrum: 2048
>>>>>Begin Spectral Data<<<<<
187.83	90.09
188.298	79.37
188.766	94.3
189.233	88.45
189.701	99.79
190.169	95.5
190.636	92.75
191.104	86.66
191.571	256.14
192.039	160.09
192.506	135.71
192.974	3070.03
193.441	515.05
193.908	75.16
194.375	38.37
194.842	166.97
195.31	142.4
195.777	140.63
196.244	56.04
196.711	32.12
197.177	27.28
197.644	26.08
198.111	25.54
198.578	25.78
199.045	25.85
199.511	26.14
199.978	26.31
200.445	25.85
200.911	26.14
201.378	26.2
201.844	26.78
202.31	27.63
202.777	27.94
203.243	28.77
203.709	29.29
204.176	28.64
204.642	28.91
205.108	29.18
205.574	29.46
206.04	29.27
206.506	29.29
206.972	29.23
207.438	29.13
207.903	29.34
208.369	28.65
208.835	28.71
209.301	29.3
209.766	29.04
210.232	28.81
210.697	28.58
211.163	28.47
211.628	28.13
212.094	27.84
212.559	27.53
213.024	27.19
213.49	27.28
213.955	27.18
214.42	26.55
214.885	26.21
215.35	25.88
215.815	25.46
216.28	25.05
216.745	24.38
217.21	23.84
217.675	23.06
218.14	22.21
218.604	21.43
219.069	20.8
219.534	20.43
219.998	20.07
220.463	19.77
220.927	19.48
221.392	19.17
221.856	18.98
222.32	18.72
222.785	18.53
223.249	18.36
223.713	18.21
224.177	18
224.642	17.81
225.106	17.6
225.57	17.34
226.034	17.15
226.497	16.92
226.961	16.71
227.425	16.49
227.889	16.26
228.353	16.07
228.816	15.89
229.28	15.7
229.744	15.53
230.207	15.35
230.671	15.2
231.134	15
231.597	14.82
232.061	14.64
232.524	14.5
232.987	14.34
233.45	14.18
233.914	14
234.377	13.84
234.84	13.66
235.303	13.5
235.766	13.33
236.229	13.19
236.691	13.07
237.154	12.94
237.617	12.79
238.08	12.67
238.542	12.53
239.005	12.41
239.468	12.29
239.93	12.19
240.393	12.07
240.855	11.96
241.317	11.84
241.78	11.73
242.242	11.61
242.704	11.5
243.166	11.39
243.629	11.3
244.091	11.2
244.553	11.1
245.015	11
245.477	10.9
245.939	10.8
246.4	10.71
246.862	10.61
247.324	10.52
247.786	10.44
248.247	10.36
248.709	10.26
249.17	10.18
249.632	10.1
250.093	10
250.555	9.93
251.016	9.84
251.477	9.76
251.939	9.69
252.4	9.62
252.861	9.54
253.322	9.46
253.783	9.4
254.244	9.33
254.705	9.27
255.166	9.23
255.627	9.18
256.088	9.13
256.549	9.08
257.009	9.03
257.47	8.98
257.931	8.95
258.391	8.9
258.852	8.85
259.312	8.8
259.773	8.75
260.233	8.68
260.694	8.63
261.154	8.58
261.614	8.53
262.074	8.48
262.534	8.42
262.994	8.38
263.455	8.34
263.915	8.3
264.374	8.27
264.834	8.24
265.294	8.21
265.754	8.18
266.214	8.15
266.673	8.13
267.133	8.1
267.593	8.07
268.052	8.05
268.512	8.01
268.971	7.98
269.431	7.96
269.89	7.94
270.349	7.92
270.809	7.89
271.268	7.88
271.727	7.84
272.186	7.82
272.645	7.79
273.104	7.76
273.563	7.74
274.022	7.71
274.481	7.67
274.94	7.64
275.399	7.61
275.857	7.58
276.316	7.53
276.775	7.5
277.233	7.46
277.692	7.43
278.15	7.4
278.609	7.37
279.067	7.33
279.525	7.3
279.984	7.27
280.442	7.24
280.9	7.22
281.358	7.2
281.816	7.17
282.274	7.15
282.732	7.13
283.19	7.11
283.648	7.11
284.106	7.09
284.564	7.08
285.021	7.06
285.479	7.05
285.937	7.03
286.394	7.01
286.852	7
287.309	6.98
287.767	6.96
288.224	6.92
288.682	6.9
289.139	6.88
289.596	6.84
290.053	6.81
290.511	6.77
290.968	6.74
291.425	6.71
291.882	6.68
292.339	6.64
292.796	6.62
293.252	6.59
293.709	6.56
294.166	6.54
294.623	6.51
295.079	6.49
295.536	6.47
295.992	6.46
296.449	6.45
296.905	6.43
297.362	6.42
297.818	6.41
298.274	6.39
298.731	6.38
299.187	6.37
299.643	6.36
300.099	6.35
300.555	6.32
301.011	6.3
301.467	6.28
301.923	6.26
302.379	6.24
302.835	6.22
303.291	6.21
303.746	6.18
304.202	6.16
304.658	6.14
305.113	6.13
305.569	6.12
306.024	6.1
306.479	6.08
306.935	6.07
307.39	6.06
307.845	6.04
308.301	6.03
308.756	6.04
309.211	6.03
309.666	6.02
310.121	6.02
310.576	6.01
311.031	6.01
311.486	6.02
311.94	6.01
312.395	6.02
312.85	6.01
313.305	6
313.759	5.98
314.214	5.99
314.668	5.98
315.123	5.97
315.577	5.95
316.032	5.95
316.486	5.92
316.94	5.92
317.394	5.9
317.849	5.9
318.303	5.9
318.757	5.88
319.211	5.85
319.665	5.84
320.119	5.84
320.572	5.83
321.026	5.81
321.48	5.81
321.934	5.79
322.387	5.77
322.841	5.75
323.295	5.73
323.748	5.71
324.202	5.7
324.655	5.68
325.108	5.66
325.562	5.64
326.015	5.63
326.468	5.62
326.921	5.6
327.374	5.59
327.827	5.57
328.28	5.56
328.733	5.55
329.186	5.54
329.639	5.53
330.092	5.52
330.545	5.52
330.997	5.51
331.45	5.49
331.903	5.48
332.355	5.48
332.808	5.48
333.26	5.48
333.713	5.48
334.165	5.48
334.617	5.48
335.069	5.48
335.522	5.47
335.974	5.47
336.426	5.48
336.878	5.48
337.33	5.48
337.782	5.47
338.234	5.47
338.686	5.47
339.137	5.46
339.589	5.46
340.041	5.44
340.493	5.43
340.944	5.42
341.396	5.4
341.847	5.38
342.299	5.36
342.75	5.33
343.201	5.32
343.653	5.29
344.104	5.28
344.555	5.26
345.006	5.24
345.457	5.22
345.908	5.2
346.359	5.19
346.81	5.2
347.261	5.18
347.712	5.18
348.163	5.18
348.613	5.16
349.064	5.15
349.515	5.15
349.965	5.14
350.416	5.14
350.866	5.14
351.317	5.13
351.767	5.12
352.217	5.11
352.668	5.11
353.118	5.1
353.568	5.12
354.018	5.12
354.468	5.11
354.918	5.11
355.368	5.13
355.818	5.11
356.268	5.12
356.718	5.12
357.168	5.11
357.617	5.1
358.067	5.09
358.517	5.09
358.966	5.1
359.416	5.11
359.865	5.11
360.315	5.1
360.764	5.11
361.213	5.11
361.663	5.11
362.112	5.12
362.561	5.13
363.01	5.13
363.459	5.13
363.908	5.13
364.357	5.12
364.806	5.11
365.255	5.1
365.703	5.1
366.152	5.11
366.601	5.11
367.05	5.1
367.498	5.1
367.947	5.1
368.395	5.12
368.844	5.11
369.292	5.1
369.74	5.11
370.189	5.12
370.637	5.12
371.085	5.12
371.533	5.13
371.981	5.14
372.429	5.14
372.877	5.14
373.325	5.15
373.773	5.16
374.221	5.18
374.669	5.18
375.116	5.19
375.564	5.21
376.012	5.23
376.459	5.25
376.907	5.28
377.354	5.3
377.801	5.33
378.249	5.36
378.696	5.39
379.143	5.42
379.591	5.46
380.038	5.5
380.485	5.55
380.932	5.57
381.379	5.59
381.826	5.62
382.273	5.67
382.72	5.7
383.166	5.75
383.613	5.79
384.06	5.84
384.506	5.89
384.953	5.93
385.4	5.97
385.846	6.03
386.292	6.09
386.739	6.14
387.185	6.2
387.631	6.27
388.078	6.33
388.524	6.37
388.97	6.42
389.416	6.45
389.862	6.5
390.308	6.54
390.754	6.6
391.2	6.64
391.645	6.7
392.091	6.74
392.537	6.79
392.983	6.84
393.428	6.9
393.874	6.97
394.319	7.02
394.765	7.07
395.21	7.11
395.655	7.15
396.101	7.19
396.546	7.22
396.991	7.25
397.436	7.27
397.881	7.3
398.326	7.35
398.771	7.39
399.216	7.42
399.661	7.47
400.106	7.5
400.551	7.53
400.995	7.55
401.44	7.57
401.885	7.59
402.329	7.6
402.774	7.6
403.218	7.6
403.663	7.6
404.107	7.62
404.551	7.62
404.995	7.63
405.44	7.64
405.884	7.66
406.328	7.65
406.772	7.66
407.216	7.69
407.66	7.69
408.104	7.69
408.547	7.7
408.991	7.69
409.435	7.69
409.879	7.69
410.322	7.7
410.766	7.69
411.209	7.7
411.653	7.7
412.096	7.69
412.54	7.7
412.983	7.7
413.426	7.72
413.869	7.73
414.312	7.75
414.756	7.76
415.199	7.76
415.642	7.8
416.085	7.82
416.527	7.82
416.97	7.84
417.413	7.84
417.856	7.84
418.298	7.83
418.741	7.81
419.184	7.8
419.626	7.78
420.069	7.77
420.511	7.75
420.953	7.73
421.396	7.74
421.838	7.74
422.28	7.77
422.722	7.78
423.164	7.78
423.606	7.8
424.048	7.78
424.49	7.81
424.932	7.81
425.374	7.8
425.816	7.79
426.258	7.75
426.699	7.73
427.141	7.69
427.582	7.67
428.024	7.67
428.465	7.67
428.907	7.7
429.348	7.69
429.789	7.69
430.231	7.7
430.672	7.71
431.113	7.74
431.554	7.76
431.995	7.79
432.436	7.81
432.877	7.81
433.318	7.82
433.759	7.83
434.2	7.84
434.64	7.86
435.081	7.85
435.522	7.89
435.962	7.92
436.403	7.96
436.843	7.97
437.284	8.01
437.724	8.04
438.164	8.06
438.604	8.09
439.045	8.09
439.485	8.13
439.925	8.16
440.365	8.16
440.805	8.19
441.245	8.19
441.685	8.24
442.125	8.27
442.564	8.33
443.004	8.38
443.444	8.43
443.883	8.49
444.323	8.53
444.762	8.61
445.202	8.71
445.641	8.77
446.081	8.87
446.52	8.89
446.959	8.97
447.398	9.03
447.837	9.1
448.276	9.15
448.716	9.2
449.154	9.27
449.593	9.32
450.032	9.37
450.471	9.4
450.91	9.43
451.349	9.49
451.787	9.5
452.226	9.5
452.664	9.51
453.103	9.53
453.541	9.57
453.98	9.57
454.418	9.56
454.856	9.53
455.295	9.53
455.733	9.53
456.171	9.53
456.609	9.53
457.047	9.54
457.485	9.55
457.923	9.55
458.361	9.56
458.798	9.59
459.236	9.59
459.674	9.63
460.111	9.64
460.549	9.63
460.987	9.65
461.424	9.66
461.862	9.68
462.299	9.67
462.736	9.67
463.173	9.65
463.611	9.65
464.048	9.67
464.485	9.67
464.922	9.65
465.359	9.68
465.796	9.68
466.233	9.68
466.67	9.67
467.106	9.68
467.543	9.68
467.98	9.7
468.416	9.72
468.853	9.72
469.29	9.72
469.726	9.72
470.162	9.71
470.599	9.71
471.035	9.72
471.471	9.73
471.907	9.74
472.344	9.75
472.78	9.76
473.216	9.75
473.652	9.75
474.088	9.78
474.523	9.79
474.959	9.81
475.395	9.81
475.831	9.82
476.266	9.85
476.702	9.85
477.138	9.85
477.573	9.86
478.008	9.87
478.444	9.88
478.879	9.88
479.314	9.89
479.75	9.89
480.185	9.89
480.62	9.88
481.055	9.87
481.49	9.86
481.925	9.86
482.36	9.86
482.795	9.85
483.229	9.85
483.664	9.84
484.099	9.84
484.534	9.84
484.968	9.85
485.403	9.88
485.837	9.9
486.271	9.92
486.706	9.95
487.14	9.97
487.574	10
488.009	10.05
488.443	10.1
488.877	10.15
489.311	10.2
489.745	10.26
490.179	10.31
490.613	10.38
491.046	10.46
491.48	10.53
491.914	10.61
492.348	10.71
492.781	10.79
493.215	10.88
493.648	10.98
494.082	11.1
494.515	11.21
494.948	11.33
495.382	11.46
495.815	11.59
496.248	11.73
496.681	11.86
497.114	12
497.547	12.15
497.98	12.31
498.413	12.47
498.846	12.64
499.279	12.82
499.711	13
500.144	13.18
500.577	13.37
501.009	13.57
501.442	13.79
501.874	14.02
502.306	14.25
502.739	14.49
503.171	14.73
503.603	14.99
504.036	15.25
504.468	15.54
504.9	15.84
505.332	16.14
505.764	16.44
506.196	16.76
506.627	17.09
507.059	17.42
507.491	17.76
507.923	18.1
508.354	18.46
508.786	18.82
509.217	19.17
509.649	19.56
510.08	19.94
510.512	20.34
510.943	20.73
511.374	21.12
511.805	21.52
512.237	21.93
512.668	22.35
513.099	22.8
513.53	23.22
513.961	23.66
514.391	24.07
514.822	24.51
515.253	24.93
515.684	25.35
516.114	25.8
516.545	26.23
516.975	26.69
517.406	27.13
517.836	27.55
518.267	27.98
518.697	28.43
519.127	28.86
519.558	29.26
519.988	29.68
520.418	30.1
520.848	30.5
521.278	30.9
521.708	31.19
522.138	31.55
522.567	31.91
522.997	32.27
523.427	32.61
523.857	32.93
524.286	33.29
524.716	33.63
525.145	33.97
525.575	34.28
526.004	34.58
526.433	34.97
526.863	35.27
527.292	35.55
527.721	35.81
528.15	36.07
528.579	36.33
529.008	36.55
529.437	36.78
529.866	36.97
530.295	37.17
530.724	37.38
531.152	37.57
531.581	37.77
532.01	37.93
532.438	38.11
532.867	38.27
533.295	38.44
533.723	38.62
534.152	38.75
534.58	38.9
535.008	39.04
535.436	39.14
535.865	39.25
536.293	39.35
536.721	39.47
537.149	39.57
537.576	39.68
538.004	39.76
538.432	39.8
538.86	39.89
539.287	39.95
539.715	40.02
540.143	40.09
540.57	40.17
540.998	40.24
541.425	40.31
541.852	40.39
542.28	40.42
542.707	40.47
543.134	40.54
543.561	40.58
543.988	40.63
544.415	40.65
544.842	40.69
545.269	40.72
545.696	40.75
546.123	40.77
546.549	40.8
546.976	40.85
547.403	40.88
547.829	40.91
548.256	40.95
548.682	41.02
549.108	41.06
549.535	41.1
549.961	41.1
550.387	41.11
550.813	41.13
551.24	41.14
551.666	41.17
552.092	41.18
552.518	41.18
552.943	41.18
553.369	41.17
553.795	41.17
554.221	41.15
554.646	41.15
555.072	41.15
555.498	41.12
555.923	41.08
556.349	41.02
556.774	40.98
557.199	40.95
557.625	40.87
558.05	40.79
558.475	40.72
558.9	40.66
559.325	40.6
559.75	40.51
560.175	40.43
560.6	40.33
561.025	40.23
561.449	40.12
561.874	39.99
562.299	39.9
562.723	39.79
563.148	39.66
563.572	39.53
563.997	39.37
564.421	39.23
564.846	39.09
565.27	38.96
565.694	38.8
566.118	38.65
566.542	38.5
566.966	38.33
567.39	38.15
567.814	37.97
568.238	37.78
568.662	37.62
569.086	37.44
569.509	37.25
569.933	37.06
570.357	36.86
570.78	36.67
571.204	36.47
571.627	36.3
572.05	36.12
572.474	35.95
572.897	35.76
573.32	35.57
573.743	35.39
574.166	35.21
574.589	35.03
575.012	34.88
575.435	34.71
575.858	34.58
576.281	34.4
576.704	34.26
577.126	34.14
577.549	34.03
577.972	33.9
578.394	33.78
578.817	33.67
579.239	33.56
579.661	33.44
580.084	33.34
580.506	33.23
580.928	33.15
581.35	33.06
581.772	32.95
582.194	32.85
582.616	32.74
583.038	32.66
583.46	32.57
583.882	32.48
584.303	32.4
584.725	32.32
585.147	32.22
585.568	32.13
585.99	32.05
586.411	31.97
586.833	31.89
587.254	31.84
587.675	31.75
588.096	31.68
588.518	31.59
588.939	31.52
589.36	31.44
589.781	31.39
590.202	31.33
590.623	31.27
591.043	31.22
591.464	31.14
591.885	31.08
592.305	31.04
592.726	30.99
593.147	30.97
593.567	30.92
593.987	30.87
594.408	30.81
594.828	30.78
595.248	30.74
595.669	30.68
596.089	30.66
596.509	30.58
596.929	30.53
597.349	30.48
597.769	30.41
598.189	30.36
598.608	30.31
599.028	30.26
599.448	30.19
599.867	30.12
600.287	30.03
600.706	29.96
601.126	29.92
601.545	29.84
601.965	29.78
602.384	29.7
602.803	29.61
603.222	29.52
603.641	29.43
604.061	29.34
604.48	29.21
604.898	29.13
605.317	29.01
605.736	28.91
606.155	28.8
606.574	28.66
606.992	28.55
607.411	28.45
607.829	28.31
608.248	28.19
608.666	28.07
609.085	27.98
609.503	27.87
609.921	27.75
610.339	27.63
610.758	27.51
611.176	27.41
611.594	27.28
612.012	27.15
612.43	27.06
612.847	26.94
613.265	26.82
613.683	26.71
614.101	26.55
614.518	26.45
614.936	26.35
615.353	26.24
615.771	26.12
616.188	26.03
616.606	25.93
617.023	25.84
617.44	25.74
617.857	25.64
618.274	25.54
618.691	25.49
619.108	25.42
619.525	25.34
619.942	25.27
620.359	25.23
620.776	25.17
621.192	25.11
621.609	25.06
622.026	25.02
622.442	24.98
622.859	24.95
623.275	24.94
623.691	24.92
624.108	24.89
624.524	24.88
624.94	24.85
625.356	24.83
625.772	24.83
626.188	24.81
626.604	24.8
627.02	24.78
627.436	24.75
627.852	24.73
628.268	24.7
628.683	24.68
629.099	24.67
629.514	24.63
629.93	24.6
630.345	24.56
630.761	24.51
631.176	24.45
631.591	24.41
632.007	24.35
632.422	24.26
632.837	24.18
633.252	24.09
633.667	23.96
634.082	23.87
634.497	23.74
634.911	23.61
635.326	23.46
635.741	23.33
636.155	23.16
636.57	22.98
636.984	22.81
637.399	22.61
637.813	22.4
638.228	22.2
638.642	21.99
639.056	21.76
639.47	21.52
639.884	21.3
640.298	21.07
640.712	20.84
641.126	20.61
641.54	20.39
641.954	20.17
642.368	19.95
642.781	19.73
643.195	19.47
643.609	19.25
644.022	19.03
644.436	18.81
644.849	18.61
645.262	18.4
645.676	18.19
646.089	17.98
646.502	17.81
646.915	17.63
647.328	17.47
647.741	17.33
648.154	17.2
648.567	17.1
648.98	16.99
649.393	16.86
649.805	16.76
650.218	16.67
650.631	16.57
651.043	16.47
651.456	16.39
651.868	16.3
652.28	16.21
652.693	16.09
653.105	15.97
653.517	15.86
653.929	15.77
654.341	15.66
654.753	15.52
655.165	15.39
655.577	15.26
655.989	15.1
656.401	14.92
656.813	14.76
657.224	14.6
657.636	14.41
658.047	14.23
658.459	14.04
658.87	13.82
659.282	13.64
659.693	13.44
660.104	13.25
660.515	13.05
660.926	12.87
661.338	12.68
661.749	12.47
662.159	12.29
662.57	12.1
662.981	11.91
663.392	11.74
663.803	11.56
664.213	11.4
664.624	11.24
665.035	11.08
665.445	10.92
665.855	10.78
666.266	10.66
666.676	10.55
667.086	10.44
667.497	10.33
667.907	10.23
668.317	10.13
668.727	10.04
669.137	9.97
669.547	9.92
669.956	9.85
670.366	9.8
670.776	9.75
671.186	9.71
671.595	9.69
672.005	9.67
672.414	9.65
672.824	9.64
673.233	9.64
673.642	9.63
674.052	9.63
674.461	9.66
674.87	9.67
675.279	9.69
675.688	9.71
676.097	9.75
676.506	9.77
676.915	9.83
677.323	9.91
677.732	9.98
678.141	10.05
678.549	10.15
678.958	10.25
679.366	10.37
679.775	10.49
680.183	10.65
680.592	10.83
681	11.05
681.408	11.27
681.816	11.51
682.224	11.79
682.632	12.13
683.04	12.48
683.448	12.85
683.856	13.28
684.264	13.76
684.671	14.27
685.079	14.81
685.487	15.4
685.894	16.02
686.302	16.67
686.709	17.35
687.116	18.07
687.524	18.85
687.931	19.64
688.338	20.48
688.745	21.33
689.152	22.17
689.559	23.04
689.966	23.91
690.373	24.84
690.78	25.77
691.187	26.69
691.593	27.6
692	28.51
692.407	29.42
692.813	30.32
693.22	31.19
693.626	32.08
694.032	32.97
694.439	33.86
694.845	34.68
695.251	35.48
695.657	36.25
696.063	37.04
696.469	37.79
696.875	38.51
697.281	39.22
697.687	39.96
698.093	40.65
698.498	41.33
698.904	41.97
699.31	42.59
699.715	43.25
700.12	43.85
700.526	44.44
700.931	45.04
701.337	45.64
701.742	46.18
702.147	46.7
702.552	47.21
702.957	47.7
703.362	48.2
703.767	48.67
704.172	49.12
704.577	49.56
704.981	50
705.386	50.42
705.791	50.8
706.195	51.18
706.6	51.54
707.004	51.91
707.408	52.26
707.813	52.62
708.217	52.93
708.621	53.25
709.025	53.57
709.43	53.86
709.834	54.18
710.237	54.45
710.641	54.75
711.045	55
711.449	55.24
711.853	55.53
712.256	55.76
712.66	56.02
713.064	56.26
713.467	56.49
713.87	56.73
714.274	56.94
714.677	57.18
715.08	57.39
715.484	57.66
715.887	57.88
716.29	58.05
716.693	58.24
717.096	58.44
717.499	58.64
717.901	58.81
718.304	58.98
718.707	59.16
719.109	59.35
719.512	59.53
719.915	59.68
720.317	59.86
720.719	60.03
721.122	60.17
721.524	60.34
721.926	60.49
722.328	60.68
722.731	60.84
723.133	60.99
723.535	61.14
723.937	61.26
724.338	61.33
724.74	61.46
725.142	61.58
725.544	61.68
725.945	61.76
726.347	61.86
726.748	61.9
727.15	62
727.551	62.09
727.952	62.14
728.354	62.23
728.755	62.33
729.156	62.39
729.557	62.45
729.958	62.56
730.359	62.62
730.76	62.66
731.161	62.74
731.562	62.78
731.962	62.83
732.363	62.88
732.763	62.96
733.164	63.01
733.564	63.05
733.965	63.08
734.365	63.08
734.766	63.11
735.166	63.15
735.566	63.15
735.966	63.15
736.366	63.13
736.766	63.12
737.166	63.12
737.566	63.11
737.966	63.16
738.365	63.2
738.765	63.23
739.165	63.27
739.564	63.3
739.964	63.32
740.363	63.39
740.763	63.43
741.162	63.47
741.561	63.47
741.96	63.51
742.36	63.5
742.759	63.46
743.158	63.46
743.557	63.46
743.955	63.48
744.354	63.52
744.753	63.54
745.152	63.54
745.55	63.55
745.949	63.58
746.348	63.61
746.746	63.63
747.144	63.69
747.543	63.73
747.941	63.76
748.339	63.83
748.737	63.85
749.136	63.83
749.534	63.82
749.932	63.82
750.33	63.82
750.727	63.84
751.125	63.85
751.523	63.85
751.921	63.89
752.318	63.86
752.716	63.81
753.113	63.81
753.511	63.81
753.908	63.81
754.305	63.83
754.703	63.82
755.1	63.8
755.497	63.78
755.894	63.78
756.291	63.73
756.688	63.76
757.085	63.76
757.482	63.75
757.878	63.8
758.275	63.81
758.672	63.82
759.068	63.85
759.465	63.85
759.861	63.85
760.258	63.86
760.654	63.86
761.05	63.87
761.447	63.85
761.843	63.82
762.239	63.79
762.635	63.77
763.031	63.74
763.427	63.68
763.822	63.67
764.218	63.64
764.614	63.59
765.01	63.59
765.405	63.53
765.801	63.51
766.196	63.51
766.592	63.46
766.987	63.49
767.382	63.49
767.778	63.5
768.173	63.51
768.568	63.45
768.963	63.47
769.358	63.46
769.753	63.45
770.148	63.45
770.542	63.46
770.937	63.46
771.332	63.43
771.726	63.42
772.121	63.39
772.515	63.38
772.91	63.39
773.304	63.38
773.699	63.36
774.093	63.33
774.487	63.31
774.881	63.32
775.275	63.34
775.669	63.34
776.063	63.3
776.457	63.31
776.851	63.31
777.245	63.34
777.638	63.35
778.032	63.36
778.425	63.41
778.819	63.47
779.212	63.44
779.606	63.46
779.999	63.42
780.392	63.46
780.786	63.39
781.179	63.39
781.572	63.37
781.965	63.36
782.358	63.34
782.751	63.31
783.143	63.27
783.536	63.31
783.929	63.31
784.322	63.34
784.714	63.36
785.107	63.45
785.499	63.5
785.891	63.5
786.284	63.5
786.676	63.55
787.068	63.55
787.46	63.59
787.852	63.55
788.245	63.56
788.636	63.6
789.028	63.59
789.42	63.58
789.812	63.52
790.204	63.49
790.595	63.49
790.987	63.5
791.378	63.53
791.77	63.53
792.161	63.52
792.553	63.5
792.944	63.48
793.335	63.46
793.726	63.44
794.117	63.45
794.508	63.51
794.899	63.54
795.29	63.52
795.681	63.53
796.072	63.51
796.463	63.53
796.853	63.53
797.244	63.54
797.634	63.54
798.025	63.58
798.415	63.59
798.806	63.59
799.196	63.6
799.586	63.58
799.976	63.58
800.366	63.59
800.756	63.58
801.146	63.58
801.536	63.6
801.926	63.57
802.316	63.56
802.706	63.59
803.095	63.61
803.485	63.59
803.874	63.6
804.264	63.66
804.653	63.69
805.043	63.69
805.432	63.71
805.821	63.73
806.21	63.78
806.599	63.82
806.988	63.79
807.377	63.78
807.766	63.81
808.155	63.84
808.544	63.8
808.933	63.8
809.321	63.86
809.71	63.9
810.098	63.85
810.487	63.88
810.875	63.89
811.264	63.95
811.652	63.95
812.04	63.96
812.428	63.97
812.816	63.97
813.204	63.96
813.592	63.93
813.98	63.93
814.368	63.94
814.756	63.94
815.144	63.98
815.531	63.97
815.919	63.98
816.306	63.97
816.694	63.99
817.081	64.02
817.469	64.11
817.856	64.19
818.243	64.21
818.63	64.31
819.017	64.37
819.404	64.34
819.791	64.37
820.178	64.4
820.565	64.46
820.952	64.48
821.339	64.49
821.725	64.48
822.112	64.46
822.498	64.44
822.885	64.41
823.271	64.42
823.657	64.42
824.044	64.42
824.43	64.44
824.816	64.42
825.202	64.4
825.588	64.44
825.974	64.41
826.36	64.43
826.746	64.51
827.132	64.5
827.517	64.47
827.903	64.44
828.289	64.44
828.674	64.4
829.06	64.42
829.445	64.46
829.83	64.49
830.216	64.52
830.601	64.51
830.986	64.47
831.371	64.49
831.756	64.45
832.141	64.51
832.526	64.55
832.911	64.6
833.295	64.58
833.68	64.58
834.065	64.54
834.449	64.52
834.834	64.47
835.218	64.49
835.603	64.49
835.987	64.5
836.371	64.5
836.755	64.44
837.139	64.41
837.524	64.39
837.908	64.32
838.291	64.33
838.675	64.33
839.059	64.38
839.443	64.35
839.827	64.32
840.21	64.34
840.594	64.35
840.977	64.32
841.361	64.35
841.744	64.4
842.127	64.43
842.511	64.4
842.894	64.36
843.277	64.36
843.66	64.34
844.043	64.36
844.426	64.33
844.809	64.3
845.191	64.32
845.574	64.29
845.957	64.21
846.339	64.21
846.722	64.21
847.104	64.24
847.487	64.26
847.869	64.27
848.252	64.27
848.634	64.32
849.016	64.33
849.398	64.31
849.78	64.33
850.162	64.38
850.544	64.4
850.926	64.41
851.307	64.41
851.689	64.37
852.071	64.34
852.452	64.37
852.834	64.33
853.215	64.31
853.597	64.35
853.978	64.31
854.359	64.26
854.741	64.22
855.122	64.24
855.503	64.23
855.884	64.21
856.265	64.23
856.646	64.2
857.026	64.2
857.407	64.17
857.788	64.15
858.169	64.17
858.549	64.22
858.93	64.23
859.31	64.19
859.69	64.18
860.071	64.18
860.451	64.19
860.831	64.17
861.211	64.17
861.591	64.23
861.971	64.22
862.351	64.24
862.731	64.23
863.111	64.22
863.491	64.24
863.87	64.27
864.25	64.3
864.629	64.25
865.009	64.27
865.388	64.27
865.768	64.26
866.147	64.27
866.526	64.24
866.905	64.27
867.284	64.27
867.663	64.27
868.042	64.28
868.421	64.27
868.8	64.31
869.179	64.31
869.558	64.31
869.936	64.31
870.315	64.3
870.693	64.32
871.072	64.27
871.45	64.26
871.828	64.25
872.207	64.26
872.585	64.24
872.963	64.23
873.341	64.21
873.719	64.21
874.097	64.23
874.475	64.24
874.853	64.22
875.23	64.25
875.608	64.26
875.986	64.25
876.363	64.22
876.741	64.23
877.118	64.24
877.495	64.24
877.873	64.25
878.25	64.21
878.627	64.21
879.004	64.22
879.381	64.21
879.758	64.18
880.135	64.19
880.512	64.2
880.889	64.18
881.265	64.16
881.642	64.14
882.019	64.13
882.395	64.13
882.772	64.1
883.148	64.07
883.524	64.08
883.901	64.08
884.277	64.07
884.653	64.05
885.029	64.05
885.405	64.06
885.781	64.02
886.157	64.02
886.532	64
886.908	64.01
887.284	64.02
887.659	64.01
888.035	63.99
888.411	63.97
888.786	63.97
889.161	63.97
889.537	63.99
889.912	63.97
890.287	63.94
890.662	63.95
891.037	63.92
891.412	63.88
891.787	63.87
892.162	63.88
892.536	63.88
892.911	63.85
893.286	63.83
893.66	63.79
894.035	63.79
894.409	63.8
894.784	63.77
895.158	63.78
895.532	63.77
895.906	63.77
896.281	63.75
896.655	63.76
897.029	63.73
897.402	63.72
897.776	63.71
898.15	63.71
898.524	63.68
898.898	63.68
899.271	63.66
899.645	63.68
900.018	63.64
900.392	63.63
900.765	63.64
901.138	63.66
901.511	63.66
901.884	63.7
902.258	63.69
902.631	63.72
903.003	63.73
903.376	63.75
903.749	63.75
904.122	63.78
904.495	63.79
904.867	63.77
905.24	63.75
905.612	63.71
905.985	63.67
906.357	63.66
906.729	63.61
907.102	63.61
907.474	63.58
907.846	63.57
908.218	63.53
908.59	63.52
908.962	63.49
909.334	63.47
909.705	63.47
910.077	63.43
910.449	63.45
910.82	63.41
911.192	63.36
911.563	63.33
911.935	63.3
912.306	63.26
912.677	63.21
913.048	63.18
913.419	63.17
913.79	63.2
914.161	63.2
914.532	63.19
914.903	63.23
915.274	63.24
915.645	63.25
916.015	63.25
916.386	63.27
916.756	63.25
917.127	63.27
917.497	63.27
917.868	63.23
918.238	63.24
918.608	63.24
918.978	63.26
919.348	63.2
919.718	63.19
920.088	63.22
920.458	63.28
920.828	63.35
921.198	63.34
921.567	63.34
921.937	63.35
922.306	63.3
922.676	63.28
923.045	63.22
923.415	63.23
923.784	63.25
924.153	63.19
924.522	63.12
924.891	63.08
925.26	63.05
925.629	63.06
925.998	63.03
926.367	63.06
926.736	63.03
927.104	63.05
927.473	63.04
927.842	63.02
928.21	63.05
928.578	63.06
928.947	63.02
929.315	62.99
929.683	62.96
930.051	62.97
930.42	62.96
930.788	63
931.156	62.97
931.523	62.98
931.891	62.92
932.259	62.83
932.627	62.76
932.994	62.75
933.362	62.75
933.729	62.68
934.097	62.63
934.464	62.58
934.831	62.42
935.199	62.38
935.566	62.32
935.933	62.42
936.3	62.44
936.667	62.4
937.034	62.34
937.401	62.22
937.767	62.23
938.134	62.22
938.501	62.18
938.867	62.32
939.234	62.3
939.6	62.2
939.967	62.02
940.333	62.02
940.699	62.13
941.065	62.22
941.431	62.29
941.798	62.39
942.163	62.47
942.529	62.47
942.895	62.38
943.261	62.4
943.627	62.51
943.992	62.59
944.358	62.58
944.723	62.54
945.089	62.54
945.454	62.64
945.82	62.54
946.185	62.54
946.55	62.65
946.915	62.69
947.28	62.7
947.645	62.69
948.01	62.62
948.375	62.68
948.74	62.59
949.104	62.63
949.469	62.49
949.834	62.52
950.198	62.4
950.562	62.25
950.927	62.27
951.291	62.24
951.655	62.19
952.02	62.19
952.384	62.1
952.748	62.16
953.112	62.1
953.476	62.15
953.839	62.12
954.203	62.05
954.567	62.03
954.931	61.97
955.294	61.92
955.658	61.86
956.021	61.86
956.385	61.88
956.748	61.84
957.111	61.78
957.474	61.76
957.837	61.8
958.2	61.78
958.563	61.77
958.926	61.68
959.289	61.72
959.652	61.73
960.015	61.7
960.377	61.65
960.74	61.59
961.102	61.56
961.465	61.62
961.827	61.49
962.189	61.46
962.552	61.47
962.914	61.51
963.276	61.48
963.638	61.42
964	61.36
964.362	61.36
964.724	61.37
965.085	61.35
965.447	61.17
965.809	61.18
966.17	61.2
966.532	61.22
966.893	61.15
967.255	61.13
967.616	61.17
967.977	61.22
968.338	61.21
968.699	61.16
969.061	61.12
969.421	61.16
969.782	61.14
970.143	61.19
970.504	61.12
970.865	61.05
971.225	60.91
971.586	60.9
971.946	60.84
972.307	60.81
972.667	60.83
973.027	60.83
973.388	60.85
973.748	60.84
974.108	60.79
974.468	60.77
974.828	60.84
975.188	60.91
975.548	60.86
975.907	60.87
976.267	60.79
976.627	60.79
976.986	60.84
977.346	60.77
977.705	60.81
978.064	60.73
978.424	60.66
978.783	60.58
979.142	60.54
979.501	60.48
979.86	60.46
980.219	60.38
980.578	60.27
980.937	60.22
981.296	60.18
981.654	60.22
982.013	60.27
982.371	60.26
982.73	60.29
983.088	60.29
983.447	60.37
983.805	60.29
984.163	60.3
984.521	60.25
984.879	60.21
985.237	60.28
985.595	60.15
985.953	60.08
986.311	60.26
986.669	60.24
987.026	60.3
987.384	60.23
987.741	60.32
988.099	60.39
988.456	60.43
988.814	60.5
989.171	60.43
989.528	60.38
989.885	60.35
990.242	60.29
990.599	60.32
990.956	60.3
991.313	60.32
991.67	60.3
992.027	60.18
992.383	60.13
992.74	60.09
993.096	59.99
993.453	59.98
993.809	60.08
994.165	60.01
994.522	60.02
994.878	59.97
995.234	59.95
995.59	59.79
995.946	59.98
996.302	59.82
996.658	59.69
997.013	59.76
997.369	59.82
997.725	59.77
998.08	59.66
998.436	59.68
998.791	59.55
999.147	59.59
999.502	59.57
999.857	59.5
1000.212	59.76
1000.567	59.9
1000.922	59.88
1001.277	59.71
1001.632	59.73
1001.987	59.68
1002.342	59.56
1002.696	59.68
1003.051	59.54
1003.406	59.57
1003.76	59.51
1004.114	59.51
1004.469	59.32
1004.823	59.32
1005.177	59.52
1005.531	59.41
1005.885	59.55
1006.239	59.56
1006.593	59.49
1006.947	59.39
1007.301	59.4
1007.655	59.24
1008.008	59.11
1008.362	59.15
1008.715	59.09
1009.069	58.86
1009.422	58.71
1009.776	58.56
1010.129	58.38
1010.482	58.38
1010.835	58.55
1011.188	58.48
1011.541	58.25
1011.894	58.2
1012.247	58.26
1012.6	58.24
1012.952	58.43
1013.305	58.45
1013.657	58.47
1014.01	58.8
1014.362	58.69
1014.715	58.42
1015.067	58.51
1015.419	58.85
1015.771	59.01
1016.123	58.95
1016.475	59.07
1016.827	58.82
1017.179	58.87
1017.531	58.71
1017.883	58.66
1018.234	58.77
1018.586	58.74
1018.938	58.5
1019.289	58.4
1019.64	58.27
1019.992	58.37
1020.343	58.18
1020.694	58.21
1021.045	58.15
1021.396	58.07
1021.747	57.74
1022.098	57.8
1022.449	57.88
1022.8	57.71
1023.151	57.47
1023.501	57.49
1023.852	57.29
1024.202	57.12
1024.553	57.01
1024.903	56.84
1025.253	57.15
1025.604	57.02
1025.954	56.54
1026.304	56.82
1026.654	56.98
1027.004	57.22
1027.354	57.05
1027.703	56.75
1028.053	56.34
1028.403	56.01
1028.753	56.18
1029.102	55.48
1029.452	55.22
1029.801	54.95
1030.15	54.46
1030.499	54.38
897.758	849.4
901.051	853.07
904.343	867.24
907.636	854.5
910.928	839.68
914.22	851.69
917.511	835.23
920.803	804.75
924.094	768.28
927.384	774.39
930.675	750.49
933.965	742.84
937.255	749.45
940.544	714.15
943.834	675.29
947.123	665.38
950.411	630.37
953.7	617.31
956.988	597.53
960.276	570.69
963.563	562.99
966.851	531.74
970.138	522.2
973.424	483.12
976.711	475.45
979.997	466.56
983.283	455.57
986.568	441.56
989.853	426.91
993.138	412.04
996.423	408.74
999.708	395.16
1002.992	396.75
1006.275	385.07
1009.559	383.1
1012.842	372.6
1016.125	357.06
1019.408	350.77
1022.69	346.89
1025.972	345.14
1029.254	335.12
1032.536	328.81
1035.817	317.86
1039.098	312.16
1042.379	305.69
1045.659	300.58
1048.939	299.32
1052.219	294.99
1055.498	288.64
1058.778	283.77
1062.057	278.2
1065.335	277.61
1068.614	271.69
1071.892	269.43
1075.17	264.36
1078.447	260.75
1081.724	257.47
1085.001	251.32
1088.278	251.16
1091.554	250.81
1094.83	248.89
1098.106	245.37
1101.382	243.48
1104.657	242.67
1107.932	242.08
1111.206	240.25
1114.481	238.01
1117.755	236.28
1121.029	235.98
1124.302	231.26
1127.575	226.82
1130.848	226.88
1134.121	222.84
1137.393	222.39
1140.665	220.56
1143.937	217.92
1147.208	215.25
1150.48	213.07
1153.75	212.34
1157.021	209.71
1160.291	209.68
1163.561	210.08
1166.831	207.2
1170.101	208.12
1173.37	205.43
1176.639	204.12
1179.907	203.33
1183.176	203.65
1186.444	204.06
1189.711	202.72
1192.979	205.02
1196.246	205.69
1199.513	203.62
1202.78	204.23
1206.046	204.28
1209.312	206.37
1212.578	207.39
1215.843	210.32
1219.108	211.65
1222.373	214.34
1225.638	218.18
1228.902	223.32
1232.166	228.53
1235.43	233.56
1238.693	240.29
1241.956	245.71
1245.219	252.29
1248.482	253.13
1251.744	252.91
1255.006	252.56
1258.268	247.69
1261.529	245.56
1264.79	237.4
1268.051	233.52
1271.312	230.37
1274.572	225.73
1277.832	218.99
1281.092	215.5
1284.351	212.01
1287.61	211.5
1290.869	209.86
1294.128	208.41
1297.386	206.95
1300.644	206.81
1303.902	205.83
1307.159	205.13
1310.416	205.93
1313.673	209.95
1316.93	211.1
1320.186	214.85
1323.442	217.28
1326.697	222.23
1329.953	224.92
1333.208	232.85
1336.463	242.09
1339.717	246.75
1342.972	258.21
1346.226	265.32
1349.479	267.22
1352.733	279.26
1355.986	284.56
1359.238	291.09
1362.491	294.76
1365.743	304.83
1368.995	306.17
1372.247	303.72
1375.498	303.46
1378.749	314.43
1382	313.94
1385.251	313.66
1388.501	311.29
1391.751	316.18
1395	315.07
1398.25	316.91
1401.499	315.69
1404.748	316.53
1407.996	311.52
1411.244	311.57
1414.492	305.52
1417.74	298.51
1420.987	291.42
1424.234	287.92
1427.481	275.39
1430.728	268.33
1433.974	258.95
1437.22	249.79
1440.465	241.08
1443.711	233.76
1446.956	227.37
1450.201	218.43
1453.445	208.65
1456.689	202.07
1459.933	195.32
1463.177	187.38
1466.42	183.67
1469.663	178.39
1472.906	173.69
1476.148	168.54
1479.391	164.74
1482.633	162.04
1485.874	158.61
1489.115	156.97
1492.356	155.06
1495.597	153.09
1498.838	152.25
1502.078	150.21
1505.318	149.61
1508.557	149.01
1511.797	147.31
1515.036	147.33
1518.274	145.5
1521.513	144.12
1524.751	143.73
1527.989	144.33
1531.227	143.45
1534.464	143.09
1537.701	142.22
1540.938	141.51
1544.174	141.07
1547.41	140.99
1550.646	140.59
1553.882	141.13
1557.117	139.87
1560.352	139.27
1563.587	138.1
1566.821	137.77
1570.055	136.83
1573.289	136.24
1576.523	136.81
1579.756	135.82
1582.989	136.64
1586.222	135.67
1589.454	134.87
1592.686	135.44
1595.918	134.7
1599.15	134.19
1602.381	135.02
1605.612	135.21
1608.843	135.22
1612.073	134.89
1615.303	135.12
1618.533	134.36
1621.762	135.25
1624.992	135.78
1628.221	135.47
1631.449	135.77
1634.678	135.8
1637.906	135.19
1641.134	135.51
1644.361	135.91
1647.588	135.69
1650.815	135.95
1654.042	135.78
1657.269	135.54
1660.495	135.79
1663.72	135.57
1666.946	136.39
1670.171	136.98
1673.396	137.41
1676.621	137.85
1679.845	137.77
1683.069	137.42
1686.293	137.31
1689.517	137.84
1692.74	137.81
1695.963	137.96
1699.185	139.63
1702.408	138.71
1705.63	139.1
1708.852	139.88
1712.073	139.22
1715.294	139.37
1718.515	140.12
1721.736	140.34
1724.956	140.7
1728.176	140.47
1731.396	141.62
1734.616	141.25
1737.835	142.49
1741.054	141.65
1744.272	140.92
1747.491	141.88
1750.709	142.39
1753.927	143.08
1757.144	142.87
1760.361	143.25
1763.578	144.43
1766.795	144.26
1770.011	144.29
1773.227	144.66
1776.443	146.12
1779.658	147.42
1782.874	147.48
1786.089	148.01
1789.303	148.16
1792.518	149.86
1795.732	150.81
1798.945	152.15
1802.159	151.99
1805.372	154.49
1808.585	155.63
1811.797	156.78
1815.01	157.27
1818.222	158.82
1821.434	159.6
1824.645	160.94
1827.856	163.53
1831.067	164.51
1834.278	165.22
1837.488	167.32
1840.698	168.61
1843.908	168.55
1847.117	171.1
1850.326	173.15
1853.535	173.06
1856.744	175.96
1859.952	178.19
1863.16	177.75
1866.368	177.01
1869.575	179.18
1872.782	178.62
1875.989	177.6
1879.196	177.1
1882.402	175.55
1885.608	176.41
1888.814	177.33
1892.019	177.67
1895.224	174.86
1898.429	175.84
1901.634	177.88
1904.838	177.41
1908.042	178.86
1911.246	177.94
1914.449	179.72
1917.652	178.76
1920.855	179.15
1924.058	178.11
1927.26	177.59
1930.462	178.8
1933.664	178.02
1936.865	176.84
1940.066	174.97
1943.267	174.14
1946.467	176.24
1949.668	176.38
1952.868	176.54
1956.067	175.42
1959.267	176.67
1962.466	177.38
1965.665	179.08
1968.863	181.52
1972.061	182.94
1975.259	186.1
1978.457	187.61
1981.654	188.78
1984.852	190.5
1988.048	193.53
1991.245	197.16
1994.441	201.48
1997.637	204.56
2000.833	208.19
2004.028	209.05
2007.223	217.86
2010.418	222.25
2013.613	232.49
2016.807	238.51
2020.001	242.87
2023.194	249.25
2026.388	256.92
2029.581	270.05
2032.774	279.25
2035.966	287.81
2039.158	296.83
2042.35	298.87
2045.542	305.96
2048.733	316.23
2051.924	319.47
2055.115	325.01
2058.306	327.83
2061.496	335.32
2064.686	335.05
2067.875	329.95
2071.065	334.56
2074.254	335.8
2077.442	345.01
2080.631	346.15
2083.819	346.24
2087.007	356.27
2090.195	361.84
2093.382	362.46
2096.569	362.03
2099.756	366.96
2102.942	378.42
2106.128	385.13
2109.314	386.14
2112.5	386.32
2115.685	386.46
2118.87	387.03
2122.055	386.14
2125.239	395.09
2128.424	404.52
2131.608	404.23
2134.791	404.96
2137.974	405.29
2141.157	407.06
2144.34	411.83
2147.523	417.6
2150.705	427.89
2153.887	423.59
2157.068	428.63
2160.25	430.28
2163.431	427.21
2166.611	432.49
2169.792	439.87
2172.972	447.38
2176.152	446.76
2179.331	457.89
2182.511	457.28
2185.69	463.46
2188.868	484.31
2192.047	495.29
2195.225	501.85
2198.403	512.25
2201.58	506.24
2204.758	524.23
2207.935	526.4
2211.111	541.44
2214.288	544.27
2217.464	550.94
2220.64	555.55
2223.815	556.86
2226.991	547.98
2230.166	552.15
2233.34	569.3
2236.515	585.13
2239.689	573.96
2242.863	585.25
2246.036	578.8
2249.209	592.81
2252.382	594.73
2255.555	612.35
2258.727	613.71
2261.9	634.87
2265.071	644.83
2268.243	634.82
2271.414	657.36
2274.585	674.99
2277.756	677.56
2280.926	700.49
2284.096	700.71
2287.266	703.01
2290.436	688.23
2293.605	705
2296.774	730.16
2299.942	732.29
2303.111	758.07
2306.279	771.19
2309.447	771.87
2312.614	771.54
2315.781	792.74
2318.948	800.15
2322.115	817.8
2325.281	864.13
2328.447	861.49
2331.613	859.17
2334.779	872.09
2337.944	884.72
2341.109	902.19
2344.274	914.76
2347.438	940.68
2350.602	953.74
2353.766	1015.92
2356.929	1016.46
2360.092	1029.76
2363.255	1032
2366.418	1051.3
2369.58	1077.85
2372.742	1068.75
2375.904	1059.68
2379.066	1085.7
2382.227	1152.11
2385.388	1149.98
2388.548	1097.27
2391.709	1084.21
2394.869	1117.22
2398.029	1114.05
2401.188	1117.88
2404.347	1149.73
2407.506	1197.97
2410.665	1152.13
2413.823	1154
2416.981	1148.62
2420.139	1089.39
2423.296	1166.23
2426.453	1251.13
2429.61	1190.68
2432.767	1277.32
2435.923	1319.19
2439.079	1253.68
2442.235	1284.73
2445.391	1317.8
2448.546	1310.35
2451.701	1393.59
2454.855	1497.17
2458.009	1323.55
2461.163	1344.7
2464.317	1360.55
2467.471	1331.94
2470.624	1374.99
2473.777	1362.13
2476.929	1314.13
2480.082	1406.41
2483.234	1474.42
2486.385	1489.99
2489.537	1521.26
2492.688	1682.05
2495.839	1638.84
2498.989	1694.96
2502.14	1702.65
2505.29	1619.49
2508.439	1815.1
2511.589	1863.6
2514.738	1808.55
2517.887	1792.35
2521.035	1667.52
2524.183	1645.61
2527.331	1626.55
2530.479	1598.88
2533.627	1629.2
