Data from N_2_hir_wi_4n_077_Splice17_09.txt Node
Date: Sat Feb 29 14:10:18 EST 2020
User: sa697716
Spectrometer: FLMS03696
Trigger mode: 0
Integration Time (sec): 3.180400E-1
Scans to average: 20
Electric dark correction enabled: true
Nonlinearity correction enabled: true
Boxcar width: 5
XAxis mode: Wavelengths
Number of Pixels in Spectrum: 2048
>>>>>Begin Spectral Data<<<<<
187.83	33.68
188.298	42.15
188.766	58.67
189.233	56.36
189.701	70.95
190.169	72.63
190.636	78.78
191.104	95.74
191.571	456.59
192.039	313.89
192.506	-548.65
192.974	-4529.19
193.441	658.3
193.908	63.85
194.375	130.48
194.842	305.52
195.31	177.33
195.777	186.19
196.244	55.82
196.711	31.71
197.177	25.67
197.644	23.99
198.111	22.6
198.578	22.51
199.045	21.97
199.511	22.08
199.978	22.09
200.445	21.5
200.911	21.08
201.378	21.38
201.844	21.53
202.31	22.42
202.777	22.75
203.243	23.01
203.709	23.48
204.176	23.36
204.642	23.21
205.108	23.13
205.574	23.69
206.04	24.29
206.506	24.08
206.972	23.57
207.438	22.86
207.903	22.52
208.369	22.29
208.835	22.13
209.301	21.86
209.766	21.63
210.232	21.11
210.697	20.92
211.163	20.35
211.628	19.89
212.094	19.67
212.559	19.19
213.024	18.76
213.49	18.62
213.955	18.07
214.42	17.69
214.885	16.95
215.35	16.4
215.815	15.29
216.28	14.06
216.745	13.02
217.21	11.93
217.675	10.95
218.14	9.8
218.604	8.65
219.069	7.92
219.534	7.21
219.998	6.62
220.463	6.21
220.927	5.88
221.392	5.64
221.856	5.34
222.32	5.08
222.785	4.86
223.249	4.69
223.713	4.56
224.177	4.36
224.642	4.27
225.106	4.18
225.57	4.02
226.034	3.91
226.497	3.78
226.961	3.67
227.425	3.55
227.889	3.46
228.353	3.39
228.816	3.34
229.28	3.28
229.744	3.21
230.207	3.16
230.671	3.11
231.134	3.05
231.597	2.98
232.061	2.93
232.524	2.92
232.987	2.9
233.45	2.85
233.914	2.81
234.377	2.79
234.84	2.75
235.303	2.72
235.766	2.68
236.229	2.65
236.691	2.63
237.154	2.61
237.617	2.57
238.08	2.53
238.542	2.5
239.005	2.46
239.468	2.43
239.93	2.42
240.393	2.38
240.855	2.36
241.317	2.33
241.78	2.31
242.242	2.29
242.704	2.27
243.166	2.26
243.629	2.24
244.091	2.22
244.553	2.21
245.015	2.19
245.477	2.16
245.939	2.14
246.4	2.12
246.862	2.1
247.324	2.09
247.786	2.08
248.247	2.05
248.709	2.02
249.17	2.01
249.632	1.97
250.093	1.93
250.555	1.93
251.016	1.92
251.477	1.9
251.939	1.89
252.4	1.86
252.861	1.84
253.322	1.82
253.783	1.83
254.244	1.81
254.705	1.81
255.166	1.82
255.627	1.81
256.088	1.79
256.549	1.77
257.009	1.76
257.47	1.77
257.931	1.75
258.391	1.73
258.852	1.71
259.312	1.69
259.773	1.68
260.233	1.66
260.694	1.64
261.154	1.62
261.614	1.6
262.074	1.59
262.534	1.56
262.994	1.55
263.455	1.54
263.915	1.53
264.374	1.51
264.834	1.5
265.294	1.48
265.754	1.47
266.214	1.46
266.673	1.46
267.133	1.44
267.593	1.44
268.052	1.43
268.512	1.42
268.971	1.41
269.431	1.41
269.89	1.4
270.349	1.39
270.809	1.39
271.268	1.38
271.727	1.38
272.186	1.37
272.645	1.37
273.104	1.37
273.563	1.36
274.022	1.36
274.481	1.35
274.94	1.34
275.399	1.35
275.857	1.34
276.316	1.34
276.775	1.33
277.233	1.32
277.692	1.32
278.15	1.31
278.609	1.31
279.067	1.3
279.525	1.29
279.984	1.29
280.442	1.29
280.9	1.29
281.358	1.28
281.816	1.28
282.274	1.27
282.732	1.28
283.19	1.28
283.648	1.28
284.106	1.28
284.564	1.28
285.021	1.29
285.479	1.29
285.937	1.28
286.394	1.29
286.852	1.29
287.309	1.3
287.767	1.29
288.224	1.28
288.682	1.28
289.139	1.28
289.596	1.27
290.053	1.25
290.511	1.24
290.968	1.24
291.425	1.23
291.882	1.23
292.339	1.22
292.796	1.21
293.252	1.21
293.709	1.2
294.166	1.19
294.623	1.19
295.079	1.19
295.536	1.19
295.992	1.19
296.449	1.19
296.905	1.18
297.362	1.17
297.818	1.17
298.274	1.17
298.731	1.17
299.187	1.17
299.643	1.16
300.099	1.16
300.555	1.16
301.011	1.16
301.467	1.15
301.923	1.15
302.379	1.15
302.835	1.16
303.291	1.16
303.746	1.15
304.202	1.15
304.658	1.15
305.113	1.14
305.569	1.14
306.024	1.14
306.479	1.14
306.935	1.14
307.39	1.14
307.845	1.14
308.301	1.14
308.756	1.15
309.211	1.16
309.666	1.16
310.121	1.17
310.576	1.17
311.031	1.18
311.486	1.18
311.94	1.18
312.395	1.19
312.85	1.18
313.305	1.18
313.759	1.18
314.214	1.18
314.668	1.18
315.123	1.18
315.577	1.18
316.032	1.18
316.486	1.18
316.94	1.18
317.394	1.18
317.849	1.17
318.303	1.17
318.757	1.16
319.211	1.16
319.665	1.15
320.119	1.15
320.572	1.15
321.026	1.15
321.48	1.14
321.934	1.14
322.387	1.13
322.841	1.13
323.295	1.13
323.748	1.13
324.202	1.13
324.655	1.13
325.108	1.13
325.562	1.12
326.015	1.12
326.468	1.11
326.921	1.11
327.374	1.12
327.827	1.11
328.28	1.11
328.733	1.11
329.186	1.11
329.639	1.1
330.092	1.1
330.545	1.11
330.997	1.13
331.45	1.13
331.903	1.14
332.355	1.14
332.808	1.14
333.26	1.14
333.713	1.15
334.165	1.15
334.617	1.16
335.069	1.17
335.522	1.16
335.974	1.16
336.426	1.16
336.878	1.17
337.33	1.16
337.782	1.17
338.234	1.17
338.686	1.17
339.137	1.18
339.589	1.17
340.041	1.16
340.493	1.15
340.944	1.15
341.396	1.16
341.847	1.15
342.299	1.14
342.75	1.13
343.201	1.12
343.653	1.12
344.104	1.11
344.555	1.11
345.006	1.11
345.457	1.1
345.908	1.1
346.359	1.1
346.81	1.11
347.261	1.11
347.712	1.12
348.163	1.11
348.613	1.11
349.064	1.1
349.515	1.09
349.965	1.09
350.416	1.09
350.866	1.09
351.317	1.08
351.767	1.08
352.217	1.07
352.668	1.07
353.118	1.07
353.568	1.08
354.018	1.09
354.468	1.09
354.918	1.11
355.368	1.11
355.818	1.1
356.268	1.11
356.718	1.1
357.168	1.1
357.617	1.1
358.067	1.09
358.517	1.09
358.966	1.09
359.416	1.1
359.865	1.09
360.315	1.1
360.764	1.1
361.213	1.09
361.663	1.1
362.112	1.11
362.561	1.12
363.01	1.13
363.459	1.12
363.908	1.12
364.357	1.12
364.806	1.12
365.255	1.12
365.703	1.13
366.152	1.14
366.601	1.14
367.05	1.14
367.498	1.15
367.947	1.14
368.395	1.16
368.844	1.15
369.292	1.15
369.74	1.16
370.189	1.15
370.637	1.15
371.085	1.15
371.533	1.15
371.981	1.16
372.429	1.15
372.877	1.15
373.325	1.15
373.773	1.16
374.221	1.17
374.669	1.18
375.116	1.18
375.564	1.18
376.012	1.19
376.459	1.2
376.907	1.21
377.354	1.22
377.801	1.24
378.249	1.25
378.696	1.26
379.143	1.28
379.591	1.29
380.038	1.31
380.485	1.31
380.932	1.32
381.379	1.33
381.826	1.34
382.273	1.34
382.72	1.35
383.166	1.36
383.613	1.37
384.06	1.38
384.506	1.39
384.953	1.4
385.4	1.42
385.846	1.42
386.292	1.45
386.739	1.47
387.185	1.49
387.631	1.51
388.078	1.52
388.524	1.53
388.97	1.55
389.416	1.56
389.862	1.58
390.308	1.59
390.754	1.62
391.2	1.64
391.645	1.67
392.091	1.68
392.537	1.69
392.983	1.72
393.428	1.75
393.874	1.78
394.319	1.81
394.765	1.83
395.21	1.85
395.655	1.87
396.101	1.88
396.546	1.91
396.991	1.93
397.436	1.95
397.881	1.97
398.326	2
398.771	2.03
399.216	2.06
399.661	2.1
400.106	2.13
400.551	2.14
400.995	2.16
401.44	2.16
401.885	2.18
402.329	2.21
402.774	2.22
403.218	2.23
403.663	2.24
404.107	2.25
404.551	2.26
404.995	2.28
405.44	2.29
405.884	2.31
406.328	2.33
406.772	2.36
407.216	2.38
407.66	2.4
408.104	2.41
408.547	2.42
408.991	2.43
409.435	2.44
409.879	2.45
410.322	2.47
410.766	2.48
411.209	2.5
411.653	2.51
412.096	2.52
412.54	2.53
412.983	2.54
413.426	2.56
413.869	2.59
414.312	2.62
414.756	2.64
415.199	2.66
415.642	2.69
416.085	2.7
416.527	2.72
416.97	2.73
417.413	2.74
417.856	2.75
418.298	2.77
418.741	2.77
419.184	2.78
419.626	2.78
420.069	2.77
420.511	2.78
420.953	2.78
421.396	2.79
421.838	2.8
422.28	2.83
422.722	2.85
423.164	2.84
423.606	2.85
424.048	2.86
424.49	2.87
424.932	2.87
425.374	2.88
425.816	2.88
426.258	2.88
426.699	2.88
427.141	2.85
427.582	2.84
428.024	2.85
428.465	2.84
428.907	2.84
429.348	2.84
429.789	2.86
430.231	2.86
430.672	2.87
431.113	2.88
431.554	2.88
431.995	2.91
432.436	2.91
432.877	2.9
433.318	2.9
433.759	2.91
434.2	2.92
434.64	2.92
435.081	2.92
435.522	2.92
435.962	2.92
436.403	2.94
436.843	2.93
437.284	2.94
437.724	2.98
438.164	2.99
438.604	3.02
439.045	3.03
439.485	3.04
439.925	3.06
440.365	3.05
440.805	3.06
441.245	3.05
441.685	3.07
442.125	3.09
442.564	3.1
443.004	3.09
443.444	3.1
443.883	3.09
444.323	3.09
444.762	3.12
445.202	3.14
445.641	3.17
446.081	3.2
446.52	3.22
446.959	3.24
447.398	3.27
447.837	3.33
448.276	3.35
448.716	3.37
449.154	3.41
449.593	3.44
450.032	3.45
450.471	3.47
450.91	3.47
451.349	3.47
451.787	3.47
452.226	3.46
452.664	3.44
453.103	3.44
453.541	3.45
453.98	3.44
454.418	3.41
454.856	3.4
455.295	3.4
455.733	3.4
456.171	3.4
456.609	3.4
457.047	3.4
457.485	3.4
457.923	3.39
458.361	3.38
458.798	3.38
459.236	3.39
459.674	3.4
460.111	3.39
460.549	3.38
460.987	3.39
461.424	3.37
461.862	3.38
462.299	3.39
462.736	3.39
463.173	3.41
463.611	3.42
464.048	3.43
464.485	3.43
464.922	3.42
465.359	3.44
465.796	3.42
466.233	3.45
466.67	3.47
467.106	3.44
467.543	3.45
467.98	3.45
468.416	3.46
468.853	3.45
469.29	3.46
469.726	3.46
470.162	3.46
470.599	3.48
471.035	3.49
471.471	3.5
471.907	3.5
472.344	3.49
472.78	3.49
473.216	3.5
473.652	3.49
474.088	3.48
474.523	3.49
474.959	3.5
475.395	3.49
475.831	3.49
476.266	3.47
476.702	3.48
477.138	3.48
477.573	3.47
478.008	3.47
478.444	3.49
478.879	3.49
479.314	3.5
479.75	3.49
480.185	3.49
480.62	3.48
481.055	3.48
481.49	3.47
481.925	3.47
482.36	3.47
482.795	3.47
483.229	3.46
483.664	3.46
484.099	3.45
484.534	3.46
484.968	3.47
485.403	3.47
485.837	3.47
486.271	3.48
486.706	3.49
487.14	3.51
487.574	3.52
488.009	3.54
488.443	3.56
488.877	3.57
489.311	3.59
489.745	3.6
490.179	3.62
490.613	3.65
491.046	3.68
491.48	3.71
491.914	3.73
492.348	3.76
492.781	3.79
493.215	3.82
493.648	3.86
494.082	3.9
494.515	3.94
494.948	3.99
495.382	4.04
495.815	4.08
496.248	4.13
496.681	4.18
497.114	4.23
497.547	4.3
497.98	4.38
498.413	4.45
498.846	4.53
499.279	4.61
499.711	4.68
500.144	4.77
500.577	4.86
501.009	4.95
501.442	5.06
501.874	5.16
502.306	5.26
502.739	5.35
503.171	5.47
503.603	5.58
504.036	5.71
504.468	5.84
504.9	5.98
505.332	6.13
505.764	6.29
506.196	6.44
506.627	6.6
507.059	6.76
507.491	6.94
507.923	7.12
508.354	7.31
508.786	7.49
509.217	7.66
509.649	7.86
510.08	8.06
510.512	8.26
510.943	8.48
511.374	8.7
511.805	8.92
512.237	9.14
512.668	9.38
513.099	9.62
513.53	9.86
513.961	10.12
514.391	10.36
514.822	10.6
515.253	10.85
515.684	11.08
516.114	11.34
516.545	11.62
516.975	11.91
517.406	12.18
517.836	12.43
518.267	12.71
518.697	12.99
519.127	13.25
519.558	13.53
519.988	13.79
520.418	14.05
520.848	14.31
521.278	14.56
521.708	14.67
522.138	14.89
522.567	15.13
522.997	15.34
523.427	15.56
523.857	15.79
524.286	16.02
524.716	16.25
525.145	16.46
525.575	16.65
526.004	16.84
526.433	17.16
526.863	17.37
527.292	17.55
527.721	17.74
528.15	17.9
528.579	18.07
529.008	18.22
529.437	18.36
529.866	18.5
530.295	18.64
530.724	18.77
531.152	18.9
531.581	19.01
532.01	19.13
532.438	19.24
532.867	19.34
533.295	19.42
533.723	19.53
534.152	19.61
534.58	19.69
535.008	19.74
535.436	19.8
535.865	19.85
536.293	19.93
536.721	19.98
537.149	20.03
537.576	20.09
538.004	20.15
538.432	20.17
538.86	20.21
539.287	20.27
539.715	20.33
540.143	20.36
540.57	20.39
540.998	20.43
541.425	20.46
541.852	20.49
542.28	20.51
542.707	20.53
543.134	20.56
543.561	20.58
543.988	20.6
544.415	20.64
544.842	20.67
545.269	20.72
545.696	20.74
546.123	20.78
546.549	20.81
546.976	20.85
547.403	20.87
547.829	20.89
548.256	20.92
548.682	20.93
549.108	20.94
549.535	20.98
549.961	20.96
550.387	20.97
550.813	20.97
551.24	20.96
551.666	20.98
552.092	20.97
552.518	20.97
552.943	20.97
553.369	20.95
553.795	20.93
554.221	20.9
554.646	20.88
555.072	20.86
555.498	20.81
555.923	20.79
556.349	20.73
556.774	20.68
557.199	20.63
557.625	20.55
558.05	20.49
558.475	20.42
558.9	20.35
559.325	20.3
559.75	20.21
560.175	20.14
560.6	20.06
561.025	19.97
561.449	19.89
561.874	19.8
562.299	19.7
562.723	19.62
563.148	19.52
563.572	19.41
563.997	19.29
564.421	19.16
564.846	19.02
565.27	18.88
565.694	18.75
566.118	18.63
566.542	18.5
566.966	18.37
567.39	18.23
567.814	18.08
568.238	17.92
568.662	17.78
569.086	17.64
569.509	17.52
569.933	17.37
570.357	17.22
570.78	17.07
571.204	16.92
571.627	16.79
572.05	16.65
572.474	16.53
572.897	16.42
573.32	16.28
573.743	16.15
574.166	16.01
574.589	15.89
575.012	15.79
575.435	15.67
575.858	15.56
576.281	15.45
576.704	15.34
577.126	15.24
577.549	15.15
577.972	15.05
578.394	14.96
578.817	14.89
579.239	14.81
579.661	14.73
580.084	14.64
580.506	14.56
580.928	14.49
581.35	14.42
581.772	14.34
582.194	14.27
582.616	14.2
583.038	14.15
583.46	14.09
583.882	14.03
584.303	13.98
584.725	13.92
585.147	13.85
585.568	13.78
585.99	13.74
586.411	13.69
586.833	13.63
587.254	13.59
587.675	13.53
588.096	13.48
588.518	13.44
588.939	13.41
589.36	13.38
589.781	13.34
590.202	13.31
590.623	13.25
591.043	13.2
591.464	13.17
591.885	13.14
592.305	13.11
592.726	13.06
593.147	13.03
593.567	12.98
593.987	12.96
594.408	12.94
594.828	12.92
595.248	12.89
595.669	12.89
596.089	12.86
596.509	12.82
596.929	12.79
597.349	12.77
597.769	12.74
598.189	12.71
598.608	12.67
599.028	12.63
599.448	12.58
599.867	12.55
600.287	12.49
600.706	12.45
601.126	12.4
601.545	12.35
601.965	12.3
602.384	12.24
602.803	12.18
603.222	12.13
603.641	12.07
604.061	12.02
604.48	11.97
604.898	11.9
605.317	11.83
605.736	11.78
606.155	11.72
606.574	11.64
606.992	11.58
607.411	11.52
607.829	11.42
608.248	11.35
608.666	11.27
609.085	11.18
609.503	11.1
609.921	11.02
610.339	10.94
610.758	10.86
611.176	10.78
611.594	10.7
612.012	10.61
612.43	10.59
612.847	10.5
613.265	10.44
613.683	10.36
614.101	10.3
614.518	10.23
614.936	10.17
615.353	10.11
615.771	10.04
616.188	9.98
616.606	9.92
617.023	9.86
617.44	9.82
617.857	9.76
618.274	9.72
618.691	9.68
619.108	9.65
619.525	9.61
619.942	9.58
620.359	9.55
620.776	9.51
621.192	9.49
621.609	9.47
622.026	9.45
622.442	9.43
622.859	9.4
623.275	9.39
623.691	9.37
624.108	9.36
624.524	9.34
624.94	9.33
625.356	9.31
625.772	9.31
626.188	9.29
626.604	9.27
627.02	9.27
627.436	9.27
627.852	9.24
628.268	9.22
628.683	9.21
629.099	9.2
629.514	9.19
629.93	9.19
630.345	9.16
630.761	9.13
631.176	9.11
631.591	9.08
632.007	9.04
632.422	9.01
632.837	8.98
633.252	8.94
633.667	8.88
634.082	8.84
634.497	8.77
634.911	8.71
635.326	8.65
635.741	8.58
636.155	8.52
636.57	8.45
636.984	8.35
637.399	8.26
637.813	8.16
638.228	8.07
638.642	7.97
639.056	7.88
639.47	7.78
639.884	7.69
640.298	7.6
640.712	7.49
641.126	7.39
641.54	7.3
641.954	7.22
642.368	7.12
642.781	7.04
643.195	6.93
643.609	6.83
644.022	6.75
644.436	6.66
644.849	6.57
645.262	6.49
645.676	6.4
646.089	6.32
646.502	6.24
646.915	6.19
647.328	6.12
647.741	6.07
648.154	6.03
648.567	5.97
648.98	5.93
649.393	5.89
649.805	5.84
650.218	5.8
650.631	5.77
651.043	5.73
651.456	5.69
651.868	5.64
652.28	5.6
652.693	5.55
653.105	5.5
653.517	5.44
653.929	5.38
654.341	5.34
654.753	5.27
655.165	5.22
655.577	5.15
655.989	5.08
656.401	5.01
656.813	4.93
657.224	4.86
657.636	4.8
658.047	4.73
658.459	4.66
658.87	4.57
659.282	4.52
659.693	4.44
660.104	4.37
660.515	4.3
660.926	4.23
661.338	4.17
661.749	4.09
662.159	4.02
662.57	3.96
662.981	3.9
663.392	3.85
663.803	3.79
664.213	3.73
664.624	3.68
665.035	3.64
665.445	3.6
665.855	3.57
666.266	3.55
666.676	3.52
667.086	3.48
667.497	3.44
667.907	3.41
668.317	3.39
668.727	3.37
669.137	3.36
669.547	3.37
669.956	3.36
670.366	3.36
670.776	3.35
671.186	3.35
671.595	3.36
672.005	3.38
672.414	3.39
672.824	3.41
673.233	3.43
673.642	3.44
674.052	3.45
674.461	3.46
674.87	3.49
675.279	3.51
675.688	3.53
676.097	3.56
676.506	3.59
676.915	3.62
677.323	3.64
677.732	3.67
678.141	3.71
678.549	3.75
678.958	3.79
679.366	3.82
679.775	3.87
680.183	3.92
680.592	3.97
681	4.02
681.408	4.08
681.816	4.17
682.224	4.25
682.632	4.35
683.04	4.45
683.448	4.56
683.856	4.71
684.264	4.85
684.671	5.02
685.079	5.2
685.487	5.41
685.894	5.64
686.302	5.87
686.709	6.12
687.116	6.4
687.524	6.7
687.931	7.02
688.338	7.36
688.745	7.72
689.152	8.08
689.559	8.48
689.966	8.88
690.373	9.32
690.78	9.78
691.187	10.25
691.593	10.71
692	11.2
692.407	11.7
692.813	12.19
693.22	12.7
693.626	13.22
694.032	13.74
694.439	14.28
694.845	14.79
695.251	15.31
695.657	15.84
696.063	16.37
696.469	16.89
696.875	17.4
697.281	17.93
697.687	18.46
698.093	18.98
698.498	19.52
698.904	20
699.31	20.49
699.715	20.98
700.12	21.46
700.526	21.94
700.931	22.42
701.337	22.88
701.742	23.31
702.147	23.75
702.552	24.2
702.957	24.6
703.362	25.04
703.767	25.46
704.172	25.89
704.577	26.29
704.981	26.69
705.386	27.09
705.791	27.48
706.195	27.86
706.6	28.25
707.004	28.6
707.408	28.97
707.813	29.31
708.217	29.64
708.621	29.97
709.025	30.34
709.43	30.65
709.834	30.99
710.237	31.29
710.641	31.62
711.045	31.9
711.449	32.22
711.853	32.53
712.256	32.83
712.66	33.13
713.064	33.41
713.467	33.69
713.87	33.95
714.274	34.22
714.677	34.5
715.08	34.73
715.484	35.01
715.887	35.25
716.29	35.49
716.693	35.74
717.096	35.99
717.499	36.25
717.901	36.48
718.304	36.72
718.707	36.94
719.109	37.16
719.512	37.41
719.915	37.62
720.317	37.84
720.719	38.03
721.122	38.23
721.524	38.41
721.926	38.57
722.328	38.78
722.731	38.95
723.133	39.13
723.535	39.3
723.937	39.47
724.338	39.62
724.74	39.76
725.142	39.9
725.544	40.05
725.945	40.17
726.347	40.31
726.748	40.39
727.15	40.52
727.551	40.64
727.952	40.75
728.354	40.87
728.755	41.01
729.156	41.12
729.557	41.25
729.958	41.37
730.359	41.47
730.76	41.54
731.161	41.65
731.562	41.75
731.962	41.8
732.363	41.88
732.763	41.94
733.164	41.99
733.564	42.06
733.965	42.11
734.365	42.16
734.766	42.23
735.166	42.28
735.566	42.32
735.966	42.34
736.366	42.4
736.766	42.44
737.166	42.49
737.566	42.52
737.966	42.58
738.365	42.62
738.765	42.68
739.165	42.73
739.564	42.79
739.964	42.84
740.363	42.91
740.763	42.94
741.162	42.98
741.561	43.02
741.96	43.06
742.36	43.1
742.759	43.1
743.158	43.08
743.557	43.1
743.955	43.14
744.354	43.2
744.753	43.21
745.152	43.21
745.55	43.25
745.949	43.29
746.348	43.31
746.746	43.32
747.144	43.37
747.543	43.42
747.941	43.46
748.339	43.5
748.737	43.52
749.136	43.54
749.534	43.61
749.932	43.61
750.33	43.61
750.727	43.64
751.125	43.65
751.523	43.66
751.921	43.68
752.318	43.68
752.716	43.67
753.113	43.65
753.511	43.63
753.908	43.63
754.305	43.61
754.703	43.58
755.1	43.56
755.497	43.54
755.894	43.51
756.291	43.49
756.688	43.48
757.085	43.45
757.482	43.45
757.878	43.45
758.275	43.43
758.672	43.46
759.068	43.48
759.465	43.49
759.861	43.52
760.258	43.52
760.654	43.5
761.05	43.52
761.447	43.51
761.843	43.49
762.239	43.51
762.635	43.52
763.031	43.53
763.427	43.51
763.822	43.48
764.218	43.46
764.614	43.48
765.01	43.49
765.405	43.47
765.801	43.49
766.196	43.5
766.592	43.52
766.987	43.54
767.382	43.5
767.778	43.52
768.173	43.53
768.568	43.52
768.963	43.51
769.358	43.5
769.753	43.51
770.148	43.52
770.542	43.52
770.937	43.48
771.332	43.46
771.726	43.47
772.121	43.43
772.515	43.44
772.91	43.44
773.304	43.43
773.699	43.45
774.093	43.42
774.487	43.4
774.881	43.4
775.275	43.4
775.669	43.41
776.063	43.39
776.457	43.37
776.851	43.33
777.245	43.34
777.638	43.35
778.032	43.34
778.425	43.37
778.819	43.39
779.212	43.37
779.606	43.38
779.999	43.36
780.392	43.37
780.786	43.41
781.179	43.45
781.572	43.46
781.965	43.47
782.358	43.46
782.751	43.45
783.143	43.47
783.536	43.52
783.929	43.52
784.322	43.56
784.714	43.6
785.107	43.62
785.499	43.63
785.891	43.61
786.284	43.61
786.676	43.65
787.068	43.66
787.46	43.61
787.852	43.58
788.245	43.56
788.636	43.56
789.028	43.54
789.42	43.5
789.812	43.52
790.204	43.5
790.595	43.5
790.987	43.49
791.378	43.48
791.77	43.54
792.161	43.55
792.553	43.6
792.944	43.63
793.335	43.67
793.726	43.68
794.117	43.64
794.508	43.7
794.899	43.69
795.29	43.69
795.681	43.73
796.072	43.72
796.463	43.72
796.853	43.7
797.244	43.68
797.634	43.63
798.025	43.65
798.415	43.68
798.806	43.67
799.196	43.69
799.586	43.67
799.976	43.66
800.366	43.65
800.756	43.66
801.146	43.66
801.536	43.65
801.926	43.68
802.316	43.68
802.706	43.69
803.095	43.66
803.485	43.68
803.874	43.7
804.264	43.72
804.653	43.73
805.043	43.73
805.432	43.71
805.821	43.72
806.21	43.74
806.599	43.76
806.988	43.76
807.377	43.8
807.766	43.76
808.155	43.76
808.544	43.73
808.933	43.74
809.321	43.76
809.71	43.79
810.098	43.81
810.487	43.78
810.875	43.77
811.264	43.79
811.652	43.76
812.04	43.82
812.428	43.84
812.816	43.88
813.204	43.87
813.592	43.87
813.98	43.88
814.368	43.85
814.756	43.86
815.144	43.88
815.531	43.88
815.919	43.91
816.306	43.92
816.694	43.94
817.081	43.9
817.469	43.9
817.856	43.94
818.243	43.94
818.63	43.98
819.017	44
819.404	43.99
819.791	44
820.178	44.01
820.565	44
820.952	44
821.339	44.03
821.725	44.06
822.112	44.05
822.498	44.06
822.885	44.08
823.271	44.09
823.657	44.11
824.044	44.1
824.43	44.1
824.816	44.11
825.202	44.12
825.588	44.13
825.974	44.12
826.36	44.11
826.746	44.14
827.132	44.11
827.517	44.11
827.903	44.09
828.289	44.1
828.674	44.09
829.06	44.12
829.445	44.13
829.83	44.11
830.216	44.11
830.601	44.12
830.986	44.11
831.371	44.14
831.756	44.1
832.141	44.12
832.526	44.11
832.911	44.12
833.295	44.1
833.68	44.08
834.065	44.08
834.449	44.05
834.834	44.02
835.218	44
835.603	43.98
835.987	44.02
836.371	44.04
836.755	44.04
837.139	44.04
837.524	44.02
837.908	44
838.291	44.01
838.675	44.04
839.059	44.06
839.443	44.07
839.827	44.06
840.21	44.07
840.594	44.05
840.977	44.04
841.361	44.01
841.744	44.04
842.127	44.04
842.511	44.02
842.894	44
843.277	44.02
843.66	44.01
844.043	44
844.426	43.98
844.809	43.97
845.191	43.99
845.574	43.98
845.957	43.94
846.339	43.92
846.722	43.93
847.104	43.94
847.487	43.91
847.869	43.92
848.252	43.91
848.634	43.88
849.016	43.89
849.398	43.87
849.78	43.87
850.162	43.88
850.544	43.89
850.926	43.87
851.307	43.92
851.689	43.88
852.071	43.88
852.452	43.92
852.834	43.93
853.215	43.93
853.597	43.95
853.978	43.95
854.359	43.96
854.741	43.95
855.122	43.96
855.503	43.92
855.884	43.94
856.265	43.92
856.646	43.88
857.026	43.88
857.407	43.86
857.788	43.84
858.169	43.83
858.549	43.83
858.93	43.85
859.31	43.83
859.69	43.82
860.071	43.83
860.451	43.86
860.831	43.88
861.211	43.88
861.591	43.91
861.971	43.9
862.351	43.92
862.731	43.94
863.111	43.93
863.491	43.96
863.87	43.95
864.25	43.97
864.629	43.97
865.009	43.95
865.388	43.95
865.768	43.93
866.147	43.96
866.526	43.95
866.905	43.94
867.284	43.95
867.663	43.96
868.042	43.96
868.421	43.95
868.8	43.94
869.179	43.95
869.558	43.96
869.936	43.97
870.315	43.96
870.693	43.98
871.072	43.96
871.45	43.94
871.828	43.93
872.207	43.95
872.585	43.96
872.963	43.95
873.341	43.95
873.719	43.96
874.097	43.94
874.475	43.96
874.853	43.92
875.23	43.95
875.608	43.96
875.986	43.95
876.363	43.93
876.741	43.92
877.118	43.93
877.495	43.91
877.873	43.89
878.25	43.9
878.627	43.9
879.004	43.9
879.381	43.89
879.758	43.88
880.135	43.88
880.512	43.9
880.889	43.92
881.265	43.93
881.642	43.94
882.019	43.96
882.395	43.97
882.772	43.95
883.148	43.96
883.524	43.97
883.901	43.97
884.277	43.99
884.653	43.97
885.029	43.97
885.405	43.96
885.781	43.94
886.157	43.94
886.532	43.91
886.908	43.94
887.284	43.95
887.659	43.94
888.035	43.97
888.411	43.95
888.786	43.95
889.161	43.94
889.537	43.96
889.912	43.95
890.287	43.95
890.662	43.95
891.037	43.91
891.412	43.87
891.787	43.87
892.162	43.81
892.536	43.8
892.911	43.77
893.286	43.75
893.66	43.7
894.035	43.68
894.409	43.67
894.784	43.66
895.158	43.66
895.532	43.66
895.906	43.64
896.281	43.65
896.655	43.65
897.029	43.65
897.402	43.66
897.776	43.67
898.15	43.66
898.524	43.64
898.898	43.62
899.271	43.63
899.645	43.6
900.018	43.58
900.392	43.58
900.765	43.57
901.138	43.56
901.511	43.52
901.884	43.5
902.258	43.52
902.631	43.53
903.003	43.52
903.376	43.5
903.749	43.56
904.122	43.58
904.495	43.56
904.867	43.54
905.24	43.57
905.612	43.59
905.985	43.6
906.357	43.58
906.729	43.55
907.102	43.57
907.474	43.56
907.846	43.52
908.218	43.49
908.59	43.48
908.962	43.5
909.334	43.49
909.705	43.49
910.077	43.45
910.449	43.47
910.82	43.48
911.192	43.48
911.563	43.49
911.935	43.49
912.306	43.53
912.677	43.56
913.048	43.56
913.419	43.51
913.79	43.52
914.161	43.53
914.532	43.52
914.903	43.53
915.274	43.51
915.645	43.52
916.015	43.54
916.386	43.53
916.756	43.49
917.127	43.48
917.497	43.52
917.868	43.51
918.238	43.55
918.608	43.53
918.978	43.5
919.348	43.46
919.718	43.43
920.088	43.4
920.458	43.41
920.828	43.43
921.198	43.44
921.567	43.4
921.937	43.41
922.306	43.37
922.676	43.39
923.045	43.39
923.415	43.44
923.784	43.45
924.153	43.43
924.522	43.42
924.891	43.4
925.26	43.35
925.629	43.34
925.998	43.31
926.367	43.31
926.736	43.26
927.104	43.28
927.473	43.26
927.842	43.23
928.21	43.26
928.578	43.15
928.947	43.15
929.315	43.19
929.683	43.19
930.051	43.18
930.42	43.17
930.788	43.18
931.156	43.16
931.523	43.12
931.891	43.1
932.259	43.04
932.627	43
932.994	42.98
933.362	42.9
933.729	42.87
934.097	42.84
934.464	42.78
934.831	42.73
935.199	42.7
935.566	42.64
935.933	42.58
936.3	42.51
936.667	42.54
937.034	42.5
937.401	42.42
937.767	42.37
938.134	42.34
938.501	42.32
938.867	42.35
939.234	42.34
939.6	42.34
939.967	42.38
940.333	42.5
940.699	42.56
941.065	42.58
941.431	42.75
941.798	42.8
942.163	42.82
942.529	42.89
942.895	42.92
943.261	42.9
943.627	42.93
943.992	42.98
944.358	43.01
944.723	43.09
945.089	43.07
945.454	43.05
945.82	43.06
946.185	43.15
946.55	43.18
946.915	43.15
947.28	43.17
947.645	43.23
948.01	43.17
948.375	43.21
948.74	43.12
949.104	43.18
949.469	43.14
949.834	43.17
950.198	43.04
950.562	43.07
950.927	43.05
951.291	42.99
951.655	42.88
952.02	42.86
952.384	42.85
952.748	42.87
953.112	42.85
953.476	42.87
953.839	42.83
954.203	42.81
954.567	42.73
954.931	42.67
955.294	42.66
955.658	42.67
956.021	42.74
956.385	42.68
956.748	42.64
957.111	42.57
957.474	42.57
957.837	42.57
958.2	42.55
958.563	42.58
958.926	42.53
959.289	42.54
959.652	42.54
960.015	42.47
960.377	42.44
960.74	42.39
961.102	42.35
961.465	42.33
961.827	42.2
962.189	42.22
962.552	42.16
962.914	42.22
963.276	42.24
963.638	42.17
964	42.13
964.362	42.13
964.724	42.19
965.085	42.22
965.447	42.16
965.809	42.16
966.17	42.17
966.532	42.17
966.893	42.14
967.255	42.04
967.616	42.11
967.977	42.08
968.338	42.02
968.699	41.89
969.061	41.86
969.421	41.89
969.782	41.97
970.143	41.92
970.504	41.87
970.865	41.8
971.225	41.83
971.586	41.85
971.946	41.85
972.307	41.83
972.667	41.86
973.027	41.8
973.388	41.74
973.748	41.65
974.108	41.67
974.468	41.64
974.828	41.67
975.188	41.66
975.548	41.59
975.907	41.61
976.267	41.67
976.627	41.65
976.986	41.7
977.346	41.73
977.705	41.8
978.064	41.8
978.424	41.89
978.783	41.9
979.142	41.84
979.501	41.81
979.86	41.83
980.219	41.71
980.578	41.78
980.937	41.78
981.296	41.72
981.654	41.72
982.013	41.77
982.371	41.71
982.73	41.73
983.088	41.73
983.447	41.75
983.805	41.7
984.163	41.76
984.521	41.68
984.879	41.75
985.237	41.79
985.595	41.8
985.953	41.75
986.311	41.78
986.669	41.74
987.026	41.8
987.384	41.79
987.741	41.9
988.099	41.97
988.456	42.06
988.814	42.05
989.171	42.08
989.528	42.03
989.885	41.93
990.242	42
990.599	42.04
990.956	42.07
991.313	42.1
991.67	42.07
992.027	42.09
992.383	42.06
992.74	41.86
993.096	41.85
993.453	41.79
993.809	41.81
994.165	41.81
994.522	41.7
994.878	41.62
995.234	41.66
995.59	41.59
995.946	41.59
996.302	41.62
996.658	41.8
997.013	41.83
997.369	41.89
997.725	41.93
998.08	41.88
998.436	41.98
998.791	41.99
999.147	41.84
999.502	41.88
999.857	41.76
1000.212	41.72
1000.567	41.56
1000.922	41.53
1001.277	41.55
1001.632	41.68
1001.987	41.62
1002.342	41.66
1002.696	41.81
1003.051	41.75
1003.406	41.76
1003.76	41.84
1004.114	41.9
1004.469	41.95
1004.823	41.92
1005.177	41.88
1005.531	41.7
1005.885	41.72
1006.239	41.64
1006.593	41.54
1006.947	41.68
1007.301	41.54
1007.655	41.63
1008.008	41.44
1008.362	41.55
1008.715	41.51
1009.069	41.32
1009.422	41.2
1009.776	41.09
1010.129	40.99
1010.482	40.93
1010.835	40.95
1011.188	41.02
1011.541	40.67
1011.894	40.69
1012.247	40.54
1012.6	40.47
1012.952	40.74
1013.305	40.79
1013.657	40.84
1014.01	40.97
1014.362	41.07
1014.715	40.91
1015.067	40.91
1015.419	41.23
1015.771	41.35
1016.123	41.41
1016.475	41.58
1016.827	41.44
1017.179	41.37
1017.531	41.61
1017.883	41.66
1018.234	41.55
1018.586	41.75
1018.938	41.42
1019.289	41
1019.64	40.9
1019.992	40.82
1020.343	40.68
1020.694	40.6
1021.045	40.74
1021.396	40.55
1021.747	40.4
1022.098	40.57
1022.449	40.59
1022.8	40.89
1023.151	41.25
1023.501	41.26
1023.852	41.25
1024.202	41.06
1024.553	40.88
1024.903	40.88
1025.253	40.86
1025.604	40.94
1025.954	40.7
1026.304	40.93
1026.654	41.04
1027.004	41.08
1027.354	41.12
1027.703	41.1
1028.053	41.3
1028.403	41.65
1028.753	41.87
1029.102	41.66
1029.452	41.47
1029.801	41.34
1030.15	41.05
1030.499	40.88
897.758	574.73
901.051	580.24
904.343	589.06
907.636	577.68
910.928	569.81
914.22	580.02
917.511	568.97
920.803	541.05
924.094	519.4
927.384	522.45
930.675	507.49
933.965	503.32
937.255	506.2
940.544	481.73
943.834	457.32
947.123	449.38
950.411	425.79
953.7	417.08
956.988	404.28
960.276	384.33
963.563	381.78
966.851	361.4
970.138	354.87
973.424	328.95
976.711	327.1
979.997	319.23
983.283	311.1
986.568	300.71
989.853	292.64
993.138	283.64
996.423	280.05
999.708	271.08
1002.992	270.89
1006.275	263.08
1009.559	261.16
1012.842	252.16
1016.125	242.9
1019.408	238.69
1022.69	237.28
1025.972	234.09
1029.254	228.78
1032.536	225.14
1035.817	218.03
1039.098	214.23
1042.379	209.36
1045.659	206.02
1048.939	203.93
1052.219	200.57
1055.498	196.77
1058.778	192.16
1062.057	189.98
1065.335	189.05
1068.614	185.67
1071.892	182.88
1075.17	179.61
1078.447	177.63
1081.724	176.66
1085.001	172.87
1088.278	172.35
1091.554	172.02
1094.83	170.66
1098.106	167.2
1101.382	165.61
1104.657	165.55
1107.932	164.86
1111.206	164.08
1114.481	161.43
1117.755	160.12
1121.029	159.71
1124.302	158.17
1127.575	155.48
1130.848	155.36
1134.121	153.13
1137.393	153.18
1140.665	150.92
1143.937	149.11
1147.208	147.19
1150.48	145.99
1153.75	144.46
1157.021	143.12
1160.291	142.87
1163.561	142.51
1166.831	141.57
1170.101	141.72
1173.37	139.84
1176.639	138.86
1179.907	138.8
1183.176	138.58
1186.444	138.9
1189.711	138.47
1192.979	139.63
1196.246	139.34
1199.513	138.44
1202.78	138.48
1206.046	138.96
1209.312	139.88
1212.578	140.55
1215.843	143.04
1219.108	143.45
1222.373	145.96
1225.638	148.18
1228.902	151.23
1232.166	156.31
1235.43	158.94
1238.693	163.16
1241.956	166.89
1245.219	171.26
1248.482	172.93
1251.744	172.42
1255.006	172.54
1258.268	168.64
1261.529	167.57
1264.79	162.98
1268.051	159.38
1271.312	157.8
1274.572	154.79
1277.832	150.02
1281.092	148.42
1284.351	145.22
1287.61	144.71
1290.869	144.96
1294.128	143.82
1297.386	142.73
1300.644	141.97
1303.902	141.44
1307.159	139.93
1310.416	140.52
1313.673	143.59
1316.93	143.59
1320.186	146.23
1323.442	147.72
1326.697	150.64
1329.953	151.35
1333.208	156.72
1336.463	163.66
1339.717	166.34
1342.972	176.4
1346.226	181.25
1349.479	181.59
1352.733	190.76
1355.986	193.67
1359.238	197.85
1362.491	198.57
1365.743	208.46
1368.995	210.18
1372.247	207.47
1375.498	206.41
1378.749	211.21
1382	210.8
1385.251	211.06
1388.501	209.33
1391.751	212.56
1395	211.52
1398.25	213.39
1401.499	211.27
1404.748	209.28
1407.996	208.08
1411.244	208.28
1414.492	204.5
1417.74	199.16
1420.987	194.86
1424.234	191.36
1427.481	184.66
1430.728	180
1433.974	173.35
1437.22	166.86
1440.465	161.87
1443.711	156.63
1446.956	151.79
1450.201	146.46
1453.445	139.33
1456.689	134.82
1459.933	131.01
1463.177	124.82
1466.42	122.41
1469.663	119.03
1472.906	115.77
1476.148	111.98
1479.391	109.23
1482.633	107.63
1485.874	105.25
1489.115	104.41
1492.356	103.1
1495.597	100.99
1498.838	100.65
1502.078	99.27
1505.318	98.88
1508.557	98.97
1511.797	98.05
1515.036	98.12
1518.274	97.29
1521.513	96.6
1524.751	96.04
1527.989	95.92
1531.227	95.97
1534.464	96.21
1537.701	95.63
1540.938	95.15
1544.174	94.46
1547.41	94.64
1550.646	94.13
1553.882	93.82
1557.117	93.51
1560.352	93.62
1563.587	92.98
1566.821	92.87
1570.055	92.01
1573.289	91.83
1576.523	92.17
1579.756	92.23
1582.989	92.22
1586.222	91.87
1589.454	91.94
1592.686	91.54
1595.918	91.17
1599.15	90.99
1602.381	91.49
1605.612	91.76
1608.843	91.64
1612.073	91.82
1615.303	91.83
1618.533	91.66
1621.762	92.13
1624.992	92.13
1628.221	92.2
1631.449	92.69
1634.678	92.89
1637.906	92.44
1641.134	92.59
1644.361	92.82
1647.588	92.41
1650.815	92.67
1654.042	92.72
1657.269	92.38
1660.495	92.98
1663.72	93.13
1666.946	93.16
1670.171	93.76
1673.396	94.36
1676.621	94.5
1679.845	94.49
1683.069	94.85
1686.293	94.28
1689.517	94.69
1692.74	95.15
1695.963	94.74
1699.185	95.08
1702.408	95.12
1705.63	94.8
1708.852	95.44
1712.073	95.33
1715.294	95.43
1718.515	95.68
1721.736	96.08
1724.956	96.19
1728.176	96.02
1731.396	96.65
1734.616	96.76
1737.835	96.76
1741.054	97.7
1744.272	96.82
1747.491	96.83
1750.709	97.87
1753.927	97.94
1757.144	98.36
1760.361	98.48
1763.578	98.6
1766.795	99.26
1770.011	98.95
1773.227	99.39
1776.443	99.47
1779.658	99.88
1782.874	101
1786.089	100.64
1789.303	100.89
1792.518	101.97
1795.732	102.2
1798.945	103.79
1802.159	103.86
1805.372	105.71
1808.585	106.3
1811.797	107.09
1815.01	108.3
1818.222	108.73
1821.434	109.38
1824.645	110.25
1827.856	110.77
1831.067	111.42
1834.278	113.02
1837.488	113.71
1840.698	114.7
1843.908	115.15
1847.117	116.58
1850.326	116.84
1853.535	118.47
1856.744	119.81
1859.952	120.75
1863.16	121.39
1866.368	120.65
1869.575	120.47
1872.782	120.66
1875.989	119.11
1879.196	118.23
1882.402	117.54
1885.608	118.84
1888.814	117.23
1892.019	118.19
1895.224	116.38
1898.429	116.88
1901.634	118.42
1904.838	118.77
1908.042	118.65
1911.246	118.98
1914.449	120.73
1917.652	119.48
1920.855	119.02
1924.058	118.33
1927.26	117.42
1930.462	118.45
1933.664	118.04
1936.865	117.79
1940.066	114.97
1943.267	115.35
1946.467	117.86
1949.668	117.7
1952.868	118.12
1956.067	117.77
1959.267	118.23
1962.466	118.74
1965.665	120.54
1968.863	121.39
1972.061	122.86
1975.259	126.34
1978.457	126.56
1981.654	125.8
1984.852	127.39
1988.048	129.06
1991.245	131.34
1994.441	134.15
1997.637	136.74
2000.833	139.74
2004.028	140.38
2007.223	146.02
2010.418	148.78
2013.613	155.31
2016.807	160.24
2020.001	162.89
2023.194	168.19
2026.388	173.25
2029.581	181.67
2032.774	187.86
2035.966	191.86
2039.158	199.02
2042.35	199.82
2045.542	203.91
2048.733	210.58
2051.924	212.63
2055.115	215.66
2058.306	216.38
2061.496	221.15
2064.686	222.1
2067.875	218.87
2071.065	221.1
2074.254	220.96
2077.442	228.3
2080.631	229.59
2083.819	231.97
2087.007	235.91
2090.195	241.4
2093.382	241.09
2096.569	240.99
2099.756	247.5
2102.942	255
2106.128	259.98
2109.314	261.65
2112.5	260.46
2115.685	260.14
2118.87	259.89
2122.055	263.61
2125.239	266.86
2128.424	275.44
2131.608	270.95
2134.791	270.15
2137.974	272.4
2141.157	273.83
2144.34	277.81
2147.523	281.72
2150.705	289.04
2153.887	286.23
2157.068	287.38
2160.25	291.46
2163.431	289.14
2166.611	296.79
2169.792	299.51
2172.972	303.27
2176.152	305.93
2179.331	311.69
2182.511	311.84
2185.69	316.98
2188.868	329.12
2192.047	337.77
2195.225	341.96
2198.403	348.78
2201.58	345.08
2204.758	358.31
2207.935	359.01
2211.111	365.85
2214.288	366.95
2217.464	372.6
2220.64	371.55
2223.815	373.83
2226.991	365.96
2230.166	370.99
2233.34	380.31
2236.515	391.19
2239.689	381.92
2242.863	391.09
2246.036	387.04
2249.209	397.42
2252.382	395.44
2255.555	411.6
2258.727	413.11
2261.9	431.42
2265.071	432.55
2268.243	424.73
2271.414	443.65
2274.585	452.71
2277.756	452.81
2280.926	469.63
2284.096	471.62
2287.266	474.58
2290.436	464.67
2293.605	474.34
2296.774	490.49
2299.942	491.21
2303.111	513.29
2306.279	515.84
2309.447	521.09
2312.614	519.31
2315.781	533.17
2318.948	535.04
2322.115	547.95
2325.281	578.44
2328.447	573.51
2331.613	570.46
2334.779	583.06
2337.944	588.75
2341.109	598.17
2344.274	605.32
2347.438	619.8
2350.602	628.4
2353.766	669.45
2356.929	672.95
2360.092	679.19
2363.255	686.87
2366.418	697.16
2369.58	708.59
2372.742	708.45
2375.904	706
2379.066	724.7
2382.227	764.09
2385.388	765.17
2388.548	728.53
2391.709	715.51
2394.869	740.79
2398.029	743.13
2401.188	738.44
2404.347	763.51
2407.506	789.03
2410.665	762.26
2413.823	767.62
2416.981	773.1
2420.139	730.48
2423.296	795.01
2426.453	845.52
2429.61	804.14
2432.767	858.92
2435.923	899.7
2439.079	858.78
2442.235	875.08
2445.391	897.66
2448.546	884.37
2451.701	934.56
2454.855	1000.39
2458.009	882.79
2461.163	902.96
2464.317	909.72
2467.471	885.94
2470.624	910.75
2473.777	905.84
2476.929	873
2480.082	926.72
2483.234	976.3
2486.385	987.54
2489.537	1015.49
2492.688	1113.4
2495.839	1093.81
2498.989	1129.13
2502.14	1135.46
2505.29	1080.86
2508.439	1189.59
2511.589	1227.85
2514.738	1202.49
2517.887	1184.51
2521.035	1106.74
2524.183	1081.66
2527.331	1075.34
2530.479	1049.5
2533.627	1069.88
