Data from N_2_dec_oh_4n_045_Splice17_04.txt Node
Date: Sat Feb 29 13:54:34 EST 2020
User: sa697716
Spectrometer: FLMS03696
Trigger mode: 0
Integration Time (sec): 3.180400E-1
Scans to average: 20
Electric dark correction enabled: true
Nonlinearity correction enabled: true
Boxcar width: 5
XAxis mode: Wavelengths
Number of Pixels in Spectrum: 2048
>>>>>Begin Spectral Data<<<<<
187.83	63.56
188.298	69.85
188.766	69.25
189.233	62.61
189.701	66.66
190.169	68.64
190.636	72.98
191.104	82.51
191.571	249.99
192.039	178.54
192.506	458.78
192.974	3325.95
193.441	-188.89
193.908	136.64
194.375	135.05
194.842	66.66
195.31	69.84
195.777	117.99
196.244	53.61
196.711	33.66
197.177	28.54
197.644	26.73
198.111	27.19
198.578	27.09
199.045	26.82
199.511	28.16
199.978	29.1
200.445	29.14
200.911	29.31
201.378	29.74
201.844	30.59
202.31	31.09
202.777	31.05
203.243	31.4
203.709	31.93
204.176	31.5
204.642	30.97
205.108	30.58
205.574	30.89
206.04	30.53
206.506	29.99
206.972	29.08
207.438	29.14
207.903	29.6
208.369	29.01
208.835	28.75
209.301	28.87
209.766	28.71
210.232	28.62
210.697	27.96
211.163	27.57
211.628	27.12
212.094	27.01
212.559	26.47
213.024	25.79
213.49	25.55
213.955	25.23
214.42	24.71
214.885	23.86
215.35	23.17
215.815	22.32
216.28	21.51
216.745	20.59
217.21	19.48
217.675	18.48
218.14	17.49
218.604	16.61
219.069	15.82
219.534	15.08
219.998	14.57
220.463	14.16
220.927	13.7
221.392	13.34
221.856	12.98
222.32	12.67
222.785	12.39
223.249	12.18
223.713	11.95
224.177	11.72
224.642	11.57
225.106	11.41
225.57	11.18
226.034	11.07
226.497	10.89
226.961	10.72
227.425	10.57
227.889	10.44
228.353	10.3
228.816	10.17
229.28	10.03
229.744	9.88
230.207	9.77
230.671	9.64
231.134	9.48
231.597	9.36
232.061	9.26
232.524	9.16
232.987	9.03
233.45	8.92
233.914	8.81
234.377	8.73
234.84	8.65
235.303	8.54
235.766	8.45
236.229	8.39
236.691	8.32
237.154	8.24
237.617	8.15
238.08	8.08
238.542	8
239.005	7.91
239.468	7.82
239.93	7.74
240.393	7.67
240.855	7.59
241.317	7.51
241.78	7.43
242.242	7.35
242.704	7.29
243.166	7.23
243.629	7.17
244.091	7.12
244.553	7.07
245.015	7.02
245.477	6.96
245.939	6.91
246.4	6.85
246.862	6.8
247.324	6.77
247.786	6.71
248.247	6.66
248.709	6.6
249.17	6.55
249.632	6.5
250.093	6.44
250.555	6.41
251.016	6.37
251.477	6.32
251.939	6.28
252.4	6.23
252.861	6.19
253.322	6.14
253.783	6.12
254.244	6.08
254.705	6.04
255.166	6.03
255.627	5.99
256.088	5.95
256.549	5.93
257.009	5.89
257.47	5.86
257.931	5.83
258.391	5.8
258.852	5.76
259.312	5.73
259.773	5.7
260.233	5.66
260.694	5.64
261.154	5.6
261.614	5.56
262.074	5.54
262.534	5.49
262.994	5.47
263.455	5.43
263.915	5.41
264.374	5.37
264.834	5.35
265.294	5.32
265.754	5.28
266.214	5.26
266.673	5.23
267.133	5.21
267.593	5.19
268.052	5.17
268.512	5.15
268.971	5.13
269.431	5.12
269.89	5.1
270.349	5.08
270.809	5.07
271.268	5.06
271.727	5.05
272.186	5.03
272.645	5.01
273.104	5
273.563	4.98
274.022	4.97
274.481	4.95
274.94	4.93
275.399	4.92
275.857	4.9
276.316	4.87
276.775	4.85
277.233	4.84
277.692	4.82
278.15	4.8
278.609	4.77
279.067	4.76
279.525	4.74
279.984	4.74
280.442	4.73
280.9	4.72
281.358	4.71
281.816	4.7
282.274	4.69
282.732	4.68
283.19	4.68
283.648	4.68
284.106	4.66
284.564	4.66
285.021	4.65
285.479	4.64
285.937	4.62
286.394	4.6
286.852	4.59
287.309	4.57
287.767	4.55
288.224	4.53
288.682	4.52
289.139	4.5
289.596	4.47
290.053	4.45
290.511	4.42
290.968	4.4
291.425	4.38
291.882	4.36
292.339	4.34
292.796	4.33
293.252	4.31
293.709	4.29
294.166	4.28
294.623	4.26
295.079	4.25
295.536	4.24
295.992	4.23
296.449	4.22
296.905	4.21
297.362	4.2
297.818	4.2
298.274	4.19
298.731	4.18
299.187	4.17
299.643	4.16
300.099	4.16
300.555	4.14
301.011	4.14
301.467	4.13
301.923	4.12
302.379	4.11
302.835	4.1
303.291	4.09
303.746	4.08
304.202	4.08
304.658	4.07
305.113	4.07
305.569	4.06
306.024	4.06
306.479	4.05
306.935	4.05
307.39	4.04
307.845	4.04
308.301	4.03
308.756	4.04
309.211	4.04
309.666	4.04
310.121	4.03
310.576	4.03
311.031	4.02
311.486	4.01
311.94	4.01
312.395	4
312.85	4
313.305	4
313.759	4
314.214	3.98
314.668	3.97
315.123	3.97
315.577	3.97
316.032	3.97
316.486	3.96
316.94	3.95
317.394	3.94
317.849	3.93
318.303	3.92
318.757	3.9
319.211	3.89
319.665	3.88
320.119	3.86
320.572	3.86
321.026	3.85
321.48	3.84
321.934	3.83
322.387	3.83
322.841	3.82
323.295	3.81
323.748	3.81
324.202	3.81
324.655	3.81
325.108	3.79
325.562	3.78
326.015	3.77
326.468	3.76
326.921	3.74
327.374	3.73
327.827	3.72
328.28	3.71
328.733	3.7
329.186	3.69
329.639	3.68
330.092	3.68
330.545	3.68
330.997	3.67
331.45	3.67
331.903	3.67
332.355	3.68
332.808	3.68
333.26	3.67
333.713	3.67
334.165	3.67
334.617	3.67
335.069	3.67
335.522	3.67
335.974	3.67
336.426	3.67
336.878	3.67
337.33	3.66
337.782	3.66
338.234	3.67
338.686	3.67
339.137	3.68
339.589	3.66
340.041	3.65
340.493	3.64
340.944	3.63
341.396	3.62
341.847	3.6
342.299	3.6
342.75	3.57
343.201	3.56
343.653	3.54
344.104	3.51
344.555	3.51
345.006	3.5
345.457	3.49
345.908	3.49
346.359	3.49
346.81	3.49
347.261	3.48
347.712	3.47
348.163	3.46
348.613	3.47
349.064	3.45
349.515	3.44
349.965	3.44
350.416	3.44
350.866	3.43
351.317	3.42
351.767	3.41
352.217	3.4
352.668	3.4
353.118	3.41
353.568	3.41
354.018	3.42
354.468	3.43
354.918	3.43
355.368	3.44
355.818	3.43
356.268	3.44
356.718	3.45
357.168	3.45
357.617	3.45
358.067	3.43
358.517	3.44
358.966	3.43
359.416	3.44
359.865	3.44
360.315	3.43
360.764	3.43
361.213	3.43
361.663	3.43
362.112	3.44
362.561	3.45
363.01	3.46
363.459	3.46
363.908	3.46
364.357	3.46
364.806	3.46
365.255	3.47
365.703	3.48
366.152	3.48
366.601	3.48
367.05	3.49
367.498	3.48
367.947	3.48
368.395	3.48
368.844	3.49
369.292	3.48
369.74	3.49
370.189	3.5
370.637	3.5
371.085	3.5
371.533	3.5
371.981	3.5
372.429	3.5
372.877	3.5
373.325	3.5
373.773	3.49
374.221	3.5
374.669	3.5
375.116	3.49
375.564	3.48
376.012	3.49
376.459	3.5
376.907	3.51
377.354	3.51
377.801	3.52
378.249	3.53
378.696	3.55
379.143	3.55
379.591	3.56
380.038	3.57
380.485	3.59
380.932	3.59
381.379	3.6
381.826	3.6
382.273	3.61
382.72	3.62
383.166	3.63
383.613	3.63
384.06	3.64
384.506	3.65
384.953	3.66
385.4	3.66
385.846	3.66
386.292	3.67
386.739	3.68
387.185	3.7
387.631	3.72
388.078	3.73
388.524	3.73
388.97	3.75
389.416	3.75
389.862	3.77
390.308	3.79
390.754	3.8
391.2	3.82
391.645	3.83
392.091	3.84
392.537	3.85
392.983	3.87
393.428	3.89
393.874	3.9
394.319	3.92
394.765	3.92
395.21	3.93
395.655	3.95
396.101	3.96
396.546	3.98
396.991	3.98
397.436	3.97
397.881	3.97
398.326	4
398.771	4.01
399.216	4.03
399.661	4.05
400.106	4.06
400.551	4.05
400.995	4.06
401.44	4.06
401.885	4.07
402.329	4.09
402.774	4.1
403.218	4.1
403.663	4.1
404.107	4.11
404.551	4.11
404.995	4.11
405.44	4.11
405.884	4.12
406.328	4.13
406.772	4.14
407.216	4.14
407.66	4.14
408.104	4.15
408.547	4.14
408.991	4.15
409.435	4.15
409.879	4.17
410.322	4.2
410.766	4.21
411.209	4.22
411.653	4.21
412.096	4.21
412.54	4.23
412.983	4.24
413.426	4.26
413.869	4.26
414.312	4.28
414.756	4.3
415.199	4.31
415.642	4.32
416.085	4.34
416.527	4.36
416.97	4.38
417.413	4.36
417.856	4.36
418.298	4.34
418.741	4.35
419.184	4.33
419.626	4.32
420.069	4.3
420.511	4.3
420.953	4.28
421.396	4.29
421.838	4.31
422.28	4.33
422.722	4.34
423.164	4.35
423.606	4.35
424.048	4.36
424.49	4.37
424.932	4.37
425.374	4.37
425.816	4.35
426.258	4.34
426.699	4.32
427.141	4.31
427.582	4.31
428.024	4.32
428.465	4.33
428.907	4.34
429.348	4.33
429.789	4.34
430.231	4.35
430.672	4.37
431.113	4.39
431.554	4.41
431.995	4.43
432.436	4.44
432.877	4.43
433.318	4.43
433.759	4.44
434.2	4.46
434.64	4.47
435.081	4.47
435.522	4.48
435.962	4.49
436.403	4.51
436.843	4.51
437.284	4.52
437.724	4.55
438.164	4.57
438.604	4.59
439.045	4.59
439.485	4.6
439.925	4.61
440.365	4.6
440.805	4.59
441.245	4.57
441.685	4.58
442.125	4.57
442.564	4.57
443.004	4.56
443.444	4.55
443.883	4.57
444.323	4.56
444.762	4.58
445.202	4.62
445.641	4.64
446.081	4.65
446.52	4.65
446.959	4.66
447.398	4.69
447.837	4.72
448.276	4.73
448.716	4.71
449.154	4.74
449.593	4.76
450.032	4.75
450.471	4.74
450.91	4.75
451.349	4.76
451.787	4.75
452.226	4.75
452.664	4.73
453.103	4.72
453.541	4.73
453.98	4.7
454.418	4.67
454.856	4.66
455.295	4.64
455.733	4.63
456.171	4.62
456.609	4.61
457.047	4.61
457.485	4.6
457.923	4.6
458.361	4.58
458.798	4.59
459.236	4.59
459.674	4.58
460.111	4.6
460.549	4.59
460.987	4.58
461.424	4.58
461.862	4.57
462.299	4.57
462.736	4.57
463.173	4.57
463.611	4.56
464.048	4.58
464.485	4.59
464.922	4.59
465.359	4.6
465.796	4.62
466.233	4.63
466.67	4.65
467.106	4.63
467.543	4.64
467.98	4.65
468.416	4.65
468.853	4.65
469.29	4.65
469.726	4.66
470.162	4.65
470.599	4.63
471.035	4.62
471.471	4.61
471.907	4.61
472.344	4.62
472.78	4.62
473.216	4.61
473.652	4.59
474.088	4.6
474.523	4.58
474.959	4.58
475.395	4.57
475.831	4.57
476.266	4.56
476.702	4.55
477.138	4.52
477.573	4.5
478.008	4.49
478.444	4.49
478.879	4.46
479.314	4.44
479.75	4.45
480.185	4.45
480.62	4.43
481.055	4.43
481.49	4.41
481.925	4.42
482.36	4.41
482.795	4.4
483.229	4.39
483.664	4.39
484.099	4.4
484.534	4.38
484.968	4.38
485.403	4.39
485.837	4.37
486.271	4.38
486.706	4.36
487.14	4.37
487.574	4.37
488.009	4.37
488.443	4.37
488.877	4.38
489.311	4.38
489.745	4.38
490.179	4.39
490.613	4.41
491.046	4.42
491.48	4.44
491.914	4.45
492.348	4.47
492.781	4.49
493.215	4.51
493.648	4.52
494.082	4.55
494.515	4.57
494.948	4.59
495.382	4.61
495.815	4.63
496.248	4.66
496.681	4.68
497.114	4.72
497.547	4.75
497.98	4.78
498.413	4.81
498.846	4.85
499.279	4.89
499.711	4.94
500.144	4.99
500.577	5.05
501.009	5.11
501.442	5.18
501.874	5.23
502.306	5.29
502.739	5.36
503.171	5.45
503.603	5.53
504.036	5.63
504.468	5.73
504.9	5.83
505.332	5.93
505.764	6.05
506.196	6.16
506.627	6.29
507.059	6.43
507.491	6.57
507.923	6.71
508.354	6.86
508.786	7.01
509.217	7.15
509.649	7.33
510.08	7.5
510.512	7.67
510.943	7.87
511.374	8.06
511.805	8.25
512.237	8.46
512.668	8.67
513.099	8.9
513.53	9.13
513.961	9.38
514.391	9.61
514.822	9.87
515.253	10.13
515.684	10.38
516.114	10.66
516.545	10.95
516.975	11.24
517.406	11.53
517.836	11.81
518.267	12.11
518.697	12.41
519.127	12.71
519.558	13.01
519.988	13.32
520.418	13.62
520.848	13.92
521.278	14.22
521.708	14.54
522.138	14.84
522.567	15.13
522.997	15.42
523.427	15.7
523.857	15.98
524.286	16.26
524.716	16.52
525.145	16.77
525.575	17.04
526.004	17.28
526.433	17.51
526.863	17.75
527.292	17.98
527.721	18.19
528.15	18.39
528.579	18.6
529.008	18.79
529.437	18.97
529.866	19.15
530.295	19.31
530.724	19.48
531.152	19.64
531.581	19.77
532.01	19.91
532.438	20.05
532.867	20.19
533.295	20.3
533.723	20.43
534.152	20.55
534.58	20.65
535.008	20.72
535.436	20.79
535.865	20.87
536.293	20.94
536.721	21.02
537.149	21.08
537.576	21.14
538.004	21.21
538.432	21.26
538.86	21.31
539.287	21.38
539.715	21.43
540.143	21.49
540.57	21.53
540.998	21.58
541.425	21.62
541.852	21.65
542.28	21.67
542.707	21.72
543.134	21.75
543.561	21.77
543.988	21.8
544.415	21.83
544.842	21.86
545.269	21.9
545.696	21.92
546.123	21.95
546.549	22
546.976	22.04
547.403	22.07
547.829	22.09
548.256	22.12
548.682	22.14
549.108	22.15
549.535	22.17
549.961	22.17
550.387	22.17
550.813	22.16
551.24	22.16
551.666	22.14
552.092	22.11
552.518	22.08
552.943	22.06
553.369	22.01
553.795	21.98
554.221	21.94
554.646	21.89
555.072	21.85
555.498	21.78
555.923	21.71
556.349	21.65
556.774	21.58
557.199	21.5
557.625	21.4
558.05	21.31
558.475	21.22
558.9	21.12
559.325	21.02
559.75	20.88
560.175	20.77
560.6	20.63
561.025	20.5
561.449	20.36
561.874	20.21
562.299	20.05
562.723	19.9
563.148	19.73
563.572	19.57
563.997	19.39
564.421	19.21
564.846	19.04
565.27	18.85
565.694	18.63
566.118	18.45
566.542	18.26
566.966	18.08
567.39	17.9
567.814	17.7
568.238	17.49
568.662	17.3
569.086	17.12
569.509	16.92
569.933	16.75
570.357	16.57
570.78	16.38
571.204	16.2
571.627	16.02
572.05	15.86
572.474	15.69
572.897	15.53
573.32	15.37
573.743	15.21
574.166	15.05
574.589	14.9
575.012	14.77
575.435	14.63
575.858	14.5
576.281	14.37
576.704	14.23
577.126	14.09
577.549	13.99
577.972	13.86
578.394	13.74
578.817	13.64
579.239	13.55
579.661	13.45
580.084	13.35
580.506	13.26
580.928	13.16
581.35	13.07
581.772	13.01
582.194	12.92
582.616	12.84
583.038	12.79
583.46	12.7
583.882	12.62
584.303	12.53
584.725	12.45
585.147	12.37
585.568	12.29
585.99	12.23
586.411	12.15
586.833	12.09
587.254	12.04
587.675	11.97
588.096	11.93
588.518	11.89
588.939	11.84
589.36	11.79
589.781	11.75
590.202	11.71
590.623	11.65
591.043	11.62
591.464	11.56
591.885	11.51
592.305	11.47
592.726	11.43
593.147	11.39
593.567	11.35
593.987	11.33
594.408	11.29
594.828	11.25
595.248	11.23
595.669	11.2
596.089	11.16
596.509	11.13
596.929	11.08
597.349	11.04
597.769	11
598.189	10.96
598.608	10.91
599.028	10.87
599.448	10.86
599.867	10.81
600.287	10.76
600.706	10.73
601.126	10.69
601.545	10.65
601.965	10.6
602.384	10.57
602.803	10.52
603.222	10.46
603.641	10.4
604.061	10.33
604.48	10.27
604.898	10.21
605.317	10.15
605.736	10.08
606.155	10.01
606.574	9.95
606.992	9.86
607.411	9.81
607.829	9.69
608.248	9.63
608.666	9.56
609.085	9.49
609.503	9.42
609.921	9.35
610.339	9.28
610.758	9.22
611.176	9.14
611.594	9.07
612.012	8.98
612.43	8.96
612.847	8.88
613.265	8.83
613.683	8.76
614.101	8.69
614.518	8.62
614.936	8.56
615.353	8.5
615.771	8.46
616.188	8.43
616.606	8.38
617.023	8.33
617.44	8.28
617.857	8.23
618.274	8.19
618.691	8.15
619.108	8.13
619.525	8.09
619.942	8.06
620.359	8.03
620.776	8
621.192	7.98
621.609	7.95
622.026	7.94
622.442	7.92
622.859	7.9
623.275	7.89
623.691	7.86
624.108	7.85
624.524	7.82
624.94	7.8
625.356	7.78
625.772	7.76
626.188	7.76
626.604	7.74
627.02	7.74
627.436	7.73
627.852	7.71
628.268	7.7
628.683	7.68
629.099	7.67
629.514	7.65
629.93	7.64
630.345	7.62
630.761	7.58
631.176	7.56
631.591	7.53
632.007	7.51
632.422	7.48
632.837	7.44
633.252	7.41
633.667	7.36
634.082	7.32
634.497	7.27
634.911	7.22
635.326	7.15
635.741	7.08
636.155	7.02
636.57	6.94
636.984	6.86
637.399	6.78
637.813	6.7
638.228	6.63
638.642	6.55
639.056	6.47
639.47	6.4
639.884	6.33
640.298	6.26
640.712	6.18
641.126	6.1
641.54	6.02
641.954	5.96
642.368	5.89
642.781	5.83
643.195	5.76
643.609	5.7
644.022	5.64
644.436	5.59
644.849	5.53
645.262	5.5
645.676	5.45
646.089	5.4
646.502	5.34
646.915	5.3
647.328	5.25
647.741	5.21
648.154	5.17
648.567	5.15
648.98	5.11
649.393	5.09
649.805	5.04
650.218	5.02
650.631	5.02
651.043	4.99
651.456	4.98
651.868	4.96
652.28	4.95
652.693	4.95
653.105	4.92
653.517	4.9
653.929	4.88
654.341	4.88
654.753	4.84
655.165	4.83
655.577	4.8
655.989	4.76
656.401	4.72
656.813	4.68
657.224	4.63
657.636	4.6
658.047	4.57
658.459	4.54
658.87	4.5
659.282	4.48
659.693	4.44
660.104	4.42
660.515	4.4
660.926	4.39
661.338	4.36
661.749	4.33
662.159	4.31
662.57	4.29
662.981	4.27
663.392	4.25
663.803	4.23
664.213	4.22
664.624	4.22
665.035	4.2
665.445	4.19
665.855	4.2
666.266	4.21
666.676	4.2
667.086	4.2
667.497	4.2
667.907	4.2
668.317	4.2
668.727	4.21
669.137	4.2
669.547	4.23
669.956	4.23
670.366	4.24
670.776	4.25
671.186	4.27
671.595	4.28
672.005	4.31
672.414	4.34
672.824	4.36
673.233	4.39
673.642	4.42
674.052	4.44
674.461	4.47
674.87	4.49
675.279	4.52
675.688	4.55
676.097	4.59
676.506	4.61
676.915	4.65
677.323	4.69
677.732	4.7
678.141	4.74
678.549	4.78
678.958	4.82
679.366	4.85
679.775	4.9
680.183	4.94
680.592	4.98
681	5.01
681.408	5.05
681.816	5.07
682.224	5.14
682.632	5.19
683.04	5.25
683.448	5.3
683.856	5.39
684.264	5.46
684.671	5.54
685.079	5.62
685.487	5.74
685.894	5.87
686.302	5.99
686.709	6.12
687.116	6.41
687.524	6.6
687.931	6.81
688.338	7.04
688.745	7.3
689.152	7.59
689.559	7.9
689.966	8.24
690.373	8.62
690.78	9.03
691.187	9.47
691.593	9.8
692	10.27
692.407	10.79
692.813	11.33
693.22	11.88
693.626	12.45
694.032	13.07
694.439	13.71
694.845	14.32
695.251	14.97
695.657	15.63
696.063	16.32
696.469	17.02
696.875	17.71
697.281	18.39
697.687	19.14
698.093	19.88
698.498	20.62
698.904	21.36
699.31	22.1
699.715	22.85
700.12	23.57
700.526	24.31
700.931	25.04
701.337	25.8
701.742	26.52
702.147	27.24
702.552	27.96
702.957	28.66
703.362	29.37
703.767	30.09
704.172	30.79
704.577	31.52
704.981	32.22
705.386	32.91
705.791	33.62
706.195	34.34
706.6	35.01
707.004	35.68
707.408	36.36
707.813	37.04
708.217	37.69
708.621	38.35
709.025	39
709.43	39.6
709.834	40.28
710.237	40.84
710.641	41.45
711.045	42.05
711.449	42.64
711.853	43.24
712.256	43.82
712.66	44.44
713.064	45.02
713.467	45.61
713.87	46.22
714.274	46.78
714.677	47.41
715.08	47.99
715.484	48.58
715.887	49.15
716.29	49.69
716.693	50.22
717.096	50.74
717.499	51.29
717.901	51.78
718.304	52.28
718.707	52.76
719.109	53.25
719.512	53.74
719.915	54.19
720.317	54.65
720.719	55.07
721.122	55.53
721.524	55.96
721.926	56.36
722.328	56.78
722.731	57.18
723.133	57.56
723.535	57.94
723.937	58.31
724.338	58.71
724.74	59.07
725.142	59.46
725.544	59.78
725.945	60.14
726.347	60.47
726.748	60.76
727.15	61.08
727.551	61.41
727.952	61.69
728.354	61.99
728.755	62.24
729.156	62.53
729.557	62.8
729.958	63.08
730.359	63.32
730.76	63.54
731.161	63.8
731.562	64.02
731.962	64.25
732.363	64.44
732.763	64.64
733.164	64.79
733.564	64.97
733.965	65.11
734.365	65.25
734.766	65.37
735.166	65.52
735.566	65.63
735.966	65.76
736.366	65.85
736.766	65.97
737.166	66.09
737.566	66.22
737.966	66.33
738.365	66.43
738.765	66.54
739.165	66.64
739.564	66.76
739.964	66.86
740.363	66.96
740.763	67.06
741.162	67.12
741.561	67.21
741.96	67.31
742.36	67.38
742.759	67.45
743.158	67.51
743.557	67.61
743.955	67.68
744.354	67.77
744.753	67.85
745.152	67.89
745.55	67.99
745.949	68.03
746.348	68.08
746.746	68.11
747.144	68.21
747.543	68.27
747.941	68.31
748.339	68.39
748.737	68.44
749.136	68.45
749.534	68.51
749.932	68.54
750.33	68.56
750.727	68.56
751.125	68.6
751.523	68.6
751.921	68.67
752.318	68.67
752.716	68.68
753.113	68.67
753.511	68.66
753.908	68.65
754.305	68.65
754.703	68.67
755.1	68.7
755.497	68.72
755.894	68.74
756.291	68.73
756.688	68.74
757.085	68.75
757.482	68.77
757.878	68.84
758.275	68.86
758.672	68.91
759.068	68.96
759.465	68.97
759.861	68.97
760.258	68.96
760.654	68.92
761.05	68.92
761.447	68.91
761.843	68.89
762.239	68.83
762.635	68.86
763.031	68.83
763.427	68.79
763.822	68.75
764.218	68.75
764.614	68.73
765.01	68.78
765.405	68.75
765.801	68.75
766.196	68.76
766.592	68.77
766.987	68.73
767.382	68.71
767.778	68.73
768.173	68.74
768.568	68.71
768.963	68.7
769.358	68.68
769.753	68.73
770.148	68.72
770.542	68.68
770.937	68.66
771.332	68.64
771.726	68.63
772.121	68.6
772.515	68.6
772.91	68.61
773.304	68.6
773.699	68.58
774.093	68.52
774.487	68.53
774.881	68.57
775.275	68.57
775.669	68.6
776.063	68.57
776.457	68.55
776.851	68.51
777.245	68.51
777.638	68.51
778.032	68.56
778.425	68.59
778.819	68.57
779.212	68.54
779.606	68.51
779.999	68.47
780.392	68.49
780.786	68.52
781.179	68.55
781.572	68.54
781.965	68.54
782.358	68.46
782.751	68.48
783.143	68.48
783.536	68.53
783.929	68.59
784.322	68.59
784.714	68.6
785.107	68.62
785.499	68.64
785.891	68.69
786.284	68.68
786.676	68.75
787.068	68.73
787.46	68.72
787.852	68.68
788.245	68.66
788.636	68.7
789.028	68.71
789.42	68.66
789.812	68.68
790.204	68.62
790.595	68.63
790.987	68.6
791.378	68.59
791.77	68.64
792.161	68.66
792.553	68.72
792.944	68.73
793.335	68.75
793.726	68.75
794.117	68.7
794.508	68.74
794.899	68.73
795.29	68.72
795.681	68.73
796.072	68.74
796.463	68.74
796.853	68.7
797.244	68.67
797.634	68.67
798.025	68.69
798.415	68.71
798.806	68.75
799.196	68.77
799.586	68.83
799.976	68.83
800.366	68.81
800.756	68.79
801.146	68.75
801.536	68.75
801.926	68.75
802.316	68.76
802.706	68.78
803.095	68.77
803.485	68.75
803.874	68.69
804.264	68.73
804.653	68.7
805.043	68.72
805.432	68.73
805.821	68.72
806.21	68.76
806.599	68.78
806.988	68.78
807.377	68.8
807.766	68.8
808.155	68.86
808.544	68.81
808.933	68.84
809.321	68.84
809.71	68.92
810.098	68.92
810.487	68.87
810.875	68.84
811.264	68.86
811.652	68.87
812.04	68.9
812.428	68.91
812.816	68.94
813.204	68.97
813.592	68.98
813.98	68.92
814.368	68.95
814.756	68.98
815.144	69.03
815.531	69.03
815.919	69
816.306	68.97
816.694	68.99
817.081	68.97
817.469	68.98
817.856	69.03
818.243	69.08
818.63	69.1
819.017	69.1
819.404	69.08
819.791	69.06
820.178	69.05
820.565	69.09
820.952	69.11
821.339	69.16
821.725	69.18
822.112	69.19
822.498	69.16
822.885	69.19
823.271	69.21
823.657	69.24
824.044	69.27
824.43	69.32
824.816	69.32
825.202	69.31
825.588	69.29
825.974	69.29
826.36	69.28
826.746	69.35
827.132	69.33
827.517	69.34
827.903	69.31
828.289	69.32
828.674	69.31
829.06	69.31
829.445	69.32
829.83	69.33
830.216	69.31
830.601	69.3
830.986	69.27
831.371	69.33
831.756	69.32
832.141	69.34
832.526	69.35
832.911	69.38
833.295	69.42
833.68	69.42
834.065	69.41
834.449	69.39
834.834	69.39
835.218	69.36
835.603	69.32
835.987	69.33
836.371	69.33
836.755	69.3
837.139	69.26
837.524	69.22
837.908	69.19
838.291	69.18
838.675	69.2
839.059	69.19
839.443	69.19
839.827	69.17
840.21	69.17
840.594	69.16
840.977	69.13
841.361	69.16
841.744	69.13
842.127	69.14
842.511	69.17
842.894	69.16
843.277	69.18
843.66	69.22
844.043	69.24
844.426	69.2
844.809	69.21
845.191	69.22
845.574	69.16
845.957	69.16
846.339	69.15
846.722	69.15
847.104	69.16
847.487	69.15
847.869	69.11
848.252	69.08
848.634	69.12
849.016	69.13
849.398	69.1
849.78	69.15
850.162	69.15
850.544	69.16
850.926	69.13
851.307	69.13
851.689	69.1
852.071	69.08
852.452	69.1
852.834	69.09
853.215	69.06
853.597	69.09
853.978	69.06
854.359	69.04
854.741	69.05
855.122	69.07
855.503	69.09
855.884	69.1
856.265	69.1
856.646	69.08
857.026	69.08
857.407	69.03
857.788	69.06
858.169	69.08
858.549	69.1
858.93	69.11
859.31	69.09
859.69	69.03
860.071	69.01
860.451	69
860.831	69.02
861.211	68.99
861.591	69.02
861.971	68.98
862.351	68.98
862.731	68.96
863.111	68.95
863.491	68.97
863.87	68.99
864.25	69.04
864.629	69.05
865.009	69.05
865.388	69.05
865.768	69.05
866.147	69.1
866.526	69.08
866.905	69.09
867.284	69.09
867.663	69.1
868.042	69.1
868.421	69.04
868.8	69.02
869.179	69.03
869.558	69.05
869.936	69.05
870.315	69.03
870.693	69.06
871.072	69.04
871.45	69.01
871.828	68.97
872.207	68.99
872.585	69.01
872.963	69
873.341	68.97
873.719	68.94
874.097	68.95
874.475	68.94
874.853	68.88
875.23	68.88
875.608	68.9
875.986	68.91
876.363	68.88
876.741	68.89
877.118	68.91
877.495	68.91
877.873	68.89
878.25	68.87
878.627	68.85
879.004	68.89
879.381	68.91
879.758	68.88
880.135	68.89
880.512	68.88
880.889	68.88
881.265	68.91
881.642	68.89
882.019	68.88
882.395	68.91
882.772	68.89
883.148	68.86
883.524	68.88
883.901	68.86
884.277	68.83
884.653	68.86
885.029	68.86
885.405	68.86
885.781	68.86
886.157	68.88
886.532	68.86
886.908	68.87
887.284	68.89
887.659	68.89
888.035	68.92
888.411	68.9
888.786	68.85
889.161	68.83
889.537	68.81
889.912	68.8
890.287	68.78
890.662	68.78
891.037	68.74
891.412	68.73
891.787	68.68
892.162	68.67
892.536	68.66
892.911	68.66
893.286	68.64
893.66	68.62
894.035	68.6
894.409	68.6
894.784	68.61
895.158	68.65
895.532	68.62
895.906	68.59
896.281	68.53
896.655	68.52
897.029	68.51
897.402	68.53
897.776	68.55
898.15	68.56
898.524	68.55
898.898	68.51
899.271	68.46
899.645	68.49
900.018	68.5
900.392	68.55
900.765	68.56
901.138	68.56
901.511	68.53
901.884	68.54
902.258	68.52
902.631	68.52
903.003	68.52
903.376	68.52
903.749	68.49
904.122	68.52
904.495	68.5
904.867	68.5
905.24	68.51
905.612	68.5
905.985	68.44
906.357	68.42
906.729	68.4
907.102	68.38
907.474	68.42
907.846	68.41
908.218	68.37
908.59	68.36
908.962	68.36
909.334	68.32
909.705	68.34
910.077	68.34
910.449	68.4
910.82	68.39
911.192	68.37
911.563	68.34
911.935	68.35
912.306	68.33
912.677	68.34
913.048	68.27
913.419	68.27
913.79	68.25
914.161	68.2
914.532	68.14
914.903	68.16
915.274	68.13
915.645	68.12
916.015	68.07
916.386	68.04
916.756	67.99
917.127	68.03
917.497	68.02
917.868	67.99
918.238	68.03
918.608	68
918.978	67.96
919.348	67.92
919.718	67.91
920.088	67.95
920.458	68.03
920.828	68.06
921.198	68.05
921.567	67.98
921.937	68
922.306	67.95
922.676	67.97
923.045	67.93
923.415	67.94
923.784	67.92
924.153	67.85
924.522	67.77
924.891	67.71
925.26	67.62
925.629	67.67
925.998	67.63
926.367	67.58
926.736	67.54
927.104	67.55
927.473	67.55
927.842	67.51
928.21	67.56
928.578	67.53
928.947	67.55
929.315	67.56
929.683	67.53
930.051	67.51
930.42	67.58
930.788	67.59
931.156	67.55
931.523	67.54
931.891	67.47
932.259	67.36
932.627	67.28
932.994	67.25
933.362	67.2
933.729	67.16
934.097	67.12
934.464	67.02
934.831	66.99
935.199	66.93
935.566	66.83
935.933	66.84
936.3	66.83
936.667	66.81
937.034	66.71
937.401	66.68
937.767	66.6
938.134	66.59
938.501	66.48
938.867	66.4
939.234	66.4
939.6	66.38
939.967	66.36
940.333	66.42
940.699	66.46
941.065	66.5
941.431	66.57
941.798	66.65
942.163	66.64
942.529	66.7
942.895	66.75
943.261	66.78
943.627	66.94
943.992	66.92
944.358	66.85
944.723	66.94
945.089	66.97
945.454	66.97
945.82	67.06
946.185	67.1
946.55	67.19
946.915	67.14
947.28	67.11
947.645	67.01
948.01	67.05
948.375	67.08
948.74	66.95
949.104	66.94
949.469	66.88
949.834	66.7
950.198	66.62
950.562	66.54
950.927	66.51
951.291	66.45
951.655	66.43
952.02	66.37
952.384	66.38
952.748	66.45
953.112	66.47
953.476	66.46
953.839	66.52
954.203	66.5
954.567	66.43
954.931	66.44
955.294	66.48
955.658	66.37
956.021	66.36
956.385	66.34
956.748	66.3
957.111	66.18
957.474	66.15
957.837	66.17
958.2	66.06
958.563	66.05
958.926	65.93
959.289	65.85
959.652	65.93
960.015	65.9
960.377	65.88
960.74	65.81
961.102	65.83
961.465	65.81
961.827	65.72
962.189	65.76
962.552	65.68
962.914	65.72
963.276	65.76
963.638	65.67
964	65.64
964.362	65.56
964.724	65.57
965.085	65.54
965.447	65.47
965.809	65.39
966.17	65.35
966.532	65.43
966.893	65.43
967.255	65.31
967.616	65.35
967.977	65.37
968.338	65.32
968.699	65.28
969.061	65.27
969.421	65.29
969.782	65.35
970.143	65.38
970.504	65.36
970.865	65.29
971.225	65.34
971.586	65.33
971.946	65.32
972.307	65.34
972.667	65.35
973.027	65.39
973.388	65.41
973.748	65.39
974.108	65.3
974.468	65.33
974.828	65.47
975.188	65.47
975.548	65.43
975.907	65.36
976.267	65.3
976.627	65.31
976.986	65.23
977.346	65.21
977.705	65.13
978.064	65.2
978.424	65.09
978.783	64.98
979.142	64.89
979.501	64.79
979.86	64.79
980.219	64.73
980.578	64.58
980.937	64.58
981.296	64.59
981.654	64.69
982.013	64.67
982.371	64.7
982.73	64.67
983.088	64.77
983.447	64.95
983.805	64.95
984.163	65.01
984.521	65.05
984.879	65.05
985.237	64.99
985.595	64.98
985.953	64.94
986.311	64.95
986.669	64.85
987.026	64.86
987.384	64.76
987.741	64.68
988.099	64.61
988.456	64.7
988.814	64.72
989.171	64.76
989.528	64.66
989.885	64.62
990.242	64.62
990.599	64.82
990.956	64.81
991.313	64.79
991.67	64.94
992.027	65.03
992.383	64.94
992.74	64.79
993.096	64.73
993.453	64.67
993.809	64.7
994.165	64.7
994.522	64.58
994.878	64.49
995.234	64.46
995.59	64.36
995.946	64.31
996.302	64.26
996.658	64.29
997.013	64.31
997.369	64.37
997.725	64.43
998.08	64.28
998.436	64.4
998.791	64.35
999.147	64.36
999.502	64.31
999.857	64.46
1000.212	64.46
1000.567	64.47
1000.922	64.37
1001.277	64.19
1001.632	64.21
1001.987	64.19
1002.342	64.1
1002.696	64.22
1003.051	64.06
1003.406	63.78
1003.76	63.57
1004.114	63.72
1004.469	63.66
1004.823	63.71
1005.177	63.93
1005.531	63.54
1005.885	63.62
1006.239	63.45
1006.593	63.25
1006.947	63.32
1007.301	63.63
1007.655	63.63
1008.008	63.31
1008.362	63.44
1008.715	63.34
1009.069	63.2
1009.422	63.49
1009.776	63.38
1010.129	63.34
1010.482	63.15
1010.835	63.2
1011.188	62.99
1011.541	62.75
1011.894	62.81
1012.247	62.47
1012.6	62.5
1012.952	62.57
1013.305	62.37
1013.657	62.51
1014.01	62.68
1014.362	63.01
1014.715	62.93
1015.067	62.95
1015.419	63.39
1015.771	63.73
1016.123	63.89
1016.475	63.93
1016.827	64.04
1017.179	64.16
1017.531	64.01
1017.883	64.1
1018.234	64.08
1018.586	64.02
1018.938	64.01
1019.289	63.81
1019.64	63.78
1019.992	63.69
1020.343	63.49
1020.694	63.09
1021.045	62.96
1021.396	62.94
1021.747	62.51
1022.098	62.34
1022.449	62.24
1022.8	62.25
1023.151	62.11
1023.501	61.76
1023.852	61.83
1024.202	61.74
1024.553	61.67
1024.903	61.8
1025.253	61.95
1025.604	61.96
1025.954	61.77
1026.304	62.23
1026.654	62.11
1027.004	62.11
1027.354	62.15
1027.703	62.06
1028.053	61.81
1028.403	62.03
1028.753	62.19
1029.102	61.75
1029.452	61.73
1029.801	61.7
1030.15	61.19
1030.499	61.25
897.758	683.61
901.051	689.48
904.343	695.17
907.636	685.36
910.928	674.09
914.22	682.21
917.511	674.48
920.803	646.19
924.094	619.4
927.384	626.83
930.675	603.18
933.965	596.34
937.255	598.92
940.544	573.17
943.834	547.37
947.123	540.11
950.411	515.11
953.7	501.61
956.988	490.5
960.276	467.04
963.563	461.45
966.851	440.73
970.138	431.98
973.424	402.78
976.711	397.4
979.997	386.5
983.283	377.57
986.568	365.4
989.853	355.89
993.138	340.96
996.423	339.66
999.708	328.27
1002.992	329.68
1006.275	319.56
1009.559	316.85
1012.842	308.99
1016.125	298.26
1019.408	293.05
1022.69	291.69
1025.972	288.48
1029.254	281.33
1032.536	275.31
1035.817	267.33
1039.098	262.62
1042.379	258.3
1045.659	254.7
1048.939	252.35
1052.219	248.98
1055.498	243.36
1058.778	238.74
1062.057	234.63
1065.335	234.27
1068.614	230.88
1071.892	226.98
1075.17	223.4
1078.447	220.55
1081.724	218.63
1085.001	214.07
1088.278	213.58
1091.554	213.26
1094.83	211.25
1098.106	208.46
1101.382	207.04
1104.657	205.87
1107.932	205.82
1111.206	204.7
1114.481	202.05
1117.755	200.05
1121.029	199.91
1124.302	196.29
1127.575	193.24
1130.848	193.09
1134.121	190.42
1137.393	190.12
1140.665	188.41
1143.937	186.21
1147.208	184.37
1150.48	183.27
1153.75	182.63
1157.021	180.56
1160.291	180.03
1163.561	180.89
1166.831	178.41
1170.101	178.81
1173.37	176.91
1176.639	175.18
1179.907	175.86
1183.176	175.77
1186.444	176.01
1189.711	174.91
1192.979	177.01
1196.246	176.63
1199.513	174.24
1202.78	175.89
1206.046	175.71
1209.312	176.52
1212.578	177.83
1215.843	179.38
1219.108	179.88
1222.373	182.63
1225.638	185.29
1228.902	188.19
1232.166	194.11
1235.43	198.03
1238.693	203.03
1241.956	207.07
1245.219	212.85
1248.482	214.04
1251.744	213.3
1255.006	214.54
1258.268	208.94
1261.529	208.14
1264.79	202.05
1268.051	198.15
1271.312	196.96
1274.572	192.06
1277.832	187.44
1281.092	184.91
1284.351	181.66
1287.61	181.82
1290.869	180.16
1294.128	179.72
1297.386	178.25
1300.644	178.46
1303.902	177.98
1307.159	177.18
1310.416	178.15
1313.673	181.4
1316.93	181.67
1320.186	184.78
1323.442	186.51
1326.697	190.27
1329.953	191.04
1333.208	198.28
1336.463	205.18
1339.717	208.95
1342.972	217.36
1346.226	223.14
1349.479	224.29
1352.733	234.57
1355.986	238.72
1359.238	243.82
1362.491	245.59
1365.743	255.83
1368.995	255.79
1372.247	251.79
1375.498	250.76
1378.749	258.69
1382	257.2
1385.251	256.8
1388.501	255.35
1391.751	258.44
1395	256.2
1398.25	257.81
1401.499	256.02
1404.748	255.84
1407.996	252.05
1411.244	252.87
1414.492	247.91
1417.74	241.74
1420.987	235.9
1424.234	232.67
1427.481	223.56
1430.728	217.97
1433.974	210.77
1437.22	204.57
1440.465	197.11
1443.711	192.9
1446.956	186.71
1450.201	179.17
1453.445	171.59
1456.689	166.9
1459.933	160.75
1463.177	153.63
1466.42	150.86
1469.663	146.23
1472.906	141.7
1476.148	138.01
1479.391	135.3
1482.633	133.49
1485.874	130.63
1489.115	129.64
1492.356	127.19
1495.597	126.13
1498.838	126
1502.078	124.76
1505.318	124.43
1508.557	123.7
1511.797	122.79
1515.036	122.05
1518.274	121.64
1521.513	120.53
1524.751	119.79
1527.989	121.35
1531.227	120.45
1534.464	120.16
1537.701	119.36
1540.938	119.06
1544.174	119.04
1547.41	118.7
1550.646	118.78
1553.882	118.42
1557.117	118.54
1560.352	118.33
1563.587	117.06
1566.821	117.22
1570.055	116.61
1573.289	116.29
1576.523	116.75
1579.756	116.19
1582.989	116.95
1586.222	116.42
1589.454	115.95
1592.686	116.32
1595.918	116.03
1599.15	115.89
1602.381	116.12
1605.612	116.5
1608.843	116.7
1612.073	117.12
1615.303	117.52
1618.533	117.02
1621.762	118.07
1624.992	118.16
1628.221	117.94
1631.449	118.89
1634.678	118.14
1637.906	118.57
1641.134	118.9
1644.361	119.01
1647.588	118.58
1650.815	118.65
1654.042	118.99
1657.269	118.13
1660.495	118.93
1663.72	118.56
1666.946	118.41
1670.171	119.67
1673.396	119.83
1676.621	119.95
1679.845	119.99
1683.069	119.98
1686.293	119.81
1689.517	119.68
1692.74	120.14
1695.963	120.52
1699.185	121.64
1702.408	121.36
1705.63	121.47
1708.852	121.9
1712.073	121.36
1715.294	121.62
1718.515	122.03
1721.736	122.15
1724.956	122.69
1728.176	122.6
1731.396	122.84
1734.616	122.54
1737.835	123.17
1741.054	122.7
1744.272	122.05
1747.491	122.15
1750.709	123.34
1753.927	123.22
1757.144	123.3
1760.361	123.07
1763.578	124.5
1766.795	124.87
1770.011	124.06
1773.227	124.95
1776.443	125.81
1779.658	126.56
1782.874	127.61
1786.089	127.17
1789.303	127.37
1792.518	128.97
1795.732	130.34
1798.945	129.99
1802.159	130.42
1805.372	133.1
1808.585	133.54
1811.797	134.21
1815.01	135.25
1818.222	136.18
1821.434	136.49
1824.645	137.87
1827.856	139.45
1831.067	139.1
1834.278	140.94
1837.488	141.44
1840.698	142.62
1843.908	142.87
1847.117	144.58
1850.326	145.08
1853.535	144.73
1856.744	146.86
1859.952	147.77
1863.16	147.4
1866.368	146.94
1869.575	147.72
1872.782	147.22
1875.989	145.56
1879.196	144.38
1882.402	142.74
1885.608	143.28
1888.814	143.15
1892.019	144.64
1895.224	142.27
1898.429	142.58
1901.634	144.46
1904.838	143.43
1908.042	143.83
1911.246	144.25
1914.449	145.75
1917.652	145.35
1920.855	145.1
1924.058	144.79
1927.26	142.79
1930.462	144.12
1933.664	144.67
1936.865	143.49
1940.066	141.96
1943.267	141.72
1946.467	143.29
1949.668	143.41
1952.868	143.74
1956.067	143.56
1959.267	144.75
1962.466	145.61
1965.665	147.17
1968.863	146.93
1972.061	148.09
1975.259	152.08
1978.457	152.5
1981.654	153.5
1984.852	154.24
1988.048	156.79
1991.245	159.47
1994.441	161.58
1997.637	165.28
2000.833	167.32
2004.028	168.7
2007.223	174.94
2010.418	177.83
2013.613	185.52
2016.807	190.26
2020.001	193.63
2023.194	199.48
2026.388	206.34
2029.581	217
2032.774	222.52
2035.966	230.72
2039.158	239.2
2042.35	241.44
2045.542	246.4
2048.733	257.9
2051.924	258.11
2055.115	263.44
2058.306	265.91
2061.496	272.11
2064.686	272.03
2067.875	269.38
2071.065	270.68
2074.254	272.5
2077.442	281.86
2080.631	282.87
2083.819	282.07
2087.007	287.67
2090.195	293.11
2093.382	292.79
2096.569	291.3
2099.756	296.92
2102.942	304.67
2106.128	312.43
2109.314	312.42
2112.5	311.2
2115.685	311.88
2118.87	312.52
2122.055	317.48
2125.239	323.77
2128.424	331.62
2131.608	330.02
2134.791	330.6
2137.974	331.24
2141.157	332.28
2144.34	337.76
2147.523	340.91
2150.705	348.73
2153.887	347.54
2157.068	350.95
2160.25	352.02
2163.431	348.99
2166.611	354.75
2169.792	362.7
2172.972	368.55
2176.152	369.22
2179.331	376.65
2182.511	377.29
2185.69	383.34
2188.868	394.54
2192.047	403.72
2195.225	411.71
2198.403	417.83
2201.58	415.95
2204.758	427.05
2207.935	430.13
2211.111	438.47
2214.288	439.71
2217.464	447.44
2220.64	447.01
2223.815	453.07
2226.991	441.33
2230.166	445.68
2233.34	461.88
2236.515	473.22
2239.689	465.24
2242.863	470.75
2246.036	467.13
2249.209	479.05
2252.382	476.22
2255.555	495.44
2258.727	495.25
2261.9	515.21
2265.071	520.12
2268.243	515.24
2271.414	527.53
2274.585	539.11
2277.756	544.14
2280.926	567.28
2284.096	563.97
2287.266	568.13
2290.436	556.98
2293.605	567.74
2296.774	590.56
2299.942	591.06
2303.111	608.83
2306.279	619.44
2309.447	623.78
2312.614	624.57
2315.781	637.74
2318.948	646.92
2322.115	660.6
2325.281	693.21
2328.447	691.97
2331.613	687.22
2334.779	697.44
2337.944	706.39
2341.109	724.98
2344.274	730.2
2347.438	748.21
2350.602	757.52
2353.766	806.86
2356.929	810.33
2360.092	818.74
2363.255	822.37
2366.418	838.28
2369.58	855.06
2372.742	859.62
2375.904	851.27
2379.066	874.71
2382.227	929.62
2385.388	929.59
2388.548	880.9
2391.709	872.09
2394.869	902.41
2398.029	900.08
2401.188	900.66
2404.347	930.03
2407.506	955.9
2410.665	919.84
2413.823	920.62
2416.981	914.98
2420.139	869.94
2423.296	940.22
2426.453	1002.04
2429.61	950.63
2432.767	1019.44
2435.923	1054.89
2439.079	1013.71
2442.235	1032.92
2445.391	1063.27
2448.546	1057.31
2451.701	1112.84
2454.855	1187.39
2458.009	1051.49
2461.163	1069.57
2464.317	1083.16
2467.471	1056.78
2470.624	1091.14
2473.777	1072.12
2476.929	1041.78
2480.082	1110.45
2483.234	1163.53
2486.385	1191.1
2489.537	1214.14
2492.688	1334.41
2495.839	1313.35
2498.989	1359.44
2502.14	1363.21
2505.29	1299.3
2508.439	1453.05
2511.589	1496.01
2514.738	1444.9
2517.887	1433.61
2521.035	1335.14
2524.183	1323.73
2527.331	1316.2
2530.479	1282.29
2533.627	1308.46
