Data from N_2_hir_wi_4n_077_Splice17_05.txt Node
Date: Sat Feb 29 14:10:10 EST 2020
User: sa697716
Spectrometer: FLMS03696
Trigger mode: 0
Integration Time (sec): 3.180400E-1
Scans to average: 20
Electric dark correction enabled: true
Nonlinearity correction enabled: true
Boxcar width: 5
XAxis mode: Wavelengths
Number of Pixels in Spectrum: 2048
>>>>>Begin Spectral Data<<<<<
187.83	52.46
188.298	47.72
188.766	48.05
189.233	43.29
189.701	57.53
190.169	48.24
190.636	63.66
191.104	39.65
191.571	-52.36
192.039	60.73
192.506	287.99
192.974	4094.42
193.441	-189.29
193.908	95.01
194.375	78.17
194.842	119.01
195.31	22.52
195.777	97.42
196.244	27.29
196.711	19.91
197.177	17.97
197.644	18.28
198.111	18.78
198.578	18.56
199.045	18.26
199.511	18.38
199.978	19.33
200.445	19.13
200.911	19.39
201.378	19.34
201.844	19.67
202.31	20.43
202.777	20.55
203.243	20.18
203.709	20.83
204.176	20.76
204.642	21.08
205.108	21
205.574	21.84
206.04	21.88
206.506	22.03
206.972	21.76
207.438	21.15
207.903	21.01
208.369	21.12
208.835	20.42
209.301	20.39
209.766	19.94
210.232	19.16
210.697	18.41
211.163	17.8
211.628	17.09
212.094	16.66
212.559	16.51
213.024	15.98
213.49	15.54
213.955	15.51
214.42	15
214.885	14.34
215.35	13.91
215.815	13.06
216.28	12.38
216.745	11.61
217.21	10.72
217.675	9.8
218.14	8.82
218.604	8.01
219.069	7.34
219.534	6.71
219.998	6.27
220.463	5.89
220.927	5.56
221.392	5.19
221.856	4.92
222.32	4.68
222.785	4.49
223.249	4.36
223.713	4.23
224.177	4.06
224.642	3.97
225.106	3.84
225.57	3.74
226.034	3.66
226.497	3.54
226.961	3.44
227.425	3.33
227.889	3.26
228.353	3.19
228.816	3.13
229.28	3.05
229.744	2.99
230.207	2.94
230.671	2.86
231.134	2.79
231.597	2.75
232.061	2.73
232.524	2.71
232.987	2.66
233.45	2.63
233.914	2.62
234.377	2.61
234.84	2.56
235.303	2.54
235.766	2.54
236.229	2.53
236.691	2.52
237.154	2.48
237.617	2.46
238.08	2.43
238.542	2.4
239.005	2.35
239.468	2.31
239.93	2.31
240.393	2.29
240.855	2.26
241.317	2.23
241.78	2.22
242.242	2.2
242.704	2.17
243.166	2.16
243.629	2.15
244.091	2.13
244.553	2.12
245.015	2.09
245.477	2.07
245.939	2.05
246.4	2.02
246.862	2.01
247.324	2
247.786	1.98
248.247	1.96
248.709	1.93
249.17	1.91
249.632	1.89
250.093	1.86
250.555	1.85
251.016	1.84
251.477	1.83
251.939	1.81
252.4	1.79
252.861	1.79
253.322	1.77
253.783	1.78
254.244	1.77
254.705	1.76
255.166	1.76
255.627	1.74
256.088	1.72
256.549	1.72
257.009	1.71
257.47	1.7
257.931	1.68
258.391	1.67
258.852	1.64
259.312	1.62
259.773	1.61
260.233	1.59
260.694	1.58
261.154	1.57
261.614	1.54
262.074	1.53
262.534	1.51
262.994	1.5
263.455	1.49
263.915	1.48
264.374	1.47
264.834	1.45
265.294	1.44
265.754	1.43
266.214	1.42
266.673	1.41
267.133	1.39
267.593	1.39
268.052	1.37
268.512	1.36
268.971	1.35
269.431	1.35
269.89	1.34
270.349	1.34
270.809	1.33
271.268	1.33
271.727	1.33
272.186	1.32
272.645	1.32
273.104	1.32
273.563	1.32
274.022	1.32
274.481	1.32
274.94	1.31
275.399	1.31
275.857	1.31
276.316	1.3
276.775	1.28
277.233	1.28
277.692	1.27
278.15	1.26
278.609	1.26
279.067	1.25
279.525	1.24
279.984	1.23
280.442	1.23
280.9	1.23
281.358	1.23
281.816	1.23
282.274	1.22
282.732	1.22
283.19	1.23
283.648	1.23
284.106	1.23
284.564	1.24
285.021	1.24
285.479	1.24
285.937	1.24
286.394	1.24
286.852	1.24
287.309	1.25
287.767	1.25
288.224	1.24
288.682	1.24
289.139	1.24
289.596	1.22
290.053	1.22
290.511	1.21
290.968	1.21
291.425	1.2
291.882	1.19
292.339	1.18
292.796	1.17
293.252	1.16
293.709	1.15
294.166	1.15
294.623	1.14
295.079	1.14
295.536	1.14
295.992	1.13
296.449	1.13
296.905	1.13
297.362	1.13
297.818	1.13
298.274	1.12
298.731	1.12
299.187	1.13
299.643	1.13
300.099	1.13
300.555	1.12
301.011	1.12
301.467	1.12
301.923	1.12
302.379	1.13
302.835	1.12
303.291	1.13
303.746	1.13
304.202	1.13
304.658	1.12
305.113	1.12
305.569	1.13
306.024	1.13
306.479	1.13
306.935	1.13
307.39	1.13
307.845	1.13
308.301	1.13
308.756	1.13
309.211	1.13
309.666	1.13
310.121	1.13
310.576	1.13
311.031	1.13
311.486	1.13
311.94	1.13
312.395	1.13
312.85	1.13
313.305	1.13
313.759	1.13
314.214	1.13
314.668	1.12
315.123	1.13
315.577	1.13
316.032	1.13
316.486	1.13
316.94	1.13
317.394	1.13
317.849	1.13
318.303	1.13
318.757	1.11
319.211	1.11
319.665	1.11
320.119	1.11
320.572	1.12
321.026	1.11
321.48	1.11
321.934	1.12
322.387	1.11
322.841	1.11
323.295	1.12
323.748	1.13
324.202	1.13
324.655	1.13
325.108	1.13
325.562	1.12
326.015	1.12
326.468	1.11
326.921	1.11
327.374	1.1
327.827	1.1
328.28	1.09
328.733	1.09
329.186	1.09
329.639	1.09
330.092	1.08
330.545	1.09
330.997	1.09
331.45	1.09
331.903	1.09
332.355	1.09
332.808	1.09
333.26	1.09
333.713	1.1
334.165	1.1
334.617	1.1
335.069	1.11
335.522	1.11
335.974	1.12
336.426	1.12
336.878	1.12
337.33	1.13
337.782	1.13
338.234	1.13
338.686	1.13
339.137	1.12
339.589	1.12
340.041	1.12
340.493	1.11
340.944	1.11
341.396	1.11
341.847	1.11
342.299	1.09
342.75	1.09
343.201	1.08
343.653	1.07
344.104	1.07
344.555	1.07
345.006	1.06
345.457	1.05
345.908	1.05
346.359	1.06
346.81	1.05
347.261	1.05
347.712	1.06
348.163	1.06
348.613	1.06
349.064	1.05
349.515	1.04
349.965	1.04
350.416	1.03
350.866	1.04
351.317	1.03
351.767	1.02
352.217	1.02
352.668	1.02
353.118	1.03
353.568	1.03
354.018	1.05
354.468	1.05
354.918	1.06
355.368	1.07
355.818	1.07
356.268	1.08
356.718	1.08
357.168	1.07
357.617	1.07
358.067	1.07
358.517	1.07
358.966	1.07
359.416	1.08
359.865	1.08
360.315	1.08
360.764	1.09
361.213	1.08
361.663	1.09
362.112	1.1
362.561	1.1
363.01	1.11
363.459	1.11
363.908	1.11
364.357	1.1
364.806	1.11
365.255	1.11
365.703	1.1
366.152	1.11
366.601	1.11
367.05	1.12
367.498	1.12
367.947	1.11
368.395	1.12
368.844	1.13
369.292	1.12
369.74	1.13
370.189	1.13
370.637	1.14
371.085	1.14
371.533	1.14
371.981	1.15
372.429	1.15
372.877	1.15
373.325	1.14
373.773	1.14
374.221	1.14
374.669	1.14
375.116	1.14
375.564	1.15
376.012	1.14
376.459	1.15
376.907	1.16
377.354	1.16
377.801	1.17
378.249	1.19
378.696	1.21
379.143	1.22
379.591	1.24
380.038	1.25
380.485	1.27
380.932	1.28
381.379	1.29
381.826	1.3
382.273	1.31
382.72	1.33
383.166	1.35
383.613	1.36
384.06	1.37
384.506	1.38
384.953	1.4
385.4	1.41
385.846	1.42
386.292	1.44
386.739	1.45
387.185	1.48
387.631	1.5
388.078	1.51
388.524	1.51
388.97	1.53
389.416	1.54
389.862	1.57
390.308	1.59
390.754	1.62
391.2	1.64
391.645	1.67
392.091	1.67
392.537	1.68
392.983	1.71
393.428	1.74
393.874	1.76
394.319	1.79
394.765	1.8
395.21	1.81
395.655	1.83
396.101	1.86
396.546	1.88
396.991	1.9
397.436	1.92
397.881	1.94
398.326	1.98
398.771	2.01
399.216	2.04
399.661	2.07
400.106	2.1
400.551	2.1
400.995	2.12
401.44	2.14
401.885	2.17
402.329	2.19
402.774	2.2
403.218	2.22
403.663	2.22
404.107	2.24
404.551	2.26
404.995	2.27
405.44	2.29
405.884	2.3
406.328	2.3
406.772	2.31
407.216	2.33
407.66	2.35
408.104	2.37
408.547	2.4
408.991	2.41
409.435	2.43
409.879	2.45
410.322	2.47
410.766	2.5
411.209	2.53
411.653	2.54
412.096	2.55
412.54	2.55
412.983	2.57
413.426	2.59
413.869	2.61
414.312	2.62
414.756	2.64
415.199	2.67
415.642	2.69
416.085	2.71
416.527	2.74
416.97	2.75
417.413	2.76
417.856	2.76
418.298	2.76
418.741	2.77
419.184	2.78
419.626	2.77
420.069	2.77
420.511	2.77
420.953	2.76
421.396	2.76
421.838	2.78
422.28	2.8
422.722	2.82
423.164	2.82
423.606	2.82
424.048	2.82
424.49	2.83
424.932	2.83
425.374	2.83
425.816	2.82
426.258	2.81
426.699	2.8
427.141	2.8
427.582	2.79
428.024	2.8
428.465	2.81
428.907	2.81
429.348	2.8
429.789	2.81
430.231	2.81
430.672	2.84
431.113	2.85
431.554	2.86
431.995	2.87
432.436	2.86
432.877	2.84
433.318	2.84
433.759	2.85
434.2	2.86
434.64	2.88
435.081	2.88
435.522	2.89
435.962	2.91
436.403	2.94
436.843	2.93
437.284	2.94
437.724	2.98
438.164	2.99
438.604	3.01
439.045	3.01
439.485	3.02
439.925	3.03
440.365	3.02
440.805	3.02
441.245	3
441.685	3.03
442.125	3.04
442.564	3.04
443.004	3.06
443.444	3.08
443.883	3.1
444.323	3.1
444.762	3.12
445.202	3.17
445.641	3.18
446.081	3.23
446.52	3.23
446.959	3.25
447.398	3.29
447.837	3.32
448.276	3.34
448.716	3.37
449.154	3.39
449.593	3.41
450.032	3.4
450.471	3.42
450.91	3.41
451.349	3.43
451.787	3.43
452.226	3.41
452.664	3.4
453.103	3.38
453.541	3.38
453.98	3.38
454.418	3.39
454.856	3.37
455.295	3.37
455.733	3.38
456.171	3.38
456.609	3.38
457.047	3.38
457.485	3.39
457.923	3.39
458.361	3.38
458.798	3.39
459.236	3.39
459.674	3.4
460.111	3.39
460.549	3.37
460.987	3.37
461.424	3.37
461.862	3.37
462.299	3.35
462.736	3.36
463.173	3.36
463.611	3.35
464.048	3.34
464.485	3.35
464.922	3.34
465.359	3.36
465.796	3.35
466.233	3.36
466.67	3.39
467.106	3.4
467.543	3.39
467.98	3.41
468.416	3.41
468.853	3.41
469.29	3.41
469.726	3.43
470.162	3.41
470.599	3.42
471.035	3.43
471.471	3.42
471.907	3.4
472.344	3.42
472.78	3.44
473.216	3.44
473.652	3.45
474.088	3.45
474.523	3.45
474.959	3.45
475.395	3.45
475.831	3.44
476.266	3.44
476.702	3.47
477.138	3.45
477.573	3.44
478.008	3.44
478.444	3.45
478.879	3.46
479.314	3.45
479.75	3.45
480.185	3.45
480.62	3.45
481.055	3.45
481.49	3.45
481.925	3.44
482.36	3.44
482.795	3.43
483.229	3.42
483.664	3.43
484.099	3.43
484.534	3.43
484.968	3.42
485.403	3.43
485.837	3.44
486.271	3.44
486.706	3.45
487.14	3.47
487.574	3.48
488.009	3.5
488.443	3.5
488.877	3.52
489.311	3.54
489.745	3.57
490.179	3.59
490.613	3.6
491.046	3.64
491.48	3.67
491.914	3.69
492.348	3.72
492.781	3.75
493.215	3.78
493.648	3.82
494.082	3.86
494.515	3.89
494.948	3.93
495.382	3.98
495.815	4.02
496.248	4.08
496.681	4.12
497.114	4.17
497.547	4.23
497.98	4.3
498.413	4.36
498.846	4.43
499.279	4.52
499.711	4.6
500.144	4.68
500.577	4.76
501.009	4.85
501.442	4.94
501.874	5.05
502.306	5.15
502.739	5.24
503.171	5.36
503.603	5.48
504.036	5.59
504.468	5.72
504.9	5.86
505.332	5.99
505.764	6.15
506.196	6.3
506.627	6.44
507.059	6.6
507.491	6.77
507.923	6.94
508.354	7.11
508.786	7.29
509.217	7.46
509.649	7.65
510.08	7.85
510.512	8.03
510.943	8.24
511.374	8.45
511.805	8.66
512.237	8.87
512.668	9.08
513.099	9.31
513.53	9.55
513.961	9.79
514.391	10.02
514.822	10.25
515.253	10.5
515.684	10.73
516.114	10.98
516.545	11.23
516.975	11.48
517.406	11.75
517.836	11.99
518.267	12.24
518.697	12.5
519.127	12.76
519.558	13
519.988	13.27
520.418	13.52
520.848	13.77
521.278	14.02
521.708	14.12
522.138	14.35
522.567	14.57
522.997	14.79
523.427	15.01
523.857	15.23
524.286	15.44
524.716	15.64
525.145	15.85
525.575	16.05
526.004	16.23
526.433	16.56
526.863	16.75
527.292	16.94
527.721	17.11
528.15	17.25
528.579	17.41
529.008	17.56
529.437	17.7
529.866	17.82
530.295	17.95
530.724	18.08
531.152	18.21
531.581	18.31
532.01	18.42
532.438	18.53
532.867	18.64
533.295	18.72
533.723	18.81
534.152	18.88
534.58	18.97
535.008	19.04
535.436	19.11
535.865	19.16
536.293	19.22
536.721	19.27
537.149	19.31
537.576	19.36
538.004	19.41
538.432	19.45
538.86	19.5
539.287	19.54
539.715	19.58
540.143	19.61
540.57	19.64
540.998	19.66
541.425	19.7
541.852	19.74
542.28	19.77
542.707	19.79
543.134	19.82
543.561	19.83
543.988	19.86
544.415	19.88
544.842	19.91
545.269	19.96
545.696	19.98
546.123	20
546.549	20.03
546.976	20.05
547.403	20.07
547.829	20.1
548.256	20.13
548.682	20.14
549.108	20.16
549.535	20.18
549.961	20.18
550.387	20.19
550.813	20.18
551.24	20.19
551.666	20.21
552.092	20.21
552.518	20.19
552.943	20.19
553.369	20.18
553.795	20.17
554.221	20.17
554.646	20.16
555.072	20.13
555.498	20.1
555.923	20.07
556.349	19.99
556.774	19.94
557.199	19.91
557.625	19.84
558.05	19.77
558.475	19.7
558.9	19.63
559.325	19.55
559.75	19.47
560.175	19.42
560.6	19.35
561.025	19.28
561.449	19.2
561.874	19.1
562.299	19.02
562.723	18.91
563.148	18.81
563.572	18.71
563.997	18.61
564.421	18.49
564.846	18.36
565.27	18.23
565.694	18.11
566.118	17.97
566.542	17.85
566.966	17.72
567.39	17.58
567.814	17.45
568.238	17.31
568.662	17.16
569.086	17.03
569.509	16.9
569.933	16.75
570.357	16.58
570.78	16.45
571.204	16.31
571.627	16.18
572.05	16.06
572.474	15.92
572.897	15.79
573.32	15.67
573.743	15.55
574.166	15.42
574.589	15.31
575.012	15.22
575.435	15.11
575.858	15.01
576.281	14.91
576.704	14.81
577.126	14.74
577.549	14.65
577.972	14.55
578.394	14.46
578.817	14.39
579.239	14.32
579.661	14.25
580.084	14.18
580.506	14.1
580.928	14.03
581.35	13.96
581.772	13.89
582.194	13.82
582.616	13.77
583.038	13.7
583.46	13.64
583.882	13.58
584.303	13.5
584.725	13.42
585.147	13.36
585.568	13.31
585.99	13.25
586.411	13.19
586.833	13.13
587.254	13.08
587.675	13.04
588.096	12.98
588.518	12.94
588.939	12.91
589.36	12.87
589.781	12.83
590.202	12.78
590.623	12.75
591.043	12.71
591.464	12.68
591.885	12.65
592.305	12.6
592.726	12.59
593.147	12.57
593.567	12.54
593.987	12.53
594.408	12.5
594.828	12.48
595.248	12.44
595.669	12.42
596.089	12.4
596.509	12.37
596.929	12.34
597.349	12.31
597.769	12.27
598.189	12.25
598.608	12.22
599.028	12.19
599.448	12.16
599.867	12.13
600.287	12.08
600.706	12.05
601.126	12.01
601.545	11.96
601.965	11.93
602.384	11.88
602.803	11.83
603.222	11.77
603.641	11.72
604.061	11.66
604.48	11.61
604.898	11.55
605.317	11.49
605.736	11.43
606.155	11.37
606.574	11.3
606.992	11.22
607.411	11.16
607.829	11.04
608.248	10.96
608.666	10.89
609.085	10.82
609.503	10.75
609.921	10.66
610.339	10.59
610.758	10.51
611.176	10.45
611.594	10.38
612.012	10.29
612.43	10.27
612.847	10.2
613.265	10.15
613.683	10.08
614.101	10
614.518	9.95
614.936	9.89
615.353	9.83
615.771	9.76
616.188	9.73
616.606	9.69
617.023	9.64
617.44	9.59
617.857	9.53
618.274	9.48
618.691	9.45
619.108	9.4
619.525	9.35
619.942	9.32
620.359	9.28
620.776	9.22
621.192	9.2
621.609	9.16
622.026	9.13
622.442	9.1
622.859	9.08
623.275	9.07
623.691	9.06
624.108	9.06
624.524	9.03
624.94	9.02
625.356	9.02
625.772	9.01
626.188	9.01
626.604	8.99
627.02	8.99
627.436	8.98
627.852	8.95
628.268	8.94
628.683	8.91
629.099	8.91
629.514	8.9
629.93	8.86
630.345	8.83
630.761	8.8
631.176	8.78
631.591	8.74
632.007	8.72
632.422	8.7
632.837	8.66
633.252	8.62
633.667	8.57
634.082	8.52
634.497	8.48
634.911	8.44
635.326	8.37
635.741	8.3
636.155	8.25
636.57	8.18
636.984	8.08
637.399	7.99
637.813	7.91
638.228	7.82
638.642	7.74
639.056	7.66
639.47	7.56
639.884	7.48
640.298	7.38
640.712	7.28
641.126	7.18
641.54	7.09
641.954	7.03
642.368	6.93
642.781	6.84
643.195	6.74
643.609	6.64
644.022	6.55
644.436	6.46
644.849	6.39
645.262	6.32
645.676	6.25
646.089	6.17
646.502	6.09
646.915	6.03
647.328	5.97
647.741	5.9
648.154	5.86
648.567	5.82
648.98	5.78
649.393	5.73
649.805	5.67
650.218	5.62
650.631	5.58
651.043	5.54
651.456	5.5
651.868	5.47
652.28	5.43
652.693	5.37
653.105	5.33
653.517	5.26
653.929	5.21
654.341	5.17
654.753	5.11
655.165	5.07
655.577	5
655.989	4.94
656.401	4.87
656.813	4.8
657.224	4.76
657.636	4.68
658.047	4.63
658.459	4.55
658.87	4.48
659.282	4.42
659.693	4.34
660.104	4.27
660.515	4.19
660.926	4.13
661.338	4.07
661.749	3.98
662.159	3.92
662.57	3.85
662.981	3.8
663.392	3.73
663.803	3.67
664.213	3.61
664.624	3.58
665.035	3.55
665.445	3.51
665.855	3.48
666.266	3.46
666.676	3.43
667.086	3.39
667.497	3.36
667.907	3.35
668.317	3.32
668.727	3.31
669.137	3.29
669.547	3.28
669.956	3.27
670.366	3.26
670.776	3.26
671.186	3.25
671.595	3.25
672.005	3.26
672.414	3.27
672.824	3.3
673.233	3.31
673.642	3.32
674.052	3.33
674.461	3.34
674.87	3.36
675.279	3.37
675.688	3.39
676.097	3.43
676.506	3.45
676.915	3.48
677.323	3.5
677.732	3.54
678.141	3.58
678.549	3.61
678.958	3.66
679.366	3.68
679.775	3.74
680.183	3.79
680.592	3.85
681	3.9
681.408	3.98
681.816	4.05
682.224	4.13
682.632	4.23
683.04	4.34
683.448	4.44
683.856	4.58
684.264	4.72
684.671	4.9
685.079	5.08
685.487	5.28
685.894	5.47
686.302	5.72
686.709	5.96
687.116	6.22
687.524	6.5
687.931	6.82
688.338	7.15
688.745	7.49
689.152	7.84
689.559	8.21
689.966	8.6
690.373	9.03
690.78	9.44
691.187	9.87
691.593	10.33
692	10.81
692.407	11.28
692.813	11.76
693.22	12.26
693.626	12.77
694.032	13.29
694.439	13.81
694.845	14.3
695.251	14.81
695.657	15.32
696.063	15.82
696.469	16.31
696.875	16.79
697.281	17.28
697.687	17.77
698.093	18.25
698.498	18.73
698.904	19.19
699.31	19.67
699.715	20.15
700.12	20.59
700.526	21.07
700.931	21.52
701.337	21.97
701.742	22.38
702.147	22.82
702.552	23.23
702.957	23.63
703.362	24.05
703.767	24.43
704.172	24.83
704.577	25.22
704.981	25.59
705.386	25.97
705.791	26.35
706.195	26.72
706.6	27.06
707.004	27.43
707.408	27.76
707.813	28.08
708.217	28.42
708.621	28.73
709.025	29.06
709.43	29.35
709.834	29.66
710.237	29.93
710.641	30.25
711.045	30.54
711.449	30.81
711.853	31.09
712.256	31.4
712.66	31.68
713.064	31.94
713.467	32.22
713.87	32.5
714.274	32.76
714.677	33.02
715.08	33.25
715.484	33.5
715.887	33.74
716.29	33.97
716.693	34.17
717.096	34.4
717.499	34.62
717.901	34.81
718.304	35.02
718.707	35.21
719.109	35.44
719.512	35.67
719.915	35.86
720.317	36.06
720.719	36.25
721.122	36.46
721.524	36.65
721.926	36.84
722.328	37.03
722.731	37.19
723.133	37.37
723.535	37.52
723.937	37.69
724.338	37.83
724.74	37.99
725.142	38.09
725.544	38.21
725.945	38.34
726.347	38.46
726.748	38.57
727.15	38.67
727.551	38.79
727.952	38.87
728.354	38.97
728.755	39.11
729.156	39.19
729.557	39.34
729.958	39.45
730.359	39.56
730.76	39.66
731.161	39.75
731.562	39.85
731.962	39.93
732.363	40.01
732.763	40.1
733.164	40.15
733.564	40.24
733.965	40.28
734.365	40.32
734.766	40.36
735.166	40.39
735.566	40.43
735.966	40.46
736.366	40.51
736.766	40.56
737.166	40.59
737.566	40.6
737.966	40.62
738.365	40.67
738.765	40.72
739.165	40.74
739.564	40.79
739.964	40.82
740.363	40.85
740.763	40.86
741.162	40.87
741.561	40.94
741.96	40.99
742.36	41.02
742.759	41.03
743.158	41.03
743.557	41.08
743.955	41.12
744.354	41.17
744.753	41.22
745.152	41.24
745.55	41.3
745.949	41.3
746.348	41.32
746.746	41.37
747.144	41.42
747.543	41.46
747.941	41.46
748.339	41.48
748.737	41.5
749.136	41.51
749.534	41.55
749.932	41.55
750.33	41.55
750.727	41.56
751.125	41.53
751.523	41.52
751.921	41.53
752.318	41.57
752.716	41.54
753.113	41.53
753.511	41.53
753.908	41.51
754.305	41.51
754.703	41.5
755.1	41.46
755.497	41.48
755.894	41.48
756.291	41.45
756.688	41.4
757.085	41.4
757.482	41.39
757.878	41.4
758.275	41.39
758.672	41.39
759.068	41.41
759.465	41.43
759.861	41.43
760.258	41.44
760.654	41.47
761.05	41.5
761.447	41.5
761.843	41.49
762.239	41.47
762.635	41.49
763.031	41.51
763.427	41.47
763.822	41.47
764.218	41.48
764.614	41.48
765.01	41.43
765.405	41.4
765.801	41.39
766.196	41.4
766.592	41.41
766.987	41.41
767.382	41.38
767.778	41.41
768.173	41.41
768.568	41.39
768.963	41.37
769.358	41.42
769.753	41.48
770.148	41.46
770.542	41.45
770.937	41.45
771.332	41.46
771.726	41.45
772.121	41.41
772.515	41.43
772.91	41.47
773.304	41.48
773.699	41.44
774.093	41.39
774.487	41.42
774.881	41.43
775.275	41.41
775.669	41.38
776.063	41.38
776.457	41.4
776.851	41.34
777.245	41.31
777.638	41.32
778.032	41.32
778.425	41.34
778.819	41.35
779.212	41.34
779.606	41.36
779.999	41.4
780.392	41.44
780.786	41.45
781.179	41.5
781.572	41.51
781.965	41.51
782.358	41.53
782.751	41.52
783.143	41.53
783.536	41.57
783.929	41.56
784.322	41.6
784.714	41.58
785.107	41.57
785.499	41.59
785.891	41.59
786.284	41.59
786.676	41.63
787.068	41.63
787.46	41.62
787.852	41.61
788.245	41.6
788.636	41.56
789.028	41.53
789.42	41.52
789.812	41.51
790.204	41.49
790.595	41.5
790.987	41.46
791.378	41.47
791.77	41.52
792.161	41.53
792.553	41.52
792.944	41.53
793.335	41.56
793.726	41.56
794.117	41.57
794.508	41.58
794.899	41.57
795.29	41.57
795.681	41.55
796.072	41.52
796.463	41.55
796.853	41.53
797.244	41.55
797.634	41.54
798.025	41.54
798.415	41.53
798.806	41.56
799.196	41.6
799.586	41.61
799.976	41.64
800.366	41.65
800.756	41.63
801.146	41.68
801.536	41.67
801.926	41.68
802.316	41.69
802.706	41.73
803.095	41.72
803.485	41.7
803.874	41.7
804.264	41.71
804.653	41.69
805.043	41.7
805.432	41.66
805.821	41.68
806.21	41.73
806.599	41.74
806.988	41.7
807.377	41.74
807.766	41.76
808.155	41.76
808.544	41.76
808.933	41.76
809.321	41.76
809.71	41.8
810.098	41.78
810.487	41.75
810.875	41.74
811.264	41.76
811.652	41.75
812.04	41.74
812.428	41.76
812.816	41.77
813.204	41.78
813.592	41.75
813.98	41.75
814.368	41.74
814.756	41.73
815.144	41.74
815.531	41.72
815.919	41.74
816.306	41.73
816.694	41.73
817.081	41.69
817.469	41.71
817.856	41.74
818.243	41.76
818.63	41.8
819.017	41.84
819.404	41.84
819.791	41.86
820.178	41.84
820.565	41.85
820.952	41.83
821.339	41.88
821.725	41.89
822.112	41.9
822.498	41.87
822.885	41.87
823.271	41.87
823.657	41.89
824.044	41.88
824.43	41.91
824.816	41.92
825.202	41.93
825.588	41.92
825.974	41.92
826.36	41.92
826.746	41.95
827.132	41.91
827.517	41.9
827.903	41.89
828.289	41.91
828.674	41.86
829.06	41.91
829.445	41.95
829.83	41.96
830.216	41.96
830.601	41.98
830.986	41.97
831.371	42.03
831.756	41.99
832.141	42.03
832.526	42.02
832.911	42.09
833.295	42.05
833.68	42.03
834.065	42.04
834.449	42.02
834.834	42
835.218	42
835.603	41.98
835.987	41.98
836.371	41.96
836.755	41.94
837.139	41.9
837.524	41.89
837.908	41.85
838.291	41.84
838.675	41.84
839.059	41.85
839.443	41.85
839.827	41.85
840.21	41.87
840.594	41.87
840.977	41.89
841.361	41.88
841.744	41.9
842.127	41.88
842.511	41.87
842.894	41.85
843.277	41.84
843.66	41.84
844.043	41.85
844.426	41.84
844.809	41.84
845.191	41.81
845.574	41.81
845.957	41.78
846.339	41.8
846.722	41.81
847.104	41.81
847.487	41.79
847.869	41.78
848.252	41.76
848.634	41.76
849.016	41.78
849.398	41.78
849.78	41.79
850.162	41.78
850.544	41.81
850.926	41.79
851.307	41.83
851.689	41.82
852.071	41.81
852.452	41.82
852.834	41.8
853.215	41.79
853.597	41.82
853.978	41.82
854.359	41.83
854.741	41.82
855.122	41.83
855.503	41.83
855.884	41.85
856.265	41.84
856.646	41.83
857.026	41.84
857.407	41.81
857.788	41.8
858.169	41.79
858.549	41.81
858.93	41.8
859.31	41.79
859.69	41.78
860.071	41.78
860.451	41.81
860.831	41.8
861.211	41.82
861.591	41.86
861.971	41.83
862.351	41.85
862.731	41.83
863.111	41.82
863.491	41.85
863.87	41.83
864.25	41.83
864.629	41.83
865.009	41.85
865.388	41.83
865.768	41.81
866.147	41.84
866.526	41.84
866.905	41.84
867.284	41.85
867.663	41.84
868.042	41.85
868.421	41.85
868.8	41.84
869.179	41.83
869.558	41.83
869.936	41.81
870.315	41.8
870.693	41.82
871.072	41.81
871.45	41.81
871.828	41.79
872.207	41.79
872.585	41.81
872.963	41.79
873.341	41.79
873.719	41.8
874.097	41.81
874.475	41.82
874.853	41.82
875.23	41.83
875.608	41.84
875.986	41.85
876.363	41.85
876.741	41.86
877.118	41.84
877.495	41.83
877.873	41.8
878.25	41.8
878.627	41.77
879.004	41.76
879.381	41.75
879.758	41.73
880.135	41.72
880.512	41.74
880.889	41.73
881.265	41.78
881.642	41.79
882.019	41.8
882.395	41.8
882.772	41.8
883.148	41.79
883.524	41.81
883.901	41.82
884.277	41.83
884.653	41.82
885.029	41.82
885.405	41.8
885.781	41.77
886.157	41.79
886.532	41.79
886.908	41.82
887.284	41.83
887.659	41.85
888.035	41.86
888.411	41.84
888.786	41.83
889.161	41.82
889.537	41.83
889.912	41.84
890.287	41.82
890.662	41.82
891.037	41.79
891.412	41.76
891.787	41.71
892.162	41.67
892.536	41.67
892.911	41.64
893.286	41.64
893.66	41.61
894.035	41.59
894.409	41.58
894.784	41.54
895.158	41.51
895.532	41.51
895.906	41.49
896.281	41.5
896.655	41.48
897.029	41.47
897.402	41.45
897.776	41.44
898.15	41.45
898.524	41.43
898.898	41.41
899.271	41.42
899.645	41.43
900.018	41.42
900.392	41.41
900.765	41.38
901.138	41.38
901.511	41.38
901.884	41.37
902.258	41.34
902.631	41.38
903.003	41.4
903.376	41.42
903.749	41.42
904.122	41.44
904.495	41.43
904.867	41.45
905.24	41.48
905.612	41.49
905.985	41.48
906.357	41.47
906.729	41.46
907.102	41.48
907.474	41.46
907.846	41.44
908.218	41.45
908.59	41.48
908.962	41.49
909.334	41.49
909.705	41.44
910.077	41.46
910.449	41.5
910.82	41.49
911.192	41.49
911.563	41.49
911.935	41.46
912.306	41.43
912.677	41.43
913.048	41.43
913.419	41.42
913.79	41.44
914.161	41.41
914.532	41.39
914.903	41.4
915.274	41.36
915.645	41.34
916.015	41.35
916.386	41.36
916.756	41.33
917.127	41.34
917.497	41.35
917.868	41.33
918.238	41.36
918.608	41.36
918.978	41.33
919.348	41.33
919.718	41.35
920.088	41.36
920.458	41.4
920.828	41.41
921.198	41.37
921.567	41.35
921.937	41.38
922.306	41.37
922.676	41.34
923.045	41.35
923.415	41.35
923.784	41.38
924.153	41.39
924.522	41.36
924.891	41.36
925.26	41.36
925.629	41.33
925.998	41.35
926.367	41.33
926.736	41.33
927.104	41.32
927.473	41.35
927.842	41.27
928.21	41.27
928.578	41.24
928.947	41.2
929.315	41.18
929.683	41.19
930.051	41.15
930.42	41.13
930.788	41.1
931.156	41.09
931.523	41.01
931.891	40.95
932.259	40.9
932.627	40.84
932.994	40.81
933.362	40.77
933.729	40.69
934.097	40.64
934.464	40.58
934.831	40.54
935.199	40.51
935.566	40.49
935.933	40.53
936.3	40.44
936.667	40.42
937.034	40.32
937.401	40.26
937.767	40.32
938.134	40.34
938.501	40.32
938.867	40.29
939.234	40.27
939.6	40.25
939.967	40.25
940.333	40.41
940.699	40.54
941.065	40.67
941.431	40.73
941.798	40.73
942.163	40.75
942.529	40.8
942.895	40.86
943.261	40.9
943.627	40.99
943.992	41.03
944.358	40.92
944.723	40.89
945.089	40.91
945.454	40.97
945.82	40.93
946.185	40.94
946.55	40.97
946.915	41.02
947.28	41.02
947.645	41.02
948.01	40.98
948.375	41.03
948.74	40.97
949.104	40.97
949.469	40.88
949.834	40.85
950.198	40.78
950.562	40.79
950.927	40.71
951.291	40.7
951.655	40.69
952.02	40.59
952.384	40.66
952.748	40.68
953.112	40.64
953.476	40.71
953.839	40.73
954.203	40.67
954.567	40.6
954.931	40.62
955.294	40.58
955.658	40.49
956.021	40.5
956.385	40.47
956.748	40.49
957.111	40.45
957.474	40.44
957.837	40.41
958.2	40.43
958.563	40.45
958.926	40.39
959.289	40.45
959.652	40.44
960.015	40.45
960.377	40.37
960.74	40.28
961.102	40.28
961.465	40.22
961.827	40.14
962.189	40.11
962.552	40.03
962.914	40.04
963.276	39.99
963.638	39.97
964	39.97
964.362	40.01
964.724	40.03
965.085	40.01
965.447	40.01
965.809	39.98
966.17	40.01
966.532	40.1
966.893	40.07
967.255	40
967.616	39.99
967.977	39.93
968.338	39.83
968.699	39.85
969.061	39.77
969.421	39.73
969.782	39.82
970.143	39.78
970.504	39.74
970.865	39.68
971.225	39.68
971.586	39.75
971.946	39.77
972.307	39.79
972.667	39.84
973.027	40.02
973.388	40.01
973.748	39.97
974.108	39.98
974.468	39.95
974.828	40
975.188	40.02
975.548	39.97
975.907	40.01
976.267	40
976.627	39.9
976.986	39.79
977.346	39.81
977.705	39.81
978.064	39.83
978.424	39.83
978.783	39.81
979.142	39.83
979.501	39.84
979.86	39.85
980.219	39.86
980.578	39.88
980.937	39.86
981.296	39.78
981.654	39.84
982.013	39.83
982.371	39.85
982.73	39.79
983.088	39.72
983.447	39.78
983.805	39.74
984.163	39.74
984.521	39.7
984.879	39.72
985.237	39.82
985.595	39.73
985.953	39.68
986.311	39.7
986.669	39.75
987.026	39.78
987.384	39.68
987.741	39.71
988.099	39.66
988.456	39.66
988.814	39.71
989.171	39.61
989.528	39.56
989.885	39.53
990.242	39.39
990.599	39.43
990.956	39.45
991.313	39.4
991.67	39.39
992.027	39.37
992.383	39.43
992.74	39.26
993.096	39.35
993.453	39.44
993.809	39.49
994.165	39.59
994.522	39.58
994.878	39.54
995.234	39.49
995.59	39.44
995.946	39.48
996.302	39.36
996.658	39.41
997.013	39.4
997.369	39.36
997.725	39.41
998.08	39.33
998.436	39.36
998.791	39.37
999.147	39.49
999.502	39.51
999.857	39.61
1000.212	39.62
1000.567	39.6
1000.922	39.52
1001.277	39.46
1001.632	39.4
1001.987	39.45
1002.342	39.27
1002.696	39.25
1003.051	38.98
1003.406	38.91
1003.76	38.73
1004.114	38.66
1004.469	38.67
1004.823	38.77
1005.177	38.99
1005.531	38.91
1005.885	38.81
1006.239	38.9
1006.593	38.82
1006.947	38.95
1007.301	39.04
1007.655	39
1008.008	38.94
1008.362	38.86
1008.715	38.71
1009.069	38.38
1009.422	38.27
1009.776	38.55
1010.129	38.37
1010.482	38.36
1010.835	38.55
1011.188	38.27
1011.541	37.95
1011.894	38.09
1012.247	37.98
1012.6	38
1012.952	38.19
1013.305	38.12
1013.657	37.81
1014.01	38.1
1014.362	38.17
1014.715	37.74
1015.067	37.98
1015.419	38.3
1015.771	38.51
1016.123	38.67
1016.475	38.61
1016.827	38.59
1017.179	38.63
1017.531	38.67
1017.883	38.6
1018.234	38.58
1018.586	38.77
1018.938	38.5
1019.289	38.37
1019.64	38.51
1019.992	38.48
1020.343	38.61
1020.694	38.55
1021.045	38.53
1021.396	38.6
1021.747	38.39
1022.098	38.34
1022.449	38.33
1022.8	38.41
1023.151	38.46
1023.501	38.13
1023.852	38.2
1024.202	37.8
1024.553	37.67
1024.903	37.72
1025.253	37.84
1025.604	37.97
1025.954	38.22
1026.304	38.71
1026.654	38.69
1027.004	38.77
1027.354	38.46
1027.703	38.6
1028.053	39.06
1028.403	38.91
1028.753	39.26
1029.102	39.43
1029.452	39.75
1029.801	39.8
1030.15	39.53
1030.499	39.83
897.758	585.14
901.051	592.89
904.343	597.3
907.636	585.29
910.928	578.26
914.22	588
917.511	576.54
920.803	544.49
924.094	523.23
927.384	524.33
930.675	510.72
933.965	506.05
937.255	507.95
940.544	485.73
943.834	465.41
947.123	455.5
950.411	431.7
953.7	423.48
956.988	412.93
960.276	391.33
963.563	388.45
966.851	367.44
970.138	359.56
973.424	332.76
976.711	330.86
979.997	320.24
983.283	312.91
986.568	302.05
989.853	293.52
993.138	283.91
996.423	281.46
999.708	272.42
1002.992	272.62
1006.275	265.77
1009.559	264.19
1012.842	254.47
1016.125	245.2
1019.408	239.94
1022.69	238.93
1025.972	235.98
1029.254	229.94
1032.536	226.09
1035.817	218.61
1039.098	215.43
1042.379	209.38
1045.659	205.93
1048.939	203.65
1052.219	200.59
1055.498	197.79
1058.778	193
1062.057	190.97
1065.335	189.85
1068.614	186.61
1071.892	183.74
1075.17	180.18
1078.447	178.88
1081.724	177.26
1085.001	174.42
1088.278	173.36
1091.554	172.23
1094.83	171.27
1098.106	167.79
1101.382	166.32
1104.657	166.22
1107.932	165.35
1111.206	164.93
1114.481	162.59
1117.755	160.99
1121.029	159.95
1124.302	158.02
1127.575	155.8
1130.848	155.38
1134.121	153.19
1137.393	153.25
1140.665	151.04
1143.937	149.27
1147.208	147.44
1150.48	145.99
1153.75	145.12
1157.021	143.69
1160.291	143.44
1163.561	143.35
1166.831	141.63
1170.101	141.68
1173.37	140
1176.639	138.97
1179.907	139.09
1183.176	138.22
1186.444	138.54
1189.711	137.91
1192.979	138.84
1196.246	138.86
1199.513	138.23
1202.78	138.76
1206.046	138.89
1209.312	139.53
1212.578	140.02
1215.843	142.39
1219.108	142.94
1222.373	145.31
1225.638	147.34
1228.902	150.96
1232.166	156.27
1235.43	158.23
1238.693	162.99
1241.956	167.16
1245.219	172.05
1248.482	173.47
1251.744	173.18
1255.006	172.67
1258.268	168.95
1261.529	168.32
1264.79	162.86
1268.051	159.73
1271.312	157.51
1274.572	154.33
1277.832	149.41
1281.092	147.1
1284.351	144.23
1287.61	143.63
1290.869	144.55
1294.128	143.55
1297.386	142.27
1300.644	141.42
1303.902	140.51
1307.159	140.71
1310.416	140.84
1313.673	143.65
1316.93	144.7
1320.186	146.76
1323.442	148.23
1326.697	150.89
1329.953	152.15
1333.208	158.06
1336.463	165.35
1339.717	168.01
1342.972	176.46
1346.226	181.7
1349.479	182.76
1352.733	191.21
1355.986	195.22
1359.238	199.72
1362.491	200.65
1365.743	209.47
1368.995	211.42
1372.247	208.86
1375.498	207.95
1378.749	213.45
1382	213.23
1385.251	213.66
1388.501	212.39
1391.751	214.91
1395	214.46
1398.25	216.14
1401.499	214.08
1404.748	211.81
1407.996	211.84
1411.244	211.35
1414.492	207.55
1417.74	201.95
1420.987	197.58
1424.234	193.32
1427.481	186.11
1430.728	181.1
1433.974	175.32
1437.22	168.83
1440.465	163.02
1443.711	157.37
1446.956	152.9
1450.201	146.84
1453.445	139.56
1456.689	134.48
1459.933	131.31
1463.177	125.58
1466.42	122.9
1469.663	118.67
1472.906	115.62
1476.148	112.29
1479.391	109.43
1482.633	107.82
1485.874	106.07
1489.115	105.59
1492.356	103.6
1495.597	101.47
1498.838	101.24
1502.078	99.99
1505.318	99.85
1508.557	99
1511.797	98.45
1515.036	98.45
1518.274	97.6
1521.513	96.83
1524.751	95.9
1527.989	96.56
1531.227	96.51
1534.464	96.32
1537.701	95.46
1540.938	95.06
1544.174	94.42
1547.41	94.41
1550.646	93.86
1553.882	93.63
1557.117	93.12
1560.352	93.33
1563.587	92.4
1566.821	92.26
1570.055	91.34
1573.289	91.3
1576.523	91.51
1579.756	91.93
1582.989	92.06
1586.222	91.39
1589.454	91.59
1592.686	91.18
1595.918	91.03
1599.15	90.99
1602.381	91.19
1605.612	91.62
1608.843	91.55
1612.073	91.99
1615.303	91.83
1618.533	91.45
1621.762	92.26
1624.992	92.05
1628.221	92.11
1631.449	92.42
1634.678	92.46
1637.906	92.23
1641.134	92.5
1644.361	92.52
1647.588	91.76
1650.815	92.15
1654.042	92.4
1657.269	91.95
1660.495	92.3
1663.72	92.54
1666.946	92.58
1670.171	93.04
1673.396	94.26
1676.621	94.1
1679.845	94.18
1683.069	94.65
1686.293	93.94
1689.517	94.07
1692.74	94.62
1695.963	94.76
1699.185	95.17
1702.408	95.15
1705.63	95.16
1708.852	94.96
1712.073	95.1
1715.294	95.32
1718.515	95.81
1721.736	96.32
1724.956	96.82
1728.176	96.52
1731.396	96.89
1734.616	96.87
1737.835	97.06
1741.054	97.37
1744.272	96.68
1747.491	96.87
1750.709	98.01
1753.927	98
1757.144	98.56
1760.361	98.14
1763.578	98.56
1766.795	98.99
1770.011	99.31
1773.227	99.82
1776.443	100.53
1779.658	100.84
1782.874	102.21
1786.089	101.35
1789.303	101.55
1792.518	102.79
1795.732	103.33
1798.945	104.35
1802.159	104.55
1805.372	105.91
1808.585	106.53
1811.797	107.14
1815.01	108.66
1818.222	108.54
1821.434	109.84
1824.645	110.67
1827.856	111.17
1831.067	111.79
1834.278	113.74
1837.488	114.42
1840.698	115.24
1843.908	115.76
1847.117	117.2
1850.326	117.88
1853.535	118.47
1856.744	120.15
1859.952	121.38
1863.16	121.79
1866.368	121.25
1869.575	121.52
1872.782	121.46
1875.989	119.61
1879.196	119.45
1882.402	118.63
1885.608	119.43
1888.814	119.1
1892.019	120.24
1895.224	118.52
1898.429	118.68
1901.634	119.9
1904.838	120.22
1908.042	120.22
1911.246	121.74
1914.449	122.56
1917.652	120.59
1920.855	121.04
1924.058	121.08
1927.26	119.44
1930.462	120
1933.664	119.83
1936.865	119.99
1940.066	117.18
1943.267	117.71
1946.467	118.63
1949.668	118.32
1952.868	119.78
1956.067	118.92
1959.267	118.66
1962.466	119.36
1965.665	121.54
1968.863	123.1
1972.061	123.95
1975.259	126.8
1978.457	127.59
1981.654	127.78
1984.852	129.46
1988.048	131.26
1991.245	133.05
1994.441	135.66
1997.637	138.99
2000.833	141.56
2004.028	141.97
2007.223	148.15
2010.418	151.92
2013.613	158.17
2016.807	163.03
2020.001	165.2
2023.194	170
2026.388	176.52
2029.581	183.77
2032.774	190.12
2035.966	194.68
2039.158	201.49
2042.35	202.13
2045.542	205.24
2048.733	212.23
2051.924	215.57
2055.115	219.16
2058.306	220.96
2061.496	225.4
2064.686	226.76
2067.875	222.95
2071.065	224.57
2074.254	225.47
2077.442	232.58
2080.631	235.26
2083.819	237.22
2087.007	239.21
2090.195	244.63
2093.382	244.12
2096.569	243.84
2099.756	252.2
2102.942	258.64
2106.128	264.96
2109.314	266.23
2112.5	265.62
2115.685	263.77
2118.87	264.02
2122.055	268.02
2125.239	271.48
2128.424	279.97
2131.608	276.16
2134.791	274.57
2137.974	275.44
2141.157	276.9
2144.34	278.98
2147.523	283.51
2150.705	292.03
2153.887	287.84
2157.068	290.06
2160.25	294.7
2163.431	292.59
2166.611	299.01
2169.792	301.77
2172.972	306
2176.152	308.66
2179.331	315.42
2182.511	315.66
2185.69	318.83
2188.868	333.06
2192.047	340.22
2195.225	344.03
2198.403	351.57
2201.58	347.78
2204.758	361.98
2207.935	363.36
2211.111	370.19
2214.288	370.09
2217.464	374.85
2220.64	378.78
2223.815	379.34
2226.991	372.68
2230.166	376.98
2233.34	385.06
2236.515	396.3
2239.689	387.93
2242.863	395.99
2246.036	390.1
2249.209	402.43
2252.382	402.12
2255.555	413.43
2258.727	415.86
2261.9	433.39
2265.071	435.41
2268.243	431.81
2271.414	449.24
2274.585	456.53
2277.756	458.84
2280.926	479
2284.096	479.16
2287.266	480.75
2290.436	471.08
2293.605	483.09
2296.774	498.45
2299.942	500.07
2303.111	517.63
2306.279	519.44
2309.447	527.56
2312.614	525.34
2315.781	537.88
2318.948	541.34
2322.115	553.6
2325.281	586.93
2328.447	576.08
2331.613	579.63
2334.779	590.79
2337.944	596.4
2341.109	609.13
2344.274	613.99
2347.438	632.46
2350.602	640.77
2353.766	679.9
2356.929	682.7
2360.092	686.71
2363.255	697.62
2366.418	702.9
2369.58	716.49
2372.742	717.45
2375.904	713.26
2379.066	730.56
2382.227	776.92
2385.388	773.77
2388.548	735.8
2391.709	728.97
2394.869	757.97
2398.029	757.5
2401.188	755.36
2404.347	781.23
2407.506	807.07
2410.665	780.93
2413.823	786.1
2416.981	782.87
2420.139	744.75
2423.296	811.9
2426.453	859.32
2429.61	814.15
2432.767	872.32
2435.923	911.25
2439.079	861.13
2442.235	881.69
2445.391	903.97
2448.546	895.54
2451.701	945.68
2454.855	1011.19
2458.009	890.35
2461.163	906.34
2464.317	914.71
2467.471	894.15
2470.624	919.14
2473.777	916.13
2476.929	880.21
2480.082	935.81
2483.234	983.62
2486.385	995.24
2489.537	1019.89
2492.688	1123.05
2495.839	1102.57
2498.989	1137.64
2502.14	1142.38
2505.29	1089.45
2508.439	1204.78
2511.589	1242.25
2514.738	1213.55
2517.887	1197.28
2521.035	1118.14
2524.183	1093.19
2527.331	1086.29
2530.479	1064.63
2533.627	1087.97
