Data from N_2_dec_on_6n_057_Splice17_04.txt Node
Date: Sat Feb 29 13:59:51 EST 2020
User: sa697716
Spectrometer: FLMS03696
Trigger mode: 0
Integration Time (sec): 3.180400E-1
Scans to average: 20
Electric dark correction enabled: true
Nonlinearity correction enabled: true
Boxcar width: 5
XAxis mode: Wavelengths
Number of Pixels in Spectrum: 2048
>>>>>Begin Spectral Data<<<<<
187.83	83.79
188.298	80.54
188.766	76.56
189.233	75.93
189.701	67.25
190.169	69.95
190.636	75.85
191.104	81.16
191.571	193.24
192.039	129.98
192.506	184.29
192.974	4474.74
193.441	-356.69
193.908	126.89
194.375	67.83
194.842	-9.45
195.31	-9.79
195.777	-30.59
196.244	3.99
196.711	11.61
197.177	9.77
197.644	10.35
198.111	10.88
198.578	10.72
199.045	10.91
199.511	11.95
199.978	12.77
200.445	13.13
200.911	13.88
201.378	14
201.844	14.48
202.31	15.19
202.777	15.52
203.243	16
203.709	16.95
204.176	16.81
204.642	17.29
205.108	17.26
205.574	17.74
206.04	17.59
206.506	18.15
206.972	18.1
207.438	17.98
207.903	18.43
208.369	18.02
208.835	17.87
209.301	18.35
209.766	18.36
210.232	18.43
210.697	18.21
211.163	18.31
211.628	17.49
212.094	17.35
212.559	17.13
213.024	16.78
213.49	16.79
213.955	16.64
214.42	16.12
214.885	16.03
215.35	15.97
215.815	15.87
216.28	15.74
216.745	16.08
217.21	16
217.675	15.76
218.14	15.46
218.604	15.17
219.069	14.96
219.534	14.86
219.998	14.59
220.463	14.4
220.927	14.19
221.392	14.03
221.856	13.82
222.32	13.71
222.785	13.62
223.249	13.53
223.713	13.45
224.177	13.3
224.642	13.21
225.106	13.12
225.57	13.03
226.034	12.97
226.497	12.86
226.961	12.77
227.425	12.6
227.889	12.47
228.353	12.35
228.816	12.23
229.28	12.11
229.744	12
230.207	11.88
230.671	11.75
231.134	11.6
231.597	11.49
232.061	11.38
232.524	11.31
232.987	11.2
233.45	11.09
233.914	11.01
234.377	10.95
234.84	10.85
235.303	10.77
235.766	10.68
236.229	10.61
236.691	10.52
237.154	10.42
237.617	10.33
238.08	10.25
238.542	10.18
239.005	10.09
239.468	9.99
239.93	9.9
240.393	9.81
240.855	9.74
241.317	9.67
241.78	9.61
242.242	9.54
242.704	9.47
243.166	9.41
243.629	9.33
244.091	9.26
244.553	9.2
245.015	9.15
245.477	9.09
245.939	9.02
246.4	8.95
246.862	8.89
247.324	8.85
247.786	8.79
248.247	8.74
248.709	8.7
249.17	8.65
249.632	8.6
250.093	8.55
250.555	8.51
251.016	8.48
251.477	8.44
251.939	8.41
252.4	8.37
252.861	8.32
253.322	8.29
253.783	8.27
254.244	8.24
254.705	8.22
255.166	8.2
255.627	8.17
256.088	8.13
256.549	8.11
257.009	8.08
257.47	8.05
257.931	8.02
258.391	7.98
258.852	7.95
259.312	7.91
259.773	7.88
260.233	7.85
260.694	7.81
261.154	7.8
261.614	7.76
262.074	7.74
262.534	7.7
262.994	7.69
263.455	7.67
263.915	7.64
264.374	7.62
264.834	7.6
265.294	7.58
265.754	7.56
266.214	7.54
266.673	7.53
267.133	7.51
267.593	7.5
268.052	7.48
268.512	7.47
268.971	7.45
269.431	7.44
269.89	7.43
270.349	7.42
270.809	7.42
271.268	7.4
271.727	7.39
272.186	7.37
272.645	7.36
273.104	7.35
273.563	7.33
274.022	7.33
274.481	7.31
274.94	7.29
275.399	7.27
275.857	7.25
276.316	7.23
276.775	7.21
277.233	7.19
277.692	7.17
278.15	7.14
278.609	7.13
279.067	7.1
279.525	7.09
279.984	7.07
280.442	7.06
280.9	7.05
281.358	7.04
281.816	7.02
282.274	7
282.732	6.98
283.19	6.96
283.648	6.95
284.106	6.94
284.564	6.92
285.021	6.92
285.479	6.91
285.937	6.89
286.394	6.88
286.852	6.88
287.309	6.88
287.767	6.87
288.224	6.87
288.682	6.86
289.139	6.86
289.596	6.85
290.053	6.82
290.511	6.81
290.968	6.8
291.425	6.79
291.882	6.77
292.339	6.76
292.796	6.74
293.252	6.72
293.709	6.72
294.166	6.71
294.623	6.7
295.079	6.7
295.536	6.69
295.992	6.69
296.449	6.68
296.905	6.67
297.362	6.66
297.818	6.66
298.274	6.65
298.731	6.65
299.187	6.63
299.643	6.62
300.099	6.61
300.555	6.6
301.011	6.58
301.467	6.57
301.923	6.57
302.379	6.57
302.835	6.56
303.291	6.56
303.746	6.55
304.202	6.55
304.658	6.55
305.113	6.55
305.569	6.54
306.024	6.53
306.479	6.53
306.935	6.53
307.39	6.51
307.845	6.5
308.301	6.5
308.756	6.5
309.211	6.5
309.666	6.49
310.121	6.48
310.576	6.48
311.031	6.49
311.486	6.49
311.94	6.49
312.395	6.5
312.85	6.5
313.305	6.51
313.759	6.52
314.214	6.51
314.668	6.52
315.123	6.52
315.577	6.52
316.032	6.52
316.486	6.52
316.94	6.52
317.394	6.52
317.849	6.52
318.303	6.5
318.757	6.5
319.211	6.48
319.665	6.47
320.119	6.46
320.572	6.46
321.026	6.44
321.48	6.43
321.934	6.43
322.387	6.42
322.841	6.4
323.295	6.4
323.748	6.39
324.202	6.39
324.655	6.39
325.108	6.37
325.562	6.36
326.015	6.35
326.468	6.34
326.921	6.33
327.374	6.32
327.827	6.32
328.28	6.3
328.733	6.31
329.186	6.31
329.639	6.3
330.092	6.3
330.545	6.31
330.997	6.31
331.45	6.3
331.903	6.29
332.355	6.29
332.808	6.28
333.26	6.28
333.713	6.28
334.165	6.28
334.617	6.27
335.069	6.26
335.522	6.27
335.974	6.27
336.426	6.27
336.878	6.27
337.33	6.26
337.782	6.27
338.234	6.27
338.686	6.27
339.137	6.27
339.589	6.27
340.041	6.27
340.493	6.25
340.944	6.25
341.396	6.24
341.847	6.24
342.299	6.23
342.75	6.21
343.201	6.19
343.653	6.17
344.104	6.17
344.555	6.15
345.006	6.14
345.457	6.14
345.908	6.12
346.359	6.12
346.81	6.11
347.261	6.1
347.712	6.1
348.163	6.11
348.613	6.09
349.064	6.08
349.515	6.08
349.965	6.07
350.416	6.07
350.866	6.08
351.317	6.07
351.767	6.06
352.217	6.06
352.668	6.06
353.118	6.06
353.568	6.07
354.018	6.08
354.468	6.08
354.918	6.09
355.368	6.09
355.818	6.07
356.268	6.08
356.718	6.07
357.168	6.06
357.617	6.05
358.067	6.04
358.517	6.04
358.966	6.03
359.416	6.04
359.865	6.04
360.315	6.04
360.764	6.06
361.213	6.06
361.663	6.08
362.112	6.09
362.561	6.09
363.01	6.11
363.459	6.11
363.908	6.1
364.357	6.1
364.806	6.09
365.255	6.1
365.703	6.08
366.152	6.09
366.601	6.08
367.05	6.09
367.498	6.1
367.947	6.1
368.395	6.11
368.844	6.12
369.292	6.12
369.74	6.13
370.189	6.13
370.637	6.15
371.085	6.15
371.533	6.16
371.981	6.17
372.429	6.17
372.877	6.17
373.325	6.17
373.773	6.18
374.221	6.18
374.669	6.19
375.116	6.2
375.564	6.21
376.012	6.22
376.459	6.23
376.907	6.25
377.354	6.26
377.801	6.27
378.249	6.29
378.696	6.3
379.143	6.32
379.591	6.33
380.038	6.35
380.485	6.37
380.932	6.39
381.379	6.4
381.826	6.41
382.273	6.42
382.72	6.45
383.166	6.46
383.613	6.49
384.06	6.51
384.506	6.52
384.953	6.53
385.4	6.55
385.846	6.55
386.292	6.57
386.739	6.59
387.185	6.62
387.631	6.64
388.078	6.65
388.524	6.65
388.97	6.66
389.416	6.68
389.862	6.68
390.308	6.69
390.754	6.72
391.2	6.74
391.645	6.74
392.091	6.75
392.537	6.77
392.983	6.79
393.428	6.81
393.874	6.85
394.319	6.87
394.765	6.88
395.21	6.88
395.655	6.9
396.101	6.9
396.546	6.92
396.991	6.91
397.436	6.9
397.881	6.91
398.326	6.92
398.771	6.93
399.216	6.94
399.661	6.96
400.106	6.98
400.551	6.97
400.995	6.97
401.44	6.97
401.885	6.98
402.329	6.99
402.774	7
403.218	6.99
403.663	6.97
404.107	6.97
404.551	6.98
404.995	6.97
405.44	6.97
405.884	6.97
406.328	6.97
406.772	6.98
407.216	6.99
407.66	6.98
408.104	6.97
408.547	6.99
408.991	6.97
409.435	6.95
409.879	6.96
410.322	6.95
410.766	6.94
411.209	6.95
411.653	6.92
412.096	6.91
412.54	6.91
412.983	6.91
413.426	6.9
413.869	6.91
414.312	6.92
414.756	6.9
415.199	6.9
415.642	6.91
416.085	6.9
416.527	6.91
416.97	6.93
417.413	6.93
417.856	6.93
418.298	6.91
418.741	6.9
419.184	6.89
419.626	6.88
420.069	6.89
420.511	6.88
420.953	6.88
421.396	6.89
421.838	6.89
422.28	6.9
422.722	6.9
423.164	6.91
423.606	6.92
424.048	6.92
424.49	6.94
424.932	6.93
425.374	6.92
425.816	6.92
426.258	6.9
426.699	6.86
427.141	6.83
427.582	6.82
428.024	6.82
428.465	6.81
428.907	6.82
429.348	6.8
429.789	6.81
430.231	6.8
430.672	6.79
431.113	6.81
431.554	6.82
431.995	6.82
432.436	6.83
432.877	6.8
433.318	6.8
433.759	6.78
434.2	6.78
434.64	6.75
435.081	6.75
435.522	6.76
435.962	6.76
436.403	6.78
436.843	6.79
437.284	6.78
437.724	6.81
438.164	6.82
438.604	6.85
439.045	6.85
439.485	6.87
439.925	6.87
440.365	6.86
440.805	6.84
441.245	6.83
441.685	6.85
442.125	6.85
442.564	6.86
443.004	6.89
443.444	6.89
443.883	6.91
444.323	6.91
444.762	6.93
445.202	6.97
445.641	7
446.081	7.04
446.52	7.03
446.959	7.05
447.398	7.09
447.837	7.11
448.276	7.12
448.716	7.15
449.154	7.21
449.593	7.24
450.032	7.23
450.471	7.24
450.91	7.23
451.349	7.24
451.787	7.23
452.226	7.2
452.664	7.17
453.103	7.17
453.541	7.18
453.98	7.16
454.418	7.14
454.856	7.13
455.295	7.12
455.733	7.13
456.171	7.14
456.609	7.17
457.047	7.18
457.485	7.19
457.923	7.18
458.361	7.16
458.798	7.17
459.236	7.17
459.674	7.17
460.111	7.21
460.549	7.21
460.987	7.2
461.424	7.19
461.862	7.19
462.299	7.18
462.736	7.18
463.173	7.2
463.611	7.19
464.048	7.2
464.485	7.21
464.922	7.18
465.359	7.19
465.796	7.2
466.233	7.2
466.67	7.21
467.106	7.21
467.543	7.21
467.98	7.21
468.416	7.22
468.853	7.21
469.29	7.22
469.726	7.22
470.162	7.2
470.599	7.2
471.035	7.2
471.471	7.19
471.907	7.19
472.344	7.2
472.78	7.2
473.216	7.2
473.652	7.19
474.088	7.18
474.523	7.19
474.959	7.19
475.395	7.19
475.831	7.2
476.266	7.22
476.702	7.21
477.138	7.2
477.573	7.18
478.008	7.18
478.444	7.18
478.879	7.18
479.314	7.17
479.75	7.18
480.185	7.18
480.62	7.18
481.055	7.17
481.49	7.17
481.925	7.17
482.36	7.17
482.795	7.16
483.229	7.16
483.664	7.17
484.099	7.18
484.534	7.17
484.968	7.17
485.403	7.17
485.837	7.18
486.271	7.18
486.706	7.19
487.14	7.21
487.574	7.22
488.009	7.24
488.443	7.24
488.877	7.24
489.311	7.26
489.745	7.28
490.179	7.3
490.613	7.32
491.046	7.35
491.48	7.38
491.914	7.4
492.348	7.44
492.781	7.46
493.215	7.5
493.648	7.54
494.082	7.58
494.515	7.62
494.948	7.65
495.382	7.69
495.815	7.73
496.248	7.79
496.681	7.83
497.114	7.88
497.547	7.93
497.98	8
498.413	8.07
498.846	8.14
499.279	8.22
499.711	8.29
500.144	8.36
500.577	8.45
501.009	8.53
501.442	8.63
501.874	8.74
502.306	8.84
502.739	8.94
503.171	9.05
503.603	9.17
504.036	9.29
504.468	9.42
504.9	9.55
505.332	9.68
505.764	9.82
506.196	9.95
506.627	10.09
507.059	10.23
507.491	10.39
507.923	10.53
508.354	10.68
508.786	10.85
509.217	11.01
509.649	11.18
510.08	11.37
510.512	11.55
510.943	11.76
511.374	11.95
511.805	12.15
512.237	12.36
512.668	12.57
513.099	12.78
513.53	13.01
513.961	13.24
514.391	13.48
514.822	13.69
515.253	13.92
515.684	14.13
516.114	14.39
516.545	14.63
516.975	14.86
517.406	15.1
517.836	15.34
518.267	15.56
518.697	15.8
519.127	16.03
519.558	16.27
519.988	16.49
520.418	16.72
520.848	16.95
521.278	17.16
521.708	17.26
522.138	17.48
522.567	17.67
522.997	17.87
523.427	18.06
523.857	18.24
524.286	18.42
524.716	18.6
525.145	18.79
525.575	18.95
526.004	19.13
526.433	19.39
526.863	19.55
527.292	19.72
527.721	19.86
528.15	19.99
528.579	20.12
529.008	20.26
529.437	20.39
529.866	20.49
530.295	20.6
530.724	20.71
531.152	20.84
531.581	20.92
532.01	21
532.438	21.1
532.867	21.19
533.295	21.28
533.723	21.35
534.152	21.42
534.58	21.48
535.008	21.52
535.436	21.58
535.865	21.6
536.293	21.68
536.721	21.73
537.149	21.78
537.576	21.83
538.004	21.86
538.432	21.89
538.86	21.93
539.287	21.99
539.715	22.03
540.143	22.04
540.57	22.07
540.998	22.09
541.425	22.11
541.852	22.12
542.28	22.13
542.707	22.15
543.134	22.16
543.561	22.15
543.988	22.16
544.415	22.18
544.842	22.2
545.269	22.25
545.696	22.26
546.123	22.29
546.549	22.32
546.976	22.34
547.403	22.36
547.829	22.39
548.256	22.42
548.682	22.43
549.108	22.44
549.535	22.45
549.961	22.42
550.387	22.41
550.813	22.4
551.24	22.41
551.666	22.42
552.092	22.42
552.518	22.41
552.943	22.4
553.369	22.4
553.795	22.37
554.221	22.36
554.646	22.36
555.072	22.35
555.498	22.34
555.923	22.28
556.349	22.2
556.774	22.14
557.199	22.08
557.625	22.03
558.05	21.95
558.475	21.91
558.9	21.85
559.325	21.78
559.75	21.68
560.175	21.59
560.6	21.52
561.025	21.46
561.449	21.37
561.874	21.28
562.299	21.19
562.723	21.09
563.148	20.99
563.572	20.88
563.997	20.77
564.421	20.68
564.846	20.58
565.27	20.45
565.694	20.31
566.118	20.19
566.542	20.08
566.966	19.95
567.39	19.82
567.814	19.7
568.238	19.56
568.662	19.44
569.086	19.31
569.509	19.2
569.933	19.07
570.357	18.96
570.78	18.86
571.204	18.73
571.627	18.62
572.05	18.54
572.474	18.43
572.897	18.34
573.32	18.23
573.743	18.13
574.166	18.01
574.589	17.91
575.012	17.82
575.435	17.71
575.858	17.61
576.281	17.51
576.704	17.41
577.126	17.31
577.549	17.23
577.972	17.14
578.394	17.06
578.817	16.98
579.239	16.91
579.661	16.85
580.084	16.78
580.506	16.72
580.928	16.67
581.35	16.59
581.772	16.54
582.194	16.46
582.616	16.42
583.038	16.36
583.46	16.3
583.882	16.24
584.303	16.17
584.725	16.11
585.147	16.05
585.568	15.96
585.99	15.92
586.411	15.87
586.833	15.81
587.254	15.75
587.675	15.68
588.096	15.63
588.518	15.59
588.939	15.54
589.36	15.5
589.781	15.45
590.202	15.44
590.623	15.38
591.043	15.33
591.464	15.31
591.885	15.27
592.305	15.26
592.726	15.21
593.147	15.17
593.567	15.14
593.987	15.11
594.408	15.09
594.828	15.06
595.248	15.03
595.669	15.01
596.089	14.98
596.509	14.93
596.929	14.89
597.349	14.85
597.769	14.82
598.189	14.79
598.608	14.75
599.028	14.71
599.448	14.68
599.867	14.64
600.287	14.59
600.706	14.56
601.126	14.53
601.545	14.49
601.965	14.46
602.384	14.44
602.803	14.39
603.222	14.34
603.641	14.31
604.061	14.26
604.48	14.22
604.898	14.18
605.317	14.13
605.736	14.09
606.155	14.05
606.574	14
606.992	13.95
607.411	13.91
607.829	13.82
608.248	13.76
608.666	13.72
609.085	13.68
609.503	13.64
609.921	13.6
610.339	13.54
610.758	13.5
611.176	13.45
611.594	13.39
612.012	13.35
612.43	13.36
612.847	13.31
613.265	13.26
613.683	13.19
614.101	13.13
614.518	13.08
614.936	13.03
615.353	12.97
615.771	12.92
616.188	12.87
616.606	12.82
617.023	12.76
617.44	12.71
617.857	12.66
618.274	12.62
618.691	12.59
619.108	12.56
619.525	12.53
619.942	12.5
620.359	12.48
620.776	12.45
621.192	12.44
621.609	12.42
622.026	12.4
622.442	12.39
622.859	12.38
623.275	12.36
623.691	12.34
624.108	12.33
624.524	12.32
624.94	12.3
625.356	12.29
625.772	12.27
626.188	12.28
626.604	12.27
627.02	12.25
627.436	12.23
627.852	12.21
628.268	12.2
628.683	12.18
629.099	12.16
629.514	12.16
629.93	12.14
630.345	12.12
630.761	12.08
631.176	12.04
631.591	12.01
632.007	11.97
632.422	11.92
632.837	11.87
633.252	11.82
633.667	11.76
634.082	11.69
634.497	11.6
634.911	11.52
635.326	11.44
635.741	11.37
636.155	11.29
636.57	11.2
636.984	11.09
637.399	10.98
637.813	10.87
638.228	10.76
638.642	10.67
639.056	10.56
639.47	10.45
639.884	10.35
640.298	10.24
640.712	10.12
641.126	10.02
641.54	9.92
641.954	9.85
642.368	9.76
642.781	9.67
643.195	9.58
643.609	9.5
644.022	9.43
644.436	9.34
644.849	9.27
645.262	9.21
645.676	9.14
646.089	9.07
646.502	8.99
646.915	8.93
647.328	8.88
647.741	8.82
648.154	8.77
648.567	8.73
648.98	8.71
649.393	8.69
649.805	8.66
650.218	8.63
650.631	8.61
651.043	8.61
651.456	8.6
651.868	8.58
652.28	8.58
652.693	8.57
653.105	8.54
653.517	8.52
653.929	8.5
654.341	8.49
654.753	8.47
655.165	8.46
655.577	8.41
655.989	8.36
656.401	8.31
656.813	8.26
657.224	8.22
657.636	8.19
658.047	8.14
658.459	8.1
658.87	8.03
659.282	7.99
659.693	7.92
660.104	7.87
660.515	7.83
660.926	7.8
661.338	7.77
661.749	7.72
662.159	7.66
662.57	7.62
662.981	7.56
663.392	7.52
663.803	7.49
664.213	7.47
664.624	7.45
665.035	7.42
665.445	7.39
665.855	7.37
666.266	7.35
666.676	7.35
667.086	7.34
667.497	7.33
667.907	7.33
668.317	7.31
668.727	7.33
669.137	7.34
669.547	7.36
669.956	7.35
670.366	7.37
670.776	7.39
671.186	7.4
671.595	7.43
672.005	7.45
672.414	7.48
672.824	7.52
673.233	7.54
673.642	7.56
674.052	7.59
674.461	7.65
674.87	7.69
675.279	7.73
675.688	7.77
676.097	7.82
676.506	7.86
676.915	7.92
677.323	7.97
677.732	8.03
678.141	8.09
678.549	8.15
678.958	8.23
679.366	8.29
679.775	8.37
680.183	8.46
680.592	8.54
681	8.62
681.408	8.7
681.816	8.8
682.224	8.91
682.632	9.02
683.04	9.15
683.448	9.27
683.856	9.43
684.264	9.58
684.671	9.75
685.079	9.92
685.487	10.14
685.894	10.38
686.302	10.64
686.709	10.88
687.116	11.15
687.524	11.44
687.931	11.76
688.338	12.11
688.745	12.47
689.152	12.86
689.559	13.27
689.966	13.68
690.373	14.11
690.78	14.55
691.187	15.02
691.593	15.5
692	16.01
692.407	16.51
692.813	17.01
693.22	17.52
693.626	18.04
694.032	18.55
694.439	19.08
694.845	19.61
695.251	20.13
695.657	20.66
696.063	21.19
696.469	21.69
696.875	22.19
697.281	22.68
697.687	23.21
698.093	23.7
698.498	24.2
698.904	24.67
699.31	25.16
699.715	25.65
700.12	26.1
700.526	26.55
700.931	27
701.337	27.47
701.742	27.87
702.147	28.28
702.552	28.7
702.957	29.11
703.362	29.52
703.767	29.88
704.172	30.25
704.577	30.61
704.981	30.98
705.386	31.35
705.791	31.69
706.195	32.07
706.6	32.41
707.004	32.75
707.408	33.07
707.813	33.39
708.217	33.71
708.621	34.03
709.025	34.34
709.43	34.62
709.834	34.92
710.237	35.21
710.641	35.49
711.045	35.77
711.449	36.04
711.853	36.3
712.256	36.57
712.66	36.84
713.064	37.08
713.467	37.35
713.87	37.63
714.274	37.89
714.677	38.11
715.08	38.33
715.484	38.56
715.887	38.8
716.29	39.01
716.693	39.21
717.096	39.42
717.499	39.64
717.901	39.81
718.304	40
718.707	40.17
719.109	40.38
719.512	40.58
719.915	40.76
720.317	40.9
720.719	41.08
721.122	41.25
721.524	41.44
721.926	41.59
722.328	41.77
722.731	41.9
723.133	42.04
723.535	42.21
723.937	42.33
724.338	42.45
724.74	42.59
725.142	42.7
725.544	42.81
725.945	42.89
726.347	43
726.748	43.09
727.15	43.2
727.551	43.31
727.952	43.36
728.354	43.46
728.755	43.55
729.156	43.64
729.557	43.75
729.958	43.85
730.359	43.96
730.76	43.99
731.161	44.06
731.562	44.11
731.962	44.17
732.363	44.26
732.763	44.34
733.164	44.36
733.564	44.4
733.965	44.43
734.365	44.48
734.766	44.52
735.166	44.59
735.566	44.64
735.966	44.66
736.366	44.69
736.766	44.71
737.166	44.76
737.566	44.85
737.966	44.91
738.365	44.97
738.765	45.02
739.165	45.03
739.564	45.08
739.964	45.11
740.363	45.17
740.763	45.19
741.162	45.23
741.561	45.24
741.96	45.23
742.36	45.25
742.759	45.25
743.158	45.22
743.557	45.26
743.955	45.29
744.354	45.34
744.753	45.38
745.152	45.39
745.55	45.39
745.949	45.39
746.348	45.43
746.746	45.43
747.144	45.47
747.543	45.53
747.941	45.55
748.339	45.58
748.737	45.56
749.136	45.58
749.534	45.63
749.932	45.66
750.33	45.69
750.727	45.7
751.125	45.68
751.523	45.65
751.921	45.64
752.318	45.6
752.716	45.57
753.113	45.56
753.511	45.51
753.908	45.48
754.305	45.44
754.703	45.43
755.1	45.43
755.497	45.44
755.894	45.45
756.291	45.44
756.688	45.45
757.085	45.41
757.482	45.42
757.878	45.42
758.275	45.41
758.672	45.42
759.068	45.4
759.465	45.35
759.861	45.34
760.258	45.3
760.654	45.28
761.05	45.27
761.447	45.26
761.843	45.21
762.239	45.18
762.635	45.13
763.031	45.12
763.427	45.13
763.822	45.11
764.218	45.1
764.614	45.1
765.01	45.08
765.405	45.05
765.801	45.05
766.196	45.05
766.592	45.05
766.987	45.11
767.382	45.11
767.778	45.11
768.173	45.16
768.568	45.16
768.963	45.16
769.358	45.18
769.753	45.22
770.148	45.24
770.542	45.24
770.937	45.25
771.332	45.23
771.726	45.2
772.121	45.18
772.515	45.17
772.91	45.15
773.304	45.14
773.699	45.13
774.093	45.11
774.487	45.11
774.881	45.15
775.275	45.17
775.669	45.17
776.063	45.18
776.457	45.19
776.851	45.15
777.245	45.15
777.638	45.17
778.032	45.17
778.425	45.18
778.819	45.18
779.212	45.15
779.606	45.12
779.999	45.1
780.392	45.08
780.786	45.09
781.179	45.1
781.572	45.1
781.965	45.06
782.358	45.05
782.751	45.06
783.143	45.03
783.536	45.05
783.929	45.06
784.322	45.09
784.714	45.1
785.107	45.09
785.499	45.08
785.891	45.06
786.284	45.06
786.676	45.08
787.068	45.05
787.46	45.03
787.852	45.02
788.245	45.01
788.636	44.97
789.028	44.96
789.42	44.93
789.812	44.94
790.204	44.93
790.595	44.93
790.987	44.91
791.378	44.92
791.77	44.94
792.161	44.91
792.553	44.91
792.944	44.93
793.335	44.95
793.726	44.94
794.117	44.92
794.508	44.94
794.899	44.95
795.29	44.91
795.681	44.91
796.072	44.91
796.463	44.95
796.853	44.94
797.244	44.94
797.634	44.92
798.025	44.95
798.415	44.94
798.806	44.96
799.196	44.97
799.586	45.02
799.976	45.05
800.366	45.08
800.756	45.07
801.146	45.08
801.536	45.07
801.926	45.11
802.316	45.12
802.706	45.16
803.095	45.16
803.485	45.17
803.874	45.19
804.264	45.22
804.653	45.2
805.043	45.22
805.432	45.24
805.821	45.25
806.21	45.26
806.599	45.29
806.988	45.31
807.377	45.31
807.766	45.29
808.155	45.31
808.544	45.28
808.933	45.3
809.321	45.32
809.71	45.36
810.098	45.37
810.487	45.36
810.875	45.35
811.264	45.32
811.652	45.36
812.04	45.35
812.428	45.35
812.816	45.35
813.204	45.33
813.592	45.3
813.98	45.25
814.368	45.25
814.756	45.27
815.144	45.29
815.531	45.29
815.919	45.26
816.306	45.27
816.694	45.27
817.081	45.27
817.469	45.29
817.856	45.3
818.243	45.32
818.63	45.36
819.017	45.33
819.404	45.31
819.791	45.31
820.178	45.3
820.565	45.29
820.952	45.28
821.339	45.28
821.725	45.28
822.112	45.29
822.498	45.3
822.885	45.27
823.271	45.29
823.657	45.27
824.044	45.29
824.43	45.3
824.816	45.32
825.202	45.32
825.588	45.3
825.974	45.3
826.36	45.28
826.746	45.31
827.132	45.28
827.517	45.29
827.903	45.32
828.289	45.3
828.674	45.3
829.06	45.27
829.445	45.28
829.83	45.31
830.216	45.3
830.601	45.3
830.986	45.28
831.371	45.31
831.756	45.29
832.141	45.32
832.526	45.33
832.911	45.33
833.295	45.36
833.68	45.35
834.065	45.35
834.449	45.37
834.834	45.39
835.218	45.4
835.603	45.38
835.987	45.4
836.371	45.37
836.755	45.39
837.139	45.38
837.524	45.39
837.908	45.39
838.291	45.4
838.675	45.42
839.059	45.41
839.443	45.42
839.827	45.44
840.21	45.46
840.594	45.47
840.977	45.46
841.361	45.5
841.744	45.52
842.127	45.53
842.511	45.52
842.894	45.51
843.277	45.54
843.66	45.53
844.043	45.54
844.426	45.53
844.809	45.52
845.191	45.52
845.574	45.5
845.957	45.46
846.339	45.47
846.722	45.5
847.104	45.47
847.487	45.48
847.869	45.48
848.252	45.46
848.634	45.46
849.016	45.48
849.398	45.48
849.78	45.46
850.162	45.45
850.544	45.42
850.926	45.37
851.307	45.39
851.689	45.33
852.071	45.31
852.452	45.33
852.834	45.31
853.215	45.31
853.597	45.31
853.978	45.31
854.359	45.32
854.741	45.35
855.122	45.35
855.503	45.33
855.884	45.35
856.265	45.34
856.646	45.3
857.026	45.3
857.407	45.23
857.788	45.23
858.169	45.22
858.549	45.26
858.93	45.26
859.31	45.25
859.69	45.24
860.071	45.24
860.451	45.26
860.831	45.28
861.211	45.29
861.591	45.33
861.971	45.31
862.351	45.33
862.731	45.31
863.111	45.29
863.491	45.31
863.87	45.33
864.25	45.36
864.629	45.32
865.009	45.32
865.388	45.32
865.768	45.3
866.147	45.32
866.526	45.31
866.905	45.31
867.284	45.33
867.663	45.33
868.042	45.3
868.421	45.28
868.8	45.28
869.179	45.27
869.558	45.24
869.936	45.22
870.315	45.2
870.693	45.23
871.072	45.2
871.45	45.17
871.828	45.15
872.207	45.19
872.585	45.18
872.963	45.18
873.341	45.19
873.719	45.21
874.097	45.23
874.475	45.25
874.853	45.2
875.23	45.23
875.608	45.26
875.986	45.28
876.363	45.24
876.741	45.24
877.118	45.26
877.495	45.27
877.873	45.28
878.25	45.27
878.627	45.25
879.004	45.28
879.381	45.27
879.758	45.22
880.135	45.24
880.512	45.26
880.889	45.26
881.265	45.27
881.642	45.28
882.019	45.29
882.395	45.31
882.772	45.31
883.148	45.3
883.524	45.32
883.901	45.36
884.277	45.35
884.653	45.35
885.029	45.39
885.405	45.38
885.781	45.36
886.157	45.36
886.532	45.36
886.908	45.38
887.284	45.43
887.659	45.46
888.035	45.47
888.411	45.45
888.786	45.47
889.161	45.45
889.537	45.46
889.912	45.46
890.287	45.46
890.662	45.44
891.037	45.41
891.412	45.37
891.787	45.33
892.162	45.28
892.536	45.27
892.911	45.24
893.286	45.2
893.66	45.2
894.035	45.18
894.409	45.17
894.784	45.16
895.158	45.17
895.532	45.15
895.906	45.15
896.281	45.15
896.655	45.16
897.029	45.13
897.402	45.14
897.776	45.12
898.15	45.12
898.524	45.07
898.898	45.08
899.271	45.07
899.645	45.05
900.018	45.02
900.392	45.04
900.765	45.04
901.138	45.07
901.511	45.04
901.884	45.05
902.258	45.05
902.631	45.07
903.003	45.06
903.376	45.06
903.749	45.06
904.122	45.07
904.495	45.06
904.867	45.03
905.24	45
905.612	44.99
905.985	44.94
906.357	44.9
906.729	44.89
907.102	44.89
907.474	44.88
907.846	44.85
908.218	44.82
908.59	44.78
908.962	44.78
909.334	44.78
909.705	44.79
910.077	44.82
910.449	44.85
910.82	44.84
911.192	44.83
911.563	44.81
911.935	44.81
912.306	44.87
912.677	44.89
913.048	44.9
913.419	44.89
913.79	44.89
914.161	44.85
914.532	44.85
914.903	44.82
915.274	44.84
915.645	44.88
916.015	44.91
916.386	44.86
916.756	44.82
917.127	44.82
917.497	44.86
917.868	44.87
918.238	44.93
918.608	44.94
918.978	44.96
919.348	44.94
919.718	44.9
920.088	44.86
920.458	44.9
920.828	44.96
921.198	44.98
921.567	44.95
921.937	44.95
922.306	44.91
922.676	44.88
923.045	44.88
923.415	44.86
923.784	44.89
924.153	44.91
924.522	44.9
924.891	44.89
925.26	44.87
925.629	44.87
925.998	44.84
926.367	44.82
926.736	44.83
927.104	44.81
927.473	44.83
927.842	44.82
928.21	44.83
928.578	44.81
928.947	44.77
929.315	44.74
929.683	44.76
930.051	44.78
930.42	44.78
930.788	44.76
931.156	44.78
931.523	44.74
931.891	44.72
932.259	44.65
932.627	44.61
932.994	44.54
933.362	44.48
933.729	44.36
934.097	44.26
934.464	44.22
934.831	44.18
935.199	44.13
935.566	44.05
935.933	44.02
936.3	43.97
936.667	43.93
937.034	43.87
937.401	43.85
937.767	43.86
938.134	43.83
938.501	43.81
938.867	43.75
939.234	43.7
939.6	43.68
939.967	43.61
940.333	43.63
940.699	43.66
941.065	43.66
941.431	43.66
941.798	43.64
942.163	43.67
942.529	43.69
942.895	43.73
943.261	43.7
943.627	43.68
943.992	43.65
944.358	43.59
944.723	43.55
945.089	43.63
945.454	43.69
945.82	43.71
946.185	43.79
946.55	43.82
946.915	43.83
947.28	43.82
947.645	43.86
948.01	43.91
948.375	43.98
948.74	43.95
949.104	43.98
949.469	43.9
949.834	43.9
950.198	43.79
950.562	43.73
950.927	43.71
951.291	43.69
951.655	43.62
952.02	43.57
952.384	43.64
952.748	43.68
953.112	43.66
953.476	43.73
953.839	43.68
954.203	43.63
954.567	43.63
954.931	43.62
955.294	43.66
955.658	43.69
956.021	43.74
956.385	43.69
956.748	43.63
957.111	43.54
957.474	43.52
957.837	43.53
958.2	43.53
958.563	43.5
958.926	43.44
959.289	43.41
959.652	43.41
960.015	43.34
960.377	43.29
960.74	43.28
961.102	43.29
961.465	43.24
961.827	43.21
962.189	43.2
962.552	43.17
962.914	43.21
963.276	43.17
963.638	43.12
964	43.15
964.362	43.15
964.724	43.19
965.085	43.21
965.447	43.21
965.809	43.2
966.17	43.23
966.532	43.31
966.893	43.24
967.255	43.24
967.616	43.26
967.977	43.24
968.338	43.17
968.699	43.17
969.061	43.16
969.421	43.14
969.782	43.16
970.143	43.18
970.504	43.09
970.865	43.03
971.225	43.01
971.586	43.02
971.946	43.09
972.307	43.16
972.667	43.1
973.027	43.15
973.388	43.19
973.748	43.19
974.108	43.15
974.468	43.12
974.828	43.25
975.188	43.28
975.548	43.32
975.907	43.25
976.267	43.26
976.627	43.25
976.986	43.19
977.346	43.09
977.705	43.07
978.064	43.09
978.424	43.17
978.783	43.08
979.142	43.09
979.501	42.98
979.86	43.04
980.219	42.96
980.578	42.98
980.937	43.01
981.296	43.04
981.654	43.17
982.013	43.12
982.371	43.07
982.73	43.05
983.088	43
983.447	43.07
983.805	43.05
984.163	43.1
984.521	43.06
984.879	43
985.237	43.04
985.595	42.93
985.953	42.95
986.311	42.92
986.669	42.99
987.026	43
987.384	42.94
987.741	42.88
988.099	42.94
988.456	42.89
988.814	42.87
989.171	42.8
989.528	42.7
989.885	42.64
990.242	42.68
990.599	42.59
990.956	42.65
991.313	42.61
991.67	42.54
992.027	42.4
992.383	42.52
992.74	42.48
993.096	42.43
993.453	42.52
993.809	42.56
994.165	42.49
994.522	42.46
994.878	42.41
995.234	42.46
995.59	42.44
995.946	42.53
996.302	42.36
996.658	42.32
997.013	42.47
997.369	42.42
997.725	42.43
998.08	42.4
998.436	42.48
998.791	42.43
999.147	42.32
999.502	42.39
999.857	42.23
1000.212	42.23
1000.567	42.27
1000.922	42.07
1001.277	42.08
1001.632	42.17
1001.987	42.08
1002.342	42.07
1002.696	42.06
1003.051	42.06
1003.406	41.93
1003.76	41.98
1004.114	42.24
1004.469	42.19
1004.823	42.23
1005.177	42.15
1005.531	41.95
1005.885	42.12
1006.239	42.01
1006.593	41.96
1006.947	41.96
1007.301	41.99
1007.655	42
1008.008	41.72
1008.362	41.8
1008.715	41.9
1009.069	41.82
1009.422	41.78
1009.776	41.66
1010.129	41.63
1010.482	41.67
1010.835	41.75
1011.188	41.62
1011.541	41.27
1011.894	41.18
1012.247	40.94
1012.6	40.94
1012.952	40.97
1013.305	40.97
1013.657	41.02
1014.01	41.05
1014.362	41.13
1014.715	40.97
1015.067	41.08
1015.419	41.38
1015.771	41.57
1016.123	41.53
1016.475	41.59
1016.827	41.66
1017.179	41.62
1017.531	41.5
1017.883	41.55
1018.234	41.48
1018.586	41.53
1018.938	41.38
1019.289	41.26
1019.64	41.37
1019.992	41.62
1020.343	41.4
1020.694	41.08
1021.045	41.15
1021.396	41.03
1021.747	41.2
1022.098	41.25
1022.449	40.86
1022.8	41.16
1023.151	41.05
1023.501	40.78
1023.852	40.62
1024.202	40.31
1024.553	40.36
1024.903	40.31
1025.253	40.32
1025.604	40.07
1025.954	39.57
1026.304	40.1
1026.654	39.84
1027.004	39.86
1027.354	39.44
1027.703	39.27
1028.053	39.21
1028.403	38.86
1028.753	38.72
1029.102	38.58
1029.452	38.35
1029.801	38.4
1030.15	38.06
1030.499	37.87
897.758	756.93
901.051	765.05
904.343	776.26
907.636	765.53
910.928	750
914.22	762.85
917.511	747.71
920.803	714.33
924.094	687.93
927.384	690.62
930.675	667.06
933.965	659.91
937.255	659.21
940.544	627.92
943.834	596.48
947.123	588.49
950.411	554.01
953.7	543.67
956.988	530.53
960.276	502.4
963.563	495
966.851	469.03
970.138	458.81
973.424	426.73
976.711	421.8
979.997	407.58
983.283	398
986.568	385.93
989.853	372.55
993.138	358.13
996.423	353.58
999.708	342.97
1002.992	343.78
1006.275	332.79
1009.559	330.33
1012.842	318.37
1016.125	307.19
1019.408	301.91
1022.69	298.36
1025.972	296.54
1029.254	288.73
1032.536	283.14
1035.817	272.76
1039.098	268.2
1042.379	262.46
1045.659	257.6
1048.939	257.3
1052.219	252.39
1055.498	248.07
1058.778	242.92
1062.057	237.54
1065.335	236.39
1068.614	232.48
1071.892	229.3
1075.17	225.09
1078.447	221.31
1081.724	220.36
1085.001	214.22
1088.278	213.04
1091.554	210.29
1094.83	210.86
1098.106	206.22
1101.382	205.23
1104.657	204.32
1107.932	203.81
1111.206	201.74
1114.481	200.41
1117.755	197.39
1121.029	197.19
1124.302	194.91
1127.575	191.38
1130.848	189.69
1134.121	187.97
1137.393	186.9
1140.665	184.88
1143.937	182.65
1147.208	180.52
1150.48	178.75
1153.75	178.44
1157.021	175
1160.291	174.54
1163.561	175.51
1166.831	172.97
1170.101	173.36
1173.37	171.13
1176.639	169.57
1179.907	169.3
1183.176	169.3
1186.444	169.28
1189.711	168.05
1192.979	169.56
1196.246	170.08
1199.513	168.25
1202.78	169.11
1206.046	168.93
1209.312	170.69
1212.578	171.75
1215.843	174.98
1219.108	176.05
1222.373	179.31
1225.638	182.37
1228.902	187.53
1232.166	193.17
1235.43	197.2
1238.693	203.72
1241.956	208.33
1245.219	214.36
1248.482	215.63
1251.744	214.34
1255.006	214.33
1258.268	208.65
1261.529	206.78
1264.79	201.02
1268.051	196.52
1271.312	194.24
1274.572	188.84
1277.832	183.85
1281.092	180.81
1284.351	177.49
1287.61	177.27
1290.869	176.13
1294.128	175.34
1297.386	174.52
1300.644	173.99
1303.902	172.92
1307.159	172.01
1310.416	173.69
1313.673	176.66
1316.93	177.59
1320.186	180.46
1323.442	183.42
1326.697	188.95
1329.953	189.4
1333.208	196.53
1336.463	205.54
1339.717	210.08
1342.972	221.53
1346.226	227.63
1349.479	229.76
1352.733	240.81
1355.986	246.2
1359.238	251.13
1362.491	252.39
1365.743	262.77
1368.995	264.76
1372.247	262.28
1375.498	262.08
1378.749	270.88
1382	271.46
1385.251	270.24
1388.501	269.93
1391.751	273.68
1395	272.42
1398.25	275.2
1401.499	275.3
1404.748	274.97
1407.996	271
1411.244	271.96
1414.492	266.98
1417.74	259.96
1420.987	255.1
1424.234	251.47
1427.481	240.67
1430.728	235.32
1433.974	225.72
1437.22	218.43
1440.465	209.97
1443.711	204
1446.956	197.99
1450.201	189.8
1453.445	180.55
1456.689	174.96
1459.933	168.89
1463.177	161.8
1466.42	158.5
1469.663	152.94
1472.906	148.76
1476.148	144.63
1479.391	140.95
1482.633	138.15
1485.874	134.41
1489.115	133.38
1492.356	130.71
1495.597	128.14
1498.838	127.9
1502.078	125.79
1505.318	125.86
1508.557	124.63
1511.797	123.09
1515.036	122.27
1518.274	121.08
1521.513	120.25
1524.751	119.28
1527.989	119.87
1531.227	119.36
1534.464	118.5
1537.701	117.62
1540.938	116.8
1544.174	116.74
1547.41	116.6
1550.646	116.37
1553.882	116.13
1557.117	115.4
1560.352	115.4
1563.587	113.86
1566.821	113.74
1570.055	112.31
1573.289	112.06
1576.523	112
1579.756	111.47
1582.989	111.71
1586.222	111.02
1589.454	110.52
1592.686	110.55
1595.918	110.1
1599.15	110.02
1602.381	110.17
1605.612	110.76
1608.843	110.6
1612.073	110.82
1615.303	110.66
1618.533	110.02
1621.762	110.62
1624.992	110.99
1628.221	110.42
1631.449	110.95
1634.678	111.02
1637.906	110.97
1641.134	111.3
1644.361	110.98
1647.588	111.12
1650.815	111.27
1654.042	111.72
1657.269	110.79
1660.495	111.29
1663.72	111.53
1666.946	111.67
1670.171	112.27
1673.396	112.46
1676.621	112.35
1679.845	113.46
1683.069	112.85
1686.293	112.84
1689.517	112.94
1692.74	113.93
1695.963	114.12
1699.185	115.08
1702.408	114.79
1705.63	114.67
1708.852	115.96
1712.073	115.55
1715.294	114.94
1718.515	116.12
1721.736	116.64
1724.956	116.64
1728.176	116.4
1731.396	117.01
1734.616	116.66
1737.835	117.06
1741.054	117.35
1744.272	116.92
1747.491	117.65
1750.709	118.49
1753.927	118.61
1757.144	119.24
1760.361	119.97
1763.578	120.5
1766.795	120.89
1770.011	121.57
1773.227	122.06
1776.443	123.01
1779.658	123.56
1782.874	124.62
1786.089	125.04
1789.303	125.46
1792.518	126.25
1795.732	126.73
1798.945	128.32
1802.159	128.21
1805.372	129.91
1808.585	131.17
1811.797	132.4
1815.01	133.1
1818.222	134.1
1821.434	135.48
1824.645	136.35
1827.856	138.01
1831.067	139.33
1834.278	140.67
1837.488	141.94
1840.698	143.3
1843.908	143.47
1847.117	144.98
1850.326	146.42
1853.535	147.38
1856.744	149.4
1859.952	151.49
1863.16	151.95
1866.368	151.71
1869.575	153.2
1872.782	153.49
1875.989	152.89
1879.196	152.53
1882.402	152.17
1885.608	153.43
1888.814	153.81
1892.019	154.36
1895.224	152.88
1898.429	155.34
1901.634	157.23
1904.838	157.13
1908.042	158.98
1911.246	158.93
1914.449	160.97
1917.652	160.82
1920.855	160.73
1924.058	159.77
1927.26	159.94
1930.462	161.09
1933.664	159.18
1936.865	158.72
1940.066	157.75
1943.267	157.16
1946.467	158.52
1949.668	158.93
1952.868	159.33
1956.067	159.18
1959.267	159.65
1962.466	160.56
1965.665	161.75
1968.863	162.34
1972.061	163.86
1975.259	166.43
1978.457	167.19
1981.654	168.75
1984.852	170.02
1988.048	172.04
1991.245	174.44
1994.441	179.2
1997.637	181.82
2000.833	185.02
2004.028	187.72
2007.223	193.08
2010.418	197.51
2013.613	205.87
2016.807	211.18
2020.001	214.85
2023.194	220.07
2026.388	228.85
2029.581	238.64
2032.774	246.72
2035.966	254.89
2039.158	261.66
2042.35	267.34
2045.542	270.95
2048.733	284.12
2051.924	284.38
2055.115	290.21
2058.306	293.98
2061.496	299.32
2064.686	298.38
2067.875	295.57
2071.065	297.67
2074.254	299.42
2077.442	306.05
2080.631	309.22
2083.819	306.67
2087.007	317.77
2090.195	320.53
2093.382	320.45
2096.569	319.29
2099.756	326.69
2102.942	334.8
2106.128	343.13
2109.314	343.59
2112.5	344.07
2115.685	344.49
2118.87	345.1
2122.055	345.83
2125.239	354.19
2128.424	362.34
2131.608	360.29
2134.791	361.68
2137.974	359.87
2141.157	362.22
2144.34	367.26
2147.523	371.67
2150.705	379.22
2153.887	379.28
2157.068	381.44
2160.25	385
2163.431	383.79
2166.611	391.66
2169.792	395.26
2172.972	403.78
2176.152	403.02
2179.331	411.9
2182.511	413.66
2185.69	420.88
2188.868	434.17
2192.047	444.67
2195.225	449.4
2198.403	458.9
2201.58	455.17
2204.758	470.41
2207.935	476.04
2211.111	485.51
2214.288	488.5
2217.464	493.47
2220.64	496.54
2223.815	498.57
2226.991	490.09
2230.166	495.71
2233.34	509.43
2236.515	522.24
2239.689	513.43
2242.863	521.2
2246.036	514.33
2249.209	530.24
2252.382	531.43
2255.555	547.03
2258.727	549.43
2261.9	570.99
2265.071	578.53
2268.243	570.76
2271.414	587.77
2274.585	602.96
2277.756	602.23
2280.926	631.63
2284.096	628.51
2287.266	628.95
2290.436	620.82
2293.605	632.95
2296.774	655.05
2299.942	649.71
2303.111	678.26
2306.279	685.91
2309.447	690.4
2312.614	692.93
2315.781	708.33
2318.948	713.35
2322.115	731.8
2325.281	767.67
2328.447	767.03
2331.613	763.62
2334.779	782.19
2337.944	788.78
2341.109	808.87
2344.274	817.05
2347.438	840.01
2350.602	851.09
2353.766	908
2356.929	910.21
2360.092	922.23
2363.255	925.51
2366.418	944.34
2369.58	968.33
2372.742	960.01
2375.904	956.42
2379.066	981.86
2382.227	1032.02
2385.388	1040.9
2388.548	982.23
2391.709	975.3
2394.869	998.24
2398.029	1002.11
2401.188	1002.23
2404.347	1029.56
2407.506	1069.23
2410.665	1024.7
2413.823	1031.87
2416.981	1036.23
2420.139	969.28
2423.296	1056.69
2426.453	1123.3
2429.61	1077.44
2432.767	1151.4
2435.923	1191.33
2439.079	1142.52
2442.235	1171.81
2445.391	1201.17
2448.546	1187.13
2451.701	1261.44
2454.855	1357.81
2458.009	1196.81
2461.163	1214.9
2464.317	1227.37
2467.471	1203.2
2470.624	1246.09
2473.777	1218.85
2476.929	1176.96
2480.082	1262.8
2483.234	1328.27
2486.385	1341.6
2489.537	1372.39
2492.688	1518.22
2495.839	1478.27
2498.989	1527.04
2502.14	1528.13
2505.29	1450.92
2508.439	1630.8
2511.589	1673.51
2514.738	1619.74
2517.887	1603.56
2521.035	1495.72
2524.183	1478.95
2527.331	1459.96
2530.479	1441.91
2533.627	1469.81
