Data from N_2_hir_wi_4n_077_Splice17_11.txt Node
Date: Sat Feb 29 14:10:23 EST 2020
User: sa697716
Spectrometer: FLMS03696
Trigger mode: 0
Integration Time (sec): 3.180400E-1
Scans to average: 20
Electric dark correction enabled: true
Nonlinearity correction enabled: true
Boxcar width: 5
XAxis mode: Wavelengths
Number of Pixels in Spectrum: 2048
>>>>>Begin Spectral Data<<<<<
187.83	31.72
188.298	13.57
188.766	35.75
189.233	40.02
189.701	45.09
190.169	46.99
190.636	33.97
191.104	19.72
191.571	-93.44
192.039	-46.97
192.506	189
192.974	7624.03
193.441	-94.39
193.908	96.19
194.375	196.35
194.842	162.87
195.31	93.22
195.777	71.18
196.244	29.91
196.711	23.02
197.177	20.34
197.644	19.49
198.111	18.48
198.578	19.22
199.045	20.2
199.511	21.01
199.978	21.64
200.445	21.74
200.911	22
201.378	21.8
201.844	22.03
202.31	22.58
202.777	23.18
203.243	23.36
203.709	23.73
204.176	23.43
204.642	23.18
205.108	23.16
205.574	23.28
206.04	23.18
206.506	23.67
206.972	23.63
207.438	23.11
207.903	23.22
208.369	23.26
208.835	22.93
209.301	22.9
209.766	22.46
210.232	22.09
210.697	21.72
211.163	21.3
211.628	20.56
212.094	20.41
212.559	20.11
213.024	19.36
213.49	19
213.955	18.52
214.42	17.53
214.885	16.93
215.35	16.26
215.815	15.16
216.28	14.21
216.745	13.34
217.21	12.01
217.675	10.95
218.14	9.9
218.604	8.84
219.069	8.18
219.534	7.6
219.998	6.99
220.463	6.53
220.927	6.19
221.392	5.8
221.856	5.42
222.32	5.19
222.785	4.94
223.249	4.77
223.713	4.67
224.177	4.49
224.642	4.38
225.106	4.28
225.57	4.14
226.034	4.03
226.497	3.93
226.961	3.83
227.425	3.71
227.889	3.66
228.353	3.59
228.816	3.5
229.28	3.38
229.744	3.31
230.207	3.24
230.671	3.19
231.134	3.12
231.597	3.06
232.061	3.01
232.524	2.98
232.987	2.94
233.45	2.88
233.914	2.84
234.377	2.82
234.84	2.78
235.303	2.74
235.766	2.7
236.229	2.68
236.691	2.69
237.154	2.67
237.617	2.64
238.08	2.6
238.542	2.57
239.005	2.55
239.468	2.52
239.93	2.52
240.393	2.52
240.855	2.5
241.317	2.47
241.78	2.43
242.242	2.4
242.704	2.38
243.166	2.34
243.629	2.32
244.091	2.29
244.553	2.28
245.015	2.26
245.477	2.22
245.939	2.19
246.4	2.17
246.862	2.15
247.324	2.14
247.786	2.13
248.247	2.13
248.709	2.11
249.17	2.09
249.632	2.06
250.093	2.03
250.555	2.02
251.016	2.02
251.477	2
251.939	1.97
252.4	1.95
252.861	1.92
253.322	1.89
253.783	1.89
254.244	1.87
254.705	1.85
255.166	1.84
255.627	1.82
256.088	1.8
256.549	1.79
257.009	1.78
257.47	1.77
257.931	1.76
258.391	1.74
258.852	1.72
259.312	1.7
259.773	1.69
260.233	1.67
260.694	1.66
261.154	1.64
261.614	1.63
262.074	1.61
262.534	1.59
262.994	1.59
263.455	1.58
263.915	1.56
264.374	1.55
264.834	1.53
265.294	1.52
265.754	1.51
266.214	1.5
266.673	1.49
267.133	1.47
267.593	1.47
268.052	1.45
268.512	1.44
268.971	1.44
269.431	1.44
269.89	1.43
270.349	1.42
270.809	1.42
271.268	1.42
271.727	1.42
272.186	1.41
272.645	1.4
273.104	1.4
273.563	1.4
274.022	1.39
274.481	1.38
274.94	1.37
275.399	1.37
275.857	1.37
276.316	1.35
276.775	1.34
277.233	1.34
277.692	1.34
278.15	1.33
278.609	1.32
279.067	1.32
279.525	1.31
279.984	1.31
280.442	1.31
280.9	1.31
281.358	1.31
281.816	1.31
282.274	1.3
282.732	1.31
283.19	1.31
283.648	1.31
284.106	1.31
284.564	1.31
285.021	1.31
285.479	1.31
285.937	1.3
286.394	1.3
286.852	1.3
287.309	1.3
287.767	1.29
288.224	1.28
288.682	1.28
289.139	1.28
289.596	1.27
290.053	1.26
290.511	1.25
290.968	1.25
291.425	1.25
291.882	1.25
292.339	1.24
292.796	1.23
293.252	1.22
293.709	1.21
294.166	1.21
294.623	1.21
295.079	1.22
295.536	1.21
295.992	1.21
296.449	1.2
296.905	1.19
297.362	1.19
297.818	1.19
298.274	1.19
298.731	1.18
299.187	1.18
299.643	1.18
300.099	1.18
300.555	1.17
301.011	1.17
301.467	1.16
301.923	1.17
302.379	1.17
302.835	1.17
303.291	1.17
303.746	1.16
304.202	1.16
304.658	1.16
305.113	1.16
305.569	1.16
306.024	1.16
306.479	1.16
306.935	1.16
307.39	1.16
307.845	1.16
308.301	1.16
308.756	1.17
309.211	1.17
309.666	1.17
310.121	1.17
310.576	1.17
311.031	1.17
311.486	1.18
311.94	1.18
312.395	1.18
312.85	1.19
313.305	1.19
313.759	1.19
314.214	1.19
314.668	1.19
315.123	1.19
315.577	1.2
316.032	1.2
316.486	1.19
316.94	1.19
317.394	1.18
317.849	1.17
318.303	1.18
318.757	1.17
319.211	1.17
319.665	1.16
320.119	1.16
320.572	1.17
321.026	1.17
321.48	1.16
321.934	1.17
322.387	1.17
322.841	1.17
323.295	1.17
323.748	1.16
324.202	1.17
324.655	1.17
325.108	1.16
325.562	1.14
326.015	1.15
326.468	1.14
326.921	1.13
327.374	1.14
327.827	1.13
328.28	1.13
328.733	1.13
329.186	1.12
329.639	1.12
330.092	1.12
330.545	1.14
330.997	1.14
331.45	1.14
331.903	1.15
332.355	1.14
332.808	1.15
333.26	1.15
333.713	1.16
334.165	1.16
334.617	1.17
335.069	1.17
335.522	1.17
335.974	1.17
336.426	1.17
336.878	1.17
337.33	1.16
337.782	1.16
338.234	1.17
338.686	1.16
339.137	1.17
339.589	1.16
340.041	1.17
340.493	1.16
340.944	1.16
341.396	1.16
341.847	1.16
342.299	1.15
342.75	1.14
343.201	1.13
343.653	1.13
344.104	1.12
344.555	1.11
345.006	1.1
345.457	1.11
345.908	1.11
346.359	1.1
346.81	1.11
347.261	1.11
347.712	1.11
348.163	1.11
348.613	1.11
349.064	1.1
349.515	1.1
349.965	1.1
350.416	1.09
350.866	1.1
351.317	1.09
351.767	1.08
352.217	1.08
352.668	1.08
353.118	1.08
353.568	1.08
354.018	1.1
354.468	1.09
354.918	1.1
355.368	1.1
355.818	1.11
356.268	1.1
356.718	1.11
357.168	1.1
357.617	1.11
358.067	1.11
358.517	1.1
358.966	1.1
359.416	1.11
359.865	1.11
360.315	1.11
360.764	1.1
361.213	1.1
361.663	1.1
362.112	1.12
362.561	1.11
363.01	1.12
363.459	1.11
363.908	1.12
364.357	1.11
364.806	1.12
365.255	1.12
365.703	1.11
366.152	1.12
366.601	1.12
367.05	1.13
367.498	1.13
367.947	1.13
368.395	1.15
368.844	1.14
369.292	1.15
369.74	1.15
370.189	1.15
370.637	1.16
371.085	1.17
371.533	1.16
371.981	1.17
372.429	1.16
372.877	1.16
373.325	1.16
373.773	1.16
374.221	1.16
374.669	1.17
375.116	1.17
375.564	1.18
376.012	1.19
376.459	1.2
376.907	1.2
377.354	1.21
377.801	1.23
378.249	1.23
378.696	1.25
379.143	1.26
379.591	1.27
380.038	1.28
380.485	1.29
380.932	1.3
381.379	1.31
381.826	1.33
382.273	1.33
382.72	1.35
383.166	1.37
383.613	1.38
384.06	1.39
384.506	1.42
384.953	1.43
385.4	1.44
385.846	1.45
386.292	1.47
386.739	1.48
387.185	1.51
387.631	1.52
388.078	1.54
388.524	1.54
388.97	1.56
389.416	1.56
389.862	1.58
390.308	1.59
390.754	1.61
391.2	1.64
391.645	1.67
392.091	1.68
392.537	1.69
392.983	1.73
393.428	1.75
393.874	1.79
394.319	1.82
394.765	1.85
395.21	1.87
395.655	1.9
396.101	1.92
396.546	1.94
396.991	1.97
397.436	1.98
397.881	2
398.326	2.04
398.771	2.05
399.216	2.08
399.661	2.12
400.106	2.15
400.551	2.17
400.995	2.17
401.44	2.18
401.885	2.2
402.329	2.24
402.774	2.25
403.218	2.26
403.663	2.27
404.107	2.28
404.551	2.29
404.995	2.3
405.44	2.31
405.884	2.33
406.328	2.35
406.772	2.37
407.216	2.38
407.66	2.4
408.104	2.41
408.547	2.43
408.991	2.45
409.435	2.46
409.879	2.48
410.322	2.51
410.766	2.53
411.209	2.55
411.653	2.56
412.096	2.56
412.54	2.57
412.983	2.58
413.426	2.6
413.869	2.62
414.312	2.65
414.756	2.66
415.199	2.67
415.642	2.7
416.085	2.72
416.527	2.73
416.97	2.76
417.413	2.77
417.856	2.79
418.298	2.79
418.741	2.8
419.184	2.8
419.626	2.8
420.069	2.8
420.511	2.8
420.953	2.8
421.396	2.81
421.838	2.83
422.28	2.85
422.722	2.85
423.164	2.86
423.606	2.86
424.048	2.87
424.49	2.88
424.932	2.89
425.374	2.9
425.816	2.89
426.258	2.89
426.699	2.87
427.141	2.84
427.582	2.85
428.024	2.85
428.465	2.85
428.907	2.85
429.348	2.85
429.789	2.86
430.231	2.85
430.672	2.86
431.113	2.87
431.554	2.89
431.995	2.9
432.436	2.92
432.877	2.9
433.318	2.91
433.759	2.91
434.2	2.92
434.64	2.9
435.081	2.91
435.522	2.92
435.962	2.93
436.403	2.95
436.843	2.96
437.284	2.98
437.724	3.03
438.164	3.06
438.604	3.08
439.045	3.1
439.485	3.13
439.925	3.12
440.365	3.12
440.805	3.12
441.245	3.1
441.685	3.12
442.125	3.09
442.564	3.09
443.004	3.08
443.444	3.1
443.883	3.12
444.323	3.13
444.762	3.16
445.202	3.2
445.641	3.22
446.081	3.26
446.52	3.27
446.959	3.3
447.398	3.33
447.837	3.37
448.276	3.38
448.716	3.38
449.154	3.42
449.593	3.45
450.032	3.45
450.471	3.47
450.91	3.47
451.349	3.46
451.787	3.47
452.226	3.47
452.664	3.45
453.103	3.45
453.541	3.46
453.98	3.44
454.418	3.44
454.856	3.42
455.295	3.42
455.733	3.43
456.171	3.44
456.609	3.45
457.047	3.45
457.485	3.46
457.923	3.45
458.361	3.44
458.798	3.45
459.236	3.44
459.674	3.45
460.111	3.46
460.549	3.44
460.987	3.45
461.424	3.44
461.862	3.42
462.299	3.42
462.736	3.42
463.173	3.42
463.611	3.41
464.048	3.43
464.485	3.44
464.922	3.43
465.359	3.45
465.796	3.43
466.233	3.44
466.67	3.47
467.106	3.46
467.543	3.47
467.98	3.49
468.416	3.5
468.853	3.49
469.29	3.49
469.726	3.5
470.162	3.48
470.599	3.49
471.035	3.51
471.471	3.5
471.907	3.53
472.344	3.53
472.78	3.53
473.216	3.52
473.652	3.53
474.088	3.53
474.523	3.53
474.959	3.53
475.395	3.53
475.831	3.53
476.266	3.52
476.702	3.52
477.138	3.51
477.573	3.51
478.008	3.53
478.444	3.52
478.879	3.52
479.314	3.52
479.75	3.53
480.185	3.53
480.62	3.52
481.055	3.53
481.49	3.52
481.925	3.51
482.36	3.5
482.795	3.49
483.229	3.49
483.664	3.49
484.099	3.49
484.534	3.49
484.968	3.5
485.403	3.5
485.837	3.5
486.271	3.51
486.706	3.51
487.14	3.54
487.574	3.56
488.009	3.57
488.443	3.59
488.877	3.61
489.311	3.62
489.745	3.63
490.179	3.67
490.613	3.69
491.046	3.73
491.48	3.77
491.914	3.8
492.348	3.83
492.781	3.87
493.215	3.9
493.648	3.94
494.082	3.99
494.515	4.03
494.948	4.08
495.382	4.12
495.815	4.17
496.248	4.22
496.681	4.27
497.114	4.32
497.547	4.38
497.98	4.46
498.413	4.54
498.846	4.6
499.279	4.67
499.711	4.74
500.144	4.82
500.577	4.91
501.009	5
501.442	5.09
501.874	5.19
502.306	5.3
502.739	5.4
503.171	5.51
503.603	5.64
504.036	5.77
504.468	5.91
504.9	6.06
505.332	6.21
505.764	6.37
506.196	6.53
506.627	6.71
507.059	6.87
507.491	7.06
507.923	7.24
508.354	7.42
508.786	7.62
509.217	7.8
509.649	8
510.08	8.21
510.512	8.41
510.943	8.62
511.374	8.83
511.805	9.07
512.237	9.29
512.668	9.52
513.099	9.76
513.53	10.02
513.961	10.28
514.391	10.52
514.822	10.77
515.253	11.03
515.684	11.27
516.114	11.56
516.545	11.8
516.975	12.07
517.406	12.34
517.836	12.59
518.267	12.86
518.697	13.13
519.127	13.42
519.558	13.7
519.988	13.97
520.418	14.24
520.848	14.49
521.278	14.75
521.708	14.88
522.138	15.13
522.567	15.38
522.997	15.62
523.427	15.85
523.857	16.07
524.286	16.27
524.716	16.48
525.145	16.72
525.575	16.92
526.004	17.13
526.433	17.47
526.863	17.67
527.292	17.85
527.721	18.02
528.15	18.19
528.579	18.36
529.008	18.54
529.437	18.71
529.866	18.84
530.295	18.98
530.724	19.11
531.152	19.22
531.581	19.34
532.01	19.45
532.438	19.57
532.867	19.66
533.295	19.75
533.723	19.84
534.152	19.91
534.58	19.98
535.008	20.04
535.436	20.09
535.865	20.15
536.293	20.24
536.721	20.29
537.149	20.32
537.576	20.39
538.004	20.43
538.432	20.46
538.86	20.51
539.287	20.59
539.715	20.64
540.143	20.69
540.57	20.74
540.998	20.77
541.425	20.82
541.852	20.85
542.28	20.88
542.707	20.92
543.134	20.93
543.561	20.95
543.988	20.95
544.415	20.99
544.842	21.01
545.269	21.04
545.696	21.06
546.123	21.07
546.549	21.09
546.976	21.12
547.403	21.15
547.829	21.2
548.256	21.22
548.682	21.23
549.108	21.25
549.535	21.26
549.961	21.28
550.387	21.28
550.813	21.3
551.24	21.31
551.666	21.33
552.092	21.35
552.518	21.33
552.943	21.34
553.369	21.33
553.795	21.31
554.221	21.29
554.646	21.26
555.072	21.22
555.498	21.18
555.923	21.16
556.349	21.07
556.774	20.99
557.199	20.94
557.625	20.87
558.05	20.8
558.475	20.73
558.9	20.67
559.325	20.6
559.75	20.52
560.175	20.44
560.6	20.34
561.025	20.28
561.449	20.18
561.874	20.08
562.299	19.98
562.723	19.87
563.148	19.77
563.572	19.66
563.997	19.56
564.421	19.45
564.846	19.34
565.27	19.21
565.694	19.08
566.118	18.96
566.542	18.83
566.966	18.71
567.39	18.56
567.814	18.4
568.238	18.23
568.662	18.08
569.086	17.91
569.509	17.76
569.933	17.61
570.357	17.45
570.78	17.31
571.204	17.16
571.627	17.02
572.05	16.88
572.474	16.75
572.897	16.63
573.32	16.49
573.743	16.37
574.166	16.25
574.589	16.13
575.012	16.02
575.435	15.9
575.858	15.78
576.281	15.67
576.704	15.56
577.126	15.46
577.549	15.38
577.972	15.28
578.394	15.2
578.817	15.11
579.239	15.03
579.661	14.94
580.084	14.86
580.506	14.8
580.928	14.72
581.35	14.65
581.772	14.59
582.194	14.52
582.616	14.44
583.038	14.37
583.46	14.31
583.882	14.24
584.303	14.18
584.725	14.12
585.147	14.04
585.568	13.97
585.99	13.92
586.411	13.84
586.833	13.78
587.254	13.74
587.675	13.69
588.096	13.64
588.518	13.59
588.939	13.56
589.36	13.52
589.781	13.48
590.202	13.45
590.623	13.4
591.043	13.37
591.464	13.34
591.885	13.3
592.305	13.28
592.726	13.25
593.147	13.23
593.567	13.18
593.987	13.16
594.408	13.14
594.828	13.12
595.248	13.11
595.669	13.09
596.089	13.05
596.509	13.02
596.929	12.97
597.349	12.93
597.769	12.89
598.189	12.87
598.608	12.83
599.028	12.79
599.448	12.76
599.867	12.71
600.287	12.67
600.706	12.63
601.126	12.59
601.545	12.54
601.965	12.49
602.384	12.46
602.803	12.39
603.222	12.33
603.641	12.27
604.061	12.2
604.48	12.14
604.898	12.07
605.317	12.01
605.736	11.94
606.155	11.88
606.574	11.82
606.992	11.73
607.411	11.68
607.829	11.57
608.248	11.5
608.666	11.42
609.085	11.34
609.503	11.26
609.921	11.18
610.339	11.11
610.758	11.03
611.176	10.95
611.594	10.88
612.012	10.79
612.43	10.76
612.847	10.7
613.265	10.64
613.683	10.57
614.101	10.48
614.518	10.42
614.936	10.34
615.353	10.28
615.771	10.22
616.188	10.15
616.606	10.1
617.023	10.04
617.44	9.98
617.857	9.91
618.274	9.87
618.691	9.85
619.108	9.81
619.525	9.77
619.942	9.73
620.359	9.71
620.776	9.68
621.192	9.65
621.609	9.62
622.026	9.59
622.442	9.57
622.859	9.55
623.275	9.53
623.691	9.52
624.108	9.51
624.524	9.48
624.94	9.45
625.356	9.44
625.772	9.44
626.188	9.43
626.604	9.41
627.02	9.4
627.436	9.39
627.852	9.37
628.268	9.35
628.683	9.33
629.099	9.33
629.514	9.31
629.93	9.29
630.345	9.25
630.761	9.23
631.176	9.2
631.591	9.18
632.007	9.14
632.422	9.12
632.837	9.08
633.252	9.04
633.667	8.98
634.082	8.95
634.497	8.87
634.911	8.8
635.326	8.75
635.741	8.68
636.155	8.61
636.57	8.54
636.984	8.43
637.399	8.34
637.813	8.25
638.228	8.16
638.642	8.06
639.056	7.98
639.47	7.89
639.884	7.79
640.298	7.68
640.712	7.58
641.126	7.49
641.54	7.4
641.954	7.32
642.368	7.22
642.781	7.13
643.195	7.01
643.609	6.92
644.022	6.83
644.436	6.75
644.849	6.67
645.262	6.59
645.676	6.5
646.089	6.43
646.502	6.34
646.915	6.28
647.328	6.21
647.741	6.17
648.154	6.12
648.567	6.08
648.98	6.03
649.393	5.98
649.805	5.92
650.218	5.88
650.631	5.82
651.043	5.79
651.456	5.75
651.868	5.7
652.28	5.66
652.693	5.59
653.105	5.54
653.517	5.48
653.929	5.43
654.341	5.39
654.753	5.33
655.165	5.28
655.577	5.2
655.989	5.13
656.401	5.07
656.813	5
657.224	4.94
657.636	4.87
658.047	4.79
658.459	4.71
658.87	4.63
659.282	4.55
659.693	4.48
660.104	4.43
660.515	4.36
660.926	4.3
661.338	4.22
661.749	4.14
662.159	4.07
662.57	4.01
662.981	3.96
663.392	3.88
663.803	3.83
664.213	3.77
664.624	3.72
665.035	3.68
665.445	3.63
665.855	3.61
666.266	3.58
666.676	3.54
667.086	3.51
667.497	3.48
667.907	3.46
668.317	3.44
668.727	3.42
669.137	3.41
669.547	3.41
669.956	3.4
670.366	3.39
670.776	3.38
671.186	3.39
671.595	3.4
672.005	3.41
672.414	3.42
672.824	3.45
673.233	3.47
673.642	3.47
674.052	3.47
674.461	3.48
674.87	3.5
675.279	3.53
675.688	3.54
676.097	3.56
676.506	3.58
676.915	3.6
677.323	3.64
677.732	3.66
678.141	3.72
678.549	3.76
678.958	3.82
679.366	3.85
679.775	3.91
680.183	3.97
680.592	4.04
681	4.11
681.408	4.19
681.816	4.26
682.224	4.34
682.632	4.44
683.04	4.55
683.448	4.65
683.856	4.79
684.264	4.93
684.671	5.09
685.079	5.26
685.487	5.47
685.894	5.69
686.302	5.92
686.709	6.18
687.116	6.45
687.524	6.75
687.931	7.07
688.338	7.42
688.745	7.79
689.152	8.17
689.559	8.59
689.966	8.99
690.373	9.44
690.78	9.9
691.187	10.36
691.593	10.84
692	11.33
692.407	11.82
692.813	12.33
693.22	12.85
693.626	13.37
694.032	13.9
694.439	14.45
694.845	14.99
695.251	15.52
695.657	16.06
696.063	16.6
696.469	17.16
696.875	17.69
697.281	18.21
697.687	18.73
698.093	19.28
698.498	19.8
698.904	20.31
699.31	20.81
699.715	21.32
700.12	21.8
700.526	22.3
700.931	22.77
701.337	23.26
701.742	23.72
702.147	24.2
702.552	24.64
702.957	25.1
703.362	25.53
703.767	25.95
704.172	26.36
704.577	26.79
704.981	27.18
705.386	27.56
705.791	27.96
706.195	28.34
706.6	28.71
707.004	29.07
707.408	29.39
707.813	29.75
708.217	30.09
708.621	30.47
709.025	30.81
709.43	31.15
709.834	31.49
710.237	31.79
710.641	32.12
711.045	32.42
711.449	32.71
711.853	33.04
712.256	33.35
712.66	33.67
713.064	33.95
713.467	34.24
713.87	34.52
714.274	34.82
714.677	35.09
715.08	35.36
715.484	35.64
715.887	35.93
716.29	36.17
716.693	36.42
717.096	36.65
717.499	36.9
717.901	37.11
718.304	37.33
718.707	37.55
719.109	37.77
719.512	38
719.915	38.23
720.317	38.45
720.719	38.64
721.122	38.82
721.524	39.03
721.926	39.2
722.328	39.38
722.731	39.58
723.133	39.75
723.535	39.93
723.937	40.11
724.338	40.23
724.74	40.36
725.142	40.49
725.544	40.63
725.945	40.76
726.347	40.91
726.748	41.04
727.15	41.16
727.551	41.27
727.952	41.37
728.354	41.48
728.755	41.61
729.156	41.71
729.557	41.89
729.958	42.01
730.359	42.13
730.76	42.2
731.161	42.31
731.562	42.4
731.962	42.5
732.363	42.58
732.763	42.64
733.164	42.71
733.564	42.79
733.965	42.82
734.365	42.87
734.766	42.91
735.166	42.97
735.566	43
735.966	43.04
736.366	43.07
736.766	43.12
737.166	43.19
737.566	43.24
737.966	43.3
738.365	43.35
738.765	43.42
739.165	43.45
739.564	43.51
739.964	43.54
740.363	43.59
740.763	43.63
741.162	43.65
741.561	43.68
741.96	43.73
742.36	43.76
742.759	43.79
743.158	43.76
743.557	43.8
743.955	43.82
744.354	43.86
744.753	43.88
745.152	43.91
745.55	43.96
745.949	44
746.348	44.03
746.746	44.03
747.144	44.08
747.543	44.15
747.941	44.17
748.339	44.22
748.737	44.28
749.136	44.28
749.534	44.33
749.932	44.36
750.33	44.36
750.727	44.38
751.125	44.39
751.523	44.36
751.921	44.36
752.318	44.38
752.716	44.39
753.113	44.38
753.511	44.38
753.908	44.37
754.305	44.33
754.703	44.32
755.1	44.29
755.497	44.31
755.894	44.32
756.291	44.31
756.688	44.29
757.085	44.24
757.482	44.21
757.878	44.23
758.275	44.21
758.672	44.26
759.068	44.28
759.465	44.31
759.861	44.28
760.258	44.29
760.654	44.29
761.05	44.29
761.447	44.31
761.843	44.27
762.239	44.25
762.635	44.25
763.031	44.23
763.427	44.22
763.822	44.18
764.218	44.19
764.614	44.18
765.01	44.16
765.405	44.14
765.801	44.11
766.196	44.15
766.592	44.17
766.987	44.16
767.382	44.16
767.778	44.16
768.173	44.17
768.568	44.13
768.963	44.14
769.358	44.14
769.753	44.16
770.148	44.19
770.542	44.18
770.937	44.18
771.332	44.19
771.726	44.17
772.121	44.17
772.515	44.19
772.91	44.2
773.304	44.18
773.699	44.16
774.093	44.15
774.487	44.13
774.881	44.12
775.275	44.11
775.669	44.09
776.063	44.08
776.457	44.05
776.851	44.02
777.245	44.03
777.638	44.03
778.032	44.07
778.425	44.07
778.819	44.09
779.212	44.12
779.606	44.12
779.999	44.13
780.392	44.14
780.786	44.14
781.179	44.16
781.572	44.17
781.965	44.19
782.358	44.19
782.751	44.18
783.143	44.2
783.536	44.22
783.929	44.24
784.322	44.27
784.714	44.28
785.107	44.33
785.499	44.34
785.891	44.35
786.284	44.32
786.676	44.33
787.068	44.34
787.46	44.34
787.852	44.32
788.245	44.31
788.636	44.3
789.028	44.31
789.42	44.29
789.812	44.3
790.204	44.25
790.595	44.27
790.987	44.27
791.378	44.29
791.77	44.33
792.161	44.35
792.553	44.34
792.944	44.36
793.335	44.37
793.726	44.34
794.117	44.32
794.508	44.38
794.899	44.41
795.29	44.37
795.681	44.37
796.072	44.37
796.463	44.36
796.853	44.37
797.244	44.36
797.634	44.33
798.025	44.36
798.415	44.37
798.806	44.37
799.196	44.37
799.586	44.4
799.976	44.43
800.366	44.4
800.756	44.41
801.146	44.4
801.536	44.39
801.926	44.41
802.316	44.45
802.706	44.45
803.095	44.43
803.485	44.44
803.874	44.47
804.264	44.48
804.653	44.47
805.043	44.5
805.432	44.5
805.821	44.51
806.21	44.55
806.599	44.54
806.988	44.55
807.377	44.57
807.766	44.54
808.155	44.56
808.544	44.53
808.933	44.54
809.321	44.54
809.71	44.59
810.098	44.6
810.487	44.58
810.875	44.58
811.264	44.59
811.652	44.59
812.04	44.61
812.428	44.6
812.816	44.62
813.204	44.62
813.592	44.6
813.98	44.58
814.368	44.6
814.756	44.61
815.144	44.58
815.531	44.56
815.919	44.56
816.306	44.57
816.694	44.57
817.081	44.55
817.469	44.58
817.856	44.6
818.243	44.6
818.63	44.62
819.017	44.63
819.404	44.62
819.791	44.66
820.178	44.69
820.565	44.69
820.952	44.72
821.339	44.76
821.725	44.77
822.112	44.78
822.498	44.8
822.885	44.79
823.271	44.82
823.657	44.86
824.044	44.85
824.43	44.87
824.816	44.88
825.202	44.84
825.588	44.83
825.974	44.82
826.36	44.8
826.746	44.83
827.132	44.8
827.517	44.8
827.903	44.79
828.289	44.79
828.674	44.74
829.06	44.78
829.445	44.79
829.83	44.81
830.216	44.8
830.601	44.81
830.986	44.79
831.371	44.83
831.756	44.79
832.141	44.8
832.526	44.79
832.911	44.84
833.295	44.82
833.68	44.84
834.065	44.85
834.449	44.84
834.834	44.84
835.218	44.81
835.603	44.78
835.987	44.78
836.371	44.79
836.755	44.78
837.139	44.78
837.524	44.76
837.908	44.73
838.291	44.71
838.675	44.73
839.059	44.72
839.443	44.71
839.827	44.71
840.21	44.75
840.594	44.73
840.977	44.75
841.361	44.72
841.744	44.75
842.127	44.75
842.511	44.73
842.894	44.71
843.277	44.73
843.66	44.78
844.043	44.78
844.426	44.73
844.809	44.74
845.191	44.72
845.574	44.7
845.957	44.67
846.339	44.67
846.722	44.7
847.104	44.7
847.487	44.67
847.869	44.61
848.252	44.62
848.634	44.64
849.016	44.67
849.398	44.68
849.78	44.69
850.162	44.69
850.544	44.71
850.926	44.68
851.307	44.71
851.689	44.7
852.071	44.74
852.452	44.76
852.834	44.75
853.215	44.74
853.597	44.73
853.978	44.72
854.359	44.74
854.741	44.7
855.122	44.72
855.503	44.72
855.884	44.73
856.265	44.71
856.646	44.67
857.026	44.71
857.407	44.68
857.788	44.7
858.169	44.7
858.549	44.72
858.93	44.71
859.31	44.69
859.69	44.65
860.071	44.68
860.451	44.71
860.831	44.74
861.211	44.71
861.591	44.73
861.971	44.7
862.351	44.7
862.731	44.67
863.111	44.71
863.491	44.75
863.87	44.78
864.25	44.75
864.629	44.75
865.009	44.74
865.388	44.74
865.768	44.73
866.147	44.78
866.526	44.79
866.905	44.82
867.284	44.81
867.663	44.78
868.042	44.77
868.421	44.76
868.8	44.75
869.179	44.77
869.558	44.75
869.936	44.72
870.315	44.67
870.693	44.66
871.072	44.65
871.45	44.62
871.828	44.63
872.207	44.65
872.585	44.66
872.963	44.64
873.341	44.63
873.719	44.63
874.097	44.67
874.475	44.71
874.853	44.7
875.23	44.71
875.608	44.72
875.986	44.69
876.363	44.66
876.741	44.68
877.118	44.69
877.495	44.69
877.873	44.7
878.25	44.66
878.627	44.65
879.004	44.65
879.381	44.62
879.758	44.6
880.135	44.62
880.512	44.65
880.889	44.63
881.265	44.64
881.642	44.64
882.019	44.64
882.395	44.65
882.772	44.65
883.148	44.65
883.524	44.67
883.901	44.68
884.277	44.69
884.653	44.71
885.029	44.7
885.405	44.69
885.781	44.66
886.157	44.66
886.532	44.68
886.908	44.71
887.284	44.72
887.659	44.73
888.035	44.73
888.411	44.7
888.786	44.67
889.161	44.67
889.537	44.7
889.912	44.72
890.287	44.71
890.662	44.71
891.037	44.68
891.412	44.66
891.787	44.63
892.162	44.61
892.536	44.6
892.911	44.6
893.286	44.56
893.66	44.51
894.035	44.5
894.409	44.49
894.784	44.46
895.158	44.45
895.532	44.44
895.906	44.44
896.281	44.43
896.655	44.42
897.029	44.39
897.402	44.4
897.776	44.4
898.15	44.38
898.524	44.36
898.898	44.35
899.271	44.36
899.645	44.36
900.018	44.32
900.392	44.33
900.765	44.34
901.138	44.34
901.511	44.35
901.884	44.37
902.258	44.37
902.631	44.4
903.003	44.41
903.376	44.38
903.749	44.35
904.122	44.38
904.495	44.38
904.867	44.38
905.24	44.36
905.612	44.34
905.985	44.28
906.357	44.25
906.729	44.24
907.102	44.24
907.474	44.25
907.846	44.25
908.218	44.23
908.59	44.19
908.962	44.2
909.334	44.22
909.705	44.21
910.077	44.22
910.449	44.23
910.82	44.21
911.192	44.22
911.563	44.21
911.935	44.19
912.306	44.21
912.677	44.25
913.048	44.23
913.419	44.17
913.79	44.2
914.161	44.2
914.532	44.17
914.903	44.18
915.274	44.14
915.645	44.14
916.015	44.19
916.386	44.16
916.756	44.13
917.127	44.14
917.497	44.17
917.868	44.17
918.238	44.2
918.608	44.24
918.978	44.21
919.348	44.21
919.718	44.2
920.088	44.19
920.458	44.23
920.828	44.26
921.198	44.26
921.567	44.26
921.937	44.24
922.306	44.21
922.676	44.2
923.045	44.2
923.415	44.23
923.784	44.24
924.153	44.22
924.522	44.21
924.891	44.17
925.26	44.17
925.629	44.19
925.998	44.23
926.367	44.22
926.736	44.19
927.104	44.21
927.473	44.19
927.842	44.16
928.21	44.18
928.578	44.12
928.947	44.13
929.315	44.13
929.683	44.08
930.051	44.02
930.42	43.98
930.788	43.95
931.156	43.89
931.523	43.84
931.891	43.78
932.259	43.7
932.627	43.61
932.994	43.57
933.362	43.49
933.729	43.41
934.097	43.37
934.464	43.35
934.831	43.31
935.199	43.26
935.566	43.19
935.933	43.21
936.3	43.17
936.667	43.23
937.034	43.16
937.401	43.19
937.767	43.18
938.134	43.13
938.501	43.12
938.867	43.11
939.234	43.15
939.6	43.22
939.967	43.2
940.333	43.32
940.699	43.34
941.065	43.44
941.431	43.42
941.798	43.51
942.163	43.59
942.529	43.62
942.895	43.71
943.261	43.77
943.627	43.84
943.992	43.87
944.358	43.79
944.723	43.81
945.089	43.87
945.454	43.95
945.82	43.94
946.185	43.94
946.55	44.01
946.915	44.01
947.28	44.03
947.645	43.97
948.01	43.92
948.375	43.96
948.74	43.97
949.104	43.93
949.469	43.84
949.834	43.84
950.198	43.77
950.562	43.76
950.927	43.7
951.291	43.63
951.655	43.54
952.02	43.56
952.384	43.57
952.748	43.54
953.112	43.52
953.476	43.5
953.839	43.47
954.203	43.44
954.567	43.34
954.931	43.37
955.294	43.35
955.658	43.37
956.021	43.38
956.385	43.38
956.748	43.36
957.111	43.27
957.474	43.32
957.837	43.3
958.2	43.26
958.563	43.29
958.926	43.22
959.289	43.19
959.652	43.2
960.015	43.29
960.377	43.21
960.74	43.19
961.102	43.23
961.465	43.15
961.827	43.07
962.189	43.09
962.552	42.98
962.914	42.92
963.276	42.97
963.638	42.95
964	42.79
964.362	42.77
964.724	42.8
965.085	42.76
965.447	42.73
965.809	42.67
966.17	42.71
966.532	42.78
966.893	42.81
967.255	42.71
967.616	42.66
967.977	42.67
968.338	42.68
968.699	42.61
969.061	42.51
969.421	42.53
969.782	42.61
970.143	42.54
970.504	42.52
970.865	42.43
971.225	42.39
971.586	42.43
971.946	42.43
972.307	42.38
972.667	42.4
973.027	42.5
973.388	42.48
973.748	42.45
974.108	42.4
974.468	42.39
974.828	42.53
975.188	42.56
975.548	42.49
975.907	42.46
976.267	42.46
976.627	42.47
976.986	42.39
977.346	42.35
977.705	42.36
978.064	42.37
978.424	42.36
978.783	42.35
979.142	42.38
979.501	42.4
979.86	42.42
980.219	42.38
980.578	42.33
980.937	42.34
981.296	42.28
981.654	42.33
982.013	42.38
982.371	42.4
982.73	42.36
983.088	42.35
983.447	42.41
983.805	42.35
984.163	42.39
984.521	42.36
984.879	42.4
985.237	42.49
985.595	42.4
985.953	42.41
986.311	42.43
986.669	42.44
987.026	42.47
987.384	42.38
987.741	42.5
988.099	42.48
988.456	42.55
988.814	42.61
989.171	42.57
989.528	42.52
989.885	42.45
990.242	42.42
990.599	42.45
990.956	42.36
991.313	42.39
991.67	42.37
992.027	42.3
992.383	42.36
992.74	42.29
993.096	42.2
993.453	42.34
993.809	42.47
994.165	42.47
994.522	42.4
994.878	42.46
995.234	42.4
995.59	42.19
995.946	42.3
996.302	42.16
996.658	42.1
997.013	42.12
997.369	42.13
997.725	42.04
998.08	41.84
998.436	41.83
998.791	41.83
999.147	41.86
999.502	42.03
999.857	42.01
1000.212	42.04
1000.567	41.99
1000.922	42.03
1001.277	41.94
1001.632	42
1001.987	42.22
1002.342	42.34
1002.696	42.32
1003.051	42.19
1003.406	42.08
1003.76	42
1004.114	41.98
1004.469	42.09
1004.823	42.24
1005.177	42.37
1005.531	42.17
1005.885	42.16
1006.239	41.93
1006.593	41.88
1006.947	41.97
1007.301	42.06
1007.655	42.1
1008.008	41.95
1008.362	41.96
1008.715	41.82
1009.069	41.62
1009.422	41.7
1009.776	41.75
1010.129	41.64
1010.482	41.87
1010.835	41.96
1011.188	41.92
1011.541	41.76
1011.894	41.76
1012.247	41.58
1012.6	41.48
1012.952	41.38
1013.305	41.26
1013.657	41.13
1014.01	41.41
1014.362	41.18
1014.715	40.99
1015.067	41.05
1015.419	41.23
1015.771	41.44
1016.123	41.56
1016.475	41.6
1016.827	41.8
1017.179	41.9
1017.531	41.98
1017.883	41.97
1018.234	41.93
1018.586	42.03
1018.938	41.87
1019.289	41.93
1019.64	42.11
1019.992	41.93
1020.343	42.01
1020.694	41.86
1021.045	41.96
1021.396	41.83
1021.747	41.79
1022.098	42.02
1022.449	42.08
1022.8	42.03
1023.151	41.93
1023.501	41.72
1023.852	41.84
1024.202	41.76
1024.553	41.77
1024.903	41.71
1025.253	41.71
1025.604	41.56
1025.954	41.25
1026.304	41.54
1026.654	41.78
1027.004	42.02
1027.354	41.73
1027.703	41.59
1028.053	41.25
1028.403	40.95
1028.753	41.07
1029.102	41.16
1029.452	41.36
1029.801	41.51
1030.15	41.05
1030.499	40.78
897.758	576.31
901.051	582
904.343	587.71
907.636	577.43
910.928	567.94
914.22	578.43
917.511	566.94
920.803	539.22
924.094	517.27
927.384	520.9
930.675	507.65
933.965	502.01
937.255	504.49
940.544	481.84
943.834	458.68
947.123	450.58
950.411	427.7
953.7	420.04
956.988	406.51
960.276	387.33
963.563	383.34
966.851	362.15
970.138	355.36
973.424	330.03
976.711	327.53
979.997	319.14
983.283	311.68
986.568	300.2
989.853	291.9
993.138	282.98
996.423	279.02
999.708	270.96
1002.992	271.12
1006.275	263.82
1009.559	261.19
1012.842	252.61
1016.125	243.11
1019.408	239.47
1022.69	237.44
1025.972	234.15
1029.254	229.15
1032.536	225.81
1035.817	218.09
1039.098	214.3
1042.379	209.49
1045.659	206.27
1048.939	203.82
1052.219	201.1
1055.498	196.97
1058.778	193.03
1062.057	190.65
1065.335	189.24
1068.614	185.86
1071.892	183.34
1075.17	179.41
1078.447	177.5
1081.724	176.39
1085.001	172.59
1088.278	171.56
1091.554	171.8
1094.83	170.5
1098.106	167.09
1101.382	165.38
1104.657	165.55
1107.932	164.74
1111.206	164.89
1114.481	162.47
1117.755	160.59
1121.029	160.56
1124.302	159.18
1127.575	155.74
1130.848	155.65
1134.121	153.39
1137.393	153.79
1140.665	151.18
1143.937	149.66
1147.208	147.79
1150.48	146.39
1153.75	145.54
1157.021	144.17
1160.291	143.52
1163.561	143.35
1166.831	142.52
1170.101	142.57
1173.37	140.83
1176.639	140.13
1179.907	139.8
1183.176	139.25
1186.444	139.2
1189.711	138.77
1192.979	139.68
1196.246	139.83
1199.513	139.25
1202.78	138.87
1206.046	139.14
1209.312	140.42
1212.578	140.89
1215.843	143.48
1219.108	144.15
1222.373	146.85
1225.638	148.8
1228.902	151.91
1232.166	156.36
1235.43	159.1
1238.693	163.34
1241.956	167.52
1245.219	171.44
1248.482	172.92
1251.744	172.45
1255.006	172.14
1258.268	168.53
1261.529	167.63
1264.79	163.25
1268.051	159.92
1271.312	157.69
1274.572	154.72
1277.832	150.07
1281.092	148.12
1284.351	145.16
1287.61	144.59
1290.869	144.9
1294.128	143.6
1297.386	142.7
1300.644	141.94
1303.902	141.46
1307.159	140.06
1310.416	140.87
1313.673	143.73
1316.93	144.15
1320.186	146.39
1323.442	148.27
1326.697	150.76
1329.953	152.04
1333.208	157.75
1336.463	164.18
1339.717	167.02
1342.972	176.45
1346.226	181.55
1349.479	182
1352.733	190.54
1355.986	194.62
1359.238	198.33
1362.491	199.51
1365.743	208.05
1368.995	209.6
1372.247	207.82
1375.498	206.73
1378.749	212.48
1382	211.43
1385.251	211.99
1388.501	211
1391.751	213.28
1395	212.05
1398.25	214.1
1401.499	212.04
1404.748	209.93
1407.996	208.67
1411.244	208.34
1414.492	204.75
1417.74	199.64
1420.987	194.96
1424.234	191.18
1427.481	184.64
1430.728	180.27
1433.974	173.94
1437.22	167.89
1440.465	162.42
1443.711	156.8
1446.956	152.33
1450.201	146.34
1453.445	139.84
1456.689	135.05
1459.933	130.66
1463.177	125.22
1466.42	122.59
1469.663	118.63
1472.906	115.48
1476.148	111.88
1479.391	109.41
1482.633	107.76
1485.874	105.8
1489.115	104.53
1492.356	103.12
1495.597	101.73
1498.838	100.71
1502.078	99.38
1505.318	99.19
1508.557	98.74
1511.797	98.26
1515.036	98.12
1518.274	97.08
1521.513	96.57
1524.751	96.09
1527.989	96.38
1531.227	95.97
1534.464	96.29
1537.701	96.08
1540.938	95.5
1544.174	95.11
1547.41	94.96
1550.646	94.27
1553.882	94.2
1557.117	93.52
1560.352	93.63
1563.587	92.94
1566.821	92.85
1570.055	92.12
1573.289	91.66
1576.523	92.09
1579.756	92.32
1582.989	92.47
1586.222	92.13
1589.454	92.18
1592.686	91.97
1595.918	91.51
1599.15	91.28
1602.381	91.92
1605.612	92.13
1608.843	91.8
1612.073	92.26
1615.303	91.79
1618.533	91.6
1621.762	92.32
1624.992	92.1
1628.221	92.14
1631.449	92.49
1634.678	92.87
1637.906	92.41
1641.134	92.71
1644.361	92.96
1647.588	92.23
1650.815	92.79
1654.042	92.95
1657.269	92.47
1660.495	93.24
1663.72	93.42
1666.946	93.67
1670.171	94.14
1673.396	94.4
1676.621	94.53
1679.845	94.54
1683.069	95.29
1686.293	94.45
1689.517	94.69
1692.74	95.27
1695.963	95.04
1699.185	95.56
1702.408	95.3
1705.63	94.95
1708.852	95.76
1712.073	95.45
1715.294	95.6
1718.515	95.56
1721.736	96.32
1724.956	96.71
1728.176	96.56
1731.396	97
1734.616	97.06
1737.835	97.28
1741.054	97.94
1744.272	97.16
1747.491	97.33
1750.709	98.49
1753.927	98.56
1757.144	98.87
1760.361	98.61
1763.578	98.7
1766.795	99.34
1770.011	98.63
1773.227	99.28
1776.443	99.8
1779.658	100.12
1782.874	101.04
1786.089	100.58
1789.303	100.92
1792.518	101.71
1795.732	102.34
1798.945	103.7
1802.159	103.67
1805.372	105.73
1808.585	106.2
1811.797	106.77
1815.01	108.05
1818.222	108.67
1821.434	109.23
1824.645	110.02
1827.856	111.14
1831.067	111.41
1834.278	113.23
1837.488	114.19
1840.698	115.02
1843.908	115.39
1847.117	116.72
1850.326	117.03
1853.535	118.4
1856.744	119.62
1859.952	120.55
1863.16	120.87
1866.368	119.66
1869.575	119.81
1872.782	120.06
1875.989	118.7
1879.196	117.76
1882.402	117.19
1885.608	118.48
1888.814	117.02
1892.019	118.48
1895.224	116.61
1898.429	116.83
1901.634	118.92
1904.838	118.5
1908.042	118.19
1911.246	118.92
1914.449	121.03
1917.652	119.88
1920.855	119.26
1924.058	119.01
1927.26	117.85
1930.462	118.85
1933.664	118.46
1936.865	118.25
1940.066	115.98
1943.267	116.27
1946.467	117.99
1949.668	118.03
1952.868	118.29
1956.067	118.16
1959.267	118.59
1962.466	119.1
1965.665	121.1
1968.863	122.02
1972.061	122.98
1975.259	126.6
1978.457	127.09
1981.654	127.09
1984.852	128.16
1988.048	129.93
1991.245	132.04
1994.441	134.12
1997.637	137.11
2000.833	139.74
2004.028	140.41
2007.223	146.54
2010.418	149.21
2013.613	155.96
2016.807	160.29
2020.001	163.29
2023.194	168.62
2026.388	174.04
2029.581	182.95
2032.774	188.74
2035.966	193.36
2039.158	200.69
2042.35	200.71
2045.542	204.73
2048.733	210.97
2051.924	213.68
2055.115	216.19
2058.306	216.94
2061.496	220.97
2064.686	221.39
2067.875	219.27
2071.065	221.22
2074.254	222.01
2077.442	229.38
2080.631	230.42
2083.819	232.76
2087.007	236.23
2090.195	242.3
2093.382	242.22
2096.569	242.47
2099.756	248.46
2102.942	254.74
2106.128	260.24
2109.314	260.03
2112.5	260.03
2115.685	260.13
2118.87	259.54
2122.055	263.44
2125.239	266.74
2128.424	274.64
2131.608	270.81
2134.791	269.16
2137.974	271.32
2141.157	272.99
2144.34	278.48
2147.523	281.14
2150.705	288.06
2153.887	285.25
2157.068	285.94
2160.25	289.38
2163.431	288.12
2166.611	294.62
2169.792	299.21
2172.972	302.79
2176.152	304.38
2179.331	309.11
2182.511	310.37
2185.69	315.04
2188.868	326.61
2192.047	334.68
2195.225	338.85
2198.403	344.05
2201.58	341.28
2204.758	356.71
2207.935	357.68
2211.111	365.21
2214.288	366.66
2217.464	371.89
2220.64	371.32
2223.815	373.96
2226.991	367.39
2230.166	372.61
2233.34	382.45
2236.515	392.69
2239.689	380.14
2242.863	389.21
2246.036	384.13
2249.209	395.27
2252.382	393.21
2255.555	408.57
2258.727	410.63
2261.9	429.12
2265.071	429.62
2268.243	424.27
2271.414	441.32
2274.585	451.93
2277.756	451.56
2280.926	470.04
2284.096	469.49
2287.266	472.54
2290.436	464.27
2293.605	474.98
2296.774	489.72
2299.942	491.69
2303.111	511.91
2306.279	516.14
2309.447	520.31
2312.614	521.19
2315.781	532.83
2318.948	538.5
2322.115	551.27
2325.281	579.46
2328.447	571.4
2331.613	569.65
2334.779	580.08
2337.944	583.04
2341.109	594.06
2344.274	600.23
2347.438	616.06
2350.602	626.35
2353.766	663.8
2356.929	666.8
2360.092	676.05
2363.255	685.68
2366.418	694.26
2369.58	705.7
2372.742	709.44
2375.904	707.35
2379.066	728.11
2382.227	767
2385.388	766.81
2388.548	729.74
2391.709	720.08
2394.869	741.23
2398.029	742.07
2401.188	737.72
2404.347	762.91
2407.506	788.03
2410.665	760.45
2413.823	764.95
2416.981	766.51
2420.139	725.62
2423.296	793.93
2426.453	842.84
2429.61	804.74
2432.767	860.87
2435.923	901.73
2439.079	859.08
2442.235	877.67
2445.391	897.83
2448.546	887.14
2451.701	934.34
2454.855	1001.49
2458.009	879.04
2461.163	896.4
2464.317	901.63
2467.471	878.91
2470.624	907.11
2473.777	901.7
2476.929	866.25
2480.082	924.31
2483.234	971.14
2486.385	980.55
2489.537	1006.46
2492.688	1108.6
2495.839	1089.59
2498.989	1124.42
2502.14	1130.04
2505.29	1076.72
2508.439	1186.31
2511.589	1223.96
2514.738	1195.06
2517.887	1180.72
2521.035	1107.97
2524.183	1082.3
2527.331	1074.74
2530.479	1050.72
2533.627	1071.86
