Data from N_2_dec_oh_4n_045_Splice17_15.txt Node
Date: Sat Feb 29 13:54:55 EST 2020
User: sa697716
Spectrometer: FLMS03696
Trigger mode: 0
Integration Time (sec): 3.180400E-1
Scans to average: 20
Electric dark correction enabled: true
Nonlinearity correction enabled: true
Boxcar width: 5
XAxis mode: Wavelengths
Number of Pixels in Spectrum: 2048
>>>>>Begin Spectral Data<<<<<
187.83	103.39
188.298	92.34
188.766	82.91
189.233	85.32
189.701	91.81
190.169	90.49
190.636	78.84
191.104	57.97
191.571	-57.7
192.039	-57.36
192.506	519.02
192.974	5953
193.441	-132.92
193.908	59.82
194.375	102.75
194.842	57.34
195.31	37.47
195.777	-16.82
196.244	8.02
196.711	21.01
197.177	21.07
197.644	24
198.111	24.59
198.578	24.99
199.045	25.64
199.511	26.19
199.978	27.1
200.445	26.94
200.911	27.39
201.378	27.33
201.844	27.99
202.31	28.81
202.777	28.71
203.243	29.38
203.709	29.92
204.176	29.66
204.642	29.36
205.108	29.49
205.574	29.83
206.04	29.88
206.506	29.81
206.972	29.56
207.438	29.15
207.903	29.41
208.369	28.61
208.835	27.96
209.301	27.93
209.766	27.64
210.232	27.54
210.697	27.42
211.163	27.26
211.628	27.17
212.094	26.72
212.559	26.27
213.024	25.79
213.49	25.53
213.955	25.44
214.42	24.96
214.885	24.48
215.35	23.52
215.815	22.42
216.28	21.26
216.745	20.37
217.21	19.3
217.675	18.17
218.14	17.12
218.604	16.22
219.069	15.37
219.534	14.71
219.998	14.13
220.463	13.69
220.927	13.29
221.392	12.95
221.856	12.57
222.32	12.32
222.785	12.08
223.249	11.84
223.713	11.64
224.177	11.46
224.642	11.29
225.106	11.16
225.57	10.97
226.034	10.83
226.497	10.63
226.961	10.5
227.425	10.3
227.889	10.16
228.353	10.03
228.816	9.91
229.28	9.76
229.744	9.61
230.207	9.46
230.671	9.35
231.134	9.22
231.597	9.11
232.061	8.98
232.524	8.9
232.987	8.79
233.45	8.67
233.914	8.57
234.377	8.48
234.84	8.39
235.303	8.29
235.766	8.2
236.229	8.1
236.691	8.04
237.154	7.96
237.617	7.88
238.08	7.81
238.542	7.72
239.005	7.64
239.468	7.56
239.93	7.48
240.393	7.42
240.855	7.35
241.317	7.29
241.78	7.22
242.242	7.15
242.704	7.08
243.166	7.01
243.629	6.96
244.091	6.9
244.553	6.85
245.015	6.79
245.477	6.72
245.939	6.65
246.4	6.59
246.862	6.54
247.324	6.5
247.786	6.44
248.247	6.4
248.709	6.34
249.17	6.31
249.632	6.26
250.093	6.21
250.555	6.17
251.016	6.14
251.477	6.09
251.939	6.05
252.4	6
252.861	5.97
253.322	5.93
253.783	5.91
254.244	5.87
254.705	5.83
255.166	5.81
255.627	5.79
256.088	5.75
256.549	5.72
257.009	5.68
257.47	5.65
257.931	5.62
258.391	5.58
258.852	5.54
259.312	5.5
259.773	5.47
260.233	5.44
260.694	5.4
261.154	5.37
261.614	5.34
262.074	5.31
262.534	5.28
262.994	5.25
263.455	5.22
263.915	5.2
264.374	5.16
264.834	5.13
265.294	5.1
265.754	5.09
266.214	5.06
266.673	5.04
267.133	5.01
267.593	4.99
268.052	4.97
268.512	4.95
268.971	4.93
269.431	4.92
269.89	4.91
270.349	4.89
270.809	4.87
271.268	4.87
271.727	4.85
272.186	4.84
272.645	4.82
273.104	4.82
273.563	4.8
274.022	4.79
274.481	4.77
274.94	4.75
275.399	4.73
275.857	4.72
276.316	4.7
276.775	4.68
277.233	4.66
277.692	4.65
278.15	4.63
278.609	4.6
279.067	4.59
279.525	4.57
279.984	4.56
280.442	4.55
280.9	4.54
281.358	4.53
281.816	4.52
282.274	4.5
282.732	4.48
283.19	4.48
283.648	4.47
284.106	4.46
284.564	4.46
285.021	4.45
285.479	4.43
285.937	4.41
286.394	4.38
286.852	4.37
287.309	4.36
287.767	4.35
288.224	4.33
288.682	4.32
289.139	4.31
289.596	4.29
290.053	4.26
290.511	4.24
290.968	4.23
291.425	4.22
291.882	4.21
292.339	4.2
292.796	4.18
293.252	4.17
293.709	4.15
294.166	4.13
294.623	4.11
295.079	4.11
295.536	4.09
295.992	4.08
296.449	4.07
296.905	4.05
297.362	4.03
297.818	4.02
298.274	4.01
298.731	4
299.187	3.99
299.643	3.99
300.099	3.98
300.555	3.97
301.011	3.97
301.467	3.96
301.923	3.95
302.379	3.94
302.835	3.93
303.291	3.92
303.746	3.91
304.202	3.89
304.658	3.88
305.113	3.86
305.569	3.86
306.024	3.84
306.479	3.84
306.935	3.83
307.39	3.83
307.845	3.82
308.301	3.82
308.756	3.83
309.211	3.84
309.666	3.84
310.121	3.84
310.576	3.84
311.031	3.84
311.486	3.84
311.94	3.84
312.395	3.84
312.85	3.83
313.305	3.82
313.759	3.82
314.214	3.81
314.668	3.81
315.123	3.81
315.577	3.8
316.032	3.79
316.486	3.78
316.94	3.76
317.394	3.75
317.849	3.75
318.303	3.74
318.757	3.72
319.211	3.69
319.665	3.67
320.119	3.66
320.572	3.65
321.026	3.63
321.48	3.64
321.934	3.63
322.387	3.63
322.841	3.62
323.295	3.62
323.748	3.62
324.202	3.62
324.655	3.62
325.108	3.61
325.562	3.6
326.015	3.59
326.468	3.57
326.921	3.56
327.374	3.56
327.827	3.55
328.28	3.54
328.733	3.52
329.186	3.52
329.639	3.52
330.092	3.51
330.545	3.51
330.997	3.51
331.45	3.51
331.903	3.5
332.355	3.5
332.808	3.49
333.26	3.49
333.713	3.5
334.165	3.49
334.617	3.49
335.069	3.49
335.522	3.5
335.974	3.5
336.426	3.51
336.878	3.5
337.33	3.49
337.782	3.49
338.234	3.5
338.686	3.49
339.137	3.49
339.589	3.49
340.041	3.48
340.493	3.47
340.944	3.45
341.396	3.44
341.847	3.43
342.299	3.42
342.75	3.4
343.201	3.4
343.653	3.38
344.104	3.37
344.555	3.35
345.006	3.34
345.457	3.33
345.908	3.32
346.359	3.33
346.81	3.33
347.261	3.33
347.712	3.33
348.163	3.32
348.613	3.3
349.064	3.3
349.515	3.29
349.965	3.28
350.416	3.29
350.866	3.28
351.317	3.27
351.767	3.27
352.217	3.25
352.668	3.26
353.118	3.27
353.568	3.27
354.018	3.28
354.468	3.28
354.918	3.29
355.368	3.29
355.818	3.3
356.268	3.3
356.718	3.29
357.168	3.29
357.617	3.28
358.067	3.27
358.517	3.28
358.966	3.28
359.416	3.29
359.865	3.28
360.315	3.27
360.764	3.27
361.213	3.26
361.663	3.27
362.112	3.27
362.561	3.28
363.01	3.29
363.459	3.29
363.908	3.29
364.357	3.28
364.806	3.29
365.255	3.3
365.703	3.3
366.152	3.3
366.601	3.31
367.05	3.32
367.498	3.32
367.947	3.31
368.395	3.32
368.844	3.32
369.292	3.32
369.74	3.33
370.189	3.32
370.637	3.33
371.085	3.34
371.533	3.33
371.981	3.34
372.429	3.33
372.877	3.33
373.325	3.32
373.773	3.33
374.221	3.33
374.669	3.34
375.116	3.34
375.564	3.34
376.012	3.35
376.459	3.36
376.907	3.37
377.354	3.37
377.801	3.39
378.249	3.41
378.696	3.42
379.143	3.43
379.591	3.43
380.038	3.44
380.485	3.45
380.932	3.46
381.379	3.46
381.826	3.46
382.273	3.47
382.72	3.47
383.166	3.48
383.613	3.48
384.06	3.5
384.506	3.51
384.953	3.52
385.4	3.52
385.846	3.52
386.292	3.53
386.739	3.54
387.185	3.55
387.631	3.55
388.078	3.57
388.524	3.57
388.97	3.58
389.416	3.58
389.862	3.59
390.308	3.6
390.754	3.61
391.2	3.63
391.645	3.65
392.091	3.67
392.537	3.69
392.983	3.7
393.428	3.72
393.874	3.75
394.319	3.77
394.765	3.79
395.21	3.79
395.655	3.82
396.101	3.83
396.546	3.83
396.991	3.85
397.436	3.86
397.881	3.87
398.326	3.9
398.771	3.89
399.216	3.9
399.661	3.92
400.106	3.95
400.551	3.94
400.995	3.95
401.44	3.95
401.885	3.95
402.329	3.96
402.774	3.97
403.218	3.97
403.663	3.97
404.107	3.98
404.551	3.99
404.995	3.99
405.44	3.99
405.884	4
406.328	4
406.772	4.01
407.216	4.01
407.66	4.01
408.104	4.01
408.547	4.02
408.991	4.02
409.435	4.01
409.879	4.03
410.322	4.04
410.766	4.05
411.209	4.06
411.653	4.06
412.096	4.07
412.54	4.08
412.983	4.1
413.426	4.12
413.869	4.14
414.312	4.17
414.756	4.18
415.199	4.18
415.642	4.21
416.085	4.23
416.527	4.25
416.97	4.26
417.413	4.25
417.856	4.24
418.298	4.24
418.741	4.23
419.184	4.22
419.626	4.2
420.069	4.21
420.511	4.19
420.953	4.19
421.396	4.19
421.838	4.21
422.28	4.24
422.722	4.26
423.164	4.26
423.606	4.29
424.048	4.28
424.49	4.28
424.932	4.28
425.374	4.29
425.816	4.28
426.258	4.26
426.699	4.22
427.141	4.21
427.582	4.19
428.024	4.19
428.465	4.18
428.907	4.2
429.348	4.2
429.789	4.21
430.231	4.2
430.672	4.23
431.113	4.26
431.554	4.28
431.995	4.28
432.436	4.29
432.877	4.28
433.318	4.3
433.759	4.32
434.2	4.34
434.64	4.35
435.081	4.36
435.522	4.37
435.962	4.37
436.403	4.39
436.843	4.39
437.284	4.41
437.724	4.43
438.164	4.42
438.604	4.41
439.045	4.42
439.485	4.43
439.925	4.44
440.365	4.42
440.805	4.43
441.245	4.43
441.685	4.45
442.125	4.45
442.564	4.46
443.004	4.47
443.444	4.47
443.883	4.49
444.323	4.47
444.762	4.48
445.202	4.52
445.641	4.52
446.081	4.55
446.52	4.54
446.959	4.55
447.398	4.59
447.837	4.6
448.276	4.62
448.716	4.62
449.154	4.65
449.593	4.66
450.032	4.66
450.471	4.67
450.91	4.66
451.349	4.69
451.787	4.67
452.226	4.65
452.664	4.63
453.103	4.63
453.541	4.63
453.98	4.61
454.418	4.6
454.856	4.57
455.295	4.56
455.733	4.55
456.171	4.54
456.609	4.54
457.047	4.54
457.485	4.55
457.923	4.54
458.361	4.53
458.798	4.54
459.236	4.53
459.674	4.53
460.111	4.55
460.549	4.54
460.987	4.52
461.424	4.51
461.862	4.51
462.299	4.5
462.736	4.5
463.173	4.5
463.611	4.5
464.048	4.5
464.485	4.51
464.922	4.5
465.359	4.52
465.796	4.53
466.233	4.56
466.67	4.56
467.106	4.57
467.543	4.59
467.98	4.59
468.416	4.59
468.853	4.58
469.29	4.57
469.726	4.58
470.162	4.57
470.599	4.59
471.035	4.58
471.471	4.58
471.907	4.57
472.344	4.55
472.78	4.56
473.216	4.55
473.652	4.55
474.088	4.58
474.523	4.56
474.959	4.54
475.395	4.53
475.831	4.52
476.266	4.5
476.702	4.5
477.138	4.48
477.573	4.45
478.008	4.45
478.444	4.42
478.879	4.38
479.314	4.38
479.75	4.38
480.185	4.37
480.62	4.36
481.055	4.35
481.49	4.34
481.925	4.33
482.36	4.33
482.795	4.31
483.229	4.32
483.664	4.32
484.099	4.31
484.534	4.3
484.968	4.3
485.403	4.3
485.837	4.3
486.271	4.3
486.706	4.3
487.14	4.31
487.574	4.31
488.009	4.31
488.443	4.31
488.877	4.31
489.311	4.32
489.745	4.33
490.179	4.34
490.613	4.34
491.046	4.37
491.48	4.39
491.914	4.4
492.348	4.42
492.781	4.43
493.215	4.45
493.648	4.48
494.082	4.52
494.515	4.54
494.948	4.54
495.382	4.56
495.815	4.58
496.248	4.61
496.681	4.65
497.114	4.68
497.547	4.71
497.98	4.75
498.413	4.79
498.846	4.82
499.279	4.88
499.711	4.93
500.144	4.99
500.577	5.04
501.009	5.09
501.442	5.15
501.874	5.22
502.306	5.28
502.739	5.36
503.171	5.44
503.603	5.51
504.036	5.61
504.468	5.71
504.9	5.82
505.332	5.94
505.764	6.05
506.196	6.19
506.627	6.31
507.059	6.44
507.491	6.58
507.923	6.73
508.354	6.9
508.786	7.05
509.217	7.2
509.649	7.38
510.08	7.56
510.512	7.74
510.943	7.93
511.374	8.13
511.805	8.35
512.237	8.57
512.668	8.78
513.099	9.02
513.53	9.27
513.961	9.51
514.391	9.75
514.822	9.99
515.253	10.25
515.684	10.52
516.114	10.81
516.545	11.09
516.975	11.38
517.406	11.68
517.836	11.96
518.267	12.26
518.697	12.59
519.127	12.9
519.558	13.22
519.988	13.54
520.418	13.84
520.848	14.14
521.278	14.45
521.708	14.78
522.138	15.06
522.567	15.35
522.997	15.64
523.427	15.91
523.857	16.16
524.286	16.43
524.716	16.68
525.145	16.94
525.575	17.19
526.004	17.44
526.433	17.67
526.863	17.92
527.292	18.16
527.721	18.4
528.15	18.59
528.579	18.81
529.008	19.01
529.437	19.21
529.866	19.39
530.295	19.57
530.724	19.75
531.152	19.91
531.581	20.03
532.01	20.17
532.438	20.28
532.867	20.42
533.295	20.55
533.723	20.66
534.152	20.75
534.58	20.84
535.008	20.91
535.436	20.96
535.865	21.01
536.293	21.1
536.721	21.18
537.149	21.24
537.576	21.3
538.004	21.35
538.432	21.41
538.86	21.47
539.287	21.53
539.715	21.6
540.143	21.65
540.57	21.72
540.998	21.76
541.425	21.8
541.852	21.85
542.28	21.88
542.707	21.93
543.134	21.96
543.561	21.99
543.988	22.01
544.415	22.03
544.842	22.07
545.269	22.1
545.696	22.11
546.123	22.13
546.549	22.14
546.976	22.19
547.403	22.2
547.829	22.22
548.256	22.23
548.682	22.26
549.108	22.29
549.535	22.33
549.961	22.33
550.387	22.33
550.813	22.33
551.24	22.34
551.666	22.32
552.092	22.32
552.518	22.3
552.943	22.3
553.369	22.28
553.795	22.22
554.221	22.16
554.646	22.12
555.072	22.06
555.498	22
555.923	21.93
556.349	21.84
556.774	21.74
557.199	21.67
557.625	21.56
558.05	21.45
558.475	21.34
558.9	21.24
559.325	21.11
559.75	20.98
560.175	20.87
560.6	20.72
561.025	20.59
561.449	20.45
561.874	20.29
562.299	20.14
562.723	19.98
563.148	19.82
563.572	19.65
563.997	19.5
564.421	19.32
564.846	19.12
565.27	18.95
565.694	18.78
566.118	18.59
566.542	18.41
566.966	18.22
567.39	18.04
567.814	17.84
568.238	17.64
568.662	17.43
569.086	17.24
569.509	17.06
569.933	16.87
570.357	16.65
570.78	16.47
571.204	16.28
571.627	16.1
572.05	15.92
572.474	15.77
572.897	15.61
573.32	15.45
573.743	15.29
574.166	15.14
574.589	14.99
575.012	14.85
575.435	14.69
575.858	14.57
576.281	14.44
576.704	14.31
577.126	14.19
577.549	14.08
577.972	13.95
578.394	13.84
578.817	13.72
579.239	13.62
579.661	13.51
580.084	13.41
580.506	13.3
580.928	13.2
581.35	13.11
581.772	13.03
582.194	12.93
582.616	12.86
583.038	12.78
583.46	12.72
583.882	12.65
584.303	12.58
584.725	12.52
585.147	12.45
585.568	12.37
585.99	12.29
586.411	12.21
586.833	12.15
587.254	12.09
587.675	12.04
588.096	11.98
588.518	11.91
588.939	11.86
589.36	11.8
589.781	11.77
590.202	11.73
590.623	11.68
591.043	11.64
591.464	11.59
591.885	11.55
592.305	11.5
592.726	11.46
593.147	11.42
593.567	11.38
593.987	11.35
594.408	11.31
594.828	11.27
595.248	11.24
595.669	11.22
596.089	11.17
596.509	11.13
596.929	11.09
597.349	11.05
597.769	11
598.189	10.97
598.608	10.93
599.028	10.88
599.448	10.84
599.867	10.79
600.287	10.75
600.706	10.71
601.126	10.66
601.545	10.62
601.965	10.59
602.384	10.55
602.803	10.48
603.222	10.41
603.641	10.37
604.061	10.31
604.48	10.27
604.898	10.21
605.317	10.14
605.736	10.08
606.155	10.01
606.574	9.94
606.992	9.86
607.411	9.8
607.829	9.7
608.248	9.65
608.666	9.57
609.085	9.49
609.503	9.4
609.921	9.33
610.339	9.26
610.758	9.18
611.176	9.1
611.594	9.04
612.012	8.98
612.43	8.97
612.847	8.89
613.265	8.83
613.683	8.76
614.101	8.71
614.518	8.66
614.936	8.6
615.353	8.54
615.771	8.49
616.188	8.45
616.606	8.39
617.023	8.32
617.44	8.26
617.857	8.21
618.274	8.18
618.691	8.13
619.108	8.09
619.525	8.06
619.942	8.03
620.359	8.01
620.776	7.97
621.192	7.94
621.609	7.92
622.026	7.9
622.442	7.89
622.859	7.86
623.275	7.85
623.691	7.82
624.108	7.8
624.524	7.78
624.94	7.77
625.356	7.76
625.772	7.75
626.188	7.75
626.604	7.74
627.02	7.72
627.436	7.71
627.852	7.7
628.268	7.68
628.683	7.67
629.099	7.68
629.514	7.65
629.93	7.64
630.345	7.62
630.761	7.58
631.176	7.56
631.591	7.55
632.007	7.51
632.422	7.49
632.837	7.47
633.252	7.42
633.667	7.37
634.082	7.33
634.497	7.26
634.911	7.21
635.326	7.15
635.741	7.09
636.155	7.02
636.57	6.95
636.984	6.87
637.399	6.79
637.813	6.71
638.228	6.63
638.642	6.56
639.056	6.49
639.47	6.4
639.884	6.34
640.298	6.26
640.712	6.18
641.126	6.11
641.54	6.03
641.954	5.98
642.368	5.91
642.781	5.86
643.195	5.77
643.609	5.69
644.022	5.64
644.436	5.57
644.849	5.52
645.262	5.47
645.676	5.42
646.089	5.36
646.502	5.29
646.915	5.25
647.328	5.2
647.741	5.17
648.154	5.15
648.567	5.13
648.98	5.11
649.393	5.08
649.805	5.04
650.218	5.02
650.631	5.01
651.043	4.98
651.456	4.97
651.868	4.94
652.28	4.93
652.693	4.89
653.105	4.85
653.517	4.83
653.929	4.81
654.341	4.8
654.753	4.76
655.165	4.74
655.577	4.7
655.989	4.66
656.401	4.63
656.813	4.6
657.224	4.57
657.636	4.55
658.047	4.51
658.459	4.47
658.87	4.43
659.282	4.42
659.693	4.39
660.104	4.38
660.515	4.36
660.926	4.34
661.338	4.32
661.749	4.3
662.159	4.27
662.57	4.25
662.981	4.23
663.392	4.21
663.803	4.19
664.213	4.17
664.624	4.15
665.035	4.13
665.445	4.13
665.855	4.13
666.266	4.12
666.676	4.12
667.086	4.12
667.497	4.12
667.907	4.12
668.317	4.12
668.727	4.13
669.137	4.13
669.547	4.16
669.956	4.16
670.366	4.18
670.776	4.19
671.186	4.21
671.595	4.24
672.005	4.26
672.414	4.3
672.824	4.34
673.233	4.37
673.642	4.4
674.052	4.42
674.461	4.44
674.87	4.47
675.279	4.48
675.688	4.51
676.097	4.54
676.506	4.57
676.915	4.6
677.323	4.62
677.732	4.64
678.141	4.67
678.549	4.72
678.958	4.76
679.366	4.79
679.775	4.84
680.183	4.89
680.592	4.93
681	4.96
681.408	5
681.816	5.04
682.224	5.08
682.632	5.16
683.04	5.21
683.448	5.27
683.856	5.34
684.264	5.41
684.671	5.49
685.079	5.58
685.487	5.69
685.894	5.8
686.302	5.92
686.709	6.08
687.116	6.25
687.524	6.44
687.931	6.66
688.338	6.89
688.745	7.15
689.152	7.44
689.559	7.75
689.966	8.08
690.373	8.47
690.78	8.88
691.187	9.31
691.593	9.76
692	10.24
692.407	10.74
692.813	11.29
693.22	11.85
693.626	12.43
694.032	13.05
694.439	13.7
694.845	14.33
695.251	15
695.657	15.67
696.063	16.37
696.469	17.08
696.875	17.8
697.281	18.49
697.687	19.23
698.093	19.97
698.498	20.71
698.904	21.45
699.31	22.2
699.715	22.97
700.12	23.73
700.526	24.46
700.931	25.2
701.337	25.95
701.742	26.71
702.147	27.47
702.552	28.22
702.957	28.94
703.362	29.68
703.767	30.4
704.172	31.12
704.577	31.82
704.981	32.56
705.386	33.25
705.791	33.96
706.195	34.65
706.6	35.32
707.004	35.98
707.408	36.67
707.813	37.32
708.217	37.96
708.621	38.62
709.025	39.3
709.43	39.92
709.834	40.59
710.237	41.19
710.641	41.85
711.045	42.47
711.449	43.09
711.853	43.7
712.256	44.35
712.66	45
713.064	45.61
713.467	46.18
713.87	46.8
714.274	47.41
714.677	48.02
715.08	48.55
715.484	49.14
715.887	49.71
716.29	50.27
716.693	50.8
717.096	51.3
717.499	51.81
717.901	52.32
718.304	52.79
718.707	53.24
719.109	53.73
719.512	54.23
719.915	54.72
720.317	55.2
720.719	55.62
721.122	56.04
721.524	56.53
721.926	56.96
722.328	57.42
722.731	57.85
723.133	58.29
723.535	58.7
723.937	59.08
724.338	59.41
724.74	59.76
725.142	60.16
725.544	60.49
725.945	60.82
726.347	61.18
726.748	61.44
727.15	61.74
727.551	62.03
727.952	62.27
728.354	62.6
728.755	62.89
729.156	63.18
729.557	63.43
729.958	63.73
730.359	63.94
730.76	64.12
731.161	64.37
731.562	64.57
731.962	64.78
732.363	64.98
732.763	65.2
733.164	65.34
733.564	65.5
733.965	65.65
734.365	65.78
734.766	65.98
735.166	66.13
735.566	66.24
735.966	66.37
736.366	66.48
736.766	66.62
737.166	66.72
737.566	66.84
737.966	66.97
738.365	67.09
738.765	67.21
739.165	67.28
739.564	67.41
739.964	67.52
740.363	67.66
740.763	67.75
741.162	67.82
741.561	67.94
741.96	68.06
742.36	68.11
742.759	68.18
743.158	68.2
743.557	68.27
743.955	68.35
744.354	68.45
744.753	68.46
745.152	68.53
745.55	68.61
745.949	68.61
746.348	68.65
746.746	68.69
747.144	68.79
747.543	68.85
747.941	68.91
748.339	68.97
748.737	69.03
749.136	69.13
749.534	69.2
749.932	69.23
750.33	69.28
750.727	69.32
751.125	69.33
751.523	69.32
751.921	69.38
752.318	69.42
752.716	69.41
753.113	69.42
753.511	69.36
753.908	69.35
754.305	69.37
754.703	69.33
755.1	69.35
755.497	69.38
755.894	69.42
756.291	69.41
756.688	69.39
757.085	69.41
757.482	69.4
757.878	69.46
758.275	69.47
758.672	69.52
759.068	69.56
759.465	69.57
759.861	69.59
760.258	69.56
760.654	69.57
761.05	69.58
761.447	69.57
761.843	69.57
762.239	69.57
762.635	69.57
763.031	69.56
763.427	69.55
763.822	69.54
764.218	69.49
764.614	69.5
765.01	69.47
765.405	69.44
765.801	69.44
766.196	69.44
766.592	69.44
766.987	69.44
767.382	69.42
767.778	69.43
768.173	69.44
768.568	69.43
768.963	69.41
769.358	69.43
769.753	69.46
770.148	69.46
770.542	69.48
770.937	69.45
771.332	69.43
771.726	69.39
772.121	69.36
772.515	69.33
772.91	69.33
773.304	69.34
773.699	69.31
774.093	69.25
774.487	69.26
774.881	69.26
775.275	69.25
775.669	69.25
776.063	69.24
776.457	69.23
776.851	69.24
777.245	69.25
777.638	69.23
778.032	69.27
778.425	69.32
778.819	69.31
779.212	69.27
779.606	69.3
779.999	69.27
780.392	69.29
780.786	69.29
781.179	69.3
781.572	69.29
781.965	69.33
782.358	69.33
782.751	69.31
783.143	69.31
783.536	69.36
783.929	69.35
784.322	69.4
784.714	69.38
785.107	69.4
785.499	69.42
785.891	69.46
786.284	69.43
786.676	69.42
787.068	69.44
787.46	69.44
787.852	69.39
788.245	69.4
788.636	69.36
789.028	69.4
789.42	69.4
789.812	69.38
790.204	69.33
790.595	69.34
790.987	69.37
791.378	69.35
791.77	69.41
792.161	69.46
792.553	69.45
792.944	69.5
793.335	69.5
793.726	69.48
794.117	69.47
794.508	69.5
794.899	69.51
795.29	69.49
795.681	69.5
796.072	69.44
796.463	69.46
796.853	69.43
797.244	69.42
797.634	69.42
798.025	69.44
798.415	69.46
798.806	69.47
799.196	69.5
799.586	69.51
799.976	69.52
800.366	69.53
800.756	69.51
801.146	69.51
801.536	69.53
801.926	69.51
802.316	69.57
802.706	69.58
803.095	69.61
803.485	69.58
803.874	69.57
804.264	69.6
804.653	69.58
805.043	69.57
805.432	69.59
805.821	69.57
806.21	69.64
806.599	69.62
806.988	69.61
807.377	69.59
807.766	69.6
808.155	69.6
808.544	69.58
808.933	69.57
809.321	69.63
809.71	69.67
810.098	69.65
810.487	69.63
810.875	69.62
811.264	69.6
811.652	69.61
812.04	69.59
812.428	69.62
812.816	69.65
813.204	69.69
813.592	69.66
813.98	69.63
814.368	69.65
814.756	69.63
815.144	69.66
815.531	69.68
815.919	69.71
816.306	69.7
816.694	69.72
817.081	69.69
817.469	69.72
817.856	69.76
818.243	69.77
818.63	69.79
819.017	69.82
819.404	69.79
819.791	69.8
820.178	69.81
820.565	69.82
820.952	69.83
821.339	69.86
821.725	69.9
822.112	69.9
822.498	69.91
822.885	69.95
823.271	69.98
823.657	70.03
824.044	70.05
824.43	70.07
824.816	70.14
825.202	70.14
825.588	70.14
825.974	70.12
826.36	70.11
826.746	70.18
827.132	70.15
827.517	70.17
827.903	70.16
828.289	70.21
828.674	70.18
829.06	70.19
829.445	70.2
829.83	70.22
830.216	70.23
830.601	70.24
830.986	70.19
831.371	70.24
831.756	70.18
832.141	70.2
832.526	70.18
832.911	70.23
833.295	70.21
833.68	70.2
834.065	70.24
834.449	70.22
834.834	70.2
835.218	70.19
835.603	70.18
835.987	70.21
836.371	70.21
836.755	70.19
837.139	70.15
837.524	70.15
837.908	70.09
838.291	70.04
838.675	70.07
839.059	70.09
839.443	70.09
839.827	70.06
840.21	70.09
840.594	70.08
840.977	70.05
841.361	70.05
841.744	70.05
842.127	70.09
842.511	70.1
842.894	70.04
843.277	70
843.66	70.01
844.043	69.99
844.426	69.95
844.809	69.92
845.191	69.94
845.574	69.93
845.957	69.89
846.339	69.89
846.722	69.88
847.104	69.9
847.487	69.93
847.869	69.93
848.252	69.94
848.634	69.97
849.016	70
849.398	69.99
849.78	69.98
850.162	69.99
850.544	70.01
850.926	70.01
851.307	70.02
851.689	69.98
852.071	69.99
852.452	69.99
852.834	69.96
853.215	69.96
853.597	69.97
853.978	69.96
854.359	69.96
854.741	69.94
855.122	69.94
855.503	69.95
855.884	69.97
856.265	69.98
856.646	69.94
857.026	69.95
857.407	69.93
857.788	69.92
858.169	69.93
858.549	69.98
858.93	69.96
859.31	69.92
859.69	69.88
860.071	69.87
860.451	69.85
860.831	69.87
861.211	69.87
861.591	69.89
861.971	69.87
862.351	69.89
862.731	69.82
863.111	69.86
863.491	69.92
863.87	69.92
864.25	69.95
864.629	69.97
865.009	69.95
865.388	69.95
865.768	69.92
866.147	69.98
866.526	69.97
866.905	69.99
867.284	69.97
867.663	69.96
868.042	69.97
868.421	69.95
868.8	69.9
869.179	69.91
869.558	69.9
869.936	69.91
870.315	69.89
870.693	69.92
871.072	69.93
871.45	69.9
871.828	69.9
872.207	69.91
872.585	69.91
872.963	69.92
873.341	69.95
873.719	69.96
874.097	69.92
874.475	69.91
874.853	69.87
875.23	69.85
875.608	69.9
875.986	69.88
876.363	69.88
876.741	69.9
877.118	69.87
877.495	69.86
877.873	69.84
878.25	69.86
878.627	69.85
879.004	69.83
879.381	69.85
879.758	69.8
880.135	69.81
880.512	69.82
880.889	69.81
881.265	69.88
881.642	69.85
882.019	69.85
882.395	69.8
882.772	69.8
883.148	69.78
883.524	69.78
883.901	69.76
884.277	69.74
884.653	69.73
885.029	69.71
885.405	69.68
885.781	69.64
886.157	69.63
886.532	69.64
886.908	69.68
887.284	69.69
887.659	69.7
888.035	69.72
888.411	69.69
888.786	69.64
889.161	69.63
889.537	69.63
889.912	69.65
890.287	69.64
890.662	69.65
891.037	69.58
891.412	69.56
891.787	69.55
892.162	69.52
892.536	69.52
892.911	69.51
893.286	69.5
893.66	69.51
894.035	69.5
894.409	69.48
894.784	69.5
895.158	69.53
895.532	69.5
895.906	69.49
896.281	69.46
896.655	69.45
897.029	69.44
897.402	69.42
897.776	69.4
898.15	69.39
898.524	69.39
898.898	69.3
899.271	69.3
899.645	69.3
900.018	69.29
900.392	69.34
900.765	69.36
901.138	69.42
901.511	69.42
901.884	69.4
902.258	69.39
902.631	69.42
903.003	69.48
903.376	69.44
903.749	69.46
904.122	69.47
904.495	69.45
904.867	69.41
905.24	69.37
905.612	69.34
905.985	69.31
906.357	69.3
906.729	69.28
907.102	69.29
907.474	69.29
907.846	69.22
908.218	69.2
908.59	69.15
908.962	69.16
909.334	69.12
909.705	69.13
910.077	69.1
910.449	69.13
910.82	69.08
911.192	69.03
911.563	69.03
911.935	69.03
912.306	68.99
912.677	68.99
913.048	68.96
913.419	68.96
913.79	68.95
914.161	68.98
914.532	68.95
914.903	68.95
915.274	68.93
915.645	68.92
916.015	68.93
916.386	68.93
916.756	68.87
917.127	68.89
917.497	68.85
917.868	68.84
918.238	68.84
918.608	68.81
918.978	68.75
919.348	68.71
919.718	68.66
920.088	68.67
920.458	68.71
920.828	68.72
921.198	68.71
921.567	68.74
921.937	68.75
922.306	68.7
922.676	68.71
923.045	68.73
923.415	68.74
923.784	68.76
924.153	68.69
924.522	68.63
924.891	68.61
925.26	68.57
925.629	68.53
925.998	68.47
926.367	68.44
926.736	68.39
927.104	68.35
927.473	68.36
927.842	68.35
928.21	68.42
928.578	68.37
928.947	68.37
929.315	68.37
929.683	68.4
930.051	68.43
930.42	68.43
930.788	68.49
931.156	68.47
931.523	68.48
931.891	68.39
932.259	68.26
932.627	68.2
932.994	68.18
933.362	68.08
933.729	67.96
934.097	67.91
934.464	67.87
934.831	67.74
935.199	67.75
935.566	67.53
935.933	67.5
936.3	67.42
936.667	67.4
937.034	67.29
937.401	67.24
937.767	67.17
938.134	67.04
938.501	66.91
938.867	66.92
939.234	66.83
939.6	66.86
939.967	66.85
940.333	66.99
940.699	67.02
941.065	67.02
941.431	67.14
941.798	67.19
942.163	67.28
942.529	67.38
942.895	67.34
943.261	67.31
943.627	67.41
943.992	67.45
944.358	67.35
944.723	67.33
945.089	67.45
945.454	67.54
945.82	67.51
946.185	67.54
946.55	67.62
946.915	67.71
947.28	67.74
947.645	67.78
948.01	67.83
948.375	67.87
948.74	67.84
949.104	67.86
949.469	67.66
949.834	67.66
950.198	67.58
950.562	67.5
950.927	67.45
951.291	67.34
951.655	67.22
952.02	67.18
952.384	67.22
952.748	67.22
953.112	67.22
953.476	67.27
953.839	67.27
954.203	67.24
954.567	67.15
954.931	67.11
955.294	67.1
955.658	67.07
956.021	67.03
956.385	66.98
956.748	67.02
957.111	66.92
957.474	66.84
957.837	66.88
958.2	66.78
958.563	66.75
958.926	66.65
959.289	66.66
959.652	66.7
960.015	66.62
960.377	66.58
960.74	66.48
961.102	66.48
961.465	66.5
961.827	66.35
962.189	66.35
962.552	66.3
962.914	66.32
963.276	66.3
963.638	66.16
964	66.11
964.362	66.06
964.724	66.05
965.085	66.02
965.447	65.88
965.809	65.88
966.17	65.92
966.532	66
966.893	65.94
967.255	65.91
967.616	65.95
967.977	66.01
968.338	65.9
968.699	65.8
969.061	65.71
969.421	65.73
969.782	65.75
970.143	65.72
970.504	65.61
970.865	65.62
971.225	65.66
971.586	65.76
971.946	65.72
972.307	65.7
972.667	65.81
973.027	65.86
973.388	65.86
973.748	65.88
974.108	65.85
974.468	65.9
974.828	65.93
975.188	65.9
975.548	65.82
975.907	65.82
976.267	65.94
976.627	65.91
976.986	65.89
977.346	65.92
977.705	65.87
978.064	65.85
978.424	65.74
978.783	65.76
979.142	65.69
979.501	65.63
979.86	65.64
980.219	65.52
980.578	65.4
980.937	65.42
981.296	65.33
981.654	65.41
982.013	65.4
982.371	65.39
982.73	65.29
983.088	65.28
983.447	65.31
983.805	65.23
984.163	65.33
984.521	65.36
984.879	65.31
985.237	65.29
985.595	65.28
985.953	65.27
986.311	65.35
986.669	65.36
987.026	65.46
987.384	65.51
987.741	65.5
988.099	65.44
988.456	65.44
988.814	65.49
989.171	65.58
989.528	65.47
989.885	65.43
990.242	65.49
990.599	65.45
990.956	65.35
991.313	65.35
991.67	65.43
992.027	65.49
992.383	65.5
992.74	65.39
993.096	65.23
993.453	65.3
993.809	65.27
994.165	65.25
994.522	65.28
994.878	65.24
995.234	65.19
995.59	64.97
995.946	64.94
996.302	64.8
996.658	64.75
997.013	64.78
997.369	64.59
997.725	64.72
998.08	64.59
998.436	64.6
998.791	64.57
999.147	64.4
999.502	64.43
999.857	64.29
1000.212	64.28
1000.567	64.32
1000.922	64.33
1001.277	64.36
1001.632	64.38
1001.987	64.26
1002.342	64.21
1002.696	64.23
1003.051	64.18
1003.406	64.09
1003.76	64.09
1004.114	64.36
1004.469	64.25
1004.823	64.35
1005.177	64.56
1005.531	64.22
1005.885	64.32
1006.239	64.27
1006.593	64.17
1006.947	64.17
1007.301	64.31
1007.655	64.31
1008.008	64.03
1008.362	63.94
1008.715	63.75
1009.069	63.36
1009.422	63.36
1009.776	63.34
1010.129	63.18
1010.482	63.29
1010.835	63.41
1011.188	63.26
1011.541	63.22
1011.894	63.24
1012.247	63.18
1012.6	63.13
1012.952	63.14
1013.305	63.13
1013.657	63.16
1014.01	63.37
1014.362	63.32
1014.715	63.25
1015.067	63.2
1015.419	63.07
1015.771	63.08
1016.123	63.12
1016.475	63.26
1016.827	63.5
1017.179	63.76
1017.531	63.39
1017.883	63.24
1018.234	63.01
1018.586	62.93
1018.938	62.82
1019.289	62.79
1019.64	62.93
1019.992	63.11
1020.343	62.93
1020.694	62.88
1021.045	62.56
1021.396	62.68
1021.747	62.61
1022.098	62.49
1022.449	62.16
1022.8	62.48
1023.151	62.51
1023.501	62.24
1023.852	62.14
1024.202	62
1024.553	61.48
1024.903	61.22
1025.253	61.3
1025.604	61.16
1025.954	61.14
1026.304	61.72
1026.654	61.53
1027.004	61.37
1027.354	61.22
1027.703	61.24
1028.053	60.94
1028.403	61.45
1028.753	61.79
1029.102	61.41
1029.452	61.26
1029.801	61.02
1030.15	60.59
1030.499	60.41
897.758	689.15
901.051	695.51
904.343	704.44
907.636	693.73
910.928	680.19
914.22	692.01
917.511	679.65
920.803	649.17
924.094	622.3
927.384	628.4
930.675	607.6
933.965	600.4
937.255	602.75
940.544	574.21
943.834	551.88
947.123	544.88
950.411	517.55
953.7	507.25
956.988	495
960.276	474.15
963.563	466.84
966.851	444.46
970.138	436.03
973.424	405.93
976.711	401.66
979.997	386.98
983.283	379.43
986.568	367.24
989.853	357.08
993.138	341.33
996.423	338.51
999.708	328.43
1002.992	328.97
1006.275	319.78
1009.559	317.77
1012.842	308.68
1016.125	298.88
1019.408	292.39
1022.69	291.08
1025.972	289.69
1029.254	283.91
1032.536	277.46
1035.817	269.69
1039.098	265.75
1042.379	259.17
1045.659	255.76
1048.939	253.36
1052.219	249.69
1055.498	245.12
1058.778	239.88
1062.057	234.88
1065.335	234.58
1068.614	231.1
1071.892	227.49
1075.17	223.83
1078.447	222.16
1081.724	220.07
1085.001	216.17
1088.278	216.35
1091.554	215.21
1094.83	214.14
1098.106	210.78
1101.382	209.62
1104.657	208.02
1107.932	208.08
1111.206	205.56
1114.481	204.07
1117.755	201.52
1121.029	201.04
1124.302	197.3
1127.575	195.06
1130.848	194.01
1134.121	191.52
1137.393	191.28
1140.665	190.3
1143.937	187.31
1147.208	186.43
1150.48	184.54
1153.75	184.32
1157.021	181.73
1160.291	181.44
1163.561	181.21
1166.831	178.98
1170.101	179.57
1173.37	177.3
1176.639	175.61
1179.907	176.23
1183.176	175.64
1186.444	175.51
1189.711	174.14
1192.979	176.7
1196.246	176.01
1199.513	174.65
1202.78	176.11
1206.046	175.57
1209.312	176.74
1212.578	177.76
1215.843	179.88
1219.108	180.94
1222.373	183.89
1225.638	187.45
1228.902	190.1
1232.166	195.88
1235.43	199.14
1238.693	204.13
1241.956	208.54
1245.219	213.71
1248.482	215.59
1251.744	214.47
1255.006	214.81
1258.268	210.43
1261.529	208.32
1264.79	203.16
1268.051	199.2
1271.312	198.37
1274.572	193.21
1277.832	188.95
1281.092	186.15
1284.351	182.61
1287.61	182.59
1290.869	181.78
1294.128	180.79
1297.386	179.23
1300.644	179.4
1303.902	178.25
1307.159	177.26
1310.416	178.97
1313.673	181.9
1316.93	182.02
1320.186	184.87
1323.442	186.91
1326.697	191.26
1329.953	190.99
1333.208	198.84
1336.463	205.79
1339.717	210.43
1342.972	218.21
1346.226	223.35
1349.479	224.31
1352.733	235.48
1355.986	239.2
1359.238	244.45
1362.491	245.41
1365.743	256.64
1368.995	256.45
1372.247	253.66
1375.498	252.61
1378.749	260.74
1382	261.57
1385.251	259.88
1388.501	258.24
1391.751	262.33
1395	260.42
1398.25	261.31
1401.499	257.99
1404.748	257.92
1407.996	252.58
1411.244	253.39
1414.492	248.53
1417.74	241.25
1420.987	236.1
1424.234	232.03
1427.481	223.09
1430.728	216.65
1433.974	209.5
1437.22	204.66
1440.465	196.85
1443.711	192.14
1446.956	186.25
1450.201	179.76
1453.445	171.03
1456.689	166.35
1459.933	161.03
1463.177	154.43
1466.42	151.39
1469.663	146.69
1472.906	142.19
1476.148	139.53
1479.391	136.4
1482.633	134.46
1485.874	131.61
1489.115	130.97
1492.356	128.77
1495.597	127.78
1498.838	126.73
1502.078	125.76
1505.318	125.61
1508.557	125.07
1511.797	123.37
1515.036	123.22
1518.274	122.63
1521.513	121.34
1524.751	120.88
1527.989	121.75
1531.227	120.48
1534.464	120.78
1537.701	119.97
1540.938	119.66
1544.174	119.73
1547.41	119.8
1550.646	119.52
1553.882	119.21
1557.117	118.96
1560.352	118.98
1563.587	118.05
1566.821	118.29
1570.055	117.15
1573.289	117.31
1576.523	117.45
1579.756	116.65
1582.989	117.2
1586.222	116.6
1589.454	116.01
1592.686	116.9
1595.918	116.36
1599.15	116.28
1602.381	116.34
1605.612	117.06
1608.843	116.76
1612.073	117.23
1615.303	117.49
1618.533	116.81
1621.762	117.84
1624.992	118.32
1628.221	117.54
1631.449	118.28
1634.678	118.34
1637.906	118.6
1641.134	118.87
1644.361	118.83
1647.588	118.65
1650.815	118.79
1654.042	119.27
1657.269	118.75
1660.495	119.62
1663.72	119.32
1666.946	119.42
1670.171	119.9
1673.396	120.15
1676.621	120.76
1679.845	120.86
1683.069	120.68
1686.293	120.59
1689.517	120.47
1692.74	120.72
1695.963	120.88
1699.185	122.1
1702.408	121.62
1705.63	122.1
1708.852	122.41
1712.073	121.91
1715.294	121.88
1718.515	122.3
1721.736	122.6
1724.956	122.77
1728.176	122.71
1731.396	123.03
1734.616	122.75
1737.835	123.24
1741.054	122.22
1744.272	122.26
1747.491	121.98
1750.709	123.09
1753.927	123.13
1757.144	123.17
1760.361	123.42
1763.578	124.18
1766.795	124.38
1770.011	123.99
1773.227	125.07
1776.443	126.39
1779.658	126.62
1782.874	128
1786.089	127.46
1789.303	127.7
1792.518	129.33
1795.732	130.37
1798.945	131.39
1802.159	131.62
1805.372	133.62
1808.585	134.12
1811.797	134.66
1815.01	135.93
1818.222	136.33
1821.434	137.76
1824.645	138.68
1827.856	140.18
1831.067	140.42
1834.278	140.79
1837.488	141.71
1840.698	143.18
1843.908	143.18
1847.117	145.24
1850.326	145.84
1853.535	145.66
1856.744	146.86
1859.952	148.91
1863.16	148.3
1866.368	147.7
1869.575	149
1872.782	147.76
1875.989	146.89
1879.196	145.76
1882.402	143.65
1885.608	144.67
1888.814	144.39
1892.019	145.57
1895.224	142.62
1898.429	142.85
1901.634	144.53
1904.838	144.47
1908.042	145.07
1911.246	144.18
1914.449	145.68
1917.652	144.96
1920.855	144.72
1924.058	144.69
1927.26	143.47
1930.462	144.07
1933.664	144.59
1936.865	143.8
1940.066	141.54
1943.267	141.53
1946.467	143.01
1949.668	142.71
1952.868	143.77
1956.067	142.9
1959.267	144.31
1962.466	145.03
1965.665	146.06
1968.863	146.5
1972.061	147.23
1975.259	150.62
1978.457	151.7
1981.654	153.15
1984.852	154.18
1988.048	155.91
1991.245	159.7
1994.441	161.58
1997.637	164.02
2000.833	168.38
2004.028	169.14
2007.223	174.76
2010.418	179.03
2013.613	185.95
2016.807	190.54
2020.001	194.76
2023.194	199.83
2026.388	205.69
2029.581	216.45
2032.774	224.05
2035.966	229.91
2039.158	238.58
2042.35	242.09
2045.542	245.53
2048.733	257.33
2051.924	258.57
2055.115	263.47
2058.306	266.93
2061.496	272.33
2064.686	273.21
2067.875	268.73
2071.065	271.12
2074.254	272.67
2077.442	280.48
2080.631	284.18
2083.819	282.98
2087.007	289.76
2090.195	293.72
2093.382	293.55
2096.569	292.46
2099.756	297.22
2102.942	306.69
2106.128	312.68
2109.314	313.63
2112.5	314.33
2115.685	313.23
2118.87	314.16
2122.055	316.37
2125.239	323.58
2128.424	331.72
2131.608	328.93
2134.791	328.18
2137.974	329.41
2141.157	332.52
2144.34	336.49
2147.523	338.53
2150.705	345.75
2153.887	345.04
2157.068	347.5
2160.25	348.63
2163.431	348.19
2166.611	352.93
2169.792	361.08
2172.972	366.09
2176.152	364.91
2179.331	373.83
2182.511	374.67
2185.69	380.5
2188.868	392.25
2192.047	401.89
2195.225	410.4
2198.403	414.34
2201.58	414.29
2204.758	426.46
2207.935	428.79
2211.111	438.45
2214.288	438.73
2217.464	446.42
2220.64	447.59
2223.815	451.37
2226.991	444.19
2230.166	447.63
2233.34	463.98
2236.515	476.1
2239.689	467.27
2242.863	475.46
2246.036	471.36
2249.209	484.95
2252.382	482.47
2255.555	500.26
2258.727	500.58
2261.9	519.12
2265.071	522.34
2268.243	516.14
2271.414	528.63
2274.585	539.23
2277.756	543.32
2280.926	564.48
2284.096	561.14
2287.266	564.14
2290.436	551.45
2293.605	565.05
2296.774	582.99
2299.942	585.99
2303.111	603.74
2306.279	617.8
2309.447	619.97
2312.614	617.92
2315.781	635.58
2318.948	643.69
2322.115	656.49
2325.281	692.88
2328.447	689.67
2331.613	689.38
2334.779	702.83
2337.944	709.59
2341.109	721.93
2344.274	736.23
2347.438	756.36
2350.602	762.92
2353.766	811.28
2356.929	817.07
2360.092	823.03
2363.255	825.34
2366.418	838.61
2369.58	853.38
2372.742	859.24
2375.904	854.09
2379.066	870.67
2382.227	920.53
2385.388	925.94
2388.548	878.47
2391.709	870.02
2394.869	899.57
2398.029	895.19
2401.188	899.86
2404.347	928.91
2407.506	956.73
2410.665	914.82
2413.823	917.9
2416.981	917.77
2420.139	869.95
2423.296	936.16
2426.453	998.34
2429.61	953.56
2432.767	1024.01
2435.923	1055.01
2439.079	1010.57
2442.235	1029.92
2445.391	1066.87
2448.546	1058.6
2451.701	1119.33
2454.855	1194.44
2458.009	1051.58
2461.163	1078.67
2464.317	1080.63
2467.471	1059.94
2470.624	1094.09
2473.777	1075.23
2476.929	1043.51
2480.082	1112.96
2483.234	1171.73
2486.385	1180.87
2489.537	1206.62
2492.688	1338.42
2495.839	1303.73
2498.989	1354.68
2502.14	1355.51
2505.29	1289.51
2508.439	1447.72
2511.589	1489.03
2514.738	1437.27
2517.887	1420.46
2521.035	1340.81
2524.183	1322.21
2527.331	1312.63
2530.479	1279.91
2533.627	1306.61
