Data from N_2_dec_va_2n_049_Splice17_03.txt Node
Date: Sat Feb 29 13:56:03 EST 2020
User: sa697716
Spectrometer: FLMS03696
Trigger mode: 0
Integration Time (sec): 3.180400E-1
Scans to average: 20
Electric dark correction enabled: true
Nonlinearity correction enabled: true
Boxcar width: 5
XAxis mode: Wavelengths
Number of Pixels in Spectrum: 2048
>>>>>Begin Spectral Data<<<<<
187.83	52.6
188.298	51.89
188.766	60.52
189.233	45.76
189.701	57.61
190.169	67.85
190.636	67.47
191.104	60.26
191.571	53.58
192.039	121.97
192.506	-72.87
192.974	3002.76
193.441	-54.28
193.908	112.84
194.375	63.56
194.842	147.57
195.31	144.65
195.777	138.8
196.244	36.13
196.711	13.43
197.177	8.2
197.644	8.58
198.111	8.62
198.578	8.97
199.045	8.4
199.511	8.78
199.978	8.69
200.445	8.22
200.911	8.29
201.378	8.48
201.844	8.27
202.31	8.89
202.777	8.97
203.243	8.93
203.709	9.28
204.176	9.28
204.642	9.38
205.108	9.67
205.574	10.1
206.04	10.25
206.506	10.22
206.972	10.83
207.438	10.93
207.903	10.98
208.369	10.63
208.835	10.62
209.301	10.83
209.766	10.74
210.232	10.65
210.697	10.54
211.163	10.38
211.628	9.9
212.094	9.55
212.559	9.23
213.024	8.87
213.49	8.95
213.955	8.81
214.42	8.59
214.885	8.43
215.35	8.36
215.815	7.95
216.28	7.78
216.745	7.71
217.21	7.53
217.675	7.31
218.14	6.99
218.604	6.55
219.069	6.32
219.534	6.06
219.998	5.74
220.463	5.61
220.927	5.49
221.392	5.34
221.856	5.2
222.32	5.08
222.785	4.99
223.249	4.91
223.713	4.87
224.177	4.72
224.642	4.67
225.106	4.65
225.57	4.52
226.034	4.46
226.497	4.4
226.961	4.34
227.425	4.22
227.889	4.15
228.353	4.07
228.816	4.02
229.28	3.96
229.744	3.9
230.207	3.86
230.671	3.83
231.134	3.77
231.597	3.72
232.061	3.67
232.524	3.66
232.987	3.64
233.45	3.62
233.914	3.59
234.377	3.57
234.84	3.54
235.303	3.51
235.766	3.49
236.229	3.46
236.691	3.44
237.154	3.43
237.617	3.4
238.08	3.36
238.542	3.33
239.005	3.3
239.468	3.25
239.93	3.22
240.393	3.18
240.855	3.14
241.317	3.1
241.78	3.08
242.242	3.04
242.704	3.01
243.166	2.99
243.629	2.98
244.091	2.96
244.553	2.96
245.015	2.94
245.477	2.92
245.939	2.9
246.4	2.89
246.862	2.87
247.324	2.87
247.786	2.85
248.247	2.82
248.709	2.79
249.17	2.77
249.632	2.74
250.093	2.72
250.555	2.71
251.016	2.7
251.477	2.68
251.939	2.67
252.4	2.65
252.861	2.64
253.322	2.63
253.783	2.63
254.244	2.62
254.705	2.61
255.166	2.62
255.627	2.61
256.088	2.59
256.549	2.59
257.009	2.57
257.47	2.56
257.931	2.54
258.391	2.52
258.852	2.51
259.312	2.5
259.773	2.49
260.233	2.47
260.694	2.45
261.154	2.45
261.614	2.43
262.074	2.43
262.534	2.41
262.994	2.41
263.455	2.4
263.915	2.4
264.374	2.4
264.834	2.39
265.294	2.38
265.754	2.37
266.214	2.37
266.673	2.36
267.133	2.35
267.593	2.34
268.052	2.33
268.512	2.32
268.971	2.32
269.431	2.3
269.89	2.3
270.349	2.29
270.809	2.28
271.268	2.28
271.727	2.28
272.186	2.27
272.645	2.27
273.104	2.26
273.563	2.26
274.022	2.25
274.481	2.24
274.94	2.23
275.399	2.23
275.857	2.22
276.316	2.21
276.775	2.2
277.233	2.19
277.692	2.19
278.15	2.19
278.609	2.17
279.067	2.16
279.525	2.16
279.984	2.14
280.442	2.14
280.9	2.13
281.358	2.12
281.816	2.11
282.274	2.1
282.732	2.09
283.19	2.09
283.648	2.09
284.106	2.08
284.564	2.07
285.021	2.07
285.479	2.06
285.937	2.05
286.394	2.04
286.852	2.04
287.309	2.04
287.767	2.04
288.224	2.03
288.682	2.02
289.139	2.03
289.596	2.02
290.053	2.02
290.511	2.01
290.968	2.01
291.425	2.01
291.882	2
292.339	1.99
292.796	1.99
293.252	1.98
293.709	1.98
294.166	1.96
294.623	1.96
295.079	1.95
295.536	1.95
295.992	1.94
296.449	1.94
296.905	1.93
297.362	1.92
297.818	1.91
298.274	1.9
298.731	1.9
299.187	1.89
299.643	1.88
300.099	1.88
300.555	1.87
301.011	1.87
301.467	1.86
301.923	1.86
302.379	1.86
302.835	1.86
303.291	1.85
303.746	1.85
304.202	1.85
304.658	1.85
305.113	1.84
305.569	1.84
306.024	1.83
306.479	1.82
306.935	1.81
307.39	1.81
307.845	1.81
308.301	1.81
308.756	1.81
309.211	1.82
309.666	1.81
310.121	1.81
310.576	1.81
311.031	1.81
311.486	1.82
311.94	1.82
312.395	1.81
312.85	1.81
313.305	1.8
313.759	1.8
314.214	1.79
314.668	1.79
315.123	1.79
315.577	1.78
316.032	1.78
316.486	1.78
316.94	1.77
317.394	1.77
317.849	1.77
318.303	1.77
318.757	1.76
319.211	1.75
319.665	1.75
320.119	1.74
320.572	1.74
321.026	1.73
321.48	1.73
321.934	1.74
322.387	1.73
322.841	1.73
323.295	1.73
323.748	1.73
324.202	1.74
324.655	1.73
325.108	1.73
325.562	1.72
326.015	1.72
326.468	1.71
326.921	1.7
327.374	1.7
327.827	1.7
328.28	1.69
328.733	1.68
329.186	1.67
329.639	1.67
330.092	1.67
330.545	1.68
330.997	1.68
331.45	1.68
331.903	1.67
332.355	1.67
332.808	1.67
333.26	1.67
333.713	1.68
334.165	1.68
334.617	1.68
335.069	1.68
335.522	1.68
335.974	1.68
336.426	1.68
336.878	1.69
337.33	1.67
337.782	1.68
338.234	1.68
338.686	1.67
339.137	1.68
339.589	1.67
340.041	1.68
340.493	1.67
340.944	1.67
341.396	1.67
341.847	1.67
342.299	1.67
342.75	1.66
343.201	1.66
343.653	1.66
344.104	1.65
344.555	1.66
345.006	1.65
345.457	1.65
345.908	1.65
346.359	1.65
346.81	1.65
347.261	1.65
347.712	1.66
348.163	1.66
348.613	1.65
349.064	1.64
349.515	1.63
349.965	1.63
350.416	1.62
350.866	1.61
351.317	1.61
351.767	1.61
352.217	1.61
352.668	1.6
353.118	1.6
353.568	1.61
354.018	1.63
354.468	1.62
354.918	1.64
355.368	1.65
355.818	1.64
356.268	1.65
356.718	1.65
357.168	1.64
357.617	1.64
358.067	1.63
358.517	1.62
358.966	1.62
359.416	1.62
359.865	1.62
360.315	1.61
360.764	1.62
361.213	1.61
361.663	1.61
362.112	1.62
362.561	1.62
363.01	1.63
363.459	1.64
363.908	1.64
364.357	1.64
364.806	1.65
365.255	1.66
365.703	1.66
366.152	1.66
366.601	1.67
367.05	1.68
367.498	1.68
367.947	1.67
368.395	1.68
368.844	1.69
369.292	1.68
369.74	1.68
370.189	1.67
370.637	1.68
371.085	1.68
371.533	1.68
371.981	1.69
372.429	1.67
372.877	1.68
373.325	1.68
373.773	1.69
374.221	1.69
374.669	1.69
375.116	1.7
375.564	1.7
376.012	1.7
376.459	1.7
376.907	1.71
377.354	1.72
377.801	1.72
378.249	1.73
378.696	1.73
379.143	1.75
379.591	1.77
380.038	1.79
380.485	1.8
380.932	1.81
381.379	1.83
381.826	1.85
382.273	1.86
382.72	1.89
383.166	1.91
383.613	1.94
384.06	1.96
384.506	1.99
384.953	2.02
385.4	2.07
385.846	2.11
386.292	2.17
386.739	2.22
387.185	2.3
387.631	2.35
388.078	2.42
388.524	2.46
388.97	2.5
389.416	2.56
389.862	2.63
390.308	2.72
390.754	2.83
391.2	2.94
391.645	3.05
392.091	3.13
392.537	3.22
392.983	3.33
393.428	3.51
393.874	3.74
394.319	3.97
394.765	4.21
395.21	4.45
395.655	4.7
396.101	4.96
396.546	5.25
396.991	5.6
397.436	5.95
397.881	6.33
398.326	6.68
398.771	6.99
399.216	7.3
399.661	7.59
400.106	7.84
400.551	8.05
400.995	8.24
401.44	8.41
401.885	8.56
402.329	8.73
402.774	8.89
403.218	9.07
403.663	9.3
404.107	9.55
404.551	9.81
404.995	10.05
405.44	10.27
405.884	10.52
406.328	10.79
406.772	11.1
407.216	11.44
407.66	11.75
408.104	12.03
408.547	12.27
408.991	12.46
409.435	12.68
409.879	12.95
410.322	13.25
410.766	13.57
411.209	13.88
411.653	14.14
412.096	14.39
412.54	14.61
412.983	14.85
413.426	15.12
413.869	15.41
414.312	15.68
414.756	15.91
415.199	16.12
415.642	16.33
416.085	16.51
416.527	16.66
416.97	16.75
417.413	16.79
417.856	16.8
418.298	16.78
418.741	16.77
419.184	16.78
419.626	16.85
420.069	16.95
420.511	17.03
420.953	17.11
421.396	17.22
421.838	17.4
422.28	17.64
422.722	17.88
423.164	18.11
423.606	18.34
424.048	18.49
424.49	18.57
424.932	18.5
425.374	18.29
425.816	17.95
426.258	17.56
426.699	17.25
427.141	17.14
427.582	17.27
428.024	17.5
428.465	17.77
428.907	18.04
429.348	18.26
429.789	18.57
430.231	19.1
430.672	19.83
431.113	20.71
431.554	21.59
431.995	22.29
432.436	22.75
432.877	23.12
433.318	23.37
433.759	23.66
434.2	24.03
434.64	24.51
435.081	24.95
435.522	25.35
435.962	25.68
436.403	25.94
436.843	26.16
437.284	26.42
437.724	26.68
438.164	27.04
438.604	27.47
439.045	27.91
439.485	28.31
439.925	28.65
440.365	28.95
440.805	29.16
441.245	29.32
441.685	29.48
442.125	29.67
442.564	29.93
443.004	30.19
443.444	30.48
443.883	30.8
444.323	31.14
444.762	31.49
445.202	31.87
445.641	32.3
446.081	32.88
446.52	33.47
446.959	34.02
447.398	34.47
447.837	34.81
448.276	34.93
448.716	35.05
449.154	35.13
449.593	35.23
450.032	35.3
450.471	35.28
450.91	35.16
451.349	35.03
451.787	34.95
452.226	34.88
452.664	34.84
453.103	34.86
453.541	34.86
453.98	34.8
454.418	34.71
454.856	34.53
455.295	34.39
455.733	34.27
456.171	34.17
456.609	34.06
457.047	34.01
457.485	33.97
457.923	34
458.361	34.04
458.798	34.16
459.236	34.27
459.674	34.38
460.111	34.5
460.549	34.59
460.987	34.71
461.424	34.82
461.862	34.89
462.299	34.99
462.736	35.09
463.173	35.23
463.611	35.43
464.048	35.65
464.485	35.97
464.922	36.32
465.359	36.69
465.796	36.99
466.233	37.28
466.67	37.64
467.106	38.09
467.543	38.57
467.98	39.05
468.416	39.46
468.853	39.84
469.29	40.2
469.726	40.57
470.162	40.91
470.599	41.33
471.035	41.72
471.471	41.97
471.907	42.12
472.344	42.22
472.78	42.31
473.216	42.45
473.652	42.6
474.088	42.69
474.523	42.73
474.959	42.77
475.395	42.8
475.831	42.81
476.266	42.86
476.702	42.89
477.138	42.89
477.573	42.87
478.008	42.74
478.444	42.58
478.879	42.38
479.314	42.17
479.75	41.92
480.185	41.59
480.62	41.19
481.055	40.63
481.49	39.85
481.925	38.98
482.36	38.14
482.795	37.44
483.229	36.9
483.664	36.5
484.099	36.14
484.534	35.83
484.968	35.58
485.403	35.47
485.837	35.55
486.271	35.83
486.706	36.17
487.14	36.43
487.574	36.56
488.009	36.59
488.443	36.58
488.877	36.58
489.311	36.61
489.745	36.68
490.179	36.71
490.613	36.78
491.046	36.82
491.48	36.91
491.914	37.07
492.348	37.3
492.781	37.53
493.215	37.75
493.648	37.93
494.082	38.04
494.515	38.12
494.948	38.22
495.382	38.3
495.815	38.37
496.248	38.4
496.681	38.4
497.114	38.39
497.547	38.41
497.98	38.45
498.413	38.6
498.846	38.84
499.279	39.08
499.711	39.27
500.144	39.48
500.577	39.8
501.009	40.23
501.442	40.78
501.874	41.33
502.306	41.9
502.739	42.42
503.171	42.87
503.603	43.29
504.036	43.72
504.468	44.25
504.9	44.81
505.332	45.31
505.764	45.78
506.196	46.21
506.627	46.69
507.059	47.18
507.491	47.75
507.923	48.32
508.354	48.89
508.786	49.47
509.217	49.92
509.649	50.38
510.08	50.85
510.512	51.33
510.943	51.84
511.374	52.31
511.805	52.68
512.237	52.86
512.668	52.94
513.099	53.06
513.53	53.23
513.961	53.49
514.391	53.8
514.822	54.22
515.253	54.71
515.684	55.23
516.114	55.85
516.545	56.56
516.975	57.53
517.406	58.64
517.836	59.71
518.267	60.72
518.697	61.66
519.127	62.61
519.558	63.51
519.988	64.37
520.418	65.16
520.848	65.87
521.278	66.53
521.708	66.91
522.138	67.19
522.567	67.4
522.997	67.65
523.427	68.03
523.857	68.41
524.286	68.84
524.716	69.26
525.145	69.65
525.575	70.03
526.004	70.48
526.433	71.15
526.863	71.87
527.292	72.65
527.721	73.29
528.15	73.72
528.579	74
529.008	74.13
529.437	74.2
529.866	74.28
530.295	74.37
530.724	74.52
531.152	74.62
531.581	74.75
532.01	74.8
532.438	74.86
532.867	74.99
533.295	75.18
533.723	75.4
534.152	75.55
534.58	75.68
535.008	75.68
535.436	75.55
535.865	75.35
536.293	75.1
536.721	74.95
537.149	74.92
537.576	74.97
538.004	75.01
538.432	75.01
538.86	75.06
539.287	75.17
539.715	75.39
540.143	75.65
540.57	75.98
540.998	76.39
541.425	76.75
541.852	77.08
542.28	77.34
542.707	77.62
543.134	77.86
543.561	78.04
543.988	78.23
544.415	78.43
544.842	78.64
545.269	78.9
545.696	79.07
546.123	79.28
546.549	79.46
546.976	79.66
547.403	79.83
547.829	80.08
548.256	80.3
548.682	80.46
549.108	80.65
549.535	80.79
549.961	80.88
550.387	81.02
550.813	81.12
551.24	81.26
551.666	81.33
552.092	81.33
552.518	81.25
552.943	81.21
553.369	81.14
553.795	80.96
554.221	80.71
554.646	80.41
555.072	80.04
555.498	79.65
555.923	79.28
556.349	78.96
556.774	78.7
557.199	78.47
557.625	78.19
558.05	77.91
558.475	77.67
558.9	77.49
559.325	77.32
559.75	77.11
560.175	76.91
560.6	76.61
561.025	76.23
561.449	75.76
561.874	75.28
562.299	74.84
562.723	74.41
563.148	74
563.572	73.56
563.997	73.02
564.421	72.48
564.846	71.94
565.27	71.44
565.694	70.95
566.118	70.45
566.542	69.92
566.966	69.37
567.39	68.82
567.814	68.32
568.238	67.87
568.662	67.54
569.086	67.27
569.509	66.99
569.933	66.7
570.357	66.43
570.78	66.19
571.204	65.97
571.627	65.76
572.05	65.56
572.474	65.3
572.897	65.07
573.32	64.76
573.743	64.41
574.166	64.04
574.589	63.7
575.012	63.44
575.435	63.2
575.858	63.05
576.281	62.93
576.704	62.78
577.126	62.65
577.549	62.53
577.972	62.48
578.394	62.47
578.817	62.51
579.239	62.56
579.661	62.56
580.084	62.57
580.506	62.48
580.928	62.33
581.35	62.19
581.772	62
582.194	61.77
582.616	61.54
583.038	61.32
583.46	61.07
583.882	60.71
584.303	60.28
584.725	59.68
585.147	59.06
585.568	58.53
585.99	58.08
586.411	57.73
586.833	57.4
587.254	57.06
587.675	56.73
588.096	56.45
588.518	56.26
588.939	56.14
589.36	56.2
589.781	56.3
590.202	56.36
590.623	56.3
591.043	56.18
591.464	56.03
591.885	55.92
592.305	55.77
592.726	55.59
593.147	55.43
593.567	55.23
593.987	55.01
594.408	54.78
594.828	54.57
595.248	54.4
595.669	54.19
596.089	53.94
596.509	53.64
596.929	53.37
597.349	53.05
597.769	52.7
598.189	52.41
598.608	52.15
599.028	51.92
599.448	51.72
599.867	51.52
600.287	51.36
600.706	51.19
601.126	51.01
601.545	50.84
601.965	50.71
602.384	50.57
602.803	50.4
603.222	50.24
603.641	50.03
604.061	49.78
604.48	49.47
604.898	49.16
605.317	48.85
605.736	48.54
606.155	48.21
606.574	47.88
606.992	47.56
607.411	47.25
607.829	46.86
608.248	46.54
608.666	46.22
609.085	45.93
609.503	45.6
609.921	45.29
610.339	45.02
610.758	44.76
611.176	44.46
611.594	44.14
612.012	43.81
612.43	43.53
612.847	43.21
613.265	42.93
613.683	42.69
614.101	42.48
614.518	42.28
614.936	42.07
615.353	41.86
615.771	41.7
616.188	41.6
616.606	41.49
617.023	41.39
617.44	41.29
617.857	41.14
618.274	40.97
618.691	40.79
619.108	40.6
619.525	40.41
619.942	40.18
620.359	39.94
620.776	39.67
621.192	39.38
621.609	39.12
622.026	38.9
622.442	38.72
622.859	38.54
623.275	38.36
623.691	38.15
624.108	37.94
624.524	37.79
624.94	37.63
625.356	37.48
625.772	37.36
626.188	37.25
626.604	37.09
627.02	36.94
627.436	36.78
627.852	36.65
628.268	36.58
628.683	36.52
629.099	36.45
629.514	36.37
629.93	36.31
630.345	36.25
630.761	36.19
631.176	36.14
631.591	36.08
632.007	36.02
632.422	35.96
632.837	35.88
633.252	35.78
633.667	35.68
634.082	35.61
634.497	35.52
634.911	35.4
635.326	35.25
635.741	35.08
636.155	34.89
636.57	34.68
636.984	34.43
637.399	34.17
637.813	33.89
638.228	33.62
638.642	33.37
639.056	33.09
639.47	32.82
639.884	32.56
640.298	32.31
640.712	32.06
641.126	31.82
641.54	31.6
641.954	31.4
642.368	31.17
642.781	30.91
643.195	30.61
643.609	30.36
644.022	30.11
644.436	29.86
644.849	29.57
645.262	29.3
645.676	29.04
646.089	28.8
646.502	28.57
646.915	28.39
647.328	28.22
647.741	28.06
648.154	27.91
648.567	27.79
648.98	27.68
649.393	27.62
649.805	27.55
650.218	27.47
650.631	27.35
651.043	27.19
651.456	26.9
651.868	26.53
652.28	26.13
652.693	25.72
653.105	25.41
653.517	25.11
653.929	24.89
654.341	24.69
654.753	24.52
655.165	24.38
655.577	24.27
655.989	24.27
656.401	24.35
656.813	24.49
657.224	24.59
657.636	24.63
658.047	24.61
658.459	24.52
658.87	24.39
659.282	24.25
659.693	24.1
660.104	23.92
660.515	23.75
660.926	23.58
661.338	23.39
661.749	23.21
662.159	23
662.57	22.79
662.981	22.6
663.392	22.43
663.803	22.25
664.213	22.08
664.624	21.93
665.035	21.76
665.445	21.61
665.855	21.44
666.266	21.27
666.676	21.12
667.086	20.97
667.497	20.81
667.907	20.64
668.317	20.49
668.727	20.34
669.137	20.22
669.547	20.09
669.956	19.97
670.366	19.86
670.776	19.76
671.186	19.66
671.595	19.58
672.005	19.52
672.414	19.48
672.824	19.42
673.233	19.35
673.642	19.29
674.052	19.24
674.461	19.19
674.87	19.14
675.279	19.1
675.688	19.06
676.097	19.03
676.506	19
676.915	18.98
677.323	18.97
677.732	18.98
678.141	19
678.549	19.03
678.958	19.07
679.366	19.11
679.775	19.15
680.183	19.21
680.592	19.28
681	19.36
681.408	19.45
681.816	19.54
682.224	19.55
682.632	19.48
683.04	19.33
683.448	19.19
683.856	19.11
684.264	19.08
684.671	19.1
685.079	19.14
685.487	19.22
685.894	19.33
686.302	19.52
686.709	19.83
687.116	20.3
687.524	20.93
687.931	21.58
688.338	22.25
688.745	22.93
689.152	23.62
689.559	24.33
689.966	25.02
690.373	25.75
690.78	26.44
691.187	27.13
691.593	27.8
692	28.46
692.407	29.14
692.813	29.83
693.22	30.48
693.626	31.1
694.032	31.72
694.439	32.34
694.845	32.91
695.251	33.53
695.657	34.08
696.063	34.61
696.469	35.13
696.875	35.59
697.281	36.01
697.687	36.44
698.093	36.86
698.498	37.3
698.904	37.74
699.31	38.17
699.715	38.62
700.12	39.08
700.526	39.54
700.931	39.98
701.337	40.44
701.742	40.88
702.147	41.31
702.552	41.75
702.957	42.13
703.362	42.57
703.767	42.95
704.172	43.32
704.577	43.65
704.981	43.97
705.386	44.3
705.791	44.62
706.195	44.95
706.6	45.25
707.004	45.55
707.408	45.85
707.813	46.08
708.217	46.33
708.621	46.54
709.025	46.78
709.43	46.99
709.834	47.24
710.237	47.41
710.641	47.59
711.045	47.78
711.449	47.96
711.853	48.1
712.256	48.22
712.66	48.25
713.064	48.22
713.467	48.11
713.87	47.97
714.274	47.76
714.677	47.51
715.08	47.25
715.484	46.98
715.887	46.71
716.29	46.51
716.693	46.4
717.096	46.46
717.499	46.62
717.901	46.91
718.304	47.25
718.707	47.57
719.109	47.95
719.512	48.3
719.915	48.58
720.317	48.89
720.719	49.14
721.122	49.29
721.524	49.38
721.926	49.44
722.328	49.43
722.731	49.43
723.133	49.41
723.535	49.43
723.937	49.5
724.338	49.55
724.74	49.57
725.142	49.6
725.544	49.68
725.945	49.72
726.347	49.78
726.748	49.82
727.15	49.83
727.551	49.93
727.952	50.03
728.354	50.15
728.755	50.33
729.156	50.54
729.557	50.78
729.958	51.01
730.359	51.25
730.76	51.41
731.161	51.57
731.562	51.75
731.962	51.88
732.363	51.99
732.763	52.07
733.164	52.12
733.564	52.15
733.965	52.12
734.365	52.07
734.766	51.97
735.166	51.91
735.566	51.85
735.966	51.8
736.366	51.73
736.766	51.67
737.166	51.6
737.566	51.53
737.966	51.45
738.365	51.42
738.765	51.4
739.165	51.4
739.564	51.44
739.964	51.45
740.363	51.44
740.763	51.42
741.162	51.4
741.561	51.42
741.96	51.45
742.36	51.46
742.759	51.42
743.158	51.37
743.557	51.34
743.955	51.32
744.354	51.3
744.753	51.26
745.152	51.2
745.55	51.16
745.949	51.05
746.348	50.97
746.746	50.87
747.144	50.83
747.543	50.77
747.941	50.7
748.339	50.59
748.737	50.5
749.136	50.45
749.534	50.44
749.932	50.39
750.33	50.35
750.727	50.35
751.125	50.28
751.523	50.21
751.921	50.16
752.318	50.12
752.716	50.07
753.113	50
753.511	49.9
753.908	49.78
754.305	49.64
754.703	49.38
755.1	48.8
755.497	47.9
755.894	46.55
756.291	44.84
756.688	42.97
757.085	41.13
757.482	39.47
757.878	37.93
758.275	36.47
758.672	34.99
759.068	33.57
759.465	32.46
759.861	31.83
760.258	31.73
760.654	32.06
761.05	32.69
761.447	33.41
761.843	34.07
762.239	34.73
762.635	35.47
763.031	36.36
763.427	37.41
763.822	38.52
764.218	39.64
764.614	40.69
765.01	41.68
765.405	42.57
765.801	43.37
766.196	44.1
766.592	44.73
766.987	45.24
767.382	45.62
767.778	45.92
768.173	46.12
768.568	46.21
768.963	46.28
769.358	46.35
769.753	46.44
770.148	46.47
770.542	46.42
770.937	46.35
771.332	46.29
771.726	46.24
772.121	46.18
772.515	46.17
772.91	46.15
773.304	46.11
773.699	46.03
774.093	45.91
774.487	45.85
774.881	45.79
775.275	45.76
775.669	45.69
776.063	45.62
776.457	45.52
776.851	45.39
777.245	45.3
777.638	45.2
778.032	45.14
778.425	45.08
778.819	44.98
779.212	44.88
779.606	44.77
779.999	44.65
780.392	44.54
780.786	44.45
781.179	44.37
781.572	44.25
781.965	44.15
782.358	44.02
782.751	43.93
783.143	43.82
783.536	43.76
783.929	43.66
784.322	43.62
784.714	43.49
785.107	43.39
785.499	43.26
785.891	43.14
786.284	43
786.676	42.89
787.068	42.71
787.46	42.55
787.852	42.39
788.245	42.23
788.636	42.02
789.028	41.87
789.42	41.69
789.812	41.56
790.204	41.39
790.595	41.28
790.987	41.1
791.378	40.97
791.77	40.87
792.161	40.76
792.553	40.63
792.944	40.55
793.335	40.48
793.726	40.42
794.117	40.31
794.508	40.25
794.899	40.17
795.29	40.1
795.681	39.99
796.072	39.88
796.463	39.76
796.853	39.67
797.244	39.54
797.634	39.39
798.025	39.25
798.415	39.14
798.806	39.01
799.196	38.85
799.586	38.74
799.976	38.61
800.366	38.45
800.756	38.29
801.146	38.11
801.536	37.97
801.926	37.84
802.316	37.72
802.706	37.59
803.095	37.46
803.485	37.34
803.874	37.16
804.264	37.04
804.653	36.89
805.043	36.77
805.432	36.62
805.821	36.46
806.21	36.31
806.599	36.15
806.988	35.99
807.377	35.84
807.766	35.67
808.155	35.52
808.544	35.32
808.933	35.17
809.321	34.99
809.71	34.82
810.098	34.62
810.487	34.41
810.875	34.15
811.264	33.88
811.652	33.59
812.04	33.31
812.428	33.03
812.816	32.79
813.204	32.51
813.592	32.27
813.98	32.03
814.368	31.81
814.756	31.57
815.144	31.4
815.531	31.23
815.919	31.1
816.306	31.01
816.694	30.94
817.081	30.86
817.469	30.8
817.856	30.72
818.243	30.6
818.63	30.49
819.017	30.37
819.404	30.23
819.791	30.15
820.178	30.05
820.565	29.98
820.952	29.89
821.339	29.77
821.725	29.68
822.112	29.63
822.498	29.64
822.885	29.6
823.271	29.59
823.657	29.58
824.044	29.52
824.43	29.44
824.816	29.34
825.202	29.21
825.588	29.12
825.974	29.02
826.36	28.87
826.746	28.77
827.132	28.67
827.517	28.56
827.903	28.48
828.289	28.39
828.674	28.28
829.06	28.19
829.445	28.15
829.83	28.08
830.216	28.02
830.601	27.96
830.986	27.89
831.371	27.87
831.756	27.81
832.141	27.75
832.526	27.7
832.911	27.69
833.295	27.67
833.68	27.62
834.065	27.59
834.449	27.54
834.834	27.52
835.218	27.46
835.603	27.39
835.987	27.36
836.371	27.33
836.755	27.28
837.139	27.21
837.524	27.15
837.908	27.08
838.291	27.03
838.675	26.98
839.059	26.94
839.443	26.9
839.827	26.83
840.21	26.78
840.594	26.72
840.977	26.67
841.361	26.64
841.744	26.61
842.127	26.57
842.511	26.55
842.894	26.51
843.277	26.43
843.66	26.4
844.043	26.38
844.426	26.34
844.809	26.26
845.191	26.21
845.574	26.13
845.957	26.04
846.339	25.96
846.722	25.87
847.104	25.8
847.487	25.76
847.869	25.69
848.252	25.63
848.634	25.57
849.016	25.55
849.398	25.47
849.78	25.4
850.162	25.34
850.544	25.29
850.926	25.22
851.307	25.16
851.689	25.09
852.071	25.04
852.452	25.02
852.834	24.97
853.215	24.92
853.597	24.93
853.978	24.93
854.359	24.94
854.741	24.95
855.122	24.98
855.503	24.98
855.884	24.97
856.265	24.94
856.646	24.89
857.026	24.87
857.407	24.83
857.788	24.81
858.169	24.79
858.549	24.77
858.93	24.74
859.31	24.69
859.69	24.63
860.071	24.61
860.451	24.58
860.831	24.55
861.211	24.51
861.591	24.47
861.971	24.38
862.351	24.31
862.731	24.22
863.111	24.16
863.491	24.11
863.87	24.06
864.25	24.01
864.629	23.97
865.009	23.92
865.388	23.89
865.768	23.87
866.147	23.87
866.526	23.88
866.905	23.9
867.284	23.88
867.663	23.9
868.042	23.89
868.421	23.89
868.8	23.88
869.179	23.87
869.558	23.87
869.936	23.86
870.315	23.85
870.693	23.84
871.072	23.8
871.45	23.77
871.828	23.73
872.207	23.73
872.585	23.69
872.963	23.66
873.341	23.66
873.719	23.64
874.097	23.63
874.475	23.62
874.853	23.58
875.23	23.58
875.608	23.59
875.986	23.56
876.363	23.53
876.741	23.52
877.118	23.49
877.495	23.45
877.873	23.42
878.25	23.38
878.627	23.35
879.004	23.35
879.381	23.33
879.758	23.28
880.135	23.28
880.512	23.27
880.889	23.26
881.265	23.25
881.642	23.25
882.019	23.25
882.395	23.25
882.772	23.24
883.148	23.2
883.524	23.19
883.901	23.18
884.277	23.18
884.653	23.15
885.029	23.16
885.405	23.15
885.781	23.13
886.157	23.1
886.532	23.07
886.908	23.07
887.284	23.07
887.659	23.07
888.035	23.07
888.411	23.03
888.786	23.01
889.161	22.99
889.537	22.96
889.912	22.93
890.287	22.91
890.662	22.89
891.037	22.86
891.412	22.8
891.787	22.76
892.162	22.71
892.536	22.69
892.911	22.66
893.286	22.59
893.66	22.55
894.035	22.5
894.409	22.44
894.784	22.4
895.158	22.35
895.532	22.31
895.906	22.26
896.281	22.22
896.655	22.15
897.029	22.09
897.402	22.06
897.776	22.03
898.15	22
898.524	21.97
898.898	21.94
899.271	21.92
899.645	21.93
900.018	21.9
900.392	21.9
900.765	21.94
901.138	21.98
901.511	22.01
901.884	21.99
902.258	22.01
902.631	22.03
903.003	22.05
903.376	22.04
903.749	22.04
904.122	22.05
904.495	22.05
904.867	22.01
905.24	21.96
905.612	21.92
905.985	21.89
906.357	21.88
906.729	21.86
907.102	21.83
907.474	21.85
907.846	21.8
908.218	21.77
908.59	21.74
908.962	21.74
909.334	21.74
909.705	21.74
910.077	21.76
910.449	21.74
910.82	21.7
911.192	21.67
911.563	21.62
911.935	21.61
912.306	21.59
912.677	21.59
913.048	21.58
913.419	21.55
913.79	21.51
914.161	21.46
914.532	21.45
914.903	21.47
915.274	21.48
915.645	21.51
916.015	21.53
916.386	21.51
916.756	21.49
917.127	21.51
917.497	21.53
917.868	21.55
918.238	21.58
918.608	21.56
918.978	21.57
919.348	21.56
919.718	21.56
920.088	21.55
920.458	21.6
920.828	21.61
921.198	21.58
921.567	21.55
921.937	21.56
922.306	21.54
922.676	21.59
923.045	21.56
923.415	21.54
923.784	21.54
924.153	21.54
924.522	21.49
924.891	21.46
925.26	21.45
925.629	21.44
925.998	21.39
926.367	21.35
926.736	21.27
927.104	21.26
927.473	21.23
927.842	21.18
928.21	21.12
928.578	21.08
928.947	21.04
929.315	20.99
929.683	20.93
930.051	20.88
930.42	20.78
930.788	20.72
931.156	20.62
931.523	20.54
931.891	20.47
932.259	20.42
932.627	20.33
932.994	20.28
933.362	20.17
933.729	20.12
934.097	20.09
934.464	20.12
934.831	20.1
935.199	20.1
935.566	20.14
935.933	20.16
936.3	20.18
936.667	20.24
937.034	20.26
937.401	20.31
937.767	20.4
938.134	20.42
938.501	20.45
938.867	20.53
939.234	20.6
939.6	20.6
939.967	20.6
940.333	20.65
940.699	20.67
941.065	20.69
941.431	20.75
941.798	20.76
942.163	20.8
942.529	20.81
942.895	20.78
943.261	20.71
943.627	20.73
943.992	20.77
944.358	20.76
944.723	20.77
945.089	20.74
945.454	20.81
945.82	20.75
946.185	20.74
946.55	20.79
946.915	20.76
947.28	20.75
947.645	20.7
948.01	20.64
948.375	20.66
948.74	20.6
949.104	20.58
949.469	20.48
949.834	20.47
950.198	20.42
950.562	20.36
950.927	20.41
951.291	20.42
951.655	20.47
952.02	20.42
952.384	20.42
952.748	20.43
953.112	20.45
953.476	20.42
953.839	20.43
954.203	20.42
954.567	20.42
954.931	20.38
955.294	20.35
955.658	20.25
956.021	20.28
956.385	20.26
956.748	20.3
957.111	20.26
957.474	20.33
957.837	20.35
958.2	20.37
958.563	20.35
958.926	20.37
959.289	20.42
959.652	20.51
960.015	20.54
960.377	20.5
960.74	20.46
961.102	20.49
961.465	20.42
961.827	20.34
962.189	20.32
962.552	20.31
962.914	20.24
963.276	20.25
963.638	20.19
964	20.15
964.362	20.16
964.724	20.21
965.085	20.22
965.447	20.29
965.809	20.23
966.17	20.24
966.532	20.23
966.893	20.32
967.255	20.25
967.616	20.26
967.977	20.32
968.338	20.31
968.699	20.29
969.061	20.23
969.421	20.21
969.782	20.3
970.143	20.3
970.504	20.33
970.865	20.27
971.225	20.28
971.586	20.32
971.946	20.29
972.307	20.31
972.667	20.31
973.027	20.41
973.388	20.34
973.748	20.37
974.108	20.29
974.468	20.25
974.828	20.25
975.188	20.26
975.548	20.22
975.907	20.21
976.267	20.23
976.627	20.19
976.986	20.08
977.346	20.14
977.705	20.17
978.064	20.33
978.424	20.37
978.783	20.4
979.142	20.42
979.501	20.38
979.86	20.37
980.219	20.3
980.578	20.34
980.937	20.42
981.296	20.36
981.654	20.35
982.013	20.34
982.371	20.3
982.73	20.31
983.088	20.3
983.447	20.31
983.805	20.25
984.163	20.25
984.521	20.22
984.879	20.23
985.237	20.31
985.595	20.39
985.953	20.32
986.311	20.35
986.669	20.37
987.026	20.36
987.384	20.46
987.741	20.55
988.099	20.65
988.456	20.64
988.814	20.64
989.171	20.61
989.528	20.44
989.885	20.42
990.242	20.42
990.599	20.34
990.956	20.45
991.313	20.36
991.67	20.31
992.027	20.32
992.383	20.31
992.74	20.3
993.096	20.28
993.453	20.35
993.809	20.33
994.165	20.32
994.522	20.33
994.878	20.24
995.234	20.23
995.59	20.09
995.946	20.08
996.302	20.13
996.658	20.18
997.013	20.3
997.369	20.27
997.725	20.21
998.08	20.23
998.436	20.29
998.791	20.29
999.147	20.3
999.502	20.49
999.857	20.53
1000.212	20.43
1000.567	20.39
1000.922	20.25
1001.277	20.24
1001.632	20.39
1001.987	20.17
1002.342	20.12
1002.696	20.09
1003.051	20.03
1003.406	19.9
1003.76	19.91
1004.114	19.89
1004.469	19.83
1004.823	19.97
1005.177	19.95
1005.531	19.91
1005.885	20.01
1006.239	19.93
1006.593	19.89
1006.947	19.98
1007.301	20.1
1007.655	20.01
1008.008	20.04
1008.362	20.06
1008.715	19.9
1009.069	19.95
1009.422	19.8
1009.776	19.82
1010.129	19.88
1010.482	19.99
1010.835	20.01
1011.188	19.81
1011.541	19.54
1011.894	19.47
1012.247	19.43
1012.6	19.36
1012.952	19.32
1013.305	19.2
1013.657	19.36
1014.01	19.51
1014.362	19.49
1014.715	19.3
1015.067	19.53
1015.419	19.78
1015.771	19.9
1016.123	19.73
1016.475	19.88
1016.827	19.98
1017.179	20.17
1017.531	20.12
1017.883	20.03
1018.234	20.06
1018.586	19.99
1018.938	19.81
1019.289	19.93
1019.64	20.04
1019.992	20.17
1020.343	19.91
1020.694	19.75
1021.045	19.83
1021.396	19.88
1021.747	20
1022.098	20.13
1022.449	20.24
1022.8	20.27
1023.151	19.82
1023.501	19.63
1023.852	19.78
1024.202	20.08
1024.553	19.98
1024.903	19.95
1025.253	19.89
1025.604	19.86
1025.954	19.56
1026.304	19.85
1026.654	19.95
1027.004	20.45
1027.354	20.43
1027.703	20.42
1028.053	20.12
1028.403	20.57
1028.753	20.55
1029.102	20.67
1029.452	20.57
1029.801	20.72
1030.15	20.7
1030.499	20.66
897.758	694.87
901.051	697.99
904.343	708.42
907.636	693.12
910.928	681.54
914.22	694.26
917.511	682.95
920.803	651.61
924.094	625.5
927.384	631.35
930.675	605.63
933.965	598.38
937.255	600.45
940.544	570.1
943.834	548.33
947.123	538.97
950.411	508.54
953.7	498.32
956.988	484.72
960.276	461.06
963.563	455.74
966.851	436.82
970.138	426.09
973.424	396.1
976.711	390.51
979.997	376.05
983.283	369.37
986.568	358.24
989.853	346.68
993.138	332.63
996.423	329.91
999.708	318
1002.992	317.7
1006.275	310.02
1009.559	306.83
1012.842	299.22
1016.125	290.41
1019.408	283.9
1022.69	281.34
1025.972	279.77
1029.254	272.76
1032.536	266.27
1035.817	258.45
1039.098	254.05
1042.379	248.49
1045.659	245.11
1048.939	242.3
1052.219	239.28
1055.498	233.32
1058.778	228.96
1062.057	223.36
1065.335	222.58
1068.614	219.06
1071.892	215.88
1075.17	211.74
1078.447	208.31
1081.724	206.45
1085.001	202.84
1088.278	200.82
1091.554	200.45
1094.83	199.09
1098.106	196.46
1101.382	195.48
1104.657	194.99
1107.932	194.05
1111.206	192.54
1114.481	191.91
1117.755	190.07
1121.029	188.9
1124.302	186.14
1127.575	183.21
1130.848	182.52
1134.121	180.04
1137.393	179.09
1140.665	177.97
1143.937	175.93
1147.208	174.09
1150.48	171.59
1153.75	171.61
1157.021	169.1
1160.291	168.95
1163.561	169.77
1166.831	167.05
1170.101	167.68
1173.37	165.61
1176.639	163.85
1179.907	164.25
1183.176	164.29
1186.444	164.31
1189.711	163.01
1192.979	165.88
1196.246	165.3
1199.513	163.38
1202.78	165.29
1206.046	164.98
1209.312	166.5
1212.578	167.41
1215.843	169.52
1219.108	169.92
1222.373	172.87
1225.638	175.52
1228.902	178.46
1232.166	184.52
1235.43	188.11
1238.693	192.79
1241.956	197.43
1245.219	203
1248.482	203.95
1251.744	203.17
1255.006	204.75
1258.268	198.84
1261.529	197.42
1264.79	191.94
1268.051	188.02
1271.312	185.85
1274.572	181.62
1277.832	176.71
1281.092	174.22
1284.351	171.44
1287.61	170.93
1290.869	169.76
1294.128	169.63
1297.386	167.74
1300.644	167.1
1303.902	166.06
1307.159	166.29
1310.416	167.61
1313.673	170.64
1316.93	170.59
1320.186	173.78
1323.442	176.05
1326.697	179.77
1329.953	181.41
1333.208	188.41
1336.463	196.2
1339.717	200.21
1342.972	209.46
1346.226	215.13
1349.479	216.68
1352.733	227.7
1355.986	231.62
1359.238	237.32
1362.491	238.34
1365.743	248.05
1368.995	249.85
1372.247	248.49
1375.498	247.41
1378.749	255.36
1382	254.17
1385.251	254.17
1388.501	253.1
1391.751	256.43
1395	254.8
1398.25	257.9
1401.499	256.68
1404.748	257.13
1407.996	252.74
1411.244	253.91
1414.492	249.15
1417.74	243.71
1420.987	237.5
1424.234	234.29
1427.481	225.03
1430.728	220.13
1433.974	211.93
1437.22	205.31
1440.465	198.16
1443.711	192.96
1446.956	186.68
1450.201	180.26
1453.445	171.82
1456.689	167.33
1459.933	160.9
1463.177	155.13
1466.42	151.55
1469.663	147.02
1472.906	142.56
1476.148	139.01
1479.391	136.01
1482.633	134.17
1485.874	130.76
1489.115	130.34
1492.356	127.22
1495.597	126.33
1498.838	125.36
1502.078	124.11
1505.318	123.84
1508.557	123.23
1511.797	121.28
1515.036	120.96
1518.274	119.68
1521.513	118.55
1524.751	117.78
1527.989	118.85
1531.227	117.88
1534.464	117.29
1537.701	116.44
1540.938	115.88
1544.174	115.98
1547.41	115.76
1550.646	115.14
1553.882	115.33
1557.117	114.82
1560.352	114.13
1563.587	113.19
1566.821	113.07
1570.055	111.88
1573.289	111.72
1576.523	111.9
1579.756	111.27
1582.989	111.83
1586.222	111.65
1589.454	110.81
1592.686	110.87
1595.918	110.61
1599.15	110.37
1602.381	110.46
1605.612	111.04
1608.843	110.85
1612.073	111.45
1615.303	111.06
1618.533	110.6
1621.762	110.73
1624.992	111.06
1628.221	110.96
1631.449	111.65
1634.678	111.14
1637.906	111.11
1641.134	111.53
1644.361	111.32
1647.588	110.8
1650.815	110.97
1654.042	111.58
1657.269	111.28
1660.495	112.04
1663.72	111.4
1666.946	111.31
1670.171	112.2
1673.396	113.25
1676.621	113.1
1679.845	113.5
1683.069	113.29
1686.293	113.42
1689.517	113.03
1692.74	113.44
1695.963	113.55
1699.185	114.86
1702.408	114.78
1705.63	114.97
1708.852	115.16
1712.073	115.2
1715.294	115.14
1718.515	115.9
1721.736	115.87
1724.956	116.37
1728.176	116.09
1731.396	116.94
1734.616	116.9
1737.835	117.32
1741.054	116.51
1744.272	116.37
1747.491	116.32
1750.709	117.25
1753.927	117.4
1757.144	117.96
1760.361	118.3
1763.578	119.33
1766.795	119.36
1770.011	119.2
1773.227	119.98
1776.443	121.93
1779.658	121.96
1782.874	123.12
1786.089	123.14
1789.303	123.31
1792.518	124.68
1795.732	125.32
1798.945	126.31
1802.159	126.27
1805.372	127.98
1808.585	128.94
1811.797	129.6
1815.01	130.5
1818.222	131.49
1821.434	132.47
1824.645	133.7
1827.856	134.96
1831.067	135.5
1834.278	136.58
1837.488	138.03
1840.698	139.84
1843.908	140.07
1847.117	141.43
1850.326	142.74
1853.535	142.82
1856.744	144.73
1859.952	146.22
1863.16	146.89
1866.368	146.78
1869.575	147.35
1872.782	147.54
1875.989	146.51
1879.196	144.73
1882.402	144.01
1885.608	145.09
1888.814	145.13
1892.019	145.86
1895.224	143.93
1898.429	143.74
1901.634	144.73
1904.838	146.03
1908.042	145.66
1911.246	145.94
1914.449	148.25
1917.652	147.04
1920.855	146.93
1924.058	146.94
1927.26	145.98
1930.462	146.25
1933.664	146.8
1936.865	146.97
1940.066	143.95
1943.267	144.15
1946.467	144.55
1949.668	144.7
1952.868	145.85
1956.067	145.43
1959.267	146.13
1962.466	147.15
1965.665	149.16
1968.863	150.03
1972.061	149.39
1975.259	153.49
1978.457	154.53
1981.654	156.53
1984.852	157.44
1988.048	159.22
1991.245	161.39
1994.441	164.36
1997.637	168.27
2000.833	171.96
2004.028	171.73
2007.223	179.87
2010.418	182.54
2013.613	190.44
2016.807	194.53
2020.001	198.67
2023.194	203.9
2026.388	211.36
2029.581	220.83
2032.774	226.68
2035.966	232.92
2039.158	241.53
2042.35	243.69
2045.542	248.64
2048.733	257.91
2051.924	260.85
2055.115	266.89
2058.306	269.26
2061.496	275.29
2064.686	276.2
2067.875	273.66
2071.065	276.74
2074.254	278.02
2077.442	285.91
2080.631	288.36
2083.819	289.12
2087.007	295.33
2090.195	298.47
2093.382	299.39
2096.569	298.53
2099.756	303.92
2102.942	311.26
2106.128	316.29
2109.314	318.72
2112.5	318.57
2115.685	318.33
2118.87	318.06
2122.055	319.76
2125.239	327.4
2128.424	334.82
2131.608	331.27
2134.791	333.35
2137.974	332.75
2141.157	335.62
2144.34	338.2
2147.523	343.29
2150.705	350.7
2153.887	348.71
2157.068	350.82
2160.25	354.33
2163.431	352.38
2166.611	358.15
2169.792	363.54
2172.972	370.73
2176.152	370.75
2179.331	379.07
2182.511	378.82
2185.69	383.03
2188.868	398.5
2192.047	408.2
2195.225	412.9
2198.403	420.56
2201.58	418.55
2204.758	431.93
2207.935	432.77
2211.111	442.46
2214.288	445.46
2217.464	450.66
2220.64	454.39
2223.815	455.02
2226.991	448.76
2230.166	452.74
2233.34	464.58
2236.515	477.21
2239.689	468.35
2242.863	477.46
2246.036	470.44
2249.209	484.24
2252.382	484.62
2255.555	502.15
2258.727	503.7
2261.9	523.78
2265.071	528.18
2268.243	525.37
2271.414	538.8
2274.585	548.84
2277.756	551.02
2280.926	575.14
2284.096	569.91
2287.266	571.51
2290.436	560.46
2293.605	573.72
2296.774	589.49
2299.942	593.44
2303.111	611.47
2306.279	624.12
2309.447	625.06
2312.614	626.48
2315.781	641.11
2318.948	649.96
2322.115	663.34
2325.281	696.01
2328.447	692
2331.613	691.04
2334.779	699.64
2337.944	710.23
2341.109	725.41
2344.274	733.33
2347.438	754.45
2350.602	765.8
2353.766	809.07
2356.929	816.42
2360.092	829.66
2363.255	833.39
2366.418	846.64
2369.58	862.53
2372.742	860.6
2375.904	854.48
2379.066	879.77
2382.227	923.95
2385.388	928.15
2388.548	886.13
2391.709	875.12
2394.869	902
2398.029	899.65
2401.188	906.19
2404.347	935.82
2407.506	963.21
2410.665	928.3
2413.823	930.1
2416.981	934.57
2420.139	882.57
2423.296	954.56
2426.453	1012.92
2429.61	968.94
2432.767	1039.9
2435.923	1066.21
2439.079	1020.48
2442.235	1052.48
2445.391	1077.52
2448.546	1068.48
2451.701	1132.9
2454.855	1206.96
2458.009	1066.38
2461.163	1092.85
2464.317	1094.36
2467.471	1074.36
2470.624	1107.53
2473.777	1084.84
2476.929	1047.31
2480.082	1116.15
2483.234	1176.22
2486.385	1191.37
2489.537	1220.9
2492.688	1341.02
2495.839	1308.75
2498.989	1352.68
2502.14	1356.28
2505.29	1299.38
2508.439	1449.17
2511.589	1485.59
2514.738	1446.16
2517.887	1434.39
2521.035	1335.01
2524.183	1316.92
2527.331	1309.43
2530.479	1280.76
2533.627	1308.65
