Data from N_2_dec_va_2n_049_Splice17_06.txt Node
Date: Sat Feb 29 13:56:09 EST 2020
User: sa697716
Spectrometer: FLMS03696
Trigger mode: 0
Integration Time (sec): 3.180400E-1
Scans to average: 20
Electric dark correction enabled: true
Nonlinearity correction enabled: true
Boxcar width: 5
XAxis mode: Wavelengths
Number of Pixels in Spectrum: 2048
>>>>>Begin Spectral Data<<<<<
187.83	73.89
188.298	67.69
188.766	73.3
189.233	74
189.701	92.1
190.169	94.85
190.636	99.6
191.104	91.1
191.571	273.54
192.039	277.54
192.506	-559.66
192.974	998.74
193.441	307.73
193.908	79.25
194.375	92.62
194.842	253.65
195.31	160.18
195.777	165.35
196.244	33.75
196.711	21.85
197.177	16.87
197.644	15.76
198.111	12.78
198.578	13.83
199.045	14.22
199.511	15.19
199.978	15.47
200.445	15.54
200.911	16.01
201.378	16.13
201.844	16.2
202.31	16.81
202.777	16.98
203.243	18.16
203.709	18.31
204.176	17.99
204.642	17.51
205.108	17.41
205.574	17.72
206.04	17.57
206.506	17.64
206.972	17.89
207.438	17.75
207.903	17.93
208.369	17.34
208.835	17.17
209.301	16.95
209.766	16.69
210.232	16.85
210.697	16.55
211.163	16.38
211.628	16.4
212.094	16.23
212.559	15.98
213.024	15.62
213.49	15.67
213.955	15.58
214.42	15.66
214.885	15.46
215.35	15.11
215.815	14.68
216.28	14.23
216.745	13.73
217.21	13.16
217.675	12.73
218.14	12.28
218.604	11.66
219.069	11.23
219.534	10.75
219.998	10.42
220.463	10.15
220.927	9.92
221.392	9.7
221.856	9.5
222.32	9.28
222.785	9.09
223.249	8.96
223.713	8.86
224.177	8.72
224.642	8.64
225.106	8.57
225.57	8.44
226.034	8.36
226.497	8.25
226.961	8.13
227.425	8.01
227.889	7.91
228.353	7.77
228.816	7.69
229.28	7.56
229.744	7.46
230.207	7.37
230.671	7.28
231.134	7.17
231.597	7.08
232.061	6.98
232.524	6.93
232.987	6.84
233.45	6.77
233.914	6.67
234.377	6.61
234.84	6.55
235.303	6.46
235.766	6.39
236.229	6.31
236.691	6.25
237.154	6.19
237.617	6.12
238.08	6.06
238.542	5.99
239.005	5.92
239.468	5.87
239.93	5.8
240.393	5.76
240.855	5.69
241.317	5.65
241.78	5.6
242.242	5.54
242.704	5.49
243.166	5.46
243.629	5.42
244.091	5.38
244.553	5.33
245.015	5.29
245.477	5.23
245.939	5.19
246.4	5.14
246.862	5.11
247.324	5.09
247.786	5.05
248.247	5.02
248.709	4.98
249.17	4.95
249.632	4.91
250.093	4.87
250.555	4.85
251.016	4.83
251.477	4.8
251.939	4.76
252.4	4.71
252.861	4.68
253.322	4.66
253.783	4.65
254.244	4.62
254.705	4.59
255.166	4.58
255.627	4.56
256.088	4.53
256.549	4.51
257.009	4.49
257.47	4.48
257.931	4.45
258.391	4.41
258.852	4.38
259.312	4.36
259.773	4.34
260.233	4.3
260.694	4.28
261.154	4.26
261.614	4.24
262.074	4.22
262.534	4.19
262.994	4.17
263.455	4.16
263.915	4.13
264.374	4.11
264.834	4.1
265.294	4.08
265.754	4.06
266.214	4.04
266.673	4.04
267.133	4.02
267.593	4.02
268.052	4
268.512	3.98
268.971	3.97
269.431	3.96
269.89	3.95
270.349	3.95
270.809	3.94
271.268	3.93
271.727	3.91
272.186	3.9
272.645	3.88
273.104	3.87
273.563	3.86
274.022	3.84
274.481	3.83
274.94	3.81
275.399	3.79
275.857	3.78
276.316	3.77
276.775	3.75
277.233	3.74
277.692	3.73
278.15	3.71
278.609	3.7
279.067	3.69
279.525	3.67
279.984	3.67
280.442	3.66
280.9	3.64
281.358	3.63
281.816	3.62
282.274	3.61
282.732	3.59
283.19	3.58
283.648	3.58
284.106	3.56
284.564	3.55
285.021	3.54
285.479	3.52
285.937	3.51
286.394	3.49
286.852	3.47
287.309	3.47
287.767	3.46
288.224	3.44
288.682	3.43
289.139	3.43
289.596	3.42
290.053	3.4
290.511	3.38
290.968	3.37
291.425	3.36
291.882	3.36
292.339	3.34
292.796	3.32
293.252	3.31
293.709	3.3
294.166	3.27
294.623	3.26
295.079	3.26
295.536	3.25
295.992	3.23
296.449	3.23
296.905	3.21
297.362	3.2
297.818	3.19
298.274	3.18
298.731	3.17
299.187	3.16
299.643	3.15
300.099	3.15
300.555	3.14
301.011	3.14
301.467	3.13
301.923	3.13
302.379	3.12
302.835	3.12
303.291	3.11
303.746	3.1
304.202	3.1
304.658	3.09
305.113	3.07
305.569	3.07
306.024	3.06
306.479	3.05
306.935	3.05
307.39	3.04
307.845	3.03
308.301	3.03
308.756	3.03
309.211	3.03
309.666	3.03
310.121	3.03
310.576	3.02
311.031	3.02
311.486	3.02
311.94	3
312.395	3
312.85	3
313.305	2.99
313.759	2.98
314.214	2.97
314.668	2.97
315.123	2.96
315.577	2.96
316.032	2.96
316.486	2.95
316.94	2.95
317.394	2.94
317.849	2.94
318.303	2.93
318.757	2.92
319.211	2.91
319.665	2.91
320.119	2.9
320.572	2.9
321.026	2.88
321.48	2.87
321.934	2.87
322.387	2.86
322.841	2.85
323.295	2.84
323.748	2.84
324.202	2.84
324.655	2.84
325.108	2.83
325.562	2.82
326.015	2.82
326.468	2.81
326.921	2.8
327.374	2.8
327.827	2.79
328.28	2.78
328.733	2.77
329.186	2.76
329.639	2.74
330.092	2.73
330.545	2.74
330.997	2.73
331.45	2.73
331.903	2.73
332.355	2.73
332.808	2.74
333.26	2.73
333.713	2.74
334.165	2.75
334.617	2.76
335.069	2.75
335.522	2.75
335.974	2.74
336.426	2.75
336.878	2.74
337.33	2.73
337.782	2.73
338.234	2.73
338.686	2.73
339.137	2.73
339.589	2.73
340.041	2.74
340.493	2.73
340.944	2.73
341.396	2.73
341.847	2.72
342.299	2.71
342.75	2.7
343.201	2.69
343.653	2.68
344.104	2.66
344.555	2.66
345.006	2.65
345.457	2.64
345.908	2.63
346.359	2.63
346.81	2.63
347.261	2.64
347.712	2.64
348.163	2.64
348.613	2.65
349.064	2.64
349.515	2.63
349.965	2.62
350.416	2.62
350.866	2.61
351.317	2.61
351.767	2.6
352.217	2.59
352.668	2.58
353.118	2.59
353.568	2.58
354.018	2.6
354.468	2.6
354.918	2.61
355.368	2.62
355.818	2.61
356.268	2.61
356.718	2.62
357.168	2.62
357.617	2.61
358.067	2.6
358.517	2.59
358.966	2.59
359.416	2.6
359.865	2.6
360.315	2.6
360.764	2.6
361.213	2.59
361.663	2.6
362.112	2.61
362.561	2.62
363.01	2.63
363.459	2.64
363.908	2.63
364.357	2.62
364.806	2.62
365.255	2.62
365.703	2.62
366.152	2.62
366.601	2.63
367.05	2.63
367.498	2.64
367.947	2.63
368.395	2.63
368.844	2.63
369.292	2.63
369.74	2.64
370.189	2.64
370.637	2.65
371.085	2.66
371.533	2.66
371.981	2.66
372.429	2.65
372.877	2.66
373.325	2.65
373.773	2.66
374.221	2.67
374.669	2.66
375.116	2.66
375.564	2.66
376.012	2.66
376.459	2.67
376.907	2.67
377.354	2.68
377.801	2.68
378.249	2.7
378.696	2.71
379.143	2.72
379.591	2.73
380.038	2.75
380.485	2.78
380.932	2.8
381.379	2.8
381.826	2.82
382.273	2.83
382.72	2.85
383.166	2.86
383.613	2.88
384.06	2.9
384.506	2.92
384.953	2.94
385.4	2.95
385.846	2.96
386.292	2.99
386.739	3.01
387.185	3.04
387.631	3.06
388.078	3.1
388.524	3.1
388.97	3.13
389.416	3.16
389.862	3.17
390.308	3.19
390.754	3.21
391.2	3.24
391.645	3.27
392.091	3.3
392.537	3.32
392.983	3.35
393.428	3.4
393.874	3.43
394.319	3.46
394.765	3.48
395.21	3.51
395.655	3.53
396.101	3.55
396.546	3.57
396.991	3.58
397.436	3.6
397.881	3.62
398.326	3.65
398.771	3.67
399.216	3.69
399.661	3.73
400.106	3.77
400.551	3.79
400.995	3.8
401.44	3.81
401.885	3.83
402.329	3.85
402.774	3.84
403.218	3.84
403.663	3.84
404.107	3.85
404.551	3.86
404.995	3.85
405.44	3.86
405.884	3.87
406.328	3.88
406.772	3.89
407.216	3.9
407.66	3.92
408.104	3.93
408.547	3.93
408.991	3.93
409.435	3.93
409.879	3.93
410.322	3.94
410.766	3.95
411.209	3.96
411.653	3.95
412.096	3.96
412.54	3.96
412.983	3.96
413.426	3.98
413.869	3.99
414.312	4
414.756	4.02
415.199	4.03
415.642	4.05
416.085	4.06
416.527	4.07
416.97	4.08
417.413	4.08
417.856	4.07
418.298	4.06
418.741	4.06
419.184	4.06
419.626	4.05
420.069	4.04
420.511	4.03
420.953	4.01
421.396	4.03
421.838	4.04
422.28	4.05
422.722	4.07
423.164	4.07
423.606	4.07
424.048	4.06
424.49	4.05
424.932	4.05
425.374	4.05
425.816	4.04
426.258	4.01
426.699	3.98
427.141	3.98
427.582	3.98
428.024	3.98
428.465	3.97
428.907	3.98
429.348	3.96
429.789	3.96
430.231	3.94
430.672	3.95
431.113	3.97
431.554	3.97
431.995	3.96
432.436	3.95
432.877	3.95
433.318	3.95
433.759	3.95
434.2	3.96
434.64	3.96
435.081	3.97
435.522	3.97
435.962	3.98
436.403	3.99
436.843	4
437.284	4.01
437.724	4.01
438.164	4.02
438.604	4.03
439.045	4.03
439.485	4.04
439.925	4.06
440.365	4.06
440.805	4.06
441.245	4.08
441.685	4.1
442.125	4.11
442.564	4.13
443.004	4.14
443.444	4.16
443.883	4.19
444.323	4.2
444.762	4.23
445.202	4.29
445.641	4.32
446.081	4.36
446.52	4.37
446.959	4.41
447.398	4.46
447.837	4.52
448.276	4.55
448.716	4.58
449.154	4.64
449.593	4.68
450.032	4.7
450.471	4.72
450.91	4.74
451.349	4.77
451.787	4.8
452.226	4.79
452.664	4.78
453.103	4.79
453.541	4.79
453.98	4.79
454.418	4.79
454.856	4.78
455.295	4.78
455.733	4.79
456.171	4.79
456.609	4.78
457.047	4.8
457.485	4.81
457.923	4.81
458.361	4.81
458.798	4.82
459.236	4.8
459.674	4.8
460.111	4.79
460.549	4.79
460.987	4.78
461.424	4.77
461.862	4.76
462.299	4.76
462.736	4.76
463.173	4.77
463.611	4.76
464.048	4.77
464.485	4.78
464.922	4.78
465.359	4.79
465.796	4.77
466.233	4.77
466.67	4.78
467.106	4.78
467.543	4.79
467.98	4.8
468.416	4.82
468.853	4.81
469.29	4.83
469.726	4.84
470.162	4.83
470.599	4.85
471.035	4.85
471.471	4.83
471.907	4.86
472.344	4.84
472.78	4.85
473.216	4.84
473.652	4.85
474.088	4.86
474.523	4.86
474.959	4.88
475.395	4.88
475.831	4.91
476.266	4.93
476.702	4.92
477.138	4.94
477.573	4.92
478.008	4.93
478.444	4.94
478.879	4.94
479.314	4.95
479.75	4.95
480.185	4.97
480.62	4.96
481.055	4.97
481.49	4.97
481.925	4.97
482.36	4.98
482.795	4.98
483.229	4.98
483.664	4.98
484.099	4.98
484.534	4.99
484.968	4.99
485.403	5
485.837	5.01
486.271	5.02
486.706	5.04
487.14	5.07
487.574	5.11
488.009	5.13
488.443	5.16
488.877	5.21
489.311	5.25
489.745	5.3
490.179	5.34
490.613	5.4
491.046	5.45
491.48	5.51
491.914	5.55
492.348	5.61
492.781	5.68
493.215	5.74
493.648	5.82
494.082	5.89
494.515	5.96
494.948	6.04
495.382	6.12
495.815	6.22
496.248	6.32
496.681	6.41
497.114	6.51
497.547	6.61
497.98	6.73
498.413	6.83
498.846	6.95
499.279	7.07
499.711	7.21
500.144	7.34
500.577	7.48
501.009	7.63
501.442	7.78
501.874	7.94
502.306	8.11
502.739	8.27
503.171	8.45
503.603	8.63
504.036	8.83
504.468	9.02
504.9	9.22
505.332	9.43
505.764	9.65
506.196	9.88
506.627	10.1
507.059	10.34
507.491	10.6
507.923	10.85
508.354	11.11
508.786	11.37
509.217	11.62
509.649	11.9
510.08	12.18
510.512	12.46
510.943	12.76
511.374	13.06
511.805	13.36
512.237	13.67
512.668	13.98
513.099	14.29
513.53	14.63
513.961	14.96
514.391	15.28
514.822	15.59
515.253	15.9
515.684	16.23
516.114	16.55
516.545	16.87
516.975	17.19
517.406	17.52
517.836	17.84
518.267	18.15
518.697	18.49
519.127	18.81
519.558	19.12
519.988	19.43
520.418	19.73
520.848	20.03
521.278	20.32
521.708	20.51
522.138	20.77
522.567	21.02
522.997	21.3
523.427	21.56
523.857	21.8
524.286	22.04
524.716	22.28
525.145	22.52
525.575	22.74
526.004	22.97
526.433	23.29
526.863	23.52
527.292	23.72
527.721	23.9
528.15	24.06
528.579	24.24
529.008	24.41
529.437	24.58
529.866	24.71
530.295	24.86
530.724	25
531.152	25.12
531.581	25.23
532.01	25.35
532.438	25.45
532.867	25.57
533.295	25.67
533.723	25.78
534.152	25.85
534.58	25.93
535.008	25.98
535.436	26.04
535.865	26.12
536.293	26.2
536.721	26.27
537.149	26.35
537.576	26.41
538.004	26.46
538.432	26.5
538.86	26.58
539.287	26.63
539.715	26.7
540.143	26.73
540.57	26.76
540.998	26.8
541.425	26.83
541.852	26.84
542.28	26.84
542.707	26.88
543.134	26.92
543.561	26.92
543.988	26.95
544.415	26.97
544.842	27
545.269	27.03
545.696	27.04
546.123	27.09
546.549	27.13
546.976	27.18
547.403	27.2
547.829	27.21
548.256	27.24
548.682	27.25
549.108	27.29
549.535	27.3
549.961	27.29
550.387	27.29
550.813	27.26
551.24	27.25
551.666	27.24
552.092	27.25
552.518	27.22
552.943	27.2
553.369	27.19
553.795	27.15
554.221	27.13
554.646	27.12
555.072	27.1
555.498	27.08
555.923	27.04
556.349	27
556.774	26.94
557.199	26.93
557.625	26.88
558.05	26.83
558.475	26.78
558.9	26.73
559.325	26.65
559.75	26.56
560.175	26.47
560.6	26.38
561.025	26.29
561.449	26.19
561.874	26.06
562.299	25.95
562.723	25.84
563.148	25.71
563.572	25.59
563.997	25.48
564.421	25.35
564.846	25.22
565.27	25.09
565.694	24.95
566.118	24.8
566.542	24.68
566.966	24.56
567.39	24.4
567.814	24.25
568.238	24.09
568.662	23.95
569.086	23.81
569.509	23.68
569.933	23.53
570.357	23.38
570.78	23.24
571.204	23.08
571.627	22.92
572.05	22.78
572.474	22.66
572.897	22.51
573.32	22.35
573.743	22.22
574.166	22.06
574.589	21.92
575.012	21.78
575.435	21.66
575.858	21.53
576.281	21.41
576.704	21.28
577.126	21.18
577.549	21.09
577.972	20.99
578.394	20.9
578.817	20.82
579.239	20.74
579.661	20.67
580.084	20.59
580.506	20.51
580.928	20.41
581.35	20.32
581.772	20.24
582.194	20.14
582.616	20.07
583.038	19.97
583.46	19.88
583.882	19.81
584.303	19.72
584.725	19.63
585.147	19.53
585.568	19.47
585.99	19.41
586.411	19.34
586.833	19.28
587.254	19.21
587.675	19.16
588.096	19.1
588.518	19.04
588.939	18.99
589.36	18.95
589.781	18.91
590.202	18.86
590.623	18.8
591.043	18.75
591.464	18.71
591.885	18.67
592.305	18.63
592.726	18.58
593.147	18.54
593.567	18.48
593.987	18.45
594.408	18.43
594.828	18.39
595.248	18.37
595.669	18.34
596.089	18.29
596.509	18.25
596.929	18.2
597.349	18.16
597.769	18.13
598.189	18.09
598.608	18.05
599.028	18.01
599.448	17.97
599.867	17.92
600.287	17.88
600.706	17.83
601.126	17.8
601.545	17.76
601.965	17.7
602.384	17.64
602.803	17.58
603.222	17.52
603.641	17.46
604.061	17.4
604.48	17.33
604.898	17.27
605.317	17.2
605.736	17.13
606.155	17.05
606.574	16.98
606.992	16.89
607.411	16.81
607.829	16.68
608.248	16.6
608.666	16.5
609.085	16.41
609.503	16.31
609.921	16.21
610.339	16.11
610.758	16.02
611.176	15.93
611.594	15.84
612.012	15.75
612.43	15.71
612.847	15.61
613.265	15.52
613.683	15.42
614.101	15.33
614.518	15.25
614.936	15.16
615.353	15.07
615.771	14.99
616.188	14.94
616.606	14.84
617.023	14.76
617.44	14.69
617.857	14.62
618.274	14.56
618.691	14.51
619.108	14.45
619.525	14.4
619.942	14.36
620.359	14.33
620.776	14.26
621.192	14.24
621.609	14.2
622.026	14.17
622.442	14.15
622.859	14.12
623.275	14.1
623.691	14.09
624.108	14.06
624.524	14.04
624.94	14.02
625.356	14.02
625.772	13.99
626.188	14
626.604	13.99
627.02	13.97
627.436	13.95
627.852	13.94
628.268	13.92
628.683	13.9
629.099	13.88
629.514	13.86
629.93	13.84
630.345	13.8
630.761	13.76
631.176	13.72
631.591	13.68
632.007	13.64
632.422	13.59
632.837	13.51
633.252	13.46
633.667	13.36
634.082	13.29
634.497	13.19
634.911	13.1
635.326	13
635.741	12.88
636.155	12.78
636.57	12.67
636.984	12.54
637.399	12.43
637.813	12.27
638.228	12.14
638.642	12
639.056	11.87
639.47	11.73
639.884	11.59
640.298	11.45
640.712	11.3
641.126	11.14
641.54	11
641.954	10.87
642.368	10.74
642.781	10.61
643.195	10.46
643.609	10.31
644.022	10.16
644.436	10.04
644.849	9.91
645.262	9.8
645.676	9.67
646.089	9.55
646.502	9.42
646.915	9.32
647.328	9.23
647.741	9.14
648.154	9.07
648.567	8.98
648.98	8.92
649.393	8.85
649.805	8.77
650.218	8.72
650.631	8.67
651.043	8.62
651.456	8.56
651.868	8.5
652.28	8.44
652.693	8.36
653.105	8.31
653.517	8.23
653.929	8.16
654.341	8.09
654.753	8
655.165	7.91
655.577	7.81
655.989	7.71
656.401	7.6
656.813	7.5
657.224	7.4
657.636	7.29
658.047	7.18
658.459	7.06
658.87	6.94
659.282	6.85
659.693	6.72
660.104	6.61
660.515	6.51
660.926	6.4
661.338	6.29
661.749	6.17
662.159	6.06
662.57	5.95
662.981	5.85
663.392	5.74
663.803	5.64
664.213	5.55
664.624	5.46
665.035	5.37
665.445	5.3
665.855	5.24
666.266	5.18
666.676	5.11
667.086	5.05
667.497	4.99
667.907	4.94
668.317	4.89
668.727	4.85
669.137	4.83
669.547	4.8
669.956	4.76
670.366	4.74
670.776	4.72
671.186	4.7
671.595	4.68
672.005	4.68
672.414	4.68
672.824	4.68
673.233	4.68
673.642	4.66
674.052	4.66
674.461	4.66
674.87	4.66
675.279	4.67
675.688	4.69
676.097	4.72
676.506	4.74
676.915	4.78
677.323	4.81
677.732	4.85
678.141	4.91
678.549	4.97
678.958	5.03
679.366	5.09
679.775	5.17
680.183	5.26
680.592	5.35
681	5.47
681.408	5.58
681.816	5.71
682.224	5.86
682.632	6.05
683.04	6.24
683.448	6.45
683.856	6.68
684.264	6.94
684.671	7.22
685.079	7.54
685.487	7.88
685.894	8.25
686.302	8.64
686.709	9.06
687.116	9.48
687.524	9.95
687.931	10.44
688.338	10.98
688.745	11.52
689.152	12.08
689.559	12.65
689.966	13.23
690.373	13.86
690.78	14.48
691.187	15.09
691.593	15.74
692	16.39
692.407	17.03
692.813	17.68
693.22	18.34
693.626	18.97
694.032	19.61
694.439	20.26
694.845	20.88
695.251	21.49
695.657	22.11
696.063	22.69
696.469	23.29
696.875	23.87
697.281	24.41
697.687	24.97
698.093	25.54
698.498	26.1
698.904	26.62
699.31	27.12
699.715	27.65
700.12	28.14
700.526	28.64
700.931	29.09
701.337	29.57
701.742	30.01
702.147	30.44
702.552	30.85
702.957	31.26
703.362	31.67
703.767	32.07
704.172	32.43
704.577	32.79
704.981	33.16
705.386	33.52
705.791	33.88
706.195	34.21
706.6	34.52
707.004	34.86
707.408	35.17
707.813	35.44
708.217	35.74
708.621	36.07
709.025	36.36
709.43	36.61
709.834	36.9
710.237	37.14
710.641	37.44
711.045	37.71
711.449	37.95
711.853	38.22
712.256	38.49
712.66	38.73
713.064	38.95
713.467	39.17
713.87	39.4
714.274	39.62
714.677	39.84
715.08	40.01
715.484	40.24
715.887	40.46
716.29	40.64
716.693	40.81
717.096	40.98
717.499	41.16
717.901	41.36
718.304	41.55
718.707	41.71
719.109	41.91
719.512	42.11
719.915	42.27
720.317	42.42
720.719	42.54
721.122	42.71
721.524	42.9
721.926	43.04
722.328	43.18
722.731	43.3
723.133	43.44
723.535	43.54
723.937	43.63
724.338	43.73
724.74	43.83
725.142	43.97
725.544	44.04
725.945	44.1
726.347	44.23
726.748	44.32
727.15	44.42
727.551	44.48
727.952	44.57
728.354	44.66
728.755	44.76
729.156	44.87
729.557	44.93
729.958	45.02
730.359	45.09
730.76	45.09
731.161	45.15
731.562	45.21
731.962	45.29
732.363	45.34
732.763	45.41
733.164	45.41
733.564	45.44
733.965	45.49
734.365	45.53
734.766	45.58
735.166	45.6
735.566	45.63
735.966	45.61
736.366	45.63
736.766	45.68
737.166	45.74
737.566	45.81
737.966	45.85
738.365	45.9
738.765	45.93
739.165	45.9
739.564	45.97
739.964	45.99
740.363	46.05
740.763	46.05
741.162	46.04
741.561	46.04
741.96	46.07
742.36	46.07
742.759	46.05
743.158	46.04
743.557	46.12
743.955	46.17
744.354	46.2
744.753	46.26
745.152	46.27
745.55	46.31
745.949	46.31
746.348	46.32
746.746	46.31
747.144	46.33
747.543	46.38
747.941	46.39
748.339	46.39
748.737	46.42
749.136	46.42
749.534	46.45
749.932	46.49
750.33	46.5
750.727	46.5
751.125	46.53
751.523	46.54
751.921	46.53
752.318	46.54
752.716	46.52
753.113	46.49
753.511	46.46
753.908	46.44
754.305	46.39
754.703	46.36
755.1	46.34
755.497	46.36
755.894	46.32
756.291	46.32
756.688	46.29
757.085	46.28
757.482	46.28
757.878	46.31
758.275	46.31
758.672	46.34
759.068	46.37
759.465	46.39
759.861	46.37
760.258	46.39
760.654	46.39
761.05	46.38
761.447	46.38
761.843	46.34
762.239	46.32
762.635	46.31
763.031	46.29
763.427	46.26
763.822	46.23
764.218	46.19
764.614	46.19
765.01	46.19
765.405	46.15
765.801	46.15
766.196	46.21
766.592	46.21
766.987	46.19
767.382	46.19
767.778	46.2
768.173	46.19
768.568	46.2
768.963	46.2
769.358	46.2
769.753	46.27
770.148	46.27
770.542	46.21
770.937	46.19
771.332	46.22
771.726	46.19
772.121	46.15
772.515	46.13
772.91	46.14
773.304	46.12
773.699	46.11
774.093	46.04
774.487	46.04
774.881	46.04
775.275	46.04
775.669	46
776.063	45.99
776.457	46.01
776.851	46
777.245	46.01
777.638	46.03
778.032	46.03
778.425	46.07
778.819	46.05
779.212	46.04
779.606	46.02
779.999	46.03
780.392	46.05
780.786	46.06
781.179	46.04
781.572	46.03
781.965	46
782.358	45.99
782.751	45.96
783.143	45.98
783.536	46.02
783.929	46.06
784.322	46.07
784.714	46.08
785.107	46.07
785.499	46.11
785.891	46.14
786.284	46.13
786.676	46.13
787.068	46.15
787.46	46.13
787.852	46.1
788.245	46.06
788.636	46.06
789.028	46.04
789.42	46.05
789.812	46.02
790.204	45.97
790.595	45.98
790.987	45.98
791.378	45.97
791.77	46.02
792.161	46.02
792.553	46.03
792.944	46.02
793.335	46.04
793.726	46
794.117	46.03
794.508	46.01
794.899	46.03
795.29	46.01
795.681	46
796.072	46
796.463	45.99
796.853	46.02
797.244	46.02
797.634	45.98
798.025	46.03
798.415	46.02
798.806	46.07
799.196	46.07
799.586	46.11
799.976	46.11
800.366	46.09
800.756	46.11
801.146	46.09
801.536	46.07
801.926	46.1
802.316	46.12
802.706	46.14
803.095	46.15
803.485	46.17
803.874	46.15
804.264	46.21
804.653	46.16
805.043	46.16
805.432	46.13
805.821	46.16
806.21	46.17
806.599	46.15
806.988	46.11
807.377	46.1
807.766	46.09
808.155	46.11
808.544	46.03
808.933	46.09
809.321	46.13
809.71	46.16
810.098	46.14
810.487	46.13
810.875	46.16
811.264	46.19
811.652	46.2
812.04	46.17
812.428	46.15
812.816	46.2
813.204	46.17
813.592	46.15
813.98	46.15
814.368	46.18
814.756	46.19
815.144	46.19
815.531	46.18
815.919	46.21
816.306	46.24
816.694	46.26
817.081	46.21
817.469	46.23
817.856	46.21
818.243	46.21
818.63	46.21
819.017	46.19
819.404	46.16
819.791	46.15
820.178	46.13
820.565	46.1
820.952	46.09
821.339	46.14
821.725	46.16
822.112	46.18
822.498	46.22
822.885	46.22
823.271	46.26
823.657	46.29
824.044	46.32
824.43	46.31
824.816	46.31
825.202	46.31
825.588	46.3
825.974	46.29
826.36	46.29
826.746	46.28
827.132	46.29
827.517	46.27
827.903	46.27
828.289	46.27
828.674	46.26
829.06	46.3
829.445	46.3
829.83	46.32
830.216	46.34
830.601	46.33
830.986	46.35
831.371	46.35
831.756	46.35
832.141	46.33
832.526	46.31
832.911	46.33
833.295	46.34
833.68	46.34
834.065	46.33
834.449	46.32
834.834	46.31
835.218	46.29
835.603	46.28
835.987	46.28
836.371	46.3
836.755	46.31
837.139	46.34
837.524	46.32
837.908	46.29
838.291	46.32
838.675	46.33
839.059	46.33
839.443	46.31
839.827	46.29
840.21	46.3
840.594	46.28
840.977	46.27
841.361	46.24
841.744	46.26
842.127	46.28
842.511	46.24
842.894	46.23
843.277	46.22
843.66	46.24
844.043	46.27
844.426	46.26
844.809	46.26
845.191	46.27
845.574	46.27
845.957	46.24
846.339	46.23
846.722	46.23
847.104	46.23
847.487	46.22
847.869	46.23
848.252	46.23
848.634	46.23
849.016	46.22
849.398	46.24
849.78	46.23
850.162	46.23
850.544	46.25
850.926	46.23
851.307	46.23
851.689	46.19
852.071	46.19
852.452	46.19
852.834	46.18
853.215	46.17
853.597	46.15
853.978	46.13
854.359	46.14
854.741	46.14
855.122	46.16
855.503	46.17
855.884	46.19
856.265	46.18
856.646	46.16
857.026	46.14
857.407	46.12
857.788	46.12
858.169	46.11
858.549	46.12
858.93	46.11
859.31	46.12
859.69	46.09
860.071	46.09
860.451	46.09
860.831	46.08
861.211	46.09
861.591	46.11
861.971	46.11
862.351	46.14
862.731	46.11
863.111	46.11
863.491	46.1
863.87	46.12
864.25	46.14
864.629	46.14
865.009	46.14
865.388	46.11
865.768	46.09
866.147	46.11
866.526	46.09
866.905	46.12
867.284	46.12
867.663	46.14
868.042	46.1
868.421	46.08
868.8	46.07
869.179	46.11
869.558	46.13
869.936	46.14
870.315	46.08
870.693	46.08
871.072	46.03
871.45	46.02
871.828	46
872.207	46.03
872.585	46.02
872.963	45.99
873.341	45.98
873.719	45.97
874.097	45.97
874.475	46
874.853	46
875.23	46.02
875.608	46
875.986	45.98
876.363	45.96
876.741	45.96
877.118	45.94
877.495	45.94
877.873	45.92
878.25	45.9
878.627	45.9
879.004	45.91
879.381	45.89
879.758	45.88
880.135	45.91
880.512	45.93
880.889	45.95
881.265	46
881.642	45.98
882.019	46
882.395	46.03
882.772	46.04
883.148	46.03
883.524	46.07
883.901	46.11
884.277	46.08
884.653	46.08
885.029	46.06
885.405	46.06
885.781	46.05
886.157	46.05
886.532	46.04
886.908	46.04
887.284	46.04
887.659	46.03
888.035	46.03
888.411	46.04
888.786	46.04
889.161	46.06
889.537	46.07
889.912	46.05
890.287	46.05
890.662	46.04
891.037	46.03
891.412	46.01
891.787	45.97
892.162	45.96
892.536	45.94
892.911	45.91
893.286	45.87
893.66	45.85
894.035	45.85
894.409	45.85
894.784	45.84
895.158	45.83
895.532	45.82
895.906	45.82
896.281	45.78
896.655	45.77
897.029	45.76
897.402	45.75
897.776	45.76
898.15	45.76
898.524	45.73
898.898	45.71
899.271	45.71
899.645	45.69
900.018	45.69
900.392	45.72
900.765	45.72
901.138	45.74
901.511	45.74
901.884	45.73
902.258	45.71
902.631	45.72
903.003	45.71
903.376	45.68
903.749	45.68
904.122	45.67
904.495	45.64
904.867	45.61
905.24	45.58
905.612	45.58
905.985	45.56
906.357	45.55
906.729	45.54
907.102	45.53
907.474	45.55
907.846	45.55
908.218	45.56
908.59	45.57
908.962	45.61
909.334	45.61
909.705	45.59
910.077	45.59
910.449	45.59
910.82	45.6
911.192	45.6
911.563	45.56
911.935	45.54
912.306	45.51
912.677	45.54
913.048	45.48
913.419	45.49
913.79	45.49
914.161	45.52
914.532	45.51
914.903	45.52
915.274	45.56
915.645	45.58
916.015	45.58
916.386	45.59
916.756	45.54
917.127	45.58
917.497	45.57
917.868	45.57
918.238	45.58
918.608	45.57
918.978	45.55
919.348	45.51
919.718	45.51
920.088	45.52
920.458	45.54
920.828	45.56
921.198	45.57
921.567	45.57
921.937	45.59
922.306	45.54
922.676	45.56
923.045	45.52
923.415	45.55
923.784	45.54
924.153	45.56
924.522	45.53
924.891	45.52
925.26	45.49
925.629	45.48
925.998	45.47
926.367	45.51
926.736	45.54
927.104	45.56
927.473	45.55
927.842	45.54
928.21	45.52
928.578	45.55
928.947	45.55
929.315	45.59
929.683	45.62
930.051	45.61
930.42	45.56
930.788	45.49
931.156	45.47
931.523	45.45
931.891	45.44
932.259	45.4
932.627	45.35
932.994	45.33
933.362	45.24
933.729	45.14
934.097	45.12
934.464	45.09
934.831	45.08
935.199	45.1
935.566	45.07
935.933	45.04
936.3	45
936.667	44.98
937.034	44.94
937.401	44.93
937.767	44.94
938.134	44.87
938.501	44.84
938.867	44.86
939.234	44.88
939.6	44.84
939.967	44.81
940.333	44.88
940.699	44.88
941.065	44.89
941.431	44.92
941.798	44.85
942.163	44.91
942.529	44.95
942.895	44.96
943.261	44.85
943.627	44.88
943.992	44.94
944.358	44.92
944.723	44.86
945.089	44.85
945.454	44.88
945.82	44.9
946.185	44.89
946.55	44.98
946.915	44.96
947.28	44.93
947.645	44.85
948.01	44.78
948.375	44.82
948.74	44.87
949.104	44.9
949.469	44.79
949.834	44.77
950.198	44.78
950.562	44.69
950.927	44.64
951.291	44.63
951.655	44.63
952.02	44.69
952.384	44.62
952.748	44.58
953.112	44.59
953.476	44.68
953.839	44.71
954.203	44.68
954.567	44.74
954.931	44.69
955.294	44.73
955.658	44.74
956.021	44.74
956.385	44.73
956.748	44.72
957.111	44.69
957.474	44.66
957.837	44.66
958.2	44.61
958.563	44.5
958.926	44.57
959.289	44.57
959.652	44.64
960.015	44.66
960.377	44.66
960.74	44.68
961.102	44.65
961.465	44.7
961.827	44.62
962.189	44.66
962.552	44.68
962.914	44.65
963.276	44.61
963.638	44.49
964	44.49
964.362	44.49
964.724	44.5
965.085	44.55
965.447	44.5
965.809	44.52
966.17	44.47
966.532	44.45
966.893	44.44
967.255	44.4
967.616	44.48
967.977	44.43
968.338	44.38
968.699	44.35
969.061	44.28
969.421	44.26
969.782	44.28
970.143	44.32
970.504	44.31
970.865	44.25
971.225	44.29
971.586	44.29
971.946	44.32
972.307	44.39
972.667	44.41
973.027	44.44
973.388	44.35
973.748	44.35
974.108	44.33
974.468	44.37
974.828	44.46
975.188	44.51
975.548	44.47
975.907	44.45
976.267	44.39
976.627	44.37
976.986	44.33
977.346	44.43
977.705	44.49
978.064	44.55
978.424	44.56
978.783	44.49
979.142	44.41
979.501	44.36
979.86	44.34
980.219	44.29
980.578	44.28
980.937	44.28
981.296	44.28
981.654	44.27
982.013	44.29
982.371	44.31
982.73	44.37
983.088	44.36
983.447	44.41
983.805	44.38
984.163	44.43
984.521	44.34
984.879	44.39
985.237	44.34
985.595	44.32
985.953	44.23
986.311	44.25
986.669	44.26
987.026	44.18
987.384	44.21
987.741	44.31
988.099	44.27
988.456	44.32
988.814	44.28
989.171	44.28
989.528	44.19
989.885	44.12
990.242	44.08
990.599	44.08
990.956	44.19
991.313	44.11
991.67	44.09
992.027	44.09
992.383	44.15
992.74	44.05
993.096	44
993.453	43.98
993.809	44.02
994.165	43.99
994.522	43.88
994.878	43.81
995.234	43.75
995.59	43.69
995.946	43.61
996.302	43.56
996.658	43.68
997.013	43.67
997.369	43.72
997.725	43.72
998.08	43.71
998.436	43.79
998.791	43.94
999.147	43.86
999.502	43.79
999.857	43.78
1000.212	43.63
1000.567	43.67
1000.922	43.74
1001.277	43.61
1001.632	43.75
1001.987	43.53
1002.342	43.48
1002.696	43.27
1003.051	43.32
1003.406	43.39
1003.76	43.39
1004.114	43.74
1004.469	43.58
1004.823	43.64
1005.177	43.8
1005.531	43.63
1005.885	43.76
1006.239	43.68
1006.593	43.74
1006.947	43.84
1007.301	43.72
1007.655	43.78
1008.008	43.45
1008.362	43.45
1008.715	43.22
1009.069	43.05
1009.422	42.9
1009.776	42.81
1010.129	42.78
1010.482	42.75
1010.835	42.78
1011.188	42.64
1011.541	42.45
1011.894	42.33
1012.247	42.43
1012.6	42.42
1012.952	42.46
1013.305	42.53
1013.657	42.55
1014.01	42.62
1014.362	42.52
1014.715	42.28
1015.067	42.46
1015.419	42.65
1015.771	42.71
1016.123	42.33
1016.475	42.34
1016.827	42.38
1017.179	42.5
1017.531	42.46
1017.883	42.45
1018.234	42.51
1018.586	42.46
1018.938	42.26
1019.289	42.06
1019.64	42.23
1019.992	42.29
1020.343	42.21
1020.694	42.05
1021.045	41.76
1021.396	41.46
1021.747	41.12
1022.098	41.1
1022.449	41.02
1022.8	41.01
1023.151	40.94
1023.501	40.6
1023.852	40.68
1024.202	40.72
1024.553	40.46
1024.903	40.39
1025.253	40.74
1025.604	41.13
1025.954	40.71
1026.304	41.03
1026.654	40.92
1027.004	41.08
1027.354	41.02
1027.703	41.03
1028.053	40.53
1028.403	40.69
1028.753	40.88
1029.102	40.71
1029.452	40.54
1029.801	40.81
1030.15	40.54
1030.499	40.69
897.758	691.13
901.051	690.63
904.343	703.62
907.636	690.07
910.928	679.87
914.22	693.86
917.511	683.1
920.803	651.98
924.094	626
927.384	632.36
930.675	606.36
933.965	599.45
937.255	604.53
940.544	574.84
943.834	549.17
947.123	540.19
950.411	509.63
953.7	499.51
956.988	487.18
960.276	462.96
963.563	457.91
966.851	437.87
970.138	426.95
973.424	396.72
976.711	391.41
979.997	378.39
983.283	371.6
986.568	359.66
989.853	349.31
993.138	334.99
996.423	331.68
999.708	319.92
1002.992	320.93
1006.275	313.18
1009.559	310.4
1012.842	301.81
1016.125	292.99
1019.408	286.21
1022.69	283.46
1025.972	281.22
1029.254	274.09
1032.536	268.26
1035.817	260.94
1039.098	256.08
1042.379	250.76
1045.659	246.37
1048.939	244.64
1052.219	240.53
1055.498	235.52
1058.778	231.9
1062.057	226
1065.335	224.91
1068.614	221.91
1071.892	218.18
1075.17	214.94
1078.447	211.7
1081.724	210.78
1085.001	205.88
1088.278	205.3
1091.554	204.46
1094.83	201.93
1098.106	199.82
1101.382	199.06
1104.657	198.07
1107.932	197.25
1111.206	196.6
1114.481	194.2
1117.755	192.47
1121.029	191.58
1124.302	188.66
1127.575	185.47
1130.848	185.67
1134.121	183.04
1137.393	182.4
1140.665	181.27
1143.937	179.29
1147.208	176.48
1150.48	175.16
1153.75	175.15
1157.021	173.19
1160.291	173.12
1163.561	173.67
1166.831	170.98
1170.101	171.43
1173.37	169.04
1176.639	167.39
1179.907	167.75
1183.176	167.82
1186.444	167.22
1189.711	165.6
1192.979	168.34
1196.246	167.69
1199.513	166.22
1202.78	167.91
1206.046	167.5
1209.312	169.11
1212.578	170.04
1215.843	172.46
1219.108	172.3
1222.373	176.16
1225.638	178.48
1228.902	181.16
1232.166	187.57
1235.43	190.83
1238.693	195.71
1241.956	200.27
1245.219	205.71
1248.482	206.68
1251.744	205.98
1255.006	207.34
1258.268	202.08
1261.529	201.09
1264.79	195.72
1268.051	191.05
1271.312	189
1274.572	184.83
1277.832	180.05
1281.092	177.52
1284.351	174.78
1287.61	173.94
1290.869	173.12
1294.128	172.51
1297.386	171.08
1300.644	170.44
1303.902	170.09
1307.159	169.49
1310.416	170.84
1313.673	173.86
1316.93	174.2
1320.186	176.66
1323.442	178.81
1326.697	182.76
1329.953	183.97
1333.208	191.07
1336.463	198.59
1339.717	202.09
1342.972	211.56
1346.226	216.92
1349.479	218.43
1352.733	229.38
1355.986	233.13
1359.238	239.27
1362.491	240.57
1365.743	249.75
1368.995	251.25
1372.247	249.08
1375.498	248.04
1378.749	257.28
1382	256.06
1385.251	255.82
1388.501	253.5
1391.751	258.72
1395	256.23
1398.25	258.73
1401.499	258.21
1404.748	257.64
1407.996	254.31
1411.244	255.73
1414.492	250.29
1417.74	244.32
1420.987	237.51
1424.234	235.24
1427.481	226.37
1430.728	221.63
1433.974	213.63
1437.22	206.77
1440.465	199.6
1443.711	194.03
1446.956	188.52
1450.201	181.28
1453.445	173.32
1456.689	169.89
1459.933	163.27
1463.177	156.52
1466.42	153.36
1469.663	149.02
1472.906	145.06
1476.148	141.51
1479.391	138.54
1482.633	136.09
1485.874	133.27
1489.115	132.63
1492.356	129.47
1495.597	128.6
1498.838	127.73
1502.078	126.42
1505.318	125.99
1508.557	125.26
1511.797	123.52
1515.036	123.38
1518.274	122.63
1521.513	121.26
1524.751	120.69
1527.989	121.43
1531.227	120.64
1534.464	120.34
1537.701	119.42
1540.938	119.02
1544.174	119.02
1547.41	119.03
1550.646	118.4
1553.882	118.4
1557.117	118.02
1560.352	117.62
1563.587	116.58
1566.821	116.42
1570.055	115.45
1573.289	115.4
1576.523	115.34
1579.756	114.74
1582.989	115.01
1586.222	114.88
1589.454	113.33
1592.686	113.67
1595.918	112.98
1599.15	113.03
1602.381	113.06
1605.612	113.38
1608.843	113.3
1612.073	114.05
1615.303	114.09
1618.533	113.38
1621.762	113.72
1624.992	114.75
1628.221	114.62
1631.449	115.26
1634.678	114.4
1637.906	114.61
1641.134	115.13
1644.361	114.76
1647.588	114.14
1650.815	114.2
1654.042	114.79
1657.269	114.25
1660.495	114.8
1663.72	114.25
1666.946	114.38
1670.171	115.46
1673.396	116.09
1676.621	115.66
1679.845	115.98
1683.069	115.81
1686.293	115.85
1689.517	115.65
1692.74	115.96
1695.963	116.42
1699.185	117.74
1702.408	117.59
1705.63	117.96
1708.852	118.13
1712.073	118.34
1715.294	118.31
1718.515	119.01
1721.736	118.88
1724.956	119.52
1728.176	119.27
1731.396	119.98
1734.616	119.7
1737.835	120.18
1741.054	119.49
1744.272	119.51
1747.491	119.41
1750.709	120.19
1753.927	120.4
1757.144	120.92
1760.361	121.41
1763.578	122
1766.795	121.72
1770.011	121.76
1773.227	122.58
1776.443	124.18
1779.658	124.19
1782.874	125.75
1786.089	126.02
1789.303	126.3
1792.518	127.35
1795.732	127.84
1798.945	129.37
1802.159	129.42
1805.372	131.37
1808.585	132.12
1811.797	132.67
1815.01	133.87
1818.222	134.4
1821.434	135.03
1824.645	135.89
1827.856	137.73
1831.067	138.23
1834.278	139.01
1837.488	140.07
1840.698	141.84
1843.908	142
1847.117	143.91
1850.326	144.74
1853.535	144.72
1856.744	146.99
1859.952	148.73
1863.16	148.85
1866.368	148.43
1869.575	149.21
1872.782	149.13
1875.989	147.1
1879.196	146.34
1882.402	144.81
1885.608	145.93
1888.814	145.72
1892.019	146.51
1895.224	144.31
1898.429	144.28
1901.634	145.51
1904.838	145.8
1908.042	146.39
1911.246	147.12
1914.449	148.25
1917.652	147.47
1920.855	146.74
1924.058	147.19
1927.26	145.84
1930.462	146.18
1933.664	146.63
1936.865	146.93
1940.066	144.12
1943.267	143.45
1946.467	143.95
1949.668	144.31
1952.868	145.73
1956.067	145.9
1959.267	145.93
1962.466	146.94
1965.665	149
1968.863	149.9
1972.061	149.42
1975.259	154.24
1978.457	155.5
1981.654	157.11
1984.852	157.99
1988.048	159.49
1991.245	161.58
1994.441	165.83
1997.637	168.49
2000.833	172.44
2004.028	171.58
2007.223	179.62
2010.418	182.65
2013.613	190.36
2016.807	195.1
2020.001	199.13
2023.194	204.03
2026.388	211.55
2029.581	220.71
2032.774	228.2
2035.966	234.44
2039.158	244.37
2042.35	245.5
2045.542	249.17
2048.733	259.16
2051.924	262.38
2055.115	267.67
2058.306	270.63
2061.496	276.53
2064.686	276.71
2067.875	272.76
2071.065	274.58
2074.254	276.64
2077.442	284.86
2080.631	288.34
2083.819	289.09
2087.007	294.5
2090.195	297.36
2093.382	297.77
2096.569	297.06
2099.756	302.2
2102.942	311.31
2106.128	316.91
2109.314	318.53
2112.5	318.72
2115.685	317.55
2118.87	317.42
2122.055	317.5
2125.239	326.04
2128.424	335.46
2131.608	331.42
2134.791	332.72
2137.974	331.76
2141.157	334.54
2144.34	337.17
2147.523	340.58
2150.705	348.48
2153.887	346.34
2157.068	350.72
2160.25	353.88
2163.431	349.47
2166.611	354.99
2169.792	363.67
2172.972	370.76
2176.152	370.41
2179.331	378.41
2182.511	379.76
2185.69	384.87
2188.868	398.53
2192.047	408.38
2195.225	413.63
2198.403	420.74
2201.58	420.13
2204.758	429.78
2207.935	430.21
2211.111	442.23
2214.288	443.7
2217.464	448.87
2220.64	450.44
2223.815	454.34
2226.991	445.77
2230.166	449.46
2233.34	463.22
2236.515	473.92
2239.689	465.13
2242.863	475.24
2246.036	467.44
2249.209	480.36
2252.382	480.72
2255.555	496.95
2258.727	498.9
2261.9	518.26
2265.071	524.79
2268.243	517.99
2271.414	535.02
2274.585	546.88
2277.756	548.1
2280.926	569.32
2284.096	566.32
2287.266	570.1
2290.436	560.56
2293.605	572.65
2296.774	591.28
2299.942	589
2303.111	610.4
2306.279	621.94
2309.447	620.21
2312.614	621.41
2315.781	638.89
2318.948	646.76
2322.115	658.7
2325.281	691.71
2328.447	686.9
2331.613	685.56
2334.779	698.9
2337.944	708.98
2341.109	721.07
2344.274	734.02
2347.438	755.73
2350.602	763.2
2353.766	811.76
2356.929	815.46
2360.092	825.04
2363.255	828.57
2366.418	843.88
2369.58	859.22
2372.742	855.31
2375.904	852.25
2379.066	872.58
2382.227	921.64
2385.388	926.82
2388.548	881.67
2391.709	874.68
2394.869	905.49
2398.029	901.77
2401.188	901.83
2404.347	935.24
2407.506	969.29
2410.665	928.63
2413.823	932.12
2416.981	931.65
2420.139	876.12
2423.296	947.86
2426.453	1005.56
2429.61	961.28
2432.767	1033
2435.923	1065.08
2439.079	1012.35
2442.235	1040.96
2445.391	1067.8
2448.546	1060.5
2451.701	1123.93
2454.855	1206.94
2458.009	1057.34
2461.163	1085.71
2464.317	1087.85
2467.471	1065.73
2470.624	1097.67
2473.777	1085.61
2476.929	1046.32
2480.082	1118.2
2483.234	1173.32
2486.385	1192.3
2489.537	1218.92
2492.688	1349.77
2495.839	1310.97
2498.989	1357.12
2502.14	1362.37
2505.29	1309.3
2508.439	1453.12
2511.589	1496.14
2514.738	1449.03
2517.887	1436.76
2521.035	1334.67
2524.183	1322.19
2527.331	1313.28
2530.479	1287.97
2533.627	1314.89
