Data from N_2_div_wi_4n_061_Splice17_06.txt Node
Date: Sat Feb 29 14:01:35 EST 2020
User: sa697716
Spectrometer: FLMS03696
Trigger mode: 0
Integration Time (sec): 3.180400E-1
Scans to average: 20
Electric dark correction enabled: true
Nonlinearity correction enabled: true
Boxcar width: 5
XAxis mode: Wavelengths
Number of Pixels in Spectrum: 2048
>>>>>Begin Spectral Data<<<<<
187.83	122.53
188.298	143.21
188.766	125.1
189.233	115.78
189.701	117.57
190.169	118.01
190.636	132.7
191.104	128.79
191.571	250.01
192.039	206.75
192.506	41.89
192.974	1265.78
193.441	-245.27
193.908	99.35
194.375	80.27
194.842	102.77
195.31	79.47
195.777	155.21
196.244	43.7
196.711	24.65
197.177	19.48
197.644	18.67
198.111	19.05
198.578	19.36
199.045	20.1
199.511	20.62
199.978	21.24
200.445	21.31
200.911	21.46
201.378	21.86
201.844	21.95
202.31	23.09
202.777	23.78
203.243	24.25
203.709	24.64
204.176	23.81
204.642	23.92
205.108	23.64
205.574	24.23
206.04	23.73
206.506	23.34
206.972	23.67
207.438	23.22
207.903	23.13
208.369	22.85
208.835	22.68
209.301	22.96
209.766	22.83
210.232	22.8
210.697	22.22
211.163	22.58
211.628	22.31
212.094	21.92
212.559	21.9
213.024	21.58
213.49	21.35
213.955	21.16
214.42	20.97
214.885	20.44
215.35	20.2
215.815	19.43
216.28	18.54
216.745	17.96
217.21	17.12
217.675	16.42
218.14	15.69
218.604	15
219.069	14.5
219.534	14.01
219.998	13.52
220.463	13.17
220.927	12.91
221.392	12.6
221.856	12.35
222.32	12.19
222.785	11.97
223.249	11.76
223.713	11.59
224.177	11.38
224.642	11.24
225.106	11.12
225.57	10.96
226.034	10.84
226.497	10.71
226.961	10.57
227.425	10.39
227.889	10.24
228.353	10.1
228.816	9.98
229.28	9.84
229.744	9.73
230.207	9.59
230.671	9.47
231.134	9.33
231.597	9.23
232.061	9.12
232.524	9.04
232.987	8.95
233.45	8.86
233.914	8.77
234.377	8.7
234.84	8.59
235.303	8.53
235.766	8.45
236.229	8.39
236.691	8.32
237.154	8.26
237.617	8.18
238.08	8.11
238.542	8.05
239.005	7.98
239.468	7.9
239.93	7.84
240.393	7.78
240.855	7.7
241.317	7.63
241.78	7.56
242.242	7.49
242.704	7.43
243.166	7.37
243.629	7.31
244.091	7.25
244.553	7.21
245.015	7.15
245.477	7.09
245.939	7.04
246.4	6.97
246.862	6.92
247.324	6.87
247.786	6.82
248.247	6.77
248.709	6.73
249.17	6.68
249.632	6.63
250.093	6.56
250.555	6.51
251.016	6.48
251.477	6.45
251.939	6.4
252.4	6.36
252.861	6.31
253.322	6.27
253.783	6.23
254.244	6.19
254.705	6.16
255.166	6.13
255.627	6.09
256.088	6.04
256.549	6
257.009	5.96
257.47	5.92
257.931	5.89
258.391	5.84
258.852	5.79
259.312	5.73
259.773	5.7
260.233	5.65
260.694	5.61
261.154	5.56
261.614	5.53
262.074	5.5
262.534	5.44
262.994	5.4
263.455	5.36
263.915	5.33
264.374	5.3
264.834	5.26
265.294	5.23
265.754	5.19
266.214	5.16
266.673	5.13
267.133	5.1
267.593	5.08
268.052	5.05
268.512	5.01
268.971	4.98
269.431	4.95
269.89	4.93
270.349	4.9
270.809	4.88
271.268	4.86
271.727	4.82
272.186	4.8
272.645	4.77
273.104	4.75
273.563	4.73
274.022	4.71
274.481	4.68
274.94	4.65
275.399	4.63
275.857	4.6
276.316	4.57
276.775	4.56
277.233	4.54
277.692	4.51
278.15	4.49
278.609	4.46
279.067	4.44
279.525	4.42
279.984	4.4
280.442	4.38
280.9	4.36
281.358	4.35
281.816	4.34
282.274	4.32
282.732	4.3
283.19	4.29
283.648	4.28
284.106	4.26
284.564	4.26
285.021	4.26
285.479	4.25
285.937	4.24
286.394	4.22
286.852	4.2
287.309	4.19
287.767	4.18
288.224	4.17
288.682	4.16
289.139	4.15
289.596	4.13
290.053	4.1
290.511	4.08
290.968	4.06
291.425	4.04
291.882	4.03
292.339	4.02
292.796	4
293.252	3.98
293.709	3.96
294.166	3.94
294.623	3.93
295.079	3.91
295.536	3.91
295.992	3.9
296.449	3.89
296.905	3.88
297.362	3.86
297.818	3.85
298.274	3.84
298.731	3.82
299.187	3.82
299.643	3.81
300.099	3.8
300.555	3.78
301.011	3.77
301.467	3.75
301.923	3.75
302.379	3.73
302.835	3.72
303.291	3.71
303.746	3.7
304.202	3.68
304.658	3.67
305.113	3.67
305.569	3.67
306.024	3.66
306.479	3.66
306.935	3.65
307.39	3.64
307.845	3.63
308.301	3.63
308.756	3.63
309.211	3.64
309.666	3.64
310.121	3.63
310.576	3.61
311.031	3.61
311.486	3.61
311.94	3.61
312.395	3.61
312.85	3.61
313.305	3.61
313.759	3.61
314.214	3.61
314.668	3.6
315.123	3.61
315.577	3.62
316.032	3.61
316.486	3.61
316.94	3.6
317.394	3.59
317.849	3.59
318.303	3.58
318.757	3.56
319.211	3.54
319.665	3.53
320.119	3.52
320.572	3.51
321.026	3.5
321.48	3.48
321.934	3.48
322.387	3.47
322.841	3.46
323.295	3.45
323.748	3.45
324.202	3.45
324.655	3.45
325.108	3.44
325.562	3.42
326.015	3.41
326.468	3.4
326.921	3.39
327.374	3.38
327.827	3.37
328.28	3.36
328.733	3.36
329.186	3.35
329.639	3.34
330.092	3.34
330.545	3.34
330.997	3.34
331.45	3.35
331.903	3.35
332.355	3.35
332.808	3.35
333.26	3.36
333.713	3.36
334.165	3.36
334.617	3.36
335.069	3.36
335.522	3.37
335.974	3.37
336.426	3.37
336.878	3.37
337.33	3.37
337.782	3.36
338.234	3.37
338.686	3.36
339.137	3.36
339.589	3.35
340.041	3.34
340.493	3.33
340.944	3.33
341.396	3.33
341.847	3.32
342.299	3.29
342.75	3.28
343.201	3.26
343.653	3.25
344.104	3.23
344.555	3.22
345.006	3.2
345.457	3.19
345.908	3.18
346.359	3.18
346.81	3.17
347.261	3.17
347.712	3.17
348.163	3.17
348.613	3.15
349.064	3.14
349.515	3.13
349.965	3.13
350.416	3.13
350.866	3.13
351.317	3.12
351.767	3.11
352.217	3.11
352.668	3.11
353.118	3.11
353.568	3.12
354.018	3.13
354.468	3.13
354.918	3.14
355.368	3.14
355.818	3.13
356.268	3.13
356.718	3.13
357.168	3.12
357.617	3.11
358.067	3.11
358.517	3.09
358.966	3.1
359.416	3.1
359.865	3.1
360.315	3.09
360.764	3.1
361.213	3.08
361.663	3.08
362.112	3.09
362.561	3.1
363.01	3.1
363.459	3.09
363.908	3.08
364.357	3.08
364.806	3.08
365.255	3.08
365.703	3.07
366.152	3.09
366.601	3.09
367.05	3.08
367.498	3.08
367.947	3.08
368.395	3.09
368.844	3.09
369.292	3.1
369.74	3.1
370.189	3.1
370.637	3.1
371.085	3.1
371.533	3.1
371.981	3.11
372.429	3.1
372.877	3.11
373.325	3.11
373.773	3.11
374.221	3.11
374.669	3.11
375.116	3.11
375.564	3.12
376.012	3.12
376.459	3.14
376.907	3.15
377.354	3.15
377.801	3.14
378.249	3.15
378.696	3.16
379.143	3.18
379.591	3.19
380.038	3.21
380.485	3.24
380.932	3.25
381.379	3.25
381.826	3.26
382.273	3.28
382.72	3.3
383.166	3.32
383.613	3.32
384.06	3.32
384.506	3.32
384.953	3.33
385.4	3.34
385.846	3.34
386.292	3.35
386.739	3.35
387.185	3.37
387.631	3.37
388.078	3.38
388.524	3.39
388.97	3.4
389.416	3.43
389.862	3.44
390.308	3.45
390.754	3.47
391.2	3.48
391.645	3.51
392.091	3.52
392.537	3.54
392.983	3.56
393.428	3.58
393.874	3.62
394.319	3.63
394.765	3.65
395.21	3.66
395.655	3.67
396.101	3.69
396.546	3.71
396.991	3.72
397.436	3.73
397.881	3.75
398.326	3.79
398.771	3.8
399.216	3.82
399.661	3.84
400.106	3.87
400.551	3.87
400.995	3.87
401.44	3.86
401.885	3.88
402.329	3.89
402.774	3.89
403.218	3.89
403.663	3.88
404.107	3.89
404.551	3.9
404.995	3.89
405.44	3.9
405.884	3.92
406.328	3.93
406.772	3.93
407.216	3.94
407.66	3.95
408.104	3.95
408.547	3.96
408.991	3.95
409.435	3.94
409.879	3.95
410.322	3.96
410.766	3.97
411.209	3.99
411.653	3.98
412.096	3.98
412.54	3.97
412.983	3.97
413.426	3.99
413.869	4
414.312	4.02
414.756	4.04
415.199	4.05
415.642	4.06
416.085	4.08
416.527	4.1
416.97	4.12
417.413	4.14
417.856	4.15
418.298	4.13
418.741	4.15
419.184	4.13
419.626	4.12
420.069	4.12
420.511	4.12
420.953	4.13
421.396	4.14
421.838	4.15
422.28	4.17
422.722	4.18
423.164	4.19
423.606	4.2
424.048	4.21
424.49	4.21
424.932	4.2
425.374	4.19
425.816	4.17
426.258	4.16
426.699	4.15
427.141	4.13
427.582	4.14
428.024	4.15
428.465	4.14
428.907	4.15
429.348	4.17
429.789	4.2
430.231	4.21
430.672	4.25
431.113	4.27
431.554	4.29
431.995	4.31
432.436	4.32
432.877	4.31
433.318	4.31
433.759	4.33
434.2	4.35
434.64	4.38
435.081	4.38
435.522	4.38
435.962	4.39
436.403	4.4
436.843	4.4
437.284	4.43
437.724	4.48
438.164	4.49
438.604	4.51
439.045	4.52
439.485	4.52
439.925	4.52
440.365	4.53
440.805	4.52
441.245	4.53
441.685	4.56
442.125	4.58
442.564	4.59
443.004	4.61
443.444	4.62
443.883	4.65
444.323	4.66
444.762	4.71
445.202	4.77
445.641	4.81
446.081	4.85
446.52	4.85
446.959	4.88
447.398	4.93
447.837	4.98
448.276	5.01
448.716	5.03
449.154	5.06
449.593	5.07
450.032	5.07
450.471	5.09
450.91	5.08
451.349	5.1
451.787	5.1
452.226	5.08
452.664	5.06
453.103	5.08
453.541	5.08
453.98	5.09
454.418	5.09
454.856	5.08
455.295	5.09
455.733	5.1
456.171	5.1
456.609	5.11
457.047	5.11
457.485	5.12
457.923	5.11
458.361	5.1
458.798	5.12
459.236	5.13
459.674	5.12
460.111	5.12
460.549	5.13
460.987	5.13
461.424	5.12
461.862	5.12
462.299	5.11
462.736	5.12
463.173	5.12
463.611	5.12
464.048	5.12
464.485	5.12
464.922	5.11
465.359	5.1
465.796	5.1
466.233	5.1
466.67	5.1
467.106	5.1
467.543	5.1
467.98	5.11
468.416	5.1
468.853	5.09
469.29	5.1
469.726	5.11
470.162	5.11
470.599	5.11
471.035	5.12
471.471	5.11
471.907	5.12
472.344	5.12
472.78	5.12
473.216	5.11
473.652	5.1
474.088	5.09
474.523	5.1
474.959	5.09
475.395	5.09
475.831	5.11
476.266	5.11
476.702	5.1
477.138	5.09
477.573	5.08
478.008	5.07
478.444	5.08
478.879	5.09
479.314	5.08
479.75	5.09
480.185	5.09
480.62	5.08
481.055	5.07
481.49	5.06
481.925	5.05
482.36	5.05
482.795	5.04
483.229	5.03
483.664	5.01
484.099	5.01
484.534	5.01
484.968	5.01
485.403	5.01
485.837	5.02
486.271	5.02
486.706	5.03
487.14	5.04
487.574	5.06
488.009	5.09
488.443	5.11
488.877	5.13
489.311	5.14
489.745	5.15
490.179	5.17
490.613	5.2
491.046	5.24
491.48	5.28
491.914	5.3
492.348	5.34
492.781	5.36
493.215	5.38
493.648	5.43
494.082	5.48
494.515	5.52
494.948	5.57
495.382	5.6
495.815	5.65
496.248	5.69
496.681	5.76
497.114	5.82
497.547	5.89
497.98	5.97
498.413	6.05
498.846	6.13
499.279	6.22
499.711	6.3
500.144	6.41
500.577	6.5
501.009	6.6
501.442	6.71
501.874	6.83
502.306	6.95
502.739	7.08
503.171	7.22
503.603	7.36
504.036	7.51
504.468	7.68
504.9	7.84
505.332	8.02
505.764	8.2
506.196	8.38
506.627	8.58
507.059	8.79
507.491	8.99
507.923	9.2
508.354	9.42
508.786	9.64
509.217	9.88
509.649	10.15
510.08	10.41
510.512	10.67
510.943	10.96
511.374	11.24
511.805	11.51
512.237	11.82
512.668	12.12
513.099	12.43
513.53	12.77
513.961	13.1
514.391	13.41
514.822	13.75
515.253	14.09
515.684	14.42
516.114	14.79
516.545	15.16
516.975	15.5
517.406	15.87
517.836	16.23
518.267	16.59
518.697	16.97
519.127	17.34
519.558	17.7
519.988	18.06
520.418	18.41
520.848	18.76
521.278	19.12
521.708	19.36
522.138	19.69
522.567	20.03
522.997	20.36
523.427	20.68
523.857	21
524.286	21.33
524.716	21.64
525.145	21.96
525.575	22.26
526.004	22.52
526.433	22.89
526.863	23.18
527.292	23.43
527.721	23.69
528.15	23.9
528.579	24.14
529.008	24.36
529.437	24.57
529.866	24.76
530.295	24.95
530.724	25.17
531.152	25.36
531.581	25.51
532.01	25.67
532.438	25.8
532.867	25.95
533.295	26.08
533.723	26.21
534.152	26.33
534.58	26.44
535.008	26.51
535.436	26.58
535.865	26.67
536.293	26.76
536.721	26.84
537.149	26.91
537.576	26.97
538.004	27.02
538.432	27.06
538.86	27.1
539.287	27.16
539.715	27.22
540.143	27.25
540.57	27.27
540.998	27.31
541.425	27.36
541.852	27.39
542.28	27.4
542.707	27.44
543.134	27.47
543.561	27.48
543.988	27.5
544.415	27.53
544.842	27.57
545.269	27.6
545.696	27.61
546.123	27.62
546.549	27.65
546.976	27.7
547.403	27.7
547.829	27.74
548.256	27.75
548.682	27.77
549.108	27.77
549.535	27.8
549.961	27.79
550.387	27.79
550.813	27.79
551.24	27.79
551.666	27.79
552.092	27.79
552.518	27.77
552.943	27.78
553.369	27.75
553.795	27.71
554.221	27.66
554.646	27.64
555.072	27.61
555.498	27.55
555.923	27.5
556.349	27.41
556.774	27.32
557.199	27.24
557.625	27.16
558.05	27.07
558.475	26.96
558.9	26.87
559.325	26.74
559.75	26.6
560.175	26.48
560.6	26.34
561.025	26.22
561.449	26.05
561.874	25.91
562.299	25.74
562.723	25.58
563.148	25.41
563.572	25.24
563.997	25.07
564.421	24.89
564.846	24.69
565.27	24.5
565.694	24.29
566.118	24.11
566.542	23.92
566.966	23.73
567.39	23.52
567.814	23.31
568.238	23.09
568.662	22.9
569.086	22.68
569.509	22.49
569.933	22.27
570.357	22.06
570.78	21.86
571.204	21.65
571.627	21.44
572.05	21.26
572.474	21.09
572.897	20.9
573.32	20.7
573.743	20.55
574.166	20.37
574.589	20.21
575.012	20.07
575.435	19.9
575.858	19.75
576.281	19.62
576.704	19.47
577.126	19.31
577.549	19.2
577.972	19.07
578.394	18.93
578.817	18.8
579.239	18.68
579.661	18.57
580.084	18.46
580.506	18.34
580.928	18.21
581.35	18.1
581.772	18.01
582.194	17.89
582.616	17.79
583.038	17.7
583.46	17.62
583.882	17.51
584.303	17.41
584.725	17.31
585.147	17.22
585.568	17.15
585.99	17.06
586.411	16.97
586.833	16.89
587.254	16.81
587.675	16.74
588.096	16.65
588.518	16.6
588.939	16.54
589.36	16.46
589.781	16.41
590.202	16.34
590.623	16.28
591.043	16.22
591.464	16.17
591.885	16.11
592.305	16.06
592.726	16.02
593.147	15.96
593.567	15.91
593.987	15.89
594.408	15.83
594.828	15.78
595.248	15.75
595.669	15.71
596.089	15.68
596.509	15.63
596.929	15.6
597.349	15.55
597.769	15.52
598.189	15.49
598.608	15.43
599.028	15.39
599.448	15.36
599.867	15.3
600.287	15.25
600.706	15.2
601.126	15.16
601.545	15.1
601.965	15.04
602.384	14.98
602.803	14.91
603.222	14.84
603.641	14.78
604.061	14.72
604.48	14.66
604.898	14.57
605.317	14.5
605.736	14.42
606.155	14.34
606.574	14.27
606.992	14.17
607.411	14.1
607.829	13.99
608.248	13.9
608.666	13.8
609.085	13.71
609.503	13.62
609.921	13.54
610.339	13.45
610.758	13.36
611.176	13.26
611.594	13.17
612.012	13.06
612.43	13.01
612.847	12.91
613.265	12.82
613.683	12.73
614.101	12.64
614.518	12.53
614.936	12.44
615.353	12.37
615.771	12.29
616.188	12.23
616.606	12.15
617.023	12.08
617.44	12.02
617.857	11.95
618.274	11.88
618.691	11.83
619.108	11.79
619.525	11.74
619.942	11.69
620.359	11.65
620.776	11.6
621.192	11.57
621.609	11.54
622.026	11.5
622.442	11.49
622.859	11.45
623.275	11.44
623.691	11.4
624.108	11.39
624.524	11.37
624.94	11.34
625.356	11.34
625.772	11.32
626.188	11.3
626.604	11.28
627.02	11.26
627.436	11.27
627.852	11.25
628.268	11.24
628.683	11.2
629.099	11.19
629.514	11.17
629.93	11.14
630.345	11.11
630.761	11.07
631.176	11.04
631.591	11
632.007	10.94
632.422	10.89
632.837	10.84
633.252	10.78
633.667	10.7
634.082	10.63
634.497	10.53
634.911	10.45
635.326	10.35
635.741	10.24
636.155	10.12
636.57	10.02
636.984	9.88
637.399	9.75
637.813	9.63
638.228	9.52
638.642	9.4
639.056	9.27
639.47	9.14
639.884	9.03
640.298	8.9
640.712	8.78
641.126	8.65
641.54	8.54
641.954	8.45
642.368	8.31
642.781	8.19
643.195	8.06
643.609	7.96
644.022	7.86
644.436	7.75
644.849	7.65
645.262	7.57
645.676	7.48
646.089	7.39
646.502	7.29
646.915	7.23
647.328	7.17
647.741	7.11
648.154	7.06
648.567	7.03
648.98	6.98
649.393	6.94
649.805	6.9
650.218	6.86
650.631	6.83
651.043	6.81
651.456	6.78
651.868	6.75
652.28	6.72
652.693	6.67
653.105	6.62
653.517	6.58
653.929	6.54
654.341	6.5
654.753	6.45
655.165	6.4
655.577	6.34
655.989	6.27
656.401	6.21
656.813	6.13
657.224	6.08
657.636	6.03
658.047	5.96
658.459	5.89
658.87	5.81
659.282	5.77
659.693	5.7
660.104	5.65
660.515	5.57
660.926	5.52
661.338	5.47
661.749	5.39
662.159	5.35
662.57	5.3
662.981	5.25
663.392	5.2
663.803	5.15
664.213	5.1
664.624	5.07
665.035	5.03
665.445	5
665.855	4.97
666.266	4.96
666.676	4.93
667.086	4.9
667.497	4.88
667.907	4.88
668.317	4.86
668.727	4.86
669.137	4.85
669.547	4.86
669.956	4.85
670.366	4.87
670.776	4.86
671.186	4.87
671.595	4.9
672.005	4.92
672.414	4.93
672.824	4.96
673.233	4.98
673.642	4.99
674.052	5.01
674.461	5.03
674.87	5.05
675.279	5.08
675.688	5.1
676.097	5.13
676.506	5.16
676.915	5.19
677.323	5.24
677.732	5.28
678.141	5.32
678.549	5.37
678.958	5.43
679.366	5.48
679.775	5.54
680.183	5.61
680.592	5.68
681	5.75
681.408	5.84
681.816	5.91
682.224	6
682.632	6.12
683.04	6.22
683.448	6.34
683.856	6.47
684.264	6.61
684.671	6.78
685.079	6.96
685.487	7.17
685.894	7.39
686.302	7.65
686.709	7.93
687.116	8.23
687.524	8.6
687.931	8.95
688.338	9.35
688.745	9.8
689.152	10.28
689.559	10.76
689.966	11.28
690.373	11.86
690.78	12.44
691.187	13.05
691.593	13.68
692	14.32
692.407	14.99
692.813	15.69
693.22	16.39
693.626	17.09
694.032	17.83
694.439	18.58
694.845	19.31
695.251	20.07
695.657	20.82
696.063	21.58
696.469	22.35
696.875	23.11
697.281	23.88
697.687	24.65
698.093	25.43
698.498	26.2
698.904	26.97
699.31	27.7
699.715	28.44
700.12	29.18
700.526	29.92
700.931	30.63
701.337	31.35
701.742	32.04
702.147	32.73
702.552	33.42
702.957	34.06
703.362	34.71
703.767	35.35
704.172	36
704.577	36.62
704.981	37.24
705.386	37.84
705.791	38.44
706.195	39.04
706.6	39.58
707.004	40.15
707.408	40.72
707.813	41.27
708.217	41.84
708.621	42.39
709.025	42.92
709.43	43.45
709.834	44.01
710.237	44.53
710.641	45.05
711.045	45.58
711.449	46.05
711.853	46.58
712.256	47.07
712.66	47.58
713.064	48.07
713.467	48.54
713.87	49.02
714.274	49.48
714.677	49.94
715.08	50.36
715.484	50.8
715.887	51.27
716.29	51.68
716.693	52.1
717.096	52.53
717.499	52.9
717.901	53.3
718.304	53.66
718.707	54.02
719.109	54.39
719.512	54.78
719.915	55.13
720.317	55.48
720.719	55.81
721.122	56.13
721.524	56.43
721.926	56.77
722.328	57.07
722.731	57.39
723.133	57.7
723.535	58.02
723.937	58.27
724.338	58.56
724.74	58.83
725.142	59.05
725.544	59.29
725.945	59.54
726.347	59.76
726.748	59.97
727.15	60.19
727.551	60.41
727.952	60.57
728.354	60.78
728.755	60.95
729.156	61.12
729.557	61.32
729.958	61.49
730.359	61.64
730.76	61.79
731.161	61.96
731.562	62.11
731.962	62.23
732.363	62.34
732.763	62.47
733.164	62.57
733.564	62.68
733.965	62.79
734.365	62.9
734.766	63
735.166	63.09
735.566	63.18
735.966	63.23
736.366	63.3
736.766	63.4
737.166	63.5
737.566	63.6
737.966	63.69
738.365	63.76
738.765	63.88
739.165	63.92
739.564	64.02
739.964	64.12
740.363	64.2
740.763	64.25
741.162	64.31
741.561	64.36
741.96	64.44
742.36	64.5
742.759	64.52
743.158	64.5
743.557	64.58
743.955	64.64
744.354	64.66
744.753	64.74
745.152	64.77
745.55	64.82
745.949	64.85
746.348	64.87
746.746	64.9
747.144	65.01
747.543	65.08
747.941	65.16
748.339	65.21
748.737	65.26
749.136	65.24
749.534	65.32
749.932	65.34
750.33	65.36
750.727	65.38
751.125	65.37
751.523	65.34
751.921	65.35
752.318	65.33
752.716	65.28
753.113	65.26
753.511	65.26
753.908	65.22
754.305	65.19
754.703	65.16
755.1	65.14
755.497	65.13
755.894	65.12
756.291	65.09
756.688	65.07
757.085	65.06
757.482	65.04
757.878	65.07
758.275	65.09
758.672	65.12
759.068	65.15
759.465	65.13
759.861	65.17
760.258	65.16
760.654	65.18
761.05	65.17
761.447	65.19
761.843	65.17
762.239	65.13
762.635	65.11
763.031	65.09
763.427	65.08
763.822	65.04
764.218	65.01
764.614	65
765.01	64.96
765.405	64.91
765.801	64.89
766.196	64.87
766.592	64.88
766.987	64.89
767.382	64.85
767.778	64.85
768.173	64.88
768.568	64.87
768.963	64.85
769.358	64.88
769.753	64.92
770.148	64.92
770.542	64.93
770.937	64.88
771.332	64.89
771.726	64.9
772.121	64.86
772.515	64.85
772.91	64.86
773.304	64.86
773.699	64.8
774.093	64.75
774.487	64.75
774.881	64.76
775.275	64.81
775.669	64.77
776.063	64.74
776.457	64.74
776.851	64.71
777.245	64.72
777.638	64.72
778.032	64.77
778.425	64.84
778.819	64.84
779.212	64.81
779.606	64.8
779.999	64.83
780.392	64.83
780.786	64.85
781.179	64.87
781.572	64.85
781.965	64.84
782.358	64.81
782.751	64.78
783.143	64.77
783.536	64.8
783.929	64.84
784.322	64.8
784.714	64.82
785.107	64.83
785.499	64.84
785.891	64.85
786.284	64.81
786.676	64.85
787.068	64.86
787.46	64.79
787.852	64.76
788.245	64.71
788.636	64.68
789.028	64.65
789.42	64.61
789.812	64.58
790.204	64.52
790.595	64.57
790.987	64.54
791.378	64.52
791.77	64.57
792.161	64.57
792.553	64.56
792.944	64.6
793.335	64.6
793.726	64.63
794.117	64.65
794.508	64.71
794.899	64.65
795.29	64.67
795.681	64.7
796.072	64.71
796.463	64.72
796.853	64.71
797.244	64.72
797.634	64.75
798.025	64.77
798.415	64.76
798.806	64.77
799.196	64.78
799.586	64.79
799.976	64.72
800.366	64.75
800.756	64.72
801.146	64.75
801.536	64.72
801.926	64.69
802.316	64.68
802.706	64.73
803.095	64.72
803.485	64.76
803.874	64.75
804.264	64.83
804.653	64.82
805.043	64.85
805.432	64.83
805.821	64.88
806.21	64.92
806.599	64.96
806.988	64.94
807.377	64.99
807.766	65
808.155	65.05
808.544	65.04
808.933	65.06
809.321	65.06
809.71	65.15
810.098	65.15
810.487	65.16
810.875	65.14
811.264	65.15
811.652	65.16
812.04	65.17
812.428	65.16
812.816	65.17
813.204	65.15
813.592	65.16
813.98	65.12
814.368	65.09
814.756	65.1
815.144	65.11
815.531	65.13
815.919	65.09
816.306	65.08
816.694	65.1
817.081	65.09
817.469	65.11
817.856	65.14
818.243	65.11
818.63	65.17
819.017	65.18
819.404	65.16
819.791	65.15
820.178	65.15
820.565	65.16
820.952	65.11
821.339	65.15
821.725	65.16
822.112	65.15
822.498	65.15
822.885	65.15
823.271	65.17
823.657	65.18
824.044	65.17
824.43	65.19
824.816	65.17
825.202	65.21
825.588	65.18
825.974	65.16
826.36	65.15
826.746	65.22
827.132	65.19
827.517	65.19
827.903	65.19
828.289	65.2
828.674	65.19
829.06	65.22
829.445	65.23
829.83	65.26
830.216	65.28
830.601	65.32
830.986	65.26
831.371	65.29
831.756	65.27
832.141	65.3
832.526	65.26
832.911	65.29
833.295	65.3
833.68	65.27
834.065	65.27
834.449	65.25
834.834	65.23
835.218	65.28
835.603	65.25
835.987	65.23
836.371	65.26
836.755	65.27
837.139	65.25
837.524	65.24
837.908	65.24
838.291	65.21
838.675	65.21
839.059	65.21
839.443	65.19
839.827	65.21
840.21	65.23
840.594	65.2
840.977	65.19
841.361	65.19
841.744	65.21
842.127	65.21
842.511	65.22
842.894	65.21
843.277	65.2
843.66	65.2
844.043	65.22
844.426	65.19
844.809	65.19
845.191	65.2
845.574	65.18
845.957	65.12
846.339	65.11
846.722	65.09
847.104	65.09
847.487	65.08
847.869	65.06
848.252	65.01
848.634	65.03
849.016	65.02
849.398	64.99
849.78	65
850.162	65
850.544	64.99
850.926	64.97
851.307	64.98
851.689	64.96
852.071	64.95
852.452	64.95
852.834	64.94
853.215	64.94
853.597	64.96
853.978	64.94
854.359	64.95
854.741	64.94
855.122	64.94
855.503	64.94
855.884	64.93
856.265	64.92
856.646	64.92
857.026	64.92
857.407	64.86
857.788	64.87
858.169	64.88
858.549	64.9
858.93	64.9
859.31	64.91
859.69	64.88
860.071	64.87
860.451	64.86
860.831	64.85
861.211	64.87
861.591	64.89
861.971	64.82
862.351	64.83
862.731	64.8
863.111	64.81
863.491	64.84
863.87	64.85
864.25	64.86
864.629	64.85
865.009	64.86
865.388	64.8
865.768	64.82
866.147	64.87
866.526	64.86
866.905	64.86
867.284	64.87
867.663	64.84
868.042	64.83
868.421	64.83
868.8	64.84
869.179	64.86
869.558	64.88
869.936	64.87
870.315	64.84
870.693	64.83
871.072	64.81
871.45	64.81
871.828	64.81
872.207	64.82
872.585	64.84
872.963	64.81
873.341	64.8
873.719	64.79
874.097	64.77
874.475	64.79
874.853	64.82
875.23	64.85
875.608	64.87
875.986	64.85
876.363	64.83
876.741	64.8
877.118	64.82
877.495	64.8
877.873	64.79
878.25	64.8
878.627	64.77
879.004	64.75
879.381	64.75
879.758	64.72
880.135	64.73
880.512	64.75
880.889	64.78
881.265	64.79
881.642	64.81
882.019	64.83
882.395	64.84
882.772	64.82
883.148	64.8
883.524	64.82
883.901	64.83
884.277	64.85
884.653	64.85
885.029	64.82
885.405	64.81
885.781	64.78
886.157	64.81
886.532	64.77
886.908	64.82
887.284	64.83
887.659	64.83
888.035	64.83
888.411	64.78
888.786	64.77
889.161	64.78
889.537	64.79
889.912	64.78
890.287	64.73
890.662	64.76
891.037	64.71
891.412	64.69
891.787	64.65
892.162	64.63
892.536	64.62
892.911	64.59
893.286	64.56
893.66	64.52
894.035	64.5
894.409	64.49
894.784	64.47
895.158	64.46
895.532	64.46
895.906	64.43
896.281	64.4
896.655	64.38
897.029	64.38
897.402	64.37
897.776	64.36
898.15	64.35
898.524	64.33
898.898	64.28
899.271	64.25
899.645	64.21
900.018	64.19
900.392	64.17
900.765	64.17
901.138	64.18
901.511	64.14
901.884	64.14
902.258	64.14
902.631	64.13
903.003	64.14
903.376	64.15
903.749	64.19
904.122	64.21
904.495	64.21
904.867	64.18
905.24	64.14
905.612	64.17
905.985	64.16
906.357	64.14
906.729	64.1
907.102	64.09
907.474	64.08
907.846	64.01
908.218	63.97
908.59	63.94
908.962	63.92
909.334	63.9
909.705	63.86
910.077	63.82
910.449	63.84
910.82	63.82
911.192	63.79
911.563	63.77
911.935	63.75
912.306	63.74
912.677	63.75
913.048	63.71
913.419	63.7
913.79	63.67
914.161	63.71
914.532	63.67
914.903	63.68
915.274	63.68
915.645	63.69
916.015	63.73
916.386	63.74
916.756	63.73
917.127	63.75
917.497	63.77
917.868	63.79
918.238	63.82
918.608	63.84
918.978	63.88
919.348	63.85
919.718	63.81
920.088	63.77
920.458	63.81
920.828	63.83
921.198	63.88
921.567	63.87
921.937	63.88
922.306	63.83
922.676	63.79
923.045	63.71
923.415	63.75
923.784	63.78
924.153	63.76
924.522	63.75
924.891	63.71
925.26	63.61
925.629	63.58
925.998	63.56
926.367	63.55
926.736	63.56
927.104	63.61
927.473	63.59
927.842	63.53
928.21	63.58
928.578	63.51
928.947	63.51
929.315	63.54
929.683	63.55
930.051	63.51
930.42	63.5
930.788	63.49
931.156	63.43
931.523	63.41
931.891	63.37
932.259	63.31
932.627	63.26
932.994	63.27
933.362	63.24
933.729	63.15
934.097	63.16
934.464	63.11
934.831	63.1
935.199	63.1
935.566	63.05
935.933	63.08
936.3	62.99
936.667	62.9
937.034	62.81
937.401	62.73
937.767	62.66
938.134	62.6
938.501	62.5
938.867	62.46
939.234	62.4
939.6	62.28
939.967	62.17
940.333	62.25
940.699	62.33
941.065	62.35
941.431	62.4
941.798	62.57
942.163	62.66
942.529	62.68
942.895	62.75
943.261	62.72
943.627	62.9
943.992	62.97
944.358	62.87
944.723	62.93
945.089	62.97
945.454	63.05
945.82	62.97
946.185	62.98
946.55	63.11
946.915	63.01
947.28	63.03
947.645	62.98
948.01	63
948.375	62.98
948.74	62.91
949.104	62.85
949.469	62.67
949.834	62.67
950.198	62.57
950.562	62.54
950.927	62.53
951.291	62.46
951.655	62.43
952.02	62.41
952.384	62.48
952.748	62.52
953.112	62.46
953.476	62.55
953.839	62.49
954.203	62.55
954.567	62.45
954.931	62.39
955.294	62.41
955.658	62.41
956.021	62.39
956.385	62.38
956.748	62.36
957.111	62.36
957.474	62.41
957.837	62.45
958.2	62.3
958.563	62.24
958.926	62.22
959.289	62.23
959.652	62.16
960.015	62.13
960.377	62.07
960.74	61.93
961.102	61.87
961.465	61.8
961.827	61.71
962.189	61.75
962.552	61.72
962.914	61.7
963.276	61.67
963.638	61.65
964	61.6
964.362	61.57
964.724	61.64
965.085	61.67
965.447	61.55
965.809	61.52
966.17	61.51
966.532	61.58
966.893	61.61
967.255	61.62
967.616	61.66
967.977	61.73
968.338	61.78
968.699	61.76
969.061	61.72
969.421	61.85
969.782	61.87
970.143	61.85
970.504	61.75
970.865	61.67
971.225	61.68
971.586	61.67
971.946	61.64
972.307	61.56
972.667	61.59
973.027	61.65
973.388	61.46
973.748	61.47
974.108	61.5
974.468	61.53
974.828	61.55
975.188	61.48
975.548	61.47
975.907	61.42
976.267	61.45
976.627	61.44
976.986	61.37
977.346	61.44
977.705	61.5
978.064	61.47
978.424	61.5
978.783	61.5
979.142	61.5
979.501	61.49
979.86	61.49
980.219	61.38
980.578	61.34
980.937	61.27
981.296	61.33
981.654	61.35
982.013	61.38
982.371	61.31
982.73	61.31
983.088	61.26
983.447	61.26
983.805	61.18
984.163	61.27
984.521	61.14
984.879	61.25
985.237	61.14
985.595	61.05
985.953	60.98
986.311	61.05
986.669	61.15
987.026	61.15
987.384	61.09
987.741	61.17
988.099	61.15
988.456	61.24
988.814	61.11
989.171	61.17
989.528	61.1
989.885	61.08
990.242	61.02
990.599	60.95
990.956	60.86
991.313	60.92
991.67	60.96
992.027	60.95
992.383	61.12
992.74	61.16
993.096	61.13
993.453	61.05
993.809	61.03
994.165	61.1
994.522	61
994.878	61.02
995.234	60.96
995.59	60.86
995.946	60.8
996.302	60.57
996.658	60.61
997.013	60.61
997.369	60.74
997.725	60.93
998.08	60.76
998.436	60.82
998.791	60.74
999.147	60.71
999.502	60.69
999.857	60.79
1000.212	60.72
1000.567	60.75
1000.922	60.75
1001.277	60.68
1001.632	60.53
1001.987	60.57
1002.342	60.55
1002.696	60.69
1003.051	60.57
1003.406	60.58
1003.76	60.41
1004.114	60.52
1004.469	60.32
1004.823	60.23
1005.177	60.31
1005.531	60.06
1005.885	59.92
1006.239	59.89
1006.593	59.83
1006.947	59.82
1007.301	59.71
1007.655	59.76
1008.008	59.63
1008.362	59.57
1008.715	59.6
1009.069	59.14
1009.422	59.06
1009.776	59.28
1010.129	58.97
1010.482	58.84
1010.835	58.8
1011.188	58.82
1011.541	58.59
1011.894	58.62
1012.247	58.52
1012.6	58.24
1012.952	58.54
1013.305	58.59
1013.657	58.48
1014.01	58.63
1014.362	58.79
1014.715	58.83
1015.067	58.85
1015.419	59.1
1015.771	59.24
1016.123	59.27
1016.475	59.52
1016.827	59.47
1017.179	59.48
1017.531	59.29
1017.883	59.37
1018.234	59.22
1018.586	59.19
1018.938	58.95
1019.289	58.52
1019.64	58.46
1019.992	58.49
1020.343	58.09
1020.694	57.91
1021.045	57.8
1021.396	57.86
1021.747	57.89
1022.098	58
1022.449	57.72
1022.8	57.55
1023.151	57.47
1023.501	57.07
1023.852	57.41
1024.202	57.65
1024.553	57.75
1024.903	57.77
1025.253	57.79
1025.604	57.54
1025.954	57.13
1026.304	57.63
1026.654	57.86
1027.004	57.93
1027.354	57.55
1027.703	57.2
1028.053	56.96
1028.403	57.02
1028.753	57.01
1029.102	56.26
1029.452	55.71
1029.801	55.26
1030.15	54.71
1030.499	54.31
897.758	806.89
901.051	812.32
904.343	820.59
907.636	806.5
910.928	791.79
914.22	804.14
917.511	789.4
920.803	755.16
924.094	723.03
927.384	721
930.675	702.71
933.965	695.57
937.255	696.29
940.544	666.35
943.834	631.59
947.123	623.48
950.411	588
953.7	577.07
956.988	561.01
960.276	534.82
963.563	527.84
966.851	497.96
970.138	489.04
973.424	455.24
976.711	447.57
979.997	436.94
983.283	426.55
986.568	414.98
989.853	401.26
993.138	387.15
996.423	381.84
999.708	369.28
1002.992	371.18
1006.275	359.36
1009.559	356.43
1012.842	346.66
1016.125	333.81
1019.408	327.35
1022.69	323.38
1025.972	321.45
1029.254	312.54
1032.536	307.08
1035.817	297.86
1039.098	292.14
1042.379	286.7
1045.659	282.01
1048.939	279.41
1052.219	275.66
1055.498	269.75
1058.778	264.91
1062.057	259.93
1065.335	259.04
1068.614	254.14
1071.892	251.49
1075.17	246.26
1078.447	243.58
1081.724	241.4
1085.001	236.26
1088.278	234.81
1091.554	234.39
1094.83	233.18
1098.106	229.71
1101.382	228.04
1104.657	227.61
1107.932	226.03
1111.206	225.33
1114.481	222.84
1117.755	221.39
1121.029	220.95
1124.302	217.64
1127.575	213.44
1130.848	212.59
1134.121	209.33
1137.393	208.88
1140.665	206.69
1143.937	204.39
1147.208	202.55
1150.48	199.37
1153.75	198.55
1157.021	196.23
1160.291	196.1
1163.561	196.18
1166.831	194.28
1170.101	193.95
1173.37	191.88
1176.639	190.39
1179.907	190.7
1183.176	189.88
1186.444	190.83
1189.711	189.44
1192.979	191.79
1196.246	192.18
1199.513	190.12
1202.78	190.89
1206.046	191.07
1209.312	193
1212.578	193.79
1215.843	196.56
1219.108	197.69
1222.373	200.88
1225.638	203.66
1228.902	208.17
1232.166	213.89
1235.43	219.1
1238.693	225.28
1241.956	230.51
1245.219	236.5
1248.482	238.83
1251.744	237.53
1255.006	237.76
1258.268	231.58
1261.529	229.93
1264.79	223.14
1268.051	219.01
1271.312	215.84
1274.572	210.86
1277.832	204.87
1281.092	201.89
1284.351	197.65
1287.61	197.67
1290.869	196.42
1294.128	195.62
1297.386	194.83
1300.644	194.19
1303.902	192.72
1307.159	192.94
1310.416	194.01
1313.673	197.76
1316.93	198.27
1320.186	201.5
1323.442	204.16
1326.697	209.22
1329.953	210.3
1333.208	217.67
1336.463	226.77
1339.717	231.73
1342.972	241.26
1346.226	248.27
1349.479	249.89
1352.733	261.62
1355.986	267.34
1359.238	272.26
1362.491	274.65
1365.743	285.55
1368.995	286.14
1372.247	281.45
1375.498	281.46
1378.749	292.09
1382	290.3
1385.251	289.61
1388.501	287.36
1391.751	291.23
1395	290.16
1398.25	292.37
1401.499	291.47
1404.748	291.47
1407.996	288.15
1411.244	287.97
1414.492	281.5
1417.74	275.98
1420.987	270.59
1424.234	267.16
1427.481	255.07
1430.728	249.05
1433.974	240.06
1437.22	231.58
1440.465	224.44
1443.711	218.19
1446.956	211.56
1450.201	203.57
1453.445	194.11
1456.689	187.77
1459.933	180.9
1463.177	173.72
1466.42	169.96
1469.663	164.78
1472.906	160.34
1476.148	156.08
1479.391	152.48
1482.633	149.85
1485.874	146.71
1489.115	145.08
1492.356	142.41
1495.597	141.12
1498.838	139.97
1502.078	138.51
1505.318	137.94
1508.557	136.81
1511.797	134.89
1515.036	134.43
1518.274	133.8
1521.513	132.76
1524.751	131.97
1527.989	133.08
1531.227	132.05
1534.464	132.3
1537.701	131.31
1540.938	130.65
1544.174	130.87
1547.41	130.71
1550.646	130.63
1553.882	130.05
1557.117	129.18
1560.352	129.03
1563.587	127.37
1566.821	127.45
1570.055	126.38
1573.289	125.72
1576.523	126.1
1579.756	125.43
1582.989	125.57
1586.222	125.06
1589.454	124.14
1592.686	124.31
1595.918	123.97
1599.15	123.87
1602.381	124.27
1605.612	124.37
1608.843	124.53
1612.073	124.92
1615.303	124.95
1618.533	124.4
1621.762	125.07
1624.992	125.69
1628.221	125.46
1631.449	125.84
1634.678	125.41
1637.906	125.43
1641.134	125.94
1644.361	126.04
1647.588	125.47
1650.815	125.57
1654.042	126.01
1657.269	125.5
1660.495	126.47
1663.72	126.18
1666.946	126.67
1670.171	127.9
1673.396	127.95
1676.621	128.22
1679.845	128.57
1683.069	128.16
1686.293	128.25
1689.517	128.48
1692.74	128.63
1695.963	128.7
1699.185	130.14
1702.408	129.85
1705.63	129.94
1708.852	130.65
1712.073	130
1715.294	129.75
1718.515	130.92
1721.736	131.05
1724.956	131.38
1728.176	131.35
1731.396	132.09
1734.616	131.48
1737.835	131.75
1741.054	131.52
1744.272	131.2
1747.491	132.01
1750.709	132.49
1753.927	132.45
1757.144	133.01
1760.361	133.28
1763.578	134.05
1766.795	134.27
1770.011	134.88
1773.227	135.48
1776.443	136.63
1779.658	137.27
1782.874	138.03
1786.089	138.89
1789.303	139.37
1792.518	140.35
1795.732	140.58
1798.945	142.68
1802.159	142.36
1805.372	144.29
1808.585	145.39
1811.797	146.7
1815.01	147.6
1818.222	148.61
1821.434	149.04
1824.645	150.31
1827.856	152.63
1831.067	154.52
1834.278	154.03
1837.488	156.46
1840.698	157.44
1843.908	157.71
1847.117	159.76
1850.326	161.36
1853.535	161.53
1856.744	164.17
1859.952	166.04
1863.16	165.76
1866.368	165.13
1869.575	166.93
1872.782	165.94
1875.989	165.74
1879.196	164.41
1882.402	163.17
1885.608	164.16
1888.814	164.65
1892.019	165.03
1895.224	162.44
1898.429	163.78
1901.634	164.79
1904.838	165.59
1908.042	166.5
1911.246	165.67
1914.449	167.7
1917.652	166.27
1920.855	166.83
1924.058	165.61
1927.26	165.21
1930.462	166.3
1933.664	165.57
1936.865	166.33
1940.066	163.85
1943.267	163.57
1946.467	165.49
1949.668	165.04
1952.868	165.57
1956.067	164.52
1959.267	166.1
1962.466	167.27
1965.665	168.64
1968.863	169.27
1972.061	170.06
1975.259	173.9
1978.457	175.06
1981.654	176.68
1984.852	178.48
1988.048	181.28
1991.245	183.64
1994.441	187.56
1997.637	190.84
2000.833	194.96
2004.028	196.4
2007.223	202.8
2010.418	206.21
2013.613	214.91
2016.807	219.44
2020.001	224.41
2023.194	230.26
2026.388	239.58
2029.581	250.34
2032.774	258.22
2035.966	265.88
2039.158	275.19
2042.35	278.36
2045.542	284.16
2048.733	296.23
2051.924	297.91
2055.115	302.69
2058.306	306.16
2061.496	311.24
2064.686	313.27
2067.875	309.78
2071.065	311.82
2074.254	313.56
2077.442	323.67
2080.631	325.17
2083.819	324.48
2087.007	332.77
2090.195	340.81
2093.382	340.55
2096.569	339.98
2099.756	345.19
2102.942	355.15
2106.128	364.64
2109.314	363.21
2112.5	362.2
2115.685	362.41
2118.87	362.92
2122.055	365.67
2125.239	370.17
2128.424	381.21
2131.608	378.82
2134.791	378.32
2137.974	377.88
2141.157	379.45
2144.34	385.98
2147.523	390.52
2150.705	399.48
2153.887	396.82
2157.068	400.52
2160.25	404.5
2163.431	400.49
2166.611	407.58
2169.792	415.49
2172.972	422.19
2176.152	422.55
2179.331	431.74
2182.511	432.84
2185.69	440.07
2188.868	457.55
2192.047	466.89
2195.225	472.52
2198.403	481.46
2201.58	478.77
2204.758	493.95
2207.935	497.96
2211.111	508.32
2214.288	511.21
2217.464	517.5
2220.64	519.26
2223.815	521.27
2226.991	513.36
2230.166	517.7
2233.34	532.74
2236.515	544.79
2239.689	536.08
2242.863	544.32
2246.036	538.72
2249.209	553.45
2252.382	554.27
2255.555	575.42
2258.727	575.89
2261.9	598.96
2265.071	606.9
2268.243	600.17
2271.414	617.99
2274.585	630.07
2277.756	631.54
2280.926	659.42
2284.096	656.1
2287.266	659.85
2290.436	644.37
2293.605	660.08
2296.774	681.93
2299.942	680.98
2303.111	707.82
2306.279	720.06
2309.447	722.18
2312.614	726.91
2315.781	742.48
2318.948	750.19
2322.115	764.7
2325.281	805.77
2328.447	797.73
2331.613	798.96
2334.779	815.52
2337.944	824.24
2341.109	840.05
2344.274	855.58
2347.438	876.11
2350.602	890.49
2353.766	951.01
2356.929	952.16
2360.092	969.5
2363.255	979.59
2366.418	992.32
2369.58	1013.14
2372.742	1007.43
2375.904	1003.43
2379.066	1028.86
2382.227	1084.64
2385.388	1084.1
2388.548	1024.4
2391.709	1017.41
2394.869	1044.42
2398.029	1043.19
2401.188	1044.12
2404.347	1075.72
2407.506	1115.57
2410.665	1073.3
2413.823	1073.78
2416.981	1075.15
2420.139	1016.07
2423.296	1100.26
2426.453	1173.6
2429.61	1116.71
2432.767	1195.96
2435.923	1238.52
2439.079	1188.89
2442.235	1211.97
2445.391	1242.45
2448.546	1234.24
2451.701	1304.42
2454.855	1398.02
2458.009	1232.26
2461.163	1256.37
2464.317	1264.69
2467.471	1242.09
2470.624	1286.03
2473.777	1260.02
2476.929	1223.29
2480.082	1308.04
2483.234	1374.95
2486.385	1393.56
2489.537	1426.31
2492.688	1580.16
2495.839	1535.5
2498.989	1590.85
2502.14	1591.5
2505.29	1509.72
2508.439	1694.24
2511.589	1735.22
2514.738	1689.94
2517.887	1670.58
2521.035	1565.14
2524.183	1539.96
2527.331	1519.74
2530.479	1493.63
2533.627	1525.96
