Data from N_2_dec_ct_2n_073_Splice17_13.txt Node
Date: Sat Feb 29 14:08:34 EST 2020
User: sa697716
Spectrometer: FLMS03696
Trigger mode: 0
Integration Time (sec): 3.180400E-1
Scans to average: 20
Electric dark correction enabled: true
Nonlinearity correction enabled: true
Boxcar width: 5
XAxis mode: Wavelengths
Number of Pixels in Spectrum: 2048
>>>>>Begin Spectral Data<<<<<
187.83	69.28
188.298	61.4
188.766	63.22
189.233	55
189.701	63.78
190.169	70.05
190.636	66.94
191.104	58.92
191.571	-42.61
192.039	-49.29
192.506	676.51
192.974	8702.37
193.441	-405.24
193.908	91.2
194.375	72.93
194.842	70.32
195.31	71.27
195.777	87.74
196.244	46.3
196.711	40.89
197.177	39.44
197.644	39.6
198.111	40.64
198.578	42
199.045	42.72
199.511	42.86
199.978	43.41
200.445	42.99
200.911	42.78
201.378	42.75
201.844	42.96
202.31	43.36
202.777	43.67
203.243	44.25
203.709	44.24
204.176	43.78
204.642	43.78
205.108	43.31
205.574	43.92
206.04	44.14
206.506	44.44
206.972	44.23
207.438	44.23
207.903	44.18
208.369	43.47
208.835	43.41
209.301	43.66
209.766	43.6
210.232	43.91
210.697	43.56
211.163	43.09
211.628	42.64
212.094	42.58
212.559	42.2
213.024	41.99
213.49	41.73
213.955	41.36
214.42	40.92
214.885	40.15
215.35	39.61
215.815	38.88
216.28	38.11
216.745	37.29
217.21	36.21
217.675	35.29
218.14	34.1
218.604	33.12
219.069	32.22
219.534	31.48
219.998	30.92
220.463	30.39
220.927	29.94
221.392	29.49
221.856	29.06
222.32	28.73
222.785	28.39
223.249	28.13
223.713	27.87
224.177	27.61
224.642	27.34
225.106	27.07
225.57	26.8
226.034	26.52
226.497	26.24
226.961	25.98
227.425	25.69
227.889	25.42
228.353	25.12
228.816	24.84
229.28	24.56
229.744	24.32
230.207	24.05
230.671	23.79
231.134	23.51
231.597	23.28
232.061	23.02
232.524	22.8
232.987	22.56
233.45	22.33
233.914	22.12
234.377	21.92
234.84	21.71
235.303	21.53
235.766	21.33
236.229	21.13
236.691	20.94
237.154	20.76
237.617	20.56
238.08	20.36
238.542	20.2
239.005	20.01
239.468	19.81
239.93	19.63
240.393	19.45
240.855	19.27
241.317	19.11
241.78	18.95
242.242	18.79
242.704	18.63
243.166	18.47
243.629	18.3
244.091	18.16
244.553	18.01
245.015	17.87
245.477	17.72
245.939	17.6
246.4	17.47
246.862	17.34
247.324	17.21
247.786	17.12
248.247	17.01
248.709	16.9
249.17	16.8
249.632	16.71
250.093	16.6
250.555	16.51
251.016	16.42
251.477	16.33
251.939	16.25
252.4	16.17
252.861	16.09
253.322	16.02
253.783	15.96
254.244	15.89
254.705	15.82
255.166	15.75
255.627	15.68
256.088	15.6
256.549	15.54
257.009	15.47
257.47	15.4
257.931	15.33
258.391	15.25
258.852	15.18
259.312	15.11
259.773	15.05
260.233	14.99
260.694	14.93
261.154	14.88
261.614	14.82
262.074	14.78
262.534	14.71
262.994	14.67
263.455	14.62
263.915	14.58
264.374	14.54
264.834	14.49
265.294	14.45
265.754	14.41
266.214	14.37
266.673	14.33
267.133	14.29
267.593	14.25
268.052	14.22
268.512	14.18
268.971	14.15
269.431	14.12
269.89	14.1
270.349	14.08
270.809	14.05
271.268	14.03
271.727	14
272.186	13.97
272.645	13.95
273.104	13.93
273.563	13.91
274.022	13.88
274.481	13.85
274.94	13.82
275.399	13.78
275.857	13.75
276.316	13.7
276.775	13.67
277.233	13.63
277.692	13.59
278.15	13.56
278.609	13.52
279.067	13.48
279.525	13.43
279.984	13.39
280.442	13.36
280.9	13.32
281.358	13.3
281.816	13.27
282.274	13.24
282.732	13.21
283.19	13.17
283.648	13.14
284.106	13.12
284.564	13.1
285.021	13.08
285.479	13.06
285.937	13.05
286.394	13.02
286.852	13
287.309	12.98
287.767	12.95
288.224	12.94
288.682	12.91
289.139	12.9
289.596	12.87
290.053	12.82
290.511	12.79
290.968	12.76
291.425	12.73
291.882	12.69
292.339	12.67
292.796	12.64
293.252	12.6
293.709	12.58
294.166	12.55
294.623	12.52
295.079	12.5
295.536	12.47
295.992	12.44
296.449	12.42
296.905	12.39
297.362	12.37
297.818	12.35
298.274	12.33
298.731	12.32
299.187	12.3
299.643	12.28
300.099	12.27
300.555	12.25
301.011	12.24
301.467	12.21
301.923	12.21
302.379	12.19
302.835	12.19
303.291	12.18
303.746	12.15
304.202	12.13
304.658	12.11
305.113	12.09
305.569	12.08
306.024	12.07
306.479	12.06
306.935	12.04
307.39	12.03
307.845	12.01
308.301	12
308.756	11.99
309.211	11.99
309.666	11.98
310.121	11.98
310.576	11.96
311.031	11.96
311.486	11.94
311.94	11.92
312.395	11.91
312.85	11.91
313.305	11.89
313.759	11.88
314.214	11.86
314.668	11.85
315.123	11.83
315.577	11.82
316.032	11.81
316.486	11.79
316.94	11.78
317.394	11.74
317.849	11.72
318.303	11.71
318.757	11.69
319.211	11.67
319.665	11.65
320.119	11.62
320.572	11.61
321.026	11.57
321.48	11.57
321.934	11.55
322.387	11.54
322.841	11.52
323.295	11.49
323.748	11.46
324.202	11.43
324.655	11.41
325.108	11.38
325.562	11.35
326.015	11.33
326.468	11.3
326.921	11.27
327.374	11.24
327.827	11.21
328.28	11.19
328.733	11.17
329.186	11.16
329.639	11.14
330.092	11.13
330.545	11.12
330.997	11.1
331.45	11.09
331.903	11.07
332.355	11.07
332.808	11.05
333.26	11.06
333.713	11.05
334.165	11.04
334.617	11.03
335.069	11.01
335.522	11
335.974	11
336.426	10.99
336.878	10.98
337.33	10.96
337.782	10.96
338.234	10.94
338.686	10.93
339.137	10.92
339.589	10.9
340.041	10.9
340.493	10.89
340.944	10.86
341.396	10.85
341.847	10.83
342.299	10.8
342.75	10.77
343.201	10.74
343.653	10.71
344.104	10.69
344.555	10.66
345.006	10.61
345.457	10.58
345.908	10.55
346.359	10.53
346.81	10.5
347.261	10.48
347.712	10.48
348.163	10.47
348.613	10.45
349.064	10.42
349.515	10.39
349.965	10.39
350.416	10.38
350.866	10.37
351.317	10.35
351.767	10.36
352.217	10.35
352.668	10.33
353.118	10.32
353.568	10.32
354.018	10.33
354.468	10.34
354.918	10.34
355.368	10.33
355.818	10.32
356.268	10.32
356.718	10.31
357.168	10.29
357.617	10.28
358.067	10.26
358.517	10.23
358.966	10.22
359.416	10.22
359.865	10.21
360.315	10.2
360.764	10.19
361.213	10.17
361.663	10.16
362.112	10.16
362.561	10.16
363.01	10.16
363.459	10.16
363.908	10.16
364.357	10.14
364.806	10.13
365.255	10.13
365.703	10.11
366.152	10.1
366.601	10.11
367.05	10.1
367.498	10.09
367.947	10.08
368.395	10.07
368.844	10.05
369.292	10.04
369.74	10.04
370.189	10.02
370.637	10.03
371.085	10.02
371.533	10.02
371.981	10
372.429	9.98
372.877	9.98
373.325	9.97
373.773	9.97
374.221	9.97
374.669	9.95
375.116	9.94
375.564	9.93
376.012	9.92
376.459	9.92
376.907	9.92
377.354	9.92
377.801	9.91
378.249	9.91
378.696	9.92
379.143	9.92
379.591	9.94
380.038	9.95
380.485	9.95
380.932	9.96
381.379	9.95
381.826	9.96
382.273	9.97
382.72	9.99
383.166	9.99
383.613	10
384.06	10.01
384.506	10
384.953	10.02
385.4	10.03
385.846	10.04
386.292	10.05
386.739	10.07
387.185	10.1
387.631	10.13
388.078	10.15
388.524	10.16
388.97	10.18
389.416	10.18
389.862	10.2
390.308	10.23
390.754	10.27
391.2	10.3
391.645	10.32
392.091	10.34
392.537	10.37
392.983	10.4
393.428	10.44
393.874	10.48
394.319	10.53
394.765	10.55
395.21	10.56
395.655	10.57
396.101	10.59
396.546	10.63
396.991	10.64
397.436	10.64
397.881	10.66
398.326	10.69
398.771	10.71
399.216	10.74
399.661	10.77
400.106	10.83
400.551	10.85
400.995	10.87
401.44	10.87
401.885	10.88
402.329	10.9
402.774	10.9
403.218	10.9
403.663	10.9
404.107	10.91
404.551	10.92
404.995	10.9
405.44	10.91
405.884	10.91
406.328	10.93
406.772	10.94
407.216	10.95
407.66	10.97
408.104	10.98
408.547	11
408.991	10.99
409.435	10.99
409.879	10.99
410.322	11.02
410.766	11.03
411.209	11.04
411.653	11.03
412.096	11.04
412.54	11.04
412.983	11.04
413.426	11.04
413.869	11.05
414.312	11.08
414.756	11.1
415.199	11.1
415.642	11.12
416.085	11.12
416.527	11.16
416.97	11.18
417.413	11.18
417.856	11.16
418.298	11.15
418.741	11.15
419.184	11.13
419.626	11.12
420.069	11.11
420.511	11.11
420.953	11.11
421.396	11.08
421.838	11.06
422.28	11.07
422.722	11.1
423.164	11.1
423.606	11.12
424.048	11.1
424.49	11.11
424.932	11.1
425.374	11.08
425.816	11.07
426.258	11.06
426.699	11.01
427.141	10.97
427.582	10.95
428.024	10.93
428.465	10.91
428.907	10.94
429.348	10.93
429.789	10.92
430.231	10.89
430.672	10.89
431.113	10.89
431.554	10.93
431.995	10.96
432.436	10.95
432.877	10.96
433.318	10.95
433.759	10.92
434.2	10.91
434.64	10.92
435.081	10.92
435.522	10.93
435.962	10.93
436.403	10.96
436.843	10.96
437.284	11
437.724	11.01
438.164	11.01
438.604	11.04
439.045	11.06
439.485	11.08
439.925	11.11
440.365	11.1
440.805	11.13
441.245	11.11
441.685	11.14
442.125	11.15
442.564	11.18
443.004	11.22
443.444	11.26
443.883	11.27
444.323	11.3
444.762	11.35
445.202	11.43
445.641	11.47
446.081	11.55
446.52	11.57
446.959	11.6
447.398	11.67
447.837	11.73
448.276	11.76
448.716	11.84
449.154	11.9
449.593	11.94
450.032	11.98
450.471	12.01
450.91	12.02
451.349	12.09
451.787	12.11
452.226	12.11
452.664	12.12
453.103	12.13
453.541	12.15
453.98	12.15
454.418	12.13
454.856	12.11
455.295	12.11
455.733	12.11
456.171	12.08
456.609	12.08
457.047	12.07
457.485	12.04
457.923	12.05
458.361	12.02
458.798	12.01
459.236	12.01
459.674	12.01
460.111	12
460.549	12
460.987	12
461.424	11.98
461.862	11.99
462.299	12
462.736	11.98
463.173	11.99
463.611	11.98
464.048	11.99
464.485	11.99
464.922	11.98
465.359	11.98
465.796	11.98
466.233	11.99
466.67	11.98
467.106	11.98
467.543	11.98
467.98	11.98
468.416	12
468.853	11.99
469.29	11.99
469.726	12.01
470.162	12.02
470.599	12.01
471.035	12.02
471.471	12.03
471.907	12.04
472.344	12.05
472.78	12.06
473.216	12.04
473.652	12.04
474.088	12.05
474.523	12.04
474.959	12
475.395	12.02
475.831	12.02
476.266	12.03
476.702	12.03
477.138	12.02
477.573	12.03
478.008	12.04
478.444	12.03
478.879	12.02
479.314	12.03
479.75	12.05
480.185	12.05
480.62	12.06
481.055	12.06
481.49	12.06
481.925	12.05
482.36	12.03
482.795	12.02
483.229	12.02
483.664	12.02
484.099	12.04
484.534	12.05
484.968	12.05
485.403	12.04
485.837	12.05
486.271	12.08
486.706	12.09
487.14	12.14
487.574	12.18
488.009	12.23
488.443	12.27
488.877	12.31
489.311	12.35
489.745	12.42
490.179	12.5
490.613	12.56
491.046	12.64
491.48	12.73
491.914	12.8
492.348	12.88
492.781	12.96
493.215	13.06
493.648	13.16
494.082	13.26
494.515	13.37
494.948	13.48
495.382	13.6
495.815	13.72
496.248	13.85
496.681	13.97
497.114	14.11
497.547	14.25
497.98	14.4
498.413	14.54
498.846	14.7
499.279	14.88
499.711	15.05
500.144	15.24
500.577	15.43
501.009	15.63
501.442	15.85
501.874	16.07
502.306	16.3
502.739	16.55
503.171	16.82
503.603	17.08
504.036	17.36
504.468	17.66
504.9	17.97
505.332	18.28
505.764	18.61
506.196	18.94
506.627	19.27
507.059	19.63
507.491	19.98
507.923	20.35
508.354	20.73
508.786	21.09
509.217	21.45
509.649	21.84
510.08	22.24
510.512	22.63
510.943	23.04
511.374	23.47
511.805	23.89
512.237	24.31
512.668	24.72
513.099	25.16
513.53	25.62
513.961	26.08
514.391	26.51
514.822	26.97
515.253	27.43
515.684	27.86
516.114	28.32
516.545	28.78
516.975	29.25
517.406	29.73
517.836	30.15
518.267	30.59
518.697	31.03
519.127	31.5
519.558	31.93
519.988	32.35
520.418	32.77
520.848	33.18
521.278	33.6
521.708	33.89
522.138	34.26
522.567	34.66
522.997	35.04
523.427	35.39
523.857	35.73
524.286	36.09
524.716	36.43
525.145	36.78
525.575	37.1
526.004	37.38
526.433	37.76
526.863	38.05
527.292	38.34
527.721	38.59
528.15	38.84
528.579	39.08
529.008	39.31
529.437	39.51
529.866	39.72
530.295	39.93
530.724	40.15
531.152	40.33
531.581	40.52
532.01	40.66
532.438	40.82
532.867	40.97
533.295	41.12
533.723	41.27
534.152	41.41
534.58	41.51
535.008	41.57
535.436	41.64
535.865	41.74
536.293	41.84
536.721	41.94
537.149	42.01
537.576	42.08
538.004	42.13
538.432	42.18
538.86	42.24
539.287	42.32
539.715	42.42
540.143	42.48
540.57	42.53
540.998	42.56
541.425	42.6
541.852	42.65
542.28	42.7
542.707	42.74
543.134	42.78
543.561	42.81
543.988	42.84
544.415	42.86
544.842	42.88
545.269	42.93
545.696	42.95
546.123	43.01
546.549	43.03
546.976	43.06
547.403	43.1
547.829	43.15
548.256	43.16
548.682	43.19
549.108	43.22
549.535	43.25
549.961	43.25
550.387	43.27
550.813	43.25
551.24	43.26
551.666	43.29
552.092	43.28
552.518	43.24
552.943	43.24
553.369	43.23
553.795	43.21
554.221	43.16
554.646	43.13
555.072	43.1
555.498	43.05
555.923	42.97
556.349	42.87
556.774	42.8
557.199	42.75
557.625	42.65
558.05	42.55
558.475	42.44
558.9	42.36
559.325	42.24
559.75	42.12
560.175	42.02
560.6	41.9
561.025	41.78
561.449	41.61
561.874	41.46
562.299	41.34
562.723	41.18
563.148	41.02
563.572	40.86
563.997	40.66
564.421	40.46
564.846	40.27
565.27	40.1
565.694	39.91
566.118	39.74
566.542	39.54
566.966	39.32
567.39	39.09
567.814	38.86
568.238	38.62
568.662	38.44
569.086	38.22
569.509	37.98
569.933	37.73
570.357	37.48
570.78	37.23
571.204	36.99
571.627	36.75
572.05	36.54
572.474	36.32
572.897	36.09
573.32	35.86
573.743	35.65
574.166	35.44
574.589	35.23
575.012	35.04
575.435	34.86
575.858	34.68
576.281	34.51
576.704	34.33
577.126	34.16
577.549	34.03
577.972	33.85
578.394	33.7
578.817	33.58
579.239	33.47
579.661	33.34
580.084	33.19
580.506	33.06
580.928	32.96
581.35	32.86
581.772	32.76
582.194	32.65
582.616	32.55
583.038	32.45
583.46	32.34
583.882	32.23
584.303	32.13
584.725	32.06
585.147	31.96
585.568	31.83
585.99	31.73
586.411	31.64
586.833	31.52
587.254	31.42
587.675	31.32
588.096	31.25
588.518	31.17
588.939	31.11
589.36	31.01
589.781	30.93
590.202	30.88
590.623	30.81
591.043	30.75
591.464	30.7
591.885	30.64
592.305	30.59
592.726	30.53
593.147	30.5
593.567	30.41
593.987	30.38
594.408	30.33
594.828	30.28
595.248	30.24
595.669	30.2
596.089	30.15
596.509	30.09
596.929	30.04
597.349	29.98
597.769	29.89
598.189	29.85
598.608	29.8
599.028	29.74
599.448	29.68
599.867	29.61
600.287	29.53
600.706	29.44
601.126	29.36
601.545	29.28
601.965	29.2
602.384	29.13
602.803	29.02
603.222	28.89
603.641	28.79
604.061	28.7
604.48	28.59
604.898	28.47
605.317	28.35
605.736	28.25
606.155	28.11
606.574	27.97
606.992	27.82
607.411	27.71
607.829	27.55
608.248	27.4
608.666	27.25
609.085	27.1
609.503	26.96
609.921	26.82
610.339	26.68
610.758	26.56
611.176	26.43
611.594	26.29
612.012	26.15
612.43	26.06
612.847	25.94
613.265	25.8
613.683	25.67
614.101	25.55
614.518	25.44
614.936	25.31
615.353	25.18
615.771	25.05
616.188	24.97
616.606	24.86
617.023	24.76
617.44	24.66
617.857	24.58
618.274	24.49
618.691	24.41
619.108	24.33
619.525	24.27
619.942	24.19
620.359	24.14
620.776	24.06
621.192	24.01
621.609	23.96
622.026	23.9
622.442	23.84
622.859	23.79
623.275	23.76
623.691	23.73
624.108	23.69
624.524	23.66
624.94	23.63
625.356	23.61
625.772	23.58
626.188	23.55
626.604	23.53
627.02	23.53
627.436	23.52
627.852	23.47
628.268	23.47
628.683	23.44
629.099	23.43
629.514	23.4
629.93	23.38
630.345	23.35
630.761	23.3
631.176	23.27
631.591	23.21
632.007	23.14
632.422	23.1
632.837	23.01
633.252	22.94
633.667	22.84
634.082	22.75
634.497	22.64
634.911	22.53
635.326	22.41
635.741	22.29
636.155	22.15
636.57	22.02
636.984	21.85
637.399	21.68
637.813	21.5
638.228	21.33
638.642	21.16
639.056	20.98
639.47	20.79
639.884	20.59
640.298	20.38
640.712	20.2
641.126	19.99
641.54	19.8
641.954	19.63
642.368	19.43
642.781	19.24
643.195	19.04
643.609	18.84
644.022	18.66
644.436	18.47
644.849	18.3
645.262	18.12
645.676	17.93
646.089	17.76
646.502	17.58
646.915	17.45
647.328	17.32
647.741	17.18
648.154	17.06
648.567	16.94
648.98	16.84
649.393	16.73
649.805	16.62
650.218	16.54
650.631	16.46
651.043	16.36
651.456	16.26
651.868	16.16
652.28	16.07
652.693	15.97
653.105	15.85
653.517	15.74
653.929	15.63
654.341	15.52
654.753	15.38
655.165	15.24
655.577	15.09
655.989	14.94
656.401	14.78
656.813	14.61
657.224	14.43
657.636	14.27
658.047	14.09
658.459	13.92
658.87	13.73
659.282	13.56
659.693	13.38
660.104	13.21
660.515	13.02
660.926	12.85
661.338	12.69
661.749	12.53
662.159	12.36
662.57	12.2
662.981	12.04
663.392	11.89
663.803	11.74
664.213	11.6
664.624	11.49
665.035	11.36
665.445	11.27
665.855	11.16
666.266	11.07
666.676	10.98
667.086	10.9
667.497	10.82
667.907	10.73
668.317	10.68
668.727	10.62
669.137	10.56
669.547	10.52
669.956	10.46
670.366	10.44
670.776	10.4
671.186	10.37
671.595	10.34
672.005	10.33
672.414	10.32
672.824	10.31
673.233	10.3
673.642	10.29
674.052	10.29
674.461	10.29
674.87	10.28
675.279	10.31
675.688	10.33
676.097	10.36
676.506	10.39
676.915	10.43
677.323	10.47
677.732	10.51
678.141	10.57
678.549	10.62
678.958	10.71
679.366	10.79
679.775	10.88
680.183	11
680.592	11.12
681	11.25
681.408	11.39
681.816	11.58
682.224	11.79
682.632	12.03
683.04	12.28
683.448	12.55
683.856	12.86
684.264	13.22
684.671	13.59
685.079	14
685.487	14.47
685.894	14.97
686.302	15.48
686.709	16.04
687.116	16.65
687.524	17.29
687.931	17.97
688.338	18.69
688.745	19.43
689.152	20.22
689.559	21
689.966	21.82
690.373	22.68
690.78	23.55
691.187	24.44
691.593	25.32
692	26.22
692.407	27.14
692.813	28.04
693.22	28.95
693.626	29.87
694.032	30.81
694.439	31.74
694.845	32.61
695.251	33.5
695.657	34.37
696.063	35.26
696.469	36.1
696.875	36.92
697.281	37.73
697.687	38.51
698.093	39.3
698.498	40.09
698.904	40.86
699.31	41.6
699.715	42.36
700.12	43.08
700.526	43.76
700.931	44.44
701.337	45.14
701.742	45.79
702.147	46.46
702.552	47.1
702.957	47.66
703.362	48.25
703.767	48.86
704.172	49.4
704.577	49.95
704.981	50.5
705.386	51.02
705.791	51.54
706.195	52.02
706.6	52.52
707.004	52.99
707.408	53.46
707.813	53.92
708.217	54.34
708.621	54.77
709.025	55.19
709.43	55.59
709.834	55.99
710.237	56.36
710.641	56.78
711.045	57.14
711.449	57.48
711.853	57.86
712.256	58.21
712.66	58.59
713.064	58.93
713.467	59.28
713.87	59.62
714.274	59.96
714.677	60.28
715.08	60.58
715.484	60.91
715.887	61.24
716.29	61.52
716.693	61.77
717.096	62.01
717.499	62.26
717.901	62.5
718.304	62.74
718.707	63
719.109	63.28
719.512	63.56
719.915	63.76
720.317	63.97
720.719	64.2
721.122	64.42
721.524	64.66
721.926	64.91
722.328	65.13
722.731	65.33
723.133	65.5
723.535	65.67
723.937	65.83
724.338	66.02
724.74	66.18
725.142	66.35
725.544	66.51
725.945	66.66
726.347	66.81
726.748	66.91
727.15	67.04
727.551	67.18
727.952	67.3
728.354	67.45
728.755	67.53
729.156	67.64
729.557	67.74
729.958	67.87
730.359	67.94
730.76	67.99
731.161	68.12
731.562	68.21
731.962	68.32
732.363	68.44
732.763	68.54
733.164	68.63
733.564	68.72
733.965	68.75
734.365	68.81
734.766	68.89
735.166	68.96
735.566	68.97
735.966	69.03
736.366	69.03
736.766	69.02
737.166	69.04
737.566	69.06
737.966	69.11
738.365	69.17
738.765	69.2
739.165	69.21
739.564	69.23
739.964	69.28
740.363	69.27
740.763	69.28
741.162	69.32
741.561	69.32
741.96	69.37
742.36	69.38
742.759	69.35
743.158	69.35
743.557	69.37
743.955	69.43
744.354	69.49
744.753	69.57
745.152	69.62
745.55	69.66
745.949	69.73
746.348	69.73
746.746	69.74
747.144	69.85
747.543	69.89
747.941	69.96
748.339	69.99
748.737	70.05
749.136	70.06
749.534	70.11
749.932	70.11
750.33	70.11
750.727	70.15
751.125	70.19
751.523	70.16
751.921	70.18
752.318	70.18
752.716	70.14
753.113	70.12
753.511	70.06
753.908	70.06
754.305	70.03
754.703	70.02
755.1	69.99
755.497	69.97
755.894	69.96
756.291	69.92
756.688	69.89
757.085	69.9
757.482	69.85
757.878	69.93
758.275	69.93
758.672	69.98
759.068	69.99
759.465	70
759.861	69.99
760.258	69.99
760.654	69.99
761.05	69.96
761.447	69.95
761.843	69.94
762.239	69.87
762.635	69.83
763.031	69.8
763.427	69.77
763.822	69.74
764.218	69.75
764.614	69.72
765.01	69.74
765.405	69.72
765.801	69.7
766.196	69.69
766.592	69.71
766.987	69.69
767.382	69.66
767.778	69.66
768.173	69.68
768.568	69.65
768.963	69.65
769.358	69.63
769.753	69.67
770.148	69.68
770.542	69.66
770.937	69.62
771.332	69.6
771.726	69.62
772.121	69.62
772.515	69.62
772.91	69.63
773.304	69.63
773.699	69.63
774.093	69.6
774.487	69.61
774.881	69.64
775.275	69.66
775.669	69.68
776.063	69.64
776.457	69.61
776.851	69.53
777.245	69.55
777.638	69.54
778.032	69.55
778.425	69.58
778.819	69.58
779.212	69.54
779.606	69.53
779.999	69.54
780.392	69.54
780.786	69.51
781.179	69.58
781.572	69.55
781.965	69.55
782.358	69.53
782.751	69.53
783.143	69.53
783.536	69.56
783.929	69.61
784.322	69.65
784.714	69.66
785.107	69.77
785.499	69.77
785.891	69.81
786.284	69.81
786.676	69.85
787.068	69.88
787.46	69.89
787.852	69.92
788.245	69.88
788.636	69.86
789.028	69.85
789.42	69.78
789.812	69.77
790.204	69.7
790.595	69.68
790.987	69.69
791.378	69.63
791.77	69.66
792.161	69.63
792.553	69.65
792.944	69.67
793.335	69.7
793.726	69.67
794.117	69.68
794.508	69.72
794.899	69.75
795.29	69.72
795.681	69.77
796.072	69.77
796.463	69.77
796.853	69.74
797.244	69.72
797.634	69.69
798.025	69.71
798.415	69.68
798.806	69.66
799.196	69.68
799.586	69.7
799.976	69.68
800.366	69.67
800.756	69.63
801.146	69.65
801.536	69.65
801.926	69.68
802.316	69.7
802.706	69.73
803.095	69.77
803.485	69.73
803.874	69.73
804.264	69.77
804.653	69.78
805.043	69.8
805.432	69.78
805.821	69.78
806.21	69.81
806.599	69.87
806.988	69.88
807.377	69.91
807.766	69.96
808.155	69.99
808.544	69.93
808.933	69.95
809.321	69.98
809.71	70.05
810.098	70.07
810.487	70.08
810.875	70.06
811.264	70.05
811.652	70.03
812.04	70.01
812.428	70.03
812.816	70.06
813.204	70.04
813.592	70.05
813.98	70.06
814.368	70.05
814.756	70.07
815.144	70.09
815.531	70.12
815.919	70.15
816.306	70.17
816.694	70.14
817.081	70.11
817.469	70.18
817.856	70.24
818.243	70.23
818.63	70.29
819.017	70.29
819.404	70.29
819.791	70.3
820.178	70.31
820.565	70.33
820.952	70.37
821.339	70.43
821.725	70.43
822.112	70.41
822.498	70.42
822.885	70.39
823.271	70.4
823.657	70.43
824.044	70.41
824.43	70.42
824.816	70.4
825.202	70.38
825.588	70.38
825.974	70.36
826.36	70.36
826.746	70.39
827.132	70.37
827.517	70.36
827.903	70.33
828.289	70.36
828.674	70.36
829.06	70.38
829.445	70.41
829.83	70.39
830.216	70.38
830.601	70.37
830.986	70.34
831.371	70.38
831.756	70.34
832.141	70.34
832.526	70.31
832.911	70.32
833.295	70.31
833.68	70.36
834.065	70.38
834.449	70.36
834.834	70.35
835.218	70.34
835.603	70.31
835.987	70.3
836.371	70.31
836.755	70.31
837.139	70.3
837.524	70.26
837.908	70.16
838.291	70.13
838.675	70.13
839.059	70.15
839.443	70.12
839.827	70.07
840.21	70.09
840.594	70.05
840.977	70.02
841.361	70.04
841.744	70.06
842.127	70.06
842.511	70.07
842.894	70.05
843.277	70.05
843.66	70.07
844.043	70.1
844.426	70.1
844.809	70.11
845.191	70.11
845.574	70.07
845.957	70.01
846.339	70.01
846.722	70.02
847.104	70.01
847.487	70.02
847.869	70
848.252	69.98
848.634	70
849.016	70.01
849.398	70
849.78	70.02
850.162	70.04
850.544	70.05
850.926	70.01
851.307	70.01
851.689	69.93
852.071	69.92
852.452	69.95
852.834	69.9
853.215	69.89
853.597	69.87
853.978	69.83
854.359	69.82
854.741	69.84
855.122	69.84
855.503	69.88
855.884	69.93
856.265	69.93
856.646	69.88
857.026	69.91
857.407	69.85
857.788	69.86
858.169	69.88
858.549	69.91
858.93	69.88
859.31	69.85
859.69	69.8
860.071	69.77
860.451	69.79
860.831	69.83
861.211	69.8
861.591	69.83
861.971	69.83
862.351	69.84
862.731	69.82
863.111	69.82
863.491	69.88
863.87	69.9
864.25	69.94
864.629	69.93
865.009	69.88
865.388	69.89
865.768	69.91
866.147	69.92
866.526	69.9
866.905	69.9
867.284	69.9
867.663	69.87
868.042	69.84
868.421	69.79
868.8	69.82
869.179	69.84
869.558	69.85
869.936	69.86
870.315	69.88
870.693	69.89
871.072	69.86
871.45	69.85
871.828	69.85
872.207	69.89
872.585	69.89
872.963	69.84
873.341	69.84
873.719	69.83
874.097	69.81
874.475	69.79
874.853	69.77
875.23	69.79
875.608	69.81
875.986	69.78
876.363	69.76
876.741	69.76
877.118	69.77
877.495	69.76
877.873	69.74
878.25	69.72
878.627	69.72
879.004	69.73
879.381	69.72
879.758	69.7
880.135	69.71
880.512	69.7
880.889	69.72
881.265	69.73
881.642	69.74
882.019	69.75
882.395	69.77
882.772	69.77
883.148	69.74
883.524	69.75
883.901	69.75
884.277	69.74
884.653	69.75
885.029	69.75
885.405	69.73
885.781	69.71
886.157	69.75
886.532	69.73
886.908	69.74
887.284	69.78
887.659	69.78
888.035	69.78
888.411	69.76
888.786	69.73
889.161	69.69
889.537	69.69
889.912	69.68
890.287	69.61
890.662	69.59
891.037	69.53
891.412	69.47
891.787	69.42
892.162	69.37
892.536	69.36
892.911	69.3
893.286	69.26
893.66	69.26
894.035	69.23
894.409	69.22
894.784	69.2
895.158	69.19
895.532	69.2
895.906	69.19
896.281	69.2
896.655	69.19
897.029	69.2
897.402	69.22
897.776	69.19
898.15	69.21
898.524	69.22
898.898	69.2
899.271	69.23
899.645	69.2
900.018	69.21
900.392	69.19
900.765	69.21
901.138	69.21
901.511	69.19
901.884	69.17
902.258	69.13
902.631	69.16
903.003	69.17
903.376	69.14
903.749	69.15
904.122	69.16
904.495	69.16
904.867	69.12
905.24	69.15
905.612	69.12
905.985	69.12
906.357	69.1
906.729	69.04
907.102	69
907.474	68.99
907.846	68.97
908.218	68.91
908.59	68.91
908.962	68.9
909.334	68.86
909.705	68.88
910.077	68.88
910.449	68.92
910.82	68.93
911.192	68.94
911.563	68.92
911.935	68.93
912.306	68.95
912.677	68.95
913.048	68.96
913.419	68.92
913.79	68.91
914.161	68.87
914.532	68.84
914.903	68.81
915.274	68.77
915.645	68.75
916.015	68.73
916.386	68.72
916.756	68.68
917.127	68.66
917.497	68.68
917.868	68.68
918.238	68.72
918.608	68.72
918.978	68.7
919.348	68.65
919.718	68.64
920.088	68.69
920.458	68.68
920.828	68.68
921.198	68.7
921.567	68.66
921.937	68.64
922.306	68.61
922.676	68.6
923.045	68.58
923.415	68.64
923.784	68.63
924.153	68.56
924.522	68.56
924.891	68.56
925.26	68.51
925.629	68.53
925.998	68.56
926.367	68.54
926.736	68.49
927.104	68.51
927.473	68.53
927.842	68.54
928.21	68.54
928.578	68.47
928.947	68.42
929.315	68.43
929.683	68.44
930.051	68.4
930.42	68.36
930.788	68.38
931.156	68.33
931.523	68.23
931.891	68.12
932.259	68
932.627	67.93
932.994	67.94
933.362	67.86
933.729	67.75
934.097	67.66
934.464	67.6
934.831	67.5
935.199	67.41
935.566	67.37
935.933	67.44
936.3	67.41
936.667	67.38
937.034	67.3
937.401	67.27
937.767	67.22
938.134	67.15
938.501	67.18
938.867	67.17
939.234	67.22
939.6	67.21
939.967	67.14
940.333	67.23
940.699	67.35
941.065	67.5
941.431	67.57
941.798	67.65
942.163	67.79
942.529	67.81
942.895	67.84
943.261	67.95
943.627	68.12
943.992	68.23
944.358	68.23
944.723	68.19
945.089	68.18
945.454	68.29
945.82	68.38
946.185	68.43
946.55	68.54
946.915	68.57
947.28	68.58
947.645	68.48
948.01	68.45
948.375	68.51
948.74	68.46
949.104	68.4
949.469	68.26
949.834	68.25
950.198	68.18
950.562	68.13
950.927	68.05
951.291	67.94
951.655	67.92
952.02	67.92
952.384	67.88
952.748	67.92
953.112	67.9
953.476	67.91
953.839	67.82
954.203	67.79
954.567	67.78
954.931	67.81
955.294	67.85
955.658	67.84
956.021	67.77
956.385	67.76
956.748	67.71
957.111	67.64
957.474	67.66
957.837	67.71
958.2	67.59
958.563	67.55
958.926	67.47
959.289	67.44
959.652	67.42
960.015	67.41
960.377	67.36
960.74	67.25
961.102	67.23
961.465	67.17
961.827	67.04
962.189	67.02
962.552	66.99
962.914	66.98
963.276	67.01
963.638	66.97
964	66.91
964.362	66.89
964.724	66.96
965.085	66.94
965.447	66.83
965.809	66.81
966.17	66.9
966.532	66.93
966.893	66.93
967.255	66.83
967.616	66.87
967.977	66.89
968.338	66.82
968.699	66.74
969.061	66.71
969.421	66.75
969.782	66.76
970.143	66.67
970.504	66.53
970.865	66.44
971.225	66.43
971.586	66.45
971.946	66.49
972.307	66.5
972.667	66.56
973.027	66.58
973.388	66.57
973.748	66.65
974.108	66.62
974.468	66.69
974.828	66.76
975.188	66.82
975.548	66.76
975.907	66.72
976.267	66.75
976.627	66.77
976.986	66.76
977.346	66.74
977.705	66.69
978.064	66.75
978.424	66.72
978.783	66.74
979.142	66.71
979.501	66.62
979.86	66.62
980.219	66.48
980.578	66.4
980.937	66.43
981.296	66.47
981.654	66.5
982.013	66.51
982.371	66.49
982.73	66.38
983.088	66.26
983.447	66.32
983.805	66.35
984.163	66.5
984.521	66.48
984.879	66.43
985.237	66.41
985.595	66.35
985.953	66.3
986.311	66.39
986.669	66.42
987.026	66.54
987.384	66.57
987.741	66.53
988.099	66.48
988.456	66.42
988.814	66.4
989.171	66.42
989.528	66.28
989.885	66.17
990.242	66.16
990.599	66.26
990.956	66.24
991.313	66.2
991.67	66.18
992.027	66.17
992.383	66.23
992.74	66.22
993.096	66.23
993.453	66.28
993.809	66.37
994.165	66.24
994.522	66.18
994.878	66.13
995.234	66.06
995.59	66.05
995.946	66.03
996.302	66.03
996.658	66.01
997.013	65.96
997.369	66.02
997.725	66.08
998.08	66.16
998.436	66.14
998.791	66.21
999.147	66.17
999.502	66.1
999.857	66.19
1000.212	66.13
1000.567	66.16
1000.922	66.15
1001.277	66.13
1001.632	66.09
1001.987	66.04
1002.342	66.11
1002.696	66.13
1003.051	66.1
1003.406	66.04
1003.76	65.78
1004.114	65.9
1004.469	65.66
1004.823	65.63
1005.177	65.85
1005.531	65.82
1005.885	65.76
1006.239	65.59
1006.593	65.5
1006.947	65.39
1007.301	65.55
1007.655	65.7
1008.008	65.52
1008.362	65.75
1008.715	65.55
1009.069	65.17
1009.422	65.07
1009.776	64.92
1010.129	64.96
1010.482	64.89
1010.835	65.16
1011.188	64.91
1011.541	64.75
1011.894	64.89
1012.247	64.93
1012.6	64.98
1012.952	65.24
1013.305	65.31
1013.657	65.45
1014.01	65.5
1014.362	65.61
1014.715	65.6
1015.067	65.64
1015.419	66.05
1015.771	66.19
1016.123	66.07
1016.475	66.3
1016.827	66.44
1017.179	66.49
1017.531	66.49
1017.883	66.66
1018.234	66.68
1018.586	66.55
1018.938	66.66
1019.289	66.34
1019.64	66.2
1019.992	66.38
1020.343	66.46
1020.694	66.04
1021.045	66.02
1021.396	66.16
1021.747	65.64
1022.098	65.61
1022.449	65.51
1022.8	65.57
1023.151	65.58
1023.501	65.37
1023.852	65.51
1024.202	65.35
1024.553	65.45
1024.903	65.18
1025.253	65.13
1025.604	65.47
1025.954	65.06
1026.304	65.51
1026.654	65.49
1027.004	65.73
1027.354	65.94
1027.703	65.05
1028.053	64.74
1028.403	64.74
1028.753	65.43
1029.102	65.34
1029.452	65.2
1029.801	65.49
1030.15	65.15
1030.499	65.08
897.758	656.1
901.051	662.85
904.343	672.65
907.636	658.68
910.928	646.88
914.22	660.81
917.511	649.03
920.803	620.02
924.094	592.96
927.384	595.74
930.675	582.61
933.965	575.61
937.255	579.09
940.544	553.66
943.834	527.78
947.123	520.1
950.411	490.56
953.7	481.24
956.988	469.22
960.276	447.07
963.563	440.9
966.851	416.95
970.138	410.56
973.424	380.05
976.711	375.22
979.997	365.48
983.283	358.22
986.568	347.68
989.853	336.16
993.138	325.03
996.423	323.46
999.708	313.45
1002.992	314.96
1006.275	304.54
1009.559	303.9
1012.842	293.74
1016.125	285.08
1019.408	279.2
1022.69	277.57
1025.972	276.23
1029.254	269.55
1032.536	264.31
1035.817	256.81
1039.098	252.51
1042.379	247.59
1045.659	242.51
1048.939	240.97
1052.219	237.74
1055.498	233.47
1058.778	228.3
1062.057	224.71
1065.335	223.05
1068.614	219.08
1071.892	216.26
1075.17	211.99
1078.447	209.96
1081.724	208.93
1085.001	204.94
1088.278	203.7
1091.554	202.92
1094.83	202.93
1098.106	199.81
1101.382	198.21
1104.657	198.4
1107.932	197.51
1111.206	197.05
1114.481	194.56
1117.755	192.43
1121.029	192.2
1124.302	189.89
1127.575	186.6
1130.848	185.3
1134.121	183.29
1137.393	183.21
1140.665	181.1
1143.937	179.34
1147.208	176.83
1150.48	175.6
1153.75	175.08
1157.021	173.53
1160.291	172.59
1163.561	172.59
1166.831	171.19
1170.101	171.1
1173.37	169.2
1176.639	167.53
1179.907	168.01
1183.176	167.15
1186.444	167.1
1189.711	166.94
1192.979	168.05
1196.246	167.92
1199.513	166.87
1202.78	167.71
1206.046	167.73
1209.312	167.88
1212.578	168.9
1215.843	171.04
1219.108	172.87
1222.373	175.23
1225.638	176.88
1228.902	180.55
1232.166	186.37
1235.43	189.66
1238.693	193.05
1241.956	197.7
1245.219	204.95
1248.482	205.85
1251.744	204.84
1255.006	203.61
1258.268	199.94
1261.529	198.85
1264.79	192.85
1268.051	189.57
1271.312	187.06
1274.572	183.7
1277.832	178.83
1281.092	175.7
1284.351	172.77
1287.61	172.47
1290.869	172.49
1294.128	171.39
1297.386	170.3
1300.644	170.39
1303.902	168.87
1307.159	168.01
1310.416	169.19
1313.673	171.98
1316.93	172.71
1320.186	175.93
1323.442	177.31
1326.697	180.46
1329.953	181.52
1333.208	188.02
1336.463	195.25
1339.717	199
1342.972	208.36
1346.226	214.2
1349.479	215.07
1352.733	224.74
1355.986	228.46
1359.238	233.88
1362.491	235.08
1365.743	244.42
1368.995	245.49
1372.247	242.29
1375.498	241.29
1378.749	249.65
1382	249.07
1385.251	248.41
1388.501	247.77
1391.751	250.69
1395	248.58
1398.25	251.65
1401.499	250.68
1404.748	249.5
1407.996	246.17
1411.244	246.87
1414.492	242.28
1417.74	235.78
1420.987	231.48
1424.234	226.08
1427.481	217.13
1430.728	212.54
1433.974	205.27
1437.22	198.34
1440.465	191.61
1443.711	186.37
1446.956	181.08
1450.201	174.82
1453.445	166.6
1456.689	161.55
1459.933	157.78
1463.177	151.94
1466.42	148.64
1469.663	144.21
1472.906	140.22
1476.148	137.27
1479.391	134.18
1482.633	132.12
1485.874	129.41
1489.115	128.63
1492.356	126.86
1495.597	124.71
1498.838	124.37
1502.078	123.33
1505.318	123.35
1508.557	122.3
1511.797	121.12
1515.036	120.6
1518.274	120.09
1521.513	119.06
1524.751	118.5
1527.989	119.09
1531.227	118.7
1534.464	118.3
1537.701	117.87
1540.938	117.11
1544.174	117.46
1547.41	116.98
1550.646	117.34
1553.882	116.82
1557.117	116.73
1560.352	116.31
1563.587	115.32
1566.821	115.19
1570.055	114.48
1573.289	113.81
1576.523	114.29
1579.756	113.97
1582.989	114.16
1586.222	113.62
1589.454	113.67
1592.686	113.36
1595.918	113.52
1599.15	113.13
1602.381	113.6
1605.612	113.89
1608.843	114.31
1612.073	114.22
1615.303	114.1
1618.533	114.17
1621.762	114.34
1624.992	114.59
1628.221	114.59
1631.449	114.86
1634.678	114.56
1637.906	114.14
1641.134	114.77
1644.361	114.52
1647.588	114.51
1650.815	114.78
1654.042	114.97
1657.269	114.8
1660.495	115.13
1663.72	114.67
1666.946	115.12
1670.171	116.11
1673.396	116.94
1676.621	116.9
1679.845	117.03
1683.069	116.41
1686.293	116.63
1689.517	116.49
1692.74	117.21
1695.963	117.24
1699.185	118.52
1702.408	117.49
1705.63	117.21
1708.852	117.51
1712.073	117.18
1715.294	117.5
1718.515	118.4
1721.736	118.33
1724.956	118.51
1728.176	118.22
1731.396	118.64
1734.616	118.63
1737.835	119.21
1741.054	119.58
1744.272	119.06
1747.491	119.27
1750.709	119.6
1753.927	120.01
1757.144	120.08
1760.361	120.59
1763.578	121.06
1766.795	121.48
1770.011	120.82
1773.227	121.91
1776.443	122.71
1779.658	123.16
1782.874	124.61
1786.089	124.87
1789.303	125.02
1792.518	126.12
1795.732	126.48
1798.945	127.72
1802.159	127.58
1805.372	130.03
1808.585	129.97
1811.797	131.08
1815.01	132.19
1818.222	131.97
1821.434	133.04
1824.645	133.95
1827.856	135.36
1831.067	136.52
1834.278	137.43
1837.488	138.55
1840.698	139.91
1843.908	140.55
1847.117	141.72
1850.326	142.65
1853.535	143.41
1856.744	143.82
1859.952	145.97
1863.16	146.44
1866.368	144.85
1869.575	145.92
1872.782	145.14
1875.989	142.38
1879.196	142.46
1882.402	140.95
1885.608	140.79
1888.814	140.2
1892.019	141.44
1895.224	138.36
1898.429	138.51
1901.634	140.05
1904.838	139.49
1908.042	140.48
1911.246	141.25
1914.449	141.31
1917.652	141.68
1920.855	142.4
1924.058	141.12
1927.26	140.36
1930.462	141.5
1933.664	140.85
1936.865	140.1
1940.066	138.04
1943.267	138.3
1946.467	139.11
1949.668	139.24
1952.868	139.14
1956.067	138.38
1959.267	139.91
1962.466	140.82
1965.665	142.08
1968.863	143.14
1972.061	145.82
1975.259	148.42
1978.457	148.44
1981.654	150.5
1984.852	151.66
1988.048	153.41
1991.245	156.57
1994.441	159.55
1997.637	162.26
2000.833	165.91
2004.028	167.15
2007.223	171.25
2010.418	175.7
2013.613	182.72
2016.807	187.25
2020.001	190.96
2023.194	195.12
2026.388	201.94
2029.581	210.93
2032.774	218.19
2035.966	221.6
2039.158	229.14
2042.35	232.46
2045.542	234.94
2048.733	246.33
2051.924	248.86
2055.115	251.93
2058.306	254.84
2061.496	259.77
2064.686	260.11
2067.875	255.95
2071.065	260.56
2074.254	261.19
2077.442	269.29
2080.631	273.35
2083.819	271.98
2087.007	276.77
2090.195	283.23
2093.382	283.42
2096.569	282.68
2099.756	288.37
2102.942	297.25
2106.128	303.29
2109.314	302.19
2112.5	301.53
2115.685	299.78
2118.87	300.12
2122.055	302.49
2125.239	307.73
2128.424	315.33
2131.608	314.04
2134.791	312.56
2137.974	313.88
2141.157	315.05
2144.34	320.08
2147.523	324.13
2150.705	332.76
2153.887	331.33
2157.068	334.15
2160.25	336.17
2163.431	334.68
2166.611	340.56
2169.792	345.98
2172.972	352.61
2176.152	351.35
2179.331	359.44
2182.511	360.4
2185.69	364.98
2188.868	377.14
2192.047	387.46
2195.225	392.54
2198.403	399.49
2201.58	394.76
2204.758	410.02
2207.935	408.87
2211.111	420.81
2214.288	422.25
2217.464	426.32
2220.64	430.66
2223.815	431.12
2226.991	422.73
2230.166	426.54
2233.34	438.74
2236.515	450.77
2239.689	442.3
2242.863	450.09
2246.036	444.62
2249.209	455.91
2252.382	456.02
2255.555	467.85
2258.727	471.37
2261.9	489.12
2265.071	495.22
2268.243	488.36
2271.414	503.97
2274.585	515.48
2277.756	516.27
2280.926	538.76
2284.096	540.17
2287.266	542.43
2290.436	530.91
2293.605	543.42
2296.774	560.01
2299.942	562.47
2303.111	586.67
2306.279	591.98
2309.447	593.4
2312.614	592.07
2315.781	608.41
2318.948	610.97
2322.115	623.46
2325.281	657.48
2328.447	654.27
2331.613	655.56
2334.779	664.21
2337.944	664.93
2341.109	679.24
2344.274	687.36
2347.438	713.71
2350.602	717.13
2353.766	761.42
2356.929	766.5
2360.092	776.1
2363.255	776.04
2366.418	785.57
2369.58	801.2
2372.742	807.15
2375.904	803.42
2379.066	825.86
2382.227	869.69
2385.388	864.57
2388.548	827.95
2391.709	820.25
2394.869	848.57
2398.029	845.81
2401.188	844.52
2404.347	873.73
2407.506	901.74
2410.665	867.62
2413.823	869.93
2416.981	868.5
2420.139	831.44
2423.296	896.65
2426.453	950.46
2429.61	901.55
2432.767	972.75
2435.923	1009.6
2439.079	967.5
2442.235	985.39
2445.391	1012.79
2448.546	1004.78
2451.701	1062.59
2454.855	1131.69
2458.009	1000.27
2461.163	1029.57
2464.317	1037.31
2467.471	1015.61
2470.624	1044.83
2473.777	1030.98
2476.929	996.06
2480.082	1059.29
2483.234	1113.36
2486.385	1116.45
2489.537	1150.24
2492.688	1267.55
2495.839	1233.42
2498.989	1283.43
2502.14	1281.51
2505.29	1225.68
2508.439	1351.39
2511.589	1397.57
2514.738	1357.71
2517.887	1340.33
2521.035	1261.47
2524.183	1239.77
2527.331	1229.44
2530.479	1198.47
2533.627	1220.03
