Data from N_2_div_pa_2n_085_Splice17_11.txt Node
Date: Sat Feb 29 14:14:18 EST 2020
User: sa697716
Spectrometer: FLMS03696
Trigger mode: 0
Integration Time (sec): 3.180400E-1
Scans to average: 20
Electric dark correction enabled: true
Nonlinearity correction enabled: true
Boxcar width: 5
XAxis mode: Wavelengths
Number of Pixels in Spectrum: 2048
>>>>>Begin Spectral Data<<<<<
187.83	21
188.298	0.38
188.766	9.61
189.233	10.45
189.701	26.5
190.169	35.1
190.636	44.02
191.104	33.78
191.571	266.38
192.039	316.02
192.506	-349.65
192.974	1584.72
193.441	67.51
193.908	73.88
194.375	130.34
194.842	143.46
195.31	98.64
195.777	107.45
196.244	35.26
196.711	33.55
197.177	30.95
197.644	31.3
198.111	31.92
198.578	31.87
199.045	32.27
199.511	33.01
199.978	33.8
200.445	33.71
200.911	33.96
201.378	34.1
201.844	35.03
202.31	35.61
202.777	35.77
203.243	35.5
203.709	35.41
204.176	34.73
204.642	34.26
205.108	34.19
205.574	34.66
206.04	34.83
206.506	34.29
206.972	33.58
207.438	33.36
207.903	33.35
208.369	33.15
208.835	33.11
209.301	33.13
209.766	32.58
210.232	32.15
210.697	31.33
211.163	30.89
211.628	30.98
212.094	30.49
212.559	29.74
213.024	29.17
213.49	28.62
213.955	28.18
214.42	27.1
214.885	26.44
215.35	25.59
215.815	24.4
216.28	23
216.745	21.54
217.21	20.21
217.675	18.85
218.14	17.38
218.604	16.13
219.069	15.09
219.534	14.37
219.998	13.58
220.463	12.98
220.927	12.5
221.392	12.02
221.856	11.58
222.32	11.23
222.785	10.98
223.249	10.75
223.713	10.57
224.177	10.33
224.642	10.16
225.106	10
225.57	9.83
226.034	9.66
226.497	9.48
226.961	9.34
227.425	9.18
227.889	9.05
228.353	8.89
228.816	8.76
229.28	8.61
229.744	8.51
230.207	8.42
230.671	8.31
231.134	8.22
231.597	8.13
232.061	8.05
232.524	7.98
232.987	7.88
233.45	7.81
233.914	7.74
234.377	7.7
234.84	7.61
235.303	7.53
235.766	7.47
236.229	7.41
236.691	7.37
237.154	7.31
237.617	7.24
238.08	7.19
238.542	7.14
239.005	7.07
239.468	7
239.93	6.95
240.393	6.91
240.855	6.83
241.317	6.78
241.78	6.71
242.242	6.65
242.704	6.59
243.166	6.54
243.629	6.49
244.091	6.45
244.553	6.41
245.015	6.35
245.477	6.3
245.939	6.25
246.4	6.19
246.862	6.13
247.324	6.11
247.786	6.07
248.247	6.02
248.709	5.97
249.17	5.92
249.632	5.87
250.093	5.81
250.555	5.78
251.016	5.75
251.477	5.73
251.939	5.7
252.4	5.67
252.861	5.64
253.322	5.6
253.783	5.59
254.244	5.57
254.705	5.54
255.166	5.53
255.627	5.5
256.088	5.46
256.549	5.43
257.009	5.39
257.47	5.37
257.931	5.33
258.391	5.3
258.852	5.26
259.312	5.23
259.773	5.2
260.233	5.16
260.694	5.12
261.154	5.09
261.614	5.05
262.074	5.03
262.534	4.98
262.994	4.96
263.455	4.93
263.915	4.9
264.374	4.86
264.834	4.84
265.294	4.81
265.754	4.78
266.214	4.77
266.673	4.75
267.133	4.72
267.593	4.71
268.052	4.68
268.512	4.65
268.971	4.64
269.431	4.63
269.89	4.6
270.349	4.58
270.809	4.57
271.268	4.54
271.727	4.53
272.186	4.51
272.645	4.49
273.104	4.48
273.563	4.47
274.022	4.46
274.481	4.44
274.94	4.43
275.399	4.42
275.857	4.4
276.316	4.38
276.775	4.36
277.233	4.34
277.692	4.32
278.15	4.3
278.609	4.28
279.067	4.26
279.525	4.25
279.984	4.24
280.442	4.23
280.9	4.21
281.358	4.2
281.816	4.19
282.274	4.18
282.732	4.18
283.19	4.17
283.648	4.17
284.106	4.16
284.564	4.16
285.021	4.15
285.479	4.15
285.937	4.14
286.394	4.14
286.852	4.14
287.309	4.13
287.767	4.12
288.224	4.11
288.682	4.1
289.139	4.09
289.596	4.07
290.053	4.05
290.511	4.03
290.968	4.02
291.425	4.01
291.882	3.99
292.339	3.98
292.796	3.96
293.252	3.95
293.709	3.94
294.166	3.92
294.623	3.91
295.079	3.9
295.536	3.9
295.992	3.89
296.449	3.88
296.905	3.86
297.362	3.86
297.818	3.86
298.274	3.85
298.731	3.85
299.187	3.85
299.643	3.84
300.099	3.84
300.555	3.83
301.011	3.83
301.467	3.82
301.923	3.82
302.379	3.82
302.835	3.81
303.291	3.79
303.746	3.78
304.202	3.77
304.658	3.76
305.113	3.76
305.569	3.76
306.024	3.76
306.479	3.75
306.935	3.74
307.39	3.74
307.845	3.75
308.301	3.76
308.756	3.76
309.211	3.77
309.666	3.77
310.121	3.76
310.576	3.76
311.031	3.76
311.486	3.77
311.94	3.77
312.395	3.78
312.85	3.77
313.305	3.77
313.759	3.77
314.214	3.77
314.668	3.78
315.123	3.78
315.577	3.77
316.032	3.77
316.486	3.77
316.94	3.77
317.394	3.76
317.849	3.76
318.303	3.76
318.757	3.75
319.211	3.73
319.665	3.72
320.119	3.71
320.572	3.71
321.026	3.7
321.48	3.7
321.934	3.69
322.387	3.69
322.841	3.67
323.295	3.67
323.748	3.67
324.202	3.67
324.655	3.66
325.108	3.66
325.562	3.64
326.015	3.63
326.468	3.62
326.921	3.61
327.374	3.61
327.827	3.6
328.28	3.59
328.733	3.58
329.186	3.58
329.639	3.57
330.092	3.57
330.545	3.57
330.997	3.58
331.45	3.58
331.903	3.59
332.355	3.59
332.808	3.59
333.26	3.6
333.713	3.6
334.165	3.6
334.617	3.61
335.069	3.62
335.522	3.63
335.974	3.63
336.426	3.63
336.878	3.63
337.33	3.61
337.782	3.62
338.234	3.61
338.686	3.62
339.137	3.62
339.589	3.61
340.041	3.6
340.493	3.59
340.944	3.58
341.396	3.58
341.847	3.58
342.299	3.57
342.75	3.56
343.201	3.54
343.653	3.52
344.104	3.51
344.555	3.51
345.006	3.5
345.457	3.5
345.908	3.48
346.359	3.48
346.81	3.48
347.261	3.47
347.712	3.47
348.163	3.47
348.613	3.47
349.064	3.45
349.515	3.44
349.965	3.43
350.416	3.42
350.866	3.42
351.317	3.43
351.767	3.42
352.217	3.42
352.668	3.42
353.118	3.44
353.568	3.44
354.018	3.46
354.468	3.47
354.918	3.48
355.368	3.49
355.818	3.47
356.268	3.48
356.718	3.48
357.168	3.48
357.617	3.48
358.067	3.47
358.517	3.47
358.966	3.47
359.416	3.47
359.865	3.48
360.315	3.49
360.764	3.5
361.213	3.49
361.663	3.49
362.112	3.5
362.561	3.51
363.01	3.53
363.459	3.53
363.908	3.53
364.357	3.54
364.806	3.53
365.255	3.55
365.703	3.54
366.152	3.56
366.601	3.57
367.05	3.58
367.498	3.59
367.947	3.59
368.395	3.61
368.844	3.62
369.292	3.63
369.74	3.65
370.189	3.64
370.637	3.66
371.085	3.68
371.533	3.69
371.981	3.7
372.429	3.69
372.877	3.71
373.325	3.7
373.773	3.71
374.221	3.72
374.669	3.73
375.116	3.74
375.564	3.76
376.012	3.76
376.459	3.78
376.907	3.79
377.354	3.82
377.801	3.83
378.249	3.86
378.696	3.89
379.143	3.91
379.591	3.94
380.038	3.98
380.485	4
380.932	4.02
381.379	4.04
381.826	4.06
382.273	4.08
382.72	4.1
383.166	4.13
383.613	4.15
384.06	4.18
384.506	4.19
384.953	4.2
385.4	4.22
385.846	4.24
386.292	4.28
386.739	4.3
387.185	4.32
387.631	4.35
388.078	4.38
388.524	4.39
388.97	4.41
389.416	4.44
389.862	4.47
390.308	4.5
390.754	4.53
391.2	4.56
391.645	4.6
392.091	4.63
392.537	4.66
392.983	4.69
393.428	4.72
393.874	4.77
394.319	4.8
394.765	4.83
395.21	4.86
395.655	4.89
396.101	4.91
396.546	4.93
396.991	4.96
397.436	4.98
397.881	5
398.326	5.05
398.771	5.09
399.216	5.13
399.661	5.17
400.106	5.22
400.551	5.25
400.995	5.29
401.44	5.3
401.885	5.34
402.329	5.37
402.774	5.4
403.218	5.4
403.663	5.43
404.107	5.46
404.551	5.48
404.995	5.49
405.44	5.52
405.884	5.54
406.328	5.57
406.772	5.59
407.216	5.62
407.66	5.65
408.104	5.7
408.547	5.73
408.991	5.74
409.435	5.76
409.879	5.79
410.322	5.82
410.766	5.85
411.209	5.89
411.653	5.91
412.096	5.93
412.54	5.95
412.983	5.96
413.426	6.01
413.869	6.06
414.312	6.1
414.756	6.13
415.199	6.16
415.642	6.19
416.085	6.23
416.527	6.27
416.97	6.31
417.413	6.32
417.856	6.33
418.298	6.32
418.741	6.31
419.184	6.31
419.626	6.32
420.069	6.32
420.511	6.33
420.953	6.33
421.396	6.33
421.838	6.34
422.28	6.38
422.722	6.41
423.164	6.43
423.606	6.45
424.048	6.48
424.49	6.5
424.932	6.52
425.374	6.53
425.816	6.55
426.258	6.54
426.699	6.52
427.141	6.48
427.582	6.47
428.024	6.48
428.465	6.5
428.907	6.5
429.348	6.51
429.789	6.51
430.231	6.52
430.672	6.53
431.113	6.54
431.554	6.58
431.995	6.63
432.436	6.65
432.877	6.64
433.318	6.64
433.759	6.63
434.2	6.62
434.64	6.63
435.081	6.62
435.522	6.63
435.962	6.66
436.403	6.68
436.843	6.68
437.284	6.69
437.724	6.72
438.164	6.73
438.604	6.75
439.045	6.77
439.485	6.79
439.925	6.8
440.365	6.8
440.805	6.79
441.245	6.77
441.685	6.79
442.125	6.78
442.564	6.78
443.004	6.8
443.444	6.81
443.883	6.83
444.323	6.82
444.762	6.84
445.202	6.88
445.641	6.91
446.081	6.94
446.52	6.93
446.959	6.95
447.398	6.98
447.837	7
448.276	7.01
448.716	7
449.154	7.05
449.593	7.06
450.032	7.06
450.471	7.07
450.91	7.08
451.349	7.07
451.787	7.08
452.226	7.04
452.664	7.03
453.103	7.01
453.541	7.03
453.98	6.99
454.418	6.97
454.856	6.95
455.295	6.92
455.733	6.89
456.171	6.9
456.609	6.88
457.047	6.89
457.485	6.88
457.923	6.87
458.361	6.83
458.798	6.83
459.236	6.83
459.674	6.83
460.111	6.84
460.549	6.84
460.987	6.84
461.424	6.82
461.862	6.83
462.299	6.82
462.736	6.83
463.173	6.85
463.611	6.86
464.048	6.85
464.485	6.85
464.922	6.84
465.359	6.85
465.796	6.83
466.233	6.85
466.67	6.85
467.106	6.84
467.543	6.84
467.98	6.84
468.416	6.85
468.853	6.87
469.29	6.88
469.726	6.88
470.162	6.88
470.599	6.89
471.035	6.89
471.471	6.89
471.907	6.91
472.344	6.91
472.78	6.91
473.216	6.89
473.652	6.88
474.088	6.89
474.523	6.88
474.959	6.88
475.395	6.89
475.831	6.89
476.266	6.88
476.702	6.87
477.138	6.86
477.573	6.85
478.008	6.85
478.444	6.81
478.879	6.8
479.314	6.8
479.75	6.8
480.185	6.78
480.62	6.78
481.055	6.78
481.49	6.76
481.925	6.75
482.36	6.73
482.795	6.71
483.229	6.72
483.664	6.71
484.099	6.7
484.534	6.67
484.968	6.66
485.403	6.65
485.837	6.64
486.271	6.63
486.706	6.61
487.14	6.62
487.574	6.62
488.009	6.61
488.443	6.6
488.877	6.6
489.311	6.61
489.745	6.61
490.179	6.61
490.613	6.6
491.046	6.61
491.48	6.62
491.914	6.62
492.348	6.62
492.781	6.63
493.215	6.63
493.648	6.64
494.082	6.65
494.515	6.65
494.948	6.66
495.382	6.67
495.815	6.68
496.248	6.69
496.681	6.69
497.114	6.7
497.547	6.72
497.98	6.72
498.413	6.73
498.846	6.75
499.279	6.77
499.711	6.77
500.144	6.79
500.577	6.8
501.009	6.82
501.442	6.85
501.874	6.87
502.306	6.89
502.739	6.91
503.171	6.94
503.603	6.97
504.036	7
504.468	7.04
504.9	7.07
505.332	7.11
505.764	7.15
506.196	7.19
506.627	7.23
507.059	7.27
507.491	7.32
507.923	7.37
508.354	7.41
508.786	7.45
509.217	7.48
509.649	7.54
510.08	7.61
510.512	7.66
510.943	7.73
511.374	7.8
511.805	7.86
512.237	7.92
512.668	7.98
513.099	8.05
513.53	8.12
513.961	8.21
514.391	8.29
514.822	8.36
515.253	8.45
515.684	8.51
516.114	8.59
516.545	8.69
516.975	8.79
517.406	8.9
517.836	9
518.267	9.11
518.697	9.23
519.127	9.35
519.558	9.46
519.988	9.56
520.418	9.67
520.848	9.79
521.278	9.91
521.708	9.97
522.138	10.07
522.567	10.18
522.997	10.28
523.427	10.38
523.857	10.48
524.286	10.6
524.716	10.71
525.145	10.82
525.575	10.93
526.004	11.02
526.433	11.17
526.863	11.26
527.292	11.36
527.721	11.47
528.15	11.56
528.579	11.64
529.008	11.71
529.437	11.8
529.866	11.88
530.295	11.96
530.724	12.03
531.152	12.12
531.581	12.2
532.01	12.26
532.438	12.32
532.867	12.38
533.295	12.44
533.723	12.51
534.152	12.57
534.58	12.61
535.008	12.65
535.436	12.68
535.865	12.69
536.293	12.74
536.721	12.77
537.149	12.79
537.576	12.83
538.004	12.86
538.432	12.87
538.86	12.89
539.287	12.92
539.715	12.94
540.143	12.97
540.57	13
540.998	13.02
541.425	13.03
541.852	13.06
542.28	13.06
542.707	13.09
543.134	13.11
543.561	13.11
543.988	13.14
544.415	13.18
544.842	13.22
545.269	13.24
545.696	13.24
546.123	13.26
546.549	13.3
546.976	13.34
547.403	13.35
547.829	13.37
548.256	13.4
548.682	13.4
549.108	13.39
549.535	13.4
549.961	13.4
550.387	13.41
550.813	13.4
551.24	13.4
551.666	13.41
552.092	13.4
552.518	13.4
552.943	13.38
553.369	13.36
553.795	13.34
554.221	13.32
554.646	13.28
555.072	13.26
555.498	13.24
555.923	13.21
556.349	13.14
556.774	13.09
557.199	13.06
557.625	13.03
558.05	12.98
558.475	12.94
558.9	12.88
559.325	12.84
559.75	12.8
560.175	12.74
560.6	12.67
561.025	12.62
561.449	12.55
561.874	12.48
562.299	12.41
562.723	12.35
563.148	12.27
563.572	12.19
563.997	12.11
564.421	12.04
564.846	11.96
565.27	11.89
565.694	11.81
566.118	11.72
566.542	11.64
566.966	11.55
567.39	11.46
567.814	11.38
568.238	11.29
568.662	11.2
569.086	11.11
569.509	11.02
569.933	10.93
570.357	10.84
570.78	10.76
571.204	10.67
571.627	10.6
572.05	10.53
572.474	10.46
572.897	10.38
573.32	10.31
573.743	10.24
574.166	10.18
574.589	10.13
575.012	10.07
575.435	10.01
575.858	9.97
576.281	9.93
576.704	9.88
577.126	9.82
577.549	9.8
577.972	9.76
578.394	9.71
578.817	9.69
579.239	9.65
579.661	9.62
580.084	9.59
580.506	9.55
580.928	9.51
581.35	9.47
581.772	9.46
582.194	9.41
582.616	9.39
583.038	9.37
583.46	9.33
583.882	9.31
584.303	9.28
584.725	9.25
585.147	9.21
585.568	9.18
585.99	9.15
586.411	9.11
586.833	9.1
587.254	9.08
587.675	9.06
588.096	9.05
588.518	9.01
588.939	9
589.36	8.98
589.781	8.98
590.202	8.97
590.623	8.95
591.043	8.94
591.464	8.92
591.885	8.91
592.305	8.89
592.726	8.87
593.147	8.87
593.567	8.86
593.987	8.85
594.408	8.83
594.828	8.83
595.248	8.82
595.669	8.8
596.089	8.79
596.509	8.77
596.929	8.76
597.349	8.74
597.769	8.72
598.189	8.7
598.608	8.68
599.028	8.65
599.448	8.64
599.867	8.6
600.287	8.58
600.706	8.57
601.126	8.55
601.545	8.52
601.965	8.5
602.384	8.47
602.803	8.44
603.222	8.42
603.641	8.39
604.061	8.36
604.48	8.35
604.898	8.31
605.317	8.28
605.736	8.25
606.155	8.23
606.574	8.21
606.992	8.18
607.411	8.16
607.829	8.1
608.248	8.07
608.666	8.04
609.085	8.01
609.503	7.98
609.921	7.96
610.339	7.93
610.758	7.91
611.176	7.89
611.594	7.86
612.012	7.83
612.43	7.85
612.847	7.83
613.265	7.82
613.683	7.8
614.101	7.79
614.518	7.76
614.936	7.74
615.353	7.72
615.771	7.7
616.188	7.7
616.606	7.68
617.023	7.64
617.44	7.62
617.857	7.6
618.274	7.59
618.691	7.58
619.108	7.56
619.525	7.55
619.942	7.53
620.359	7.52
620.776	7.5
621.192	7.49
621.609	7.48
622.026	7.47
622.442	7.46
622.859	7.44
623.275	7.44
623.691	7.42
624.108	7.41
624.524	7.4
624.94	7.38
625.356	7.36
625.772	7.36
626.188	7.36
626.604	7.35
627.02	7.34
627.436	7.35
627.852	7.32
628.268	7.31
628.683	7.31
629.099	7.32
629.514	7.32
629.93	7.31
630.345	7.29
630.761	7.28
631.176	7.28
631.591	7.28
632.007	7.25
632.422	7.25
632.837	7.24
633.252	7.24
633.667	7.21
634.082	7.21
634.497	7.18
634.911	7.17
635.326	7.15
635.741	7.13
636.155	7.11
636.57	7.1
636.984	7.06
637.399	7.02
637.813	7
638.228	6.99
638.642	6.98
639.056	6.96
639.47	6.95
639.884	6.92
640.298	6.91
640.712	6.88
641.126	6.86
641.54	6.86
641.954	6.87
642.368	6.84
642.781	6.8
643.195	6.77
643.609	6.75
644.022	6.73
644.436	6.71
644.849	6.69
645.262	6.68
645.676	6.67
646.089	6.64
646.502	6.61
646.915	6.61
647.328	6.6
647.741	6.58
648.154	6.58
648.567	6.56
648.98	6.56
649.393	6.55
649.805	6.53
650.218	6.52
650.631	6.52
651.043	6.5
651.456	6.49
651.868	6.48
652.28	6.47
652.693	6.44
653.105	6.44
653.517	6.42
653.929	6.42
654.341	6.44
654.753	6.42
655.165	6.41
655.577	6.39
655.989	6.36
656.401	6.34
656.813	6.32
657.224	6.32
657.636	6.31
658.047	6.3
658.459	6.27
658.87	6.24
659.282	6.23
659.693	6.22
660.104	6.21
660.515	6.2
660.926	6.2
661.338	6.2
661.749	6.18
662.159	6.15
662.57	6.15
662.981	6.15
663.392	6.13
663.803	6.12
664.213	6.11
664.624	6.11
665.035	6.1
665.445	6.09
665.855	6.09
666.266	6.08
666.676	6.08
667.086	6.06
667.497	6.05
667.907	6.06
668.317	6.05
668.727	6.06
669.137	6.06
669.547	6.08
669.956	6.07
670.366	6.1
670.776	6.1
671.186	6.12
671.595	6.14
672.005	6.15
672.414	6.15
672.824	6.17
673.233	6.17
673.642	6.19
674.052	6.18
674.461	6.19
674.87	6.19
675.279	6.21
675.688	6.23
676.097	6.25
676.506	6.27
676.915	6.3
677.323	6.33
677.732	6.36
678.141	6.38
678.549	6.43
678.958	6.47
679.366	6.49
679.775	6.52
680.183	6.55
680.592	6.58
681	6.59
681.408	6.61
681.816	6.64
682.224	6.68
682.632	6.71
683.04	6.74
683.448	6.77
683.856	6.81
684.264	6.85
684.671	6.88
685.079	6.93
685.487	7
685.894	7.05
686.302	7.1
686.709	7.14
687.116	7.21
687.524	7.28
687.931	7.35
688.338	7.45
688.745	7.52
689.152	7.63
689.559	7.72
689.966	7.82
690.373	7.96
690.78	8.09
691.187	8.25
691.593	8.39
692	8.55
692.407	8.76
692.813	8.95
693.22	9.16
693.626	9.39
694.032	9.65
694.439	9.91
694.845	10.18
695.251	10.48
695.657	10.77
696.063	11.07
696.469	11.39
696.875	11.7
697.281	12.03
697.687	12.4
698.093	12.76
698.498	13.13
698.904	13.51
699.31	13.88
699.715	14.26
700.12	14.65
700.526	15.07
700.931	15.48
701.337	15.9
701.742	16.3
702.147	16.72
702.552	17.13
702.957	17.55
703.362	17.97
703.767	18.41
704.172	18.86
704.577	19.29
704.981	19.72
705.386	20.17
705.791	20.62
706.195	21.08
706.6	21.53
707.004	21.97
707.408	22.42
707.813	22.85
708.217	23.3
708.621	23.74
709.025	24.2
709.43	24.64
709.834	25.1
710.237	25.53
710.641	25.98
711.045	26.42
711.449	26.88
711.853	27.32
712.256	27.8
712.66	28.24
713.064	28.68
713.467	29.12
713.87	29.55
714.274	30
714.677	30.46
715.08	30.88
715.484	31.33
715.887	31.75
716.29	32.18
716.693	32.58
717.096	33.01
717.499	33.43
717.901	33.85
718.304	34.27
718.707	34.67
719.109	35.08
719.512	35.5
719.915	35.91
720.317	36.32
720.719	36.73
721.122	37.12
721.524	37.51
721.926	37.9
722.328	38.29
722.731	38.68
723.133	39.04
723.535	39.41
723.937	39.71
724.338	40.02
724.74	40.33
725.142	40.58
725.544	40.86
725.945	41.14
726.347	41.46
726.748	41.71
727.15	41.95
727.551	42.22
727.952	42.48
728.354	42.78
728.755	43.06
729.156	43.34
729.557	43.65
729.958	43.95
730.359	44.21
730.76	44.41
731.161	44.67
731.562	44.95
731.962	45.16
732.363	45.33
732.763	45.54
733.164	45.72
733.564	45.91
733.965	46.08
734.365	46.22
734.766	46.35
735.166	46.49
735.566	46.61
735.966	46.7
736.366	46.82
736.766	46.94
737.166	47.06
737.566	47.19
737.966	47.33
738.365	47.47
738.765	47.6
739.165	47.7
739.564	47.84
739.964	47.95
740.363	48.08
740.763	48.21
741.162	48.32
741.561	48.41
741.96	48.5
742.36	48.56
742.759	48.58
743.158	48.65
743.557	48.77
743.955	48.86
744.354	48.96
744.753	49.04
745.152	49.1
745.55	49.17
745.949	49.25
746.348	49.3
746.746	49.38
747.144	49.5
747.543	49.6
747.941	49.7
748.339	49.79
748.737	49.9
749.136	49.98
749.534	50.09
749.932	50.15
750.33	50.21
750.727	50.28
751.125	50.34
751.523	50.37
751.921	50.4
752.318	50.43
752.716	50.42
753.113	50.39
753.511	50.34
753.908	50.29
754.305	50.29
754.703	50.28
755.1	50.26
755.497	50.24
755.894	50.23
756.291	50.18
756.688	50.12
757.085	50.12
757.482	50.1
757.878	50.14
758.275	50.14
758.672	50.15
759.068	50.16
759.465	50.17
759.861	50.18
760.258	50.15
760.654	50.14
761.05	50.16
761.447	50.13
761.843	50.13
762.239	50.11
762.635	50.12
763.031	50.13
763.427	50.14
763.822	50.16
764.218	50.17
764.614	50.18
765.01	50.24
765.405	50.23
765.801	50.25
766.196	50.28
766.592	50.31
766.987	50.33
767.382	50.32
767.778	50.32
768.173	50.31
768.568	50.29
768.963	50.29
769.358	50.29
769.753	50.33
770.148	50.32
770.542	50.32
770.937	50.34
771.332	50.33
771.726	50.36
772.121	50.34
772.515	50.34
772.91	50.36
773.304	50.39
773.699	50.4
774.093	50.43
774.487	50.44
774.881	50.46
775.275	50.46
775.669	50.49
776.063	50.45
776.457	50.46
776.851	50.43
777.245	50.45
777.638	50.46
778.032	50.48
778.425	50.47
778.819	50.5
779.212	50.48
779.606	50.46
779.999	50.44
780.392	50.5
780.786	50.53
781.179	50.59
781.572	50.56
781.965	50.57
782.358	50.54
782.751	50.53
783.143	50.55
783.536	50.61
783.929	50.64
784.322	50.66
784.714	50.64
785.107	50.64
785.499	50.65
785.891	50.66
786.284	50.66
786.676	50.7
787.068	50.7
787.46	50.68
787.852	50.63
788.245	50.61
788.636	50.61
789.028	50.6
789.42	50.55
789.812	50.54
790.204	50.54
790.595	50.55
790.987	50.54
791.378	50.54
791.77	50.56
792.161	50.56
792.553	50.58
792.944	50.6
793.335	50.65
793.726	50.67
794.117	50.69
794.508	50.71
794.899	50.73
795.29	50.75
795.681	50.74
796.072	50.76
796.463	50.75
796.853	50.73
797.244	50.7
797.634	50.64
798.025	50.69
798.415	50.71
798.806	50.74
799.196	50.74
799.586	50.7
799.976	50.7
800.366	50.67
800.756	50.7
801.146	50.72
801.536	50.73
801.926	50.76
802.316	50.75
802.706	50.72
803.095	50.71
803.485	50.69
803.874	50.7
804.264	50.74
804.653	50.73
805.043	50.69
805.432	50.67
805.821	50.67
806.21	50.7
806.599	50.72
806.988	50.72
807.377	50.75
807.766	50.76
808.155	50.76
808.544	50.76
808.933	50.77
809.321	50.84
809.71	50.87
810.098	50.87
810.487	50.86
810.875	50.83
811.264	50.86
811.652	50.85
812.04	50.84
812.428	50.91
812.816	50.91
813.204	50.91
813.592	50.89
813.98	50.91
814.368	50.92
814.756	50.92
815.144	50.94
815.531	50.92
815.919	50.9
816.306	50.9
816.694	50.87
817.081	50.85
817.469	50.87
817.856	50.9
818.243	50.9
818.63	50.92
819.017	50.9
819.404	50.9
819.791	50.92
820.178	50.93
820.565	50.95
820.952	50.95
821.339	50.98
821.725	51.01
822.112	51.02
822.498	51.05
822.885	51.05
823.271	51.09
823.657	51.12
824.044	51.12
824.43	51.16
824.816	51.15
825.202	51.15
825.588	51.18
825.974	51.16
826.36	51.12
826.746	51.12
827.132	51.14
827.517	51.14
827.903	51.15
828.289	51.14
828.674	51.13
829.06	51.13
829.445	51.15
829.83	51.13
830.216	51.14
830.601	51.19
830.986	51.17
831.371	51.19
831.756	51.15
832.141	51.14
832.526	51.14
832.911	51.15
833.295	51.17
833.68	51.16
834.065	51.16
834.449	51.12
834.834	51.09
835.218	51.08
835.603	51.03
835.987	51.05
836.371	51.04
836.755	51.02
837.139	51.01
837.524	51.01
837.908	51.01
838.291	51
838.675	51.02
839.059	51.04
839.443	51.04
839.827	51.04
840.21	51.05
840.594	51.05
840.977	51.04
841.361	51.03
841.744	51.04
842.127	51.01
842.511	51.02
842.894	51.02
843.277	51
843.66	51
844.043	51
844.426	50.99
844.809	50.99
845.191	50.98
845.574	50.97
845.957	50.94
846.339	50.92
846.722	50.92
847.104	50.92
847.487	50.92
847.869	50.91
848.252	50.9
848.634	50.92
849.016	50.93
849.398	50.94
849.78	50.94
850.162	50.95
850.544	50.99
850.926	50.96
851.307	50.96
851.689	50.95
852.071	50.96
852.452	50.95
852.834	50.91
853.215	50.92
853.597	50.94
853.978	50.93
854.359	50.95
854.741	50.92
855.122	50.95
855.503	50.97
855.884	50.96
856.265	50.97
856.646	50.96
857.026	50.98
857.407	50.94
857.788	50.93
858.169	50.91
858.549	50.9
858.93	50.9
859.31	50.87
859.69	50.85
860.071	50.86
860.451	50.85
860.831	50.87
861.211	50.87
861.591	50.87
861.971	50.84
862.351	50.86
862.731	50.88
863.111	50.86
863.491	50.87
863.87	50.85
864.25	50.89
864.629	50.86
865.009	50.87
865.388	50.86
865.768	50.84
866.147	50.87
866.526	50.86
866.905	50.85
867.284	50.87
867.663	50.88
868.042	50.9
868.421	50.85
868.8	50.87
869.179	50.87
869.558	50.84
869.936	50.87
870.315	50.86
870.693	50.86
871.072	50.84
871.45	50.85
871.828	50.85
872.207	50.85
872.585	50.87
872.963	50.87
873.341	50.84
873.719	50.89
874.097	50.88
874.475	50.87
874.853	50.85
875.23	50.85
875.608	50.84
875.986	50.84
876.363	50.87
876.741	50.87
877.118	50.84
877.495	50.85
877.873	50.82
878.25	50.81
878.627	50.82
879.004	50.85
879.381	50.87
879.758	50.86
880.135	50.87
880.512	50.85
880.889	50.87
881.265	50.92
881.642	50.94
882.019	50.95
882.395	50.97
882.772	50.96
883.148	50.97
883.524	50.97
883.901	50.97
884.277	50.94
884.653	50.94
885.029	50.9
885.405	50.88
885.781	50.84
886.157	50.86
886.532	50.85
886.908	50.89
887.284	50.88
887.659	50.87
888.035	50.86
888.411	50.85
888.786	50.85
889.161	50.88
889.537	50.87
889.912	50.88
890.287	50.85
890.662	50.81
891.037	50.75
891.412	50.71
891.787	50.7
892.162	50.69
892.536	50.68
892.911	50.61
893.286	50.56
893.66	50.55
894.035	50.54
894.409	50.53
894.784	50.53
895.158	50.53
895.532	50.53
895.906	50.49
896.281	50.48
896.655	50.45
897.029	50.45
897.402	50.47
897.776	50.44
898.15	50.42
898.524	50.4
898.898	50.39
899.271	50.4
899.645	50.43
900.018	50.45
900.392	50.44
900.765	50.46
901.138	50.48
901.511	50.46
901.884	50.47
902.258	50.43
902.631	50.44
903.003	50.42
903.376	50.41
903.749	50.37
904.122	50.36
904.495	50.35
904.867	50.35
905.24	50.32
905.612	50.32
905.985	50.3
906.357	50.31
906.729	50.3
907.102	50.32
907.474	50.31
907.846	50.3
908.218	50.29
908.59	50.28
908.962	50.27
909.334	50.25
909.705	50.26
910.077	50.25
910.449	50.28
910.82	50.26
911.192	50.21
911.563	50.19
911.935	50.16
912.306	50.16
912.677	50.15
913.048	50.14
913.419	50.16
913.79	50.15
914.161	50.15
914.532	50.15
914.903	50.14
915.274	50.17
915.645	50.19
916.015	50.23
916.386	50.22
916.756	50.21
917.127	50.23
917.497	50.21
917.868	50.18
918.238	50.18
918.608	50.16
918.978	50.15
919.348	50.13
919.718	50.12
920.088	50.06
920.458	50.08
920.828	50.11
921.198	50.11
921.567	50.14
921.937	50.18
922.306	50.17
922.676	50.17
923.045	50.16
923.415	50.15
923.784	50.13
924.153	50.15
924.522	50.16
924.891	50.13
925.26	50.1
925.629	50.07
925.998	50.06
926.367	50.04
926.736	50.03
927.104	50.06
927.473	50.1
927.842	50.06
928.21	50.1
928.578	50.07
928.947	50.09
929.315	50.08
929.683	50.09
930.051	50.06
930.42	50.07
930.788	50.01
931.156	49.94
931.523	49.89
931.891	49.85
932.259	49.71
932.627	49.65
932.994	49.55
933.362	49.47
933.729	49.34
934.097	49.29
934.464	49.21
934.831	49.16
935.199	49.11
935.566	49.03
935.933	49.05
936.3	49.05
936.667	49
937.034	48.98
937.401	48.92
937.767	48.92
938.134	48.91
938.501	48.86
938.867	48.92
939.234	48.96
939.6	49
939.967	48.97
940.333	49.05
940.699	49.16
941.065	49.28
941.431	49.45
941.798	49.55
942.163	49.64
942.529	49.71
942.895	49.79
943.261	49.85
943.627	49.92
943.992	49.99
944.358	49.95
944.723	49.93
945.089	49.96
945.454	49.98
945.82	49.97
946.185	50
946.55	50.14
946.915	50.12
947.28	50.08
947.645	50.1
948.01	50.13
948.375	50.08
948.74	50.05
949.104	49.99
949.469	49.92
949.834	49.92
950.198	49.82
950.562	49.77
950.927	49.74
951.291	49.74
951.655	49.68
952.02	49.61
952.384	49.74
952.748	49.76
953.112	49.67
953.476	49.64
953.839	49.64
954.203	49.62
954.567	49.57
954.931	49.56
955.294	49.48
955.658	49.45
956.021	49.46
956.385	49.37
956.748	49.38
957.111	49.37
957.474	49.38
957.837	49.33
958.2	49.33
958.563	49.32
958.926	49.25
959.289	49.28
959.652	49.24
960.015	49.2
960.377	49.17
960.74	49.13
961.102	49.08
961.465	49.01
961.827	48.95
962.189	48.86
962.552	48.77
962.914	48.73
963.276	48.72
963.638	48.67
964	48.59
964.362	48.63
964.724	48.56
965.085	48.54
965.447	48.53
965.809	48.49
966.17	48.57
966.532	48.65
966.893	48.71
967.255	48.61
967.616	48.63
967.977	48.62
968.338	48.51
968.699	48.52
969.061	48.48
969.421	48.45
969.782	48.46
970.143	48.39
970.504	48.3
970.865	48.21
971.225	48.25
971.586	48.27
971.946	48.27
972.307	48.31
972.667	48.28
973.027	48.35
973.388	48.37
973.748	48.37
974.108	48.31
974.468	48.37
974.828	48.43
975.188	48.45
975.548	48.43
975.907	48.49
976.267	48.44
976.627	48.47
976.986	48.44
977.346	48.44
977.705	48.42
978.064	48.48
978.424	48.37
978.783	48.33
979.142	48.29
979.501	48.21
979.86	48.12
980.219	48.14
980.578	48.07
980.937	48.09
981.296	48.09
981.654	48.12
982.013	48.1
982.371	48.18
982.73	48.2
983.088	48.17
983.447	48.27
983.805	48.35
984.163	48.32
984.521	48.27
984.879	48.33
985.237	48.31
985.595	48.34
985.953	48.32
986.311	48.34
986.669	48.31
987.026	48.31
987.384	48.3
987.741	48.31
988.099	48.26
988.456	48.41
988.814	48.32
989.171	48.32
989.528	48.28
989.885	48.3
990.242	48.26
990.599	48.31
990.956	48.33
991.313	48.39
991.67	48.44
992.027	48.43
992.383	48.39
992.74	48.36
993.096	48.4
993.453	48.4
993.809	48.42
994.165	48.43
994.522	48.33
994.878	48.37
995.234	48.33
995.59	48.2
995.946	48.29
996.302	48.29
996.658	48.34
997.013	48.2
997.369	48.25
997.725	48.22
998.08	48.18
998.436	48.25
998.791	48.17
999.147	48.12
999.502	48.23
999.857	48.29
1000.212	48.29
1000.567	48.3
1000.922	48.53
1001.277	48.54
1001.632	48.67
1001.987	48.69
1002.342	48.75
1002.696	48.84
1003.051	48.73
1003.406	48.55
1003.76	48.46
1004.114	48.62
1004.469	48.56
1004.823	48.53
1005.177	48.64
1005.531	48.47
1005.885	48.39
1006.239	48.35
1006.593	48.41
1006.947	48.44
1007.301	48.36
1007.655	48.3
1008.008	48.03
1008.362	47.97
1008.715	47.84
1009.069	47.52
1009.422	47.41
1009.776	47.55
1010.129	47.42
1010.482	47.36
1010.835	47.4
1011.188	47.54
1011.541	47.52
1011.894	47.55
1012.247	47.6
1012.6	47.72
1012.952	47.68
1013.305	47.74
1013.657	47.73
1014.01	47.83
1014.362	48.06
1014.715	47.93
1015.067	48.18
1015.419	48.25
1015.771	48.41
1016.123	48.53
1016.475	48.49
1016.827	48.85
1017.179	48.92
1017.531	48.74
1017.883	48.85
1018.234	48.42
1018.586	48.56
1018.938	48.12
1019.289	47.76
1019.64	47.85
1019.992	47.97
1020.343	47.87
1020.694	47.54
1021.045	47.63
1021.396	47.76
1021.747	47.7
1022.098	47.8
1022.449	47.65
1022.8	47.89
1023.151	48.11
1023.501	47.83
1023.852	47.87
1024.202	47.89
1024.553	47.95
1024.903	47.9
1025.253	48.1
1025.604	48.23
1025.954	48.39
1026.304	49.18
1026.654	49.59
1027.004	50.13
1027.354	50.64
1027.703	50.54
1028.053	50.52
1028.403	50.75
1028.753	50.86
1029.102	50.82
1029.452	50.76
1029.801	50.83
1030.15	50.43
1030.499	50.08
897.758	343.31
901.051	340.87
904.343	348.84
907.636	346.63
910.928	339.46
914.22	346.01
917.511	334.14
920.803	319.78
924.094	308.43
927.384	314.42
930.675	303.67
933.965	299.38
937.255	303.55
940.544	288.84
943.834	273.75
947.123	271.98
950.411	258.06
953.7	257.73
956.988	247.64
960.276	238.24
963.563	234.73
966.851	225.64
970.138	222.12
973.424	207.91
976.711	207.85
979.997	203.02
983.283	197.67
986.568	192.23
989.853	187.23
993.138	182.15
996.423	180.92
999.708	176.09
1002.992	174.9
1006.275	171.21
1009.559	170.69
1012.842	164.18
1016.125	159.05
1019.408	156.79
1022.69	156.44
1025.972	154.51
1029.254	152.86
1032.536	149.36
1035.817	145.34
1039.098	143.76
1042.379	141.07
1045.659	139.66
1048.939	138.25
1052.219	136.93
1055.498	134.33
1058.778	131.36
1062.057	130.44
1065.335	129.6
1068.614	127.92
1071.892	126.69
1075.17	124.68
1078.447	123.17
1081.724	121.96
1085.001	119.6
1088.278	117.81
1091.554	117.94
1094.83	118.05
1098.106	115.72
1101.382	115.26
1104.657	115.18
1107.932	115.18
1111.206	114.64
1114.481	114.13
1117.755	112.88
1121.029	113.07
1124.302	113.23
1127.575	112.1
1130.848	110.94
1134.121	109.51
1137.393	109.15
1140.665	107.81
1143.937	106.01
1147.208	105.42
1150.48	103.8
1153.75	103.39
1157.021	102.19
1160.291	102.16
1163.561	101.39
1166.831	101.65
1170.101	101.82
1173.37	100.08
1176.639	99.78
1179.907	99.31
1183.176	98.95
1186.444	98.9
1189.711	98.23
1192.979	99.59
1196.246	98.76
1199.513	99.18
1202.78	98.77
1206.046	98.54
1209.312	99.72
1212.578	99.69
1215.843	102.16
1219.108	102.7
1222.373	104.65
1225.638	106.01
1228.902	107.5
1232.166	110.22
1235.43	110
1238.693	112.83
1241.956	115.46
1245.219	118
1248.482	119.54
1251.744	118.19
1255.006	117.73
1258.268	115.17
1261.529	114.57
1264.79	113.29
1268.051	111.35
1271.312	111.02
1274.572	109.42
1277.832	107.3
1281.092	105.27
1284.351	103.11
1287.61	103.06
1290.869	103.79
1294.128	103.67
1297.386	103.3
1300.644	102.12
1303.902	101.24
1307.159	100.66
1310.416	100.23
1313.673	101.86
1316.93	102.23
1320.186	104.21
1323.442	104.91
1326.697	104.64
1329.953	105.26
1333.208	107.33
1336.463	111.04
1339.717	113.73
1342.972	118.39
1346.226	120.93
1349.479	120.49
1352.733	126.12
1355.986	127.26
1359.238	129.21
1362.491	130.14
1365.743	134.78
1368.995	136.39
1372.247	132.42
1375.498	131.27
1378.749	133.67
1382	133.27
1385.251	132.53
1388.501	131.29
1391.751	130.81
1395	130.46
1398.25	131.46
1401.499	129
1404.748	126.77
1407.996	127.46
1411.244	127.45
1414.492	125.27
1417.74	121.69
1420.987	118.2
1424.234	115.86
1427.481	112
1430.728	109.72
1433.974	105.91
1437.22	102.91
1440.465	99.66
1443.711	95.89
1446.956	93.55
1450.201	88.9
1453.445	84.57
1456.689	82.43
1459.933	80.79
1463.177	77.39
1466.42	76.04
1469.663	73.49
1472.906	71.34
1476.148	68.84
1479.391	68.35
1482.633	67.18
1485.874	66.84
1489.115	66.99
1492.356	66.14
1495.597	64.54
1498.838	65.22
1502.078	64.2
1505.318	64.49
1508.557	63.7
1511.797	64.5
1515.036	64.03
1518.274	63.79
1521.513	63.5
1524.751	63.1
1527.989	63.84
1531.227	63.82
1534.464	63.76
1537.701	64.57
1540.938	64.01
1544.174	64.02
1547.41	64.43
1550.646	64.29
1553.882	64.57
1557.117	64.77
1560.352	64.86
1563.587	64.06
1566.821	64.37
1570.055	64.14
1573.289	63.53
1576.523	64.1
1579.756	64.35
1582.989	64.27
1586.222	64.21
1589.454	64.59
1592.686	64.64
1595.918	64.12
1599.15	64.51
1602.381	65.1
1605.612	65.2
1608.843	65.15
1612.073	65.75
1615.303	66.26
1618.533	65.45
1621.762	66.05
1624.992	65.29
1628.221	65.42
1631.449	66.36
1634.678	66.06
1637.906	65.59
1641.134	66.01
1644.361	66.3
1647.588	65.94
1650.815	65.95
1654.042	66.78
1657.269	66.36
1660.495	67.06
1663.72	66.81
1666.946	66.75
1670.171	67.52
1673.396	68.33
1676.621	67.92
1679.845	68
1683.069	68.08
1686.293	67.78
1689.517	67.41
1692.74	67.91
1695.963	67.51
1699.185	68.21
1702.408	68.21
1705.63	67.8
1708.852	67.8
1712.073	67.61
1715.294	67.71
1718.515	67.76
1721.736	67.85
1724.956	68.19
1728.176	67.84
1731.396	68.16
1734.616	67.77
1737.835	67.75
1741.054	67.65
1744.272	67.04
1747.491	67.01
1750.709	67.12
1753.927	67.05
1757.144	67.18
1760.361	67.2
1763.578	66.93
1766.795	67.46
1770.011	67.33
1773.227	67.66
1776.443	68.36
1779.658	68.16
1782.874	69.32
1786.089	68.87
1789.303	68.87
1792.518	69.38
1795.732	69.58
1798.945	71.18
1802.159	70.68
1805.372	71.47
1808.585	71.56
1811.797	71.91
1815.01	72.99
1818.222	72.72
1821.434	73
1824.645	73.54
1827.856	73.86
1831.067	73.97
1834.278	74.15
1837.488	75.27
1840.698	75.83
1843.908	76.01
1847.117	76.32
1850.326	76.11
1853.535	76.49
1856.744	77.53
1859.952	78.02
1863.16	78.18
1866.368	77.12
1869.575	77.25
1872.782	76.29
1875.989	74.43
1879.196	74.55
1882.402	73.72
1885.608	73.78
1888.814	73.18
1892.019	72.75
1895.224	71.02
1898.429	71.18
1901.634	72.07
1904.838	71.13
1908.042	71.46
1911.246	71.69
1914.449	71.31
1917.652	70.9
1920.855	70.03
1924.058	71.11
1927.26	70.74
1930.462	71.4
1933.664	70.84
1936.865	70.53
1940.066	69.61
1943.267	69.09
1946.467	70
1949.668	70.18
1952.868	70.42
1956.067	70.93
1959.267	70.57
1962.466	71.05
1965.665	71.3
1968.863	72.87
1972.061	74.11
1975.259	76.18
1978.457	76.59
1981.654	76.97
1984.852	77.47
1988.048	78.55
1991.245	79.55
1994.441	80.51
1997.637	82.29
2000.833	85.27
2004.028	84.34
2007.223	86.03
2010.418	87.71
2013.613	91.87
2016.807	94.66
2020.001	95.86
2023.194	101.12
2026.388	103.31
2029.581	107.74
2032.774	111.08
2035.966	112.65
2039.158	118.03
2042.35	118.15
2045.542	121.1
2048.733	125.09
2051.924	126.99
2055.115	128.48
2058.306	127.24
2061.496	129.41
2064.686	131.5
2067.875	130.13
2071.065	131.22
2074.254	130.72
2077.442	135.94
2080.631	136.89
2083.819	138.04
2087.007	140.34
2090.195	143.26
2093.382	143.31
2096.569	145
2099.756	146.68
2102.942	149.93
2106.128	152.45
2109.314	155.74
2112.5	156.11
2115.685	152.47
2118.87	151.94
2122.055	155.06
2125.239	158.15
2128.424	161.15
2131.608	158.45
2134.791	157.54
2137.974	158.71
2141.157	160.81
2144.34	159.62
2147.523	162.64
2150.705	169.13
2153.887	168.36
2157.068	166.98
2160.25	167.66
2163.431	168.58
2166.611	174.22
2169.792	176.72
2172.972	179.52
2176.152	180.55
2179.331	184.78
2182.511	185.04
2185.69	186.68
2188.868	193.01
2192.047	198.42
2195.225	204.45
2198.403	204.86
2201.58	201.67
2204.758	209.25
2207.935	208.79
2211.111	210.07
2214.288	210.49
2217.464	212.48
2220.64	216.29
2223.815	215.5
2226.991	211.01
2230.166	211.75
2233.34	217.93
2236.515	223.52
2239.689	219.21
2242.863	224.44
2246.036	226.07
2249.209	229.28
2252.382	230.04
2255.555	232.9
2258.727	235.74
2261.9	245.85
2265.071	247.14
2268.243	246
2271.414	252.68
2274.585	256.98
2277.756	257.19
2280.926	265.68
2284.096	270.74
2287.266	272.96
2290.436	271.43
2293.605	275.2
2296.774	282.82
2299.942	287.03
2303.111	295.63
2306.279	304.47
2309.447	306.35
2312.614	305.43
2315.781	311.23
2318.948	313.11
2322.115	319.09
2325.281	336.31
2328.447	331.23
2331.613	329.11
2334.779	333.34
2337.944	332.41
2341.109	336.08
2344.274	338.45
2347.438	351.41
2350.602	358.69
2353.766	377.4
2356.929	376.86
2360.092	385.59
2363.255	393.69
2366.418	401.68
2369.58	409.65
2372.742	412.09
2375.904	408.42
2379.066	423.48
2382.227	440.11
2385.388	431.84
2388.548	416.49
2391.709	415.09
2394.869	417.78
2398.029	426.74
2401.188	420.81
2404.347	429.73
2407.506	445.48
2410.665	434.9
2413.823	439.67
2416.981	440.91
2420.139	425.04
2423.296	461.28
2426.453	486.35
2429.61	459.13
2432.767	482.44
2435.923	508.32
2439.079	493.26
2442.235	505.37
2445.391	514.64
2448.546	503.82
2451.701	531.16
2454.855	563.81
2458.009	496.71
2461.163	506.8
2464.317	516.26
2467.471	505.07
2470.624	518.65
2473.777	512.24
2476.929	501.28
2480.082	522.72
2483.234	548.3
2486.385	560.71
2489.537	575.27
2492.688	628.25
2495.839	615.37
2498.989	642.78
2502.14	645.89
2505.29	613.9
2508.439	671.65
2511.589	675.84
2514.738	683.49
2517.887	674.93
2521.035	626.57
2524.183	614.46
2527.331	615.01
2530.479	602.73
2533.627	611.5
