Data from N_2_hir_wi_4n_077_Splice17_15.txt Node
Date: Sat Feb 29 14:10:30 EST 2020
User: sa697716
Spectrometer: FLMS03696
Trigger mode: 0
Integration Time (sec): 3.180400E-1
Scans to average: 20
Electric dark correction enabled: true
Nonlinearity correction enabled: true
Boxcar width: 5
XAxis mode: Wavelengths
Number of Pixels in Spectrum: 2048
>>>>>Begin Spectral Data<<<<<
187.83	66.42
188.298	57.98
188.766	62.43
189.233	47.79
189.701	53.16
190.169	60.39
190.636	74.73
191.104	87.7
191.571	498.26
192.039	300.41
192.506	-364.38
192.974	1526.87
193.441	-82.14
193.908	64.92
194.375	47.84
194.842	104.46
195.31	59.05
195.777	88.81
196.244	30.52
196.711	27.75
197.177	22.68
197.644	22.33
198.111	21.95
198.578	21.66
199.045	21.91
199.511	22.35
199.978	22.25
200.445	21.84
200.911	22.1
201.378	22.4
201.844	22.29
202.31	22.91
202.777	23.39
203.243	23.96
203.709	24.2
204.176	23.82
204.642	23.39
205.108	23.49
205.574	24.6
206.04	24.31
206.506	24.07
206.972	24.11
207.438	23.85
207.903	23.74
208.369	22.64
208.835	22.6
209.301	22.57
209.766	22.26
210.232	21.94
210.697	20.98
211.163	21.03
211.628	20.39
212.094	19.8
212.559	19.41
213.024	18.54
213.49	18.49
213.955	17.85
214.42	17.33
214.885	16.64
215.35	15.95
215.815	15.13
216.28	13.81
216.745	12.97
217.21	12
217.675	10.85
218.14	9.98
218.604	8.95
219.069	8.14
219.534	7.48
219.998	7
220.463	6.6
220.927	6.26
221.392	5.91
221.856	5.59
222.32	5.33
222.785	5.1
223.249	4.91
223.713	4.76
224.177	4.57
224.642	4.46
225.106	4.33
225.57	4.17
226.034	4.06
226.497	3.95
226.961	3.83
227.425	3.71
227.889	3.65
228.353	3.54
228.816	3.47
229.28	3.4
229.744	3.34
230.207	3.28
230.671	3.23
231.134	3.16
231.597	3.12
232.061	3.1
232.524	3.07
232.987	3.02
233.45	2.98
233.914	2.94
234.377	2.92
234.84	2.88
235.303	2.84
235.766	2.81
236.229	2.79
236.691	2.76
237.154	2.74
237.617	2.71
238.08	2.67
238.542	2.65
239.005	2.63
239.468	2.59
239.93	2.55
240.393	2.52
240.855	2.49
241.317	2.46
241.78	2.44
242.242	2.4
242.704	2.36
243.166	2.34
243.629	2.32
244.091	2.29
244.553	2.29
245.015	2.27
245.477	2.25
245.939	2.22
246.4	2.19
246.862	2.17
247.324	2.16
247.786	2.15
248.247	2.13
248.709	2.1
249.17	2.08
249.632	2.05
250.093	2.02
250.555	2
251.016	1.99
251.477	1.98
251.939	1.95
252.4	1.94
252.861	1.93
253.322	1.91
253.783	1.91
254.244	1.9
254.705	1.88
255.166	1.89
255.627	1.88
256.088	1.86
256.549	1.85
257.009	1.83
257.47	1.82
257.931	1.8
258.391	1.78
258.852	1.76
259.312	1.74
259.773	1.73
260.233	1.7
260.694	1.68
261.154	1.67
261.614	1.64
262.074	1.63
262.534	1.61
262.994	1.59
263.455	1.58
263.915	1.57
264.374	1.56
264.834	1.55
265.294	1.54
265.754	1.53
266.214	1.52
266.673	1.51
267.133	1.5
267.593	1.49
268.052	1.48
268.512	1.47
268.971	1.46
269.431	1.45
269.89	1.44
270.349	1.44
270.809	1.44
271.268	1.44
271.727	1.44
272.186	1.43
272.645	1.42
273.104	1.42
273.563	1.42
274.022	1.42
274.481	1.42
274.94	1.41
275.399	1.41
275.857	1.4
276.316	1.39
276.775	1.38
277.233	1.38
277.692	1.38
278.15	1.37
278.609	1.36
279.067	1.35
279.525	1.35
279.984	1.34
280.442	1.33
280.9	1.33
281.358	1.33
281.816	1.33
282.274	1.33
282.732	1.33
283.19	1.33
283.648	1.33
284.106	1.33
284.564	1.34
285.021	1.34
285.479	1.34
285.937	1.34
286.394	1.33
286.852	1.34
287.309	1.33
287.767	1.32
288.224	1.32
288.682	1.32
289.139	1.32
289.596	1.3
290.053	1.29
290.511	1.28
290.968	1.28
291.425	1.27
291.882	1.26
292.339	1.27
292.796	1.25
293.252	1.25
293.709	1.24
294.166	1.23
294.623	1.23
295.079	1.24
295.536	1.23
295.992	1.24
296.449	1.23
296.905	1.23
297.362	1.22
297.818	1.22
298.274	1.21
298.731	1.21
299.187	1.21
299.643	1.21
300.099	1.21
300.555	1.2
301.011	1.19
301.467	1.19
301.923	1.19
302.379	1.19
302.835	1.19
303.291	1.19
303.746	1.18
304.202	1.18
304.658	1.17
305.113	1.16
305.569	1.17
306.024	1.16
306.479	1.16
306.935	1.16
307.39	1.16
307.845	1.16
308.301	1.17
308.756	1.18
309.211	1.18
309.666	1.18
310.121	1.18
310.576	1.18
311.031	1.18
311.486	1.19
311.94	1.19
312.395	1.2
312.85	1.2
313.305	1.2
313.759	1.19
314.214	1.19
314.668	1.2
315.123	1.21
315.577	1.21
316.032	1.21
316.486	1.2
316.94	1.2
317.394	1.2
317.849	1.2
318.303	1.2
318.757	1.19
319.211	1.18
319.665	1.18
320.119	1.17
320.572	1.17
321.026	1.18
321.48	1.18
321.934	1.17
322.387	1.17
322.841	1.16
323.295	1.16
323.748	1.16
324.202	1.16
324.655	1.17
325.108	1.17
325.562	1.16
326.015	1.16
326.468	1.15
326.921	1.15
327.374	1.15
327.827	1.15
328.28	1.14
328.733	1.14
329.186	1.15
329.639	1.14
330.092	1.13
330.545	1.13
330.997	1.12
331.45	1.13
331.903	1.13
332.355	1.13
332.808	1.13
333.26	1.14
333.713	1.15
334.165	1.15
334.617	1.16
335.069	1.17
335.522	1.18
335.974	1.18
336.426	1.18
336.878	1.18
337.33	1.19
337.782	1.19
338.234	1.2
338.686	1.2
339.137	1.2
339.589	1.2
340.041	1.19
340.493	1.19
340.944	1.19
341.396	1.19
341.847	1.19
342.299	1.18
342.75	1.17
343.201	1.15
343.653	1.14
344.104	1.13
344.555	1.13
345.006	1.12
345.457	1.12
345.908	1.11
346.359	1.11
346.81	1.12
347.261	1.11
347.712	1.12
348.163	1.13
348.613	1.12
349.064	1.11
349.515	1.1
349.965	1.1
350.416	1.1
350.866	1.09
351.317	1.09
351.767	1.09
352.217	1.08
352.668	1.08
353.118	1.08
353.568	1.09
354.018	1.1
354.468	1.09
354.918	1.1
355.368	1.11
355.818	1.11
356.268	1.11
356.718	1.11
357.168	1.1
357.617	1.1
358.067	1.09
358.517	1.09
358.966	1.09
359.416	1.1
359.865	1.1
360.315	1.09
360.764	1.09
361.213	1.09
361.663	1.09
362.112	1.11
362.561	1.1
363.01	1.12
363.459	1.13
363.908	1.12
364.357	1.12
364.806	1.12
365.255	1.13
365.703	1.14
366.152	1.14
366.601	1.15
367.05	1.15
367.498	1.16
367.947	1.15
368.395	1.17
368.844	1.17
369.292	1.18
369.74	1.18
370.189	1.19
370.637	1.2
371.085	1.21
371.533	1.21
371.981	1.21
372.429	1.21
372.877	1.21
373.325	1.19
373.773	1.19
374.221	1.19
374.669	1.2
375.116	1.19
375.564	1.19
376.012	1.2
376.459	1.2
376.907	1.2
377.354	1.21
377.801	1.23
378.249	1.25
378.696	1.27
379.143	1.28
379.591	1.3
380.038	1.32
380.485	1.34
380.932	1.34
381.379	1.34
381.826	1.35
382.273	1.36
382.72	1.37
383.166	1.38
383.613	1.39
384.06	1.4
384.506	1.41
384.953	1.43
385.4	1.44
385.846	1.45
386.292	1.46
386.739	1.47
387.185	1.5
387.631	1.52
388.078	1.54
388.524	1.54
388.97	1.55
389.416	1.56
389.862	1.57
390.308	1.58
390.754	1.61
391.2	1.64
391.645	1.67
392.091	1.69
392.537	1.71
392.983	1.74
393.428	1.77
393.874	1.8
394.319	1.82
394.765	1.84
395.21	1.86
395.655	1.88
396.101	1.91
396.546	1.92
396.991	1.93
397.436	1.93
397.881	1.96
398.326	2.01
398.771	2.04
399.216	2.06
399.661	2.09
400.106	2.13
400.551	2.15
400.995	2.17
401.44	2.19
401.885	2.21
402.329	2.23
402.774	2.24
403.218	2.24
403.663	2.24
404.107	2.26
404.551	2.28
404.995	2.29
405.44	2.3
405.884	2.32
406.328	2.34
406.772	2.36
407.216	2.38
407.66	2.4
408.104	2.41
408.547	2.44
408.991	2.45
409.435	2.46
409.879	2.48
410.322	2.49
410.766	2.51
411.209	2.53
411.653	2.53
412.096	2.54
412.54	2.54
412.983	2.56
413.426	2.58
413.869	2.6
414.312	2.64
414.756	2.66
415.199	2.69
415.642	2.71
416.085	2.73
416.527	2.76
416.97	2.77
417.413	2.8
417.856	2.8
418.298	2.8
418.741	2.8
419.184	2.8
419.626	2.79
420.069	2.78
420.511	2.79
420.953	2.78
421.396	2.79
421.838	2.8
422.28	2.83
422.722	2.84
423.164	2.85
423.606	2.88
424.048	2.87
424.49	2.88
424.932	2.89
425.374	2.89
425.816	2.9
426.258	2.89
426.699	2.87
427.141	2.84
427.582	2.85
428.024	2.86
428.465	2.86
428.907	2.88
429.348	2.88
429.789	2.9
430.231	2.89
430.672	2.9
431.113	2.91
431.554	2.93
431.995	2.95
432.436	2.93
432.877	2.92
433.318	2.9
433.759	2.9
434.2	2.9
434.64	2.92
435.081	2.92
435.522	2.93
435.962	2.95
436.403	2.96
436.843	2.96
437.284	2.99
437.724	3.02
438.164	3.03
438.604	3.05
439.045	3.06
439.485	3.08
439.925	3.09
440.365	3.1
440.805	3.09
441.245	3.08
441.685	3.1
442.125	3.11
442.564	3.13
443.004	3.16
443.444	3.18
443.883	3.2
444.323	3.2
444.762	3.23
445.202	3.27
445.641	3.3
446.081	3.33
446.52	3.33
446.959	3.34
447.398	3.38
447.837	3.41
448.276	3.42
448.716	3.43
449.154	3.46
449.593	3.48
450.032	3.48
450.471	3.49
450.91	3.49
451.349	3.53
451.787	3.53
452.226	3.5
452.664	3.48
453.103	3.47
453.541	3.48
453.98	3.49
454.418	3.47
454.856	3.45
455.295	3.44
455.733	3.45
456.171	3.44
456.609	3.45
457.047	3.46
457.485	3.46
457.923	3.47
458.361	3.46
458.798	3.46
459.236	3.46
459.674	3.47
460.111	3.48
460.549	3.47
460.987	3.48
461.424	3.47
461.862	3.47
462.299	3.46
462.736	3.46
463.173	3.47
463.611	3.45
464.048	3.47
464.485	3.45
464.922	3.45
465.359	3.47
465.796	3.46
466.233	3.48
466.67	3.49
467.106	3.47
467.543	3.47
467.98	3.47
468.416	3.49
468.853	3.49
469.29	3.5
469.726	3.51
470.162	3.5
470.599	3.5
471.035	3.5
471.471	3.5
471.907	3.52
472.344	3.52
472.78	3.53
473.216	3.52
473.652	3.51
474.088	3.51
474.523	3.51
474.959	3.5
475.395	3.52
475.831	3.52
476.266	3.52
476.702	3.52
477.138	3.52
477.573	3.51
478.008	3.51
478.444	3.52
478.879	3.52
479.314	3.53
479.75	3.54
480.185	3.54
480.62	3.54
481.055	3.54
481.49	3.53
481.925	3.52
482.36	3.53
482.795	3.53
483.229	3.53
483.664	3.52
484.099	3.51
484.534	3.51
484.968	3.52
485.403	3.52
485.837	3.53
486.271	3.54
486.706	3.55
487.14	3.58
487.574	3.58
488.009	3.6
488.443	3.62
488.877	3.64
489.311	3.67
489.745	3.68
490.179	3.7
490.613	3.73
491.046	3.75
491.48	3.78
491.914	3.81
492.348	3.84
492.781	3.87
493.215	3.9
493.648	3.94
494.082	3.98
494.515	4.02
494.948	4.06
495.382	4.11
495.815	4.18
496.248	4.23
496.681	4.28
497.114	4.33
497.547	4.4
497.98	4.48
498.413	4.55
498.846	4.62
499.279	4.71
499.711	4.79
500.144	4.87
500.577	4.96
501.009	5.05
501.442	5.15
501.874	5.26
502.306	5.37
502.739	5.47
503.171	5.59
503.603	5.72
504.036	5.85
504.468	6
504.9	6.15
505.332	6.29
505.764	6.45
506.196	6.61
506.627	6.78
507.059	6.95
507.491	7.14
507.923	7.32
508.354	7.5
508.786	7.69
509.217	7.87
509.649	8.07
510.08	8.28
510.512	8.49
510.943	8.72
511.374	8.94
511.805	9.18
512.237	9.4
512.668	9.64
513.099	9.89
513.53	10.14
513.961	10.41
514.391	10.66
514.822	10.92
515.253	11.2
515.684	11.45
516.114	11.73
516.545	12
516.975	12.27
517.406	12.54
517.836	12.82
518.267	13.1
518.697	13.38
519.127	13.66
519.558	13.95
519.988	14.21
520.418	14.48
520.848	14.73
521.278	14.99
521.708	15.12
522.138	15.36
522.567	15.61
522.997	15.85
523.427	16.07
523.857	16.31
524.286	16.52
524.716	16.75
525.145	16.99
525.575	17.21
526.004	17.42
526.433	17.76
526.863	17.95
527.292	18.15
527.721	18.34
528.15	18.52
528.579	18.68
529.008	18.85
529.437	18.99
529.866	19.11
530.295	19.23
530.724	19.38
531.152	19.5
531.581	19.64
532.01	19.72
532.438	19.83
532.867	19.93
533.295	20.03
533.723	20.13
534.152	20.24
534.58	20.32
535.008	20.42
535.436	20.47
535.865	20.52
536.293	20.59
536.721	20.66
537.149	20.71
537.576	20.77
538.004	20.81
538.432	20.85
538.86	20.88
539.287	20.92
539.715	20.96
540.143	21
540.57	21.03
540.998	21.07
541.425	21.09
541.852	21.13
542.28	21.14
542.707	21.18
543.134	21.19
543.561	21.21
543.988	21.25
544.415	21.27
544.842	21.3
545.269	21.34
545.696	21.37
546.123	21.41
546.549	21.45
546.976	21.5
547.403	21.51
547.829	21.55
548.256	21.57
548.682	21.58
549.108	21.62
549.535	21.62
549.961	21.61
550.387	21.6
550.813	21.6
551.24	21.6
551.666	21.6
552.092	21.6
552.518	21.59
552.943	21.6
553.369	21.59
553.795	21.56
554.221	21.55
554.646	21.53
555.072	21.53
555.498	21.47
555.923	21.43
556.349	21.38
556.774	21.34
557.199	21.3
557.625	21.22
558.05	21.16
558.475	21.08
558.9	21.01
559.325	20.93
559.75	20.83
560.175	20.77
560.6	20.67
561.025	20.57
561.449	20.46
561.874	20.35
562.299	20.26
562.723	20.16
563.148	20.04
563.572	19.93
563.997	19.82
564.421	19.71
564.846	19.57
565.27	19.44
565.694	19.32
566.118	19.2
566.542	19.05
566.966	18.91
567.39	18.76
567.814	18.62
568.238	18.47
568.662	18.34
569.086	18.19
569.509	18.05
569.933	17.89
570.357	17.73
570.78	17.58
571.204	17.44
571.627	17.3
572.05	17.16
572.474	17.01
572.897	16.88
573.32	16.73
573.743	16.6
574.166	16.47
574.589	16.35
575.012	16.23
575.435	16.11
575.858	16
576.281	15.9
576.704	15.8
577.126	15.72
577.549	15.62
577.972	15.52
578.394	15.42
578.817	15.34
579.239	15.26
579.661	15.19
580.084	15.11
580.506	15.02
580.928	14.94
581.35	14.87
581.772	14.78
582.194	14.72
582.616	14.65
583.038	14.58
583.46	14.52
583.882	14.44
584.303	14.38
584.725	14.3
585.147	14.24
585.568	14.18
585.99	14.1
586.411	14.05
586.833	13.99
587.254	13.93
587.675	13.89
588.096	13.84
588.518	13.79
588.939	13.75
589.36	13.71
589.781	13.66
590.202	13.65
590.623	13.61
591.043	13.58
591.464	13.55
591.885	13.52
592.305	13.49
592.726	13.45
593.147	13.44
593.567	13.39
593.987	13.38
594.408	13.35
594.828	13.3
595.248	13.28
595.669	13.24
596.089	13.22
596.509	13.18
596.929	13.15
597.349	13.11
597.769	13.06
598.189	13.04
598.608	13
599.028	12.96
599.448	12.92
599.867	12.88
600.287	12.84
600.706	12.79
601.126	12.75
601.545	12.7
601.965	12.66
602.384	12.62
602.803	12.56
603.222	12.48
603.641	12.44
604.061	12.38
604.48	12.32
604.898	12.25
605.317	12.19
605.736	12.12
606.155	12.05
606.574	11.98
606.992	11.9
607.411	11.85
607.829	11.74
608.248	11.66
608.666	11.58
609.085	11.5
609.503	11.42
609.921	11.33
610.339	11.26
610.758	11.18
611.176	11.11
611.594	11.03
612.012	10.94
612.43	10.91
612.847	10.84
613.265	10.77
613.683	10.7
614.101	10.62
614.518	10.54
614.936	10.48
615.353	10.4
615.771	10.34
616.188	10.28
616.606	10.22
617.023	10.15
617.44	10.09
617.857	10.04
618.274	9.98
618.691	9.94
619.108	9.9
619.525	9.86
619.942	9.84
620.359	9.82
620.776	9.78
621.192	9.76
621.609	9.73
622.026	9.7
622.442	9.68
622.859	9.66
623.275	9.65
623.691	9.64
624.108	9.63
624.524	9.6
624.94	9.58
625.356	9.56
625.772	9.55
626.188	9.56
626.604	9.55
627.02	9.54
627.436	9.54
627.852	9.53
628.268	9.52
628.683	9.5
629.099	9.49
629.514	9.47
629.93	9.45
630.345	9.43
630.761	9.39
631.176	9.37
631.591	9.33
632.007	9.28
632.422	9.23
632.837	9.2
633.252	9.16
633.667	9.11
634.082	9.08
634.497	9.03
634.911	8.96
635.326	8.89
635.741	8.81
636.155	8.74
636.57	8.66
636.984	8.58
637.399	8.47
637.813	8.38
638.228	8.27
638.642	8.16
639.056	8.07
639.47	7.98
639.884	7.89
640.298	7.8
640.712	7.69
641.126	7.6
641.54	7.51
641.954	7.43
642.368	7.32
642.781	7.22
643.195	7.12
643.609	7.03
644.022	6.94
644.436	6.83
644.849	6.75
645.262	6.66
645.676	6.57
646.089	6.48
646.502	6.4
646.915	6.33
647.328	6.27
647.741	6.2
648.154	6.15
648.567	6.11
648.98	6.06
649.393	6.01
649.805	5.97
650.218	5.93
650.631	5.89
651.043	5.84
651.456	5.8
651.868	5.75
652.28	5.72
652.693	5.64
653.105	5.59
653.517	5.53
653.929	5.48
654.341	5.44
654.753	5.37
655.165	5.32
655.577	5.25
655.989	5.18
656.401	5.13
656.813	5.05
657.224	4.99
657.636	4.91
658.047	4.85
658.459	4.76
658.87	4.67
659.282	4.61
659.693	4.53
660.104	4.47
660.515	4.39
660.926	4.31
661.338	4.26
661.749	4.18
662.159	4.11
662.57	4.03
662.981	3.98
663.392	3.92
663.803	3.86
664.213	3.81
664.624	3.76
665.035	3.71
665.445	3.67
665.855	3.63
666.266	3.61
666.676	3.59
667.086	3.57
667.497	3.54
667.907	3.51
668.317	3.49
668.727	3.47
669.137	3.45
669.547	3.44
669.956	3.44
670.366	3.44
670.776	3.43
671.186	3.42
671.595	3.42
672.005	3.43
672.414	3.44
672.824	3.45
673.233	3.46
673.642	3.47
674.052	3.47
674.461	3.48
674.87	3.5
675.279	3.51
675.688	3.52
676.097	3.55
676.506	3.57
676.915	3.61
677.323	3.64
677.732	3.69
678.141	3.73
678.549	3.78
678.958	3.83
679.366	3.87
679.775	3.92
680.183	3.99
680.592	4.06
681	4.13
681.408	4.21
681.816	4.28
682.224	4.37
682.632	4.47
683.04	4.58
683.448	4.7
683.856	4.84
684.264	4.99
684.671	5.16
685.079	5.33
685.487	5.53
685.894	5.75
686.302	5.98
686.709	6.23
687.116	6.52
687.524	6.82
687.931	7.15
688.338	7.51
688.745	7.87
689.152	8.26
689.559	8.67
689.966	9.08
690.373	9.54
690.78	10
691.187	10.49
691.593	10.98
692	11.47
692.407	11.99
692.813	12.51
693.22	13.03
693.626	13.56
694.032	14.1
694.439	14.67
694.845	15.23
695.251	15.79
695.657	16.34
696.063	16.9
696.469	17.45
696.875	17.99
697.281	18.53
697.687	19.07
698.093	19.59
698.498	20.12
698.904	20.66
699.31	21.15
699.715	21.66
700.12	22.14
700.526	22.64
700.931	23.14
701.337	23.61
701.742	24.07
702.147	24.53
702.552	25
702.957	25.44
703.362	25.88
703.767	26.31
704.172	26.75
704.577	27.16
704.981	27.57
705.386	27.97
705.791	28.37
706.195	28.79
706.6	29.18
707.004	29.57
707.408	29.93
707.813	30.28
708.217	30.65
708.621	30.99
709.025	31.36
709.43	31.69
709.834	32.04
710.237	32.35
710.641	32.68
711.045	32.97
711.449	33.27
711.853	33.57
712.256	33.9
712.66	34.2
713.064	34.49
713.467	34.76
713.87	35.07
714.274	35.34
714.677	35.64
715.08	35.9
715.484	36.19
715.887	36.47
716.29	36.74
716.693	36.97
717.096	37.23
717.499	37.48
717.901	37.72
718.304	37.96
718.707	38.2
719.109	38.42
719.512	38.66
719.915	38.88
720.317	39.08
720.719	39.3
721.122	39.48
721.524	39.67
721.926	39.86
722.328	40.05
722.731	40.23
723.133	40.42
723.535	40.6
723.937	40.76
724.338	40.91
724.74	41.07
725.142	41.16
725.544	41.32
725.945	41.45
726.347	41.57
726.748	41.7
727.15	41.82
727.551	41.94
727.952	42.06
728.354	42.19
728.755	42.33
729.156	42.44
729.557	42.6
729.958	42.7
730.359	42.81
730.76	42.91
731.161	43.01
731.562	43.12
731.962	43.21
732.363	43.3
732.763	43.38
733.164	43.42
733.564	43.52
733.965	43.57
734.365	43.64
734.766	43.69
735.166	43.73
735.566	43.77
735.966	43.78
736.366	43.81
736.766	43.85
737.166	43.89
737.566	43.91
737.966	43.98
738.365	44.06
738.765	44.12
739.165	44.15
739.564	44.22
739.964	44.27
740.363	44.34
740.763	44.4
741.162	44.42
741.561	44.44
741.96	44.48
742.36	44.49
742.759	44.47
743.158	44.5
743.557	44.56
743.955	44.62
744.354	44.65
744.753	44.69
745.152	44.71
745.55	44.77
745.949	44.8
746.348	44.83
746.746	44.83
747.144	44.93
747.543	44.96
747.941	44.98
748.339	45.02
748.737	45.06
749.136	45.07
749.534	45.1
749.932	45.08
750.33	45.1
750.727	45.14
751.125	45.15
751.523	45.1
751.921	45.13
752.318	45.13
752.716	45.12
753.113	45.11
753.511	45.12
753.908	45.08
754.305	45.08
754.703	45.07
755.1	45.06
755.497	45.08
755.894	45.1
756.291	45.07
756.688	45.07
757.085	45.04
757.482	45.04
757.878	45.03
758.275	45.06
758.672	45.11
759.068	45.13
759.465	45.12
759.861	45.12
760.258	45.1
760.654	45.11
761.05	45.12
761.447	45.12
761.843	45.12
762.239	45.12
762.635	45.12
763.031	45.07
763.427	45.07
763.822	45.05
764.218	45.04
764.614	45.06
765.01	45.01
765.405	44.99
765.801	44.96
766.196	44.92
766.592	44.95
766.987	44.95
767.382	44.97
767.778	44.95
768.173	44.99
768.568	44.97
768.963	44.98
769.358	44.98
769.753	44.99
770.148	44.99
770.542	45
770.937	44.98
771.332	44.93
771.726	44.93
772.121	44.93
772.515	44.92
772.91	44.94
773.304	44.91
773.699	44.9
774.093	44.89
774.487	44.92
774.881	44.93
775.275	44.93
775.669	44.99
776.063	44.95
776.457	44.93
776.851	44.89
777.245	44.89
777.638	44.91
778.032	44.91
778.425	44.92
778.819	44.92
779.212	44.88
779.606	44.88
779.999	44.84
780.392	44.88
780.786	44.89
781.179	44.91
781.572	44.92
781.965	44.91
782.358	44.92
782.751	44.94
783.143	44.96
783.536	45.04
783.929	45.07
784.322	45.12
784.714	45.12
785.107	45.14
785.499	45.16
785.891	45.2
786.284	45.18
786.676	45.18
787.068	45.17
787.46	45.15
787.852	45.12
788.245	45.1
788.636	45.07
789.028	45.06
789.42	45.05
789.812	45.05
790.204	44.97
790.595	44.97
790.987	44.95
791.378	44.95
791.77	44.97
792.161	44.98
792.553	44.98
792.944	44.99
793.335	45.05
793.726	45.05
794.117	45.06
794.508	45.08
794.899	45.13
795.29	45.17
795.681	45.18
796.072	45.17
796.463	45.15
796.853	45.2
797.244	45.19
797.634	45.15
798.025	45.16
798.415	45.17
798.806	45.21
799.196	45.23
799.586	45.22
799.976	45.24
800.366	45.26
800.756	45.27
801.146	45.23
801.536	45.23
801.926	45.23
802.316	45.23
802.706	45.23
803.095	45.24
803.485	45.2
803.874	45.23
804.264	45.23
804.653	45.21
805.043	45.21
805.432	45.23
805.821	45.26
806.21	45.27
806.599	45.3
806.988	45.3
807.377	45.32
807.766	45.34
808.155	45.33
808.544	45.3
808.933	45.32
809.321	45.33
809.71	45.33
810.098	45.33
810.487	45.33
810.875	45.34
811.264	45.35
811.652	45.36
812.04	45.35
812.428	45.37
812.816	45.4
813.204	45.38
813.592	45.37
813.98	45.38
814.368	45.38
814.756	45.39
815.144	45.38
815.531	45.36
815.919	45.33
816.306	45.34
816.694	45.36
817.081	45.34
817.469	45.37
817.856	45.39
818.243	45.41
818.63	45.43
819.017	45.44
819.404	45.44
819.791	45.5
820.178	45.52
820.565	45.52
820.952	45.51
821.339	45.56
821.725	45.57
822.112	45.58
822.498	45.59
822.885	45.57
823.271	45.61
823.657	45.62
824.044	45.62
824.43	45.63
824.816	45.62
825.202	45.62
825.588	45.6
825.974	45.63
826.36	45.61
826.746	45.64
827.132	45.63
827.517	45.61
827.903	45.62
828.289	45.62
828.674	45.61
829.06	45.64
829.445	45.67
829.83	45.68
830.216	45.66
830.601	45.66
830.986	45.65
831.371	45.66
831.756	45.63
832.141	45.64
832.526	45.61
832.911	45.63
833.295	45.63
833.68	45.64
834.065	45.63
834.449	45.62
834.834	45.62
835.218	45.61
835.603	45.6
835.987	45.62
836.371	45.62
836.755	45.63
837.139	45.62
837.524	45.61
837.908	45.58
838.291	45.56
838.675	45.57
839.059	45.57
839.443	45.57
839.827	45.6
840.21	45.6
840.594	45.61
840.977	45.59
841.361	45.58
841.744	45.57
842.127	45.58
842.511	45.59
842.894	45.59
843.277	45.63
843.66	45.64
844.043	45.63
844.426	45.6
844.809	45.59
845.191	45.6
845.574	45.58
845.957	45.59
846.339	45.56
846.722	45.58
847.104	45.57
847.487	45.55
847.869	45.53
848.252	45.51
848.634	45.54
849.016	45.53
849.398	45.54
849.78	45.56
850.162	45.56
850.544	45.58
850.926	45.55
851.307	45.56
851.689	45.54
852.071	45.55
852.452	45.55
852.834	45.55
853.215	45.56
853.597	45.55
853.978	45.52
854.359	45.5
854.741	45.51
855.122	45.55
855.503	45.56
855.884	45.55
856.265	45.53
856.646	45.53
857.026	45.56
857.407	45.54
857.788	45.55
858.169	45.57
858.549	45.61
858.93	45.6
859.31	45.57
859.69	45.57
860.071	45.59
860.451	45.59
860.831	45.62
861.211	45.6
861.591	45.62
861.971	45.61
862.351	45.64
862.731	45.64
863.111	45.64
863.491	45.63
863.87	45.64
864.25	45.66
864.629	45.67
865.009	45.63
865.388	45.63
865.768	45.6
866.147	45.62
866.526	45.6
866.905	45.6
867.284	45.56
867.663	45.57
868.042	45.54
868.421	45.5
868.8	45.49
869.179	45.51
869.558	45.5
869.936	45.51
870.315	45.48
870.693	45.49
871.072	45.47
871.45	45.49
871.828	45.48
872.207	45.49
872.585	45.5
872.963	45.48
873.341	45.49
873.719	45.47
874.097	45.45
874.475	45.47
874.853	45.47
875.23	45.47
875.608	45.45
875.986	45.45
876.363	45.46
876.741	45.45
877.118	45.46
877.495	45.44
877.873	45.44
878.25	45.44
878.627	45.45
879.004	45.43
879.381	45.43
879.758	45.44
880.135	45.45
880.512	45.45
880.889	45.45
881.265	45.48
881.642	45.49
882.019	45.51
882.395	45.53
882.772	45.51
883.148	45.49
883.524	45.52
883.901	45.53
884.277	45.51
884.653	45.53
885.029	45.54
885.405	45.51
885.781	45.49
886.157	45.5
886.532	45.51
886.908	45.52
887.284	45.54
887.659	45.53
888.035	45.53
888.411	45.54
888.786	45.5
889.161	45.5
889.537	45.53
889.912	45.54
890.287	45.51
890.662	45.46
891.037	45.44
891.412	45.42
891.787	45.39
892.162	45.36
892.536	45.31
892.911	45.3
893.286	45.25
893.66	45.22
894.035	45.21
894.409	45.19
894.784	45.22
895.158	45.19
895.532	45.2
895.906	45.19
896.281	45.19
896.655	45.2
897.029	45.19
897.402	45.21
897.776	45.19
898.15	45.18
898.524	45.19
898.898	45.17
899.271	45.16
899.645	45.13
900.018	45.11
900.392	45.14
900.765	45.14
901.138	45.15
901.511	45.14
901.884	45.15
902.258	45.11
902.631	45.15
903.003	45.16
903.376	45.16
903.749	45.22
904.122	45.23
904.495	45.2
904.867	45.2
905.24	45.19
905.612	45.2
905.985	45.19
906.357	45.19
906.729	45.13
907.102	45.11
907.474	45.13
907.846	45.08
908.218	45.04
908.59	45.02
908.962	45.01
909.334	44.99
909.705	44.98
910.077	44.98
910.449	44.98
910.82	44.98
911.192	44.97
911.563	44.95
911.935	44.94
912.306	44.99
912.677	45.04
913.048	45.01
913.419	45.01
913.79	44.98
914.161	44.96
914.532	44.98
914.903	45
915.274	44.98
915.645	44.99
916.015	45.01
916.386	45
916.756	44.96
917.127	44.99
917.497	45.01
917.868	45.01
918.238	45.05
918.608	45.04
918.978	45.02
919.348	45.01
919.718	45
920.088	44.96
920.458	44.95
920.828	44.97
921.198	44.95
921.567	44.93
921.937	44.96
922.306	44.96
922.676	44.95
923.045	44.9
923.415	44.96
923.784	44.96
924.153	44.97
924.522	44.97
924.891	44.91
925.26	44.9
925.629	44.91
925.998	44.91
926.367	44.86
926.736	44.89
927.104	44.91
927.473	44.89
927.842	44.86
928.21	44.85
928.578	44.8
928.947	44.8
929.315	44.83
929.683	44.79
930.051	44.73
930.42	44.7
930.788	44.65
931.156	44.62
931.523	44.57
931.891	44.53
932.259	44.51
932.627	44.46
932.994	44.45
933.362	44.33
933.729	44.29
934.097	44.26
934.464	44.23
934.831	44.16
935.199	44.14
935.566	44.11
935.933	44.06
936.3	43.94
936.667	43.96
937.034	43.83
937.401	43.83
937.767	43.81
938.134	43.77
938.501	43.71
938.867	43.73
939.234	43.7
939.6	43.69
939.967	43.74
940.333	43.83
940.699	43.87
941.065	43.99
941.431	44.01
941.798	44.06
942.163	44.18
942.529	44.27
942.895	44.35
943.261	44.41
943.627	44.48
943.992	44.53
944.358	44.55
944.723	44.54
945.089	44.55
945.454	44.62
945.82	44.57
946.185	44.57
946.55	44.62
946.915	44.58
947.28	44.6
947.645	44.59
948.01	44.53
948.375	44.53
948.74	44.48
949.104	44.5
949.469	44.44
949.834	44.44
950.198	44.39
950.562	44.28
950.927	44.32
951.291	44.22
951.655	44.18
952.02	44.19
952.384	44.17
952.748	44.25
953.112	44.24
953.476	44.25
953.839	44.22
954.203	44.19
954.567	44.13
954.931	44.09
955.294	44.09
955.658	44.05
956.021	44.06
956.385	44.01
956.748	43.88
957.111	43.83
957.474	43.82
957.837	43.81
958.2	43.78
958.563	43.84
958.926	43.8
959.289	43.76
959.652	43.79
960.015	43.7
960.377	43.69
960.74	43.76
961.102	43.71
961.465	43.7
961.827	43.64
962.189	43.6
962.552	43.54
962.914	43.51
963.276	43.52
963.638	43.43
964	43.45
964.362	43.46
964.724	43.45
965.085	43.45
965.447	43.38
965.809	43.34
966.17	43.33
966.532	43.38
966.893	43.37
967.255	43.38
967.616	43.42
967.977	43.4
968.338	43.38
968.699	43.27
969.061	43.26
969.421	43.22
969.782	43.29
970.143	43.27
970.504	43.22
970.865	43.19
971.225	43.14
971.586	43.08
971.946	43.07
972.307	43.05
972.667	43.16
973.027	43.17
973.388	43.22
973.748	43.2
974.108	43.19
974.468	43.18
974.828	43.18
975.188	43.18
975.548	43.27
975.907	43.26
976.267	43.3
976.627	43.25
976.986	43.18
977.346	43.2
977.705	43.22
978.064	43.21
978.424	43.2
978.783	43.18
979.142	43.05
979.501	42.96
979.86	42.96
980.219	42.86
980.578	42.81
980.937	42.86
981.296	42.85
981.654	42.87
982.013	42.9
982.371	42.83
982.73	42.79
983.088	42.9
983.447	42.96
983.805	42.99
984.163	42.97
984.521	42.92
984.879	42.98
985.237	42.98
985.595	42.98
985.953	42.98
986.311	43
986.669	42.98
987.026	42.97
987.384	43
987.741	43.02
988.099	43.03
988.456	43.21
988.814	43.18
989.171	43.2
989.528	43.17
989.885	43.12
990.242	43.19
990.599	43.25
990.956	43.32
991.313	43.24
991.67	43.19
992.027	43.21
992.383	43.13
992.74	43.08
993.096	42.94
993.453	42.94
993.809	42.88
994.165	42.88
994.522	42.92
994.878	42.89
995.234	42.86
995.59	42.69
995.946	42.74
996.302	42.66
996.658	42.57
997.013	42.6
997.369	42.5
997.725	42.57
998.08	42.49
998.436	42.48
998.791	42.42
999.147	42.36
999.502	42.35
999.857	42.32
1000.212	42.35
1000.567	42.42
1000.922	42.44
1001.277	42.46
1001.632	42.47
1001.987	42.56
1002.342	42.48
1002.696	42.42
1003.051	42.35
1003.406	42.47
1003.76	42.43
1004.114	42.46
1004.469	42.28
1004.823	42.4
1005.177	42.54
1005.531	42.45
1005.885	42.45
1006.239	42.48
1006.593	42.49
1006.947	42.63
1007.301	42.72
1007.655	42.64
1008.008	42.4
1008.362	42.41
1008.715	42.27
1009.069	42.15
1009.422	42.08
1009.776	42.03
1010.129	41.94
1010.482	42.01
1010.835	42.05
1011.188	41.82
1011.541	41.76
1011.894	41.89
1012.247	41.84
1012.6	41.91
1012.952	41.84
1013.305	41.8
1013.657	41.6
1014.01	41.73
1014.362	41.66
1014.715	41.47
1015.067	41.72
1015.419	41.77
1015.771	41.78
1016.123	41.84
1016.475	41.63
1016.827	41.62
1017.179	41.72
1017.531	41.67
1017.883	41.78
1018.234	41.83
1018.586	41.7
1018.938	41.43
1019.289	41.27
1019.64	41.34
1019.992	41.52
1020.343	41.48
1020.694	41.46
1021.045	41.55
1021.396	41.79
1021.747	41.55
1022.098	41.57
1022.449	41.63
1022.8	41.66
1023.151	41.99
1023.501	41.82
1023.852	41.61
1024.202	41.71
1024.553	41.63
1024.903	41.56
1025.253	41.71
1025.604	41.59
1025.954	41.05
1026.304	41.82
1026.654	41.74
1027.004	41.58
1027.354	41.84
1027.703	41.97
1028.053	41.9
1028.403	41.75
1028.753	41.61
1029.102	41.33
1029.452	41.44
1029.801	41.82
1030.15	41.12
1030.499	41.26
897.758	577.25
901.051	576.61
904.343	583.24
907.636	572.76
910.928	563.95
914.22	575.01
917.511	560.83
920.803	533.32
924.094	512.61
927.384	512.89
930.675	497.87
933.965	492.51
937.255	499.57
940.544	476.21
943.834	454.23
947.123	446.64
950.411	423.55
953.7	417.48
956.988	407.18
960.276	383.95
963.563	382.43
966.851	361.65
970.138	354.63
973.424	327.87
976.711	326.26
979.997	316.85
983.283	308.38
986.568	296.95
989.853	288.73
993.138	277.33
996.423	278.07
999.708	267.79
1002.992	268.63
1006.275	261.85
1009.559	259.53
1012.842	250.33
1016.125	241.7
1019.408	237.94
1022.69	237.19
1025.972	233.9
1029.254	229.14
1032.536	224.49
1035.817	217.52
1039.098	213.07
1042.379	207.97
1045.659	205.16
1048.939	203.09
1052.219	199.93
1055.498	196.01
1058.778	191.38
1062.057	188.51
1065.335	187.81
1068.614	184.08
1071.892	181.6
1075.17	178.52
1078.447	175.89
1081.724	174.06
1085.001	170.27
1088.278	169.45
1091.554	169.27
1094.83	168.8
1098.106	165.63
1101.382	163.98
1104.657	163.56
1107.932	163.41
1111.206	161.91
1114.481	161.16
1117.755	160.27
1121.029	160.07
1124.302	158.16
1127.575	155.79
1130.848	154.98
1134.121	152.35
1137.393	152.42
1140.665	150.68
1143.937	148.35
1147.208	147.38
1150.48	145.24
1153.75	143.73
1157.021	142.68
1160.291	142.05
1163.561	140.66
1166.831	139.83
1170.101	140.44
1173.37	138.91
1176.639	137.86
1179.907	137.45
1183.176	137.3
1186.444	137.32
1189.711	137.08
1192.979	137.91
1196.246	138.55
1199.513	138.2
1202.78	138.3
1206.046	138.78
1209.312	139.41
1212.578	139.89
1215.843	142.62
1219.108	143.19
1222.373	145.95
1225.638	147.76
1228.902	151.21
1232.166	154.87
1235.43	158.26
1238.693	162.24
1241.956	166.11
1245.219	170.99
1248.482	172.34
1251.744	171.62
1255.006	171.79
1258.268	167.5
1261.529	166.76
1264.79	161.44
1268.051	159.04
1271.312	156.68
1274.572	153.63
1277.832	148.59
1281.092	146.91
1284.351	144.16
1287.61	143.96
1290.869	143.44
1294.128	142.93
1297.386	141.82
1300.644	141.53
1303.902	140.8
1307.159	139.52
1310.416	139.97
1313.673	142.63
1316.93	142.61
1320.186	145.34
1323.442	146.96
1326.697	149.58
1329.953	150.39
1333.208	155.45
1336.463	162.75
1339.717	165.52
1342.972	174.75
1346.226	179.6
1349.479	180.91
1352.733	189.83
1355.986	192.75
1359.238	196.32
1362.491	198.16
1365.743	206.47
1368.995	208.12
1372.247	205.41
1375.498	204.64
1378.749	210.03
1382	209.13
1385.251	208.28
1388.501	207.67
1391.751	209.85
1395	209.79
1398.25	211.44
1401.499	210.1
1404.748	208.8
1407.996	206.78
1411.244	206.14
1414.492	203.1
1417.74	198.01
1420.987	193.94
1424.234	189.24
1427.481	183.81
1430.728	178.71
1433.974	171.84
1437.22	165.85
1440.465	160.54
1443.711	154.96
1446.956	151
1450.201	144.57
1453.445	137.96
1456.689	134.03
1459.933	130.27
1463.177	124.11
1466.42	121.68
1469.663	118.05
1472.906	115
1476.148	111.28
1479.391	108.94
1482.633	106.98
1485.874	105.24
1489.115	104.47
1492.356	102.88
1495.597	101.48
1498.838	100.65
1502.078	99.3
1505.318	99.06
1508.557	98.23
1511.797	97.76
1515.036	97.25
1518.274	97.06
1521.513	96.23
1524.751	95.6
1527.989	96.04
1531.227	95.35
1534.464	95.35
1537.701	94.94
1540.938	94.46
1544.174	94.49
1547.41	94.24
1550.646	93.95
1553.882	93.3
1557.117	93.02
1560.352	92.82
1563.587	91.95
1566.821	91.91
1570.055	91.22
1573.289	91.39
1576.523	91.66
1579.756	91.48
1582.989	91.86
1586.222	91.64
1589.454	91.34
1592.686	91.1
1595.918	90.9
1599.15	90.69
1602.381	91.47
1605.612	91.89
1608.843	91.27
1612.073	91.62
1615.303	91.5
1618.533	91.09
1621.762	91.5
1624.992	91.72
1628.221	91.87
1631.449	92.12
1634.678	92.41
1637.906	91.81
1641.134	92.05
1644.361	92.26
1647.588	91.97
1650.815	92.44
1654.042	92.48
1657.269	92.59
1660.495	93.29
1663.72	92.84
1666.946	93.75
1670.171	94.14
1673.396	94.73
1676.621	94.33
1679.845	94.67
1683.069	95.22
1686.293	94.47
1689.517	94.81
1692.74	94.88
1695.963	94.96
1699.185	95.84
1702.408	95.18
1705.63	94.88
1708.852	95.32
1712.073	95.68
1715.294	95.54
1718.515	95.58
1721.736	96.16
1724.956	96.48
1728.176	96.29
1731.396	96.31
1734.616	96.61
1737.835	96.68
1741.054	97.07
1744.272	96.35
1747.491	96.53
1750.709	97.51
1753.927	97.64
1757.144	97.77
1760.361	97.7
1763.578	97.89
1766.795	98.46
1770.011	98.02
1773.227	98.55
1776.443	99.22
1779.658	99.58
1782.874	100.49
1786.089	100.25
1789.303	100.2
1792.518	101.65
1795.732	102.15
1798.945	103.26
1802.159	103.44
1805.372	104.99
1808.585	105.78
1811.797	106.52
1815.01	107.52
1818.222	107.99
1821.434	108.64
1824.645	109.45
1827.856	109.74
1831.067	110.28
1834.278	112.29
1837.488	113.06
1840.698	113.99
1843.908	114.19
1847.117	115.18
1850.326	115.61
1853.535	116.36
1856.744	117.59
1859.952	118.88
1863.16	119.36
1866.368	118.63
1869.575	118.31
1872.782	118.58
1875.989	117.5
1879.196	116.83
1882.402	116.07
1885.608	117.13
1888.814	116.6
1892.019	117.25
1895.224	115.25
1898.429	115.47
1901.634	116.83
1904.838	116.8
1908.042	116.79
1911.246	116.75
1914.449	118.14
1917.652	117.69
1920.855	117.97
1924.058	117.23
1927.26	116.49
1930.462	117.53
1933.664	117.1
1936.865	116.72
1940.066	114.65
1943.267	114.75
1946.467	116.97
1949.668	117.01
1952.868	116.76
1956.067	116.07
1959.267	117.49
1962.466	118.01
1965.665	119.98
1968.863	121.29
1972.061	122.51
1975.259	125.41
1978.457	125.94
1981.654	126.29
1984.852	127.24
1988.048	129.63
1991.245	131.14
1994.441	132.7
1997.637	135.02
2000.833	137.61
2004.028	138.24
2007.223	143.98
2010.418	146.89
2013.613	153.19
2016.807	156.87
2020.001	159.71
2023.194	164.91
2026.388	170.54
2029.581	179.31
2032.774	185.36
2035.966	189.72
2039.158	196.79
2042.35	197.81
2045.542	202.04
2048.733	208.33
2051.924	210.89
2055.115	214
2058.306	215.09
2061.496	219.7
2064.686	220.13
2067.875	219
2071.065	219.79
2074.254	221.52
2077.442	227.75
2080.631	229.18
2083.819	231.73
2087.007	235.76
2090.195	240.6
2093.382	240.21
2096.569	240.11
2099.756	245.79
2102.942	251.3
2106.128	257.79
2109.314	256.81
2112.5	257.09
2115.685	255.48
2118.87	255.66
2122.055	258.16
2125.239	263.1
2128.424	270.65
2131.608	266.81
2134.791	265.1
2137.974	267.54
2141.157	269.14
2144.34	273.24
2147.523	276.29
2150.705	285.02
2153.887	282.96
2157.068	285.02
2160.25	288.36
2163.431	287.05
2166.611	295.62
2169.792	299.11
2172.972	302.23
2176.152	305.08
2179.331	309.72
2182.511	310.93
2185.69	314.56
2188.868	326.03
2192.047	333.3
2195.225	337.34
2198.403	340.26
2201.58	336.8
2204.758	351.22
2207.935	351.91
2211.111	359.72
2214.288	361.55
2217.464	366.51
2220.64	367.71
2223.815	369.61
2226.991	362.62
2230.166	366.86
2233.34	378.61
2236.515	386.83
2239.689	378.38
2242.863	387.92
2246.036	381.29
2249.209	392.3
2252.382	390.87
2255.555	403.49
2258.727	404.23
2261.9	423.17
2265.071	424.74
2268.243	419.16
2271.414	438.16
2274.585	447.1
2277.756	447.62
2280.926	462.23
2284.096	464.21
2287.266	466.52
2290.436	460.7
2293.605	472.29
2296.774	485.96
2299.942	486.01
2303.111	506.23
2306.279	508.4
2309.447	512.65
2312.614	512.64
2315.781	528.94
2318.948	534.04
2322.115	546.65
2325.281	574.82
2328.447	565.35
2331.613	567.82
2334.779	580.65
2337.944	582.54
2341.109	594.61
2344.274	598.68
2347.438	616.43
2350.602	624.2
2353.766	656.75
2356.929	660.85
2360.092	665.33
2363.255	676.05
2366.418	681.36
2369.58	691.37
2372.742	698.29
2375.904	693.08
2379.066	714.29
2382.227	749.2
2385.388	750.28
2388.548	719.71
2391.709	709.42
2394.869	732.07
2398.029	737.81
2401.188	732.23
2404.347	757.79
2407.506	779.29
2410.665	755.21
2413.823	761.89
2416.981	763.59
2420.139	723.66
2423.296	784.03
2426.453	830.41
2429.61	798.73
2432.767	845.64
2435.923	886.91
2439.079	847.45
2442.235	866.92
2445.391	883.1
2448.546	871.22
2451.701	921.08
2454.855	987.16
2458.009	870.17
2461.163	889.17
2464.317	886.87
2467.471	870.03
2470.624	888.2
2473.777	887.48
2476.929	853.83
2480.082	912.43
2483.234	955.64
2486.385	972.66
2489.537	993.23
2492.688	1096.1
2495.839	1076.48
2498.989	1117.25
2502.14	1121.46
2505.29	1079.56
2508.439	1176.94
2511.589	1219.1
2514.738	1186.8
2517.887	1175.73
2521.035	1090.62
2524.183	1075.17
2527.331	1064.36
2530.479	1042.49
2533.627	1061.59
