Data from N_2_div_pa_2n_085_Splice17_07.txt Node
Date: Sat Feb 29 14:14:09 EST 2020
User: sa697716
Spectrometer: FLMS03696
Trigger mode: 0
Integration Time (sec): 3.180400E-1
Scans to average: 20
Electric dark correction enabled: true
Nonlinearity correction enabled: true
Boxcar width: 5
XAxis mode: Wavelengths
Number of Pixels in Spectrum: 2048
>>>>>Begin Spectral Data<<<<<
187.83	31.11
188.298	27.31
188.766	38.34
189.233	28.57
189.701	30.15
190.169	46.53
190.636	39.48
191.104	3.03
191.571	-156.13
192.039	32.11
192.506	-54.1
192.974	1649.82
193.441	327.55
193.908	49.3
194.375	11.54
194.842	6.17
195.31	66.09
195.777	90.02
196.244	48.26
196.711	37.37
197.177	33.52
197.644	33.84
198.111	32.33
198.578	34.28
199.045	34.77
199.511	34.8
199.978	35.02
200.445	34.94
200.911	34.91
201.378	34.8
201.844	35.21
202.31	36.23
202.777	36.55
203.243	37.33
203.709	36.97
204.176	36.24
204.642	36.29
205.108	36.03
205.574	36.38
206.04	36.18
206.506	35.87
206.972	35.81
207.438	35.22
207.903	34.92
208.369	34.07
208.835	33.89
209.301	33.72
209.766	32.79
210.232	32.32
210.697	31.63
211.163	31.02
211.628	30.44
212.094	29.95
212.559	29.29
213.024	28.53
213.49	28.23
213.955	27.51
214.42	27.09
214.885	26.67
215.35	25.85
215.815	24.48
216.28	23.14
216.745	21.8
217.21	20.19
217.675	18.85
218.14	17.59
218.604	16.28
219.069	15.33
219.534	14.41
219.998	13.58
220.463	12.99
220.927	12.52
221.392	12.08
221.856	11.66
222.32	11.34
222.785	11.01
223.249	10.76
223.713	10.59
224.177	10.36
224.642	10.19
225.106	10.06
225.57	9.85
226.034	9.69
226.497	9.53
226.961	9.37
227.425	9.21
227.889	9.1
228.353	8.98
228.816	8.85
229.28	8.71
229.744	8.61
230.207	8.49
230.671	8.41
231.134	8.29
231.597	8.19
232.061	8.13
232.524	8.04
232.987	7.95
233.45	7.83
233.914	7.74
234.377	7.69
234.84	7.6
235.303	7.54
235.766	7.46
236.229	7.41
236.691	7.36
237.154	7.31
237.617	7.25
238.08	7.2
238.542	7.16
239.005	7.11
239.468	7.03
239.93	6.97
240.393	6.91
240.855	6.84
241.317	6.8
241.78	6.74
242.242	6.67
242.704	6.61
243.166	6.56
243.629	6.5
244.091	6.45
244.553	6.41
245.015	6.37
245.477	6.32
245.939	6.29
246.4	6.23
246.862	6.19
247.324	6.16
247.786	6.12
248.247	6.08
248.709	6.05
249.17	6.01
249.632	5.97
250.093	5.91
250.555	5.87
251.016	5.84
251.477	5.8
251.939	5.76
252.4	5.72
252.861	5.68
253.322	5.64
253.783	5.61
254.244	5.57
254.705	5.54
255.166	5.54
255.627	5.5
256.088	5.47
256.549	5.45
257.009	5.41
257.47	5.39
257.931	5.35
258.391	5.32
258.852	5.29
259.312	5.26
259.773	5.22
260.233	5.18
260.694	5.14
261.154	5.12
261.614	5.08
262.074	5.06
262.534	5.02
262.994	5
263.455	4.98
263.915	4.94
264.374	4.91
264.834	4.89
265.294	4.86
265.754	4.84
266.214	4.81
266.673	4.78
267.133	4.76
267.593	4.75
268.052	4.72
268.512	4.69
268.971	4.67
269.431	4.66
269.89	4.64
270.349	4.61
270.809	4.6
271.268	4.59
271.727	4.58
272.186	4.56
272.645	4.53
273.104	4.52
273.563	4.51
274.022	4.5
274.481	4.48
274.94	4.46
275.399	4.45
275.857	4.44
276.316	4.41
276.775	4.39
277.233	4.39
277.692	4.37
278.15	4.35
278.609	4.33
279.067	4.31
279.525	4.3
279.984	4.29
280.442	4.28
280.9	4.27
281.358	4.27
281.816	4.26
282.274	4.24
282.732	4.24
283.19	4.24
283.648	4.23
284.106	4.22
284.564	4.21
285.021	4.21
285.479	4.2
285.937	4.19
286.394	4.19
286.852	4.18
287.309	4.17
287.767	4.16
288.224	4.16
288.682	4.15
289.139	4.14
289.596	4.13
290.053	4.11
290.511	4.1
290.968	4.09
291.425	4.08
291.882	4.07
292.339	4.06
292.796	4.04
293.252	4.03
293.709	4.01
294.166	4
294.623	3.99
295.079	3.98
295.536	3.98
295.992	3.97
296.449	3.95
296.905	3.94
297.362	3.92
297.818	3.91
298.274	3.91
298.731	3.9
299.187	3.9
299.643	3.89
300.099	3.89
300.555	3.87
301.011	3.87
301.467	3.87
301.923	3.87
302.379	3.87
302.835	3.88
303.291	3.87
303.746	3.87
304.202	3.86
304.658	3.85
305.113	3.84
305.569	3.84
306.024	3.83
306.479	3.83
306.935	3.82
307.39	3.82
307.845	3.81
308.301	3.81
308.756	3.81
309.211	3.81
309.666	3.81
310.121	3.81
310.576	3.8
311.031	3.8
311.486	3.8
311.94	3.8
312.395	3.81
312.85	3.8
313.305	3.8
313.759	3.8
314.214	3.79
314.668	3.78
315.123	3.79
315.577	3.79
316.032	3.79
316.486	3.79
316.94	3.79
317.394	3.79
317.849	3.78
318.303	3.78
318.757	3.77
319.211	3.76
319.665	3.76
320.119	3.75
320.572	3.75
321.026	3.74
321.48	3.73
321.934	3.73
322.387	3.71
322.841	3.7
323.295	3.69
323.748	3.69
324.202	3.69
324.655	3.69
325.108	3.68
325.562	3.67
326.015	3.66
326.468	3.65
326.921	3.64
327.374	3.64
327.827	3.64
328.28	3.64
328.733	3.63
329.186	3.63
329.639	3.63
330.092	3.62
330.545	3.63
330.997	3.63
331.45	3.63
331.903	3.63
332.355	3.63
332.808	3.64
333.26	3.64
333.713	3.64
334.165	3.64
334.617	3.65
335.069	3.66
335.522	3.66
335.974	3.67
336.426	3.68
336.878	3.67
337.33	3.67
337.782	3.67
338.234	3.67
338.686	3.66
339.137	3.66
339.589	3.64
340.041	3.64
340.493	3.61
340.944	3.6
341.396	3.6
341.847	3.59
342.299	3.59
342.75	3.57
343.201	3.56
343.653	3.56
344.104	3.55
344.555	3.55
345.006	3.53
345.457	3.53
345.908	3.52
346.359	3.52
346.81	3.52
347.261	3.51
347.712	3.5
348.163	3.49
348.613	3.48
349.064	3.46
349.515	3.46
349.965	3.45
350.416	3.45
350.866	3.45
351.317	3.44
351.767	3.44
352.217	3.43
352.668	3.43
353.118	3.44
353.568	3.46
354.018	3.48
354.468	3.48
354.918	3.49
355.368	3.49
355.818	3.5
356.268	3.5
356.718	3.5
357.168	3.51
357.617	3.51
358.067	3.5
358.517	3.49
358.966	3.49
359.416	3.5
359.865	3.5
360.315	3.5
360.764	3.5
361.213	3.5
361.663	3.5
362.112	3.5
362.561	3.51
363.01	3.52
363.459	3.53
363.908	3.52
364.357	3.53
364.806	3.53
365.255	3.55
365.703	3.55
366.152	3.56
366.601	3.57
367.05	3.58
367.498	3.58
367.947	3.58
368.395	3.6
368.844	3.6
369.292	3.6
369.74	3.61
370.189	3.62
370.637	3.63
371.085	3.64
371.533	3.64
371.981	3.65
372.429	3.67
372.877	3.68
373.325	3.69
373.773	3.71
374.221	3.74
374.669	3.75
375.116	3.76
375.564	3.78
376.012	3.81
376.459	3.83
376.907	3.85
377.354	3.87
377.801	3.89
378.249	3.92
378.696	3.94
379.143	3.96
379.591	3.98
380.038	4.01
380.485	4.02
380.932	4.04
381.379	4.07
381.826	4.08
382.273	4.09
382.72	4.11
383.166	4.12
383.613	4.15
384.06	4.17
384.506	4.2
384.953	4.21
385.4	4.24
385.846	4.25
386.292	4.28
386.739	4.31
387.185	4.35
387.631	4.39
388.078	4.42
388.524	4.44
388.97	4.47
389.416	4.49
389.862	4.51
390.308	4.55
390.754	4.59
391.2	4.62
391.645	4.66
392.091	4.69
392.537	4.73
392.983	4.77
393.428	4.8
393.874	4.83
394.319	4.87
394.765	4.91
395.21	4.93
395.655	4.96
396.101	4.99
396.546	5.01
396.991	5.03
397.436	5.05
397.881	5.08
398.326	5.12
398.771	5.16
399.216	5.21
399.661	5.26
400.106	5.31
400.551	5.35
400.995	5.37
401.44	5.41
401.885	5.45
402.329	5.48
402.774	5.49
403.218	5.53
403.663	5.55
404.107	5.59
404.551	5.62
404.995	5.64
405.44	5.66
405.884	5.7
406.328	5.72
406.772	5.76
407.216	5.8
407.66	5.84
408.104	5.87
408.547	5.9
408.991	5.9
409.435	5.92
409.879	5.94
410.322	5.99
410.766	6.01
411.209	6.05
411.653	6.06
412.096	6.07
412.54	6.09
412.983	6.11
413.426	6.14
413.869	6.16
414.312	6.21
414.756	6.24
415.199	6.26
415.642	6.31
416.085	6.34
416.527	6.39
416.97	6.43
417.413	6.45
417.856	6.47
418.298	6.47
418.741	6.49
419.184	6.49
419.626	6.5
420.069	6.52
420.511	6.5
420.953	6.5
421.396	6.5
421.838	6.52
422.28	6.54
422.722	6.56
423.164	6.58
423.606	6.6
424.048	6.61
424.49	6.63
424.932	6.62
425.374	6.65
425.816	6.65
426.258	6.63
426.699	6.61
427.141	6.59
427.582	6.58
428.024	6.6
428.465	6.6
428.907	6.61
429.348	6.62
429.789	6.62
430.231	6.62
430.672	6.64
431.113	6.68
431.554	6.7
431.995	6.73
432.436	6.74
432.877	6.72
433.318	6.71
433.759	6.71
434.2	6.72
434.64	6.73
435.081	6.73
435.522	6.75
435.962	6.77
436.403	6.79
436.843	6.81
437.284	6.84
437.724	6.88
438.164	6.92
438.604	6.95
439.045	6.94
439.485	6.97
439.925	6.98
440.365	6.96
440.805	6.95
441.245	6.92
441.685	6.93
442.125	6.91
442.564	6.92
443.004	6.91
443.444	6.91
443.883	6.91
444.323	6.89
444.762	6.93
445.202	6.98
445.641	6.99
446.081	7.03
446.52	7.02
446.959	7.03
447.398	7.06
447.837	7.09
448.276	7.09
448.716	7.12
449.154	7.16
449.593	7.18
450.032	7.18
450.471	7.2
450.91	7.19
451.349	7.21
451.787	7.22
452.226	7.2
452.664	7.18
453.103	7.18
453.541	7.18
453.98	7.16
454.418	7.13
454.856	7.09
455.295	7.07
455.733	7.07
456.171	7.04
456.609	7.04
457.047	7.02
457.485	7.02
457.923	7.01
458.361	6.99
458.798	7
459.236	7
459.674	7.01
460.111	7.02
460.549	7
460.987	7.01
461.424	7
461.862	7
462.299	7
462.736	6.99
463.173	6.99
463.611	6.98
464.048	6.98
464.485	6.98
464.922	6.97
465.359	7
465.796	6.98
466.233	6.99
466.67	7
467.106	6.99
467.543	7
467.98	7.03
468.416	7.04
468.853	7.03
469.29	7.04
469.726	7.04
470.162	7.03
470.599	7.07
471.035	7.06
471.471	7.06
471.907	7.08
472.344	7.08
472.78	7.07
473.216	7.06
473.652	7.05
474.088	7.06
474.523	7.06
474.959	7.06
475.395	7.04
475.831	7.05
476.266	7.05
476.702	7.04
477.138	7.02
477.573	7
478.008	6.98
478.444	6.98
478.879	6.96
479.314	6.94
479.75	6.93
480.185	6.92
480.62	6.89
481.055	6.89
481.49	6.86
481.925	6.85
482.36	6.84
482.795	6.81
483.229	6.79
483.664	6.78
484.099	6.77
484.534	6.76
484.968	6.75
485.403	6.74
485.837	6.73
486.271	6.72
486.706	6.71
487.14	6.72
487.574	6.72
488.009	6.74
488.443	6.73
488.877	6.73
489.311	6.73
489.745	6.74
490.179	6.75
490.613	6.73
491.046	6.75
491.48	6.75
491.914	6.76
492.348	6.77
492.781	6.76
493.215	6.77
493.648	6.78
494.082	6.79
494.515	6.79
494.948	6.81
495.382	6.83
495.815	6.84
496.248	6.86
496.681	6.86
497.114	6.87
497.547	6.88
497.98	6.89
498.413	6.91
498.846	6.92
499.279	6.94
499.711	6.95
500.144	6.96
500.577	6.98
501.009	6.98
501.442	7
501.874	7.02
502.306	7.05
502.739	7.05
503.171	7.07
503.603	7.1
504.036	7.14
504.468	7.17
504.9	7.2
505.332	7.25
505.764	7.3
506.196	7.34
506.627	7.38
507.059	7.42
507.491	7.48
507.923	7.53
508.354	7.58
508.786	7.62
509.217	7.66
509.649	7.71
510.08	7.76
510.512	7.81
510.943	7.87
511.374	7.93
511.805	7.99
512.237	8.06
512.668	8.12
513.099	8.18
513.53	8.27
513.961	8.37
514.391	8.45
514.822	8.51
515.253	8.6
515.684	8.67
516.114	8.77
516.545	8.87
516.975	8.97
517.406	9.07
517.836	9.17
518.267	9.28
518.697	9.39
519.127	9.51
519.558	9.63
519.988	9.74
520.418	9.86
520.848	9.98
521.278	10.09
521.708	10.16
522.138	10.28
522.567	10.38
522.997	10.48
523.427	10.58
523.857	10.68
524.286	10.79
524.716	10.91
525.145	11.01
525.575	11.11
526.004	11.21
526.433	11.36
526.863	11.47
527.292	11.59
527.721	11.69
528.15	11.77
528.579	11.87
529.008	11.95
529.437	12.03
529.866	12.11
530.295	12.2
530.724	12.28
531.152	12.36
531.581	12.42
532.01	12.49
532.438	12.56
532.867	12.62
533.295	12.68
533.723	12.74
534.152	12.79
534.58	12.84
535.008	12.87
535.436	12.9
535.865	12.93
536.293	12.95
536.721	12.97
537.149	13
537.576	13.05
538.004	13.08
538.432	13.11
538.86	13.14
539.287	13.16
539.715	13.18
540.143	13.21
540.57	13.22
540.998	13.27
541.425	13.29
541.852	13.31
542.28	13.31
542.707	13.33
543.134	13.35
543.561	13.35
543.988	13.38
544.415	13.41
544.842	13.45
545.269	13.49
545.696	13.49
546.123	13.52
546.549	13.53
546.976	13.56
547.403	13.57
547.829	13.58
548.256	13.61
548.682	13.61
549.108	13.62
549.535	13.61
549.961	13.59
550.387	13.59
550.813	13.59
551.24	13.6
551.666	13.59
552.092	13.6
552.518	13.6
552.943	13.58
553.369	13.56
553.795	13.55
554.221	13.54
554.646	13.53
555.072	13.5
555.498	13.48
555.923	13.45
556.349	13.4
556.774	13.36
557.199	13.34
557.625	13.3
558.05	13.26
558.475	13.21
558.9	13.17
559.325	13.11
559.75	13.05
560.175	12.99
560.6	12.94
561.025	12.9
561.449	12.82
561.874	12.74
562.299	12.67
562.723	12.61
563.148	12.52
563.572	12.45
563.997	12.38
564.421	12.3
564.846	12.21
565.27	12.11
565.694	12.01
566.118	11.93
566.542	11.85
566.966	11.76
567.39	11.66
567.814	11.57
568.238	11.47
568.662	11.39
569.086	11.31
569.509	11.23
569.933	11.13
570.357	11.05
570.78	10.96
571.204	10.87
571.627	10.79
572.05	10.73
572.474	10.66
572.897	10.59
573.32	10.51
573.743	10.43
574.166	10.37
574.589	10.32
575.012	10.28
575.435	10.22
575.858	10.17
576.281	10.12
576.704	10.07
577.126	10.02
577.549	9.98
577.972	9.95
578.394	9.91
578.817	9.85
579.239	9.81
579.661	9.75
580.084	9.72
580.506	9.69
580.928	9.65
581.35	9.61
581.772	9.59
582.194	9.57
582.616	9.53
583.038	9.5
583.46	9.5
583.882	9.48
584.303	9.47
584.725	9.45
585.147	9.39
585.568	9.37
585.99	9.35
586.411	9.32
586.833	9.29
587.254	9.27
587.675	9.25
588.096	9.23
588.518	9.21
588.939	9.18
589.36	9.17
589.781	9.17
590.202	9.16
590.623	9.13
591.043	9.11
591.464	9.09
591.885	9.08
592.305	9.08
592.726	9.05
593.147	9.03
593.567	9.02
593.987	9
594.408	8.99
594.828	8.98
595.248	8.98
595.669	8.98
596.089	8.96
596.509	8.93
596.929	8.91
597.349	8.89
597.769	8.86
598.189	8.84
598.608	8.81
599.028	8.8
599.448	8.79
599.867	8.76
600.287	8.72
600.706	8.7
601.126	8.68
601.545	8.65
601.965	8.63
602.384	8.61
602.803	8.59
603.222	8.57
603.641	8.53
604.061	8.5
604.48	8.48
604.898	8.47
605.317	8.46
605.736	8.44
606.155	8.41
606.574	8.39
606.992	8.35
607.411	8.33
607.829	8.26
608.248	8.24
608.666	8.2
609.085	8.18
609.503	8.14
609.921	8.11
610.339	8.08
610.758	8.05
611.176	8.03
611.594	8
612.012	7.96
612.43	7.97
612.847	7.96
613.265	7.94
613.683	7.91
614.101	7.87
614.518	7.85
614.936	7.82
615.353	7.8
615.771	7.77
616.188	7.76
616.606	7.75
617.023	7.74
617.44	7.72
617.857	7.7
618.274	7.68
618.691	7.67
619.108	7.65
619.525	7.64
619.942	7.63
620.359	7.63
620.776	7.61
621.192	7.6
621.609	7.58
622.026	7.56
622.442	7.54
622.859	7.55
623.275	7.56
623.691	7.55
624.108	7.55
624.524	7.54
624.94	7.52
625.356	7.52
625.772	7.51
626.188	7.53
626.604	7.52
627.02	7.52
627.436	7.5
627.852	7.48
628.268	7.47
628.683	7.46
629.099	7.46
629.514	7.46
629.93	7.45
630.345	7.44
630.761	7.43
631.176	7.42
631.591	7.41
632.007	7.41
632.422	7.42
632.837	7.42
633.252	7.4
633.667	7.38
634.082	7.37
634.497	7.35
634.911	7.32
635.326	7.31
635.741	7.29
636.155	7.28
636.57	7.27
636.984	7.22
637.399	7.19
637.813	7.18
638.228	7.17
638.642	7.15
639.056	7.13
639.47	7.13
639.884	7.09
640.298	7.07
640.712	7.04
641.126	7
641.54	7
641.954	7
642.368	6.95
642.781	6.93
643.195	6.9
643.609	6.89
644.022	6.85
644.436	6.83
644.849	6.82
645.262	6.8
645.676	6.78
646.089	6.76
646.502	6.73
646.915	6.72
647.328	6.71
647.741	6.69
648.154	6.68
648.567	6.69
648.98	6.7
649.393	6.69
649.805	6.69
650.218	6.69
650.631	6.68
651.043	6.68
651.456	6.68
651.868	6.67
652.28	6.67
652.693	6.64
653.105	6.63
653.517	6.61
653.929	6.6
654.341	6.59
654.753	6.56
655.165	6.55
655.577	6.53
655.989	6.5
656.401	6.49
656.813	6.47
657.224	6.47
657.636	6.47
658.047	6.45
658.459	6.41
658.87	6.41
659.282	6.41
659.693	6.39
660.104	6.37
660.515	6.36
660.926	6.36
661.338	6.34
661.749	6.31
662.159	6.29
662.57	6.27
662.981	6.26
663.392	6.24
663.803	6.23
664.213	6.23
664.624	6.24
665.035	6.22
665.445	6.2
665.855	6.2
666.266	6.2
666.676	6.19
667.086	6.19
667.497	6.18
667.907	6.16
668.317	6.15
668.727	6.15
669.137	6.14
669.547	6.17
669.956	6.17
670.366	6.18
670.776	6.2
671.186	6.21
671.595	6.23
672.005	6.24
672.414	6.26
672.824	6.28
673.233	6.3
673.642	6.3
674.052	6.31
674.461	6.32
674.87	6.34
675.279	6.35
675.688	6.37
676.097	6.38
676.506	6.41
676.915	6.43
677.323	6.45
677.732	6.48
678.141	6.52
678.549	6.55
678.958	6.59
679.366	6.62
679.775	6.66
680.183	6.68
680.592	6.72
681	6.73
681.408	6.76
681.816	6.8
682.224	6.83
682.632	6.86
683.04	6.88
683.448	6.93
683.856	6.95
684.264	6.99
684.671	7.03
685.079	7.07
685.487	7.14
685.894	7.19
686.302	7.23
686.709	7.27
687.116	7.33
687.524	7.4
687.931	7.46
688.338	7.56
688.745	7.65
689.152	7.74
689.559	7.85
689.966	7.97
690.373	8.1
690.78	8.25
691.187	8.42
691.593	8.57
692	8.75
692.407	8.93
692.813	9.14
693.22	9.36
693.626	9.6
694.032	9.85
694.439	10.12
694.845	10.39
695.251	10.69
695.657	10.99
696.063	11.33
696.469	11.67
696.875	12
697.281	12.32
697.687	12.7
698.093	13.06
698.498	13.44
698.904	13.84
699.31	14.23
699.715	14.62
700.12	15.02
700.526	15.43
700.931	15.84
701.337	16.29
701.742	16.71
702.147	17.15
702.552	17.59
702.957	18.02
703.362	18.47
703.767	18.92
704.172	19.38
704.577	19.82
704.981	20.28
705.386	20.75
705.791	21.23
706.195	21.7
706.6	22.16
707.004	22.62
707.408	23.09
707.813	23.52
708.217	23.97
708.621	24.44
709.025	24.93
709.43	25.37
709.834	25.83
710.237	26.27
710.641	26.75
711.045	27.19
711.449	27.66
711.853	28.11
712.256	28.59
712.66	29.08
713.064	29.55
713.467	29.98
713.87	30.46
714.274	30.92
714.677	31.37
715.08	31.81
715.484	32.28
715.887	32.74
716.29	33.19
716.693	33.63
717.096	34.05
717.499	34.49
717.901	34.95
718.304	35.38
718.707	35.8
719.109	36.25
719.512	36.68
719.915	37.11
720.317	37.51
720.719	37.93
721.122	38.33
721.524	38.76
721.926	39.13
722.328	39.52
722.731	39.92
723.133	40.3
723.535	40.67
723.937	41.03
724.338	41.35
724.74	41.69
725.142	41.94
725.544	42.25
725.945	42.54
726.347	42.85
726.748	43.14
727.15	43.41
727.551	43.72
727.952	44
728.354	44.3
728.755	44.61
729.156	44.9
729.557	45.27
729.958	45.56
730.359	45.81
730.76	46.04
731.161	46.3
731.562	46.54
731.962	46.75
732.363	46.95
732.763	47.13
733.164	47.32
733.564	47.49
733.965	47.64
734.365	47.8
734.766	47.98
735.166	48.13
735.566	48.25
735.966	48.38
736.366	48.53
736.766	48.7
737.166	48.82
737.566	48.94
737.966	49.11
738.365	49.28
738.765	49.43
739.165	49.55
739.564	49.7
739.964	49.83
740.363	49.95
740.763	50.04
741.162	50.12
741.561	50.26
741.96	50.38
742.36	50.46
742.759	50.49
743.158	50.56
743.557	50.65
743.955	50.76
744.354	50.89
744.753	50.99
745.152	51.07
745.55	51.18
745.949	51.25
746.348	51.34
746.746	51.4
747.144	51.5
747.543	51.6
747.941	51.68
748.339	51.76
748.737	51.85
749.136	51.91
749.534	52.01
749.932	52.05
750.33	52.08
750.727	52.13
751.125	52.19
751.523	52.22
751.921	52.24
752.318	52.26
752.716	52.26
753.113	52.24
753.511	52.24
753.908	52.22
754.305	52.2
754.703	52.2
755.1	52.19
755.497	52.16
755.894	52.14
756.291	52.12
756.688	52.11
757.085	52.11
757.482	52.07
757.878	52.08
758.275	52.08
758.672	52.1
759.068	52.12
759.465	52.11
759.861	52.18
760.258	52.17
760.654	52.18
761.05	52.2
761.447	52.16
761.843	52.16
762.239	52.16
762.635	52.16
763.031	52.19
763.427	52.14
763.822	52.14
764.218	52.1
764.614	52.13
765.01	52.14
765.405	52.1
765.801	52.13
766.196	52.18
766.592	52.18
766.987	52.21
767.382	52.2
767.778	52.25
768.173	52.3
768.568	52.29
768.963	52.29
769.358	52.31
769.753	52.33
770.148	52.36
770.542	52.35
770.937	52.35
771.332	52.33
771.726	52.32
772.121	52.3
772.515	52.29
772.91	52.3
773.304	52.32
773.699	52.35
774.093	52.34
774.487	52.33
774.881	52.32
775.275	52.35
775.669	52.37
776.063	52.38
776.457	52.37
776.851	52.35
777.245	52.35
777.638	52.33
778.032	52.3
778.425	52.3
778.819	52.3
779.212	52.28
779.606	52.25
779.999	52.25
780.392	52.26
780.786	52.29
781.179	52.28
781.572	52.29
781.965	52.3
782.358	52.28
782.751	52.31
783.143	52.34
783.536	52.39
783.929	52.41
784.322	52.45
784.714	52.43
785.107	52.44
785.499	52.47
785.891	52.49
786.284	52.45
786.676	52.48
787.068	52.43
787.46	52.4
787.852	52.35
788.245	52.33
788.636	52.3
789.028	52.29
789.42	52.27
789.812	52.29
790.204	52.26
790.595	52.31
790.987	52.34
791.378	52.4
791.77	52.42
792.161	52.46
792.553	52.5
792.944	52.54
793.335	52.59
793.726	52.57
794.117	52.55
794.508	52.58
794.899	52.56
795.29	52.55
795.681	52.55
796.072	52.55
796.463	52.5
796.853	52.49
797.244	52.43
797.634	52.4
798.025	52.45
798.415	52.43
798.806	52.47
799.196	52.52
799.586	52.51
799.976	52.49
800.366	52.5
800.756	52.52
801.146	52.52
801.536	52.54
801.926	52.6
802.316	52.58
802.706	52.59
803.095	52.57
803.485	52.56
803.874	52.57
804.264	52.63
804.653	52.63
805.043	52.66
805.432	52.63
805.821	52.64
806.21	52.63
806.599	52.64
806.988	52.69
807.377	52.7
807.766	52.7
808.155	52.74
808.544	52.68
808.933	52.68
809.321	52.71
809.71	52.78
810.098	52.78
810.487	52.79
810.875	52.82
811.264	52.82
811.652	52.84
812.04	52.83
812.428	52.83
812.816	52.89
813.204	52.92
813.592	52.89
813.98	52.89
814.368	52.88
814.756	52.87
815.144	52.88
815.531	52.85
815.919	52.83
816.306	52.82
816.694	52.83
817.081	52.8
817.469	52.78
817.856	52.84
818.243	52.83
818.63	52.87
819.017	52.9
819.404	52.88
819.791	52.88
820.178	52.92
820.565	52.95
820.952	52.97
821.339	53.01
821.725	53.06
822.112	53.04
822.498	53.09
822.885	53.09
823.271	53.12
823.657	53.14
824.044	53.14
824.43	53.15
824.816	53.16
825.202	53.1
825.588	53.13
825.974	53.11
826.36	53.13
826.746	53.14
827.132	53.12
827.517	53.09
827.903	53.13
828.289	53.14
828.674	53.1
829.06	53.11
829.445	53.15
829.83	53.12
830.216	53.11
830.601	53.09
830.986	53.08
831.371	53.1
831.756	53.08
832.141	53.05
832.526	53.06
832.911	53.12
833.295	53.11
833.68	53.07
834.065	53.09
834.449	53.08
834.834	53.04
835.218	53.03
835.603	53.03
835.987	53.03
836.371	53.02
836.755	53.01
837.139	52.98
837.524	52.97
837.908	52.96
838.291	52.92
838.675	52.91
839.059	52.93
839.443	52.94
839.827	52.93
840.21	52.94
840.594	52.95
840.977	52.93
841.361	52.91
841.744	52.91
842.127	52.92
842.511	52.93
842.894	52.93
843.277	52.93
843.66	52.91
844.043	52.92
844.426	52.92
844.809	52.89
845.191	52.89
845.574	52.88
845.957	52.87
846.339	52.87
846.722	52.9
847.104	52.9
847.487	52.9
847.869	52.88
848.252	52.85
848.634	52.86
849.016	52.86
849.398	52.87
849.78	52.88
850.162	52.88
850.544	52.88
850.926	52.85
851.307	52.86
851.689	52.84
852.071	52.85
852.452	52.86
852.834	52.83
853.215	52.84
853.597	52.87
853.978	52.84
854.359	52.84
854.741	52.84
855.122	52.86
855.503	52.85
855.884	52.85
856.265	52.86
856.646	52.84
857.026	52.83
857.407	52.8
857.788	52.79
858.169	52.81
858.549	52.82
858.93	52.81
859.31	52.81
859.69	52.78
860.071	52.79
860.451	52.77
860.831	52.79
861.211	52.78
861.591	52.81
861.971	52.78
862.351	52.79
862.731	52.8
863.111	52.79
863.491	52.8
863.87	52.83
864.25	52.84
864.629	52.83
865.009	52.82
865.388	52.83
865.768	52.82
866.147	52.84
866.526	52.83
866.905	52.83
867.284	52.87
867.663	52.85
868.042	52.83
868.421	52.83
868.8	52.85
869.179	52.84
869.558	52.85
869.936	52.83
870.315	52.81
870.693	52.8
871.072	52.77
871.45	52.75
871.828	52.75
872.207	52.78
872.585	52.76
872.963	52.77
873.341	52.78
873.719	52.78
874.097	52.8
874.475	52.8
874.853	52.79
875.23	52.81
875.608	52.79
875.986	52.78
876.363	52.75
876.741	52.77
877.118	52.74
877.495	52.74
877.873	52.75
878.25	52.73
878.627	52.75
879.004	52.76
879.381	52.77
879.758	52.76
880.135	52.8
880.512	52.8
880.889	52.81
881.265	52.83
881.642	52.82
882.019	52.81
882.395	52.83
882.772	52.82
883.148	52.83
883.524	52.86
883.901	52.87
884.277	52.85
884.653	52.89
885.029	52.88
885.405	52.88
885.781	52.88
886.157	52.89
886.532	52.91
886.908	52.91
887.284	52.92
887.659	52.91
888.035	52.92
888.411	52.87
888.786	52.83
889.161	52.81
889.537	52.82
889.912	52.81
890.287	52.76
890.662	52.72
891.037	52.69
891.412	52.65
891.787	52.6
892.162	52.55
892.536	52.55
892.911	52.52
893.286	52.5
893.66	52.46
894.035	52.43
894.409	52.44
894.784	52.42
895.158	52.42
895.532	52.39
895.906	52.39
896.281	52.39
896.655	52.4
897.029	52.38
897.402	52.38
897.776	52.36
898.15	52.37
898.524	52.36
898.898	52.35
899.271	52.34
899.645	52.34
900.018	52.33
900.392	52.33
900.765	52.31
901.138	52.34
901.511	52.36
901.884	52.36
902.258	52.34
902.631	52.35
903.003	52.35
903.376	52.35
903.749	52.36
904.122	52.36
904.495	52.37
904.867	52.34
905.24	52.32
905.612	52.31
905.985	52.3
906.357	52.27
906.729	52.25
907.102	52.25
907.474	52.28
907.846	52.26
908.218	52.23
908.59	52.19
908.962	52.2
909.334	52.2
909.705	52.19
910.077	52.17
910.449	52.2
910.82	52.2
911.192	52.18
911.563	52.17
911.935	52.12
912.306	52.14
912.677	52.15
913.048	52.15
913.419	52.12
913.79	52.1
914.161	52.1
914.532	52.09
914.903	52.07
915.274	52.07
915.645	52.08
916.015	52.09
916.386	52.09
916.756	52.06
917.127	52.05
917.497	52.05
917.868	52.03
918.238	52.05
918.608	52.03
918.978	52.04
919.348	52.04
919.718	52.04
920.088	52.06
920.458	52.08
920.828	52.1
921.198	52.1
921.567	52.12
921.937	52.13
922.306	52.1
922.676	52.15
923.045	52.12
923.415	52.11
923.784	52.09
924.153	52.09
924.522	52.06
924.891	52.03
925.26	52.01
925.629	51.95
925.998	51.91
926.367	51.91
926.736	51.86
927.104	51.88
927.473	51.88
927.842	51.83
928.21	51.83
928.578	51.81
928.947	51.81
929.315	51.83
929.683	51.88
930.051	51.86
930.42	51.82
930.788	51.81
931.156	51.75
931.523	51.68
931.891	51.63
932.259	51.54
932.627	51.46
932.994	51.4
933.362	51.3
933.729	51.17
934.097	51.13
934.464	51.09
934.831	51
935.199	50.95
935.566	50.89
935.933	50.89
936.3	50.8
936.667	50.76
937.034	50.65
937.401	50.65
937.767	50.63
938.134	50.6
938.501	50.57
938.867	50.57
939.234	50.54
939.6	50.55
939.967	50.56
940.333	50.69
940.699	50.81
941.065	51.02
941.431	51.05
941.798	51.2
942.163	51.32
942.529	51.38
942.895	51.48
943.261	51.65
943.627	51.73
943.992	51.83
944.358	51.84
944.723	51.93
945.089	51.86
945.454	51.94
945.82	51.87
946.185	51.9
946.55	52.06
946.915	52.06
947.28	52.02
947.645	52.04
948.01	52.02
948.375	51.97
948.74	51.9
949.104	51.91
949.469	51.79
949.834	51.74
950.198	51.69
950.562	51.57
950.927	51.61
951.291	51.63
951.655	51.6
952.02	51.53
952.384	51.6
952.748	51.58
953.112	51.58
953.476	51.59
953.839	51.63
954.203	51.57
954.567	51.49
954.931	51.4
955.294	51.34
955.658	51.24
956.021	51.26
956.385	51.22
956.748	51.23
957.111	51.22
957.474	51.23
957.837	51.24
958.2	51.21
958.563	51.26
958.926	51.19
959.289	51.16
959.652	51.18
960.015	51.1
960.377	50.98
960.74	50.86
961.102	50.74
961.465	50.71
961.827	50.55
962.189	50.48
962.552	50.39
962.914	50.34
963.276	50.26
963.638	50.25
964	50.19
964.362	50.16
964.724	50.17
965.085	50.21
965.447	50.09
965.809	50.1
966.17	50.19
966.532	50.28
966.893	50.33
967.255	50.34
967.616	50.31
967.977	50.36
968.338	50.36
968.699	50.26
969.061	50.22
969.421	50.27
969.782	50.28
970.143	50.14
970.504	49.94
970.865	49.87
971.225	49.84
971.586	49.93
971.946	49.92
972.307	49.96
972.667	50.11
973.027	50.12
973.388	50.15
973.748	50.14
974.108	50.18
974.468	50.26
974.828	50.27
975.188	50.3
975.548	50.2
975.907	50.18
976.267	50.22
976.627	50.14
976.986	50.15
977.346	50.22
977.705	50.27
978.064	50.36
978.424	50.43
978.783	50.53
979.142	50.47
979.501	50.46
979.86	50.43
980.219	50.35
980.578	50.29
980.937	50.3
981.296	50.24
981.654	50.25
982.013	50.22
982.371	50.13
982.73	50.04
983.088	50.08
983.447	50.12
983.805	50.15
984.163	50.2
984.521	50.21
984.879	50.2
985.237	50.1
985.595	50.01
985.953	49.99
986.311	50.14
986.669	50.17
987.026	50.22
987.384	50.17
987.741	50.19
988.099	50.14
988.456	50.11
988.814	50.19
989.171	50.29
989.528	50.26
989.885	50.17
990.242	50.1
990.599	50.05
990.956	50
991.313	50.06
991.67	50.05
992.027	50.04
992.383	50.12
992.74	49.91
993.096	49.81
993.453	49.86
993.809	49.85
994.165	49.75
994.522	49.72
994.878	49.58
995.234	49.48
995.59	49.33
995.946	49.4
996.302	49.34
996.658	49.48
997.013	49.45
997.369	49.44
997.725	49.61
998.08	49.64
998.436	49.7
998.791	49.73
999.147	49.83
999.502	49.88
999.857	49.92
1000.212	49.88
1000.567	49.72
1000.922	49.85
1001.277	49.8
1001.632	49.74
1001.987	49.7
1002.342	49.69
1002.696	49.7
1003.051	49.59
1003.406	49.52
1003.76	49.55
1004.114	49.68
1004.469	49.87
1004.823	49.87
1005.177	50.13
1005.531	50.08
1005.885	50.14
1006.239	50.07
1006.593	50.05
1006.947	49.95
1007.301	50.02
1007.655	49.94
1008.008	49.91
1008.362	49.72
1008.715	49.63
1009.069	49.38
1009.422	49.32
1009.776	49.17
1010.129	48.9
1010.482	49.16
1010.835	49.4
1011.188	49.41
1011.541	49.13
1011.894	48.94
1012.247	49
1012.6	48.88
1012.952	48.7
1013.305	48.73
1013.657	48.96
1014.01	49.38
1014.362	49.23
1014.715	49.14
1015.067	49.17
1015.419	49.33
1015.771	49.66
1016.123	49.65
1016.475	49.95
1016.827	50.41
1017.179	50.47
1017.531	50.41
1017.883	50.45
1018.234	50.55
1018.586	50.31
1018.938	50.24
1019.289	50.36
1019.64	50.35
1019.992	50.48
1020.343	50.38
1020.694	49.91
1021.045	49.9
1021.396	49.73
1021.747	49.58
1022.098	49.62
1022.449	49.81
1022.8	49.68
1023.151	49.46
1023.501	49.36
1023.852	49.3
1024.202	49.25
1024.553	49.6
1024.903	49.35
1025.253	49.35
1025.604	49.33
1025.954	49.06
1026.304	49.52
1026.654	49.79
1027.004	50.15
1027.354	50.22
1027.703	50.12
1028.053	49.77
1028.403	49.66
1028.753	50.05
1029.102	50.38
1029.452	50.67
1029.801	50.87
1030.15	50.56
1030.499	50.6
897.758	349.99
901.051	342.57
904.343	351.64
907.636	346.74
910.928	341.36
914.22	349.85
917.511	336.7
920.803	323.47
924.094	310.63
927.384	315.05
930.675	305.59
933.965	299.91
937.255	305.67
940.544	290.79
943.834	276.3
947.123	273.96
950.411	257.71
953.7	257.93
956.988	247.26
960.276	241.41
963.563	239.47
966.851	230.29
970.138	225.4
973.424	211.58
976.711	209.65
979.997	205.95
983.283	199.52
986.568	194.56
989.853	189.71
993.138	184.42
996.423	181.65
999.708	175.44
1002.992	174.66
1006.275	171.03
1009.559	169.78
1012.842	165.46
1016.125	159.14
1019.408	157.33
1022.69	156.95
1025.972	155.33
1029.254	153.51
1032.536	150.37
1035.817	146.76
1039.098	143.68
1042.379	141.6
1045.659	140.64
1048.939	138.46
1052.219	137.28
1055.498	134.51
1058.778	131.85
1062.057	129.93
1065.335	129.34
1068.614	127
1071.892	125.97
1075.17	125.57
1078.447	123.27
1081.724	121.71
1085.001	119.61
1088.278	118.62
1091.554	119.48
1094.83	119.39
1098.106	117.48
1101.382	117.23
1104.657	117.56
1107.932	116.74
1111.206	116.19
1114.481	116.07
1117.755	115
1121.029	115.16
1124.302	114.71
1127.575	112.87
1130.848	111.74
1134.121	110.51
1137.393	110.06
1140.665	108.24
1143.937	107.13
1147.208	106.24
1150.48	104.8
1153.75	104.62
1157.021	103.35
1160.291	103.92
1163.561	103.23
1166.831	103.7
1170.101	103.89
1173.37	102.27
1176.639	101.95
1179.907	101.32
1183.176	100.93
1186.444	100.86
1189.711	100.26
1192.979	101.63
1196.246	100.39
1199.513	100.63
1202.78	99.85
1206.046	99.79
1209.312	100.13
1212.578	100.65
1215.843	103.03
1219.108	102.87
1222.373	104.85
1225.638	106.36
1228.902	107.51
1232.166	110.02
1235.43	110.37
1238.693	112.89
1241.956	115.62
1245.219	118.79
1248.482	119.79
1251.744	118.59
1255.006	118.32
1258.268	115.69
1261.529	114.76
1264.79	113.51
1268.051	111.81
1271.312	111.61
1274.572	109.88
1277.832	107.99
1281.092	105.75
1284.351	104.05
1287.61	103.95
1290.869	105.44
1294.128	104.78
1297.386	104.71
1300.644	103.36
1303.902	102.54
1307.159	101.6
1310.416	101.99
1313.673	102.73
1316.93	103.58
1320.186	105.87
1323.442	105.86
1326.697	105.91
1329.953	106.48
1333.208	108.16
1336.463	112.27
1339.717	115.16
1342.972	119.24
1346.226	121.72
1349.479	121.79
1352.733	127.01
1355.986	127.4
1359.238	130.24
1362.491	130.23
1365.743	135.46
1368.995	136.89
1372.247	133.17
1375.498	131.82
1378.749	135.26
1382	134.98
1385.251	133.97
1388.501	132.59
1391.751	132.73
1395	131.43
1398.25	132.79
1401.499	130.83
1404.748	128.92
1407.996	129.75
1411.244	129.66
1414.492	126.87
1417.74	122.74
1420.987	119.69
1424.234	118.2
1427.481	113.1
1430.728	111.32
1433.974	107.16
1437.22	104.51
1440.465	101.02
1443.711	97.35
1446.956	94.54
1450.201	90.33
1453.445	86.11
1456.689	83.88
1459.933	81.87
1463.177	78.64
1466.42	77.12
1469.663	75.01
1472.906	72.16
1476.148	69.89
1479.391	68.98
1482.633	67.86
1485.874	67.65
1489.115	67.48
1492.356	66.74
1495.597	65.22
1498.838	65.85
1502.078	65.18
1505.318	65.14
1508.557	64.95
1511.797	65.22
1515.036	65
1518.274	64.59
1521.513	64.27
1524.751	63.98
1527.989	64.76
1531.227	64.64
1534.464	64.99
1537.701	64.67
1540.938	64.26
1544.174	64.13
1547.41	64.69
1550.646	64.54
1553.882	64.78
1557.117	64.95
1560.352	65.1
1563.587	63.96
1566.821	64.31
1570.055	63.92
1573.289	64.19
1576.523	64.9
1579.756	64.59
1582.989	64.71
1586.222	64.72
1589.454	65.06
1592.686	65.23
1595.918	64.68
1599.15	65.34
1602.381	65.81
1605.612	66.04
1608.843	65.91
1612.073	66.26
1615.303	66.93
1618.533	66.14
1621.762	66.46
1624.992	66.31
1628.221	66.09
1631.449	67
1634.678	66.47
1637.906	66.17
1641.134	66.42
1644.361	66.7
1647.588	66.02
1650.815	66.15
1654.042	66.92
1657.269	67.04
1660.495	67.34
1663.72	67.38
1666.946	67.13
1670.171	67.99
1673.396	68.68
1676.621	68.63
1679.845	68.74
1683.069	69.03
1686.293	68.95
1689.517	68.45
1692.74	68.6
1695.963	68.37
1699.185	68.98
1702.408	69.02
1705.63	68.74
1708.852	68.55
1712.073	68.25
1715.294	68.22
1718.515	68.51
1721.736	68.43
1724.956	68.65
1728.176	68.26
1731.396	68.79
1734.616	68.26
1737.835	68.29
1741.054	68.03
1744.272	67.62
1747.491	67.48
1750.709	67.95
1753.927	67.67
1757.144	67.88
1760.361	68.12
1763.578	67.77
1766.795	67.84
1770.011	68
1773.227	68.24
1776.443	69.02
1779.658	68.93
1782.874	69.85
1786.089	69.31
1789.303	69.33
1792.518	69.98
1795.732	70.16
1798.945	71.83
1802.159	71.74
1805.372	72.28
1808.585	72.58
1811.797	72.55
1815.01	73.77
1818.222	73.86
1821.434	74.42
1824.645	75.16
1827.856	75.08
1831.067	75.36
1834.278	75.57
1837.488	76.32
1840.698	76.67
1843.908	76.95
1847.117	77.94
1850.326	77.75
1853.535	77.87
1856.744	78.43
1859.952	78.61
1863.16	79.25
1866.368	77.75
1869.575	77.88
1872.782	76.67
1875.989	75.33
1879.196	74.78
1882.402	73.8
1885.608	73.87
1888.814	73.3
1892.019	72.96
1895.224	71.6
1898.429	70.82
1901.634	72.29
1904.838	71.37
1908.042	71.62
1911.246	72.18
1914.449	72.69
1917.652	71.37
1920.855	71.18
1924.058	71.6
1927.26	70.97
1930.462	71.49
1933.664	71.41
1936.865	71.67
1940.066	70.86
1943.267	70.53
1946.467	71.04
1949.668	70.95
1952.868	72.24
1956.067	71.92
1959.267	72.57
1962.466	73.07
1965.665	73.54
1968.863	75.11
1972.061	75.45
1975.259	77.8
1978.457	78.35
1981.654	78.91
1984.852	79.34
1988.048	80.3
1991.245	81.88
1994.441	82.18
1997.637	84.42
2000.833	86.08
2004.028	85.81
2007.223	88.28
2010.418	89.24
2013.613	93.24
2016.807	95.59
2020.001	96.78
2023.194	101.45
2026.388	103.09
2029.581	107.38
2032.774	110.49
2035.966	113.08
2039.158	118.1
2042.35	117.64
2045.542	120.14
2048.733	124.03
2051.924	126.07
2055.115	127.99
2058.306	127.07
2061.496	128.94
2064.686	131.37
2067.875	128.86
2071.065	131.08
2074.254	130.31
2077.442	135.83
2080.631	136.7
2083.819	138.19
2087.007	141.1
2090.195	143.8
2093.382	143.46
2096.569	145.1
2099.756	147.88
2102.942	152.06
2106.128	154.53
2109.314	158.11
2112.5	157.9
2115.685	154.64
2118.87	154.06
2122.055	157.31
2125.239	161.01
2128.424	164.53
2131.608	160.92
2134.791	159.53
2137.974	159.61
2141.157	162.86
2144.34	161.15
2147.523	164.02
2150.705	171.21
2153.887	169.82
2157.068	167.47
2160.25	169.34
2163.431	170.15
2166.611	177.26
2169.792	180
2172.972	184.9
2176.152	182.89
2179.331	187.55
2182.511	188.37
2185.69	190.72
2188.868	198.27
2192.047	203.34
2195.225	207.65
2198.403	209.07
2201.58	204.15
2204.758	210.96
2207.935	209.23
2211.111	212.92
2214.288	212.89
2217.464	215.34
2220.64	217.84
2223.815	217.24
2226.991	214.16
2230.166	215.28
2233.34	221.73
2236.515	229.23
2239.689	225.49
2242.863	229.48
2246.036	229.76
2249.209	233.59
2252.382	233.75
2255.555	238.27
2258.727	240.56
2261.9	250.27
2265.071	251.23
2268.243	247.46
2271.414	255.03
2274.585	259.25
2277.756	262.01
2280.926	269.67
2284.096	275.04
2287.266	276.97
2290.436	274.76
2293.605	278.75
2296.774	286.96
2299.942	290.41
2303.111	301.05
2306.279	307.96
2309.447	308.29
2312.614	307.18
2315.781	313.45
2318.948	312.8
2322.115	318.4
2325.281	337.01
2328.447	333.16
2331.613	330.18
2334.779	334.26
2337.944	336.48
2341.109	338.94
2344.274	344.4
2347.438	357.18
2350.602	366.09
2353.766	385.94
2356.929	387.92
2360.092	392.24
2363.255	399.34
2366.418	406.6
2369.58	416.83
2372.742	416.19
2375.904	413.51
2379.066	426.75
2382.227	437.53
2385.388	433.95
2388.548	417.46
2391.709	412.67
2394.869	419.03
2398.029	426.15
2401.188	421.77
2404.347	431.11
2407.506	446.92
2410.665	435.43
2413.823	441.01
2416.981	448.76
2420.139	430.46
2423.296	464.15
2426.453	495.14
2429.61	466.46
2432.767	492.55
2435.923	519.68
2439.079	493.81
2442.235	503.04
2445.391	517.7
2448.546	504.88
2451.701	534.74
2454.855	561.75
2458.009	505.39
2461.163	510.55
2464.317	521.69
2467.471	508.55
2470.624	521.63
2473.777	520.76
2476.929	510.89
2480.082	533.48
2483.234	561.83
2486.385	566.63
2489.537	584.29
2492.688	630.49
2495.839	617.41
2498.989	641.21
2502.14	647.2
2505.29	616.36
2508.439	673.9
2511.589	685.27
2514.738	679.48
2517.887	669.94
2521.035	625.73
2524.183	611.49
2527.331	615.04
2530.479	603.96
2533.627	613.01
