Data from N_2_dec_on_6n_057_Splice17_18.txt Node
Date: Sat Feb 29 14:00:18 EST 2020
User: sa697716
Spectrometer: FLMS03696
Trigger mode: 0
Integration Time (sec): 3.180400E-1
Scans to average: 20
Electric dark correction enabled: true
Nonlinearity correction enabled: true
Boxcar width: 5
XAxis mode: Wavelengths
Number of Pixels in Spectrum: 2048
>>>>>Begin Spectral Data<<<<<
187.83	112.16
188.298	116.27
188.766	115.49
189.233	106.01
189.701	110.29
190.169	111.24
190.636	103.74
191.104	100.8
191.571	142.55
192.039	156.39
192.506	6.65
192.974	-124.69
193.441	473.36
193.908	29.45
194.375	5.78
194.842	76.86
195.31	73
195.777	24.25
196.244	20.45
196.711	14.31
197.177	10.77
197.644	11.74
198.111	11.62
198.578	12.35
199.045	12.51
199.511	12.71
199.978	13.1
200.445	13.31
200.911	14.04
201.378	14.29
201.844	14.66
202.31	15.61
202.777	16.36
203.243	16.92
203.709	17.62
204.176	17.77
204.642	17.71
205.108	17.7
205.574	18.2
206.04	17.96
206.506	17.69
206.972	17.85
207.438	17.73
207.903	17.58
208.369	17.32
208.835	17.26
209.301	17.36
209.766	17.73
210.232	17.84
210.697	17.74
211.163	17.75
211.628	17.67
212.094	17.54
212.559	17.23
213.024	16.86
213.49	17.13
213.955	17.08
214.42	16.79
214.885	16.42
215.35	16.45
215.815	16.16
216.28	16.22
216.745	16.2
217.21	16.16
217.675	16.15
218.14	15.95
218.604	15.5
219.069	15.31
219.534	15.26
219.998	15.09
220.463	14.93
220.927	14.82
221.392	14.62
221.856	14.42
222.32	14.21
222.785	14.04
223.249	13.94
223.713	13.84
224.177	13.66
224.642	13.56
225.106	13.43
225.57	13.27
226.034	13.15
226.497	13.01
226.961	12.91
227.425	12.77
227.889	12.67
228.353	12.53
228.816	12.43
229.28	12.3
229.744	12.17
230.207	12.08
230.671	11.98
231.134	11.84
231.597	11.73
232.061	11.62
232.524	11.54
232.987	11.43
233.45	11.34
233.914	11.24
234.377	11.17
234.84	11.08
235.303	10.96
235.766	10.86
236.229	10.76
236.691	10.68
237.154	10.59
237.617	10.49
238.08	10.4
238.542	10.3
239.005	10.2
239.468	10.1
239.93	10.01
240.393	9.94
240.855	9.87
241.317	9.8
241.78	9.73
242.242	9.66
242.704	9.59
243.166	9.54
243.629	9.46
244.091	9.4
244.553	9.34
245.015	9.27
245.477	9.21
245.939	9.15
246.4	9.09
246.862	9.03
247.324	8.99
247.786	8.93
248.247	8.87
248.709	8.83
249.17	8.78
249.632	8.73
250.093	8.67
250.555	8.63
251.016	8.6
251.477	8.55
251.939	8.51
252.4	8.46
252.861	8.43
253.322	8.4
253.783	8.38
254.244	8.34
254.705	8.33
255.166	8.3
255.627	8.27
256.088	8.22
256.549	8.21
257.009	8.17
257.47	8.14
257.931	8.1
258.391	8.06
258.852	8.02
259.312	7.99
259.773	7.96
260.233	7.92
260.694	7.89
261.154	7.87
261.614	7.83
262.074	7.81
262.534	7.77
262.994	7.74
263.455	7.72
263.915	7.7
264.374	7.67
264.834	7.65
265.294	7.62
265.754	7.6
266.214	7.58
266.673	7.57
267.133	7.55
267.593	7.53
268.052	7.52
268.512	7.5
268.971	7.48
269.431	7.46
269.89	7.45
270.349	7.45
270.809	7.44
271.268	7.43
271.727	7.42
272.186	7.4
272.645	7.39
273.104	7.37
273.563	7.36
274.022	7.35
274.481	7.34
274.94	7.31
275.399	7.29
275.857	7.27
276.316	7.24
276.775	7.22
277.233	7.2
277.692	7.19
278.15	7.17
278.609	7.14
279.067	7.12
279.525	7.1
279.984	7.08
280.442	7.06
280.9	7.05
281.358	7.04
281.816	7.02
282.274	7
282.732	6.99
283.19	6.97
283.648	6.96
284.106	6.95
284.564	6.94
285.021	6.94
285.479	6.93
285.937	6.91
286.394	6.89
286.852	6.89
287.309	6.88
287.767	6.88
288.224	6.87
288.682	6.87
289.139	6.87
289.596	6.86
290.053	6.84
290.511	6.83
290.968	6.82
291.425	6.8
291.882	6.79
292.339	6.77
292.796	6.76
293.252	6.74
293.709	6.73
294.166	6.7
294.623	6.69
295.079	6.69
295.536	6.68
295.992	6.67
296.449	6.67
296.905	6.65
297.362	6.65
297.818	6.64
298.274	6.63
298.731	6.62
299.187	6.62
299.643	6.61
300.099	6.61
300.555	6.58
301.011	6.58
301.467	6.57
301.923	6.57
302.379	6.57
302.835	6.57
303.291	6.55
303.746	6.55
304.202	6.53
304.658	6.53
305.113	6.52
305.569	6.53
306.024	6.52
306.479	6.51
306.935	6.51
307.39	6.5
307.845	6.5
308.301	6.5
308.756	6.5
309.211	6.5
309.666	6.51
310.121	6.51
310.576	6.51
311.031	6.5
311.486	6.5
311.94	6.5
312.395	6.5
312.85	6.5
313.305	6.5
313.759	6.5
314.214	6.5
314.668	6.49
315.123	6.49
315.577	6.49
316.032	6.49
316.486	6.48
316.94	6.48
317.394	6.47
317.849	6.46
318.303	6.46
318.757	6.45
319.211	6.43
319.665	6.44
320.119	6.44
320.572	6.44
321.026	6.42
321.48	6.43
321.934	6.42
322.387	6.42
322.841	6.41
323.295	6.4
323.748	6.41
324.202	6.4
324.655	6.4
325.108	6.38
325.562	6.37
326.015	6.36
326.468	6.35
326.921	6.34
327.374	6.34
327.827	6.33
328.28	6.32
328.733	6.3
329.186	6.3
329.639	6.28
330.092	6.27
330.545	6.28
330.997	6.28
331.45	6.27
331.903	6.27
332.355	6.26
332.808	6.28
333.26	6.27
333.713	6.28
334.165	6.29
334.617	6.3
335.069	6.29
335.522	6.3
335.974	6.3
336.426	6.3
336.878	6.3
337.33	6.31
337.782	6.29
338.234	6.29
338.686	6.28
339.137	6.27
339.589	6.26
340.041	6.27
340.493	6.25
340.944	6.24
341.396	6.24
341.847	6.24
342.299	6.22
342.75	6.22
343.201	6.21
343.653	6.2
344.104	6.19
344.555	6.19
345.006	6.17
345.457	6.17
345.908	6.16
346.359	6.15
346.81	6.15
347.261	6.13
347.712	6.12
348.163	6.12
348.613	6.12
349.064	6.1
349.515	6.08
349.965	6.08
350.416	6.08
350.866	6.08
351.317	6.07
351.767	6.06
352.217	6.05
352.668	6.06
353.118	6.06
353.568	6.06
354.018	6.07
354.468	6.07
354.918	6.08
355.368	6.07
355.818	6.07
356.268	6.07
356.718	6.07
357.168	6.06
357.617	6.06
358.067	6.06
358.517	6.05
358.966	6.05
359.416	6.05
359.865	6.05
360.315	6.05
360.764	6.05
361.213	6.04
361.663	6.05
362.112	6.06
362.561	6.06
363.01	6.07
363.459	6.08
363.908	6.08
364.357	6.09
364.806	6.09
365.255	6.09
365.703	6.1
366.152	6.11
366.601	6.11
367.05	6.12
367.498	6.13
367.947	6.12
368.395	6.13
368.844	6.13
369.292	6.12
369.74	6.13
370.189	6.13
370.637	6.13
371.085	6.14
371.533	6.15
371.981	6.16
372.429	6.15
372.877	6.16
373.325	6.15
373.773	6.18
374.221	6.2
374.669	6.2
375.116	6.22
375.564	6.22
376.012	6.23
376.459	6.25
376.907	6.27
377.354	6.28
377.801	6.3
378.249	6.32
378.696	6.33
379.143	6.34
379.591	6.35
380.038	6.37
380.485	6.38
380.932	6.4
381.379	6.39
381.826	6.41
382.273	6.42
382.72	6.43
383.166	6.44
383.613	6.45
384.06	6.46
384.506	6.49
384.953	6.5
385.4	6.51
385.846	6.52
386.292	6.56
386.739	6.57
387.185	6.61
387.631	6.63
388.078	6.65
388.524	6.67
388.97	6.69
389.416	6.68
389.862	6.7
390.308	6.72
390.754	6.73
391.2	6.74
391.645	6.76
392.091	6.77
392.537	6.77
392.983	6.79
393.428	6.81
393.874	6.83
394.319	6.85
394.765	6.86
395.21	6.87
395.655	6.88
396.101	6.89
396.546	6.9
396.991	6.9
397.436	6.9
397.881	6.9
398.326	6.91
398.771	6.92
399.216	6.94
399.661	6.95
400.106	6.97
400.551	6.97
400.995	6.97
401.44	6.95
401.885	6.96
402.329	6.97
402.774	6.97
403.218	6.96
403.663	6.96
404.107	6.95
404.551	6.96
404.995	6.95
405.44	6.95
405.884	6.95
406.328	6.97
406.772	6.98
407.216	6.97
407.66	6.97
408.104	6.98
408.547	6.99
408.991	6.98
409.435	6.96
409.879	6.96
410.322	6.96
410.766	6.96
411.209	6.95
411.653	6.93
412.096	6.92
412.54	6.92
412.983	6.91
413.426	6.9
413.869	6.91
414.312	6.92
414.756	6.93
415.199	6.93
415.642	6.95
416.085	6.96
416.527	6.99
416.97	7
417.413	7
417.856	7
418.298	6.99
418.741	6.97
419.184	6.96
419.626	6.93
420.069	6.93
420.511	6.91
420.953	6.9
421.396	6.88
421.838	6.88
422.28	6.89
422.722	6.91
423.164	6.92
423.606	6.93
424.048	6.92
424.49	6.94
424.932	6.93
425.374	6.93
425.816	6.92
426.258	6.9
426.699	6.87
427.141	6.85
427.582	6.84
428.024	6.83
428.465	6.82
428.907	6.83
429.348	6.82
429.789	6.82
430.231	6.82
430.672	6.83
431.113	6.85
431.554	6.88
431.995	6.89
432.436	6.88
432.877	6.88
433.318	6.88
433.759	6.88
434.2	6.88
434.64	6.87
435.081	6.84
435.522	6.86
435.962	6.84
436.403	6.83
436.843	6.82
437.284	6.8
437.724	6.82
438.164	6.83
438.604	6.83
439.045	6.84
439.485	6.88
439.925	6.9
440.365	6.89
440.805	6.9
441.245	6.9
441.685	6.93
442.125	6.95
442.564	6.96
443.004	6.98
443.444	6.98
443.883	7
444.323	7
444.762	7.03
445.202	7.08
445.641	7.11
446.081	7.14
446.52	7.13
446.959	7.15
447.398	7.19
447.837	7.22
448.276	7.24
448.716	7.27
449.154	7.3
449.593	7.31
450.032	7.31
450.471	7.32
450.91	7.33
451.349	7.35
451.787	7.35
452.226	7.33
452.664	7.32
453.103	7.31
453.541	7.3
453.98	7.28
454.418	7.27
454.856	7.25
455.295	7.24
455.733	7.24
456.171	7.25
456.609	7.25
457.047	7.27
457.485	7.28
457.923	7.3
458.361	7.29
458.798	7.3
459.236	7.3
459.674	7.31
460.111	7.31
460.549	7.3
460.987	7.29
461.424	7.3
461.862	7.29
462.299	7.29
462.736	7.29
463.173	7.29
463.611	7.28
464.048	7.3
464.485	7.3
464.922	7.28
465.359	7.29
465.796	7.28
466.233	7.27
466.67	7.26
467.106	7.26
467.543	7.25
467.98	7.25
468.416	7.24
468.853	7.23
469.29	7.23
469.726	7.24
470.162	7.24
470.599	7.25
471.035	7.26
471.471	7.27
471.907	7.3
472.344	7.3
472.78	7.29
473.216	7.3
473.652	7.3
474.088	7.3
474.523	7.3
474.959	7.29
475.395	7.29
475.831	7.29
476.266	7.28
476.702	7.25
477.138	7.24
477.573	7.23
478.008	7.23
478.444	7.24
478.879	7.25
479.314	7.26
479.75	7.26
480.185	7.27
480.62	7.25
481.055	7.25
481.49	7.26
481.925	7.26
482.36	7.25
482.795	7.23
483.229	7.22
483.664	7.22
484.099	7.21
484.534	7.21
484.968	7.21
485.403	7.22
485.837	7.21
486.271	7.22
486.706	7.22
487.14	7.24
487.574	7.26
488.009	7.29
488.443	7.3
488.877	7.33
489.311	7.34
489.745	7.37
490.179	7.4
490.613	7.43
491.046	7.46
491.48	7.48
491.914	7.52
492.348	7.55
492.781	7.57
493.215	7.6
493.648	7.63
494.082	7.67
494.515	7.7
494.948	7.72
495.382	7.77
495.815	7.81
496.248	7.89
496.681	7.94
497.114	7.99
497.547	8.04
497.98	8.11
498.413	8.17
498.846	8.24
499.279	8.32
499.711	8.4
500.144	8.47
500.577	8.55
501.009	8.62
501.442	8.71
501.874	8.8
502.306	8.91
502.739	9
503.171	9.11
503.603	9.22
504.036	9.34
504.468	9.47
504.9	9.59
505.332	9.73
505.764	9.87
506.196	10.01
506.627	10.15
507.059	10.31
507.491	10.47
507.923	10.65
508.354	10.81
508.786	10.98
509.217	11.14
509.649	11.34
510.08	11.53
510.512	11.72
510.943	11.93
511.374	12.13
511.805	12.32
512.237	12.52
512.668	12.72
513.099	12.93
513.53	13.15
513.961	13.38
514.391	13.6
514.822	13.82
515.253	14.06
515.684	14.27
516.114	14.52
516.545	14.76
516.975	15.02
517.406	15.26
517.836	15.49
518.267	15.73
518.697	15.97
519.127	16.2
519.558	16.42
519.988	16.65
520.418	16.86
520.848	17.08
521.278	17.29
521.708	17.37
522.138	17.57
522.567	17.79
522.997	17.98
523.427	18.17
523.857	18.35
524.286	18.56
524.716	18.74
525.145	18.93
525.575	19.1
526.004	19.27
526.433	19.55
526.863	19.71
527.292	19.85
527.721	20.01
528.15	20.14
528.579	20.29
529.008	20.4
529.437	20.52
529.866	20.63
530.295	20.73
530.724	20.85
531.152	20.97
531.581	21.07
532.01	21.16
532.438	21.25
532.867	21.35
533.295	21.41
533.723	21.51
534.152	21.58
534.58	21.63
535.008	21.69
535.436	21.75
535.865	21.79
536.293	21.85
536.721	21.89
537.149	21.91
537.576	21.94
538.004	21.97
538.432	21.99
538.86	22.03
539.287	22.07
539.715	22.1
540.143	22.11
540.57	22.13
540.998	22.13
541.425	22.16
541.852	22.2
542.28	22.21
542.707	22.25
543.134	22.28
543.561	22.28
543.988	22.3
544.415	22.33
544.842	22.34
545.269	22.38
545.696	22.4
546.123	22.42
546.549	22.45
546.976	22.5
547.403	22.5
547.829	22.52
548.256	22.54
548.682	22.56
549.108	22.58
549.535	22.58
549.961	22.57
550.387	22.57
550.813	22.55
551.24	22.53
551.666	22.52
552.092	22.52
552.518	22.52
552.943	22.52
553.369	22.5
553.795	22.49
554.221	22.47
554.646	22.46
555.072	22.43
555.498	22.41
555.923	22.37
556.349	22.32
556.774	22.27
557.199	22.21
557.625	22.16
558.05	22.1
558.475	22.02
558.9	21.96
559.325	21.88
559.75	21.8
560.175	21.74
560.6	21.67
561.025	21.58
561.449	21.5
561.874	21.41
562.299	21.3
562.723	21.21
563.148	21.11
563.572	21.01
563.997	20.91
564.421	20.79
564.846	20.67
565.27	20.54
565.694	20.43
566.118	20.3
566.542	20.19
566.966	20.08
567.39	19.95
567.814	19.83
568.238	19.69
568.662	19.57
569.086	19.45
569.509	19.32
569.933	19.21
570.357	19.08
570.78	18.96
571.204	18.81
571.627	18.68
572.05	18.56
572.474	18.46
572.897	18.36
573.32	18.25
573.743	18.16
574.166	18.05
574.589	17.94
575.012	17.85
575.435	17.74
575.858	17.66
576.281	17.57
576.704	17.51
577.126	17.42
577.549	17.35
577.972	17.27
578.394	17.19
578.817	17.11
579.239	17.05
579.661	16.97
580.084	16.92
580.506	16.86
580.928	16.79
581.35	16.71
581.772	16.65
582.194	16.57
582.616	16.51
583.038	16.44
583.46	16.38
583.882	16.32
584.303	16.26
584.725	16.18
585.147	16.1
585.568	16.05
585.99	15.98
586.411	15.92
586.833	15.88
587.254	15.82
587.675	15.78
588.096	15.73
588.518	15.69
588.939	15.65
589.36	15.6
589.781	15.57
590.202	15.53
590.623	15.5
591.043	15.46
591.464	15.41
591.885	15.39
592.305	15.36
592.726	15.32
593.147	15.29
593.567	15.25
593.987	15.23
594.408	15.2
594.828	15.16
595.248	15.13
595.669	15.1
596.089	15.07
596.509	15.01
596.929	14.98
597.349	14.95
597.769	14.91
598.189	14.89
598.608	14.85
599.028	14.81
599.448	14.78
599.867	14.74
600.287	14.7
600.706	14.68
601.126	14.65
601.545	14.61
601.965	14.58
602.384	14.55
602.803	14.51
603.222	14.48
603.641	14.44
604.061	14.4
604.48	14.36
604.898	14.31
605.317	14.27
605.736	14.22
606.155	14.18
606.574	14.12
606.992	14.07
607.411	14.03
607.829	13.92
608.248	13.87
608.666	13.83
609.085	13.78
609.503	13.73
609.921	13.67
610.339	13.63
610.758	13.56
611.176	13.51
611.594	13.46
612.012	13.39
612.43	13.39
612.847	13.34
613.265	13.29
613.683	13.23
614.101	13.16
614.518	13.11
614.936	13.05
615.353	13.02
615.771	12.97
616.188	12.92
616.606	12.87
617.023	12.82
617.44	12.77
617.857	12.72
618.274	12.68
618.691	12.66
619.108	12.63
619.525	12.6
619.942	12.56
620.359	12.54
620.776	12.52
621.192	12.52
621.609	12.5
622.026	12.49
622.442	12.47
622.859	12.47
623.275	12.46
623.691	12.45
624.108	12.43
624.524	12.41
624.94	12.4
625.356	12.38
625.772	12.37
626.188	12.36
626.604	12.33
627.02	12.32
627.436	12.32
627.852	12.29
628.268	12.28
628.683	12.25
629.099	12.26
629.514	12.24
629.93	12.22
630.345	12.19
630.761	12.16
631.176	12.14
631.591	12.11
632.007	12.05
632.422	12.01
632.837	11.95
633.252	11.91
633.667	11.82
634.082	11.77
634.497	11.69
634.911	11.62
635.326	11.54
635.741	11.45
636.155	11.36
636.57	11.26
636.984	11.16
637.399	11.05
637.813	10.94
638.228	10.85
638.642	10.75
639.056	10.66
639.47	10.54
639.884	10.43
640.298	10.34
640.712	10.24
641.126	10.15
641.54	10.04
641.954	9.96
642.368	9.88
642.781	9.79
643.195	9.67
643.609	9.58
644.022	9.51
644.436	9.44
644.849	9.35
645.262	9.28
645.676	9.2
646.089	9.13
646.502	9.06
646.915	8.99
647.328	8.93
647.741	8.9
648.154	8.86
648.567	8.82
648.98	8.79
649.393	8.75
649.805	8.72
650.218	8.7
650.631	8.69
651.043	8.7
651.456	8.71
651.868	8.69
652.28	8.69
652.693	8.66
653.105	8.64
653.517	8.61
653.929	8.62
654.341	8.6
654.753	8.57
655.165	8.55
655.577	8.5
655.989	8.44
656.401	8.39
656.813	8.34
657.224	8.29
657.636	8.25
658.047	8.21
658.459	8.14
658.87	8.1
659.282	8.05
659.693	7.99
660.104	7.93
660.515	7.89
660.926	7.86
661.338	7.81
661.749	7.77
662.159	7.73
662.57	7.69
662.981	7.64
663.392	7.6
663.803	7.57
664.213	7.54
664.624	7.52
665.035	7.49
665.445	7.47
665.855	7.45
666.266	7.45
666.676	7.43
667.086	7.42
667.497	7.42
667.907	7.4
668.317	7.4
668.727	7.41
669.137	7.4
669.547	7.42
669.956	7.42
670.366	7.44
670.776	7.44
671.186	7.47
671.595	7.5
672.005	7.53
672.414	7.56
672.824	7.6
673.233	7.63
673.642	7.66
674.052	7.69
674.461	7.74
674.87	7.77
675.279	7.82
675.688	7.86
676.097	7.9
676.506	7.94
676.915	7.99
677.323	8.04
677.732	8.09
678.141	8.14
678.549	8.21
678.958	8.27
679.366	8.33
679.775	8.41
680.183	8.5
680.592	8.59
681	8.68
681.408	8.76
681.816	8.85
682.224	8.97
682.632	9.11
683.04	9.23
683.448	9.37
683.856	9.52
684.264	9.67
684.671	9.85
685.079	10.04
685.487	10.26
685.894	10.48
686.302	10.73
686.709	10.98
687.116	11.25
687.524	11.55
687.931	11.87
688.338	12.22
688.745	12.58
689.152	12.96
689.559	13.36
689.966	13.76
690.373	14.21
690.78	14.67
691.187	15.14
691.593	15.61
692	16.1
692.407	16.59
692.813	17.1
693.22	17.61
693.626	18.14
694.032	18.66
694.439	19.19
694.845	19.73
695.251	20.24
695.657	20.75
696.063	21.28
696.469	21.79
696.875	22.3
697.281	22.8
697.687	23.31
698.093	23.78
698.498	24.27
698.904	24.76
699.31	25.2
699.715	25.69
700.12	26.15
700.526	26.62
700.931	27.06
701.337	27.5
701.742	27.93
702.147	28.34
702.552	28.78
702.957	29.18
703.362	29.57
703.767	29.97
704.172	30.35
704.577	30.74
704.981	31.12
705.386	31.48
705.791	31.84
706.195	32.2
706.6	32.54
707.004	32.84
707.408	33.17
707.813	33.5
708.217	33.81
708.621	34.12
709.025	34.42
709.43	34.7
709.834	35
710.237	35.28
710.641	35.58
711.045	35.87
711.449	36.15
711.853	36.42
712.256	36.7
712.66	36.97
713.064	37.23
713.467	37.48
713.87	37.75
714.274	38.02
714.677	38.27
715.08	38.48
715.484	38.69
715.887	38.95
716.29	39.18
716.693	39.35
717.096	39.57
717.499	39.78
717.901	39.99
718.304	40.16
718.707	40.32
719.109	40.52
719.512	40.71
719.915	40.91
720.317	41.1
720.719	41.26
721.122	41.46
721.524	41.62
721.926	41.77
722.328	41.94
722.731	42.08
723.133	42.22
723.535	42.38
723.937	42.52
724.338	42.61
724.74	42.73
725.142	42.85
725.544	42.95
725.945	43.05
726.347	43.13
726.748	43.23
727.15	43.31
727.551	43.42
727.952	43.47
728.354	43.57
728.755	43.68
729.156	43.76
729.557	43.86
729.958	43.97
730.359	44.06
730.76	44.13
731.161	44.19
731.562	44.29
731.962	44.36
732.363	44.44
732.763	44.52
733.164	44.57
733.564	44.6
733.965	44.63
734.365	44.64
734.766	44.7
735.166	44.75
735.566	44.79
735.966	44.81
736.366	44.85
736.766	44.88
737.166	44.93
737.566	44.99
737.966	45.06
738.365	45.11
738.765	45.18
739.165	45.15
739.564	45.22
739.964	45.26
740.363	45.3
740.763	45.31
741.162	45.34
741.561	45.38
741.96	45.39
742.36	45.4
742.759	45.42
743.158	45.4
743.557	45.47
743.955	45.5
744.354	45.54
744.753	45.56
745.152	45.59
745.55	45.58
745.949	45.56
746.348	45.59
746.746	45.61
747.144	45.66
747.543	45.69
747.941	45.68
748.339	45.71
748.737	45.72
749.136	45.71
749.534	45.75
749.932	45.77
750.33	45.8
750.727	45.81
751.125	45.8
751.523	45.76
751.921	45.8
752.318	45.8
752.716	45.79
753.113	45.78
753.511	45.76
753.908	45.73
754.305	45.71
754.703	45.67
755.1	45.64
755.497	45.66
755.894	45.67
756.291	45.6
756.688	45.59
757.085	45.58
757.482	45.57
757.878	45.62
758.275	45.6
758.672	45.63
759.068	45.63
759.465	45.62
759.861	45.58
760.258	45.53
760.654	45.53
761.05	45.53
761.447	45.49
761.843	45.46
762.239	45.39
762.635	45.39
763.031	45.34
763.427	45.31
763.822	45.3
764.218	45.29
764.614	45.29
765.01	45.28
765.405	45.26
765.801	45.26
766.196	45.3
766.592	45.32
766.987	45.33
767.382	45.35
767.778	45.35
768.173	45.37
768.568	45.35
768.963	45.35
769.358	45.36
769.753	45.36
770.148	45.36
770.542	45.33
770.937	45.31
771.332	45.33
771.726	45.31
772.121	45.3
772.515	45.29
772.91	45.28
773.304	45.29
773.699	45.3
774.093	45.24
774.487	45.25
774.881	45.26
775.275	45.27
775.669	45.25
776.063	45.22
776.457	45.23
776.851	45.2
777.245	45.23
777.638	45.22
778.032	45.21
778.425	45.27
778.819	45.26
779.212	45.26
779.606	45.25
779.999	45.22
780.392	45.22
780.786	45.21
781.179	45.26
781.572	45.26
781.965	45.27
782.358	45.23
782.751	45.22
783.143	45.22
783.536	45.23
783.929	45.25
784.322	45.29
784.714	45.32
785.107	45.34
785.499	45.32
785.891	45.34
786.284	45.31
786.676	45.33
787.068	45.35
787.46	45.35
787.852	45.29
788.245	45.26
788.636	45.24
789.028	45.23
789.42	45.2
789.812	45.2
790.204	45.13
790.595	45.12
790.987	45.13
791.378	45.08
791.77	45.07
792.161	45.09
792.553	45.09
792.944	45.09
793.335	45.1
793.726	45.06
794.117	45.07
794.508	45.1
794.899	45.14
795.29	45.13
795.681	45.16
796.072	45.16
796.463	45.19
796.853	45.19
797.244	45.19
797.634	45.19
798.025	45.25
798.415	45.19
798.806	45.22
799.196	45.23
799.586	45.26
799.976	45.26
800.366	45.25
800.756	45.24
801.146	45.26
801.536	45.26
801.926	45.24
802.316	45.24
802.706	45.29
803.095	45.28
803.485	45.28
803.874	45.29
804.264	45.32
804.653	45.32
805.043	45.36
805.432	45.34
805.821	45.33
806.21	45.39
806.599	45.41
806.988	45.4
807.377	45.39
807.766	45.39
808.155	45.39
808.544	45.36
808.933	45.35
809.321	45.38
809.71	45.41
810.098	45.42
810.487	45.4
810.875	45.37
811.264	45.38
811.652	45.43
812.04	45.44
812.428	45.44
812.816	45.48
813.204	45.5
813.592	45.45
813.98	45.44
814.368	45.42
814.756	45.42
815.144	45.45
815.531	45.45
815.919	45.43
816.306	45.41
816.694	45.42
817.081	45.41
817.469	45.42
817.856	45.49
818.243	45.49
818.63	45.5
819.017	45.5
819.404	45.48
819.791	45.47
820.178	45.45
820.565	45.45
820.952	45.42
821.339	45.42
821.725	45.43
822.112	45.41
822.498	45.41
822.885	45.42
823.271	45.41
823.657	45.4
824.044	45.41
824.43	45.44
824.816	45.43
825.202	45.43
825.588	45.4
825.974	45.39
826.36	45.35
826.746	45.38
827.132	45.37
827.517	45.39
827.903	45.41
828.289	45.42
828.674	45.39
829.06	45.41
829.445	45.44
829.83	45.47
830.216	45.45
830.601	45.48
830.986	45.49
831.371	45.53
831.756	45.49
832.141	45.5
832.526	45.5
832.911	45.56
833.295	45.58
833.68	45.57
834.065	45.58
834.449	45.58
834.834	45.58
835.218	45.54
835.603	45.51
835.987	45.53
836.371	45.55
836.755	45.53
837.139	45.53
837.524	45.49
837.908	45.48
838.291	45.5
838.675	45.52
839.059	45.54
839.443	45.56
839.827	45.57
840.21	45.59
840.594	45.61
840.977	45.61
841.361	45.6
841.744	45.64
842.127	45.65
842.511	45.65
842.894	45.61
843.277	45.65
843.66	45.63
844.043	45.62
844.426	45.6
844.809	45.58
845.191	45.6
845.574	45.62
845.957	45.58
846.339	45.58
846.722	45.57
847.104	45.6
847.487	45.58
847.869	45.57
848.252	45.59
848.634	45.6
849.016	45.59
849.398	45.58
849.78	45.57
850.162	45.59
850.544	45.59
850.926	45.56
851.307	45.56
851.689	45.52
852.071	45.56
852.452	45.57
852.834	45.57
853.215	45.57
853.597	45.59
853.978	45.54
854.359	45.51
854.741	45.5
855.122	45.51
855.503	45.52
855.884	45.53
856.265	45.49
856.646	45.45
857.026	45.44
857.407	45.43
857.788	45.43
858.169	45.43
858.549	45.49
858.93	45.49
859.31	45.47
859.69	45.45
860.071	45.47
860.451	45.49
860.831	45.5
861.211	45.5
861.591	45.49
861.971	45.47
862.351	45.48
862.731	45.42
863.111	45.43
863.491	45.45
863.87	45.45
864.25	45.42
864.629	45.41
865.009	45.4
865.388	45.39
865.768	45.38
866.147	45.37
866.526	45.4
866.905	45.42
867.284	45.43
867.663	45.41
868.042	45.4
868.421	45.39
868.8	45.39
869.179	45.4
869.558	45.39
869.936	45.41
870.315	45.42
870.693	45.4
871.072	45.37
871.45	45.35
871.828	45.35
872.207	45.37
872.585	45.36
872.963	45.37
873.341	45.4
873.719	45.41
874.097	45.43
874.475	45.45
874.853	45.43
875.23	45.43
875.608	45.45
875.986	45.47
876.363	45.44
876.741	45.47
877.118	45.44
877.495	45.45
877.873	45.44
878.25	45.42
878.627	45.4
879.004	45.41
879.381	45.41
879.758	45.39
880.135	45.41
880.512	45.44
880.889	45.45
881.265	45.48
881.642	45.48
882.019	45.48
882.395	45.5
882.772	45.48
883.148	45.46
883.524	45.48
883.901	45.51
884.277	45.48
884.653	45.49
885.029	45.49
885.405	45.45
885.781	45.46
886.157	45.47
886.532	45.49
886.908	45.53
887.284	45.59
887.659	45.62
888.035	45.62
888.411	45.64
888.786	45.63
889.161	45.64
889.537	45.65
889.912	45.63
890.287	45.6
890.662	45.57
891.037	45.53
891.412	45.49
891.787	45.44
892.162	45.41
892.536	45.39
892.911	45.38
893.286	45.34
893.66	45.34
894.035	45.33
894.409	45.35
894.784	45.33
895.158	45.33
895.532	45.34
895.906	45.35
896.281	45.34
896.655	45.34
897.029	45.34
897.402	45.32
897.776	45.31
898.15	45.29
898.524	45.24
898.898	45.21
899.271	45.19
899.645	45.15
900.018	45.12
900.392	45.13
900.765	45.1
901.138	45.11
901.511	45.1
901.884	45.1
902.258	45.11
902.631	45.12
903.003	45.14
903.376	45.15
903.749	45.18
904.122	45.19
904.495	45.18
904.867	45.17
905.24	45.14
905.612	45.13
905.985	45.09
906.357	45.07
906.729	45.07
907.102	45.1
907.474	45.09
907.846	45.04
908.218	45.02
908.59	44.99
908.962	45.01
909.334	45.02
909.705	45.01
910.077	45.02
910.449	45.03
910.82	44.99
911.192	44.95
911.563	44.95
911.935	44.94
912.306	44.94
912.677	44.97
913.048	44.93
913.419	44.92
913.79	44.91
914.161	44.92
914.532	44.95
914.903	44.96
915.274	44.96
915.645	44.96
916.015	44.96
916.386	44.95
916.756	44.9
917.127	44.94
917.497	44.94
917.868	44.94
918.238	44.96
918.608	44.95
918.978	44.94
919.348	44.93
919.718	44.91
920.088	44.92
920.458	45
920.828	45.04
921.198	45.02
921.567	45.02
921.937	45.06
922.306	45.05
922.676	45.02
923.045	45.05
923.415	45.06
923.784	45.1
924.153	45.1
924.522	45.06
924.891	45.05
925.26	45.03
925.629	45.03
925.998	44.99
926.367	45.01
926.736	45.01
927.104	44.99
927.473	44.99
927.842	44.94
928.21	44.91
928.578	44.87
928.947	44.88
929.315	44.88
929.683	44.86
930.051	44.84
930.42	44.78
930.788	44.79
931.156	44.78
931.523	44.72
931.891	44.7
932.259	44.69
932.627	44.64
932.994	44.58
933.362	44.5
933.729	44.47
934.097	44.45
934.464	44.43
934.831	44.3
935.199	44.26
935.566	44.21
935.933	44.19
936.3	44.14
936.667	44.11
937.034	44.1
937.401	44.11
937.767	44.04
938.134	43.97
938.501	43.92
938.867	44.02
939.234	44.01
939.6	44.02
939.967	43.99
940.333	43.96
940.699	43.99
941.065	43.97
941.431	43.97
941.798	44.05
942.163	44.05
942.529	44.06
942.895	43.95
943.261	43.94
943.627	43.94
943.992	43.9
944.358	43.93
944.723	43.91
945.089	43.9
945.454	43.92
945.82	43.86
946.185	43.97
946.55	44.03
946.915	44.08
947.28	44.03
947.645	44.04
948.01	44.09
948.375	44.15
948.74	44.09
949.104	44.15
949.469	44.08
949.834	44.08
950.198	44
950.562	43.95
950.927	43.87
951.291	43.88
951.655	43.81
952.02	43.73
952.384	43.71
952.748	43.77
953.112	43.78
953.476	43.78
953.839	43.75
954.203	43.68
954.567	43.66
954.931	43.72
955.294	43.7
955.658	43.68
956.021	43.73
956.385	43.74
956.748	43.72
957.111	43.62
957.474	43.63
957.837	43.67
958.2	43.68
958.563	43.64
958.926	43.57
959.289	43.59
959.652	43.65
960.015	43.66
960.377	43.66
960.74	43.63
961.102	43.65
961.465	43.64
961.827	43.59
962.189	43.55
962.552	43.49
962.914	43.48
963.276	43.49
963.638	43.42
964	43.31
964.362	43.29
964.724	43.33
965.085	43.29
965.447	43.24
965.809	43.24
966.17	43.32
966.532	43.44
966.893	43.5
967.255	43.45
967.616	43.49
967.977	43.5
968.338	43.4
968.699	43.34
969.061	43.35
969.421	43.42
969.782	43.45
970.143	43.46
970.504	43.43
970.865	43.38
971.225	43.37
971.586	43.41
971.946	43.47
972.307	43.52
972.667	43.55
973.027	43.59
973.388	43.54
973.748	43.52
974.108	43.42
974.468	43.38
974.828	43.39
975.188	43.42
975.548	43.35
975.907	43.34
976.267	43.3
976.627	43.31
976.986	43.25
977.346	43.22
977.705	43.22
978.064	43.27
978.424	43.26
978.783	43.26
979.142	43.27
979.501	43.24
979.86	43.25
980.219	43.14
980.578	43.07
980.937	43.11
981.296	43.15
981.654	43.19
982.013	43.2
982.371	43.22
982.73	43.14
983.088	43.07
983.447	43.09
983.805	43.03
984.163	43.17
984.521	43.18
984.879	43.17
985.237	43.18
985.595	43.13
985.953	43.09
986.311	43.16
986.669	43.19
987.026	43.2
987.384	43.19
987.741	43.26
988.099	43.19
988.456	43.23
988.814	43.21
989.171	43.13
989.528	43.08
989.885	43.06
990.242	42.92
990.599	43.01
990.956	43.02
991.313	43.05
991.67	43.02
992.027	43.12
992.383	43.1
992.74	43.06
993.096	42.99
993.453	42.96
993.809	42.89
994.165	42.82
994.522	42.83
994.878	42.75
995.234	42.72
995.59	42.64
995.946	42.52
996.302	42.44
996.658	42.45
997.013	42.58
997.369	42.63
997.725	42.69
998.08	42.75
998.436	42.63
998.791	42.71
999.147	42.69
999.502	42.76
999.857	42.83
1000.212	42.82
1000.567	42.73
1000.922	42.68
1001.277	42.58
1001.632	42.68
1001.987	42.75
1002.342	42.65
1002.696	42.51
1003.051	42.31
1003.406	42.34
1003.76	42.27
1004.114	42.34
1004.469	42.21
1004.823	42.34
1005.177	42.39
1005.531	42.05
1005.885	41.96
1006.239	42.02
1006.593	42
1006.947	42.14
1007.301	41.99
1007.655	42.03
1008.008	41.87
1008.362	42.03
1008.715	41.75
1009.069	41.62
1009.422	41.83
1009.776	41.68
1010.129	41.66
1010.482	41.92
1010.835	41.83
1011.188	41.77
1011.541	41.53
1011.894	41.7
1012.247	41.75
1012.6	41.84
1012.952	41.88
1013.305	41.56
1013.657	41.64
1014.01	41.84
1014.362	41.63
1014.715	41.69
1015.067	41.81
1015.419	42.01
1015.771	42.03
1016.123	41.88
1016.475	41.77
1016.827	41.84
1017.179	41.93
1017.531	41.93
1017.883	41.9
1018.234	41.92
1018.586	41.76
1018.938	41.35
1019.289	41.22
1019.64	41.03
1019.992	41.07
1020.343	41.05
1020.694	40.85
1021.045	40.65
1021.396	40.68
1021.747	40.34
1022.098	40.32
1022.449	40.35
1022.8	40.58
1023.151	40.29
1023.501	40.09
1023.852	40.14
1024.202	40.12
1024.553	40.14
1024.903	40.39
1025.253	40.28
1025.604	40.08
1025.954	39.75
1026.304	40.08
1026.654	40.35
1027.004	40.54
1027.354	40.53
1027.703	40.26
1028.053	39.92
1028.403	40.22
1028.753	40.6
1029.102	40.48
1029.452	40.61
1029.801	40.67
1030.15	40.44
1030.499	40.03
897.758	766.39
901.051	769.99
904.343	780.26
907.636	765.36
910.928	750.08
914.22	766.88
917.511	752.32
920.803	719.87
924.094	688.11
927.384	691.74
930.675	670.64
933.965	663.46
937.255	662.37
940.544	632.11
943.834	604.05
947.123	596.81
950.411	558.34
953.7	547.61
956.988	531.39
960.276	507.66
963.563	499.36
966.851	472.48
970.138	462.55
973.424	432
976.711	423.54
979.997	410.39
983.283	400.19
986.568	389.87
989.853	376.53
993.138	362.23
996.423	358.45
999.708	346.72
1002.992	347.62
1006.275	336.84
1009.559	333.9
1012.842	323.46
1016.125	311.75
1019.408	306.14
1022.69	301.67
1025.972	300.07
1029.254	291.27
1032.536	285.42
1035.817	276.02
1039.098	270.82
1042.379	264.92
1045.659	260.59
1048.939	260.19
1052.219	255.74
1055.498	249.68
1058.778	244.9
1062.057	240.13
1065.335	239.3
1068.614	234.49
1071.892	231.69
1075.17	225.48
1078.447	222.38
1081.724	220.49
1085.001	215.34
1088.278	213.43
1091.554	212.83
1094.83	212.63
1098.106	207.71
1101.382	206.96
1104.657	206.29
1107.932	205.74
1111.206	205.47
1114.481	201.55
1117.755	199.77
1121.029	198.93
1124.302	196.21
1127.575	192.35
1130.848	191.03
1134.121	188.76
1137.393	187.67
1140.665	185.77
1143.937	183.26
1147.208	181.15
1150.48	180.11
1153.75	178.67
1157.021	175.68
1160.291	175.64
1163.561	175.85
1166.831	173.93
1170.101	174.09
1173.37	171.49
1176.639	170.06
1179.907	169.91
1183.176	168.81
1186.444	169.85
1189.711	169.2
1192.979	171.16
1196.246	171.19
1199.513	169.53
1202.78	170.52
1206.046	170.27
1209.312	171.84
1212.578	173
1215.843	175.87
1219.108	177.63
1222.373	180.46
1225.638	183.09
1228.902	188.01
1232.166	194.05
1235.43	197.96
1238.693	203.61
1241.956	208.75
1245.219	215.28
1248.482	216.85
1251.744	215.51
1255.006	215.38
1258.268	210.25
1261.529	208.4
1264.79	202.52
1268.051	197.92
1271.312	195.65
1274.572	190.64
1277.832	185.68
1281.092	182.11
1284.351	178.26
1287.61	178.02
1290.869	177.34
1294.128	175.89
1297.386	175.37
1300.644	174.13
1303.902	173.6
1307.159	172.5
1310.416	173.76
1313.673	176.6
1316.93	178.74
1320.186	181.31
1323.442	184.34
1326.697	188.87
1329.953	190.41
1333.208	197.91
1336.463	207.49
1339.717	211.67
1342.972	223.89
1346.226	230.59
1349.479	232.67
1352.733	243.32
1355.986	249.22
1359.238	254.07
1362.491	257.41
1365.743	267.4
1368.995	269.03
1372.247	265.59
1375.498	265.46
1378.749	273.98
1382	273.55
1385.251	272.86
1388.501	271.43
1391.751	275.02
1395	274.43
1398.25	275.46
1401.499	276.61
1404.748	275.66
1407.996	270.97
1411.244	270.84
1414.492	266.66
1417.74	258.86
1420.987	254.43
1424.234	250.78
1427.481	241.9
1430.728	235.14
1433.974	226.85
1437.22	218.78
1440.465	210.73
1443.711	205.23
1446.956	200.1
1450.201	191.32
1453.445	183.29
1456.689	177.41
1459.933	171.83
1463.177	163.55
1466.42	160.36
1469.663	154.88
1472.906	150.33
1476.148	146.57
1479.391	142.68
1482.633	139.62
1485.874	136.39
1489.115	134.88
1492.356	131.79
1495.597	129.78
1498.838	128.9
1502.078	127.25
1505.318	126.92
1508.557	126.07
1511.797	124
1515.036	123.49
1518.274	122.21
1521.513	121.23
1524.751	120.21
1527.989	121.06
1531.227	119.94
1534.464	119.69
1537.701	118.54
1540.938	117.73
1544.174	117.61
1547.41	117.21
1550.646	116.86
1553.882	116.63
1557.117	115.74
1560.352	115.64
1563.587	113.94
1566.821	113.64
1570.055	112.74
1573.289	112.18
1576.523	112.87
1579.756	111.65
1582.989	111.73
1586.222	111.52
1589.454	110.83
1592.686	110.86
1595.918	110.48
1599.15	110.31
1602.381	110.78
1605.612	110.89
1608.843	111.22
1612.073	110.7
1615.303	111.03
1618.533	111
1621.762	111.02
1624.992	111.74
1628.221	111.38
1631.449	111.77
1634.678	111.66
1637.906	111.43
1641.134	111.9
1644.361	111.62
1647.588	112.2
1650.815	112.31
1654.042	112.62
1657.269	112.02
1660.495	112.5
1663.72	112.87
1666.946	112.8
1670.171	113.73
1673.396	114.43
1676.621	114.27
1679.845	114.58
1683.069	113.9
1686.293	114.06
1689.517	114.19
1692.74	114.86
1695.963	114.84
1699.185	115.57
1702.408	115.5
1705.63	115.96
1708.852	116.41
1712.073	116.17
1715.294	116.13
1718.515	116.88
1721.736	117.06
1724.956	116.88
1728.176	116.97
1731.396	117.71
1734.616	117.39
1737.835	118.11
1741.054	117.63
1744.272	117.24
1747.491	117.74
1750.709	119
1753.927	119.38
1757.144	119.38
1760.361	120.28
1763.578	120.56
1766.795	120.84
1770.011	121.71
1773.227	122.05
1776.443	123.17
1779.658	124.14
1782.874	125.19
1786.089	125.25
1789.303	125.57
1792.518	126.98
1795.732	127.93
1798.945	129.9
1802.159	129.78
1805.372	131.42
1808.585	132.77
1811.797	134.09
1815.01	134.63
1818.222	135.48
1821.434	136.89
1824.645	137.57
1827.856	139.88
1831.067	140.24
1834.278	141.2
1837.488	142.85
1840.698	143.91
1843.908	144.23
1847.117	145.89
1850.326	147.28
1853.535	148.16
1856.744	150.06
1859.952	152.45
1863.16	152.63
1866.368	152.77
1869.575	154.53
1872.782	154.2
1875.989	154.21
1879.196	153.67
1882.402	153.47
1885.608	154.78
1888.814	155.57
1892.019	156.95
1895.224	155.14
1898.429	156.84
1901.634	158.26
1904.838	159.18
1908.042	161.36
1911.246	161.04
1914.449	163.19
1917.652	162.28
1920.855	162.73
1924.058	161.69
1927.26	160.99
1930.462	162.13
1933.664	161.62
1936.865	162.63
1940.066	160.17
1943.267	159.2
1946.467	160.17
1949.668	160.26
1952.868	161.15
1956.067	160.72
1959.267	161.04
1962.466	162.28
1965.665	163.09
1968.863	163.48
1972.061	164.39
1975.259	167.12
1978.457	168.48
1981.654	170.33
1984.852	171.64
1988.048	173.33
1991.245	175.99
1994.441	181.03
1997.637	182.94
2000.833	187.41
2004.028	188.61
2007.223	193.28
2010.418	198.11
2013.613	206.05
2016.807	210.9
2020.001	215.58
2023.194	220.41
2026.388	228.2
2029.581	238.16
2032.774	247.15
2035.966	254.57
2039.158	262.65
2042.35	266.93
2045.542	271.23
2048.733	284.21
2051.924	285.69
2055.115	290.22
2058.306	294.5
2061.496	300.36
2064.686	300.46
2067.875	296.97
2071.065	298.63
2074.254	299.84
2077.442	309.3
2080.631	312.68
2083.819	310.95
2087.007	319.43
2090.195	324.41
2093.382	323.87
2096.569	322.68
2099.756	329.67
2102.942	338.11
2106.128	346.8
2109.314	348.15
2112.5	347.24
2115.685	346.95
2118.87	346.23
2122.055	348.8
2125.239	355.53
2128.424	366.52
2131.608	364.74
2134.791	364.24
2137.974	364.91
2141.157	367.02
2144.34	372.33
2147.523	376.23
2150.705	384.26
2153.887	383.31
2157.068	386.3
2160.25	389.29
2163.431	386.63
2166.611	392.88
2169.792	399.2
2172.972	406.18
2176.152	405.12
2179.331	414.44
2182.511	417.88
2185.69	424.41
2188.868	439.14
2192.047	449.42
2195.225	455.39
2198.403	463.98
2201.58	460.44
2204.758	473.74
2207.935	477.24
2211.111	487.47
2214.288	489.3
2217.464	494.14
2220.64	495.71
2223.815	499.29
2226.991	489.22
2230.166	493.94
2233.34	509.39
2236.515	523.06
2239.689	516.11
2242.863	526.13
2246.036	519.15
2249.209	536.01
2252.382	535.32
2255.555	555.23
2258.727	556.11
2261.9	582.32
2265.071	588.82
2268.243	578.2
2271.414	597.7
2274.585	613.37
2277.756	610.1
2280.926	639.07
2284.096	635.45
2287.266	638.38
2290.436	625.98
2293.605	640.99
2296.774	659.36
2299.942	656.51
2303.111	685.21
2306.279	692.93
2309.447	694.6
2312.614	699.41
2315.781	717.65
2318.948	721.34
2322.115	738.17
2325.281	776.21
2328.447	771.36
2331.613	772.66
2334.779	791.83
2337.944	794.33
2341.109	814.72
2344.274	824.16
2347.438	845.78
2350.602	854.44
2353.766	915.48
2356.929	917.1
2360.092	929.7
2363.255	933.71
2366.418	948.12
2369.58	971.74
2372.742	969.66
2375.904	960.87
2379.066	987.67
2382.227	1039.68
2385.388	1049.04
2388.548	992.14
2391.709	984.23
2394.869	1013.1
2398.029	1016.55
2401.188	1014.49
2404.347	1040.42
2407.506	1081.11
2410.665	1045.01
2413.823	1046.54
2416.981	1050.29
2420.139	984.39
2423.296	1069.02
2426.453	1136.92
2429.61	1087.78
2432.767	1163.17
2435.923	1205.15
2439.079	1155.97
2442.235	1182.06
2445.391	1205.49
2448.546	1201.93
2451.701	1278.03
2454.855	1374.54
2458.009	1202.25
2461.163	1225.33
2464.317	1230.66
2467.471	1208.23
2470.624	1252.51
2473.777	1226.68
2476.929	1188.6
2480.082	1270.51
2483.234	1328.86
2486.385	1341.15
2489.537	1368.87
2492.688	1525.59
2495.839	1480.79
2498.989	1532.46
2502.14	1528.68
2505.29	1453.95
2508.439	1634.45
2511.589	1672.61
2514.738	1629.93
2517.887	1612.09
2521.035	1503.56
2524.183	1488.06
2527.331	1466.83
2530.479	1447.9
2533.627	1480.01
