Data from N_2_dec_on_6n_057_Splice17_20.txt Node
Date: Sat Feb 29 14:00:24 EST 2020
User: sa697716
Spectrometer: FLMS03696
Trigger mode: 0
Integration Time (sec): 3.180400E-1
Scans to average: 20
Electric dark correction enabled: true
Nonlinearity correction enabled: true
Boxcar width: 5
XAxis mode: Wavelengths
Number of Pixels in Spectrum: 2048
>>>>>Begin Spectral Data<<<<<
187.83	112.16
188.298	116.27
188.766	115.49
189.233	106.01
189.701	110.29
190.169	111.24
190.636	103.74
191.104	100.8
191.571	142.55
192.039	156.39
192.506	6.65
192.974	-124.69
193.441	473.36
193.908	29.45
194.375	5.78
194.842	76.86
195.31	73
195.777	24.25
196.244	20.45
196.711	14.31
197.177	10.77
197.644	11.74
198.111	11.62
198.578	12.35
199.045	12.51
199.511	12.71
199.978	13.1
200.445	13.31
200.911	14.04
201.378	14.29
201.844	14.66
202.31	15.61
202.777	16.36
203.243	16.92
203.709	17.62
204.176	17.77
204.642	17.71
205.108	17.7
205.574	18.2
206.04	17.96
206.506	17.69
206.972	17.85
207.438	17.73
207.903	17.58
208.369	17.32
208.835	17.26
209.301	17.36
209.766	17.73
210.232	17.84
210.697	17.74
211.163	17.75
211.628	17.67
212.094	17.54
212.559	17.23
213.024	16.86
213.49	17.13
213.955	17.08
214.42	16.79
214.885	16.42
215.35	16.45
215.815	16.16
216.28	16.22
216.745	16.2
217.21	16.16
217.675	16.15
218.14	15.95
218.604	15.5
219.069	15.31
219.534	15.26
219.998	15.09
220.463	14.93
220.927	14.82
221.392	14.62
221.856	14.42
222.32	14.21
222.785	14.04
223.249	13.94
223.713	13.84
224.177	13.66
224.642	13.56
225.106	13.43
225.57	13.27
226.034	13.15
226.497	13.01
226.961	12.91
227.425	12.77
227.889	12.67
228.353	12.53
228.816	12.43
229.28	12.3
229.744	12.17
230.207	12.08
230.671	11.98
231.134	11.84
231.597	11.73
232.061	11.62
232.524	11.54
232.987	11.43
233.45	11.34
233.914	11.24
234.377	11.17
234.84	11.08
235.303	10.96
235.766	10.86
236.229	10.76
236.691	10.68
237.154	10.59
237.617	10.49
238.08	10.4
238.542	10.3
239.005	10.2
239.468	10.1
239.93	10.01
240.393	9.94
240.855	9.87
241.317	9.8
241.78	9.73
242.242	9.66
242.704	9.59
243.166	9.54
243.629	9.46
244.091	9.4
244.553	9.34
245.015	9.27
245.477	9.21
245.939	9.15
246.4	9.09
246.862	9.03
247.324	8.99
247.786	8.93
248.247	8.87
248.709	8.83
249.17	8.78
249.632	8.73
250.093	8.67
250.555	8.63
251.016	8.6
251.477	8.55
251.939	8.51
252.4	8.46
252.861	8.43
253.322	8.4
253.783	8.38
254.244	8.34
254.705	8.33
255.166	8.3
255.627	8.27
256.088	8.22
256.549	8.21
257.009	8.17
257.47	8.14
257.931	8.1
258.391	8.06
258.852	8.02
259.312	7.99
259.773	7.96
260.233	7.92
260.694	7.89
261.154	7.87
261.614	7.83
262.074	7.81
262.534	7.77
262.994	7.74
263.455	7.72
263.915	7.7
264.374	7.67
264.834	7.65
265.294	7.62
265.754	7.6
266.214	7.58
266.673	7.57
267.133	7.55
267.593	7.53
268.052	7.52
268.512	7.5
268.971	7.48
269.431	7.46
269.89	7.45
270.349	7.45
270.809	7.44
271.268	7.43
271.727	7.42
272.186	7.4
272.645	7.39
273.104	7.37
273.563	7.36
274.022	7.35
274.481	7.34
274.94	7.31
275.399	7.29
275.857	7.27
276.316	7.24
276.775	7.22
277.233	7.2
277.692	7.19
278.15	7.17
278.609	7.14
279.067	7.12
279.525	7.1
279.984	7.08
280.442	7.06
280.9	7.05
281.358	7.04
281.816	7.02
282.274	7
282.732	6.99
283.19	6.97
283.648	6.96
284.106	6.95
284.564	6.94
285.021	6.94
285.479	6.93
285.937	6.91
286.394	6.89
286.852	6.89
287.309	6.88
287.767	6.88
288.224	6.87
288.682	6.87
289.139	6.87
289.596	6.86
290.053	6.84
290.511	6.83
290.968	6.82
291.425	6.8
291.882	6.79
292.339	6.77
292.796	6.76
293.252	6.74
293.709	6.73
294.166	6.7
294.623	6.69
295.079	6.69
295.536	6.68
295.992	6.67
296.449	6.67
296.905	6.65
297.362	6.65
297.818	6.64
298.274	6.63
298.731	6.62
299.187	6.62
299.643	6.61
300.099	6.61
300.555	6.58
301.011	6.58
301.467	6.57
301.923	6.57
302.379	6.57
302.835	6.57
303.291	6.55
303.746	6.55
304.202	6.53
304.658	6.53
305.113	6.52
305.569	6.53
306.024	6.52
306.479	6.51
306.935	6.51
307.39	6.5
307.845	6.5
308.301	6.5
308.756	6.5
309.211	6.5
309.666	6.51
310.121	6.51
310.576	6.51
311.031	6.5
311.486	6.5
311.94	6.5
312.395	6.5
312.85	6.5
313.305	6.5
313.759	6.5
314.214	6.5
314.668	6.49
315.123	6.49
315.577	6.49
316.032	6.49
316.486	6.48
316.94	6.48
317.394	6.47
317.849	6.46
318.303	6.46
318.757	6.45
319.211	6.43
319.665	6.44
320.119	6.44
320.572	6.44
321.026	6.42
321.48	6.43
321.934	6.42
322.387	6.42
322.841	6.41
323.295	6.4
323.748	6.41
324.202	6.4
324.655	6.4
325.108	6.38
325.562	6.37
326.015	6.36
326.468	6.35
326.921	6.34
327.374	6.34
327.827	6.33
328.28	6.32
328.733	6.3
329.186	6.3
329.639	6.28
330.092	6.27
330.545	6.28
330.997	6.28
331.45	6.27
331.903	6.27
332.355	6.26
332.808	6.28
333.26	6.27
333.713	6.28
334.165	6.29
334.617	6.3
335.069	6.29
335.522	6.3
335.974	6.3
336.426	6.3
336.878	6.3
337.33	6.31
337.782	6.29
338.234	6.29
338.686	6.28
339.137	6.27
339.589	6.26
340.041	6.27
340.493	6.25
340.944	6.24
341.396	6.24
341.847	6.24
342.299	6.22
342.75	6.22
343.201	6.21
343.653	6.2
344.104	6.19
344.555	6.19
345.006	6.17
345.457	6.17
345.908	6.16
346.359	6.15
346.81	6.15
347.261	6.13
347.712	6.12
348.163	6.12
348.613	6.12
349.064	6.1
349.515	6.08
349.965	6.08
350.416	6.08
350.866	6.08
351.317	6.07
351.767	6.06
352.217	6.05
352.668	6.06
353.118	6.06
353.568	6.06
354.018	6.07
354.468	6.07
354.918	6.08
355.368	6.07
355.818	6.07
356.268	6.07
356.718	6.07
357.168	6.06
357.617	6.06
358.067	6.06
358.517	6.05
358.966	6.05
359.416	6.05
359.865	6.05
360.315	6.05
360.764	6.05
361.213	6.04
361.663	6.05
362.112	6.06
362.561	6.06
363.01	6.07
363.459	6.08
363.908	6.08
364.357	6.09
364.806	6.09
365.255	6.09
365.703	6.1
366.152	6.11
366.601	6.11
367.05	6.12
367.498	6.13
367.947	6.12
368.395	6.13
368.844	6.13
369.292	6.12
369.74	6.13
370.189	6.13
370.637	6.13
371.085	6.14
371.533	6.15
371.981	6.16
372.429	6.15
372.877	6.16
373.325	6.15
373.773	6.18
374.221	6.2
374.669	6.2
375.116	6.22
375.564	6.22
376.012	6.23
376.459	6.25
376.907	6.27
377.354	6.28
377.801	6.3
378.249	6.32
378.696	6.33
379.143	6.34
379.591	6.35
380.038	6.37
380.485	6.38
380.932	6.4
381.379	6.39
381.826	6.41
382.273	6.42
382.72	6.43
383.166	6.44
383.613	6.45
384.06	6.46
384.506	6.49
384.953	6.5
385.4	6.51
385.846	6.52
386.292	6.56
386.739	6.57
387.185	6.61
387.631	6.63
388.078	6.65
388.524	6.67
388.97	6.69
389.416	6.68
389.862	6.7
390.308	6.72
390.754	6.73
391.2	6.74
391.645	6.76
392.091	6.77
392.537	6.77
392.983	6.79
393.428	6.81
393.874	6.83
394.319	6.85
394.765	6.86
395.21	6.87
395.655	6.88
396.101	6.89
396.546	6.9
396.991	6.9
397.436	6.9
397.881	6.9
398.326	6.91
398.771	6.92
399.216	6.94
399.661	6.95
400.106	6.97
400.551	6.97
400.995	6.97
401.44	6.95
401.885	6.96
402.329	6.97
402.774	6.97
403.218	6.96
403.663	6.96
404.107	6.95
404.551	6.96
404.995	6.95
405.44	6.95
405.884	6.95
406.328	6.97
406.772	6.98
407.216	6.97
407.66	6.97
408.104	6.98
408.547	6.99
408.991	6.98
409.435	6.96
409.879	6.96
410.322	6.96
410.766	6.96
411.209	6.95
411.653	6.93
412.096	6.92
412.54	6.92
412.983	6.91
413.426	6.9
413.869	6.91
414.312	6.92
414.756	6.93
415.199	6.93
415.642	6.95
416.085	6.96
416.527	6.99
416.97	7
417.413	7
417.856	7
418.298	6.99
418.741	6.97
419.184	6.96
419.626	6.93
420.069	6.93
420.511	6.91
420.953	6.9
421.396	6.88
421.838	6.88
422.28	6.89
422.722	6.91
423.164	6.92
423.606	6.93
424.048	6.92
424.49	6.94
424.932	6.93
425.374	6.93
425.816	6.92
426.258	6.9
426.699	6.87
427.141	6.85
427.582	6.84
428.024	6.83
428.465	6.82
428.907	6.83
429.348	6.82
429.789	6.82
430.231	6.82
430.672	6.83
431.113	6.85
431.554	6.88
431.995	6.89
432.436	6.88
432.877	6.88
433.318	6.88
433.759	6.88
434.2	6.88
434.64	6.87
435.081	6.84
435.522	6.86
435.962	6.84
436.403	6.83
436.843	6.82
437.284	6.8
437.724	6.82
438.164	6.83
438.604	6.83
439.045	6.84
439.485	6.88
439.925	6.9
440.365	6.89
440.805	6.9
441.245	6.9
441.685	6.93
442.125	6.95
442.564	6.96
443.004	6.98
443.444	6.98
443.883	7
444.323	7
444.762	7.03
445.202	7.08
445.641	7.11
446.081	7.14
446.52	7.13
446.959	7.15
447.398	7.19
447.837	7.22
448.276	7.24
448.716	7.27
449.154	7.3
449.593	7.31
450.032	7.31
450.471	7.32
450.91	7.33
451.349	7.35
451.787	7.35
452.226	7.33
452.664	7.32
453.103	7.31
453.541	7.3
453.98	7.28
454.418	7.27
454.856	7.25
455.295	7.24
455.733	7.24
456.171	7.25
456.609	7.25
457.047	7.27
457.485	7.28
457.923	7.3
458.361	7.29
458.798	7.3
459.236	7.3
459.674	7.31
460.111	7.31
460.549	7.3
460.987	7.29
461.424	7.3
461.862	7.29
462.299	7.29
462.736	7.29
463.173	7.29
463.611	7.28
464.048	7.3
464.485	7.3
464.922	7.28
465.359	7.29
465.796	7.28
466.233	7.27
466.67	7.26
467.106	7.26
467.543	7.25
467.98	7.25
468.416	7.24
468.853	7.23
469.29	7.23
469.726	7.24
470.162	7.24
470.599	7.25
471.035	7.26
471.471	7.27
471.907	7.3
472.344	7.3
472.78	7.29
473.216	7.3
473.652	7.3
474.088	7.3
474.523	7.3
474.959	7.29
475.395	7.29
475.831	7.29
476.266	7.28
476.702	7.25
477.138	7.24
477.573	7.23
478.008	7.23
478.444	7.24
478.879	7.25
479.314	7.26
479.75	7.26
480.185	7.27
480.62	7.25
481.055	7.25
481.49	7.26
481.925	7.26
482.36	7.25
482.795	7.23
483.229	7.22
483.664	7.22
484.099	7.21
484.534	7.21
484.968	7.21
485.403	7.22
485.837	7.21
486.271	7.22
486.706	7.22
487.14	7.24
487.574	7.26
488.009	7.29
488.443	7.3
488.877	7.33
489.311	7.34
489.745	7.37
490.179	7.4
490.613	7.43
491.046	7.46
491.48	7.48
491.914	7.52
492.348	7.55
492.781	7.57
493.215	7.6
493.648	7.63
494.082	7.67
494.515	7.7
494.948	7.72
495.382	7.77
495.815	7.81
496.248	7.89
496.681	7.94
497.114	7.99
497.547	8.04
497.98	8.11
498.413	8.17
498.846	8.24
499.279	8.32
499.711	8.4
500.144	8.47
500.577	8.55
501.009	8.62
501.442	8.71
501.874	8.8
502.306	8.91
502.739	9
503.171	9.11
503.603	9.22
504.036	9.34
504.468	9.47
504.9	9.59
505.332	9.73
505.764	9.87
506.196	10.01
506.627	10.15
507.059	10.31
507.491	10.47
507.923	10.65
508.354	10.81
508.786	10.98
509.217	11.14
509.649	11.34
510.08	11.53
510.512	11.72
510.943	11.93
511.374	12.13
511.805	12.32
512.237	12.52
512.668	12.72
513.099	12.93
513.53	13.15
513.961	13.38
514.391	13.6
514.822	13.82
515.253	14.06
515.684	14.27
516.114	14.52
516.545	14.76
516.975	15.02
517.406	15.26
517.836	15.49
518.267	15.73
518.697	15.97
519.127	16.2
519.558	16.42
519.988	16.65
520.418	16.86
520.848	17.08
521.278	17.29
521.708	17.37
522.138	17.57
522.567	17.79
522.997	17.98
523.427	18.17
523.857	18.35
524.286	18.56
524.716	18.74
525.145	18.93
525.575	19.1
526.004	19.27
526.433	19.55
526.863	19.71
527.292	19.85
527.721	20.01
528.15	20.14
528.579	20.29
529.008	20.4
529.437	20.52
529.866	20.63
530.295	20.73
530.724	20.85
531.152	20.97
531.581	21.07
532.01	21.16
532.438	21.25
532.867	21.35
533.295	21.41
533.723	21.51
534.152	21.58
534.58	21.63
535.008	21.69
535.436	21.75
535.865	21.79
536.293	21.85
536.721	21.89
537.149	21.91
537.576	21.94
538.004	21.97
538.432	21.99
538.86	22.03
539.287	22.07
539.715	22.1
540.143	22.11
540.57	22.13
540.998	22.13
541.425	22.16
541.852	22.2
542.28	22.21
542.707	22.25
543.134	22.28
543.561	22.28
543.988	22.3
544.415	22.33
544.842	22.34
545.269	22.38
545.696	22.4
546.123	22.42
546.549	22.45
546.976	22.5
547.403	22.5
547.829	22.52
548.256	22.54
548.682	22.56
549.108	22.58
549.535	22.58
549.961	22.57
550.387	22.57
550.813	22.55
551.24	22.53
551.666	22.52
552.092	22.52
552.518	22.52
552.943	22.52
553.369	22.5
553.795	22.49
554.221	22.47
554.646	22.46
555.072	22.43
555.498	22.41
555.923	22.37
556.349	22.32
556.774	22.27
557.199	22.21
557.625	22.16
558.05	22.1
558.475	22.02
558.9	21.96
559.325	21.88
559.75	21.8
560.175	21.74
560.6	21.67
561.025	21.58
561.449	21.5
561.874	21.41
562.299	21.3
562.723	21.21
563.148	21.11
563.572	21.01
563.997	20.91
564.421	20.79
564.846	20.67
565.27	20.54
565.694	20.43
566.118	20.3
566.542	20.19
566.966	20.08
567.39	19.95
567.814	19.83
568.238	19.69
568.662	19.57
569.086	19.45
569.509	19.32
569.933	19.21
570.357	19.08
570.78	18.96
571.204	18.81
571.627	18.68
572.05	18.56
572.474	18.46
572.897	18.36
573.32	18.25
573.743	18.16
574.166	18.05
574.589	17.94
575.012	17.85
575.435	17.74
575.858	17.66
576.281	17.57
576.704	17.51
577.126	17.42
577.549	17.35
577.972	17.27
578.394	17.19
578.817	17.11
579.239	17.05
579.661	16.97
580.084	16.92
580.506	16.86
580.928	16.79
581.35	16.71
581.772	16.65
582.194	16.57
582.616	16.51
583.038	16.44
583.46	16.38
583.882	16.32
584.303	16.26
584.725	16.18
585.147	16.1
585.568	16.05
585.99	15.98
586.411	15.92
586.833	15.88
587.254	15.82
587.675	15.78
588.096	15.73
588.518	15.69
588.939	15.65
589.36	15.6
589.781	15.57
590.202	15.53
590.623	15.5
591.043	15.46
591.464	15.41
591.885	15.39
592.305	15.36
592.726	15.32
593.147	15.29
593.567	15.25
593.987	15.23
594.408	15.2
594.828	15.16
595.248	15.13
595.669	15.1
596.089	15.07
596.509	15.01
596.929	14.98
597.349	14.95
597.769	14.91
598.189	14.89
598.608	14.85
599.028	14.81
599.448	14.78
599.867	14.74
600.287	14.7
600.706	14.68
601.126	14.65
601.545	14.61
601.965	14.58
602.384	14.55
602.803	14.51
603.222	14.48
603.641	14.44
604.061	14.4
604.48	14.36
604.898	14.31
605.317	14.27
605.736	14.22
606.155	14.18
606.574	14.12
606.992	14.07
607.411	14.03
607.829	13.92
608.248	13.87
608.666	13.83
609.085	13.78
609.503	13.73
609.921	13.67
610.339	13.63
610.758	13.56
611.176	13.51
611.594	13.46
612.012	13.39
612.43	13.39
612.847	13.34
613.265	13.29
613.683	13.23
614.101	13.16
614.518	13.11
614.936	13.05
615.353	13.02
615.771	12.97
616.188	12.92
616.606	12.87
617.023	12.82
617.44	12.77
617.857	12.72
618.274	12.68
618.691	12.66
619.108	12.63
619.525	12.6
619.942	12.56
620.359	12.54
620.776	12.52
621.192	12.52
621.609	12.5
622.026	12.49
622.442	12.47
622.859	12.47
623.275	12.46
623.691	12.45
624.108	12.43
624.524	12.41
624.94	12.4
625.356	12.38
625.772	12.37
626.188	12.36
626.604	12.33
627.02	12.32
627.436	12.32
627.852	12.29
628.268	12.28
628.683	12.25
629.099	12.26
629.514	12.24
629.93	12.22
630.345	12.19
630.761	12.16
631.176	12.14
631.591	12.11
632.007	12.05
632.422	12.01
632.837	11.95
633.252	11.91
633.667	11.82
634.082	11.77
634.497	11.69
634.911	11.62
635.326	11.54
635.741	11.45
636.155	11.36
636.57	11.26
636.984	11.16
637.399	11.05
637.813	10.94
638.228	10.85
638.642	10.75
639.056	10.66
639.47	10.54
639.884	10.43
640.298	10.34
640.712	10.24
641.126	10.15
641.54	10.04
641.954	9.96
642.368	9.88
642.781	9.79
643.195	9.67
643.609	9.58
644.022	9.51
644.436	9.44
644.849	9.35
645.262	9.28
645.676	9.2
646.089	9.13
646.502	9.06
646.915	8.99
647.328	8.93
647.741	8.9
648.154	8.86
648.567	8.82
648.98	8.79
649.393	8.75
649.805	8.72
650.218	8.7
650.631	8.69
651.043	8.7
651.456	8.71
651.868	8.69
652.28	8.69
652.693	8.66
653.105	8.64
653.517	8.61
653.929	8.62
654.341	8.6
654.753	8.57
655.165	8.55
655.577	8.5
655.989	8.44
656.401	8.39
656.813	8.34
657.224	8.29
657.636	8.25
658.047	8.21
658.459	8.14
658.87	8.1
659.282	8.05
659.693	7.99
660.104	7.93
660.515	7.89
660.926	7.86
661.338	7.81
661.749	7.77
662.159	7.73
662.57	7.69
662.981	7.64
663.392	7.6
663.803	7.57
664.213	7.54
664.624	7.52
665.035	7.49
665.445	7.47
665.855	7.45
666.266	7.45
666.676	7.43
667.086	7.42
667.497	7.42
667.907	7.4
668.317	7.4
668.727	7.41
669.137	7.4
669.547	7.42
669.956	7.42
670.366	7.44
670.776	7.44
671.186	7.47
671.595	7.5
672.005	7.53
672.414	7.56
672.824	7.6
673.233	7.63
673.642	7.66
674.052	7.69
674.461	7.74
674.87	7.77
675.279	7.82
675.688	7.86
676.097	7.9
676.506	7.94
676.915	7.99
677.323	8.04
677.732	8.09
678.141	8.14
678.549	8.21
678.958	8.27
679.366	8.33
679.775	8.41
680.183	8.5
680.592	8.59
681	8.68
681.408	8.76
681.816	8.85
682.224	8.97
682.632	9.11
683.04	9.23
683.448	9.37
683.856	9.52
684.264	9.67
684.671	9.85
685.079	10.04
685.487	10.26
685.894	10.48
686.302	10.73
686.709	10.98
687.116	11.25
687.524	11.55
687.931	11.87
688.338	12.22
688.745	12.58
689.152	12.96
689.559	13.36
689.966	13.76
690.373	14.21
690.78	14.67
691.187	15.14
691.593	15.61
692	16.1
692.407	16.59
692.813	17.1
693.22	17.61
693.626	18.14
694.032	18.66
694.439	19.19
694.845	19.73
695.251	20.24
695.657	20.75
696.063	21.28
696.469	21.79
696.875	22.3
697.281	22.8
697.687	23.31
698.093	23.78
698.498	24.27
698.904	24.76
699.31	25.2
699.715	25.69
700.12	26.15
700.526	26.62
700.931	27.06
701.337	27.5
701.742	27.93
702.147	28.34
702.552	28.78
702.957	29.18
703.362	29.57
703.767	29.97
704.172	30.35
704.577	30.74
704.981	31.12
705.386	31.48
705.791	31.84
706.195	32.2
706.6	32.54
707.004	32.84
707.408	33.17
707.813	33.5
708.217	33.81
708.621	34.12
709.025	34.42
709.43	34.7
709.834	35
710.237	35.28
710.641	35.58
711.045	35.87
711.449	36.15
711.853	36.42
712.256	36.7
712.66	36.97
713.064	37.23
713.467	37.48
713.87	37.75
714.274	38.02
714.677	38.27
715.08	38.48
715.484	38.69
715.887	38.95
716.29	39.18
716.693	39.35
717.096	39.57
717.499	39.78
717.901	39.99
718.304	40.16
718.707	40.32
719.109	40.52
719.512	40.71
719.915	40.91
720.317	41.1
720.719	41.26
721.122	41.46
721.524	41.62
721.926	41.77
722.328	41.94
722.731	42.08
723.133	42.22
723.535	42.38
723.937	42.52
724.338	42.61
724.74	42.73
725.142	42.85
725.544	42.95
725.945	43.05
726.347	43.13
726.748	43.23
727.15	43.31
727.551	43.42
727.952	43.47
728.354	43.57
728.755	43.68
729.156	43.76
729.557	43.86
729.958	43.97
730.359	44.06
730.76	44.13
731.161	44.19
731.562	44.29
731.962	44.36
732.363	44.44
732.763	44.52
733.164	44.57
733.564	44.6
733.965	44.63
734.365	44.64
734.766	44.7
735.166	44.75
735.566	44.79
735.966	44.81
736.366	44.85
736.766	44.88
737.166	44.93
737.566	44.99
737.966	45.06
738.365	45.11
738.765	45.18
739.165	45.15
739.564	45.22
739.964	45.26
740.363	45.3
740.763	45.31
741.162	45.34
741.561	45.38
741.96	45.39
742.36	45.4
742.759	45.42
743.158	45.4
743.557	45.47
743.955	45.5
744.354	45.54
744.753	45.56
745.152	45.59
745.55	45.58
745.949	45.56
746.348	45.59
746.746	45.61
747.144	45.66
747.543	45.69
747.941	45.68
748.339	45.71
748.737	45.72
749.136	45.71
749.534	45.75
749.932	45.77
750.33	45.8
750.727	45.81
751.125	45.8
751.523	45.76
751.921	45.8
752.318	45.8
752.716	45.79
753.113	45.78
753.511	45.76
753.908	45.73
754.305	45.71
754.703	45.67
755.1	45.64
755.497	45.66
755.894	45.67
756.291	45.6
756.688	45.59
757.085	45.58
757.482	45.57
757.878	45.62
758.275	45.6
758.672	45.63
759.068	45.63
759.465	45.62
759.861	45.58
760.258	45.53
760.654	45.53
761.05	45.53
761.447	45.49
761.843	45.46
762.239	45.39
762.635	45.39
763.031	45.34
763.427	45.31
763.822	45.3
764.218	45.29
764.614	45.29
765.01	45.28
765.405	45.26
765.801	45.26
766.196	45.3
766.592	45.32
766.987	45.33
767.382	45.35
767.778	45.35
768.173	45.37
768.568	45.35
768.963	45.35
769.358	45.36
769.753	45.36
770.148	45.36
770.542	45.33
770.937	45.31
771.332	45.33
771.726	45.31
772.121	45.3
772.515	45.29
772.91	45.28
773.304	45.29
773.699	45.3
774.093	45.24
774.487	45.25
774.881	45.26
775.275	45.27
775.669	45.25
776.063	45.22
776.457	45.23
776.851	45.2
777.245	45.23
777.638	45.22
778.032	45.21
778.425	45.27
778.819	45.26
779.212	45.26
779.606	45.25
779.999	45.22
780.392	45.22
780.786	45.21
781.179	45.26
781.572	45.26
781.965	45.27
782.358	45.23
782.751	45.22
783.143	45.22
783.536	45.23
783.929	45.25
784.322	45.29
784.714	45.32
785.107	45.34
785.499	45.32
785.891	45.34
786.284	45.31
786.676	45.33
787.068	45.35
787.46	45.35
787.852	45.29
788.245	45.26
788.636	45.24
789.028	45.23
789.42	45.2
789.812	45.2
790.204	45.13
790.595	45.12
790.987	45.13
791.378	45.08
791.77	45.07
792.161	45.09
792.553	45.09
792.944	45.09
793.335	45.1
793.726	45.06
794.117	45.07
794.508	45.1
794.899	45.14
795.29	45.13
795.681	45.16
796.072	45.16
796.463	45.19
796.853	45.19
797.244	45.19
797.634	45.19
798.025	45.25
798.415	45.19
798.806	45.22
799.196	45.23
799.586	45.26
799.976	45.26
800.366	45.25
800.756	45.24
801.146	45.26
801.536	45.26
801.926	45.24
802.316	45.24
802.706	45.29
803.095	45.28
803.485	45.28
803.874	45.29
804.264	45.32
804.653	45.32
805.043	45.36
805.432	45.34
805.821	45.33
806.21	45.39
806.599	45.41
806.988	45.4
807.377	45.39
807.766	45.39
808.155	45.39
808.544	45.36
808.933	45.35
809.321	45.38
809.71	45.41
810.098	45.42
810.487	45.4
810.875	45.37
811.264	45.38
811.652	45.43
812.04	45.44
812.428	45.44
812.816	45.48
813.204	45.5
813.592	45.45
813.98	45.44
814.368	45.42
814.756	45.42
815.144	45.45
815.531	45.45
815.919	45.43
816.306	45.41
816.694	45.42
817.081	45.41
817.469	45.42
817.856	45.49
818.243	45.49
818.63	45.5
819.017	45.5
819.404	45.48
819.791	45.47
820.178	45.45
820.565	45.45
820.952	45.42
821.339	45.42
821.725	45.43
822.112	45.41
822.498	45.41
822.885	45.42
823.271	45.41
823.657	45.4
824.044	45.41
824.43	45.44
824.816	45.43
825.202	45.43
825.588	45.4
825.974	45.39
826.36	45.35
826.746	45.38
827.132	45.37
827.517	45.39
827.903	45.41
828.289	45.42
828.674	45.39
829.06	45.41
829.445	45.44
829.83	45.47
830.216	45.45
830.601	45.48
830.986	45.49
831.371	45.53
831.756	45.49
832.141	45.5
832.526	45.5
832.911	45.56
833.295	45.58
833.68	45.57
834.065	45.58
834.449	45.58
834.834	45.58
835.218	45.54
835.603	45.51
835.987	45.53
836.371	45.55
836.755	45.53
837.139	45.53
837.524	45.49
837.908	45.48
838.291	45.5
838.675	45.52
839.059	45.54
839.443	45.56
839.827	45.57
840.21	45.59
840.594	45.61
840.977	45.61
841.361	45.6
841.744	45.64
842.127	45.65
842.511	45.65
842.894	45.61
843.277	45.65
843.66	45.63
844.043	45.62
844.426	45.6
844.809	45.58
845.191	45.6
845.574	45.62
845.957	45.58
846.339	45.58
846.722	45.57
847.104	45.6
847.487	45.58
847.869	45.57
848.252	45.59
848.634	45.6
849.016	45.59
849.398	45.58
849.78	45.57
850.162	45.59
850.544	45.59
850.926	45.56
851.307	45.56
851.689	45.52
852.071	45.56
852.452	45.57
852.834	45.57
853.215	45.57
853.597	45.59
853.978	45.54
854.359	45.51
854.741	45.5
855.122	45.51
855.503	45.52
855.884	45.53
856.265	45.49
856.646	45.45
857.026	45.44
857.407	45.43
857.788	45.43
858.169	45.43
858.549	45.49
858.93	45.49
859.31	45.47
859.69	45.45
860.071	45.47
860.451	45.49
860.831	45.5
861.211	45.5
861.591	45.49
861.971	45.47
862.351	45.48
862.731	45.42
863.111	45.43
863.491	45.45
863.87	45.45
864.25	45.42
864.629	45.41
865.009	45.4
865.388	45.39
865.768	45.38
866.147	45.37
866.526	45.4
866.905	45.42
867.284	45.43
867.663	45.41
868.042	45.4
868.421	45.39
868.8	45.39
869.179	45.4
869.558	45.39
869.936	45.41
870.315	45.42
870.693	45.4
871.072	45.37
871.45	45.35
871.828	45.35
872.207	45.37
872.585	45.36
872.963	45.37
873.341	45.4
873.719	45.41
874.097	45.43
874.475	45.45
874.853	45.43
875.23	45.43
875.608	45.45
875.986	45.47
876.363	45.44
876.741	45.47
877.118	45.44
877.495	45.45
877.873	45.44
878.25	45.42
878.627	45.4
879.004	45.41
879.381	45.41
879.758	45.39
880.135	45.41
880.512	45.44
880.889	45.45
881.265	45.48
881.642	45.48
882.019	45.48
882.395	45.5
882.772	45.48
883.148	45.46
883.524	45.48
883.901	45.51
884.277	45.48
884.653	45.49
885.029	45.49
885.405	45.45
885.781	45.46
886.157	45.47
886.532	45.49
886.908	45.53
887.284	45.59
887.659	45.62
888.035	45.62
888.411	45.64
888.786	45.63
889.161	45.64
889.537	45.65
889.912	45.63
890.287	45.6
890.662	45.57
891.037	45.53
891.412	45.49
891.787	45.44
892.162	45.41
892.536	45.39
892.911	45.38
893.286	45.34
893.66	45.34
894.035	45.33
894.409	45.35
894.784	45.33
895.158	45.33
895.532	45.34
895.906	45.35
896.281	45.34
896.655	45.34
897.029	45.34
897.402	45.32
897.776	45.31
898.15	45.29
898.524	45.24
898.898	45.21
899.271	45.19
899.645	45.15
900.018	45.12
900.392	45.13
900.765	45.1
901.138	45.11
901.511	45.1
901.884	45.1
902.258	45.11
902.631	45.12
903.003	45.14
903.376	45.15
903.749	45.18
904.122	45.19
904.495	45.18
904.867	45.17
905.24	45.14
905.612	45.13
905.985	45.09
906.357	45.07
906.729	45.07
907.102	45.1
907.474	45.09
907.846	45.04
908.218	45.02
908.59	44.99
908.962	45.01
909.334	45.02
909.705	45.01
910.077	45.02
910.449	45.03
910.82	44.99
911.192	44.95
911.563	44.95
911.935	44.94
912.306	44.94
912.677	44.97
913.048	44.93
913.419	44.92
913.79	44.91
914.161	44.92
914.532	44.95
914.903	44.96
915.274	44.96
915.645	44.96
916.015	44.96
916.386	44.95
916.756	44.9
917.127	44.94
917.497	44.94
917.868	44.94
918.238	44.96
918.608	44.95
918.978	44.94
919.348	44.93
919.718	44.91
920.088	44.92
920.458	45
920.828	45.04
921.198	45.02
921.567	45.02
921.937	45.06
922.306	45.05
922.676	45.02
923.045	45.05
923.415	45.06
923.784	45.1
924.153	45.1
924.522	45.06
924.891	45.05
925.26	45.03
925.629	45.03
925.998	44.99
926.367	45.01
926.736	45.01
927.104	44.99
927.473	44.99
927.842	44.94
928.21	44.91
928.578	44.87
928.947	44.88
929.315	44.88
929.683	44.86
930.051	44.84
930.42	44.78
930.788	44.79
931.156	44.78
931.523	44.72
931.891	44.7
932.259	44.69
932.627	44.64
932.994	44.58
933.362	44.5
933.729	44.47
934.097	44.45
934.464	44.43
934.831	44.3
935.199	44.26
935.566	44.21
935.933	44.19
936.3	44.14
936.667	44.11
937.034	44.1
937.401	44.11
937.767	44.04
938.134	43.97
938.501	43.92
938.867	44.02
939.234	44.01
939.6	44.02
939.967	43.99
940.333	43.96
940.699	43.99
941.065	43.97
941.431	43.97
941.798	44.05
942.163	44.05
942.529	44.06
942.895	43.95
943.261	43.94
943.627	43.94
943.992	43.9
944.358	43.93
944.723	43.91
945.089	43.9
945.454	43.92
945.82	43.86
946.185	43.97
946.55	44.03
946.915	44.08
947.28	44.03
947.645	44.04
948.01	44.09
948.375	44.15
948.74	44.09
949.104	44.15
949.469	44.08
949.834	44.08
950.198	44
950.562	43.95
950.927	43.87
951.291	43.88
951.655	43.81
952.02	43.73
952.384	43.71
952.748	43.77
953.112	43.78
953.476	43.78
953.839	43.75
954.203	43.68
954.567	43.66
954.931	43.72
955.294	43.7
955.658	43.68
956.021	43.73
956.385	43.74
956.748	43.72
957.111	43.62
957.474	43.63
957.837	43.67
958.2	43.68
958.563	43.64
958.926	43.57
959.289	43.59
959.652	43.65
960.015	43.66
960.377	43.66
960.74	43.63
961.102	43.65
961.465	43.64
961.827	43.59
962.189	43.55
962.552	43.49
962.914	43.48
963.276	43.49
963.638	43.42
964	43.31
964.362	43.29
964.724	43.33
965.085	43.29
965.447	43.24
965.809	43.24
966.17	43.32
966.532	43.44
966.893	43.5
967.255	43.45
967.616	43.49
967.977	43.5
968.338	43.4
968.699	43.34
969.061	43.35
969.421	43.42
969.782	43.45
970.143	43.46
970.504	43.43
970.865	43.38
971.225	43.37
971.586	43.41
971.946	43.47
972.307	43.52
972.667	43.55
973.027	43.59
973.388	43.54
973.748	43.52
974.108	43.42
974.468	43.38
974.828	43.39
975.188	43.42
975.548	43.35
975.907	43.34
976.267	43.3
976.627	43.31
976.986	43.25
977.346	43.22
977.705	43.22
978.064	43.27
978.424	43.26
978.783	43.26
979.142	43.27
979.501	43.24
979.86	43.25
980.219	43.14
980.578	43.07
980.937	43.11
981.296	43.15
981.654	43.19
982.013	43.2
982.371	43.22
982.73	43.14
983.088	43.07
983.447	43.09
983.805	43.03
984.163	43.17
984.521	43.18
984.879	43.17
985.237	43.18
985.595	43.13
985.953	43.09
986.311	43.16
986.669	43.19
987.026	43.2
987.384	43.19
987.741	43.26
988.099	43.19
988.456	43.23
988.814	43.21
989.171	43.13
989.528	43.08
989.885	43.06
990.242	42.92
990.599	43.01
990.956	43.02
991.313	43.05
991.67	43.02
992.027	43.12
992.383	43.1
992.74	43.06
993.096	42.99
993.453	42.96
993.809	42.89
994.165	42.82
994.522	42.83
994.878	42.75
995.234	42.72
995.59	42.64
995.946	42.52
996.302	42.44
996.658	42.45
997.013	42.58
997.369	42.63
997.725	42.69
998.08	42.75
998.436	42.63
998.791	42.71
999.147	42.69
999.502	42.76
999.857	42.83
1000.212	42.82
1000.567	42.73
1000.922	42.68
1001.277	42.58
1001.632	42.68
1001.987	42.75
1002.342	42.65
1002.696	42.51
1003.051	42.31
1003.406	42.34
1003.76	42.27
1004.114	42.34
1004.469	42.21
1004.823	42.34
1005.177	42.39
1005.531	42.05
1005.885	41.96
1006.239	42.02
1006.593	42
1006.947	42.14
1007.301	41.99
1007.655	42.03
1008.008	41.87
1008.362	42.03
1008.715	41.75
1009.069	41.62
1009.422	41.83
1009.776	41.68
1010.129	41.66
1010.482	41.92
1010.835	41.83
1011.188	41.77
1011.541	41.53
1011.894	41.7
1012.247	41.75
1012.6	41.84
1012.952	41.88
1013.305	41.56
1013.657	41.64
1014.01	41.84
1014.362	41.63
1014.715	41.69
1015.067	41.81
1015.419	42.01
1015.771	42.03
1016.123	41.88
1016.475	41.77
1016.827	41.84
1017.179	41.93
1017.531	41.93
1017.883	41.9
1018.234	41.92
1018.586	41.76
1018.938	41.35
1019.289	41.22
1019.64	41.03
1019.992	41.07
1020.343	41.05
1020.694	40.85
1021.045	40.65
1021.396	40.68
1021.747	40.34
1022.098	40.32
1022.449	40.35
1022.8	40.58
1023.151	40.29
1023.501	40.09
1023.852	40.14
1024.202	40.12
1024.553	40.14
1024.903	40.39
1025.253	40.28
1025.604	40.08
1025.954	39.75
1026.304	40.08
1026.654	40.35
1027.004	40.54
1027.354	40.53
1027.703	40.26
1028.053	39.92
1028.403	40.22
1028.753	40.6
1029.102	40.48
1029.452	40.61
1029.801	40.67
1030.15	40.44
1030.499	40.03
897.758	766.05
901.051	773.69
904.343	785.57
907.636	773.06
910.928	755.37
914.22	770.65
917.511	754.88
920.803	722.79
924.094	691.74
927.384	696.09
930.675	674.43
933.965	669.2
937.255	666.25
940.544	634.92
943.834	602.16
947.123	595.89
950.411	558.71
953.7	547.54
956.988	530.93
960.276	505.02
963.563	498.83
966.851	470.8
970.138	461.58
973.424	430.7
976.711	423.59
979.997	411.46
983.283	401.63
986.568	390.44
989.853	377.95
993.138	364.85
996.423	360.51
999.708	348.75
1002.992	349.77
1006.275	338.81
1009.559	335.08
1012.842	324.12
1016.125	313.05
1019.408	307.61
1022.69	302.98
1025.972	300.89
1029.254	290.63
1032.536	285.38
1035.817	275.61
1039.098	270.3
1042.379	264.5
1045.659	261.16
1048.939	259.73
1052.219	255.23
1055.498	249.09
1058.778	244.67
1062.057	240.1
1065.335	239.7
1068.614	235.54
1071.892	231.97
1075.17	226.07
1078.447	223
1081.724	220.91
1085.001	215.78
1088.278	213.8
1091.554	213.3
1094.83	213.03
1098.106	207.85
1101.382	206.64
1104.657	206.01
1107.932	205.06
1111.206	204.99
1114.481	201.64
1117.755	199.96
1121.029	199.52
1124.302	196.95
1127.575	193.06
1130.848	191.65
1134.121	190.14
1137.393	189.44
1140.665	186.79
1143.937	184.94
1147.208	182.66
1150.48	181.26
1153.75	179.99
1157.021	177.02
1160.291	177.15
1163.561	176.86
1166.831	175.31
1170.101	174.84
1173.37	172.44
1176.639	171.17
1179.907	171.32
1183.176	170.16
1186.444	170.96
1189.711	170.12
1192.979	172.4
1196.246	172.34
1199.513	170.73
1202.78	171.23
1206.046	171.4
1209.312	172.71
1212.578	173.88
1215.843	176.31
1219.108	177.93
1222.373	180.72
1225.638	182.97
1228.902	187.41
1232.166	193.64
1235.43	197.93
1238.693	203.75
1241.956	209.26
1245.219	215.79
1248.482	216.99
1251.744	215.81
1255.006	216.73
1258.268	211.18
1261.529	209.94
1264.79	203.56
1268.051	198.97
1271.312	196.69
1274.572	191.49
1277.832	185.69
1281.092	182.87
1284.351	179.35
1287.61	179.18
1290.869	177.5
1294.128	176.34
1297.386	175.84
1300.644	175.61
1303.902	173.98
1307.159	173.34
1310.416	174.88
1313.673	177.89
1316.93	179.37
1320.186	182.57
1323.442	185.2
1326.697	190.22
1329.953	191.92
1333.208	199.66
1336.463	207.52
1339.717	212.66
1342.972	224.14
1346.226	230.42
1349.479	232.58
1352.733	243.61
1355.986	248.1
1359.238	253.34
1362.491	256.02
1365.743	265.78
1368.995	267.16
1372.247	265.15
1375.498	264.82
1378.749	273.24
1382	272.82
1385.251	272.58
1388.501	270.91
1391.751	275.06
1395	274.22
1398.25	276.36
1401.499	276.29
1404.748	275.25
1407.996	272.52
1411.244	273.26
1414.492	268.62
1417.74	261.83
1420.987	256.35
1424.234	253.56
1427.481	243.62
1430.728	237.18
1433.974	228.83
1437.22	221.02
1440.465	212.98
1443.711	206.49
1446.956	200.41
1450.201	191.98
1453.445	184.18
1456.689	178.2
1459.933	171.8
1463.177	164.38
1466.42	161.41
1469.663	155.47
1472.906	151.22
1476.148	147.02
1479.391	143.02
1482.633	140.09
1485.874	136.8
1489.115	134.86
1492.356	132.04
1495.597	130.01
1498.838	129.07
1502.078	126.99
1505.318	126.71
1508.557	125.67
1511.797	123.78
1515.036	123.15
1518.274	122.52
1521.513	121.72
1524.751	120.64
1527.989	121.61
1531.227	120.55
1534.464	120.27
1537.701	119.53
1540.938	118.82
1544.174	118.8
1547.41	118.39
1550.646	118
1553.882	117.59
1557.117	116.77
1560.352	116.68
1563.587	114.84
1566.821	114.72
1570.055	113.51
1573.289	113.01
1576.523	113.38
1579.756	112.28
1582.989	112.46
1586.222	112.3
1589.454	111.43
1592.686	111.24
1595.918	110.87
1599.15	110.85
1602.381	111.23
1605.612	111.68
1608.843	111.74
1612.073	111.53
1615.303	112.09
1618.533	111.68
1621.762	112
1624.992	112.35
1628.221	112.08
1631.449	112.54
1634.678	112.46
1637.906	112.03
1641.134	112.23
1644.361	112.04
1647.588	112.21
1650.815	112.16
1654.042	112.45
1657.269	112.12
1660.495	112.95
1663.72	113.06
1666.946	113.01
1670.171	113.86
1673.396	114.75
1676.621	114.79
1679.845	114.99
1683.069	114.48
1686.293	114.51
1689.517	114.9
1692.74	115.1
1695.963	115.05
1699.185	116.22
1702.408	115.57
1705.63	116.14
1708.852	116.47
1712.073	116
1715.294	116.06
1718.515	116.84
1721.736	116.99
1724.956	117.2
1728.176	117.09
1731.396	117.9
1734.616	117.56
1737.835	118.8
1741.054	117.81
1744.272	117.74
1747.491	118.61
1750.709	119.5
1753.927	120.19
1757.144	120.32
1760.361	120.87
1763.578	121.43
1766.795	121.74
1770.011	122.06
1773.227	122.58
1776.443	124
1779.658	124.57
1782.874	125.52
1786.089	125.46
1789.303	125.68
1792.518	126.76
1795.732	127.47
1798.945	129.54
1802.159	129.61
1805.372	131.31
1808.585	132.33
1811.797	133.85
1815.01	134.8
1818.222	135.5
1821.434	137.5
1824.645	138.4
1827.856	140.28
1831.067	141.18
1834.278	142.06
1837.488	143.7
1840.698	144.78
1843.908	145.3
1847.117	146.65
1850.326	147.87
1853.535	148.99
1856.744	150.47
1859.952	152.26
1863.16	153.15
1866.368	153.21
1869.575	154.71
1872.782	154.73
1875.989	154.62
1879.196	154.35
1882.402	153.71
1885.608	155.08
1888.814	155.57
1892.019	157
1895.224	155.5
1898.429	157.37
1901.634	159.07
1904.838	159.26
1908.042	160.83
1911.246	160.92
1914.449	162.5
1917.652	162.59
1920.855	163
1924.058	161.88
1927.26	161.46
1930.462	163.05
1933.664	162.03
1936.865	162.51
1940.066	160.73
1943.267	159.98
1946.467	161.4
1949.668	161.62
1952.868	162.09
1956.067	161.8
1959.267	162.38
1962.466	163.37
1965.665	164.11
1968.863	164.45
1972.061	164.94
1975.259	168.31
1978.457	168.82
1981.654	170.58
1984.852	171.86
1988.048	173.64
1991.245	176.56
1994.441	180.63
1997.637	183.65
2000.833	188.06
2004.028	189.75
2007.223	196.01
2010.418	200.12
2013.613	208.39
2016.807	213.26
2020.001	217.83
2023.194	221.84
2026.388	230.01
2029.581	241.08
2032.774	248.89
2035.966	256.22
2039.158	264.63
2042.35	268.06
2045.542	271.66
2048.733	284.41
2051.924	285.47
2055.115	290.84
2058.306	296.4
2061.496	301.31
2064.686	301.33
2067.875	297.64
2071.065	299.39
2074.254	300.77
2077.442	309.86
2080.631	313.38
2083.819	312.4
2087.007	322.05
2090.195	324.97
2093.382	326.01
2096.569	324.97
2099.756	331.41
2102.942	340.39
2106.128	348.72
2109.314	349.32
2112.5	349.28
2115.685	348.62
2118.87	348.42
2122.055	349.29
2125.239	357.27
2128.424	367.34
2131.608	364.1
2134.791	364.89
2137.974	364
2141.157	366.18
2144.34	371.17
2147.523	374.32
2150.705	383.29
2153.887	381.98
2157.068	385.51
2160.25	387.35
2163.431	384.52
2166.611	392.45
2169.792	397.99
2172.972	405.65
2176.152	404.95
2179.331	414.24
2182.511	417.41
2185.69	424.24
2188.868	439.05
2192.047	448.93
2195.225	455.74
2198.403	463.91
2201.58	460.11
2204.758	476.42
2207.935	481.16
2211.111	489.9
2214.288	492.74
2217.464	497.59
2220.64	499.41
2223.815	502.55
2226.991	495.32
2230.166	500.24
2233.34	515.19
2236.515	528.45
2239.689	518.34
2242.863	527.67
2246.036	522.9
2249.209	536.98
2252.382	539.36
2255.555	557.25
2258.727	558.42
2261.9	582.95
2265.071	591.01
2268.243	578.94
2271.414	598.89
2274.585	614.04
2277.756	611.39
2280.926	638.76
2284.096	638.05
2287.266	637.47
2290.436	624.26
2293.605	641.06
2296.774	659.05
2299.942	656.41
2303.111	685.33
2306.279	693.83
2309.447	694.33
2312.614	700.06
2315.781	717.02
2318.948	722.76
2322.115	739.99
2325.281	778.47
2328.447	771.56
2331.613	774.03
2334.779	791.11
2337.944	798.32
2341.109	817.65
2344.274	828.21
2347.438	852.08
2350.602	861.37
2353.766	920.94
2356.929	923.13
2360.092	936.56
2363.255	941.24
2366.418	953.22
2369.58	977.91
2372.742	969.17
2375.904	963.05
2379.066	990.63
2382.227	1042.69
2385.388	1050.74
2388.548	990.73
2391.709	978.56
2394.869	1012.07
2398.029	1019.2
2401.188	1016.58
2404.347	1040.88
2407.506	1085.82
2410.665	1046.98
2413.823	1050.18
2416.981	1053.35
2420.139	987.1
2423.296	1070.5
2426.453	1143.54
2429.61	1096.21
2432.767	1167.85
2435.923	1210.67
2439.079	1162.22
2442.235	1187.16
2445.391	1213.84
2448.546	1204.06
2451.701	1275.78
2454.855	1375.37
2458.009	1207.28
2461.163	1232.37
2464.317	1229.76
2467.471	1208.35
2470.624	1248.22
2473.777	1228.64
2476.929	1187.79
2480.082	1267.07
2483.234	1330.12
2486.385	1345.15
2489.537	1375.86
2492.688	1529.08
2495.839	1484.76
2498.989	1536.79
2502.14	1535.07
2505.29	1459.49
2508.439	1638.37
2511.589	1683.56
2514.738	1637.47
2517.887	1615.31
2521.035	1504.94
2524.183	1491.13
2527.331	1471.37
2530.479	1447.82
2533.627	1481.64
