Data from N_2_div_pa_2n_085_Splice17_01.txt Node
Date: Sat Feb 29 14:13:57 EST 2020
User: sa697716
Spectrometer: FLMS03696
Trigger mode: 0
Integration Time (sec): 3.180400E-1
Scans to average: 20
Electric dark correction enabled: true
Nonlinearity correction enabled: true
Boxcar width: 5
XAxis mode: Wavelengths
Number of Pixels in Spectrum: 2048
>>>>>Begin Spectral Data<<<<<
187.83	118.78
188.298	123.2
188.766	113.97
189.233	99.87
189.701	122.69
190.169	120.14
190.636	129.44
191.104	135.5
191.571	459.66
192.039	330.35
192.506	-381.15
192.974	-5743.55
193.441	503.03
193.908	31.89
194.375	-70.19
194.842	142.69
195.31	80.98
195.777	81.16
196.244	121.2
196.711	130.51
197.177	129.51
197.644	126.36
198.111	125.24
198.578	122
199.045	121.2
199.511	120.12
199.978	119.26
200.445	118.08
200.911	117.34
201.378	116.67
201.844	114.92
202.31	113.24
202.777	112.02
203.243	111.34
203.709	110.95
204.176	109.68
204.642	108.32
205.108	106.62
205.574	105.91
206.04	105.25
206.506	103.58
206.972	102.84
207.438	101.27
207.903	99.59
208.369	96.91
208.835	94.78
209.301	92.74
209.766	90.24
210.232	88.42
210.697	86.18
211.163	83.62
211.628	81.41
212.094	79.09
212.559	76.78
213.024	74.82
213.49	72.87
213.955	70.85
214.42	68.46
214.885	65.65
215.35	62
215.815	57.67
216.28	52.81
216.745	47.61
217.21	42.09
217.675	37.05
218.14	32.19
218.604	28.04
219.069	24.57
219.534	21.56
219.998	19.14
220.463	17.09
220.927	15.41
221.392	13.96
221.856	12.76
222.32	11.77
222.785	10.9
223.249	10.25
223.713	9.66
224.177	9.07
224.642	8.59
225.106	8.13
225.57	7.73
226.034	7.35
226.497	7.03
226.961	6.68
227.425	6.35
227.889	6.07
228.353	5.8
228.816	5.55
229.28	5.29
229.744	5.09
230.207	4.91
230.671	4.72
231.134	4.55
231.597	4.39
232.061	4.25
232.524	4.15
232.987	4.05
233.45	3.94
233.914	3.83
234.377	3.77
234.84	3.68
235.303	3.6
235.766	3.55
236.229	3.5
236.691	3.45
237.154	3.41
237.617	3.35
238.08	3.3
238.542	3.26
239.005	3.22
239.468	3.18
239.93	3.14
240.393	3.11
240.855	3.06
241.317	3.01
241.78	2.98
242.242	2.93
242.704	2.88
243.166	2.84
243.629	2.79
244.091	2.76
244.553	2.71
245.015	2.68
245.477	2.64
245.939	2.6
246.4	2.56
246.862	2.53
247.324	2.51
247.786	2.48
248.247	2.46
248.709	2.44
249.17	2.41
249.632	2.38
250.093	2.33
250.555	2.31
251.016	2.28
251.477	2.25
251.939	2.23
252.4	2.2
252.861	2.18
253.322	2.13
253.783	2.13
254.244	2.09
254.705	2.07
255.166	2.06
255.627	2.04
256.088	1.99
256.549	1.98
257.009	1.95
257.47	1.91
257.931	1.87
258.391	1.83
258.852	1.77
259.312	1.74
259.773	1.71
260.233	1.66
260.694	1.62
261.154	1.59
261.614	1.55
262.074	1.52
262.534	1.48
262.994	1.45
263.455	1.43
263.915	1.4
264.374	1.38
264.834	1.36
265.294	1.32
265.754	1.3
266.214	1.28
266.673	1.27
267.133	1.25
267.593	1.24
268.052	1.22
268.512	1.21
268.971	1.19
269.431	1.18
269.89	1.17
270.349	1.17
270.809	1.17
271.268	1.17
271.727	1.16
272.186	1.16
272.645	1.16
273.104	1.16
273.563	1.16
274.022	1.16
274.481	1.16
274.94	1.16
275.399	1.17
275.857	1.17
276.316	1.17
276.775	1.17
277.233	1.17
277.692	1.18
278.15	1.18
278.609	1.19
279.067	1.2
279.525	1.2
279.984	1.22
280.442	1.23
280.9	1.24
281.358	1.26
281.816	1.27
282.274	1.28
282.732	1.3
283.19	1.32
283.648	1.34
284.106	1.36
284.564	1.38
285.021	1.39
285.479	1.4
285.937	1.42
286.394	1.42
286.852	1.43
287.309	1.44
287.767	1.43
288.224	1.42
288.682	1.41
289.139	1.41
289.596	1.39
290.053	1.37
290.511	1.35
290.968	1.34
291.425	1.32
291.882	1.31
292.339	1.3
292.796	1.28
293.252	1.27
293.709	1.26
294.166	1.25
294.623	1.25
295.079	1.25
295.536	1.24
295.992	1.23
296.449	1.23
296.905	1.22
297.362	1.22
297.818	1.22
298.274	1.22
298.731	1.22
299.187	1.21
299.643	1.21
300.099	1.21
300.555	1.21
301.011	1.21
301.467	1.21
301.923	1.22
302.379	1.23
302.835	1.23
303.291	1.24
303.746	1.25
304.202	1.26
304.658	1.26
305.113	1.27
305.569	1.28
306.024	1.29
306.479	1.3
306.935	1.32
307.39	1.33
307.845	1.34
308.301	1.35
308.756	1.37
309.211	1.38
309.666	1.39
310.121	1.41
310.576	1.42
311.031	1.43
311.486	1.45
311.94	1.45
312.395	1.47
312.85	1.47
313.305	1.49
313.759	1.49
314.214	1.51
314.668	1.51
315.123	1.51
315.577	1.52
316.032	1.53
316.486	1.53
316.94	1.52
317.394	1.51
317.849	1.5
318.303	1.49
318.757	1.48
319.211	1.47
319.665	1.46
320.119	1.45
320.572	1.45
321.026	1.44
321.48	1.44
321.934	1.45
322.387	1.45
322.841	1.45
323.295	1.45
323.748	1.45
324.202	1.46
324.655	1.47
325.108	1.47
325.562	1.47
326.015	1.47
326.468	1.47
326.921	1.47
327.374	1.48
327.827	1.48
328.28	1.49
328.733	1.5
329.186	1.51
329.639	1.51
330.092	1.52
330.545	1.54
330.997	1.55
331.45	1.57
331.903	1.58
332.355	1.58
332.808	1.6
333.26	1.62
333.713	1.64
334.165	1.65
334.617	1.68
335.069	1.68
335.522	1.69
335.974	1.7
336.426	1.71
336.878	1.72
337.33	1.73
337.782	1.74
338.234	1.74
338.686	1.74
339.137	1.74
339.589	1.75
340.041	1.75
340.493	1.74
340.944	1.74
341.396	1.74
341.847	1.73
342.299	1.71
342.75	1.7
343.201	1.68
343.653	1.66
344.104	1.66
344.555	1.64
345.006	1.62
345.457	1.62
345.908	1.61
346.359	1.6
346.81	1.6
347.261	1.6
347.712	1.6
348.163	1.6
348.613	1.6
349.064	1.59
349.515	1.59
349.965	1.6
350.416	1.6
350.866	1.61
351.317	1.62
351.767	1.63
352.217	1.63
352.668	1.63
353.118	1.64
353.568	1.66
354.018	1.67
354.468	1.68
354.918	1.7
355.368	1.71
355.818	1.72
356.268	1.72
356.718	1.73
357.168	1.74
357.617	1.76
358.067	1.76
358.517	1.78
358.966	1.79
359.416	1.8
359.865	1.81
360.315	1.81
360.764	1.81
361.213	1.81
361.663	1.81
362.112	1.82
362.561	1.83
363.01	1.85
363.459	1.84
363.908	1.84
364.357	1.85
364.806	1.85
365.255	1.87
365.703	1.88
366.152	1.9
366.601	1.92
367.05	1.93
367.498	1.94
367.947	1.94
368.395	1.95
368.844	1.96
369.292	1.98
369.74	1.98
370.189	2
370.637	2.01
371.085	2.02
371.533	2.02
371.981	2.03
372.429	2.03
372.877	2.04
373.325	2.04
373.773	2.05
374.221	2.06
374.669	2.07
375.116	2.07
375.564	2.08
376.012	2.11
376.459	2.13
376.907	2.16
377.354	2.19
377.801	2.22
378.249	2.26
378.696	2.3
379.143	2.36
379.591	2.43
380.038	2.51
380.485	2.61
380.932	2.72
381.379	2.85
381.826	3.01
382.273	3.22
382.72	3.44
383.166	3.71
383.613	4.03
384.06	4.39
384.506	4.84
384.953	5.41
385.4	6.07
385.846	6.85
386.292	7.79
386.739	8.79
387.185	9.88
387.631	10.9
388.078	11.78
388.524	12.47
388.97	13.17
389.416	14.08
389.862	15.33
390.308	16.89
390.754	18.65
391.2	20.33
391.645	21.67
392.091	22.77
392.537	24.08
392.983	26.22
393.428	29.35
393.874	33.14
394.319	37.19
394.765	41.2
395.21	45.12
395.655	49.12
396.101	53.45
396.546	58.4
396.991	63.94
397.436	69.67
397.881	75.13
398.326	80.07
398.771	84.6
399.216	88.74
399.661	92.46
400.106	95.71
400.551	98.45
400.995	100.66
401.44	102.49
401.885	104.19
402.329	105.93
402.774	107.86
403.218	110.07
403.663	112.5
404.107	115.13
404.551	117.77
404.995	120.19
405.44	122.51
405.884	125.1
406.328	128.22
406.772	131.77
407.216	135.39
407.66	138.62
408.104	141.34
408.547	143.54
408.991	145.62
409.435	147.91
409.879	150.77
410.322	154.2
410.766	157.73
411.209	161
411.653	163.88
412.096	166.41
412.54	168.87
412.983	171.69
413.426	174.8
413.869	177.95
414.312	181.16
414.756	184.14
415.199	186.64
415.642	188.92
416.085	190.93
416.527	192.34
416.97	193.23
417.413	193.55
417.856	193.1
418.298	192.69
418.741	192.68
419.184	192.86
419.626	193.38
420.069	194.03
420.511	194.94
420.953	195.72
421.396	197.17
421.838	199.36
422.28	202.15
422.722	205.38
423.164	208.23
423.606	210.67
424.048	212.36
424.49	213.21
424.932	212.74
425.374	210.32
425.816	206.93
426.258	203.22
426.699	200.52
427.141	199.89
427.582	201.11
428.024	203.49
428.465	206.2
428.907	208.65
429.348	210.7
429.789	213.73
430.231	219.29
430.672	226.91
431.113	235.8
431.554	243.8
431.995	250
432.436	254.16
432.877	257.62
433.318	260.46
433.759	264.16
434.2	268.76
434.64	274.26
435.081	279.09
435.522	283.62
435.962	286.85
436.403	290.47
436.843	293.24
437.284	295.75
437.724	298.19
438.164	301.16
438.604	304.65
439.045	307.98
439.485	310.66
439.925	312.9
440.365	314.64
440.805	316.17
441.245	316.59
441.685	318.28
442.125	320.21
442.564	322.39
443.004	324.14
443.444	326.1
443.883	328.17
444.323	330.67
444.762	333.29
445.202	335.89
445.641	338.85
446.081	342.99
446.52	345.59
446.959	348.85
447.398	351.62
447.837	353.31
448.276	353.56
448.716	353.84
449.154	354.07
449.593	354.27
450.032	353.45
450.471	351.79
450.91	349.32
451.349	346.96
451.787	344.45
452.226	341.64
452.664	339.25
453.103	337.17
453.541	334.12
453.98	330.58
454.418	326.56
454.856	322.93
455.295	320.31
455.733	316.96
456.171	314.26
456.609	312.02
457.047	308.73
457.485	307.04
457.923	305.82
458.361	305.33
458.798	305.45
459.236	305.7
459.674	306.5
460.111	306.53
460.549	307.89
460.987	309.19
461.424	309.69
461.862	311.69
462.299	312.69
462.736	313.59
463.173	315.33
463.611	317.06
464.048	319.38
464.485	321.51
464.922	323.95
465.359	326.05
465.796	327.79
466.233	330.69
466.67	333.07
467.106	335.7
467.543	338.23
467.98	340.02
468.416	341.73
468.853	342.77
469.29	343.66
469.726	344.62
470.162	345.31
470.599	345.58
471.035	345.29
471.471	344.66
471.907	343.65
472.344	342.57
472.78	341.02
473.216	339.06
473.652	337.04
474.088	334.8
474.523	331.83
474.959	328.89
475.395	325.93
475.831	322.76
476.266	319.69
476.702	316.53
477.138	312.8
477.573	309.19
478.008	305.22
478.444	301.06
478.879	296.93
479.314	292.99
479.75	288.87
480.185	284.69
480.62	280.25
481.055	275.77
481.49	270.59
481.925	265.49
482.36	260.75
482.795	256.49
483.229	252.96
483.664	249.46
484.099	246.11
484.534	242.89
484.968	240.22
485.403	237.71
485.837	235.78
486.271	234.35
486.706	232.96
487.14	231.81
487.574	230.4
488.009	228.83
488.443	227.42
488.877	226.13
489.311	225.05
489.745	224
490.179	223.34
490.613	222.48
491.046	221.96
491.48	221.71
491.914	221.38
492.348	221.3
492.781	221.23
493.215	221.34
493.648	221.44
494.082	221.52
494.515	221.73
494.948	221.77
495.382	221.93
495.815	221.84
496.248	221.9
496.681	221.9
497.114	221.96
497.547	222.03
497.98	222.11
498.413	222.29
498.846	222.57
499.279	222.7
499.711	222.84
500.144	223.09
500.577	223.67
501.009	224.34
501.442	225.22
501.874	225.9
502.306	226.82
502.739	227.43
503.171	228.43
503.603	229.1
504.036	229.78
504.468	230.71
504.9	231.65
505.332	232.34
505.764	233.09
506.196	233.75
506.627	234.62
507.059	235.4
507.491	236.25
507.923	236.72
508.354	237.56
508.786	238.49
509.217	239.11
509.649	239.94
510.08	240.74
510.512	241.59
510.943	242.57
511.374	243.54
511.805	244.2
512.237	244.87
512.668	245.5
513.099	246.22
513.53	246.84
513.961	247.6
514.391	248.2
514.822	248.93
515.253	249.66
515.684	250.22
516.114	250.84
516.545	251.42
516.975	252.24
517.406	253.01
517.836	253.61
518.267	254.15
518.697	254.52
519.127	254.87
519.558	255.08
519.988	255.23
520.418	255.43
520.848	255.44
521.278	255.6
521.708	255.33
522.138	255.28
522.567	255.16
522.997	255.13
523.427	255.29
523.857	255.33
524.286	255.64
524.716	255.98
525.145	256.11
525.575	256.5
526.004	256.9
526.433	257.68
526.863	258.44
527.292	259.16
527.721	259.69
528.15	260.02
528.579	260.29
529.008	260.52
529.437	260.56
529.866	260.71
530.295	260.84
530.724	261.03
531.152	261.1
531.581	261.18
532.01	261.17
532.438	261.14
532.867	261.37
533.295	261.64
533.723	261.83
534.152	262
534.58	262.12
535.008	262.07
535.436	261.99
535.865	261.81
536.293	261.61
536.721	261.68
537.149	261.92
537.576	262.28
538.004	262.7
538.432	263.01
538.86	263.38
539.287	263.89
539.715	264.49
540.143	265.19
540.57	266.15
540.998	267.2
541.425	268.01
541.852	269.02
542.28	269.8
542.707	270.75
543.134	271.61
543.561	272.31
543.988	273.09
544.415	274.01
544.842	274.91
545.269	275.71
545.696	276.45
546.123	277.52
546.549	278.28
546.976	278.99
547.403	279.54
547.829	280.39
548.256	281.23
548.682	281.84
549.108	282.65
549.535	283.34
549.961	283.86
550.387	284.39
550.813	284.85
551.24	285.35
551.666	285.76
552.092	286.1
552.518	286.38
552.943	286.64
553.369	287.06
553.795	287.19
554.221	287.09
554.646	287.02
555.072	286.64
555.498	286.22
555.923	285.91
556.349	285.57
556.774	285.3
557.199	284.9
557.625	284.57
558.05	283.96
558.475	283.29
558.9	282.79
559.325	282.2
559.75	281.59
560.175	280.92
560.6	280.05
561.025	278.92
561.449	277.75
561.874	276.44
562.299	275.14
562.723	273.88
563.148	272.44
563.572	270.92
563.997	269.35
564.421	267.58
564.846	265.84
565.27	264.12
565.694	262.45
566.118	260.49
566.542	258.76
566.966	256.87
567.39	254.97
567.814	253.35
568.238	251.95
568.662	250.67
569.086	249.63
569.509	248.86
569.933	248.14
570.357	247.66
570.78	247.39
571.204	247.12
571.627	247.18
572.05	247.54
572.474	247.79
572.897	248.28
573.32	248.77
573.743	249.43
574.166	249.83
574.589	250.37
575.012	251.13
575.435	252.1
575.858	253.04
576.281	254.02
576.704	254.93
577.126	255.9
577.549	256.76
577.972	257.94
578.394	258.94
578.817	260
579.239	261.29
579.661	262.34
580.084	263.21
580.506	264.26
580.928	265.16
581.35	266.17
581.772	267.07
582.194	267.9
582.616	268.52
583.038	269.45
583.46	270.3
583.882	270.74
584.303	271.15
584.725	271.55
585.147	271.63
585.568	271.85
585.99	271.95
586.411	272.33
586.833	272.57
587.254	272.81
587.675	272.95
588.096	273.26
588.518	273.56
588.939	273.93
589.36	274.29
589.781	274.67
590.202	274.78
590.623	274.92
591.043	274.57
591.464	274.24
591.885	273.92
592.305	273.48
592.726	272.75
593.147	271.84
593.567	270.87
593.987	269.73
594.408	268.6
594.828	267.37
595.248	265.94
595.669	264.35
596.089	262.66
596.509	260.88
596.929	258.88
597.349	256.96
597.769	255.13
598.189	253.22
598.608	251.54
599.028	249.82
599.448	248.3
599.867	246.8
600.287	245.68
600.706	244.34
601.126	243.08
601.545	242.1
601.965	241.28
602.384	240.6
602.803	239.96
603.222	239.28
603.641	238.79
604.061	238.38
604.48	237.96
604.898	237.64
605.317	237.58
605.736	237.47
606.155	237.38
606.574	237.26
606.992	237.26
607.411	237.31
607.829	237.52
608.248	237.77
608.666	237.85
609.085	238.01
609.503	237.95
609.921	238.13
610.339	238.33
610.758	238.47
611.176	238.61
611.594	238.66
612.012	238.67
612.43	238.54
612.847	238.44
613.265	238.46
613.683	238.59
614.101	238.74
614.518	238.86
614.936	238.93
615.353	239.04
615.771	239.18
616.188	239.38
616.606	239.55
617.023	239.84
617.44	239.99
617.857	239.98
618.274	239.96
618.691	239.94
619.108	239.83
619.525	239.76
619.942	239.54
620.359	239.3
620.776	238.93
621.192	238.56
621.609	238.23
622.026	237.92
622.442	237.9
622.859	237.59
623.275	237.38
623.691	237.1
624.108	236.97
624.524	236.85
624.94	236.8
625.356	236.67
625.772	236.74
626.188	236.78
626.604	236.78
627.02	236.67
627.436	236.67
627.852	236.73
628.268	236.81
628.683	237
629.099	237.28
629.514	237.43
629.93	237.7
630.345	238.02
630.761	238.26
631.176	238.55
631.591	238.81
632.007	239.22
632.422	239.62
632.837	240.01
633.252	240.24
633.667	240.53
634.082	240.88
634.497	241.34
634.911	241.54
635.326	241.69
635.741	241.88
636.155	242.03
636.57	242.12
636.984	242.15
637.399	242.2
637.813	242.27
638.228	242.2
638.642	242.29
639.056	242.17
639.47	242.27
639.884	242.42
640.298	242.43
640.712	242.48
641.126	242.51
641.54	242.61
641.954	242.49
642.368	242.33
642.781	242.27
643.195	242.04
643.609	241.99
644.022	241.82
644.436	241.53
644.849	241.29
645.262	240.83
645.676	240.48
646.089	240.33
646.502	240.29
646.915	240.23
647.328	240.17
647.741	240.09
648.154	240.04
648.567	239.93
648.98	239.99
649.393	240.1
649.805	240.41
650.218	240.6
650.631	240.24
651.043	239.85
651.456	238.81
651.868	237.43
652.28	235.95
652.693	234.65
653.105	233.68
653.517	233
653.929	232.41
654.341	232.01
654.753	231.72
655.165	231.7
655.577	231.9
655.989	232.89
656.401	233.91
656.813	235.23
657.224	236.31
657.636	237.15
658.047	237.75
658.459	238.08
658.87	238.17
659.282	238.25
659.693	238.29
660.104	238.21
660.515	237.95
660.926	238.13
661.338	237.99
661.749	237.83
662.159	237.65
662.57	237.28
662.981	237.15
663.392	236.97
663.803	236.65
664.213	236.47
664.624	236.33
665.035	236.1
665.445	235.74
665.855	235.41
666.266	235.06
666.676	234.64
667.086	234.34
667.497	233.89
667.907	233.51
668.317	233.28
668.727	232.89
669.137	232.45
669.547	232.13
669.956	231.77
670.366	231.57
670.776	231.3
671.186	231.09
671.595	230.81
672.005	230.62
672.414	230.45
672.824	230.19
673.233	230.08
673.642	230.01
674.052	230.04
674.461	230.06
674.87	230
675.279	230.08
675.688	230.09
676.097	230.19
676.506	230.24
676.915	230.34
677.323	230.6
677.732	230.85
678.141	231.08
678.549	231.26
678.958	231.5
679.366	231.73
679.775	231.83
680.183	231.9
680.592	231.98
681	232.16
681.408	232.17
681.816	231.84
682.224	230.83
682.632	229.03
683.04	226.49
683.448	224.02
683.856	221.76
684.264	219.87
684.671	218.05
685.079	216.34
685.487	214.68
685.894	213.38
686.302	212.41
686.709	212.32
687.116	213.21
687.524	214.93
687.931	216.77
688.338	218.48
688.745	220.06
689.152	221.64
689.559	223.1
689.966	224.38
690.373	225.51
690.78	226.52
691.187	227.39
691.593	228.13
692	228.8
692.407	229.36
692.813	229.94
693.22	230.3
693.626	230.74
694.032	231.1
694.439	231.49
694.845	231.82
695.251	232.08
695.657	232.25
696.063	232.39
696.469	232.26
696.875	232.01
697.281	231.73
697.687	231.56
698.093	231.29
698.498	231.13
698.904	231.01
699.31	230.99
699.715	231.08
700.12	231.15
700.526	231.37
700.931	231.76
701.337	232.17
701.742	232.55
702.147	232.94
702.552	233.35
702.957	233.79
703.362	234.18
703.767	234.46
704.172	234.72
704.577	234.95
704.981	235.05
705.386	235.13
705.791	235.33
706.195	235.42
706.6	235.55
707.004	235.68
707.408	235.65
707.813	235.69
708.217	235.55
708.621	235.45
709.025	235.42
709.43	235.4
709.834	235.38
710.237	235.24
710.641	235.18
711.045	234.97
711.449	234.77
711.853	234.5
712.256	233.98
712.66	233.26
713.064	232.17
713.467	230.69
713.87	228.9
714.274	226.98
714.677	224.79
715.08	222.53
715.484	220.42
715.887	218.27
716.29	216.61
716.693	215.48
717.096	215.18
717.499	215.53
717.901	216.38
718.304	217.61
718.707	218.8
719.109	220.12
719.512	221.32
719.915	222.27
720.317	223.24
720.719	223.82
721.122	223.98
721.524	223.75
721.926	223.35
722.328	222.73
722.731	222.04
723.133	221.49
723.535	221.1
723.937	220.81
724.338	220.58
724.74	220.29
725.142	219.91
725.544	219.89
725.945	219.75
726.347	219.57
726.748	219.32
727.15	219.18
727.551	219.26
727.952	219.43
728.354	219.9
728.755	220.46
729.156	221.3
729.557	222.31
729.958	223.12
730.359	223.81
730.76	224.38
731.161	224.94
731.562	225.43
731.962	225.75
732.363	225.87
732.763	225.91
733.164	225.94
733.564	225.71
733.965	225.33
734.365	224.71
734.766	224.22
735.166	223.59
735.566	223.13
735.966	222.77
736.366	222.29
736.766	221.92
737.166	221.43
737.566	220.82
737.966	220.34
738.365	220
738.765	219.92
739.165	219.8
739.564	219.87
739.964	219.76
740.363	219.55
740.763	219.48
741.162	219.37
741.561	219.47
741.96	219.6
742.36	219.67
742.759	219.6
743.158	219.41
743.557	219.33
743.955	219.14
744.354	219.03
744.753	218.88
745.152	218.54
745.55	218.3
745.949	217.79
746.348	217.32
746.746	216.76
747.144	216.24
747.543	215.67
747.941	215.13
748.339	214.6
748.737	214.13
749.136	213.53
749.534	213.12
749.932	212.64
750.33	212.16
750.727	211.61
751.125	211.13
751.523	210.52
751.921	209.99
752.318	209.38
752.716	208.62
753.113	207.84
753.511	207.11
753.908	206.25
754.305	205.15
754.703	203.19
755.1	199.42
755.497	192.96
755.894	183.58
756.291	172.08
756.688	159.95
757.085	148.7
757.482	138.52
757.878	129.08
758.275	119.67
758.672	110.16
759.068	101.44
759.465	94.89
759.861	91.75
760.258	92.35
760.654	95.88
761.05	100.89
761.447	105.92
761.843	110.65
762.239	115.42
762.635	121.09
763.031	127.78
763.427	135.17
763.822	142.75
764.218	150.02
764.614	156.84
765.01	163.11
765.405	168.64
765.801	173.62
766.196	177.94
766.592	181.52
766.987	184.33
767.382	186.44
767.778	188.02
768.173	189.14
768.568	189.96
768.963	190.57
769.358	191.03
769.753	191.45
770.148	191.6
770.542	191.48
770.937	191.27
771.332	191.09
771.726	190.93
772.121	190.72
772.515	190.6
772.91	190.39
773.304	189.97
773.699	189.49
774.093	188.94
774.487	188.59
774.881	188.35
775.275	188.07
775.669	187.7
776.063	187.14
776.457	186.57
776.851	185.93
777.245	185.45
777.638	185.12
778.032	184.8
778.425	184.53
778.819	183.98
779.212	183.28
779.606	182.73
779.999	182.14
780.392	181.66
780.786	181.13
781.179	180.72
781.572	180.09
781.965	179.49
782.358	178.75
782.751	178.06
783.143	177.46
783.536	177
783.929	176.39
784.322	175.7
784.714	175.02
785.107	174.32
785.499	173.44
785.891	172.62
786.284	171.68
786.676	170.89
787.068	169.89
787.46	168.92
787.852	167.94
788.245	166.92
788.636	165.96
789.028	164.87
789.42	163.82
789.812	162.82
790.204	161.72
790.595	160.79
790.987	159.94
791.378	159.17
791.77	158.41
792.161	157.61
792.553	156.96
792.944	156.36
793.335	155.91
793.726	155.37
794.117	154.82
794.508	154.42
794.899	153.78
795.29	153.01
795.681	152.25
796.072	151.45
796.463	150.64
796.853	149.8
797.244	148.94
797.634	147.97
798.025	147.07
798.415	146.1
798.806	145.04
799.196	144.16
799.586	143.22
799.976	142.22
800.366	141.24
800.756	140.28
801.146	139.29
801.536	138.34
801.926	137.41
802.316	136.52
802.706	135.67
803.095	134.82
803.485	133.93
803.874	133.02
804.264	132.17
804.653	131.18
805.043	130.15
805.432	129.03
805.821	127.89
806.21	126.84
806.599	125.69
806.988	124.49
807.377	123.32
807.766	122.09
808.155	120.85
808.544	119.51
808.933	118.19
809.321	116.76
809.71	115.27
810.098	113.61
810.487	111.76
810.875	109.86
811.264	107.93
811.652	105.85
812.04	103.7
812.428	101.63
812.816	99.69
813.204	97.83
813.592	96.11
813.98	94.42
814.368	92.91
814.756	91.58
815.144	90.37
815.531	89.32
815.919	88.48
816.306	87.93
816.694	87.53
817.081	87.13
817.469	86.73
817.856	86.23
818.243	85.42
818.63	84.4
819.017	83.29
819.404	82.39
819.791	81.67
820.178	81.04
820.565	80.35
820.952	79.54
821.339	78.79
821.725	78.06
822.112	77.55
822.498	77.35
822.885	77.31
823.271	77.21
823.657	76.87
824.044	76.3
824.43	75.61
824.816	74.8
825.202	74.01
825.588	73.19
825.974	72.38
826.36	71.51
826.746	70.74
827.132	69.98
827.517	69.3
827.903	68.67
828.289	68.05
828.674	67.45
829.06	66.92
829.445	66.38
829.83	65.84
830.216	65.37
830.601	64.96
830.986	64.51
831.371	64.13
831.756	63.76
832.141	63.47
832.526	63.18
832.911	62.94
833.295	62.69
833.68	62.42
834.065	62.14
834.449	61.79
834.834	61.43
835.218	61.1
835.603	60.74
835.987	60.4
836.371	60.05
836.755	59.69
837.139	59.3
837.524	58.88
837.908	58.5
838.291	58.15
838.675	57.79
839.059	57.41
839.443	56.96
839.827	56.53
840.21	56.14
840.594	55.74
840.977	55.34
841.361	55
841.744	54.7
842.127	54.34
842.511	53.98
842.894	53.64
843.277	53.33
843.66	53.06
844.043	52.78
844.426	52.46
844.809	52.07
845.191	51.65
845.574	51.09
845.957	50.51
846.339	50.01
846.722	49.56
847.104	49.15
847.487	48.75
847.869	48.33
848.252	47.93
848.634	47.56
849.016	47.19
849.398	46.71
849.78	46.18
850.162	45.61
850.544	45.05
850.926	44.55
851.307	44.08
851.689	43.65
852.071	43.3
852.452	42.97
852.834	42.64
853.215	42.43
853.597	42.39
853.978	42.49
854.359	42.68
854.741	42.87
855.122	42.94
855.503	42.95
855.884	42.91
856.265	42.8
856.646	42.65
857.026	42.48
857.407	42.25
857.788	42.07
858.169	41.87
858.549	41.67
858.93	41.42
859.31	41.2
859.69	40.96
860.071	40.75
860.451	40.51
860.831	40.24
861.211	39.91
861.591	39.53
861.971	39
862.351	38.5
862.731	37.98
863.111	37.52
863.491	37.11
863.87	36.71
864.25	36.34
864.629	36
865.009	35.71
865.388	35.51
865.768	35.39
866.147	35.43
866.526	35.46
866.905	35.49
867.284	35.48
867.663	35.44
868.042	35.38
868.421	35.3
868.8	35.22
869.179	35.13
869.558	35.01
869.936	34.91
870.315	34.76
870.693	34.61
871.072	34.46
871.45	34.31
871.828	34.14
872.207	33.99
872.585	33.83
872.963	33.68
873.341	33.54
873.719	33.42
874.097	33.25
874.475	33.12
874.853	32.99
875.23	32.84
875.608	32.69
875.986	32.52
876.363	32.36
876.741	32.18
877.118	32.03
877.495	31.86
877.873	31.68
878.25	31.52
878.627	31.37
879.004	31.23
879.381	31.08
879.758	30.94
880.135	30.83
880.512	30.72
880.889	30.62
881.265	30.53
881.642	30.4
882.019	30.27
882.395	30.13
882.772	29.97
883.148	29.81
883.524	29.66
883.901	29.53
884.277	29.38
884.653	29.25
885.029	29.1
885.405	28.94
885.781	28.8
886.157	28.7
886.532	28.62
886.908	28.51
887.284	28.42
887.659	28.32
888.035	28.21
888.411	28.08
888.786	27.93
889.161	27.79
889.537	27.64
889.912	27.48
890.287	27.28
890.662	27.04
891.037	26.8
891.412	26.53
891.787	26.26
892.162	25.96
892.536	25.64
892.911	25.31
893.286	24.97
893.66	24.65
894.035	24.31
894.409	23.93
894.784	23.56
895.158	23.2
895.532	22.85
895.906	22.52
896.281	22.22
896.655	21.93
897.029	21.65
897.402	21.4
897.776	21.15
898.15	20.95
898.524	20.82
898.898	20.76
899.271	20.75
899.645	20.8
900.018	20.85
900.392	20.96
900.765	21.13
901.138	21.3
901.511	21.47
901.884	21.66
902.258	21.8
902.631	21.91
903.003	21.96
903.376	21.95
903.749	21.87
904.122	21.78
904.495	21.61
904.867	21.39
905.24	21.17
905.612	20.95
905.985	20.69
906.357	20.45
906.729	20.25
907.102	20.1
907.474	19.95
907.846	19.86
908.218	19.78
908.59	19.7
908.962	19.68
909.334	19.6
909.705	19.54
910.077	19.5
910.449	19.5
910.82	19.46
911.192	19.41
911.563	19.34
911.935	19.23
912.306	19.13
912.677	19.1
913.048	19.01
913.419	18.96
913.79	18.9
914.161	18.81
914.532	18.76
914.903	18.72
915.274	18.72
915.645	18.75
916.015	18.81
916.386	18.85
916.756	18.86
917.127	18.94
917.497	19.01
917.868	19.08
918.238	19.18
918.608	19.23
918.978	19.28
919.348	19.27
919.718	19.24
920.088	19.21
920.458	19.2
920.828	19.16
921.198	19.09
921.567	18.99
921.937	18.95
922.306	18.89
922.676	18.79
923.045	18.7
923.415	18.66
923.784	18.64
924.153	18.57
924.522	18.46
924.891	18.3
925.26	18.18
925.629	18.04
925.998	17.84
926.367	17.61
926.736	17.36
927.104	17.09
927.473	16.73
927.842	16.33
928.21	15.92
928.578	15.52
928.947	15.09
929.315	14.62
929.683	14.16
930.051	13.74
930.42	13.26
930.788	12.79
931.156	12.34
931.523	11.95
931.891	11.61
932.259	11.31
932.627	11.03
932.994	10.87
933.362	10.73
933.729	10.6
934.097	10.5
934.464	10.54
934.831	10.68
935.199	10.89
935.566	11.15
935.933	11.43
936.3	11.78
936.667	12.18
937.034	12.6
937.401	13.05
937.767	13.61
938.134	14.14
938.501	14.66
938.867	15.16
939.234	15.6
939.6	15.94
939.967	16.28
940.333	16.54
940.699	16.75
941.065	16.84
941.431	16.87
941.798	16.86
942.163	16.89
942.529	16.83
942.895	16.77
943.261	16.68
943.627	16.67
943.992	16.62
944.358	16.55
944.723	16.46
945.089	16.44
945.454	16.56
945.82	16.51
946.185	16.43
946.55	16.42
946.915	16.29
947.28	16.21
947.645	16.13
948.01	16.05
948.375	15.99
948.74	15.92
949.104	15.85
949.469	15.64
949.834	15.51
950.198	15.46
950.562	15.39
950.927	15.33
951.291	15.24
951.655	15.13
952.02	14.99
952.384	14.88
952.748	14.8
953.112	14.66
953.476	14.58
953.839	14.55
954.203	14.42
954.567	14.35
954.931	14.26
955.294	14.21
955.658	14.15
956.021	14.14
956.385	14.13
956.748	14.08
957.111	14.11
957.474	14.09
957.837	14.05
958.2	14.07
958.563	14.07
958.926	14.12
959.289	14.13
959.652	14.18
960.015	14.17
960.377	14.21
960.74	14.22
961.102	14.19
961.465	14.23
961.827	14.18
962.189	14.21
962.552	14.22
962.914	14.21
963.276	14.25
963.638	14.24
964	14.3
964.362	14.33
964.724	14.45
965.085	14.56
965.447	14.66
965.809	14.84
966.17	14.98
966.532	15.11
966.893	15.28
967.255	15.39
967.616	15.53
967.977	15.69
968.338	15.79
968.699	15.84
969.061	15.93
969.421	16.04
969.782	16.08
970.143	16.09
970.504	16.09
970.865	16.07
971.225	16.09
971.586	16.09
971.946	16.04
972.307	16.05
972.667	16.05
973.027	16.01
973.388	15.9
973.748	15.8
974.108	15.77
974.468	15.76
974.828	15.73
975.188	15.7
975.548	15.69
975.907	15.72
976.267	15.76
976.627	15.78
976.986	15.88
977.346	15.99
977.705	16.16
978.064	16.21
978.424	16.25
978.783	16.36
979.142	16.45
979.501	16.52
979.86	16.55
980.219	16.55
980.578	16.63
980.937	16.69
981.296	16.79
981.654	16.83
982.013	16.96
982.371	17.06
982.73	17.05
983.088	17.09
983.447	17.15
983.805	17.29
984.163	17.33
984.521	17.31
984.879	17.42
985.237	17.47
985.595	17.55
985.953	17.64
986.311	17.74
986.669	17.86
987.026	17.91
987.384	17.99
987.741	18.11
988.099	18.23
988.456	18.38
988.814	18.37
989.171	18.42
989.528	18.49
989.885	18.45
990.242	18.43
990.599	18.44
990.956	18.58
991.313	18.61
991.67	18.58
992.027	18.71
992.383	18.82
992.74	18.87
993.096	18.91
993.453	19.04
993.809	19.11
994.165	19.38
994.522	19.47
994.878	19.48
995.234	19.59
995.59	19.67
995.946	19.73
996.302	19.75
996.658	19.92
997.013	20.14
997.369	20.12
997.725	20.3
998.08	20.24
998.436	20.49
998.791	20.62
999.147	20.8
999.502	20.95
999.857	21.06
1000.212	21.09
1000.567	21.13
1000.922	21.08
1001.277	21.18
1001.632	21.34
1001.987	21.36
1002.342	21.36
1002.696	21.41
1003.051	21.36
1003.406	21.26
1003.76	21.32
1004.114	21.46
1004.469	21.43
1004.823	21.58
1005.177	21.77
1005.531	21.71
1005.885	21.92
1006.239	21.98
1006.593	22.11
1006.947	22.23
1007.301	22.52
1007.655	22.68
1008.008	22.89
1008.362	23.03
1008.715	23.12
1009.069	23.25
1009.422	23.47
1009.776	23.62
1010.129	23.79
1010.482	24.19
1010.835	24.46
1011.188	24.59
1011.541	24.6
1011.894	24.71
1012.247	24.85
1012.6	25.07
1012.952	25.17
1013.305	25.35
1013.657	25.5
1014.01	25.83
1014.362	25.93
1014.715	26
1015.067	26.34
1015.419	26.76
1015.771	27.05
1016.123	27.35
1016.475	27.81
1016.827	28.14
1017.179	28.37
1017.531	28.97
1017.883	29.29
1018.234	29.49
1018.586	29.87
1018.938	29.79
1019.289	29.68
1019.64	30.18
1019.992	30.57
1020.343	30.51
1020.694	30.59
1021.045	30.81
1021.396	30.88
1021.747	31.08
1022.098	31.61
1022.449	31.78
1022.8	32.12
1023.151	32.8
1023.501	32.74
1023.852	33.05
1024.202	33.42
1024.553	33.96
1024.903	34.32
1025.253	34.36
1025.604	34.42
1025.954	34.6
1026.304	35.37
1026.654	36.06
1027.004	36.56
1027.354	36.94
1027.703	37.3
1028.053	37.75
1028.403	37.96
1028.753	38.65
1029.102	39.3
1029.452	40.03
1029.801	40.25
1030.15	40.26
1030.499	40.33
897.758	357.67
901.051	356.22
904.343	363.86
907.636	357.01
910.928	351.71
914.22	361.26
917.511	350.06
920.803	335.2
924.094	321.51
927.384	323.74
930.675	315.57
933.965	310.7
937.255	315.44
940.544	301.44
943.834	284.34
947.123	281.98
950.411	265.98
953.7	264.46
956.988	256.38
960.276	245.18
963.563	244.35
966.851	234.77
970.138	229.96
973.424	214.91
976.711	211.55
979.997	209.95
983.283	202.9
986.568	197.5
989.853	192.03
993.138	186.18
996.423	185.93
999.708	179.37
1002.992	178.32
1006.275	175.25
1009.559	173.28
1012.842	169.54
1016.125	163.43
1019.408	161.84
1022.69	160.76
1025.972	160.33
1029.254	156.65
1032.536	153.39
1035.817	149.92
1039.098	148.06
1042.379	144.42
1045.659	143.39
1048.939	140.79
1052.219	140.15
1055.498	136.45
1058.778	133.64
1062.057	131.55
1065.335	131.55
1068.614	129.78
1071.892	127.98
1075.17	125.81
1078.447	124.55
1081.724	122.87
1085.001	121.24
1088.278	119.54
1091.554	120.61
1094.83	120.85
1098.106	118.58
1101.382	118.25
1104.657	118.57
1107.932	118.09
1111.206	117.98
1114.481	117.02
1117.755	115.82
1121.029	115.99
1124.302	114.9
1127.575	113.14
1130.848	111.93
1134.121	110.42
1137.393	110.4
1140.665	108.64
1143.937	107.24
1147.208	106.4
1150.48	105.31
1153.75	105.03
1157.021	104.23
1160.291	104.74
1163.561	104.38
1166.831	103.64
1170.101	104.31
1173.37	102.71
1176.639	101.83
1179.907	102.05
1183.176	101.82
1186.444	101.65
1189.711	101.57
1192.979	101.95
1196.246	101.46
1199.513	101.26
1202.78	101.25
1206.046	100.77
1209.312	101.52
1212.578	102.06
1215.843	103.89
1219.108	103.81
1222.373	106.04
1225.638	107.43
1228.902	109.25
1232.166	111.42
1235.43	112.52
1238.693	115.05
1241.956	118.55
1245.219	120.75
1248.482	121.95
1251.744	120.59
1255.006	120.71
1258.268	117.72
1261.529	116.71
1264.79	114.97
1268.051	112.87
1271.312	112.37
1274.572	111.2
1277.832	108.18
1281.092	106.74
1284.351	104.84
1287.61	104.51
1290.869	105.19
1294.128	104.97
1297.386	104.97
1300.644	103.92
1303.902	104.14
1307.159	102.71
1310.416	102.73
1313.673	103.86
1316.93	104.67
1320.186	106.52
1323.442	107.2
1326.697	108.22
1329.953	108.19
1333.208	110.17
1336.463	113.59
1339.717	115.35
1342.972	121
1346.226	123.7
1349.479	124.06
1352.733	129.19
1355.986	129.03
1359.238	131.95
1362.491	131.7
1365.743	137.37
1368.995	138.89
1372.247	136.58
1375.498	135.5
1378.749	138.64
1382	137.45
1385.251	137.07
1388.501	134.16
1391.751	136.37
1395	134.45
1398.25	135.53
1401.499	133.95
1404.748	132.11
1407.996	130.58
1411.244	130.8
1414.492	127.69
1417.74	125.04
1420.987	121.37
1424.234	120.7
1427.481	115.82
1430.728	113.82
1433.974	109.48
1437.22	106.6
1440.465	102.28
1443.711	99.88
1446.956	97.41
1450.201	92.89
1453.445	87.54
1456.689	85.44
1459.933	83.57
1463.177	80.21
1466.42	78.47
1469.663	76.41
1472.906	73.52
1476.148	71.2
1479.391	70.16
1482.633	68.57
1485.874	68.02
1489.115	68.34
1492.356	67.42
1495.597	65.53
1498.838	65.87
1502.078	65.27
1505.318	65.17
1508.557	65.02
1511.797	65.36
1515.036	65.3
1518.274	64.88
1521.513	64.43
1524.751	64.03
1527.989	64.72
1531.227	64.86
1534.464	65
1537.701	64.94
1540.938	64.55
1544.174	64.2
1547.41	64.92
1550.646	64.88
1553.882	64.85
1557.117	65.38
1560.352	65.73
1563.587	64.19
1566.821	64.4
1570.055	64.31
1573.289	64.54
1576.523	64.91
1579.756	64.92
1582.989	64.79
1586.222	64.68
1589.454	64.41
1592.686	64.54
1595.918	63.92
1599.15	64.88
1602.381	65.49
1605.612	65.53
1608.843	64.85
1612.073	65.62
1615.303	66.05
1618.533	65.77
1621.762	66.01
1624.992	66.52
1628.221	66.21
1631.449	66.95
1634.678	66.82
1637.906	66.14
1641.134	66.32
1644.361	66.97
1647.588	66.22
1650.815	66.55
1654.042	66.55
1657.269	66.36
1660.495	66.89
1663.72	67
1666.946	66.77
1670.171	67.38
1673.396	68.07
1676.621	67.79
1679.845	67.98
1683.069	68.3
1686.293	67.85
1689.517	68.05
1692.74	68.29
1695.963	67.91
1699.185	68.13
1702.408	68.43
1705.63	68
1708.852	68.58
1712.073	68.27
1715.294	68.3
1718.515	68.38
1721.736	68.67
1724.956	68.58
1728.176	68.4
1731.396	68.97
1734.616	68.92
1737.835	68.86
1741.054	68.46
1744.272	67.73
1747.491	68.1
1750.709	68.44
1753.927	68.3
1757.144	68.49
1760.361	68.94
1763.578	68.66
1766.795	68.78
1770.011	69.11
1773.227	69.1
1776.443	69.99
1779.658	70.05
1782.874	70.79
1786.089	70.06
1789.303	70.22
1792.518	71.15
1795.732	71.08
1798.945	72.59
1802.159	72.25
1805.372	72.5
1808.585	73.14
1811.797	73.39
1815.01	74.35
1818.222	74.5
1821.434	75.14
1824.645	75.62
1827.856	75.23
1831.067	76.03
1834.278	76.27
1837.488	77.04
1840.698	77.69
1843.908	77.73
1847.117	79.01
1850.326	78.58
1853.535	78.48
1856.744	80.06
1859.952	80.38
1863.16	80.9
1866.368	79.42
1869.575	79.86
1872.782	78.38
1875.989	77.03
1879.196	76.9
1882.402	75.54
1885.608	75.81
1888.814	75.64
1892.019	74.53
1895.224	73.38
1898.429	72.4
1901.634	73.41
1904.838	72.86
1908.042	74.09
1911.246	74.84
1914.449	74.88
1917.652	73.38
1920.855	73.21
1924.058	72.95
1927.26	72.48
1930.462	72.77
1933.664	73.38
1936.865	73.36
1940.066	71.5
1943.267	71.57
1946.467	71.67
1949.668	71.4
1952.868	72.42
1956.067	72.31
1959.267	73.04
1962.466	73.46
1965.665	73.92
1968.863	74.78
1972.061	75.76
1975.259	78.78
1978.457	78.48
1981.654	79.06
1984.852	79.85
1988.048	81.43
1991.245	83.28
1994.441	84.27
1997.637	86.62
2000.833	88.04
2004.028	87.95
2007.223	90.31
2010.418	90.78
2013.613	96.56
2016.807	99.37
2020.001	101
2023.194	106.01
2026.388	108.41
2029.581	112.56
2032.774	115.26
2035.966	119.32
2039.158	124.5
2042.35	123.92
2045.542	126.97
2048.733	128.98
2051.924	131.53
2055.115	133.25
2058.306	131.54
2061.496	133.06
2064.686	136.03
2067.875	134.58
2071.065	135.18
2074.254	134.89
2077.442	141.18
2080.631	141.59
2083.819	143.32
2087.007	144.58
2090.195	148.12
2093.382	147.98
2096.569	149
2099.756	151.42
2102.942	155.09
2106.128	158.68
2109.314	162.3
2112.5	161.83
2115.685	160.5
2118.87	159.95
2122.055	163.3
2125.239	164.69
2128.424	170.3
2131.608	167.85
2134.791	165.32
2137.974	165.24
2141.157	167.96
2144.34	166.37
2147.523	169.87
2150.705	175.29
2153.887	175.7
2157.068	174.2
2160.25	176.8
2163.431	175.73
2166.611	181.72
2169.792	186
2172.972	189.76
2176.152	189.14
2179.331	194.46
2182.511	194.71
2185.69	196.18
2188.868	203.27
2192.047	209.49
2195.225	215.21
2198.403	216.56
2201.58	211.56
2204.758	221.05
2207.935	219.66
2211.111	223.73
2214.288	222.9
2217.464	223.79
2220.64	229.97
2223.815	226.47
2226.991	224.08
2230.166	223.95
2233.34	231.31
2236.515	235.57
2239.689	230.18
2242.863	236.33
2246.036	235.03
2249.209	241.1
2252.382	242.73
2255.555	244.37
2258.727	248.74
2261.9	257.54
2265.071	259.34
2268.243	254.81
2271.414	267.82
2274.585	271.04
2277.756	270.79
2280.926	282.4
2284.096	284.72
2287.266	285.4
2290.436	281.75
2293.605	287
2296.774	293.56
2299.942	296.65
2303.111	307.67
2306.279	311.69
2309.447	312.07
2312.614	317.09
2315.781	319.03
2318.948	321.05
2322.115	328.05
2325.281	349.99
2328.447	344.07
2331.613	341.37
2334.779	346.02
2337.944	349.02
2341.109	353.14
2344.274	358.05
2347.438	365.59
2350.602	378.19
2353.766	396
2356.929	396.99
2360.092	403.67
2363.255	410.59
2366.418	418.25
2369.58	425.87
2372.742	426.85
2375.904	422.5
2379.066	436.95
2382.227	459.7
2385.388	452.11
2388.548	436.55
2391.709	431.77
2394.869	436.63
2398.029	440.76
2401.188	439.99
2404.347	454.09
2407.506	472.77
2410.665	460.22
2413.823	463.73
2416.981	464.68
2420.139	444.26
2423.296	480.17
2426.453	515.76
2429.61	481.18
2432.767	511.29
2435.923	535.99
2439.079	510.09
2442.235	519.22
2445.391	534.93
2448.546	525
2451.701	550.07
2454.855	582.96
2458.009	517.2
2461.163	522.03
2464.317	541.07
2467.471	527.8
2470.624	540.15
2473.777	538.82
2476.929	525.81
2480.082	550.52
2483.234	580.84
2486.385	584.62
2489.537	603.46
2492.688	660.04
2495.839	640.06
2498.989	662.17
2502.14	672.57
2505.29	642.38
2508.439	686.95
2511.589	700.04
2514.738	695.66
2517.887	681.93
2521.035	647.44
2524.183	633.73
2527.331	633.13
2530.479	624.04
2533.627	632.84
