Data from N_2_dec_va_2n_049_Splice17_20.txt Node
Date: Sat Feb 29 13:56:36 EST 2020
User: sa697716
Spectrometer: FLMS03696
Trigger mode: 0
Integration Time (sec): 3.180400E-1
Scans to average: 20
Electric dark correction enabled: true
Nonlinearity correction enabled: true
Boxcar width: 5
XAxis mode: Wavelengths
Number of Pixels in Spectrum: 2048
>>>>>Begin Spectral Data<<<<<
187.83	63.59
188.298	61.55
188.766	55.95
189.233	50.77
189.701	56.02
190.169	60.35
190.636	59.34
191.104	34.37
191.571	-205.29
192.039	-18.06
192.506	-24.92
192.974	-2457.68
193.441	646.96
193.908	-12.75
194.375	-25.94
194.842	63.07
195.31	60.05
195.777	93.24
196.244	41.37
196.711	19.9
197.177	19.71
197.644	20.52
198.111	21.08
198.578	20.96
199.045	20.67
199.511	20.53
199.978	20.7
200.445	20.83
200.911	20.71
201.378	20.62
201.844	21.53
202.31	22.1
202.777	22.01
203.243	22.34
203.709	22.82
204.176	22.33
204.642	22.35
205.108	21.93
205.574	22.04
206.04	22.17
206.506	21.72
206.972	21.54
207.438	21.25
207.903	21.74
208.369	21.65
208.835	21.41
209.301	21.83
209.766	21.84
210.232	21.95
210.697	21.81
211.163	21.65
211.628	21.3
212.094	20.66
212.559	20.31
213.024	19.74
213.49	19.15
213.955	18.94
214.42	18.25
214.885	17.73
215.35	17.21
215.815	16.46
216.28	15.74
216.745	15.17
217.21	14.5
217.675	13.71
218.14	12.96
218.604	12.25
219.069	11.69
219.534	11.31
219.998	10.9
220.463	10.63
220.927	10.31
221.392	10.05
221.856	9.82
222.32	9.62
222.785	9.41
223.249	9.26
223.713	9.18
224.177	9.01
224.642	8.86
225.106	8.71
225.57	8.51
226.034	8.45
226.497	8.3
226.961	8.17
227.425	8.04
227.889	7.94
228.353	7.83
228.816	7.71
229.28	7.57
229.744	7.48
230.207	7.39
230.671	7.29
231.134	7.16
231.597	7.07
232.061	6.97
232.524	6.89
232.987	6.81
233.45	6.73
233.914	6.64
234.377	6.59
234.84	6.51
235.303	6.43
235.766	6.37
236.229	6.29
236.691	6.24
237.154	6.18
237.617	6.11
238.08	6.05
238.542	5.98
239.005	5.93
239.468	5.85
239.93	5.79
240.393	5.74
240.855	5.68
241.317	5.62
241.78	5.57
242.242	5.5
242.704	5.46
243.166	5.4
243.629	5.35
244.091	5.31
244.553	5.28
245.015	5.23
245.477	5.17
245.939	5.12
246.4	5.08
246.862	5.03
247.324	5
247.786	4.95
248.247	4.91
248.709	4.86
249.17	4.81
249.632	4.76
250.093	4.71
250.555	4.67
251.016	4.64
251.477	4.6
251.939	4.56
252.4	4.53
252.861	4.5
253.322	4.46
253.783	4.45
254.244	4.42
254.705	4.38
255.166	4.38
255.627	4.36
256.088	4.32
256.549	4.3
257.009	4.28
257.47	4.25
257.931	4.22
258.391	4.19
258.852	4.15
259.312	4.13
259.773	4.1
260.233	4.06
260.694	4.04
261.154	4.02
261.614	4.01
262.074	3.98
262.534	3.96
262.994	3.94
263.455	3.92
263.915	3.9
264.374	3.87
264.834	3.86
265.294	3.84
265.754	3.81
266.214	3.79
266.673	3.77
267.133	3.75
267.593	3.73
268.052	3.71
268.512	3.7
268.971	3.68
269.431	3.68
269.89	3.66
270.349	3.64
270.809	3.63
271.268	3.62
271.727	3.61
272.186	3.6
272.645	3.59
273.104	3.57
273.563	3.56
274.022	3.55
274.481	3.53
274.94	3.52
275.399	3.51
275.857	3.5
276.316	3.48
276.775	3.47
277.233	3.45
277.692	3.44
278.15	3.42
278.609	3.41
279.067	3.39
279.525	3.38
279.984	3.37
280.442	3.35
280.9	3.35
281.358	3.33
281.816	3.32
282.274	3.31
282.732	3.3
283.19	3.29
283.648	3.29
284.106	3.27
284.564	3.27
285.021	3.27
285.479	3.26
285.937	3.25
286.394	3.24
286.852	3.23
287.309	3.22
287.767	3.21
288.224	3.21
288.682	3.19
289.139	3.19
289.596	3.17
290.053	3.15
290.511	3.13
290.968	3.11
291.425	3.1
291.882	3.08
292.339	3.06
292.796	3.05
293.252	3.04
293.709	3.02
294.166	3.01
294.623	3
295.079	3
295.536	2.98
295.992	2.97
296.449	2.96
296.905	2.95
297.362	2.94
297.818	2.92
298.274	2.92
298.731	2.91
299.187	2.89
299.643	2.88
300.099	2.87
300.555	2.87
301.011	2.86
301.467	2.86
301.923	2.85
302.379	2.84
302.835	2.84
303.291	2.82
303.746	2.82
304.202	2.82
304.658	2.81
305.113	2.8
305.569	2.79
306.024	2.78
306.479	2.78
306.935	2.77
307.39	2.76
307.845	2.76
308.301	2.75
308.756	2.75
309.211	2.75
309.666	2.75
310.121	2.75
310.576	2.74
311.031	2.74
311.486	2.73
311.94	2.74
312.395	2.74
312.85	2.74
313.305	2.73
313.759	2.73
314.214	2.73
314.668	2.72
315.123	2.72
315.577	2.71
316.032	2.71
316.486	2.71
316.94	2.71
317.394	2.7
317.849	2.68
318.303	2.68
318.757	2.66
319.211	2.64
319.665	2.63
320.119	2.62
320.572	2.62
321.026	2.61
321.48	2.6
321.934	2.59
322.387	2.59
322.841	2.59
323.295	2.58
323.748	2.58
324.202	2.58
324.655	2.58
325.108	2.57
325.562	2.55
326.015	2.54
326.468	2.54
326.921	2.53
327.374	2.52
327.827	2.51
328.28	2.5
328.733	2.5
329.186	2.5
329.639	2.49
330.092	2.49
330.545	2.5
330.997	2.5
331.45	2.5
331.903	2.49
332.355	2.5
332.808	2.5
333.26	2.5
333.713	2.51
334.165	2.5
334.617	2.5
335.069	2.5
335.522	2.5
335.974	2.51
336.426	2.5
336.878	2.5
337.33	2.49
337.782	2.5
338.234	2.5
338.686	2.49
339.137	2.48
339.589	2.48
340.041	2.48
340.493	2.47
340.944	2.47
341.396	2.47
341.847	2.45
342.299	2.44
342.75	2.43
343.201	2.41
343.653	2.41
344.104	2.4
344.555	2.39
345.006	2.37
345.457	2.36
345.908	2.36
346.359	2.36
346.81	2.37
347.261	2.36
347.712	2.36
348.163	2.36
348.613	2.35
349.064	2.35
349.515	2.34
349.965	2.35
350.416	2.33
350.866	2.32
351.317	2.31
351.767	2.29
352.217	2.29
352.668	2.29
353.118	2.3
353.568	2.31
354.018	2.3
354.468	2.3
354.918	2.32
355.368	2.33
355.818	2.33
356.268	2.34
356.718	2.34
357.168	2.33
357.617	2.34
358.067	2.32
358.517	2.31
358.966	2.32
359.416	2.32
359.865	2.3
360.315	2.3
360.764	2.3
361.213	2.29
361.663	2.29
362.112	2.3
362.561	2.29
363.01	2.3
363.459	2.31
363.908	2.31
364.357	2.31
364.806	2.31
365.255	2.31
365.703	2.3
366.152	2.32
366.601	2.32
367.05	2.32
367.498	2.33
367.947	2.32
368.395	2.33
368.844	2.32
369.292	2.32
369.74	2.33
370.189	2.33
370.637	2.34
371.085	2.34
371.533	2.34
371.981	2.34
372.429	2.34
372.877	2.34
373.325	2.33
373.773	2.33
374.221	2.33
374.669	2.33
375.116	2.33
375.564	2.34
376.012	2.35
376.459	2.35
376.907	2.37
377.354	2.38
377.801	2.4
378.249	2.42
378.696	2.45
379.143	2.47
379.591	2.49
380.038	2.52
380.485	2.55
380.932	2.56
381.379	2.59
381.826	2.61
382.273	2.62
382.72	2.64
383.166	2.66
383.613	2.69
384.06	2.72
384.506	2.74
384.953	2.76
385.4	2.79
385.846	2.81
386.292	2.85
386.739	2.87
387.185	2.92
387.631	2.95
388.078	2.98
388.524	3
388.97	3.03
389.416	3.06
389.862	3.09
390.308	3.12
390.754	3.17
391.2	3.2
391.645	3.23
392.091	3.26
392.537	3.28
392.983	3.32
393.428	3.36
393.874	3.39
394.319	3.42
394.765	3.44
395.21	3.46
395.655	3.48
396.101	3.5
396.546	3.52
396.991	3.54
397.436	3.55
397.881	3.58
398.326	3.61
398.771	3.63
399.216	3.66
399.661	3.69
400.106	3.71
400.551	3.72
400.995	3.72
401.44	3.73
401.885	3.75
402.329	3.76
402.774	3.75
403.218	3.75
403.663	3.74
404.107	3.75
404.551	3.75
404.995	3.75
405.44	3.75
405.884	3.76
406.328	3.76
406.772	3.75
407.216	3.76
407.66	3.76
408.104	3.76
408.547	3.76
408.991	3.74
409.435	3.73
409.879	3.73
410.322	3.74
410.766	3.74
411.209	3.75
411.653	3.74
412.096	3.74
412.54	3.74
412.983	3.75
413.426	3.77
413.869	3.79
414.312	3.81
414.756	3.82
415.199	3.82
415.642	3.85
416.085	3.84
416.527	3.87
416.97	3.88
417.413	3.88
417.856	3.87
418.298	3.85
418.741	3.83
419.184	3.82
419.626	3.8
420.069	3.81
420.511	3.8
420.953	3.79
421.396	3.77
421.838	3.77
422.28	3.78
422.722	3.79
423.164	3.78
423.606	3.78
424.048	3.76
424.49	3.76
424.932	3.75
425.374	3.73
425.816	3.71
426.258	3.7
426.699	3.68
427.141	3.65
427.582	3.63
428.024	3.65
428.465	3.65
428.907	3.67
429.348	3.67
429.789	3.68
430.231	3.68
430.672	3.7
431.113	3.71
431.554	3.73
431.995	3.74
432.436	3.75
432.877	3.73
433.318	3.73
433.759	3.73
434.2	3.74
434.64	3.74
435.081	3.73
435.522	3.74
435.962	3.75
436.403	3.76
436.843	3.79
437.284	3.81
437.724	3.84
438.164	3.86
438.604	3.87
439.045	3.88
439.485	3.91
439.925	3.93
440.365	3.94
440.805	3.95
441.245	3.96
441.685	3.97
442.125	3.98
442.564	4.01
443.004	4.03
443.444	4.06
443.883	4.1
444.323	4.12
444.762	4.16
445.202	4.24
445.641	4.29
446.081	4.33
446.52	4.36
446.959	4.4
447.398	4.46
447.837	4.53
448.276	4.56
448.716	4.59
449.154	4.66
449.593	4.72
450.032	4.74
450.471	4.77
450.91	4.78
451.349	4.83
451.787	4.86
452.226	4.86
452.664	4.86
453.103	4.88
453.541	4.92
453.98	4.91
454.418	4.9
454.856	4.89
455.295	4.89
455.733	4.91
456.171	4.9
456.609	4.91
457.047	4.9
457.485	4.91
457.923	4.9
458.361	4.88
458.798	4.88
459.236	4.87
459.674	4.89
460.111	4.9
460.549	4.87
460.987	4.89
461.424	4.87
461.862	4.87
462.299	4.87
462.736	4.88
463.173	4.89
463.611	4.89
464.048	4.9
464.485	4.88
464.922	4.87
465.359	4.89
465.796	4.87
466.233	4.88
466.67	4.91
467.106	4.91
467.543	4.92
467.98	4.92
468.416	4.93
468.853	4.92
469.29	4.92
469.726	4.93
470.162	4.92
470.599	4.94
471.035	4.95
471.471	4.94
471.907	4.96
472.344	4.94
472.78	4.94
473.216	4.94
473.652	4.97
474.088	5.01
474.523	5.02
474.959	5.04
475.395	5.05
475.831	5.07
476.266	5.08
476.702	5.08
477.138	5.1
477.573	5.11
478.008	5.12
478.444	5.12
478.879	5.11
479.314	5.11
479.75	5.12
480.185	5.11
480.62	5.11
481.055	5.11
481.49	5.12
481.925	5.11
482.36	5.12
482.795	5.12
483.229	5.12
483.664	5.14
484.099	5.15
484.534	5.17
484.968	5.2
485.403	5.21
485.837	5.23
486.271	5.25
486.706	5.28
487.14	5.32
487.574	5.35
488.009	5.4
488.443	5.43
488.877	5.48
489.311	5.51
489.745	5.55
490.179	5.61
490.613	5.66
491.046	5.72
491.48	5.79
491.914	5.85
492.348	5.92
492.781	5.99
493.215	6.06
493.648	6.14
494.082	6.22
494.515	6.32
494.948	6.41
495.382	6.51
495.815	6.61
496.248	6.72
496.681	6.84
497.114	6.96
497.547	7.08
497.98	7.21
498.413	7.34
498.846	7.48
499.279	7.62
499.711	7.76
500.144	7.93
500.577	8.09
501.009	8.26
501.442	8.44
501.874	8.62
502.306	8.82
502.739	9.02
503.171	9.23
503.603	9.44
504.036	9.68
504.468	9.93
504.9	10.18
505.332	10.43
505.764	10.7
506.196	10.96
506.627	11.25
507.059	11.53
507.491	11.82
507.923	12.12
508.354	12.43
508.786	12.75
509.217	13.06
509.649	13.38
510.08	13.72
510.512	14.06
510.943	14.41
511.374	14.76
511.805	15.13
512.237	15.51
512.668	15.87
513.099	16.26
513.53	16.63
513.961	17.02
514.391	17.42
514.822	17.81
515.253	18.19
515.684	18.57
516.114	18.97
516.545	19.35
516.975	19.74
517.406	20.13
517.836	20.5
518.267	20.9
518.697	21.28
519.127	21.64
519.558	22.02
519.988	22.39
520.418	22.74
520.848	23.1
521.278	23.45
521.708	23.7
522.138	24.01
522.567	24.34
522.997	24.64
523.427	24.95
523.857	25.23
524.286	25.52
524.716	25.82
525.145	26.11
525.575	26.37
526.004	26.64
526.433	26.98
526.863	27.24
527.292	27.47
527.721	27.68
528.15	27.9
528.579	28.11
529.008	28.3
529.437	28.47
529.866	28.61
530.295	28.8
530.724	28.95
531.152	29.1
531.581	29.27
532.01	29.41
532.438	29.55
532.867	29.67
533.295	29.8
533.723	29.91
534.152	30.03
534.58	30.15
535.008	30.22
535.436	30.31
535.865	30.38
536.293	30.46
536.721	30.53
537.149	30.6
537.576	30.67
538.004	30.73
538.432	30.79
538.86	30.83
539.287	30.9
539.715	30.97
540.143	31
540.57	31.04
540.998	31.1
541.425	31.15
541.852	31.19
542.28	31.21
542.707	31.26
543.134	31.29
543.561	31.32
543.988	31.34
544.415	31.36
544.842	31.4
545.269	31.44
545.696	31.43
546.123	31.46
546.549	31.48
546.976	31.52
547.403	31.54
547.829	31.55
548.256	31.57
548.682	31.58
549.108	31.61
549.535	31.62
549.961	31.63
550.387	31.65
550.813	31.64
551.24	31.66
551.666	31.66
552.092	31.66
552.518	31.65
552.943	31.66
553.369	31.67
553.795	31.66
554.221	31.63
554.646	31.62
555.072	31.58
555.498	31.55
555.923	31.5
556.349	31.45
556.774	31.38
557.199	31.33
557.625	31.26
558.05	31.18
558.475	31.1
558.9	31
559.325	30.9
559.75	30.79
560.175	30.7
560.6	30.58
561.025	30.46
561.449	30.34
561.874	30.21
562.299	30.07
562.723	29.95
563.148	29.8
563.572	29.69
563.997	29.55
564.421	29.43
564.846	29.28
565.27	29.13
565.694	28.96
566.118	28.82
566.542	28.67
566.966	28.5
567.39	28.33
567.814	28.14
568.238	27.95
568.662	27.79
569.086	27.59
569.509	27.42
569.933	27.24
570.357	27.07
570.78	26.89
571.204	26.68
571.627	26.52
572.05	26.35
572.474	26.2
572.897	26.04
573.32	25.86
573.743	25.72
574.166	25.56
574.589	25.41
575.012	25.26
575.435	25.09
575.858	24.99
576.281	24.85
576.704	24.71
577.126	24.55
577.549	24.42
577.972	24.32
578.394	24.18
578.817	24.06
579.239	23.95
579.661	23.85
580.084	23.76
580.506	23.62
580.928	23.51
581.35	23.42
581.772	23.33
582.194	23.22
582.616	23.12
583.038	23.02
583.46	22.95
583.882	22.86
584.303	22.78
584.725	22.7
585.147	22.62
585.568	22.53
585.99	22.46
586.411	22.39
586.833	22.34
587.254	22.26
587.675	22.2
588.096	22.13
588.518	22.08
588.939	22.01
589.36	21.92
589.781	21.88
590.202	21.82
590.623	21.76
591.043	21.7
591.464	21.63
591.885	21.58
592.305	21.53
592.726	21.47
593.147	21.44
593.567	21.37
593.987	21.36
594.408	21.31
594.828	21.28
595.248	21.24
595.669	21.21
596.089	21.17
596.509	21.12
596.929	21.07
597.349	21.01
597.769	20.93
598.189	20.91
598.608	20.84
599.028	20.78
599.448	20.73
599.867	20.66
600.287	20.59
600.706	20.54
601.126	20.49
601.545	20.42
601.965	20.38
602.384	20.33
602.803	20.25
603.222	20.18
603.641	20.11
604.061	20.03
604.48	19.96
604.898	19.88
605.317	19.81
605.736	19.71
606.155	19.62
606.574	19.52
606.992	19.41
607.411	19.33
607.829	19.19
608.248	19.1
608.666	19
609.085	18.9
609.503	18.81
609.921	18.69
610.339	18.59
610.758	18.48
611.176	18.38
611.594	18.28
612.012	18.16
612.43	18.11
612.847	18
613.265	17.9
613.683	17.8
614.101	17.67
614.518	17.57
614.936	17.47
615.353	17.39
615.771	17.29
616.188	17.22
616.606	17.14
617.023	17.03
617.44	16.96
617.857	16.86
618.274	16.78
618.691	16.73
619.108	16.67
619.525	16.62
619.942	16.55
620.359	16.5
620.776	16.45
621.192	16.41
621.609	16.37
622.026	16.34
622.442	16.29
622.859	16.27
623.275	16.25
623.691	16.21
624.108	16.18
624.524	16.16
624.94	16.13
625.356	16.11
625.772	16.09
626.188	16.09
626.604	16.06
627.02	16.06
627.436	16.05
627.852	16.02
628.268	16.01
628.683	15.99
629.099	15.97
629.514	15.93
629.93	15.9
630.345	15.86
630.761	15.8
631.176	15.76
631.591	15.71
632.007	15.65
632.422	15.6
632.837	15.53
633.252	15.45
633.667	15.36
634.082	15.27
634.497	15.15
634.911	15.03
635.326	14.9
635.741	14.77
636.155	14.64
636.57	14.51
636.984	14.36
637.399	14.18
637.813	14.02
638.228	13.85
638.642	13.7
639.056	13.54
639.47	13.36
639.884	13.21
640.298	13.02
640.712	12.83
641.126	12.66
641.54	12.47
641.954	12.32
642.368	12.15
642.781	11.97
643.195	11.78
643.609	11.63
644.022	11.47
644.436	11.31
644.849	11.16
645.262	11.02
645.676	10.87
646.089	10.73
646.502	10.59
646.915	10.48
647.328	10.36
647.741	10.26
648.154	10.16
648.567	10.08
648.98	9.99
649.393	9.93
649.805	9.84
650.218	9.77
650.631	9.7
651.043	9.65
651.456	9.58
651.868	9.51
652.28	9.45
652.693	9.37
653.105	9.28
653.517	9.21
653.929	9.12
654.341	9.04
654.753	8.95
655.165	8.86
655.577	8.74
655.989	8.63
656.401	8.51
656.813	8.39
657.224	8.27
657.636	8.14
658.047	8
658.459	7.85
658.87	7.71
659.282	7.58
659.693	7.43
660.104	7.31
660.515	7.17
660.926	7.04
661.338	6.89
661.749	6.74
662.159	6.62
662.57	6.49
662.981	6.37
663.392	6.24
663.803	6.12
664.213	6
664.624	5.89
665.035	5.78
665.445	5.68
665.855	5.6
666.266	5.53
666.676	5.45
667.086	5.38
667.497	5.33
667.907	5.25
668.317	5.18
668.727	5.15
669.137	5.11
669.547	5.09
669.956	5.05
670.366	5.01
670.776	4.99
671.186	4.95
671.595	4.95
672.005	4.94
672.414	4.95
672.824	4.96
673.233	4.95
673.642	4.94
674.052	4.95
674.461	4.96
674.87	4.99
675.279	5.01
675.688	5.03
676.097	5.06
676.506	5.09
676.915	5.12
677.323	5.16
677.732	5.22
678.141	5.28
678.549	5.36
678.958	5.43
679.366	5.5
679.775	5.6
680.183	5.71
680.592	5.82
681	5.95
681.408	6.1
681.816	6.26
682.224	6.45
682.632	6.66
683.04	6.88
683.448	7.11
683.856	7.41
684.264	7.72
684.671	8.06
685.079	8.43
685.487	8.84
685.894	9.28
686.302	9.74
686.709	10.22
687.116	10.74
687.524	11.31
687.931	11.9
688.338	12.52
688.745	13.16
689.152	13.83
689.559	14.53
689.966	15.23
690.373	15.96
690.78	16.7
691.187	17.46
691.593	18.21
692	18.97
692.407	19.72
692.813	20.49
693.22	21.24
693.626	22.01
694.032	22.78
694.439	23.55
694.845	24.28
695.251	25.01
695.657	25.73
696.063	26.46
696.469	27.17
696.875	27.86
697.281	28.52
697.687	29.19
698.093	29.82
698.498	30.43
698.904	31.02
699.31	31.63
699.715	32.24
700.12	32.8
700.526	33.34
700.931	33.9
701.337	34.43
701.742	34.94
702.147	35.45
702.552	35.96
702.957	36.45
703.362	36.93
703.767	37.4
704.172	37.86
704.577	38.3
704.981	38.72
705.386	39.15
705.791	39.58
706.195	39.98
706.6	40.37
707.004	40.75
707.408	41.1
707.813	41.47
708.217	41.79
708.621	42.14
709.025	42.49
709.43	42.81
709.834	43.13
710.237	43.4
710.641	43.73
711.045	44.02
711.449	44.3
711.853	44.6
712.256	44.89
712.66	45.17
713.064	45.4
713.467	45.69
713.87	45.96
714.274	46.22
714.677	46.49
715.08	46.74
715.484	46.96
715.887	47.21
716.29	47.42
716.693	47.62
717.096	47.86
717.499	48.09
717.901	48.27
718.304	48.47
718.707	48.64
719.109	48.82
719.512	49.01
719.915	49.22
720.317	49.41
720.719	49.59
721.122	49.74
721.524	49.9
721.926	50.04
722.328	50.21
722.731	50.37
723.133	50.54
723.535	50.71
723.937	50.85
724.338	50.98
724.74	51.08
725.142	51.22
725.544	51.38
725.945	51.5
726.347	51.63
726.748	51.67
727.15	51.77
727.551	51.86
727.952	51.93
728.354	52.01
728.755	52.09
729.156	52.19
729.557	52.28
729.958	52.33
730.359	52.38
730.76	52.44
731.161	52.57
731.562	52.62
731.962	52.66
732.363	52.72
732.763	52.8
733.164	52.86
733.564	52.89
733.965	52.91
734.365	52.97
734.766	52.99
735.166	53.03
735.566	53.06
735.966	53.09
736.366	53.15
736.766	53.2
737.166	53.21
737.566	53.24
737.966	53.3
738.365	53.34
738.765	53.39
739.165	53.41
739.564	53.45
739.964	53.48
740.363	53.52
740.763	53.54
741.162	53.56
741.561	53.61
741.96	53.64
742.36	53.66
742.759	53.65
743.158	53.65
743.557	53.7
743.955	53.73
744.354	53.75
744.753	53.8
745.152	53.82
745.55	53.82
745.949	53.82
746.348	53.86
746.746	53.86
747.144	53.9
747.543	53.93
747.941	53.97
748.339	54.01
748.737	54.05
749.136	54.04
749.534	54.06
749.932	54.07
750.33	54.09
750.727	54.08
751.125	54.07
751.523	54.05
751.921	54.08
752.318	54.03
752.716	54.01
753.113	53.99
753.511	53.96
753.908	53.94
754.305	53.95
754.703	53.92
755.1	53.92
755.497	53.92
755.894	53.91
756.291	53.89
756.688	53.9
757.085	53.9
757.482	53.9
757.878	53.94
758.275	53.93
758.672	53.96
759.068	53.99
759.465	53.98
759.861	53.98
760.258	54
760.654	54.01
761.05	54.03
761.447	54
761.843	53.97
762.239	53.97
762.635	53.98
763.031	53.96
763.427	53.92
763.822	53.89
764.218	53.85
764.614	53.81
765.01	53.78
765.405	53.74
765.801	53.72
766.196	53.71
766.592	53.67
766.987	53.66
767.382	53.65
767.778	53.68
768.173	53.7
768.568	53.72
768.963	53.71
769.358	53.72
769.753	53.75
770.148	53.78
770.542	53.75
770.937	53.73
771.332	53.73
771.726	53.68
772.121	53.62
772.515	53.62
772.91	53.61
773.304	53.59
773.699	53.58
774.093	53.53
774.487	53.52
774.881	53.56
775.275	53.59
775.669	53.56
776.063	53.57
776.457	53.55
776.851	53.52
777.245	53.55
777.638	53.56
778.032	53.57
778.425	53.59
778.819	53.6
779.212	53.57
779.606	53.57
779.999	53.57
780.392	53.59
780.786	53.65
781.179	53.7
781.572	53.68
781.965	53.71
782.358	53.65
782.751	53.64
783.143	53.64
783.536	53.68
783.929	53.69
784.322	53.7
784.714	53.69
785.107	53.68
785.499	53.65
785.891	53.65
786.284	53.61
786.676	53.66
787.068	53.67
787.46	53.66
787.852	53.63
788.245	53.63
788.636	53.63
789.028	53.6
789.42	53.62
789.812	53.59
790.204	53.59
790.595	53.61
790.987	53.57
791.378	53.55
791.77	53.59
792.161	53.58
792.553	53.57
792.944	53.59
793.335	53.65
793.726	53.62
794.117	53.62
794.508	53.61
794.899	53.62
795.29	53.64
795.681	53.67
796.072	53.66
796.463	53.66
796.853	53.64
797.244	53.64
797.634	53.61
798.025	53.62
798.415	53.65
798.806	53.65
799.196	53.67
799.586	53.68
799.976	53.64
800.366	53.67
800.756	53.67
801.146	53.68
801.536	53.68
801.926	53.66
802.316	53.7
802.706	53.72
803.095	53.74
803.485	53.73
803.874	53.74
804.264	53.8
804.653	53.77
805.043	53.81
805.432	53.79
805.821	53.79
806.21	53.83
806.599	53.85
806.988	53.84
807.377	53.84
807.766	53.85
808.155	53.88
808.544	53.89
808.933	53.92
809.321	53.9
809.71	53.98
810.098	53.97
810.487	53.96
810.875	53.93
811.264	53.94
811.652	53.98
812.04	53.99
812.428	54.01
812.816	54.02
813.204	54.01
813.592	54.03
813.98	54
814.368	54.03
814.756	54.02
815.144	54.08
815.531	54.07
815.919	54.05
816.306	54.06
816.694	54.04
817.081	53.97
817.469	53.98
817.856	53.99
818.243	53.98
818.63	54.03
819.017	54.05
819.404	54
819.791	54.03
820.178	54.06
820.565	54.04
820.952	54.05
821.339	54.12
821.725	54.18
822.112	54.2
822.498	54.23
822.885	54.22
823.271	54.26
823.657	54.28
824.044	54.28
824.43	54.3
824.816	54.31
825.202	54.32
825.588	54.31
825.974	54.27
826.36	54.25
826.746	54.27
827.132	54.26
827.517	54.23
827.903	54.26
828.289	54.28
828.674	54.27
829.06	54.3
829.445	54.37
829.83	54.39
830.216	54.42
830.601	54.45
830.986	54.45
831.371	54.47
831.756	54.49
832.141	54.51
832.526	54.48
832.911	54.49
833.295	54.47
833.68	54.43
834.065	54.44
834.449	54.42
834.834	54.42
835.218	54.41
835.603	54.4
835.987	54.37
836.371	54.36
836.755	54.38
837.139	54.35
837.524	54.35
837.908	54.33
838.291	54.32
838.675	54.32
839.059	54.26
839.443	54.26
839.827	54.25
840.21	54.3
840.594	54.27
840.977	54.27
841.361	54.29
841.744	54.32
842.127	54.33
842.511	54.31
842.894	54.31
843.277	54.35
843.66	54.36
844.043	54.39
844.426	54.37
844.809	54.37
845.191	54.35
845.574	54.37
845.957	54.29
846.339	54.31
846.722	54.32
847.104	54.32
847.487	54.32
847.869	54.33
848.252	54.3
848.634	54.28
849.016	54.29
849.398	54.29
849.78	54.26
850.162	54.32
850.544	54.31
850.926	54.31
851.307	54.32
851.689	54.31
852.071	54.3
852.452	54.31
852.834	54.33
853.215	54.33
853.597	54.36
853.978	54.37
854.359	54.35
854.741	54.36
855.122	54.36
855.503	54.36
855.884	54.36
856.265	54.36
856.646	54.33
857.026	54.35
857.407	54.29
857.788	54.3
858.169	54.31
858.549	54.33
858.93	54.32
859.31	54.31
859.69	54.3
860.071	54.29
860.451	54.3
860.831	54.32
861.211	54.3
861.591	54.33
861.971	54.28
862.351	54.28
862.731	54.25
863.111	54.23
863.491	54.22
863.87	54.22
864.25	54.22
864.629	54.22
865.009	54.2
865.388	54.19
865.768	54.22
866.147	54.22
866.526	54.19
866.905	54.16
867.284	54.16
867.663	54.18
868.042	54.17
868.421	54.15
868.8	54.15
869.179	54.17
869.558	54.17
869.936	54.14
870.315	54.15
870.693	54.2
871.072	54.22
871.45	54.23
871.828	54.21
872.207	54.24
872.585	54.24
872.963	54.21
873.341	54.2
873.719	54.18
874.097	54.17
874.475	54.18
874.853	54.15
875.23	54.15
875.608	54.14
875.986	54.15
876.363	54.12
876.741	54.11
877.118	54.13
877.495	54.09
877.873	54.08
878.25	54.09
878.627	54.07
879.004	54.1
879.381	54.07
879.758	54.06
880.135	54.08
880.512	54.1
880.889	54.11
881.265	54.11
881.642	54.14
882.019	54.14
882.395	54.13
882.772	54.15
883.148	54.11
883.524	54.14
883.901	54.11
884.277	54.1
884.653	54.1
885.029	54.09
885.405	54.1
885.781	54.06
886.157	54.08
886.532	54.09
886.908	54.11
887.284	54.12
887.659	54.14
888.035	54.14
888.411	54.13
888.786	54.1
889.161	54.11
889.537	54.1
889.912	54.1
890.287	54.07
890.662	54.04
891.037	54
891.412	53.99
891.787	53.96
892.162	53.95
892.536	53.94
892.911	53.93
893.286	53.89
893.66	53.87
894.035	53.85
894.409	53.86
894.784	53.89
895.158	53.89
895.532	53.86
895.906	53.83
896.281	53.82
896.655	53.81
897.029	53.81
897.402	53.81
897.776	53.81
898.15	53.82
898.524	53.79
898.898	53.75
899.271	53.74
899.645	53.75
900.018	53.74
900.392	53.75
900.765	53.76
901.138	53.77
901.511	53.78
901.884	53.8
902.258	53.75
902.631	53.76
903.003	53.77
903.376	53.74
903.749	53.7
904.122	53.72
904.495	53.68
904.867	53.65
905.24	53.61
905.612	53.55
905.985	53.5
906.357	53.51
906.729	53.47
907.102	53.44
907.474	53.45
907.846	53.46
908.218	53.42
908.59	53.41
908.962	53.39
909.334	53.39
909.705	53.4
910.077	53.39
910.449	53.39
910.82	53.41
911.192	53.42
911.563	53.4
911.935	53.37
912.306	53.35
912.677	53.33
913.048	53.29
913.419	53.25
913.79	53.24
914.161	53.25
914.532	53.27
914.903	53.24
915.274	53.19
915.645	53.2
916.015	53.21
916.386	53.23
916.756	53.24
917.127	53.27
917.497	53.29
917.868	53.3
918.238	53.31
918.608	53.27
918.978	53.28
919.348	53.28
919.718	53.27
920.088	53.28
920.458	53.32
920.828	53.34
921.198	53.35
921.567	53.35
921.937	53.33
922.306	53.32
922.676	53.34
923.045	53.32
923.415	53.36
923.784	53.33
924.153	53.27
924.522	53.25
924.891	53.24
925.26	53.21
925.629	53.22
925.998	53.24
926.367	53.2
926.736	53.19
927.104	53.19
927.473	53.19
927.842	53.2
928.21	53.23
928.578	53.2
928.947	53.18
929.315	53.22
929.683	53.22
930.051	53.14
930.42	53.12
930.788	53.12
931.156	53.07
931.523	53.06
931.891	53.05
932.259	52.97
932.627	52.91
932.994	52.93
933.362	52.82
933.729	52.7
934.097	52.67
934.464	52.63
934.831	52.59
935.199	52.62
935.566	52.49
935.933	52.42
936.3	52.38
936.667	52.3
937.034	52.19
937.401	52.15
937.767	52.13
938.134	52.13
938.501	52.05
938.867	52
939.234	51.95
939.6	51.9
939.967	51.87
940.333	51.9
940.699	51.98
941.065	52.02
941.431	52.06
941.798	52.15
942.163	52.19
942.529	52.23
942.895	52.25
943.261	52.21
943.627	52.25
943.992	52.28
944.358	52.3
944.723	52.32
945.089	52.34
945.454	52.44
945.82	52.34
946.185	52.29
946.55	52.44
946.915	52.43
947.28	52.44
947.645	52.5
948.01	52.49
948.375	52.48
948.74	52.41
949.104	52.4
949.469	52.26
949.834	52.27
950.198	52.3
950.562	52.17
950.927	52.13
951.291	52.1
951.655	52.07
952.02	52.08
952.384	52.19
952.748	52.23
953.112	52.23
953.476	52.26
953.839	52.26
954.203	52.17
954.567	52.16
954.931	52.2
955.294	52.15
955.658	52.14
956.021	52.12
956.385	52.04
956.748	52.03
957.111	51.93
957.474	51.94
957.837	51.93
958.2	51.95
958.563	51.93
958.926	51.86
959.289	51.88
959.652	51.85
960.015	51.81
960.377	51.78
960.74	51.7
961.102	51.77
961.465	51.73
961.827	51.72
962.189	51.68
962.552	51.66
962.914	51.62
963.276	51.62
963.638	51.62
964	51.57
964.362	51.54
964.724	51.56
965.085	51.56
965.447	51.52
965.809	51.41
966.17	51.46
966.532	51.45
966.893	51.48
967.255	51.46
967.616	51.45
967.977	51.47
968.338	51.49
968.699	51.49
969.061	51.45
969.421	51.4
969.782	51.42
970.143	51.41
970.504	51.42
970.865	51.33
971.225	51.31
971.586	51.33
971.946	51.35
972.307	51.33
972.667	51.33
973.027	51.32
973.388	51.33
973.748	51.36
974.108	51.32
974.468	51.29
974.828	51.41
975.188	51.47
975.548	51.39
975.907	51.42
976.267	51.35
976.627	51.31
976.986	51.28
977.346	51.34
977.705	51.38
978.064	51.37
978.424	51.37
978.783	51.32
979.142	51.21
979.501	51.24
979.86	51.16
980.219	51.16
980.578	51.19
980.937	51.25
981.296	51.2
981.654	51.21
982.013	51.21
982.371	51.12
982.73	51.1
983.088	51.13
983.447	51.14
983.805	51.11
984.163	51.06
984.521	50.85
984.879	50.8
985.237	50.81
985.595	50.7
985.953	50.71
986.311	50.82
986.669	50.84
987.026	50.78
987.384	50.74
987.741	50.73
988.099	50.79
988.456	50.96
988.814	51
989.171	50.93
989.528	50.84
989.885	50.71
990.242	50.72
990.599	50.76
990.956	50.77
991.313	50.77
991.67	50.92
992.027	50.9
992.383	50.92
992.74	50.8
993.096	50.78
993.453	50.95
993.809	51.02
994.165	51.04
994.522	50.99
994.878	50.94
995.234	50.85
995.59	50.64
995.946	50.59
996.302	50.5
996.658	50.47
997.013	50.57
997.369	50.55
997.725	50.61
998.08	50.6
998.436	50.53
998.791	50.6
999.147	50.56
999.502	50.58
999.857	50.64
1000.212	50.66
1000.567	50.65
1000.922	50.54
1001.277	50.41
1001.632	50.46
1001.987	50.33
1002.342	50.44
1002.696	50.46
1003.051	50.34
1003.406	50.32
1003.76	50.13
1004.114	50.25
1004.469	50.15
1004.823	50.13
1005.177	50.17
1005.531	49.9
1005.885	49.8
1006.239	49.71
1006.593	49.61
1006.947	49.67
1007.301	49.77
1007.655	49.99
1008.008	49.6
1008.362	49.79
1008.715	49.75
1009.069	49.6
1009.422	49.49
1009.776	49.42
1010.129	49.4
1010.482	49.34
1010.835	49.57
1011.188	49.34
1011.541	48.95
1011.894	49.08
1012.247	48.82
1012.6	48.74
1012.952	48.84
1013.305	48.95
1013.657	48.97
1014.01	48.81
1014.362	48.81
1014.715	48.4
1015.067	48.54
1015.419	48.74
1015.771	48.96
1016.123	49.15
1016.475	49.28
1016.827	49.39
1017.179	49.44
1017.531	49.7
1017.883	49.61
1018.234	49.49
1018.586	49.82
1018.938	49.7
1019.289	49.4
1019.64	49.22
1019.992	48.91
1020.343	48.65
1020.694	48.33
1021.045	48.07
1021.396	47.69
1021.747	47.9
1022.098	48
1022.449	47.73
1022.8	47.58
1023.151	47.72
1023.501	47.44
1023.852	47.51
1024.202	47.79
1024.553	47.81
1024.903	47.75
1025.253	47.6
1025.604	47.19
1025.954	47.01
1026.304	47.05
1026.654	47.21
1027.004	47.32
1027.354	47.44
1027.703	47.45
1028.053	47.21
1028.403	47.18
1028.753	47.57
1029.102	47.72
1029.452	47.93
1029.801	47.9
1030.15	47.97
1030.499	47.85
897.758	709.11
901.051	708.78
904.343	717.23
907.636	704.4
910.928	693.48
914.22	703.52
917.511	692.47
920.803	658.49
924.094	634.2
927.384	636.44
930.675	616.88
933.965	609.57
937.255	613.59
940.544	586.26
943.834	562.67
947.123	553.54
950.411	522.36
953.7	513.92
956.988	501.01
960.276	474.87
963.563	469.32
966.851	445.67
970.138	435.22
973.424	405.66
976.711	398.77
979.997	385.47
983.283	378.85
986.568	368.04
989.853	355.14
993.138	342.38
996.423	339.47
999.708	328.46
1002.992	328.16
1006.275	318.71
1009.559	315.64
1012.842	307.75
1016.125	297.85
1019.408	290.25
1022.69	288.29
1025.972	287.26
1029.254	278.09
1032.536	271.9
1035.817	263.58
1039.098	260.61
1042.379	255.89
1045.659	251.56
1048.939	249.79
1052.219	245.54
1055.498	241.31
1058.778	237.19
1062.057	231.17
1065.335	231.26
1068.614	227.46
1071.892	224.77
1075.17	221.57
1078.447	217.81
1081.724	217.14
1085.001	212.24
1088.278	210.5
1091.554	209.6
1094.83	207.64
1098.106	204.98
1101.382	204.08
1104.657	203.42
1107.932	201.89
1111.206	199.96
1114.481	198.41
1117.755	195.87
1121.029	195.19
1124.302	193.37
1127.575	190.02
1130.848	189.77
1134.121	187.02
1137.393	186.25
1140.665	184.96
1143.937	183.41
1147.208	180.37
1150.48	178.95
1153.75	178.86
1157.021	176.49
1160.291	175.62
1163.561	175.78
1166.831	173.85
1170.101	174.63
1173.37	171.73
1176.639	170.18
1179.907	170.64
1183.176	171.17
1186.444	171.17
1189.711	170.04
1192.979	172.77
1196.246	172.11
1199.513	170.56
1202.78	172.45
1206.046	172.05
1209.312	173.74
1212.578	174.56
1215.843	177.13
1219.108	177.02
1222.373	179.84
1225.638	182.25
1228.902	185.28
1232.166	191.59
1235.43	194.99
1238.693	199.19
1241.956	203.84
1245.219	210.07
1248.482	210.41
1251.744	209.16
1255.006	210.63
1258.268	205.69
1261.529	204.23
1264.79	198.74
1268.051	195.07
1271.312	193.28
1274.572	188.41
1277.832	184.04
1281.092	180.82
1284.351	178.71
1287.61	178.2
1290.869	177.05
1294.128	176.61
1297.386	174.71
1300.644	173.94
1303.902	173.33
1307.159	172.45
1310.416	174.12
1313.673	176.8
1316.93	177.16
1320.186	180.14
1323.442	182.55
1326.697	186.63
1329.953	187.39
1333.208	195.36
1336.463	203.13
1339.717	206.69
1342.972	217.52
1346.226	222.27
1349.479	223.47
1352.733	235.41
1355.986	238.57
1359.238	244.26
1362.491	245.59
1365.743	256.68
1368.995	256.57
1372.247	255.38
1375.498	254.13
1378.749	262.17
1382	262.71
1385.251	262.18
1388.501	260.05
1391.751	265
1395	262.48
1398.25	264.68
1401.499	262.95
1404.748	263.85
1407.996	259.42
1411.244	260.35
1414.492	255.14
1417.74	248.89
1420.987	242.99
1424.234	239.99
1427.481	231.21
1430.728	225.68
1433.974	217.51
1437.22	211.46
1440.465	203.29
1443.711	197.53
1446.956	192.89
1450.201	184.81
1453.445	177.25
1456.689	172.49
1459.933	166.64
1463.177	160.13
1466.42	157.1
1469.663	153.03
1472.906	148.21
1476.148	145.69
1479.391	141.86
1482.633	139.03
1485.874	137.07
1489.115	135.62
1492.356	132.76
1495.597	132.03
1498.838	130.65
1502.078	129.32
1505.318	128.9
1508.557	127.93
1511.797	126.04
1515.036	126.31
1518.274	125.4
1521.513	123.85
1524.751	123.28
1527.989	124.33
1531.227	123.16
1534.464	123.23
1537.701	122.18
1540.938	121.68
1544.174	122
1547.41	121.65
1550.646	121.15
1553.882	121.21
1557.117	120.66
1560.352	120.67
1563.587	119.73
1566.821	119.46
1570.055	118.41
1573.289	118.16
1576.523	118.41
1579.756	117.71
1582.989	118.36
1586.222	117.68
1589.454	116.81
1592.686	117.15
1595.918	116.3
1599.15	116.38
1602.381	116.07
1605.612	116.2
1608.843	116.36
1612.073	116.68
1615.303	116.69
1618.533	115.84
1621.762	116.29
1624.992	116.78
1628.221	116.55
1631.449	117.33
1634.678	116.74
1637.906	116.72
1641.134	117.23
1644.361	117.02
1647.588	116.7
1650.815	116.78
1654.042	117.14
1657.269	117.16
1660.495	117.56
1663.72	117.26
1666.946	117.38
1670.171	118.17
1673.396	119.14
1676.621	118.69
1679.845	119.18
1683.069	119.1
1686.293	118.73
1689.517	118.97
1692.74	119.18
1695.963	119.48
1699.185	120.29
1702.408	119.85
1705.63	120.05
1708.852	120.51
1712.073	120.65
1715.294	120.41
1718.515	120.91
1721.736	121.32
1724.956	121.86
1728.176	121.61
1731.396	122.47
1734.616	122.23
1737.835	122.94
1741.054	121.95
1744.272	122.3
1747.491	122.47
1750.709	123.24
1753.927	123.26
1757.144	124.03
1760.361	123.92
1763.578	125.14
1766.795	124.92
1770.011	125.19
1773.227	125.81
1776.443	127.75
1779.658	127.64
1782.874	128.91
1786.089	129
1789.303	129.51
1792.518	130.32
1795.732	131.18
1798.945	132.02
1802.159	132.09
1805.372	134.12
1808.585	134.66
1811.797	135.46
1815.01	136.45
1818.222	137.43
1821.434	137.67
1824.645	138.88
1827.856	140.41
1831.067	141.47
1834.278	141.39
1837.488	143.05
1840.698	144.51
1843.908	144.9
1847.117	146.26
1850.326	147.32
1853.535	147.09
1856.744	149.65
1859.952	151.2
1863.16	151.15
1866.368	150.97
1869.575	152.49
1872.782	152.48
1875.989	150.98
1879.196	150.43
1882.402	149.45
1885.608	150.05
1888.814	150.02
1892.019	151.49
1895.224	148.6
1898.429	149.24
1901.634	149.9
1904.838	150.54
1908.042	149.54
1911.246	150.21
1914.449	151.34
1917.652	150.93
1920.855	150
1924.058	150.31
1927.26	148.82
1930.462	149.56
1933.664	149.59
1936.865	149.01
1940.066	146.59
1943.267	147.18
1946.467	146.92
1949.668	147.24
1952.868	147.79
1956.067	148.18
1959.267	147.83
1962.466	148.37
1965.665	150.93
1968.863	151.51
1972.061	152.33
1975.259	156.14
1978.457	156.35
1981.654	159.43
1984.852	160.05
1988.048	161.91
1991.245	164.47
1994.441	168.87
1997.637	172.21
2000.833	175.04
2004.028	176.05
2007.223	182.58
2010.418	186.06
2013.613	194.22
2016.807	197.59
2020.001	201.71
2023.194	206.66
2026.388	214.58
2029.581	222.85
2032.774	230.3
2035.966	237.01
2039.158	244.71
2042.35	247.77
2045.542	252.89
2048.733	262.97
2051.924	267.05
2055.115	272.19
2058.306	275.76
2061.496	279.89
2064.686	282.1
2067.875	276.89
2071.065	280.47
2074.254	281.91
2077.442	289.33
2080.631	292.58
2083.819	293.64
2087.007	298.3
2090.195	303.31
2093.382	303.44
2096.569	303.5
2099.756	307.62
2102.942	317.3
2106.128	322.34
2109.314	324.23
2112.5	325.11
2115.685	323.21
2118.87	323.47
2122.055	325.67
2125.239	332.37
2128.424	341.15
2131.608	336.02
2134.791	337.59
2137.974	337.52
2141.157	341.79
2144.34	344.78
2147.523	348.21
2150.705	355.66
2153.887	354.12
2157.068	356.96
2160.25	359.74
2163.431	356.43
2166.611	363.92
2169.792	373
2172.972	377.47
2176.152	374.27
2179.331	383.43
2182.511	384.49
2185.69	389.63
2188.868	403.45
2192.047	415.03
2195.225	420.08
2198.403	427.21
2201.58	425.67
2204.758	438.38
2207.935	443.01
2211.111	454.47
2214.288	455.09
2217.464	460.52
2220.64	462.89
2223.815	465.24
2226.991	453.27
2230.166	457.6
2233.34	471.68
2236.515	481.95
2239.689	471.67
2242.863	480.3
2246.036	475.02
2249.209	488.99
2252.382	487.4
2255.555	506.59
2258.727	508.42
2261.9	531.29
2265.071	537.41
2268.243	529.82
2271.414	546.7
2274.585	558.55
2277.756	558.78
2280.926	583.56
2284.096	579.48
2287.266	583.44
2290.436	568.82
2293.605	581.57
2296.774	598.47
2299.942	598.48
2303.111	620.02
2306.279	631.25
2309.447	628.69
2312.614	633.27
2315.781	644.7
2318.948	657.11
2322.115	669.95
2325.281	706.44
2328.447	704.95
2331.613	699.64
2334.779	712.17
2337.944	720.96
2341.109	736.67
2344.274	747.66
2347.438	768.89
2350.602	781.65
2353.766	826.06
2356.929	832.33
2360.092	840.98
2363.255	841.61
2366.418	860.5
2369.58	875.07
2372.742	880.32
2375.904	872.79
2379.066	899.57
2382.227	944.9
2385.388	950.13
2388.548	898.85
2391.709	888.56
2394.869	924.28
2398.029	923.23
2401.188	924.89
2404.347	955.74
2407.506	984.34
2410.665	945.98
2413.823	951.47
2416.981	952.75
2420.139	898.37
2423.296	970.21
2426.453	1031.07
2429.61	982.11
2432.767	1050.78
2435.923	1083.28
2439.079	1045
2442.235	1069.78
2445.391	1094.87
2448.546	1082.65
2451.701	1148.35
2454.855	1223.81
2458.009	1091.27
2461.163	1116
2464.317	1111.83
2467.471	1092.97
2470.624	1127.49
2473.777	1101.84
2476.929	1065.1
2480.082	1140.27
2483.234	1197.45
2486.385	1217.14
2489.537	1244.66
2492.688	1367.76
2495.839	1331.83
2498.989	1386.82
2502.14	1387.15
2505.29	1326.19
2508.439	1489.01
2511.589	1530.83
2514.738	1487.07
2517.887	1472.94
2521.035	1362.42
2524.183	1349.57
2527.331	1339.07
2530.479	1317.03
2533.627	1343.41
