Data from N_2_div_il_4n_081_Splice17_05.txt Node
Date: Sat Feb 29 14:12:22 EST 2020
User: sa697716
Spectrometer: FLMS03696
Trigger mode: 0
Integration Time (sec): 3.180400E-1
Scans to average: 20
Electric dark correction enabled: true
Nonlinearity correction enabled: true
Boxcar width: 5
XAxis mode: Wavelengths
Number of Pixels in Spectrum: 2048
>>>>>Begin Spectral Data<<<<<
187.83	59.33
188.298	50.98
188.766	42.97
189.233	32.47
189.701	52.48
190.169	56.97
190.636	65.36
191.104	37.38
191.571	-5.13
192.039	97.72
192.506	-280.33
192.974	1019.51
193.441	229.49
193.908	-9.23
194.375	-82.25
194.842	49.3
195.31	39.96
195.777	74.61
196.244	34.21
196.711	36.73
197.177	38.09
197.644	38.93
198.111	37.92
198.578	38.35
199.045	39.07
199.511	39.5
199.978	40.08
200.445	39.77
200.911	39.69
201.378	39.77
201.844	40.39
202.31	40.97
202.777	41.07
203.243	41.3
203.709	41.43
204.176	40.89
204.642	40.34
205.108	39.89
205.574	40.3
206.04	40.35
206.506	40.39
206.972	39.95
207.438	39.67
207.903	39.65
208.369	39.28
208.835	39.32
209.301	39.42
209.766	39.18
210.232	38.71
210.697	38.17
211.163	37.48
211.628	36.84
212.094	36.34
212.559	35.42
213.024	34.89
213.49	34.42
213.955	33.28
214.42	32.36
214.885	31.46
215.35	30.65
215.815	29.19
216.28	27.94
216.745	26.38
217.21	24.91
217.675	23.53
218.14	21.96
218.604	20.62
219.069	19.64
219.534	18.68
219.998	17.88
220.463	17.13
220.927	16.62
221.392	16.12
221.856	15.64
222.32	15.23
222.785	14.87
223.249	14.6
223.713	14.32
224.177	14.01
224.642	13.79
225.106	13.56
225.57	13.33
226.034	13.13
226.497	12.89
226.961	12.71
227.425	12.48
227.889	12.27
228.353	12.06
228.816	11.88
229.28	11.7
229.744	11.54
230.207	11.38
230.671	11.23
231.134	11.07
231.597	10.91
232.061	10.78
232.524	10.67
232.987	10.53
233.45	10.42
233.914	10.3
234.377	10.17
234.84	10.06
235.303	9.94
235.766	9.83
236.229	9.71
236.691	9.63
237.154	9.53
237.617	9.44
238.08	9.35
238.542	9.25
239.005	9.17
239.468	9.09
239.93	9
240.393	8.92
240.855	8.83
241.317	8.76
241.78	8.68
242.242	8.59
242.704	8.5
243.166	8.42
243.629	8.35
244.091	8.28
244.553	8.21
245.015	8.14
245.477	8.06
245.939	8
246.4	7.93
246.862	7.87
247.324	7.82
247.786	7.77
248.247	7.71
248.709	7.65
249.17	7.6
249.632	7.54
250.093	7.48
250.555	7.43
251.016	7.38
251.477	7.32
251.939	7.26
252.4	7.21
252.861	7.15
253.322	7.11
253.783	7.07
254.244	7.02
254.705	6.98
255.166	6.95
255.627	6.9
256.088	6.86
256.549	6.83
257.009	6.81
257.47	6.77
257.931	6.72
258.391	6.67
258.852	6.63
259.312	6.59
259.773	6.54
260.233	6.49
260.694	6.44
261.154	6.41
261.614	6.37
262.074	6.33
262.534	6.28
262.994	6.25
263.455	6.22
263.915	6.18
264.374	6.14
264.834	6.11
265.294	6.08
265.754	6.04
266.214	6.01
266.673	5.98
267.133	5.95
267.593	5.93
268.052	5.9
268.512	5.87
268.971	5.84
269.431	5.83
269.89	5.81
270.349	5.78
270.809	5.77
271.268	5.75
271.727	5.73
272.186	5.7
272.645	5.68
273.104	5.66
273.563	5.65
274.022	5.63
274.481	5.61
274.94	5.59
275.399	5.59
275.857	5.57
276.316	5.55
276.775	5.54
277.233	5.52
277.692	5.5
278.15	5.48
278.609	5.45
279.067	5.43
279.525	5.41
279.984	5.39
280.442	5.38
280.9	5.35
281.358	5.33
281.816	5.31
282.274	5.29
282.732	5.28
283.19	5.27
283.648	5.26
284.106	5.24
284.564	5.24
285.021	5.23
285.479	5.22
285.937	5.22
286.394	5.21
286.852	5.2
287.309	5.2
287.767	5.19
288.224	5.18
288.682	5.16
289.139	5.15
289.596	5.13
290.053	5.1
290.511	5.08
290.968	5.06
291.425	5.03
291.882	5.01
292.339	4.99
292.796	4.96
293.252	4.93
293.709	4.91
294.166	4.89
294.623	4.87
295.079	4.86
295.536	4.84
295.992	4.82
296.449	4.81
296.905	4.79
297.362	4.78
297.818	4.77
298.274	4.75
298.731	4.74
299.187	4.73
299.643	4.72
300.099	4.72
300.555	4.7
301.011	4.7
301.467	4.69
301.923	4.68
302.379	4.67
302.835	4.66
303.291	4.66
303.746	4.65
304.202	4.63
304.658	4.62
305.113	4.6
305.569	4.6
306.024	4.59
306.479	4.58
306.935	4.57
307.39	4.56
307.845	4.56
308.301	4.57
308.756	4.57
309.211	4.57
309.666	4.58
310.121	4.58
310.576	4.57
311.031	4.56
311.486	4.57
311.94	4.57
312.395	4.57
312.85	4.56
313.305	4.56
313.759	4.55
314.214	4.55
314.668	4.54
315.123	4.54
315.577	4.54
316.032	4.53
316.486	4.51
316.94	4.5
317.394	4.5
317.849	4.49
318.303	4.48
318.757	4.46
319.211	4.44
319.665	4.42
320.119	4.4
320.572	4.4
321.026	4.4
321.48	4.39
321.934	4.39
322.387	4.38
322.841	4.37
323.295	4.35
323.748	4.34
324.202	4.34
324.655	4.35
325.108	4.34
325.562	4.32
326.015	4.31
326.468	4.3
326.921	4.29
327.374	4.28
327.827	4.27
328.28	4.26
328.733	4.26
329.186	4.26
329.639	4.25
330.092	4.23
330.545	4.25
330.997	4.25
331.45	4.25
331.903	4.24
332.355	4.25
332.808	4.26
333.26	4.26
333.713	4.26
334.165	4.25
334.617	4.26
335.069	4.27
335.522	4.27
335.974	4.26
336.426	4.26
336.878	4.27
337.33	4.26
337.782	4.26
338.234	4.27
338.686	4.27
339.137	4.27
339.589	4.26
340.041	4.26
340.493	4.24
340.944	4.24
341.396	4.23
341.847	4.22
342.299	4.21
342.75	4.18
343.201	4.16
343.653	4.15
344.104	4.14
344.555	4.14
345.006	4.12
345.457	4.12
345.908	4.11
346.359	4.1
346.81	4.1
347.261	4.09
347.712	4.09
348.163	4.09
348.613	4.08
349.064	4.06
349.515	4.05
349.965	4.04
350.416	4.03
350.866	4.03
351.317	4.02
351.767	4.01
352.217	4.02
352.668	4.01
353.118	4.01
353.568	4.02
354.018	4.02
354.468	4.03
354.918	4.04
355.368	4.04
355.818	4.02
356.268	4.03
356.718	4.02
357.168	4.01
357.617	4.02
358.067	4.02
358.517	4.01
358.966	4.03
359.416	4.03
359.865	4.03
360.315	4.03
360.764	4.04
361.213	4.03
361.663	4.04
362.112	4.04
362.561	4.04
363.01	4.05
363.459	4.04
363.908	4.04
364.357	4.03
364.806	4.03
365.255	4.04
365.703	4.04
366.152	4.04
366.601	4.03
367.05	4.03
367.498	4.03
367.947	4.02
368.395	4.03
368.844	4.03
369.292	4.03
369.74	4.03
370.189	4.02
370.637	4.03
371.085	4.04
371.533	4.04
371.981	4.05
372.429	4.04
372.877	4.04
373.325	4.04
373.773	4.03
374.221	4.03
374.669	4.03
375.116	4.02
375.564	4.01
376.012	4.01
376.459	4.01
376.907	4.01
377.354	4.01
377.801	4.02
378.249	4.02
378.696	4.03
379.143	4.05
379.591	4.06
380.038	4.07
380.485	4.09
380.932	4.1
381.379	4.11
381.826	4.11
382.273	4.12
382.72	4.14
383.166	4.15
383.613	4.16
384.06	4.16
384.506	4.16
384.953	4.17
385.4	4.18
385.846	4.19
386.292	4.19
386.739	4.21
387.185	4.22
387.631	4.23
388.078	4.25
388.524	4.25
388.97	4.26
389.416	4.27
389.862	4.28
390.308	4.29
390.754	4.32
391.2	4.35
391.645	4.38
392.091	4.4
392.537	4.43
392.983	4.45
393.428	4.48
393.874	4.5
394.319	4.52
394.765	4.54
395.21	4.56
395.655	4.57
396.101	4.58
396.546	4.59
396.991	4.61
397.436	4.61
397.881	4.63
398.326	4.66
398.771	4.69
399.216	4.73
399.661	4.76
400.106	4.79
400.551	4.8
400.995	4.81
401.44	4.83
401.885	4.84
402.329	4.86
402.774	4.87
403.218	4.88
403.663	4.89
404.107	4.91
404.551	4.92
404.995	4.93
405.44	4.96
405.884	4.99
406.328	5.01
406.772	5.04
407.216	5.06
407.66	5.09
408.104	5.1
408.547	5.11
408.991	5.11
409.435	5.12
409.879	5.15
410.322	5.16
410.766	5.16
411.209	5.19
411.653	5.18
412.096	5.19
412.54	5.2
412.983	5.22
413.426	5.26
413.869	5.28
414.312	5.31
414.756	5.33
415.199	5.35
415.642	5.4
416.085	5.42
416.527	5.47
416.97	5.49
417.413	5.5
417.856	5.5
418.298	5.49
418.741	5.49
419.184	5.5
419.626	5.48
420.069	5.48
420.511	5.47
420.953	5.47
421.396	5.46
421.838	5.47
422.28	5.48
422.722	5.5
423.164	5.52
423.606	5.55
424.048	5.55
424.49	5.56
424.932	5.58
425.374	5.59
425.816	5.58
426.258	5.57
426.699	5.55
427.141	5.54
427.582	5.54
428.024	5.55
428.465	5.55
428.907	5.57
429.348	5.58
429.789	5.58
430.231	5.58
430.672	5.6
431.113	5.63
431.554	5.65
431.995	5.67
432.436	5.67
432.877	5.66
433.318	5.65
433.759	5.66
434.2	5.67
434.64	5.67
435.081	5.69
435.522	5.71
435.962	5.73
436.403	5.74
436.843	5.76
437.284	5.78
437.724	5.82
438.164	5.83
438.604	5.84
439.045	5.83
439.485	5.85
439.925	5.87
440.365	5.87
440.805	5.87
441.245	5.86
441.685	5.88
442.125	5.89
442.564	5.89
443.004	5.89
443.444	5.92
443.883	5.94
444.323	5.94
444.762	5.96
445.202	5.99
445.641	6.01
446.081	6.05
446.52	6.06
446.959	6.06
447.398	6.11
447.837	6.16
448.276	6.16
448.716	6.19
449.154	6.24
449.593	6.26
450.032	6.26
450.471	6.27
450.91	6.26
451.349	6.27
451.787	6.27
452.226	6.25
452.664	6.23
453.103	6.23
453.541	6.23
453.98	6.21
454.418	6.18
454.856	6.17
455.295	6.16
455.733	6.16
456.171	6.14
456.609	6.14
457.047	6.14
457.485	6.13
457.923	6.1
458.361	6.08
458.798	6.08
459.236	6.07
459.674	6.07
460.111	6.06
460.549	6.06
460.987	6.08
461.424	6.07
461.862	6.07
462.299	6.06
462.736	6.07
463.173	6.08
463.611	6.07
464.048	6.08
464.485	6.08
464.922	6.08
465.359	6.08
465.796	6.05
466.233	6.06
466.67	6.06
467.106	6.06
467.543	6.05
467.98	6.06
468.416	6.08
468.853	6.08
469.29	6.09
469.726	6.1
470.162	6.1
470.599	6.11
471.035	6.12
471.471	6.11
471.907	6.12
472.344	6.14
472.78	6.14
473.216	6.13
473.652	6.11
474.088	6.11
474.523	6.1
474.959	6.1
475.395	6.1
475.831	6.09
476.266	6.08
476.702	6.08
477.138	6.06
477.573	6.05
478.008	6.05
478.444	6.04
478.879	6.04
479.314	6.02
479.75	6.03
480.185	6.02
480.62	6.01
481.055	6.01
481.49	5.99
481.925	5.98
482.36	5.96
482.795	5.93
483.229	5.92
483.664	5.91
484.099	5.91
484.534	5.89
484.968	5.89
485.403	5.88
485.837	5.89
486.271	5.89
486.706	5.88
487.14	5.9
487.574	5.91
488.009	5.93
488.443	5.93
488.877	5.95
489.311	5.96
489.745	5.97
490.179	5.99
490.613	6
491.046	6.02
491.48	6.05
491.914	6.06
492.348	6.09
492.781	6.11
493.215	6.13
493.648	6.16
494.082	6.18
494.515	6.22
494.948	6.25
495.382	6.29
495.815	6.33
496.248	6.39
496.681	6.42
497.114	6.46
497.547	6.51
497.98	6.56
498.413	6.63
498.846	6.69
499.279	6.75
499.711	6.81
500.144	6.88
500.577	6.95
501.009	7.03
501.442	7.11
501.874	7.2
502.306	7.29
502.739	7.38
503.171	7.48
503.603	7.59
504.036	7.7
504.468	7.83
504.9	7.95
505.332	8.09
505.764	8.24
506.196	8.39
506.627	8.54
507.059	8.69
507.491	8.87
507.923	9.04
508.354	9.21
508.786	9.4
509.217	9.59
509.649	9.79
510.08	9.99
510.512	10.18
510.943	10.41
511.374	10.65
511.805	10.9
512.237	11.13
512.668	11.37
513.099	11.63
513.53	11.9
513.961	12.17
514.391	12.42
514.822	12.71
515.253	12.99
515.684	13.28
516.114	13.56
516.545	13.85
516.975	14.16
517.406	14.46
517.836	14.77
518.267	15.06
518.697	15.37
519.127	15.69
519.558	16
519.988	16.3
520.418	16.59
520.848	16.89
521.278	17.19
521.708	17.47
522.138	17.74
522.567	18.02
522.997	18.31
523.427	18.59
523.857	18.86
524.286	19.13
524.716	19.38
525.145	19.65
525.575	19.89
526.004	20.13
526.433	20.38
526.863	20.62
527.292	20.83
527.721	21.03
528.15	21.22
528.579	21.41
529.008	21.6
529.437	21.78
529.866	21.93
530.295	22.1
530.724	22.28
531.152	22.43
531.581	22.54
532.01	22.7
532.438	22.83
532.867	22.95
533.295	23.08
533.723	23.18
534.152	23.29
534.58	23.37
535.008	23.44
535.436	23.49
535.865	23.58
536.293	23.67
536.721	23.73
537.149	23.78
537.576	23.85
538.004	23.89
538.432	23.95
538.86	23.99
539.287	24.05
539.715	24.11
540.143	24.16
540.57	24.18
540.998	24.24
541.425	24.28
541.852	24.34
542.28	24.37
542.707	24.41
543.134	24.45
543.561	24.49
543.988	24.53
544.415	24.58
544.842	24.62
545.269	24.67
545.696	24.69
546.123	24.73
546.549	24.76
546.976	24.8
547.403	24.83
547.829	24.86
548.256	24.89
548.682	24.92
549.108	24.93
549.535	24.95
549.961	24.95
550.387	24.95
550.813	24.94
551.24	24.92
551.666	24.92
552.092	24.92
552.518	24.91
552.943	24.9
553.369	24.86
553.795	24.85
554.221	24.8
554.646	24.78
555.072	24.75
555.498	24.7
555.923	24.68
556.349	24.6
556.774	24.52
557.199	24.45
557.625	24.37
558.05	24.3
558.475	24.2
558.9	24.13
559.325	24.03
559.75	23.93
560.175	23.81
560.6	23.68
561.025	23.56
561.449	23.44
561.874	23.33
562.299	23.21
562.723	23.06
563.148	22.9
563.572	22.74
563.997	22.59
564.421	22.44
564.846	22.28
565.27	22.13
565.694	21.99
566.118	21.84
566.542	21.67
566.966	21.48
567.39	21.32
567.814	21.15
568.238	20.98
568.662	20.8
569.086	20.61
569.509	20.44
569.933	20.24
570.357	20.05
570.78	19.88
571.204	19.69
571.627	19.53
572.05	19.35
572.474	19.19
572.897	19.04
573.32	18.88
573.743	18.75
574.166	18.59
574.589	18.45
575.012	18.32
575.435	18.17
575.858	18.05
576.281	17.91
576.704	17.79
577.126	17.68
577.549	17.57
577.972	17.46
578.394	17.34
578.817	17.25
579.239	17.15
579.661	17.05
580.084	16.96
580.506	16.87
580.928	16.78
581.35	16.7
581.772	16.62
582.194	16.51
582.616	16.43
583.038	16.35
583.46	16.27
583.882	16.19
584.303	16.11
584.725	16.04
585.147	15.96
585.568	15.89
585.99	15.81
586.411	15.75
586.833	15.69
587.254	15.63
587.675	15.57
588.096	15.51
588.518	15.45
588.939	15.4
589.36	15.31
589.781	15.28
590.202	15.24
590.623	15.2
591.043	15.14
591.464	15.09
591.885	15.05
592.305	15.01
592.726	14.98
593.147	14.96
593.567	14.94
593.987	14.92
594.408	14.88
594.828	14.84
595.248	14.83
595.669	14.8
596.089	14.76
596.509	14.72
596.929	14.69
597.349	14.65
597.769	14.59
598.189	14.56
598.608	14.52
599.028	14.47
599.448	14.44
599.867	14.39
600.287	14.34
600.706	14.3
601.126	14.25
601.545	14.19
601.965	14.14
602.384	14.08
602.803	14.01
603.222	13.96
603.641	13.9
604.061	13.82
604.48	13.75
604.898	13.67
605.317	13.6
605.736	13.52
606.155	13.45
606.574	13.37
606.992	13.3
607.411	13.23
607.829	13.1
608.248	13.04
608.666	12.97
609.085	12.9
609.503	12.82
609.921	12.75
610.339	12.68
610.758	12.61
611.176	12.55
611.594	12.45
612.012	12.36
612.43	12.34
612.847	12.25
613.265	12.17
613.683	12.1
614.101	12.03
614.518	11.96
614.936	11.89
615.353	11.82
615.771	11.74
616.188	11.71
616.606	11.65
617.023	11.58
617.44	11.51
617.857	11.46
618.274	11.4
618.691	11.37
619.108	11.32
619.525	11.27
619.942	11.23
620.359	11.21
620.776	11.16
621.192	11.14
621.609	11.12
622.026	11.09
622.442	11.07
622.859	11.05
623.275	11.03
623.691	11.03
624.108	11.01
624.524	10.99
624.94	10.97
625.356	10.95
625.772	10.94
626.188	10.94
626.604	10.91
627.02	10.9
627.436	10.89
627.852	10.87
628.268	10.84
628.683	10.83
629.099	10.82
629.514	10.8
629.93	10.77
630.345	10.73
630.761	10.68
631.176	10.66
631.591	10.63
632.007	10.59
632.422	10.56
632.837	10.53
633.252	10.49
633.667	10.41
634.082	10.38
634.497	10.31
634.911	10.25
635.326	10.18
635.741	10.11
636.155	10.02
636.57	9.94
636.984	9.83
637.399	9.73
637.813	9.63
638.228	9.54
638.642	9.42
639.056	9.34
639.47	9.24
639.884	9.13
640.298	9.03
640.712	8.95
641.126	8.85
641.54	8.77
641.954	8.69
642.368	8.6
642.781	8.52
643.195	8.43
643.609	8.34
644.022	8.26
644.436	8.18
644.849	8.11
645.262	8.03
645.676	7.94
646.089	7.86
646.502	7.77
646.915	7.69
647.328	7.64
647.741	7.56
648.154	7.53
648.567	7.49
648.98	7.46
649.393	7.42
649.805	7.37
650.218	7.35
650.631	7.32
651.043	7.29
651.456	7.26
651.868	7.23
652.28	7.21
652.693	7.16
653.105	7.12
653.517	7.07
653.929	7.04
654.341	7.01
654.753	6.96
655.165	6.92
655.577	6.88
655.989	6.82
656.401	6.77
656.813	6.71
657.224	6.67
657.636	6.62
658.047	6.56
658.459	6.48
658.87	6.43
659.282	6.39
659.693	6.32
660.104	6.28
660.515	6.24
660.926	6.2
661.338	6.16
661.749	6.1
662.159	6.05
662.57	6.01
662.981	5.97
663.392	5.93
663.803	5.89
664.213	5.87
664.624	5.83
665.035	5.79
665.445	5.76
665.855	5.74
666.266	5.72
666.676	5.69
667.086	5.68
667.497	5.66
667.907	5.64
668.317	5.63
668.727	5.63
669.137	5.63
669.547	5.63
669.956	5.64
670.366	5.64
670.776	5.64
671.186	5.65
671.595	5.66
672.005	5.68
672.414	5.69
672.824	5.72
673.233	5.74
673.642	5.74
674.052	5.76
674.461	5.78
674.87	5.81
675.279	5.84
675.688	5.86
676.097	5.89
676.506	5.9
676.915	5.92
677.323	5.95
677.732	5.97
678.141	6.02
678.549	6.06
678.958	6.1
679.366	6.12
679.775	6.17
680.183	6.23
680.592	6.28
681	6.34
681.408	6.4
681.816	6.45
682.224	6.53
682.632	6.62
683.04	6.69
683.448	6.78
683.856	6.9
684.264	7.03
684.671	7.16
685.079	7.3
685.487	7.48
685.894	7.67
686.302	7.9
686.709	8.11
687.116	8.37
687.524	8.66
687.931	8.96
688.338	9.28
688.745	9.64
689.152	10.02
689.559	10.44
689.966	10.86
690.373	11.32
690.78	11.78
691.187	12.29
691.593	12.8
692	13.35
692.407	13.93
692.813	14.52
693.22	15.11
693.626	15.73
694.032	16.35
694.439	17.01
694.845	17.65
695.251	18.33
695.657	19.02
696.063	19.71
696.469	20.37
696.875	21.04
697.281	21.7
697.687	22.39
698.093	23.06
698.498	23.74
698.904	24.41
699.31	25.07
699.715	25.73
700.12	26.34
700.526	27.01
700.931	27.65
701.337	28.28
701.742	28.91
702.147	29.52
702.552	30.13
702.957	30.74
703.362	31.36
703.767	31.94
704.172	32.53
704.577	33.15
704.981	33.72
705.386	34.29
705.791	34.85
706.195	35.41
706.6	35.96
707.004	36.5
707.408	37.02
707.813	37.52
708.217	38.06
708.621	38.57
709.025	39.06
709.43	39.54
709.834	40.05
710.237	40.55
710.641	41.06
711.045	41.54
711.449	42.01
711.853	42.49
712.256	42.98
712.66	43.41
713.064	43.85
713.467	44.3
713.87	44.75
714.274	45.22
714.677	45.64
715.08	46.04
715.484	46.46
715.887	46.88
716.29	47.29
716.693	47.67
717.096	48.08
717.499	48.47
717.901	48.85
718.304	49.21
718.707	49.54
719.109	49.9
719.512	50.29
719.915	50.66
720.317	51.01
720.719	51.33
721.122	51.65
721.524	51.98
721.926	52.3
722.328	52.58
722.731	52.88
723.133	53.17
723.535	53.46
723.937	53.69
724.338	53.92
724.74	54.16
725.142	54.35
725.544	54.56
725.945	54.78
726.347	55.01
726.748	55.21
727.15	55.43
727.551	55.64
727.952	55.85
728.354	56.04
728.755	56.24
729.156	56.45
729.557	56.69
729.958	56.94
730.359	57.1
730.76	57.23
731.161	57.44
731.562	57.6
731.962	57.74
732.363	57.86
732.763	57.97
733.164	58.06
733.564	58.14
733.965	58.23
734.365	58.25
734.766	58.37
735.166	58.46
735.566	58.47
735.966	58.53
736.366	58.59
736.766	58.69
737.166	58.83
737.566	58.94
737.966	59.03
738.365	59.15
738.765	59.27
739.165	59.29
739.564	59.39
739.964	59.5
740.363	59.56
740.763	59.63
741.162	59.65
741.561	59.67
741.96	59.73
742.36	59.79
742.759	59.77
743.158	59.77
743.557	59.86
743.955	59.92
744.354	59.99
744.753	60.07
745.152	60.11
745.55	60.21
745.949	60.26
746.348	60.32
746.746	60.39
747.144	60.5
747.543	60.58
747.941	60.65
748.339	60.7
748.737	60.74
749.136	60.75
749.534	60.82
749.932	60.83
750.33	60.84
750.727	60.83
751.125	60.82
751.523	60.84
751.921	60.85
752.318	60.84
752.716	60.81
753.113	60.82
753.511	60.81
753.908	60.77
754.305	60.74
754.703	60.76
755.1	60.76
755.497	60.74
755.894	60.72
756.291	60.71
756.688	60.71
757.085	60.7
757.482	60.7
757.878	60.74
758.275	60.77
758.672	60.8
759.068	60.78
759.465	60.78
759.861	60.79
760.258	60.78
760.654	60.79
761.05	60.8
761.447	60.79
761.843	60.75
762.239	60.7
762.635	60.67
763.031	60.68
763.427	60.66
763.822	60.63
764.218	60.6
764.614	60.55
765.01	60.52
765.405	60.47
765.801	60.46
766.196	60.46
766.592	60.46
766.987	60.48
767.382	60.46
767.778	60.47
768.173	60.52
768.568	60.52
768.963	60.55
769.358	60.55
769.753	60.59
770.148	60.62
770.542	60.62
770.937	60.6
771.332	60.6
771.726	60.57
772.121	60.55
772.515	60.51
772.91	60.53
773.304	60.53
773.699	60.52
774.093	60.5
774.487	60.5
774.881	60.49
775.275	60.51
775.669	60.5
776.063	60.5
776.457	60.51
776.851	60.52
777.245	60.52
777.638	60.53
778.032	60.53
778.425	60.52
778.819	60.51
779.212	60.49
779.606	60.5
779.999	60.47
780.392	60.46
780.786	60.45
781.179	60.45
781.572	60.43
781.965	60.46
782.358	60.47
782.751	60.51
783.143	60.53
783.536	60.59
783.929	60.59
784.322	60.63
784.714	60.65
785.107	60.72
785.499	60.73
785.891	60.76
786.284	60.73
786.676	60.76
787.068	60.75
787.46	60.73
787.852	60.74
788.245	60.75
788.636	60.77
789.028	60.75
789.42	60.69
789.812	60.71
790.204	60.69
790.595	60.68
790.987	60.67
791.378	60.68
791.77	60.7
792.161	60.69
792.553	60.69
792.944	60.68
793.335	60.72
793.726	60.74
794.117	60.74
794.508	60.74
794.899	60.8
795.29	60.77
795.681	60.8
796.072	60.78
796.463	60.77
796.853	60.76
797.244	60.79
797.634	60.8
798.025	60.79
798.415	60.78
798.806	60.81
799.196	60.83
799.586	60.85
799.976	60.84
800.366	60.85
800.756	60.85
801.146	60.86
801.536	60.85
801.926	60.83
802.316	60.87
802.706	60.87
803.095	60.85
803.485	60.84
803.874	60.87
804.264	60.92
804.653	60.95
805.043	60.98
805.432	60.98
805.821	60.97
806.21	61.03
806.599	61.06
806.988	61.08
807.377	61.1
807.766	61.07
808.155	61.06
808.544	61
808.933	61
809.321	61
809.71	61.05
810.098	61.02
810.487	61.02
810.875	60.99
811.264	61.01
811.652	61.04
812.04	61.07
812.428	61.12
812.816	61.16
813.204	61.17
813.592	61.16
813.98	61.13
814.368	61.18
814.756	61.19
815.144	61.22
815.531	61.23
815.919	61.25
816.306	61.25
816.694	61.24
817.081	61.24
817.469	61.26
817.856	61.31
818.243	61.35
818.63	61.38
819.017	61.37
819.404	61.34
819.791	61.34
820.178	61.33
820.565	61.36
820.952	61.36
821.339	61.39
821.725	61.4
822.112	61.39
822.498	61.38
822.885	61.37
823.271	61.4
823.657	61.44
824.044	61.44
824.43	61.45
824.816	61.44
825.202	61.43
825.588	61.4
825.974	61.38
826.36	61.36
826.746	61.41
827.132	61.39
827.517	61.39
827.903	61.37
828.289	61.39
828.674	61.39
829.06	61.41
829.445	61.44
829.83	61.46
830.216	61.47
830.601	61.48
830.986	61.41
831.371	61.43
831.756	61.39
832.141	61.39
832.526	61.37
832.911	61.38
833.295	61.37
833.68	61.36
834.065	61.36
834.449	61.35
834.834	61.33
835.218	61.37
835.603	61.36
835.987	61.36
836.371	61.33
836.755	61.32
837.139	61.27
837.524	61.27
837.908	61.21
838.291	61.19
838.675	61.19
839.059	61.17
839.443	61.12
839.827	61.11
840.21	61.12
840.594	61.15
840.977	61.13
841.361	61.15
841.744	61.14
842.127	61.14
842.511	61.11
842.894	61.08
843.277	61.1
843.66	61.11
844.043	61.1
844.426	61.09
844.809	61.06
845.191	61.05
845.574	61.03
845.957	61.02
846.339	61.02
846.722	61.03
847.104	61.04
847.487	61.04
847.869	61.03
848.252	61.02
848.634	61.03
849.016	61.08
849.398	61.07
849.78	61.08
850.162	61.07
850.544	61.1
850.926	61.09
851.307	61.13
851.689	61.12
852.071	61.1
852.452	61.09
852.834	61.08
853.215	61.06
853.597	61.08
853.978	61.06
854.359	61.08
854.741	61.06
855.122	61.08
855.503	61.03
855.884	61.01
856.265	61.03
856.646	61.01
857.026	61.05
857.407	61.02
857.788	60.99
858.169	61.01
858.549	61
858.93	61
859.31	60.95
859.69	60.96
860.071	61
860.451	60.99
860.831	60.99
861.211	60.94
861.591	60.98
861.971	60.98
862.351	60.98
862.731	60.99
863.111	61.01
863.491	61.04
863.87	61.01
864.25	61.02
864.629	61.02
865.009	61.03
865.388	61.03
865.768	61.01
866.147	61.02
866.526	61.03
866.905	61.03
867.284	61.01
867.663	61.02
868.042	61.05
868.421	61.02
868.8	61.03
869.179	61.01
869.558	61.03
869.936	61.06
870.315	61.05
870.693	61.04
871.072	61.05
871.45	61.05
871.828	61.03
872.207	61.04
872.585	61.03
872.963	61.02
873.341	61.08
873.719	61.07
874.097	61.05
874.475	61.06
874.853	61.04
875.23	61.04
875.608	61.04
875.986	61.06
876.363	61.06
876.741	61.09
877.118	61.11
877.495	61.08
877.873	61.07
878.25	61.12
878.627	61.15
879.004	61.22
879.381	61.22
879.758	61.2
880.135	61.18
880.512	61.18
880.889	61.17
881.265	61.17
881.642	61.18
882.019	61.22
882.395	61.17
882.772	61.16
883.148	61.14
883.524	61.15
883.901	61.16
884.277	61.18
884.653	61.18
885.029	61.2
885.405	61.19
885.781	61.18
886.157	61.18
886.532	61.18
886.908	61.22
887.284	61.27
887.659	61.26
888.035	61.27
888.411	61.28
888.786	61.26
889.161	61.26
889.537	61.26
889.912	61.25
890.287	61.23
890.662	61.21
891.037	61.16
891.412	61.08
891.787	61.08
892.162	61.06
892.536	61.06
892.911	61.05
893.286	60.99
893.66	60.97
894.035	60.92
894.409	60.91
894.784	60.9
895.158	60.89
895.532	60.86
895.906	60.83
896.281	60.8
896.655	60.77
897.029	60.75
897.402	60.78
897.776	60.76
898.15	60.78
898.524	60.77
898.898	60.74
899.271	60.76
899.645	60.78
900.018	60.75
900.392	60.75
900.765	60.74
901.138	60.75
901.511	60.78
901.884	60.79
902.258	60.78
902.631	60.79
903.003	60.8
903.376	60.77
903.749	60.78
904.122	60.82
904.495	60.86
904.867	60.87
905.24	60.89
905.612	60.87
905.985	60.89
906.357	60.89
906.729	60.88
907.102	60.89
907.474	60.91
907.846	60.9
908.218	60.86
908.59	60.82
908.962	60.81
909.334	60.78
909.705	60.75
910.077	60.73
910.449	60.77
910.82	60.76
911.192	60.76
911.563	60.72
911.935	60.72
912.306	60.74
912.677	60.74
913.048	60.74
913.419	60.72
913.79	60.75
914.161	60.76
914.532	60.72
914.903	60.68
915.274	60.67
915.645	60.71
916.015	60.72
916.386	60.69
916.756	60.66
917.127	60.66
917.497	60.66
917.868	60.64
918.238	60.67
918.608	60.68
918.978	60.71
919.348	60.71
919.718	60.69
920.088	60.68
920.458	60.74
920.828	60.76
921.198	60.76
921.567	60.76
921.937	60.78
922.306	60.74
922.676	60.72
923.045	60.71
923.415	60.7
923.784	60.71
924.153	60.72
924.522	60.67
924.891	60.68
925.26	60.71
925.629	60.72
925.998	60.68
926.367	60.66
926.736	60.64
927.104	60.64
927.473	60.65
927.842	60.59
928.21	60.58
928.578	60.57
928.947	60.52
929.315	60.48
929.683	60.48
930.051	60.44
930.42	60.45
930.788	60.47
931.156	60.44
931.523	60.37
931.891	60.34
932.259	60.27
932.627	60.18
932.994	60.18
933.362	60.14
933.729	60.03
934.097	59.98
934.464	59.9
934.831	59.83
935.199	59.79
935.566	59.74
935.933	59.71
936.3	59.66
936.667	59.64
937.034	59.53
937.401	59.47
937.767	59.48
938.134	59.47
938.501	59.45
938.867	59.46
939.234	59.48
939.6	59.46
939.967	59.5
940.333	59.68
940.699	59.81
941.065	59.97
941.431	60.07
941.798	60.17
942.163	60.3
942.529	60.35
942.895	60.39
943.261	60.47
943.627	60.65
943.992	60.68
944.358	60.68
944.723	60.73
945.089	60.85
945.454	60.94
945.82	60.97
946.185	60.96
946.55	61.06
946.915	61.08
947.28	61.06
947.645	61
948.01	61.05
948.375	61.04
948.74	60.95
949.104	60.89
949.469	60.71
949.834	60.67
950.198	60.58
950.562	60.53
950.927	60.46
951.291	60.35
951.655	60.33
952.02	60.27
952.384	60.26
952.748	60.22
953.112	60.14
953.476	60.18
953.839	60.13
954.203	60.13
954.567	60.1
954.931	60.06
955.294	60.04
955.658	59.97
956.021	59.97
956.385	59.98
956.748	60.01
957.111	59.95
957.474	59.99
957.837	60.04
958.2	60
958.563	59.94
958.926	59.94
959.289	60
959.652	60.01
960.015	59.97
960.377	59.93
960.74	59.84
961.102	59.92
961.465	59.79
961.827	59.62
962.189	59.61
962.552	59.52
962.914	59.46
963.276	59.42
963.638	59.36
964	59.36
964.362	59.28
964.724	59.22
965.085	59.13
965.447	59.1
965.809	59.1
966.17	59.11
966.532	59.16
966.893	59.19
967.255	59.13
967.616	59.19
967.977	59.16
968.338	59.12
968.699	59.12
969.061	59.14
969.421	59.11
969.782	59.1
970.143	59.06
970.504	59.06
970.865	59.02
971.225	59.07
971.586	59.04
971.946	59.07
972.307	59.09
972.667	59.13
973.027	59.1
973.388	59.19
973.748	59.26
974.108	59.28
974.468	59.28
974.828	59.31
975.188	59.32
975.548	59.35
975.907	59.3
976.267	59.33
976.627	59.33
976.986	59.32
977.346	59.3
977.705	59.31
978.064	59.33
978.424	59.29
978.783	59.27
979.142	59.21
979.501	59.08
979.86	59.1
980.219	59.01
980.578	59
980.937	59
981.296	59.01
981.654	59.04
982.013	59
982.371	59.02
982.73	59.05
983.088	59
983.447	59.05
983.805	59.1
984.163	59.18
984.521	59.09
984.879	59.15
985.237	59.19
985.595	59.1
985.953	59.17
986.311	59.21
986.669	59.13
987.026	59.17
987.384	59.13
987.741	59.06
988.099	59.07
988.456	59.1
988.814	59.04
989.171	58.96
989.528	58.89
989.885	58.86
990.242	58.84
990.599	58.98
990.956	59.04
991.313	59.16
991.67	59.22
992.027	59.16
992.383	59.25
992.74	59.31
993.096	59.38
993.453	59.36
993.809	59.32
994.165	59.31
994.522	59.06
994.878	59.05
995.234	58.88
995.59	58.78
995.946	58.88
996.302	58.77
996.658	58.71
997.013	58.65
997.369	58.86
997.725	59.06
998.08	59.04
998.436	59.3
998.791	59.26
999.147	59.34
999.502	59.4
999.857	59.33
1000.212	59.34
1000.567	59.41
1000.922	59.35
1001.277	59.01
1001.632	58.8
1001.987	58.87
1002.342	58.77
1002.696	58.76
1003.051	58.66
1003.406	58.63
1003.76	58.65
1004.114	58.73
1004.469	58.58
1004.823	58.64
1005.177	58.98
1005.531	58.98
1005.885	58.96
1006.239	58.88
1006.593	58.91
1006.947	59.04
1007.301	59.03
1007.655	59.05
1008.008	58.93
1008.362	58.94
1008.715	58.9
1009.069	58.85
1009.422	58.55
1009.776	58.52
1010.129	58.41
1010.482	58.4
1010.835	58.27
1011.188	58.21
1011.541	57.85
1011.894	58.01
1012.247	58.08
1012.6	57.97
1012.952	57.77
1013.305	57.95
1013.657	57.91
1014.01	58.18
1014.362	58.17
1014.715	58.13
1015.067	58.28
1015.419	58.69
1015.771	58.68
1016.123	58.62
1016.475	58.93
1016.827	59.13
1017.179	59.29
1017.531	59.29
1017.883	59.26
1018.234	59.17
1018.586	59.54
1018.938	59.27
1019.289	59.02
1019.64	59.05
1019.992	59.46
1020.343	59.07
1020.694	58.95
1021.045	58.98
1021.396	59.08
1021.747	59.09
1022.098	59.42
1022.449	59.04
1022.8	59.03
1023.151	59.13
1023.501	59.07
1023.852	58.74
1024.202	58.95
1024.553	59.02
1024.903	58.79
1025.253	58.76
1025.604	58.46
1025.954	57.92
1026.304	58.29
1026.654	58.6
1027.004	58.72
1027.354	58.59
1027.703	58.3
1028.053	58.13
1028.403	57.83
1028.753	58.14
1029.102	57.94
1029.452	58.03
1029.801	58.14
1030.15	57.85
1030.499	57.57
897.758	455.21
901.051	461.16
904.343	466.87
907.636	458.83
910.928	451.78
914.22	459.28
917.511	449.75
920.803	427.39
924.094	409.34
927.384	416.82
930.675	405.8
933.965	400.95
937.255	403.82
940.544	385.72
943.834	366.26
947.123	362.48
950.411	342.87
953.7	337.04
956.988	329.64
960.276	316.18
963.563	314.12
966.851	296.64
970.138	290.88
973.424	271.27
976.711	269.03
979.997	265.2
983.283	257.89
986.568	250.65
989.853	243.88
993.138	235.78
996.423	235.52
999.708	227.7
1002.992	228.13
1006.275	224.65
1009.559	222.29
1012.842	216.41
1016.125	207.7
1019.408	204.89
1022.69	205.3
1025.972	203.63
1029.254	199.86
1032.536	195.46
1035.817	189.61
1039.098	187.49
1042.379	182.38
1045.659	180.65
1048.939	179.99
1052.219	177.52
1055.498	174.58
1058.778	170.48
1062.057	168.53
1065.335	168.32
1068.614	166.1
1071.892	164.37
1075.17	161.35
1078.447	160.13
1081.724	158.49
1085.001	154.65
1088.278	156.08
1091.554	154.51
1094.83	154.53
1098.106	151.98
1101.382	150.98
1104.657	150.83
1107.932	150.73
1111.206	149.65
1114.481	148.83
1117.755	147.17
1121.029	147.2
1124.302	144.48
1127.575	143.71
1130.848	142.21
1134.121	140.94
1137.393	140.6
1140.665	137.74
1143.937	135.92
1147.208	135.58
1150.48	133.77
1153.75	133.61
1157.021	132.49
1160.291	132.71
1163.561	132.04
1166.831	131.94
1170.101	131.78
1173.37	129.96
1176.639	130.33
1179.907	130.24
1183.176	128.99
1186.444	129.18
1189.711	128.36
1192.979	129.14
1196.246	128.94
1199.513	128.92
1202.78	128.07
1206.046	128.33
1209.312	128.83
1212.578	129.26
1215.843	130.79
1219.108	131.81
1222.373	133.69
1225.638	135.7
1228.902	138.41
1232.166	141.69
1235.43	142.48
1238.693	146.66
1241.956	149.53
1245.219	153.92
1248.482	154.52
1251.744	154.12
1255.006	153.92
1258.268	150.58
1261.529	149.56
1264.79	146.36
1268.051	143.71
1271.312	142.14
1274.572	140.06
1277.832	136.93
1281.092	134.82
1284.351	132.72
1287.61	132.61
1290.869	133.43
1294.128	132.88
1297.386	132.52
1300.644	131.52
1303.902	130.64
1307.159	130.83
1310.416	130.82
1313.673	132.59
1316.93	133.39
1320.186	134.78
1323.442	136.41
1326.697	137.24
1329.953	138.3
1333.208	141.36
1336.463	146.49
1339.717	149.35
1342.972	154.04
1346.226	158.39
1349.479	158.7
1352.733	165.13
1355.986	167.85
1359.238	170.25
1362.491	171.28
1365.743	176.93
1368.995	179.46
1372.247	177.26
1375.498	175.95
1378.749	182.15
1382	180.98
1385.251	178.9
1388.501	177.69
1391.751	178.79
1395	177.69
1398.25	179.03
1401.499	177.95
1404.748	175.58
1407.996	173.99
1411.244	173.88
1414.492	170.39
1417.74	164.8
1420.987	162.71
1424.234	159.57
1427.481	154.17
1430.728	150.52
1433.974	145.39
1437.22	140.89
1440.465	136.16
1443.711	131.71
1446.956	128.39
1450.201	123.49
1453.445	117.8
1456.689	114.48
1459.933	111.41
1463.177	107.06
1466.42	105.73
1469.663	102.47
1472.906	99.78
1476.148	97.07
1479.391	95.62
1482.633	94.29
1485.874	93.23
1489.115	93.32
1492.356	92.01
1495.597	90.7
1498.838	91.14
1502.078	89.99
1505.318	90.44
1508.557	89.57
1511.797	90.18
1515.036	89.74
1518.274	89.35
1521.513	89.39
1524.751	88.6
1527.989	89.54
1531.227	89.37
1534.464	89.34
1537.701	89.39
1540.938	88.86
1544.174	88.75
1547.41	88.66
1550.646	88.75
1553.882	88.66
1557.117	88.34
1560.352	88.75
1563.587	88.03
1566.821	87.92
1570.055	87.61
1573.289	87.52
1576.523	87.67
1579.756	88.03
1582.989	88.56
1586.222	88.35
1589.454	87.9
1592.686	88.25
1595.918	87.91
1599.15	88.05
1602.381	88.61
1605.612	88.87
1608.843	88.54
1612.073	89.26
1615.303	89.16
1618.533	88.64
1621.762	89.07
1624.992	89.32
1628.221	89.02
1631.449	89.39
1634.678	89.24
1637.906	88.63
1641.134	89.02
1644.361	89.21
1647.588	88.57
1650.815	89.01
1654.042	89.07
1657.269	88.72
1660.495	89.57
1663.72	89.25
1666.946	89.4
1670.171	89.92
1673.396	90.68
1676.621	90.23
1679.845	90.56
1683.069	90.78
1686.293	90.41
1689.517	90.01
1692.74	90.34
1695.963	90.17
1699.185	90.67
1702.408	91.15
1705.63	90.86
1708.852	91.18
1712.073	91.12
1715.294	90.83
1718.515	91.35
1721.736	91.54
1724.956	91.93
1728.176	91.7
1731.396	91.8
1734.616	91.79
1737.835	91.5
1741.054	91.25
1744.272	91.08
1747.491	91.39
1750.709	91.79
1753.927	91.53
1757.144	92.15
1760.361	92.29
1763.578	92.68
1766.795	93.09
1770.011	92.94
1773.227	93.03
1776.443	94.28
1779.658	94.15
1782.874	94.78
1786.089	94.81
1789.303	94.84
1792.518	95.1
1795.732	95.53
1798.945	96.55
1802.159	96
1805.372	97.58
1808.585	98.11
1811.797	98.4
1815.01	98.91
1818.222	99.19
1821.434	99.39
1824.645	100.08
1827.856	100.69
1831.067	101.24
1834.278	101.65
1837.488	102.88
1840.698	103.13
1843.908	103.39
1847.117	103.88
1850.326	104.28
1853.535	105.33
1856.744	106.36
1859.952	106.89
1863.16	106.87
1866.368	105.33
1869.575	106.15
1872.782	104.55
1875.989	102.43
1879.196	101.47
1882.402	100.79
1885.608	100.79
1888.814	98.7
1892.019	98.62
1895.224	96.79
1898.429	96.23
1901.634	96.61
1904.838	95.4
1908.042	96.18
1911.246	97.08
1914.449	97.56
1917.652	96.03
1920.855	95.83
1924.058	96.11
1927.26	95.05
1930.462	95.76
1933.664	95.75
1936.865	95.47
1940.066	93.52
1943.267	93.51
1946.467	94.39
1949.668	94.1
1952.868	95.04
1956.067	95
1959.267	95.04
1962.466	95.82
1965.665	96.77
1968.863	97.54
1972.061	98.64
1975.259	101.78
1978.457	102.44
1981.654	102.71
1984.852	104.31
1988.048	105.11
1991.245	106.97
1994.441	109.18
1997.637	110.94
2000.833	113.59
2004.028	114.34
2007.223	117.94
2010.418	118.77
2013.613	125.19
2016.807	128.64
2020.001	130.45
2023.194	134.5
2026.388	139.72
2029.581	145.59
2032.774	149.34
2035.966	153.28
2039.158	158.53
2042.35	160.25
2045.542	164.64
2048.733	168.58
2051.924	170.23
2055.115	172.56
2058.306	175.08
2061.496	176.71
2064.686	177.02
2067.875	176.05
2071.065	177.02
2074.254	176.96
2077.442	183.17
2080.631	183.61
2083.819	185.18
2087.007	188.75
2090.195	194
2093.382	193.06
2096.569	193.63
2099.756	196.84
2102.942	202.46
2106.128	207.67
2109.314	210.94
2112.5	210.57
2115.685	209.1
2118.87	208.9
2122.055	210.5
2125.239	212.04
2128.424	219.45
2131.608	216.54
2134.791	217.58
2137.974	217.97
2141.157	219.17
2144.34	219.65
2147.523	224.19
2150.705	231.21
2153.887	229.4
2157.068	231.26
2160.25	235.29
2163.431	232.11
2166.611	237.9
2169.792	242.36
2172.972	245.06
2176.152	246.17
2179.331	250.3
2182.511	250.1
2185.69	253.83
2188.868	263.58
2192.047	269.42
2195.225	271.65
2198.403	275.72
2201.58	272.46
2204.758	281.88
2207.935	284.68
2211.111	286.83
2214.288	288.42
2217.464	290.62
2220.64	293.52
2223.815	292.66
2226.991	288.08
2230.166	292.21
2233.34	300.37
2236.515	309.81
2239.689	299.68
2242.863	306.1
2246.036	305.57
2249.209	314.43
2252.382	313.64
2255.555	322.58
2258.727	325.1
2261.9	338.18
2265.071	338.78
2268.243	334.12
2271.414	343.91
2274.585	354.4
2277.756	355.41
2280.926	369.09
2284.096	367.7
2287.266	371.67
2290.436	365.35
2293.605	372.03
2296.774	382.76
2299.942	386.27
2303.111	402.5
2306.279	408.09
2309.447	409.24
2312.614	406.64
2315.781	414.83
2318.948	420.74
2322.115	427.89
2325.281	452.6
2328.447	447.14
2331.613	446.12
2334.779	453.06
2337.944	455.15
2341.109	463.94
2344.274	464.88
2347.438	478.75
2350.602	486.78
2353.766	511.45
2356.929	515.32
2360.092	519.17
2363.255	527.1
2366.418	534.39
2369.58	543.9
2372.742	547.69
2375.904	543.57
2379.066	567.48
2382.227	596.41
2385.388	594.45
2388.548	569.23
2391.709	559.84
2394.869	578.21
2398.029	576.62
2401.188	577.28
2404.347	593.38
2407.506	610.03
2410.665	588.78
2413.823	588.81
2416.981	590.71
2420.139	562.86
2423.296	609.91
2426.453	648.68
2429.61	615.88
2432.767	658.47
2435.923	683.38
2439.079	661.67
2442.235	669.45
2445.391	691.11
2448.546	684.26
2451.701	727.03
2454.855	773.27
2458.009	685.88
2461.163	696.68
2464.317	702.3
2467.471	684.9
2470.624	704.52
2473.777	689.04
2476.929	677.89
2480.082	708.05
2483.234	746.32
2486.385	740.79
2489.537	764.21
2492.688	842.3
2495.839	824.96
2498.989	851.46
2502.14	858.54
2505.29	821.43
2508.439	899.27
2511.589	920.12
2514.738	903.28
2517.887	890.55
2521.035	845.56
2524.183	825.67
2527.331	813.6
2530.479	799.35
2533.627	814.35
