Data from N_2_dec_ct_2n_073_Splice17_15.txt Node
Date: Sat Feb 29 14:08:37 EST 2020
User: sa697716
Spectrometer: FLMS03696
Trigger mode: 0
Integration Time (sec): 3.180400E-1
Scans to average: 20
Electric dark correction enabled: true
Nonlinearity correction enabled: true
Boxcar width: 5
XAxis mode: Wavelengths
Number of Pixels in Spectrum: 2048
>>>>>Begin Spectral Data<<<<<
187.83	105.71
188.298	105.31
188.766	111.13
189.233	92.28
189.701	107.38
190.169	104.09
190.636	97.51
191.104	85.34
191.571	154.05
192.039	-19.46
192.506	568.59
192.974	8039.4
193.441	-214.44
193.908	114.91
194.375	18.27
194.842	144.04
195.31	111.9
195.777	86.04
196.244	45.08
196.711	41.68
197.177	39.78
197.644	40.73
198.111	40.02
198.578	39.63
199.045	41.07
199.511	42.2
199.978	42.59
200.445	42.65
200.911	42.75
201.378	42.7
201.844	43.29
202.31	44.1
202.777	43.91
203.243	44.46
203.709	45.48
204.176	44.91
204.642	44.56
205.108	44.29
205.574	44.47
206.04	44.31
206.506	44.07
206.972	44
207.438	43.53
207.903	43.99
208.369	43.82
208.835	43.79
209.301	43.97
209.766	44.11
210.232	44.14
210.697	43.89
211.163	43.49
211.628	43.14
212.094	42.68
212.559	42.32
213.024	41.76
213.49	41.29
213.955	40.89
214.42	40.14
214.885	39.32
215.35	38.85
215.815	38.09
216.28	37.51
216.745	36.8
217.21	35.81
217.675	34.79
218.14	33.86
218.604	32.85
219.069	32.07
219.534	31.55
219.998	31.01
220.463	30.45
220.927	29.95
221.392	29.54
221.856	29.17
222.32	28.84
222.785	28.57
223.249	28.25
223.713	28.05
224.177	27.81
224.642	27.52
225.106	27.24
225.57	26.99
226.034	26.77
226.497	26.51
226.961	26.22
227.425	25.97
227.889	25.7
228.353	25.45
228.816	25.19
229.28	24.91
229.744	24.67
230.207	24.43
230.671	24.17
231.134	23.89
231.597	23.63
232.061	23.42
232.524	23.19
232.987	22.94
233.45	22.68
233.914	22.47
234.377	22.25
234.84	22.02
235.303	21.79
235.766	21.57
236.229	21.38
236.691	21.2
237.154	20.98
237.617	20.77
238.08	20.6
238.542	20.42
239.005	20.22
239.468	20.02
239.93	19.86
240.393	19.67
240.855	19.48
241.317	19.32
241.78	19.16
242.242	18.99
242.704	18.84
243.166	18.69
243.629	18.54
244.091	18.4
244.553	18.27
245.015	18.12
245.477	17.99
245.939	17.88
246.4	17.74
246.862	17.6
247.324	17.5
247.786	17.38
248.247	17.25
248.709	17.14
249.17	17.02
249.632	16.91
250.093	16.8
250.555	16.7
251.016	16.59
251.477	16.49
251.939	16.4
252.4	16.31
252.861	16.24
253.322	16.16
253.783	16.09
254.244	16.03
254.705	15.96
255.166	15.9
255.627	15.84
256.088	15.77
256.549	15.71
257.009	15.64
257.47	15.58
257.931	15.52
258.391	15.45
258.852	15.38
259.312	15.31
259.773	15.25
260.233	15.19
260.694	15.14
261.154	15.08
261.614	15.03
262.074	14.98
262.534	14.91
262.994	14.85
263.455	14.79
263.915	14.75
264.374	14.7
264.834	14.66
265.294	14.61
265.754	14.57
266.214	14.53
266.673	14.48
267.133	14.44
267.593	14.42
268.052	14.39
268.512	14.36
268.971	14.33
269.431	14.31
269.89	14.28
270.349	14.25
270.809	14.22
271.268	14.2
271.727	14.17
272.186	14.15
272.645	14.11
273.104	14.08
273.563	14.05
274.022	14.02
274.481	13.98
274.94	13.95
275.399	13.91
275.857	13.88
276.316	13.85
276.775	13.81
277.233	13.76
277.692	13.72
278.15	13.69
278.609	13.65
279.067	13.62
279.525	13.59
279.984	13.56
280.442	13.53
280.9	13.49
281.358	13.45
281.816	13.43
282.274	13.4
282.732	13.38
283.19	13.35
283.648	13.32
284.106	13.3
284.564	13.27
285.021	13.25
285.479	13.23
285.937	13.21
286.394	13.19
286.852	13.16
287.309	13.16
287.767	13.14
288.224	13.12
288.682	13.1
289.139	13.07
289.596	13.03
290.053	13
290.511	12.96
290.968	12.93
291.425	12.9
291.882	12.88
292.339	12.83
292.796	12.8
293.252	12.77
293.709	12.74
294.166	12.71
294.623	12.69
295.079	12.67
295.536	12.64
295.992	12.62
296.449	12.6
296.905	12.57
297.362	12.56
297.818	12.55
298.274	12.53
298.731	12.5
299.187	12.48
299.643	12.46
300.099	12.45
300.555	12.43
301.011	12.41
301.467	12.38
301.923	12.36
302.379	12.35
302.835	12.33
303.291	12.31
303.746	12.29
304.202	12.28
304.658	12.26
305.113	12.24
305.569	12.24
306.024	12.22
306.479	12.21
306.935	12.2
307.39	12.19
307.845	12.17
308.301	12.16
308.756	12.16
309.211	12.14
309.666	12.14
310.121	12.13
310.576	12.1
311.031	12.11
311.486	12.1
311.94	12.08
312.395	12.08
312.85	12.06
313.305	12.06
313.759	12.04
314.214	12.04
314.668	12.03
315.123	12.02
315.577	12.02
316.032	12
316.486	11.98
316.94	11.98
317.394	11.95
317.849	11.94
318.303	11.93
318.757	11.9
319.211	11.87
319.665	11.85
320.119	11.82
320.572	11.79
321.026	11.76
321.48	11.74
321.934	11.72
322.387	11.69
322.841	11.67
323.295	11.64
323.748	11.62
324.202	11.59
324.655	11.57
325.108	11.54
325.562	11.51
326.015	11.49
326.468	11.46
326.921	11.43
327.374	11.4
327.827	11.38
328.28	11.34
328.733	11.32
329.186	11.31
329.639	11.3
330.092	11.28
330.545	11.27
330.997	11.26
331.45	11.24
331.903	11.23
332.355	11.22
332.808	11.21
333.26	11.21
333.713	11.19
334.165	11.18
334.617	11.17
335.069	11.16
335.522	11.15
335.974	11.14
336.426	11.13
336.878	11.11
337.33	11.11
337.782	11.1
338.234	11.09
338.686	11.09
339.137	11.08
339.589	11.06
340.041	11.04
340.493	11.02
340.944	11
341.396	10.99
341.847	10.98
342.299	10.94
342.75	10.91
343.201	10.88
343.653	10.86
344.104	10.83
344.555	10.82
345.006	10.79
345.457	10.77
345.908	10.74
346.359	10.73
346.81	10.71
347.261	10.68
347.712	10.67
348.163	10.65
348.613	10.62
349.064	10.59
349.515	10.57
349.965	10.56
350.416	10.55
350.866	10.54
351.317	10.51
351.767	10.48
352.217	10.47
352.668	10.47
353.118	10.46
353.568	10.47
354.018	10.47
354.468	10.46
354.918	10.45
355.368	10.44
355.818	10.43
356.268	10.44
356.718	10.44
357.168	10.44
357.617	10.42
358.067	10.4
358.517	10.38
358.966	10.37
359.416	10.38
359.865	10.36
360.315	10.35
360.764	10.34
361.213	10.32
361.663	10.31
362.112	10.31
362.561	10.31
363.01	10.31
363.459	10.3
363.908	10.28
364.357	10.27
364.806	10.26
365.255	10.25
365.703	10.23
366.152	10.23
366.601	10.22
367.05	10.21
367.498	10.2
367.947	10.18
368.395	10.18
368.844	10.17
369.292	10.15
369.74	10.15
370.189	10.14
370.637	10.14
371.085	10.15
371.533	10.13
371.981	10.12
372.429	10.1
372.877	10.1
373.325	10.09
373.773	10.09
374.221	10.08
374.669	10.09
375.116	10.07
375.564	10.05
376.012	10.04
376.459	10.05
376.907	10.05
377.354	10.05
377.801	10.06
378.249	10.06
378.696	10.07
379.143	10.07
379.591	10.06
380.038	10.08
380.485	10.1
380.932	10.09
381.379	10.09
381.826	10.11
382.273	10.12
382.72	10.13
383.166	10.13
383.613	10.15
384.06	10.16
384.506	10.17
384.953	10.17
385.4	10.18
385.846	10.19
386.292	10.22
386.739	10.23
387.185	10.26
387.631	10.29
388.078	10.3
388.524	10.31
388.97	10.32
389.416	10.33
389.862	10.34
390.308	10.36
390.754	10.39
391.2	10.41
391.645	10.44
392.091	10.47
392.537	10.49
392.983	10.54
393.428	10.59
393.874	10.62
394.319	10.66
394.765	10.69
395.21	10.72
395.655	10.73
396.101	10.76
396.546	10.78
396.991	10.77
397.436	10.77
397.881	10.79
398.326	10.81
398.771	10.84
399.216	10.88
399.661	10.93
400.106	10.97
400.551	11
400.995	11
401.44	11
401.885	11.01
402.329	11.03
402.774	11.04
403.218	11.05
403.663	11.05
404.107	11.05
404.551	11.06
404.995	11.05
405.44	11.05
405.884	11.05
406.328	11.06
406.772	11.08
407.216	11.1
407.66	11.11
408.104	11.11
408.547	11.12
408.991	11.11
409.435	11.09
409.879	11.09
410.322	11.09
410.766	11.11
411.209	11.13
411.653	11.13
412.096	11.12
412.54	11.12
412.983	11.13
413.426	11.15
413.869	11.16
414.312	11.19
414.756	11.21
415.199	11.23
415.642	11.24
416.085	11.27
416.527	11.3
416.97	11.31
417.413	11.33
417.856	11.31
418.298	11.29
418.741	11.3
419.184	11.29
419.626	11.27
420.069	11.23
420.511	11.22
420.953	11.2
421.396	11.17
421.838	11.17
422.28	11.18
422.722	11.2
423.164	11.21
423.606	11.22
424.048	11.22
424.49	11.23
424.932	11.24
425.374	11.23
425.816	11.22
426.258	11.19
426.699	11.14
427.141	11.1
427.582	11.07
428.024	11.06
428.465	11.04
428.907	11.04
429.348	11.04
429.789	11.03
430.231	11.03
430.672	11.03
431.113	11.06
431.554	11.09
431.995	11.1
432.436	11.11
432.877	11.09
433.318	11.08
433.759	11.08
434.2	11.06
434.64	11.06
435.081	11.06
435.522	11.09
435.962	11.09
436.403	11.1
436.843	11.12
437.284	11.14
437.724	11.17
438.164	11.18
438.604	11.2
439.045	11.21
439.485	11.22
439.925	11.23
440.365	11.2
440.805	11.2
441.245	11.2
441.685	11.23
442.125	11.23
442.564	11.25
443.004	11.29
443.444	11.32
443.883	11.36
444.323	11.38
444.762	11.43
445.202	11.51
445.641	11.56
446.081	11.64
446.52	11.66
446.959	11.73
447.398	11.78
447.837	11.85
448.276	11.89
448.716	11.95
449.154	12.02
449.593	12.07
450.032	12.11
450.471	12.17
450.91	12.19
451.349	12.23
451.787	12.25
452.226	12.27
452.664	12.28
453.103	12.31
453.541	12.3
453.98	12.31
454.418	12.3
454.856	12.27
455.295	12.25
455.733	12.25
456.171	12.23
456.609	12.22
457.047	12.2
457.485	12.2
457.923	12.2
458.361	12.2
458.798	12.2
459.236	12.21
459.674	12.2
460.111	12.2
460.549	12.19
460.987	12.19
461.424	12.16
461.862	12.16
462.299	12.14
462.736	12.12
463.173	12.1
463.611	12.08
464.048	12.07
464.485	12.08
464.922	12.06
465.359	12.05
465.796	12.04
466.233	12.07
466.67	12.06
467.106	12.07
467.543	12.08
467.98	12.1
468.416	12.13
468.853	12.14
469.29	12.15
469.726	12.17
470.162	12.17
470.599	12.18
471.035	12.2
471.471	12.22
471.907	12.23
472.344	12.22
472.78	12.22
473.216	12.21
473.652	12.2
474.088	12.19
474.523	12.19
474.959	12.22
475.395	12.22
475.831	12.21
476.266	12.21
476.702	12.21
477.138	12.21
477.573	12.21
478.008	12.2
478.444	12.2
478.879	12.2
479.314	12.21
479.75	12.2
480.185	12.2
480.62	12.2
481.055	12.21
481.49	12.2
481.925	12.2
482.36	12.19
482.795	12.18
483.229	12.18
483.664	12.18
484.099	12.18
484.534	12.18
484.968	12.19
485.403	12.19
485.837	12.19
486.271	12.21
486.706	12.23
487.14	12.27
487.574	12.31
488.009	12.35
488.443	12.4
488.877	12.44
489.311	12.49
489.745	12.54
490.179	12.61
490.613	12.68
491.046	12.76
491.48	12.84
491.914	12.92
492.348	13
492.781	13.09
493.215	13.18
493.648	13.29
494.082	13.4
494.515	13.52
494.948	13.64
495.382	13.77
495.815	13.89
496.248	14.03
496.681	14.16
497.114	14.3
497.547	14.45
497.98	14.59
498.413	14.75
498.846	14.92
499.279	15.09
499.711	15.26
500.144	15.44
500.577	15.64
501.009	15.84
501.442	16.07
501.874	16.3
502.306	16.54
502.739	16.79
503.171	17.06
503.603	17.33
504.036	17.61
504.468	17.91
504.9	18.21
505.332	18.52
505.764	18.84
506.196	19.17
506.627	19.51
507.059	19.84
507.491	20.19
507.923	20.54
508.354	20.91
508.786	21.29
509.217	21.67
509.649	22.07
510.08	22.48
510.512	22.89
510.943	23.3
511.374	23.72
511.805	24.17
512.237	24.62
512.668	25.07
513.099	25.51
513.53	25.96
513.961	26.42
514.391	26.85
514.822	27.31
515.253	27.77
515.684	28.22
516.114	28.7
516.545	29.15
516.975	29.6
517.406	30.06
517.836	30.52
518.267	30.96
518.697	31.43
519.127	31.89
519.558	32.32
519.988	32.74
520.418	33.18
520.848	33.59
521.278	34
521.708	34.29
522.138	34.67
522.567	35.05
522.997	35.43
523.427	35.79
523.857	36.14
524.286	36.49
524.716	36.83
525.145	37.16
525.575	37.47
526.004	37.77
526.433	38.19
526.863	38.47
527.292	38.74
527.721	39.01
528.15	39.25
528.579	39.49
529.008	39.71
529.437	39.92
529.866	40.13
530.295	40.35
530.724	40.54
531.152	40.73
531.581	40.9
532.01	41.05
532.438	41.23
532.867	41.4
533.295	41.54
533.723	41.69
534.152	41.82
534.58	41.94
535.008	42.01
535.436	42.11
535.865	42.17
536.293	42.3
536.721	42.4
537.149	42.43
537.576	42.49
538.004	42.57
538.432	42.61
538.86	42.68
539.287	42.75
539.715	42.8
540.143	42.84
540.57	42.9
540.998	42.94
541.425	42.96
541.852	43.04
542.28	43.07
542.707	43.1
543.134	43.14
543.561	43.16
543.988	43.18
544.415	43.24
544.842	43.29
545.269	43.36
545.696	43.38
546.123	43.42
546.549	43.43
546.976	43.47
547.403	43.49
547.829	43.53
548.256	43.57
548.682	43.59
549.108	43.64
549.535	43.66
549.961	43.65
550.387	43.66
550.813	43.67
551.24	43.69
551.666	43.7
552.092	43.72
552.518	43.7
552.943	43.7
553.369	43.67
553.795	43.61
554.221	43.57
554.646	43.54
555.072	43.49
555.498	43.44
555.923	43.36
556.349	43.27
556.774	43.2
557.199	43.13
557.625	43.03
558.05	42.92
558.475	42.83
558.9	42.73
559.325	42.62
559.75	42.5
560.175	42.38
560.6	42.26
561.025	42.14
561.449	41.99
561.874	41.83
562.299	41.7
562.723	41.56
563.148	41.41
563.572	41.24
563.997	41.06
564.421	40.88
564.846	40.69
565.27	40.52
565.694	40.32
566.118	40.12
566.542	39.92
566.966	39.71
567.39	39.47
567.814	39.23
568.238	38.99
568.662	38.79
569.086	38.56
569.509	38.35
569.933	38.1
570.357	37.84
570.78	37.6
571.204	37.37
571.627	37.13
572.05	36.93
572.474	36.72
572.897	36.51
573.32	36.28
573.743	36.07
574.166	35.84
574.589	35.63
575.012	35.47
575.435	35.28
575.858	35.09
576.281	34.92
576.704	34.73
577.126	34.58
577.549	34.43
577.972	34.3
578.394	34.12
578.817	33.99
579.239	33.86
579.661	33.7
580.084	33.57
580.506	33.46
580.928	33.34
581.35	33.23
581.772	33.13
582.194	33.02
582.616	32.91
583.038	32.82
583.46	32.72
583.882	32.6
584.303	32.51
584.725	32.41
585.147	32.29
585.568	32.17
585.99	32.08
586.411	32
586.833	31.89
587.254	31.78
587.675	31.71
588.096	31.65
588.518	31.58
588.939	31.5
589.36	31.44
589.781	31.36
590.202	31.31
590.623	31.23
591.043	31.13
591.464	31.05
591.885	31
592.305	30.94
592.726	30.87
593.147	30.84
593.567	30.8
593.987	30.77
594.408	30.72
594.828	30.66
595.248	30.63
595.669	30.58
596.089	30.55
596.509	30.5
596.929	30.45
597.349	30.38
597.769	30.3
598.189	30.26
598.608	30.19
599.028	30.14
599.448	30.09
599.867	30.03
600.287	29.96
600.706	29.88
601.126	29.8
601.545	29.71
601.965	29.63
602.384	29.54
602.803	29.4
603.222	29.29
603.641	29.19
604.061	29.07
604.48	28.93
604.898	28.82
605.317	28.7
605.736	28.57
606.155	28.44
606.574	28.31
606.992	28.18
607.411	28.07
607.829	27.9
608.248	27.76
608.666	27.62
609.085	27.5
609.503	27.35
609.921	27.22
610.339	27.08
610.758	26.94
611.176	26.8
611.594	26.65
612.012	26.51
612.43	26.43
612.847	26.29
613.265	26.18
613.683	26.04
614.101	25.89
614.518	25.77
614.936	25.65
615.353	25.53
615.771	25.4
616.188	25.31
616.606	25.18
617.023	25.06
617.44	24.93
617.857	24.82
618.274	24.73
618.691	24.66
619.108	24.57
619.525	24.5
619.942	24.44
620.359	24.4
620.776	24.33
621.192	24.29
621.609	24.24
622.026	24.21
622.442	24.16
622.859	24.12
623.275	24.11
623.691	24.07
624.108	24.04
624.524	24.01
624.94	23.96
625.356	23.94
625.772	23.93
626.188	23.93
626.604	23.91
627.02	23.89
627.436	23.88
627.852	23.84
628.268	23.83
628.683	23.82
629.099	23.79
629.514	23.77
629.93	23.73
630.345	23.68
630.761	23.62
631.176	23.59
631.591	23.54
632.007	23.46
632.422	23.41
632.837	23.33
633.252	23.25
633.667	23.15
634.082	23.06
634.497	22.96
634.911	22.86
635.326	22.75
635.741	22.59
636.155	22.46
636.57	22.32
636.984	22.15
637.399	21.97
637.813	21.79
638.228	21.63
638.642	21.47
639.056	21.29
639.47	21.1
639.884	20.91
640.298	20.72
640.712	20.52
641.126	20.32
641.54	20.14
641.954	19.98
642.368	19.79
642.781	19.59
643.195	19.37
643.609	19.19
644.022	19
644.436	18.82
644.849	18.64
645.262	18.47
645.676	18.29
646.089	18.13
646.502	17.94
646.915	17.79
647.328	17.64
647.741	17.5
648.154	17.37
648.567	17.24
648.98	17.12
649.393	17
649.805	16.9
650.218	16.8
650.631	16.68
651.043	16.6
651.456	16.49
651.868	16.4
652.28	16.31
652.693	16.19
653.105	16.07
653.517	15.96
653.929	15.85
654.341	15.72
654.753	15.59
655.165	15.45
655.577	15.3
655.989	15.15
656.401	14.98
656.813	14.81
657.224	14.66
657.636	14.51
658.047	14.33
658.459	14.15
658.87	13.98
659.282	13.81
659.693	13.64
660.104	13.46
660.515	13.28
660.926	13.12
661.338	12.94
661.749	12.76
662.159	12.58
662.57	12.42
662.981	12.27
663.392	12.12
663.803	11.97
664.213	11.84
664.624	11.72
665.035	11.59
665.445	11.47
665.855	11.37
666.266	11.28
666.676	11.2
667.086	11.12
667.497	11.03
667.907	10.95
668.317	10.88
668.727	10.81
669.137	10.75
669.547	10.71
669.956	10.66
670.366	10.61
670.776	10.56
671.186	10.52
671.595	10.48
672.005	10.47
672.414	10.45
672.824	10.44
673.233	10.44
673.642	10.42
674.052	10.4
674.461	10.4
674.87	10.42
675.279	10.44
675.688	10.46
676.097	10.49
676.506	10.52
676.915	10.57
677.323	10.62
677.732	10.67
678.141	10.75
678.549	10.83
678.958	10.92
679.366	11
679.775	11.09
680.183	11.2
680.592	11.33
681	11.47
681.408	11.62
681.816	11.78
682.224	11.98
682.632	12.22
683.04	12.47
683.448	12.76
683.856	13.09
684.264	13.45
684.671	13.86
685.079	14.29
685.487	14.75
685.894	15.26
686.302	15.81
686.709	16.37
687.116	16.97
687.524	17.63
687.931	18.3
688.338	19.02
688.745	19.75
689.152	20.52
689.559	21.31
689.966	22.15
690.373	23.01
690.78	23.85
691.187	24.76
691.593	25.65
692	26.54
692.407	27.46
692.813	28.37
693.22	29.26
693.626	30.18
694.032	31.09
694.439	32.03
694.845	32.92
695.251	33.83
695.657	34.69
696.063	35.57
696.469	36.42
696.875	37.24
697.281	38.06
697.687	38.91
698.093	39.7
698.498	40.49
698.904	41.23
699.31	41.99
699.715	42.76
700.12	43.47
700.526	44.17
700.931	44.89
701.337	45.58
701.742	46.24
702.147	46.89
702.552	47.52
702.957	48.12
703.362	48.71
703.767	49.28
704.172	49.84
704.577	50.44
704.981	51.01
705.386	51.52
705.791	52.04
706.195	52.52
706.6	53
707.004	53.49
707.408	53.96
707.813	54.44
708.217	54.86
708.621	55.27
709.025	55.69
709.43	56.08
709.834	56.52
710.237	56.92
710.641	57.32
711.045	57.69
711.449	58.05
711.853	58.42
712.256	58.78
712.66	59.15
713.064	59.5
713.467	59.8
713.87	60.13
714.274	60.45
714.677	60.77
715.08	61.05
715.484	61.4
715.887	61.71
716.29	61.98
716.693	62.27
717.096	62.54
717.499	62.81
717.901	63.05
718.304	63.28
718.707	63.5
719.109	63.77
719.512	64.07
719.915	64.27
720.317	64.51
720.719	64.75
721.122	64.94
721.524	65.16
721.926	65.39
722.328	65.62
722.731	65.84
723.133	66.05
723.535	66.21
723.937	66.39
724.338	66.55
724.74	66.71
725.142	66.83
725.544	66.98
725.945	67.15
726.347	67.26
726.748	67.37
727.15	67.52
727.551	67.64
727.952	67.75
728.354	67.87
728.755	68.03
729.156	68.11
729.557	68.27
729.958	68.44
730.359	68.49
730.76	68.58
731.161	68.71
731.562	68.78
731.962	68.87
732.363	68.92
732.763	69
733.164	69.04
733.564	69.14
733.965	69.18
734.365	69.18
734.766	69.27
735.166	69.31
735.566	69.32
735.966	69.35
736.366	69.4
736.766	69.47
737.166	69.51
737.566	69.53
737.966	69.55
738.365	69.61
738.765	69.69
739.165	69.65
739.564	69.7
739.964	69.73
740.363	69.77
740.763	69.79
741.162	69.85
741.561	69.91
741.96	69.98
742.36	70.04
742.759	70.05
743.158	70.02
743.557	70.1
743.955	70.15
744.354	70.19
744.753	70.25
745.152	70.25
745.55	70.26
745.949	70.28
746.348	70.29
746.746	70.3
747.144	70.35
747.543	70.43
747.941	70.51
748.339	70.56
748.737	70.6
749.136	70.62
749.534	70.66
749.932	70.67
750.33	70.65
750.727	70.68
751.125	70.71
751.523	70.67
751.921	70.67
752.318	70.63
752.716	70.59
753.113	70.58
753.511	70.57
753.908	70.57
754.305	70.51
754.703	70.47
755.1	70.46
755.497	70.43
755.894	70.39
756.291	70.35
756.688	70.36
757.085	70.34
757.482	70.32
757.878	70.31
758.275	70.3
758.672	70.36
759.068	70.4
759.465	70.4
759.861	70.41
760.258	70.45
760.654	70.47
761.05	70.45
761.447	70.41
761.843	70.37
762.239	70.37
762.635	70.34
763.031	70.3
763.427	70.26
763.822	70.21
764.218	70.15
764.614	70.13
765.01	70.11
765.405	70.07
765.801	70.08
766.196	70.11
766.592	70.1
766.987	70.1
767.382	70.1
767.778	70.09
768.173	70.12
768.568	70.11
768.963	70.09
769.358	70.1
769.753	70.15
770.148	70.15
770.542	70.11
770.937	70.12
771.332	70.15
771.726	70.14
772.121	70.14
772.515	70.12
772.91	70.17
773.304	70.16
773.699	70.14
774.093	70.1
774.487	70.14
774.881	70.14
775.275	70.16
775.669	70.11
776.063	70.09
776.457	70.06
776.851	70.03
777.245	69.99
777.638	69.99
778.032	69.97
778.425	69.99
778.819	69.94
779.212	69.93
779.606	69.92
779.999	69.93
780.392	69.94
780.786	69.98
781.179	70.05
781.572	70.07
781.965	70.11
782.358	70.1
782.751	70.08
783.143	70.09
783.536	70.14
783.929	70.14
784.322	70.21
784.714	70.21
785.107	70.23
785.499	70.19
785.891	70.23
786.284	70.17
786.676	70.22
787.068	70.24
787.46	70.26
787.852	70.27
788.245	70.23
788.636	70.19
789.028	70.19
789.42	70.12
789.812	70.14
790.204	70.09
790.595	70.14
790.987	70.14
791.378	70.16
791.77	70.2
792.161	70.22
792.553	70.23
792.944	70.27
793.335	70.28
793.726	70.27
794.117	70.28
794.508	70.28
794.899	70.26
795.29	70.3
795.681	70.28
796.072	70.24
796.463	70.22
796.853	70.23
797.244	70.25
797.634	70.22
798.025	70.28
798.415	70.29
798.806	70.34
799.196	70.37
799.586	70.32
799.976	70.31
800.366	70.31
800.756	70.32
801.146	70.33
801.536	70.35
801.926	70.35
802.316	70.34
802.706	70.35
803.095	70.37
803.485	70.36
803.874	70.41
804.264	70.48
804.653	70.46
805.043	70.45
805.432	70.42
805.821	70.36
806.21	70.4
806.599	70.46
806.988	70.46
807.377	70.46
807.766	70.48
808.155	70.45
808.544	70.43
808.933	70.46
809.321	70.47
809.71	70.52
810.098	70.55
810.487	70.54
810.875	70.52
811.264	70.52
811.652	70.56
812.04	70.53
812.428	70.59
812.816	70.59
813.204	70.59
813.592	70.61
813.98	70.57
814.368	70.54
814.756	70.57
815.144	70.6
815.531	70.63
815.919	70.56
816.306	70.58
816.694	70.57
817.081	70.51
817.469	70.57
817.856	70.63
818.243	70.69
818.63	70.76
819.017	70.76
819.404	70.72
819.791	70.7
820.178	70.72
820.565	70.75
820.952	70.77
821.339	70.85
821.725	70.82
822.112	70.82
822.498	70.8
822.885	70.8
823.271	70.8
823.657	70.82
824.044	70.81
824.43	70.89
824.816	70.87
825.202	70.87
825.588	70.86
825.974	70.88
826.36	70.83
826.746	70.87
827.132	70.82
827.517	70.85
827.903	70.84
828.289	70.85
828.674	70.8
829.06	70.84
829.445	70.83
829.83	70.83
830.216	70.8
830.601	70.82
830.986	70.8
831.371	70.85
831.756	70.78
832.141	70.8
832.526	70.81
832.911	70.85
833.295	70.85
833.68	70.86
834.065	70.84
834.449	70.81
834.834	70.8
835.218	70.78
835.603	70.76
835.987	70.78
836.371	70.78
836.755	70.76
837.139	70.72
837.524	70.68
837.908	70.65
838.291	70.67
838.675	70.71
839.059	70.69
839.443	70.69
839.827	70.66
840.21	70.7
840.594	70.69
840.977	70.65
841.361	70.66
841.744	70.68
842.127	70.68
842.511	70.63
842.894	70.58
843.277	70.58
843.66	70.56
844.043	70.57
844.426	70.54
844.809	70.51
845.191	70.5
845.574	70.5
845.957	70.46
846.339	70.47
846.722	70.51
847.104	70.52
847.487	70.56
847.869	70.57
848.252	70.52
848.634	70.54
849.016	70.55
849.398	70.56
849.78	70.54
850.162	70.56
850.544	70.54
850.926	70.48
851.307	70.49
851.689	70.44
852.071	70.43
852.452	70.49
852.834	70.45
853.215	70.47
853.597	70.46
853.978	70.44
854.359	70.44
854.741	70.44
855.122	70.47
855.503	70.47
855.884	70.48
856.265	70.49
856.646	70.47
857.026	70.5
857.407	70.46
857.788	70.48
858.169	70.48
858.549	70.52
858.93	70.5
859.31	70.48
859.69	70.46
860.071	70.47
860.451	70.47
860.831	70.47
861.211	70.43
861.591	70.44
861.971	70.39
862.351	70.39
862.731	70.34
863.111	70.33
863.491	70.36
863.87	70.38
864.25	70.39
864.629	70.37
865.009	70.36
865.388	70.37
865.768	70.38
866.147	70.44
866.526	70.44
866.905	70.45
867.284	70.47
867.663	70.44
868.042	70.42
868.421	70.39
868.8	70.41
869.179	70.42
869.558	70.39
869.936	70.38
870.315	70.35
870.693	70.39
871.072	70.37
871.45	70.36
871.828	70.36
872.207	70.42
872.585	70.43
872.963	70.4
873.341	70.4
873.719	70.41
874.097	70.4
874.475	70.39
874.853	70.35
875.23	70.36
875.608	70.37
875.986	70.37
876.363	70.35
876.741	70.32
877.118	70.31
877.495	70.29
877.873	70.27
878.25	70.28
878.627	70.29
879.004	70.3
879.381	70.3
879.758	70.3
880.135	70.31
880.512	70.3
880.889	70.3
881.265	70.35
881.642	70.37
882.019	70.4
882.395	70.41
882.772	70.4
883.148	70.38
883.524	70.4
883.901	70.39
884.277	70.37
884.653	70.4
885.029	70.41
885.405	70.39
885.781	70.33
886.157	70.33
886.532	70.3
886.908	70.34
887.284	70.35
887.659	70.34
888.035	70.31
888.411	70.28
888.786	70.25
889.161	70.24
889.537	70.22
889.912	70.21
890.287	70.18
890.662	70.14
891.037	70.08
891.412	70.02
891.787	69.99
892.162	69.96
892.536	69.97
892.911	69.92
893.286	69.85
893.66	69.79
894.035	69.79
894.409	69.76
894.784	69.77
895.158	69.76
895.532	69.77
895.906	69.72
896.281	69.72
896.655	69.68
897.029	69.66
897.402	69.68
897.776	69.68
898.15	69.67
898.524	69.65
898.898	69.58
899.271	69.58
899.645	69.54
900.018	69.55
900.392	69.55
900.765	69.55
901.138	69.56
901.511	69.55
901.884	69.57
902.258	69.53
902.631	69.55
903.003	69.61
903.376	69.58
903.749	69.6
904.122	69.63
904.495	69.65
904.867	69.65
905.24	69.6
905.612	69.58
905.985	69.53
906.357	69.52
906.729	69.51
907.102	69.5
907.474	69.54
907.846	69.5
908.218	69.43
908.59	69.38
908.962	69.39
909.334	69.41
909.705	69.43
910.077	69.45
910.449	69.48
910.82	69.46
911.192	69.45
911.563	69.4
911.935	69.39
912.306	69.43
912.677	69.46
913.048	69.44
913.419	69.48
913.79	69.48
914.161	69.48
914.532	69.44
914.903	69.4
915.274	69.34
915.645	69.35
916.015	69.34
916.386	69.31
916.756	69.23
917.127	69.21
917.497	69.16
917.868	69.15
918.238	69.14
918.608	69.15
918.978	69.14
919.348	69.15
919.718	69.14
920.088	69.17
920.458	69.21
920.828	69.23
921.198	69.22
921.567	69.19
921.937	69.17
922.306	69.15
922.676	69.17
923.045	69.15
923.415	69.14
923.784	69.14
924.153	69.11
924.522	69.05
924.891	69.03
925.26	69.01
925.629	69.02
925.998	69.01
926.367	68.97
926.736	68.95
927.104	68.99
927.473	68.98
927.842	68.93
928.21	68.92
928.578	68.92
928.947	68.89
929.315	68.87
929.683	68.85
930.051	68.86
930.42	68.83
930.788	68.8
931.156	68.75
931.523	68.74
931.891	68.7
932.259	68.62
932.627	68.49
932.994	68.47
933.362	68.42
933.729	68.33
934.097	68.23
934.464	68.19
934.831	68.1
935.199	67.99
935.566	67.88
935.933	67.84
936.3	67.73
936.667	67.7
937.034	67.57
937.401	67.5
937.767	67.46
938.134	67.42
938.501	67.35
938.867	67.35
939.234	67.41
939.6	67.46
939.967	67.5
940.333	67.64
940.699	67.76
941.065	67.91
941.431	68.02
941.798	68.13
942.163	68.29
942.529	68.35
942.895	68.42
943.261	68.55
943.627	68.57
943.992	68.58
944.358	68.59
944.723	68.62
945.089	68.72
945.454	68.82
945.82	68.79
946.185	68.74
946.55	68.89
946.915	68.9
947.28	68.77
947.645	68.84
948.01	68.9
948.375	69
948.74	68.98
949.104	68.96
949.469	68.77
949.834	68.71
950.198	68.56
950.562	68.45
950.927	68.41
951.291	68.39
951.655	68.39
952.02	68.29
952.384	68.19
952.748	68.16
953.112	68.15
953.476	68.19
953.839	68.19
954.203	68.19
954.567	68.17
954.931	68.15
955.294	68.15
955.658	67.96
956.021	67.96
956.385	67.99
956.748	67.95
957.111	67.83
957.474	67.84
957.837	67.87
958.2	67.84
958.563	67.85
958.926	67.8
959.289	67.85
959.652	67.93
960.015	67.9
960.377	67.84
960.74	67.81
961.102	67.84
961.465	67.8
961.827	67.63
962.189	67.67
962.552	67.59
962.914	67.52
963.276	67.49
963.638	67.47
964	67.43
964.362	67.37
964.724	67.32
965.085	67.28
965.447	67.21
965.809	67.23
966.17	67.26
966.532	67.3
966.893	67.26
967.255	67.18
967.616	67.14
967.977	67.21
968.338	67.21
968.699	67.29
969.061	67.24
969.421	67.23
969.782	67.29
970.143	67.2
970.504	67.14
970.865	67.13
971.225	67.12
971.586	67.13
971.946	67.06
972.307	67.06
972.667	67.06
973.027	67.09
973.388	67.09
973.748	67.06
974.108	67.03
974.468	67.08
974.828	67.2
975.188	67.25
975.548	67.28
975.907	67.24
976.267	67.23
976.627	67.2
976.986	67.17
977.346	67.16
977.705	67.22
978.064	67.24
978.424	67.16
978.783	67.05
979.142	66.98
979.501	66.89
979.86	66.9
980.219	66.83
980.578	66.74
980.937	66.74
981.296	66.73
981.654	66.74
982.013	66.83
982.371	66.78
982.73	66.84
983.088	66.86
983.447	66.84
983.805	66.81
984.163	66.76
984.521	66.75
984.879	66.83
985.237	66.87
985.595	66.71
985.953	66.6
986.311	66.73
986.669	66.69
987.026	66.69
987.384	66.7
987.741	66.71
988.099	66.73
988.456	66.64
988.814	66.55
989.171	66.54
989.528	66.46
989.885	66.4
990.242	66.34
990.599	66.34
990.956	66.31
991.313	66.33
991.67	66.43
992.027	66.52
992.383	66.8
992.74	66.73
993.096	66.68
993.453	66.72
993.809	66.74
994.165	66.71
994.522	66.66
994.878	66.57
995.234	66.54
995.59	66.39
995.946	66.35
996.302	66.11
996.658	66.17
997.013	66.14
997.369	66.27
997.725	66.32
998.08	66.3
998.436	66.33
998.791	66.28
999.147	66.21
999.502	66.2
999.857	66.15
1000.212	66.17
1000.567	66.12
1000.922	66.11
1001.277	66.12
1001.632	66.05
1001.987	66.05
1002.342	66.05
1002.696	66.25
1003.051	66.24
1003.406	66.15
1003.76	66.12
1004.114	66.18
1004.469	66.16
1004.823	66.25
1005.177	66.24
1005.531	66.03
1005.885	65.97
1006.239	65.86
1006.593	65.66
1006.947	65.59
1007.301	65.56
1007.655	65.67
1008.008	65.47
1008.362	65.5
1008.715	65.51
1009.069	65.16
1009.422	65.16
1009.776	65.14
1010.129	65.13
1010.482	65.24
1010.835	65.34
1011.188	65.4
1011.541	65.05
1011.894	65.08
1012.247	65.01
1012.6	64.74
1012.952	65.14
1013.305	65.18
1013.657	65.28
1014.01	65.37
1014.362	65.24
1014.715	64.95
1015.067	65.02
1015.419	65.32
1015.771	65.45
1016.123	65.37
1016.475	65.55
1016.827	65.48
1017.179	65.56
1017.531	65.44
1017.883	65.45
1018.234	65.6
1018.586	65.76
1018.938	65.3
1019.289	65.17
1019.64	65.18
1019.992	65.24
1020.343	65.1
1020.694	64.91
1021.045	64.93
1021.396	64.89
1021.747	65.12
1022.098	65.13
1022.449	65.18
1022.8	65.32
1023.151	65.16
1023.501	65.07
1023.852	65.29
1024.202	65.09
1024.553	65.11
1024.903	65.03
1025.253	65.29
1025.604	65.1
1025.954	64.87
1026.304	65.4
1026.654	65.73
1027.004	65.87
1027.354	65.73
1027.703	65.53
1028.053	65.66
1028.403	65.73
1028.753	65.88
1029.102	65.24
1029.452	64.8
1029.801	64.64
1030.15	64.07
1030.499	63.97
897.758	657.12
901.051	662.88
904.343	673.47
907.636	660.77
910.928	649.52
914.22	665.14
917.511	652.21
920.803	623.24
924.094	595.52
927.384	599.36
930.675	582.21
933.965	576.95
937.255	580.76
940.544	554.55
943.834	530.91
947.123	521.72
950.411	491.22
953.7	482.5
956.988	470.43
960.276	447.98
963.563	441.57
966.851	417.86
970.138	410.35
973.424	380.08
976.711	376.32
979.997	364.78
983.283	358.03
986.568	347.27
989.853	336.42
993.138	324.93
996.423	323.64
999.708	314.38
1002.992	315.42
1006.275	307.19
1009.559	305.8
1012.842	295.78
1016.125	285.9
1019.408	280.15
1022.69	277.97
1025.972	276.76
1029.254	270.22
1032.536	265.21
1035.817	256.82
1039.098	253.11
1042.379	247.02
1045.659	242.66
1048.939	240.42
1052.219	238.27
1055.498	234
1058.778	228.88
1062.057	224.69
1065.335	223.2
1068.614	219.47
1071.892	216.59
1075.17	211.96
1078.447	210.06
1081.724	208.32
1085.001	204.68
1088.278	203.07
1091.554	202.67
1094.83	202.6
1098.106	199.1
1101.382	197.86
1104.657	197.57
1107.932	196.92
1111.206	196.78
1114.481	194.12
1117.755	192.25
1121.029	191.74
1124.302	188.95
1127.575	185.58
1130.848	184.43
1134.121	182.44
1137.393	181.75
1140.665	179.81
1143.937	178.16
1147.208	175.99
1150.48	174.54
1153.75	174.3
1157.021	172.16
1160.291	172.18
1163.561	172.09
1166.831	170.54
1170.101	171.01
1173.37	169.21
1176.639	167.66
1179.907	167.98
1183.176	166.78
1186.444	167.15
1189.711	166.48
1192.979	167.82
1196.246	167.67
1199.513	166.12
1202.78	167.35
1206.046	166.89
1209.312	167.46
1212.578	168.42
1215.843	170.45
1219.108	172.1
1222.373	174.65
1225.638	176.39
1228.902	180.47
1232.166	185.86
1235.43	189.67
1238.693	192.94
1241.956	198.2
1245.219	205.26
1248.482	206.03
1251.744	205.23
1255.006	204.02
1258.268	200.11
1261.529	199.54
1264.79	193.78
1268.051	190.01
1271.312	187.72
1274.572	184.31
1277.832	179.18
1281.092	175.78
1284.351	172.93
1287.61	172.74
1290.869	173.06
1294.128	171.52
1297.386	170.43
1300.644	170.69
1303.902	169.57
1307.159	168.43
1310.416	169.77
1313.673	172.77
1316.93	173.39
1320.186	176.54
1323.442	178.11
1326.697	180.9
1329.953	182.86
1333.208	189.01
1336.463	195.56
1339.717	199.31
1342.972	208.8
1346.226	214.04
1349.479	214.85
1352.733	224.62
1355.986	228.03
1359.238	233.1
1362.491	234.48
1365.743	242.51
1368.995	244.16
1372.247	240.31
1375.498	239.05
1378.749	246.35
1382	246.91
1385.251	245.78
1388.501	245.62
1391.751	248.93
1395	246.68
1398.25	250.41
1401.499	249.09
1404.748	247.87
1407.996	245.35
1411.244	246.52
1414.492	242.48
1417.74	235.15
1420.987	231.33
1424.234	225.93
1427.481	216.91
1430.728	212.56
1433.974	205.03
1437.22	197.62
1440.465	191.54
1443.711	186.46
1446.956	180.77
1450.201	174.38
1453.445	166.19
1456.689	161.21
1459.933	157.65
1463.177	151.06
1466.42	147.99
1469.663	143.73
1472.906	140.25
1476.148	136.53
1479.391	133.58
1482.633	131.54
1485.874	128.92
1489.115	128.08
1492.356	126.49
1495.597	123.77
1498.838	124.32
1502.078	123.08
1505.318	122.83
1508.557	122.16
1511.797	121.04
1515.036	120.58
1518.274	120.18
1521.513	119.17
1524.751	118.8
1527.989	118.91
1531.227	118.8
1534.464	117.94
1537.701	117.56
1540.938	116.85
1544.174	117.04
1547.41	116.66
1550.646	116.78
1553.882	116.11
1557.117	115.96
1560.352	115.34
1563.587	114.81
1566.821	114.69
1570.055	114.09
1573.289	113.13
1576.523	114.01
1579.756	113.28
1582.989	113.8
1586.222	113.09
1589.454	113.45
1592.686	113.36
1595.918	113.61
1599.15	113.11
1602.381	113.73
1605.612	114.06
1608.843	114.63
1612.073	114.3
1615.303	114.24
1618.533	114.02
1621.762	114.7
1624.992	114.44
1628.221	114.26
1631.449	114.95
1634.678	114.34
1637.906	114.25
1641.134	114.59
1644.361	114.45
1647.588	114.29
1650.815	114.87
1654.042	114.85
1657.269	114.59
1660.495	115.16
1663.72	114.88
1666.946	114.92
1670.171	116.16
1673.396	116.7
1676.621	116.66
1679.845	116.85
1683.069	116.66
1686.293	116.72
1689.517	116.64
1692.74	117.28
1695.963	117.11
1699.185	118.3
1702.408	117.52
1705.63	117.33
1708.852	117.38
1712.073	117.32
1715.294	117.58
1718.515	118.31
1721.736	118.25
1724.956	118.65
1728.176	118.36
1731.396	119.04
1734.616	119.08
1737.835	119.45
1741.054	119.68
1744.272	119.27
1747.491	119.51
1750.709	119.85
1753.927	120.02
1757.144	120.2
1760.361	120.59
1763.578	120.94
1766.795	121.14
1770.011	120.53
1773.227	121.66
1776.443	122.4
1779.658	122.83
1782.874	124.22
1786.089	124.4
1789.303	124.33
1792.518	125.65
1795.732	126.13
1798.945	127.44
1802.159	127.49
1805.372	129.59
1808.585	129.68
1811.797	130.79
1815.01	131.87
1818.222	131.85
1821.434	132.99
1824.645	133.92
1827.856	134.8
1831.067	135.7
1834.278	137.3
1837.488	138.31
1840.698	139.59
1843.908	140.1
1847.117	141.36
1850.326	142.37
1853.535	142.87
1856.744	143.71
1859.952	145.66
1863.16	146.34
1866.368	145
1869.575	145.47
1872.782	144.82
1875.989	142.25
1879.196	142.3
1882.402	140.85
1885.608	140.98
1888.814	140.44
1892.019	140.9
1895.224	138.07
1898.429	138.42
1901.634	139.69
1904.838	139.57
1908.042	140.2
1911.246	140.52
1914.449	140.64
1917.652	140.91
1920.855	141.21
1924.058	140.18
1927.26	139.58
1930.462	140.88
1933.664	140.12
1936.865	139.54
1940.066	137.73
1943.267	137.54
1946.467	139.18
1949.668	139.29
1952.868	139.1
1956.067	138.38
1959.267	140.26
1962.466	141.3
1965.665	142.43
1968.863	143.25
1972.061	146.29
1975.259	148.16
1978.457	148.64
1981.654	150.51
1984.852	151.45
1988.048	153.58
1991.245	156.54
1994.441	158.78
1997.637	161.8
2000.833	165.58
2004.028	166.84
2007.223	170.87
2010.418	175.11
2013.613	183.01
2016.807	187.31
2020.001	191.59
2023.194	195.4
2026.388	202.5
2029.581	211.63
2032.774	218.69
2035.966	222.63
2039.158	230.81
2042.35	233.35
2045.542	236.36
2048.733	247.59
2051.924	249.22
2055.115	252.53
2058.306	255.12
2061.496	259.69
2064.686	260.37
2067.875	256.7
2071.065	260.91
2074.254	260.83
2077.442	269.37
2080.631	272.57
2083.819	271.17
2087.007	276.46
2090.195	282.44
2093.382	283.32
2096.569	282.6
2099.756	288.07
2102.942	296.34
2106.128	302.01
2109.314	302.6
2112.5	301.42
2115.685	300.06
2118.87	300.09
2122.055	303.69
2125.239	308.25
2128.424	315.78
2131.608	314.82
2134.791	312.92
2137.974	313.59
2141.157	314.94
2144.34	318.82
2147.523	324.06
2150.705	332.47
2153.887	331.07
2157.068	333.12
2160.25	336.2
2163.431	334.6
2166.611	339.43
2169.792	346.44
2172.972	353.79
2176.152	353.08
2179.331	360.22
2182.511	360.98
2185.69	365.56
2188.868	377.57
2192.047	387.44
2195.225	390.82
2198.403	397.71
2201.58	394.17
2204.758	408.31
2207.935	408.26
2211.111	418.68
2214.288	420.92
2217.464	425.68
2220.64	429.08
2223.815	430.52
2226.991	423.63
2230.166	428.49
2233.34	441.77
2236.515	452.02
2239.689	443.83
2242.863	451.02
2246.036	446.88
2249.209	459.29
2252.382	457.55
2255.555	470.55
2258.727	473.26
2261.9	490.13
2265.071	495.86
2268.243	488.19
2271.414	506.06
2274.585	516.9
2277.756	517.1
2280.926	538.41
2284.096	539.28
2287.266	542.4
2290.436	532.46
2293.605	543.3
2296.774	559.94
2299.942	561.5
2303.111	585.94
2306.279	591.27
2309.447	591.72
2312.614	593.39
2315.781	607.92
2318.948	610.86
2322.115	622.92
2325.281	657.57
2328.447	656.16
2331.613	656.42
2334.779	667.3
2337.944	666.13
2341.109	680.49
2344.274	689.74
2347.438	710.13
2350.602	717.58
2353.766	762.26
2356.929	765.63
2360.092	773.24
2363.255	775.01
2366.418	784.91
2369.58	801.58
2372.742	806
2375.904	803.02
2379.066	826.75
2382.227	868.8
2385.388	867.12
2388.548	824.09
2391.709	816.72
2394.869	845.4
2398.029	844.22
2401.188	841.83
2404.347	873.18
2407.506	903.79
2410.665	869.08
2413.823	871.3
2416.981	872.77
2420.139	833.34
2423.296	898
2426.453	953.43
2429.61	906.13
2432.767	974.64
2435.923	1011.39
2439.079	958.46
2442.235	979.15
2445.391	1004.58
2448.546	994.7
2451.701	1050.92
2454.855	1117.21
2458.009	996.35
2461.163	1024.77
2464.317	1027.57
2467.471	1005.25
2470.624	1037.89
2473.777	1027.9
2476.929	990.47
2480.082	1056.99
2483.234	1111.96
2486.385	1122.75
2489.537	1153.66
2492.688	1265.63
2495.839	1235.27
2498.989	1284.44
2502.14	1283.42
2505.29	1228.32
2508.439	1357.13
2511.589	1403.26
2514.738	1353.49
2517.887	1334.11
2521.035	1257.11
2524.183	1229.04
2527.331	1219.13
2530.479	1185.22
2533.627	1208.13
