Data from N_2_dec_oh_4n_045_Splice17_11.txt Node
Date: Sat Feb 29 13:54:47 EST 2020
User: sa697716
Spectrometer: FLMS03696
Trigger mode: 0
Integration Time (sec): 3.180400E-1
Scans to average: 20
Electric dark correction enabled: true
Nonlinearity correction enabled: true
Boxcar width: 5
XAxis mode: Wavelengths
Number of Pixels in Spectrum: 2048
>>>>>Begin Spectral Data<<<<<
187.83	102.73
188.298	98.04
188.766	90.9
189.233	84.72
189.701	95.05
190.169	99.72
190.636	109.41
191.104	124.21
191.571	362.58
192.039	249.23
192.506	22.72
192.974	3282.55
193.441	166.81
193.908	8.59
194.375	-33.15
194.842	101.95
195.31	75.85
195.777	48.67
196.244	28.57
196.711	26.23
197.177	25.25
197.644	25.64
198.111	25.97
198.578	26.35
199.045	26.74
199.511	27.45
199.978	27.82
200.445	28.1
200.911	28.47
201.378	28.81
201.844	29.24
202.31	29.75
202.777	30.19
203.243	30.69
203.709	31.34
204.176	31.54
204.642	31.11
205.108	30.7
205.574	30.6
206.04	30.63
206.506	30.26
206.972	30.21
207.438	29.99
207.903	29.93
208.369	29.1
208.835	28.43
209.301	28.21
209.766	27.78
210.232	27.89
210.697	27.62
211.163	27.33
211.628	26.79
212.094	26.21
212.559	25.84
213.024	24.99
213.49	24.74
213.955	24.75
214.42	24.26
214.885	23.86
215.35	23.12
215.815	22.39
216.28	21.4
216.745	20.45
217.21	19.6
217.675	18.5
218.14	17.63
218.604	16.67
219.069	15.72
219.534	15.01
219.998	14.4
220.463	13.9
220.927	13.48
221.392	13.07
221.856	12.77
222.32	12.46
222.785	12.2
223.249	11.93
223.713	11.73
224.177	11.53
224.642	11.36
225.106	11.19
225.57	11.01
226.034	10.84
226.497	10.67
226.961	10.47
227.425	10.3
227.889	10.14
228.353	9.99
228.816	9.86
229.28	9.68
229.744	9.55
230.207	9.42
230.671	9.29
231.134	9.15
231.597	9.04
232.061	8.95
232.524	8.85
232.987	8.76
233.45	8.64
233.914	8.53
234.377	8.47
234.84	8.36
235.303	8.27
235.766	8.18
236.229	8.1
236.691	8.03
237.154	7.95
237.617	7.87
238.08	7.79
238.542	7.72
239.005	7.66
239.468	7.57
239.93	7.51
240.393	7.45
240.855	7.37
241.317	7.3
241.78	7.23
242.242	7.13
242.704	7.06
243.166	7
243.629	6.94
244.091	6.86
244.553	6.8
245.015	6.74
245.477	6.66
245.939	6.6
246.4	6.55
246.862	6.5
247.324	6.48
247.786	6.44
248.247	6.4
248.709	6.34
249.17	6.3
249.632	6.26
250.093	6.21
250.555	6.18
251.016	6.15
251.477	6.1
251.939	6.06
252.4	6.02
252.861	5.98
253.322	5.92
253.783	5.9
254.244	5.87
254.705	5.84
255.166	5.82
255.627	5.79
256.088	5.75
256.549	5.73
257.009	5.7
257.47	5.68
257.931	5.64
258.391	5.61
258.852	5.57
259.312	5.54
259.773	5.5
260.233	5.46
260.694	5.43
261.154	5.4
261.614	5.36
262.074	5.33
262.534	5.29
262.994	5.26
263.455	5.24
263.915	5.21
264.374	5.17
264.834	5.14
265.294	5.11
265.754	5.08
266.214	5.06
266.673	5.04
267.133	5.01
267.593	5
268.052	4.97
268.512	4.95
268.971	4.93
269.431	4.92
269.89	4.9
270.349	4.89
270.809	4.87
271.268	4.86
271.727	4.84
272.186	4.82
272.645	4.8
273.104	4.79
273.563	4.78
274.022	4.77
274.481	4.75
274.94	4.74
275.399	4.72
275.857	4.72
276.316	4.7
276.775	4.67
277.233	4.66
277.692	4.65
278.15	4.64
278.609	4.61
279.067	4.6
279.525	4.57
279.984	4.56
280.442	4.55
280.9	4.53
281.358	4.52
281.816	4.52
282.274	4.5
282.732	4.48
283.19	4.47
283.648	4.47
284.106	4.45
284.564	4.45
285.021	4.43
285.479	4.42
285.937	4.4
286.394	4.38
286.852	4.37
287.309	4.36
287.767	4.35
288.224	4.34
288.682	4.32
289.139	4.31
289.596	4.28
290.053	4.27
290.511	4.24
290.968	4.23
291.425	4.21
291.882	4.19
292.339	4.18
292.796	4.15
293.252	4.14
293.709	4.12
294.166	4.12
294.623	4.11
295.079	4.1
295.536	4.09
295.992	4.07
296.449	4.07
296.905	4.05
297.362	4.04
297.818	4.04
298.274	4.02
298.731	4.01
299.187	3.99
299.643	3.97
300.099	3.96
300.555	3.95
301.011	3.94
301.467	3.93
301.923	3.92
302.379	3.91
302.835	3.9
303.291	3.9
303.746	3.89
304.202	3.88
304.658	3.87
305.113	3.86
305.569	3.86
306.024	3.86
306.479	3.86
306.935	3.85
307.39	3.84
307.845	3.85
308.301	3.85
308.756	3.84
309.211	3.85
309.666	3.85
310.121	3.84
310.576	3.84
311.031	3.84
311.486	3.83
311.94	3.83
312.395	3.83
312.85	3.82
313.305	3.82
313.759	3.82
314.214	3.8
314.668	3.81
315.123	3.81
315.577	3.8
316.032	3.79
316.486	3.78
316.94	3.77
317.394	3.75
317.849	3.75
318.303	3.74
318.757	3.72
319.211	3.71
319.665	3.69
320.119	3.68
320.572	3.68
321.026	3.67
321.48	3.66
321.934	3.66
322.387	3.66
322.841	3.65
323.295	3.64
323.748	3.63
324.202	3.63
324.655	3.62
325.108	3.62
325.562	3.61
326.015	3.6
326.468	3.59
326.921	3.57
327.374	3.56
327.827	3.56
328.28	3.56
328.733	3.54
329.186	3.54
329.639	3.54
330.092	3.53
330.545	3.53
330.997	3.53
331.45	3.53
331.903	3.53
332.355	3.53
332.808	3.52
333.26	3.52
333.713	3.52
334.165	3.53
334.617	3.53
335.069	3.53
335.522	3.53
335.974	3.53
336.426	3.53
336.878	3.52
337.33	3.52
337.782	3.52
338.234	3.51
338.686	3.5
339.137	3.49
339.589	3.47
340.041	3.47
340.493	3.46
340.944	3.46
341.396	3.45
341.847	3.44
342.299	3.42
342.75	3.41
343.201	3.4
343.653	3.4
344.104	3.38
344.555	3.37
345.006	3.36
345.457	3.34
345.908	3.34
346.359	3.33
346.81	3.33
347.261	3.33
347.712	3.33
348.163	3.32
348.613	3.31
349.064	3.3
349.515	3.29
349.965	3.29
350.416	3.29
350.866	3.28
351.317	3.27
351.767	3.27
352.217	3.26
352.668	3.26
353.118	3.26
353.568	3.26
354.018	3.27
354.468	3.27
354.918	3.28
355.368	3.28
355.818	3.28
356.268	3.29
356.718	3.29
357.168	3.3
357.617	3.3
358.067	3.29
358.517	3.29
358.966	3.29
359.416	3.29
359.865	3.29
360.315	3.29
360.764	3.3
361.213	3.29
361.663	3.28
362.112	3.29
362.561	3.29
363.01	3.3
363.459	3.3
363.908	3.3
364.357	3.3
364.806	3.3
365.255	3.31
365.703	3.31
366.152	3.31
366.601	3.32
367.05	3.31
367.498	3.32
367.947	3.32
368.395	3.33
368.844	3.33
369.292	3.34
369.74	3.34
370.189	3.34
370.637	3.34
371.085	3.35
371.533	3.34
371.981	3.35
372.429	3.34
372.877	3.34
373.325	3.33
373.773	3.34
374.221	3.34
374.669	3.33
375.116	3.34
375.564	3.33
376.012	3.34
376.459	3.34
376.907	3.35
377.354	3.36
377.801	3.37
378.249	3.38
378.696	3.38
379.143	3.4
379.591	3.41
380.038	3.42
380.485	3.44
380.932	3.45
381.379	3.45
381.826	3.46
382.273	3.47
382.72	3.47
383.166	3.48
383.613	3.48
384.06	3.49
384.506	3.49
384.953	3.5
385.4	3.51
385.846	3.52
386.292	3.53
386.739	3.53
387.185	3.55
387.631	3.57
388.078	3.58
388.524	3.58
388.97	3.59
389.416	3.6
389.862	3.61
390.308	3.62
390.754	3.64
391.2	3.66
391.645	3.68
392.091	3.68
392.537	3.7
392.983	3.73
393.428	3.75
393.874	3.77
394.319	3.79
394.765	3.8
395.21	3.81
395.655	3.81
396.101	3.83
396.546	3.83
396.991	3.85
397.436	3.84
397.881	3.85
398.326	3.88
398.771	3.89
399.216	3.9
399.661	3.92
400.106	3.94
400.551	3.95
400.995	3.93
401.44	3.93
401.885	3.94
402.329	3.94
402.774	3.95
403.218	3.94
403.663	3.94
404.107	3.94
404.551	3.94
404.995	3.94
405.44	3.94
405.884	3.96
406.328	3.97
406.772	3.98
407.216	3.99
407.66	4
408.104	4.01
408.547	4.02
408.991	4.02
409.435	4.02
409.879	4.02
410.322	4.04
410.766	4.06
411.209	4.08
411.653	4.08
412.096	4.08
412.54	4.09
412.983	4.09
413.426	4.11
413.869	4.13
414.312	4.16
414.756	4.18
415.199	4.18
415.642	4.19
416.085	4.19
416.527	4.22
416.97	4.23
417.413	4.22
417.856	4.22
418.298	4.22
418.741	4.2
419.184	4.2
419.626	4.2
420.069	4.2
420.511	4.2
420.953	4.19
421.396	4.19
421.838	4.21
422.28	4.23
422.722	4.27
423.164	4.27
423.606	4.27
424.048	4.26
424.49	4.27
424.932	4.26
425.374	4.27
425.816	4.25
426.258	4.23
426.699	4.2
427.141	4.19
427.582	4.19
428.024	4.2
428.465	4.21
428.907	4.24
429.348	4.23
429.789	4.25
430.231	4.25
430.672	4.27
431.113	4.3
431.554	4.32
431.995	4.33
432.436	4.33
432.877	4.33
433.318	4.32
433.759	4.32
434.2	4.35
434.64	4.36
435.081	4.35
435.522	4.37
435.962	4.39
436.403	4.42
436.843	4.43
437.284	4.45
437.724	4.48
438.164	4.49
438.604	4.51
439.045	4.5
439.485	4.51
439.925	4.52
440.365	4.51
440.805	4.49
441.245	4.47
441.685	4.47
442.125	4.46
442.564	4.46
443.004	4.46
443.444	4.46
443.883	4.46
444.323	4.48
444.762	4.48
445.202	4.51
445.641	4.53
446.081	4.57
446.52	4.58
446.959	4.56
447.398	4.58
447.837	4.6
448.276	4.61
448.716	4.64
449.154	4.64
449.593	4.67
450.032	4.67
450.471	4.67
450.91	4.65
451.349	4.66
451.787	4.67
452.226	4.65
452.664	4.64
453.103	4.63
453.541	4.61
453.98	4.61
454.418	4.57
454.856	4.55
455.295	4.54
455.733	4.52
456.171	4.51
456.609	4.52
457.047	4.53
457.485	4.54
457.923	4.54
458.361	4.53
458.798	4.55
459.236	4.55
459.674	4.57
460.111	4.56
460.549	4.56
460.987	4.57
461.424	4.56
461.862	4.54
462.299	4.53
462.736	4.53
463.173	4.53
463.611	4.53
464.048	4.55
464.485	4.53
464.922	4.53
465.359	4.54
465.796	4.55
466.233	4.57
466.67	4.59
467.106	4.59
467.543	4.59
467.98	4.59
468.416	4.59
468.853	4.57
469.29	4.58
469.726	4.58
470.162	4.57
470.599	4.56
471.035	4.56
471.471	4.55
471.907	4.55
472.344	4.54
472.78	4.54
473.216	4.54
473.652	4.54
474.088	4.54
474.523	4.54
474.959	4.52
475.395	4.52
475.831	4.51
476.266	4.5
476.702	4.49
477.138	4.48
477.573	4.47
478.008	4.44
478.444	4.44
478.879	4.44
479.314	4.42
479.75	4.41
480.185	4.4
480.62	4.38
481.055	4.37
481.49	4.35
481.925	4.35
482.36	4.34
482.795	4.33
483.229	4.32
483.664	4.31
484.099	4.31
484.534	4.3
484.968	4.29
485.403	4.29
485.837	4.3
486.271	4.31
486.706	4.3
487.14	4.31
487.574	4.32
488.009	4.33
488.443	4.33
488.877	4.33
489.311	4.34
489.745	4.35
490.179	4.36
490.613	4.36
491.046	4.37
491.48	4.39
491.914	4.4
492.348	4.42
492.781	4.43
493.215	4.46
493.648	4.48
494.082	4.51
494.515	4.53
494.948	4.56
495.382	4.58
495.815	4.61
496.248	4.64
496.681	4.67
497.114	4.69
497.547	4.72
497.98	4.75
498.413	4.8
498.846	4.83
499.279	4.87
499.711	4.92
500.144	4.97
500.577	5.02
501.009	5.08
501.442	5.14
501.874	5.22
502.306	5.29
502.739	5.36
503.171	5.43
503.603	5.52
504.036	5.62
504.468	5.72
504.9	5.82
505.332	5.93
505.764	6.05
506.196	6.16
506.627	6.28
507.059	6.42
507.491	6.55
507.923	6.7
508.354	6.85
508.786	7.01
509.217	7.16
509.649	7.34
510.08	7.52
510.512	7.7
510.943	7.91
511.374	8.12
511.805	8.32
512.237	8.54
512.668	8.76
513.099	8.99
513.53	9.24
513.961	9.49
514.391	9.73
514.822	9.97
515.253	10.24
515.684	10.49
516.114	10.77
516.545	11.05
516.975	11.35
517.406	11.65
517.836	11.93
518.267	12.22
518.697	12.53
519.127	12.84
519.558	13.15
519.988	13.46
520.418	13.76
520.848	14.06
521.278	14.37
521.708	14.69
522.138	14.99
522.567	15.29
522.997	15.58
523.427	15.87
523.857	16.15
524.286	16.43
524.716	16.71
525.145	16.98
525.575	17.23
526.004	17.48
526.433	17.7
526.863	17.95
527.292	18.17
527.721	18.39
528.15	18.59
528.579	18.79
529.008	18.98
529.437	19.16
529.866	19.31
530.295	19.48
530.724	19.65
531.152	19.81
531.581	19.94
532.01	20.1
532.438	20.23
532.867	20.35
533.295	20.49
533.723	20.61
534.152	20.72
534.58	20.83
535.008	20.92
535.436	20.98
535.865	21.06
536.293	21.13
536.721	21.2
537.149	21.27
537.576	21.35
538.004	21.4
538.432	21.45
538.86	21.5
539.287	21.54
539.715	21.6
540.143	21.65
540.57	21.69
540.998	21.74
541.425	21.78
541.852	21.81
542.28	21.82
542.707	21.85
543.134	21.88
543.561	21.89
543.988	21.93
544.415	21.96
544.842	21.99
545.269	22.04
545.696	22.06
546.123	22.09
546.549	22.13
546.976	22.16
547.403	22.2
547.829	22.23
548.256	22.28
548.682	22.31
549.108	22.32
549.535	22.34
549.961	22.33
550.387	22.34
550.813	22.35
551.24	22.35
551.666	22.34
552.092	22.33
552.518	22.3
552.943	22.27
553.369	22.25
553.795	22.2
554.221	22.17
554.646	22.11
555.072	22.04
555.498	21.97
555.923	21.9
556.349	21.81
556.774	21.71
557.199	21.66
557.625	21.58
558.05	21.47
558.475	21.38
558.9	21.27
559.325	21.17
559.75	21.05
560.175	20.92
560.6	20.79
561.025	20.66
561.449	20.53
561.874	20.36
562.299	20.18
562.723	20.02
563.148	19.85
563.572	19.67
563.997	19.5
564.421	19.32
564.846	19.14
565.27	18.96
565.694	18.76
566.118	18.56
566.542	18.37
566.966	18.19
567.39	18
567.814	17.81
568.238	17.61
568.662	17.41
569.086	17.21
569.509	17.03
569.933	16.83
570.357	16.65
570.78	16.47
571.204	16.28
571.627	16.1
572.05	15.92
572.474	15.75
572.897	15.58
573.32	15.42
573.743	15.25
574.166	15.09
574.589	14.94
575.012	14.82
575.435	14.66
575.858	14.54
576.281	14.4
576.704	14.28
577.126	14.14
577.549	14.03
577.972	13.92
578.394	13.81
578.817	13.67
579.239	13.56
579.661	13.45
580.084	13.35
580.506	13.25
580.928	13.16
581.35	13.06
581.772	12.99
582.194	12.91
582.616	12.83
583.038	12.77
583.46	12.73
583.882	12.64
584.303	12.57
584.725	12.51
585.147	12.43
585.568	12.36
585.99	12.31
586.411	12.24
586.833	12.18
587.254	12.13
587.675	12.06
588.096	11.99
588.518	11.94
588.939	11.88
589.36	11.83
589.781	11.78
590.202	11.73
590.623	11.68
591.043	11.62
591.464	11.58
591.885	11.53
592.305	11.5
592.726	11.46
593.147	11.43
593.567	11.4
593.987	11.37
594.408	11.32
594.828	11.28
595.248	11.26
595.669	11.24
596.089	11.19
596.509	11.14
596.929	11.09
597.349	11.06
597.769	11.01
598.189	10.98
598.608	10.94
599.028	10.91
599.448	10.88
599.867	10.82
600.287	10.77
600.706	10.74
601.126	10.69
601.545	10.65
601.965	10.61
602.384	10.57
602.803	10.5
603.222	10.44
603.641	10.38
604.061	10.32
604.48	10.27
604.898	10.2
605.317	10.13
605.736	10.07
606.155	10.01
606.574	9.94
606.992	9.86
607.411	9.81
607.829	9.7
608.248	9.63
608.666	9.56
609.085	9.49
609.503	9.42
609.921	9.35
610.339	9.29
610.758	9.21
611.176	9.14
611.594	9.09
612.012	9.01
612.43	8.99
612.847	8.93
613.265	8.86
613.683	8.8
614.101	8.72
614.518	8.67
614.936	8.62
615.353	8.56
615.771	8.5
616.188	8.45
616.606	8.39
617.023	8.33
617.44	8.27
617.857	8.22
618.274	8.18
618.691	8.14
619.108	8.1
619.525	8.05
619.942	8.01
620.359	7.98
620.776	7.94
621.192	7.92
621.609	7.9
622.026	7.87
622.442	7.85
622.859	7.83
623.275	7.82
623.691	7.81
624.108	7.8
624.524	7.79
624.94	7.77
625.356	7.77
625.772	7.76
626.188	7.76
626.604	7.74
627.02	7.74
627.436	7.73
627.852	7.71
628.268	7.69
628.683	7.68
629.099	7.67
629.514	7.67
629.93	7.65
630.345	7.63
630.761	7.59
631.176	7.58
631.591	7.56
632.007	7.52
632.422	7.5
632.837	7.47
633.252	7.43
633.667	7.38
634.082	7.33
634.497	7.26
634.911	7.2
635.326	7.15
635.741	7.08
636.155	7.01
636.57	6.94
636.984	6.86
637.399	6.79
637.813	6.7
638.228	6.63
638.642	6.55
639.056	6.48
639.47	6.4
639.884	6.32
640.298	6.25
640.712	6.16
641.126	6.09
641.54	6.02
641.954	5.95
642.368	5.88
642.781	5.83
643.195	5.76
643.609	5.69
644.022	5.63
644.436	5.57
644.849	5.51
645.262	5.48
645.676	5.41
646.089	5.36
646.502	5.3
646.915	5.25
647.328	5.21
647.741	5.15
648.154	5.12
648.567	5.1
648.98	5.06
649.393	5.03
649.805	5
650.218	4.99
650.631	4.98
651.043	4.97
651.456	4.95
651.868	4.93
652.28	4.92
652.693	4.9
653.105	4.87
653.517	4.84
653.929	4.84
654.341	4.82
654.753	4.8
655.165	4.76
655.577	4.72
655.989	4.7
656.401	4.67
656.813	4.64
657.224	4.61
657.636	4.59
658.047	4.56
658.459	4.51
658.87	4.48
659.282	4.45
659.693	4.43
660.104	4.41
660.515	4.38
660.926	4.36
661.338	4.34
661.749	4.3
662.159	4.27
662.57	4.25
662.981	4.23
663.392	4.2
663.803	4.17
664.213	4.16
664.624	4.16
665.035	4.15
665.445	4.14
665.855	4.14
666.266	4.15
666.676	4.16
667.086	4.17
667.497	4.18
667.907	4.18
668.317	4.18
668.727	4.2
669.137	4.2
669.547	4.21
669.956	4.21
670.366	4.22
670.776	4.23
671.186	4.25
671.595	4.27
672.005	4.29
672.414	4.31
672.824	4.35
673.233	4.36
673.642	4.38
674.052	4.4
674.461	4.43
674.87	4.46
675.279	4.49
675.688	4.5
676.097	4.53
676.506	4.55
676.915	4.59
677.323	4.63
677.732	4.67
678.141	4.7
678.549	4.74
678.958	4.77
679.366	4.81
679.775	4.84
680.183	4.89
680.592	4.93
681	4.97
681.408	5
681.816	5.04
682.224	5.08
682.632	5.14
683.04	5.19
683.448	5.25
683.856	5.32
684.264	5.38
684.671	5.47
685.079	5.56
685.487	5.68
685.894	5.8
686.302	5.94
686.709	6.08
687.116	6.25
687.524	6.44
687.931	6.65
688.338	6.88
688.745	7.16
689.152	7.46
689.559	7.78
689.966	8.11
690.373	8.48
690.78	8.88
691.187	9.31
691.593	9.75
692	10.24
692.407	10.77
692.813	11.3
693.22	11.85
693.626	12.42
694.032	13.04
694.439	13.68
694.845	14.32
695.251	14.97
695.657	15.64
696.063	16.34
696.469	17.05
696.875	17.74
697.281	18.45
697.687	19.2
698.093	19.95
698.498	20.7
698.904	21.44
699.31	22.19
699.715	22.96
700.12	23.72
700.526	24.48
700.931	25.22
701.337	25.99
701.742	26.74
702.147	27.48
702.552	28.21
702.957	28.92
703.362	29.67
703.767	30.39
704.172	31.11
704.577	31.84
704.981	32.54
705.386	33.25
705.791	33.96
706.195	34.66
706.6	35.33
707.004	36.02
707.408	36.71
707.813	37.36
708.217	38.03
708.621	38.68
709.025	39.32
709.43	39.97
709.834	40.63
710.237	41.26
710.641	41.89
711.045	42.51
711.449	43.13
711.853	43.75
712.256	44.35
712.66	44.97
713.064	45.55
713.467	46.12
713.87	46.72
714.274	47.29
714.677	47.82
715.08	48.38
715.484	49
715.887	49.55
716.29	50.11
716.693	50.64
717.096	51.16
717.499	51.68
717.901	52.19
718.304	52.7
718.707	53.17
719.109	53.72
719.512	54.24
719.915	54.66
720.317	55.15
720.719	55.57
721.122	56.02
721.524	56.48
721.926	56.93
722.328	57.38
722.731	57.8
723.133	58.2
723.535	58.59
723.937	58.95
724.338	59.31
724.74	59.67
725.142	60.03
725.544	60.39
725.945	60.73
726.347	61.07
726.748	61.35
727.15	61.66
727.551	61.99
727.952	62.27
728.354	62.58
728.755	62.87
729.156	63.13
729.557	63.4
729.958	63.66
730.359	63.89
730.76	64.09
731.161	64.35
731.562	64.54
731.962	64.75
732.363	64.94
732.763	65.16
733.164	65.34
733.564	65.52
733.965	65.68
734.365	65.83
734.766	66
735.166	66.15
735.566	66.24
735.966	66.37
736.366	66.49
736.766	66.61
737.166	66.71
737.566	66.82
737.966	66.95
738.365	67.06
738.765	67.15
739.165	67.24
739.564	67.34
739.964	67.47
740.363	67.58
740.763	67.66
741.162	67.74
741.561	67.85
741.96	67.93
742.36	68.01
742.759	68.04
743.158	68.12
743.557	68.2
743.955	68.32
744.354	68.43
744.753	68.48
745.152	68.54
745.55	68.6
745.949	68.63
746.348	68.68
746.746	68.71
747.144	68.8
747.543	68.87
747.941	68.95
748.339	68.98
748.737	69.02
749.136	69.1
749.534	69.14
749.932	69.19
750.33	69.26
750.727	69.3
751.125	69.32
751.523	69.34
751.921	69.37
752.318	69.38
752.716	69.37
753.113	69.37
753.511	69.34
753.908	69.34
754.305	69.34
754.703	69.29
755.1	69.29
755.497	69.32
755.894	69.35
756.291	69.35
756.688	69.34
757.085	69.35
757.482	69.36
757.878	69.44
758.275	69.5
758.672	69.56
759.068	69.64
759.465	69.65
759.861	69.65
760.258	69.64
760.654	69.64
761.05	69.64
761.447	69.64
761.843	69.61
762.239	69.58
762.635	69.52
763.031	69.48
763.427	69.44
763.822	69.42
764.218	69.38
764.614	69.36
765.01	69.35
765.405	69.33
765.801	69.31
766.196	69.31
766.592	69.28
766.987	69.27
767.382	69.29
767.778	69.32
768.173	69.32
768.568	69.31
768.963	69.33
769.358	69.32
769.753	69.33
770.148	69.34
770.542	69.32
770.937	69.33
771.332	69.35
771.726	69.29
772.121	69.21
772.515	69.22
772.91	69.28
773.304	69.26
773.699	69.26
774.093	69.22
774.487	69.21
774.881	69.21
775.275	69.23
775.669	69.23
776.063	69.24
776.457	69.23
776.851	69.23
777.245	69.2
777.638	69.2
778.032	69.19
778.425	69.24
778.819	69.26
779.212	69.27
779.606	69.23
779.999	69.2
780.392	69.21
780.786	69.22
781.179	69.23
781.572	69.19
781.965	69.23
782.358	69.24
782.751	69.21
783.143	69.21
783.536	69.28
783.929	69.31
784.322	69.35
784.714	69.38
785.107	69.43
785.499	69.45
785.891	69.49
786.284	69.46
786.676	69.46
787.068	69.46
787.46	69.47
787.852	69.43
788.245	69.45
788.636	69.45
789.028	69.46
789.42	69.41
789.812	69.39
790.204	69.34
790.595	69.34
790.987	69.35
791.378	69.36
791.77	69.36
792.161	69.36
792.553	69.33
792.944	69.32
793.335	69.31
793.726	69.31
794.117	69.31
794.508	69.36
794.899	69.39
795.29	69.41
795.681	69.4
796.072	69.4
796.463	69.4
796.853	69.43
797.244	69.45
797.634	69.43
798.025	69.48
798.415	69.47
798.806	69.48
799.196	69.48
799.586	69.46
799.976	69.46
800.366	69.48
800.756	69.46
801.146	69.44
801.536	69.41
801.926	69.42
802.316	69.38
802.706	69.42
803.095	69.4
803.485	69.43
803.874	69.45
804.264	69.48
804.653	69.45
805.043	69.48
805.432	69.48
805.821	69.52
806.21	69.57
806.599	69.64
806.988	69.65
807.377	69.69
807.766	69.67
808.155	69.65
808.544	69.6
808.933	69.63
809.321	69.66
809.71	69.7
810.098	69.68
810.487	69.67
810.875	69.65
811.264	69.65
811.652	69.68
812.04	69.7
812.428	69.74
812.816	69.78
813.204	69.77
813.592	69.73
813.98	69.72
814.368	69.74
814.756	69.72
815.144	69.74
815.531	69.73
815.919	69.7
816.306	69.69
816.694	69.67
817.081	69.68
817.469	69.75
817.856	69.82
818.243	69.88
818.63	69.92
819.017	69.99
819.404	69.95
819.791	70.01
820.178	70.02
820.565	70.06
820.952	70.11
821.339	70.14
821.725	70.15
822.112	70.12
822.498	70.12
822.885	70.15
823.271	70.14
823.657	70.18
824.044	70.14
824.43	70.19
824.816	70.19
825.202	70.15
825.588	70.16
825.974	70.14
826.36	70.16
826.746	70.17
827.132	70.11
827.517	70.09
827.903	70.09
828.289	70.11
828.674	70.11
829.06	70.1
829.445	70.17
829.83	70.16
830.216	70.18
830.601	70.14
830.986	70.12
831.371	70.17
831.756	70.18
832.141	70.2
832.526	70.2
832.911	70.18
833.295	70.18
833.68	70.16
834.065	70.19
834.449	70.16
834.834	70.17
835.218	70.17
835.603	70.18
835.987	70.15
836.371	70.17
836.755	70.15
837.139	70.15
837.524	70.13
837.908	70.09
838.291	70.07
838.675	70.08
839.059	70.07
839.443	70.03
839.827	69.97
840.21	70
840.594	69.95
840.977	69.93
841.361	69.93
841.744	69.95
842.127	69.96
842.511	69.92
842.894	69.9
843.277	69.9
843.66	69.94
844.043	69.97
844.426	69.96
844.809	69.99
845.191	69.99
845.574	69.95
845.957	69.91
846.339	69.91
846.722	69.94
847.104	69.94
847.487	69.98
847.869	69.95
848.252	69.93
848.634	69.93
849.016	69.93
849.398	69.94
849.78	70
850.162	69.99
850.544	70.02
850.926	69.99
851.307	70.02
851.689	69.95
852.071	69.94
852.452	69.96
852.834	69.95
853.215	69.94
853.597	69.95
853.978	69.94
854.359	69.95
854.741	69.95
855.122	69.92
855.503	69.93
855.884	69.94
856.265	69.96
856.646	69.92
857.026	69.92
857.407	69.87
857.788	69.87
858.169	69.87
858.549	69.93
858.93	69.91
859.31	69.92
859.69	69.9
860.071	69.89
860.451	69.92
860.831	69.93
861.211	69.92
861.591	69.9
861.971	69.89
862.351	69.87
862.731	69.82
863.111	69.83
863.491	69.89
863.87	69.88
864.25	69.92
864.629	69.89
865.009	69.89
865.388	69.9
865.768	69.96
866.147	69.97
866.526	69.98
866.905	69.99
867.284	69.98
867.663	69.95
868.042	69.96
868.421	69.91
868.8	69.9
869.179	69.93
869.558	69.93
869.936	69.89
870.315	69.89
870.693	69.9
871.072	69.89
871.45	69.86
871.828	69.83
872.207	69.83
872.585	69.84
872.963	69.85
873.341	69.84
873.719	69.84
874.097	69.83
874.475	69.83
874.853	69.82
875.23	69.84
875.608	69.88
875.986	69.9
876.363	69.88
876.741	69.88
877.118	69.87
877.495	69.84
877.873	69.83
878.25	69.84
878.627	69.83
879.004	69.82
879.381	69.82
879.758	69.79
880.135	69.77
880.512	69.79
880.889	69.81
881.265	69.83
881.642	69.83
882.019	69.82
882.395	69.8
882.772	69.81
883.148	69.8
883.524	69.78
883.901	69.73
884.277	69.74
884.653	69.73
885.029	69.71
885.405	69.7
885.781	69.7
886.157	69.69
886.532	69.7
886.908	69.67
887.284	69.69
887.659	69.7
888.035	69.74
888.411	69.7
888.786	69.69
889.161	69.7
889.537	69.7
889.912	69.66
890.287	69.63
890.662	69.61
891.037	69.61
891.412	69.56
891.787	69.55
892.162	69.54
892.536	69.54
892.911	69.52
893.286	69.47
893.66	69.42
894.035	69.41
894.409	69.43
894.784	69.44
895.158	69.41
895.532	69.41
895.906	69.36
896.281	69.33
896.655	69.3
897.029	69.3
897.402	69.31
897.776	69.33
898.15	69.3
898.524	69.28
898.898	69.22
899.271	69.22
899.645	69.22
900.018	69.26
900.392	69.25
900.765	69.3
901.138	69.29
901.511	69.29
901.884	69.27
902.258	69.26
902.631	69.29
903.003	69.33
903.376	69.34
903.749	69.32
904.122	69.3
904.495	69.33
904.867	69.3
905.24	69.32
905.612	69.3
905.985	69.31
906.357	69.31
906.729	69.27
907.102	69.26
907.474	69.25
907.846	69.23
908.218	69.19
908.59	69.15
908.962	69.16
909.334	69.14
909.705	69.16
910.077	69.11
910.449	69.13
910.82	69.11
911.192	69.13
911.563	69.11
911.935	69.1
912.306	69.1
912.677	69.1
913.048	69.06
913.419	69.04
913.79	68.99
914.161	69.02
914.532	68.98
914.903	68.99
915.274	68.91
915.645	68.87
916.015	68.86
916.386	68.85
916.756	68.75
917.127	68.73
917.497	68.71
917.868	68.73
918.238	68.71
918.608	68.7
918.978	68.67
919.348	68.65
919.718	68.67
920.088	68.71
920.458	68.73
920.828	68.8
921.198	68.83
921.567	68.78
921.937	68.75
922.306	68.72
922.676	68.76
923.045	68.76
923.415	68.74
923.784	68.71
924.153	68.63
924.522	68.62
924.891	68.58
925.26	68.52
925.629	68.55
925.998	68.55
926.367	68.56
926.736	68.49
927.104	68.48
927.473	68.51
927.842	68.53
928.21	68.6
928.578	68.51
928.947	68.51
929.315	68.53
929.683	68.53
930.051	68.51
930.42	68.48
930.788	68.42
931.156	68.41
931.523	68.4
931.891	68.32
932.259	68.19
932.627	68.15
932.994	68.1
933.362	67.98
933.729	67.89
934.097	67.79
934.464	67.76
934.831	67.75
935.199	67.66
935.566	67.49
935.933	67.45
936.3	67.38
936.667	67.36
937.034	67.31
937.401	67.23
937.767	67.13
938.134	67.12
938.501	67.01
938.867	66.95
939.234	66.94
939.6	66.94
939.967	66.87
940.333	66.95
940.699	66.95
941.065	66.94
941.431	67.11
941.798	67.23
942.163	67.28
942.529	67.29
942.895	67.44
943.261	67.44
943.627	67.51
943.992	67.59
944.358	67.59
944.723	67.58
945.089	67.63
945.454	67.62
945.82	67.64
946.185	67.7
946.55	67.78
946.915	67.67
947.28	67.74
947.645	67.73
948.01	67.77
948.375	67.82
948.74	67.77
949.104	67.77
949.469	67.63
949.834	67.56
950.198	67.44
950.562	67.38
950.927	67.41
951.291	67.31
951.655	67.33
952.02	67.3
952.384	67.32
952.748	67.31
953.112	67.29
953.476	67.28
953.839	67.26
954.203	67.19
954.567	67.17
954.931	67.09
955.294	67.1
955.658	67.02
956.021	67.04
956.385	66.97
956.748	66.93
957.111	66.84
957.474	66.93
957.837	66.89
958.2	66.91
958.563	66.86
958.926	66.84
959.289	66.87
959.652	66.83
960.015	66.66
960.377	66.63
960.74	66.6
961.102	66.59
961.465	66.54
961.827	66.48
962.189	66.4
962.552	66.35
962.914	66.24
963.276	66.13
963.638	66.11
964	66.14
964.362	66.1
964.724	66.09
965.085	66.1
965.447	66.01
965.809	65.97
966.17	66.02
966.532	66.05
966.893	66.1
967.255	66.04
967.616	66.08
967.977	66.07
968.338	66.03
968.699	66.01
969.061	65.96
969.421	65.92
969.782	65.91
970.143	65.85
970.504	65.74
970.865	65.75
971.225	65.74
971.586	65.72
971.946	65.7
972.307	65.67
972.667	65.75
973.027	65.76
973.388	65.71
973.748	65.78
974.108	65.79
974.468	65.86
974.828	65.87
975.188	65.9
975.548	65.95
975.907	65.95
976.267	65.85
976.627	65.79
976.986	65.73
977.346	65.76
977.705	65.76
978.064	65.73
978.424	65.7
978.783	65.64
979.142	65.62
979.501	65.54
979.86	65.54
980.219	65.58
980.578	65.42
980.937	65.47
981.296	65.49
981.654	65.51
982.013	65.52
982.371	65.53
982.73	65.46
983.088	65.41
983.447	65.44
983.805	65.36
984.163	65.43
984.521	65.33
984.879	65.24
985.237	65.32
985.595	65.25
985.953	65.23
986.311	65.33
986.669	65.39
987.026	65.44
987.384	65.41
987.741	65.51
988.099	65.43
988.456	65.53
988.814	65.52
989.171	65.35
989.528	65.27
989.885	65.19
990.242	65.09
990.599	65.04
990.956	65.04
991.313	64.98
991.67	64.85
992.027	64.88
992.383	64.97
992.74	65.06
993.096	65.03
993.453	64.98
993.809	65.1
994.165	65.03
994.522	65.11
994.878	65.01
995.234	64.89
995.59	64.87
995.946	64.97
996.302	64.89
996.658	64.82
997.013	64.93
997.369	64.98
997.725	65.05
998.08	64.99
998.436	64.89
998.791	64.88
999.147	65.02
999.502	65.04
999.857	64.83
1000.212	64.69
1000.567	64.76
1000.922	64.71
1001.277	64.65
1001.632	64.53
1001.987	64.56
1002.342	64.6
1002.696	64.77
1003.051	64.71
1003.406	64.57
1003.76	64.59
1004.114	64.78
1004.469	64.49
1004.823	64.29
1005.177	64.39
1005.531	64.13
1005.885	64.12
1006.239	64.12
1006.593	63.9
1006.947	63.66
1007.301	63.74
1007.655	63.65
1008.008	63.45
1008.362	63.54
1008.715	63.71
1009.069	63.46
1009.422	63.51
1009.776	63.48
1010.129	63.22
1010.482	63.28
1010.835	63.39
1011.188	63.52
1011.541	63.42
1011.894	63.74
1012.247	63.82
1012.6	63.52
1012.952	63.75
1013.305	63.87
1013.657	63.81
1014.01	64.01
1014.362	63.81
1014.715	63.62
1015.067	63.35
1015.419	63.46
1015.771	63.36
1016.123	63.38
1016.475	63.64
1016.827	63.36
1017.179	63.38
1017.531	63.43
1017.883	63.17
1018.234	63.33
1018.586	63.37
1018.938	63.21
1019.289	63.06
1019.64	62.82
1019.992	62.78
1020.343	62.62
1020.694	62.46
1021.045	62.25
1021.396	61.9
1021.747	61.95
1022.098	62.14
1022.449	62.44
1022.8	62.34
1023.151	62.5
1023.501	62.33
1023.852	62.17
1024.202	62.08
1024.553	61.97
1024.903	61.9
1025.253	62
1025.604	61.71
1025.954	61.02
1026.304	61.17
1026.654	61.07
1027.004	60.95
1027.354	60.94
1027.703	60.66
1028.053	60.43
1028.403	60.62
1028.753	60.8
1029.102	60.7
1029.452	60.79
1029.801	60.92
1030.15	60.37
1030.499	60.68
897.758	692.16
901.051	694.97
904.343	703.68
907.636	693.05
910.928	681.62
914.22	690.83
917.511	681.29
920.803	651.85
924.094	624.88
927.384	631.52
930.675	608.39
933.965	600.1
937.255	605.57
940.544	578.22
943.834	553.49
947.123	545.19
950.411	520.46
953.7	509.02
956.988	496.43
960.276	474.45
963.563	468.39
966.851	447.51
970.138	438.2
973.424	408.19
976.711	401.12
979.997	388.12
983.283	380.12
986.568	367.86
989.853	358.12
993.138	342.5
996.423	339.85
999.708	329.72
1002.992	330.11
1006.275	320.63
1009.559	317.82
1012.842	309.8
1016.125	299.27
1019.408	293.37
1022.69	291.66
1025.972	289.56
1029.254	283.4
1032.536	277.07
1035.817	268.31
1039.098	264.59
1042.379	259.02
1045.659	255.12
1048.939	253.58
1052.219	250.14
1055.498	245.23
1058.778	240.38
1062.057	235.4
1065.335	234.77
1068.614	231.37
1071.892	228.13
1075.17	224.1
1078.447	221.73
1081.724	219.94
1085.001	215.38
1088.278	215.83
1091.554	215.32
1094.83	213.3
1098.106	209.99
1101.382	208.54
1104.657	207.59
1107.932	207.24
1111.206	204.99
1114.481	203.48
1117.755	201.22
1121.029	200.89
1124.302	196.68
1127.575	194.52
1130.848	194.28
1134.121	191.19
1137.393	191.19
1140.665	189.9
1143.937	187.27
1147.208	186.15
1150.48	184.38
1153.75	184.2
1157.021	181.82
1160.291	182.24
1163.561	181.37
1166.831	179.45
1170.101	180.19
1173.37	178.37
1176.639	176.42
1179.907	177.18
1183.176	176.96
1186.444	177.18
1189.711	175.49
1192.979	177.89
1196.246	177.03
1199.513	175.56
1202.78	176.7
1206.046	176.86
1209.312	177.84
1212.578	178.89
1215.843	180.73
1219.108	181.5
1222.373	184.07
1225.638	187.49
1228.902	190.52
1232.166	196.62
1235.43	199.94
1238.693	204.76
1241.956	208.91
1245.219	214.32
1248.482	216.36
1251.744	215.79
1255.006	215.74
1258.268	211.48
1261.529	210.09
1264.79	204.54
1268.051	199.87
1271.312	198.82
1274.572	193.85
1277.832	188.95
1281.092	186.44
1284.351	182.91
1287.61	182.31
1290.869	181.95
1294.128	180.39
1297.386	178.61
1300.644	178.5
1303.902	177.85
1307.159	177.38
1310.416	179
1313.673	182.21
1316.93	181.95
1320.186	184.76
1323.442	186.98
1326.697	190.69
1329.953	191.36
1333.208	199.19
1336.463	205.79
1339.717	209.94
1342.972	217.75
1346.226	223.45
1349.479	225.38
1352.733	235.76
1355.986	240.52
1359.238	245.81
1362.491	247.01
1365.743	257.43
1368.995	257.68
1372.247	255.45
1375.498	254.03
1378.749	262.23
1382	261.33
1385.251	259.03
1388.501	258.65
1391.751	261.3
1395	259.8
1398.25	261.56
1401.499	258.38
1404.748	257.89
1407.996	253.15
1411.244	254.58
1414.492	250.09
1417.74	243.38
1420.987	238.09
1424.234	234.1
1427.481	224.96
1430.728	218.71
1433.974	211.3
1437.22	206.92
1440.465	198.58
1443.711	193.71
1446.956	187.44
1450.201	180.56
1453.445	172
1456.689	167.34
1459.933	161.6
1463.177	154.52
1466.42	152.16
1469.663	147.43
1472.906	142.42
1476.148	140.41
1479.391	137.18
1482.633	135.27
1485.874	132.47
1489.115	131.8
1492.356	129.48
1495.597	127.99
1498.838	127.96
1502.078	126.31
1505.318	126.07
1508.557	125.29
1511.797	123.21
1515.036	123.17
1518.274	122.61
1521.513	121.23
1524.751	120.73
1527.989	121.81
1531.227	120.87
1534.464	120.41
1537.701	119.51
1540.938	119.16
1544.174	119.25
1547.41	119.88
1550.646	119.44
1553.882	119.33
1557.117	118.91
1560.352	119.12
1563.587	118.26
1566.821	118.52
1570.055	117.58
1573.289	117.97
1576.523	118.28
1579.756	117.53
1582.989	118.03
1586.222	117.54
1589.454	116.88
1592.686	117.82
1595.918	117.22
1599.15	116.98
1602.381	117.2
1605.612	117.68
1608.843	117.42
1612.073	118.05
1615.303	118.68
1618.533	117.55
1621.762	118.43
1624.992	118.87
1628.221	118.43
1631.449	118.88
1634.678	118.6
1637.906	118.54
1641.134	119.16
1644.361	119.08
1647.588	118.64
1650.815	118.47
1654.042	119.21
1657.269	118.67
1660.495	119.22
1663.72	118.58
1666.946	118.71
1670.171	119.61
1673.396	120.44
1676.621	120.7
1679.845	120.83
1683.069	120.3
1686.293	120.49
1689.517	120.51
1692.74	120.85
1695.963	120.92
1699.185	122.39
1702.408	122.19
1705.63	122.26
1708.852	122.26
1712.073	121.69
1715.294	121.73
1718.515	122.63
1721.736	122.76
1724.956	122.87
1728.176	122.91
1731.396	123.39
1734.616	122.84
1737.835	123.2
1741.054	122.48
1744.272	122.62
1747.491	122.41
1750.709	123.58
1753.927	123.56
1757.144	123.87
1760.361	123.83
1763.578	124.9
1766.795	125.19
1770.011	125.11
1773.227	126.19
1776.443	127.32
1779.658	127.28
1782.874	128.72
1786.089	128.78
1789.303	128.71
1792.518	130.14
1795.732	130.91
1798.945	131.23
1802.159	131.4
1805.372	133.37
1808.585	133.83
1811.797	134.53
1815.01	135.72
1818.222	136.38
1821.434	137.34
1824.645	138.27
1827.856	139.74
1831.067	140.04
1834.278	141.32
1837.488	141.93
1840.698	143.39
1843.908	143.35
1847.117	145.58
1850.326	146.26
1853.535	145.97
1856.744	146.62
1859.952	148.69
1863.16	147.64
1866.368	147.61
1869.575	148.27
1872.782	147.64
1875.989	146.08
1879.196	145.11
1882.402	143.45
1885.608	144.08
1888.814	143.69
1892.019	145.19
1895.224	142.62
1898.429	143.22
1901.634	144.46
1904.838	144.52
1908.042	145.25
1911.246	145.22
1914.449	146.6
1917.652	146.05
1920.855	146.54
1924.058	146.2
1927.26	144.95
1930.462	145.83
1933.664	146.02
1936.865	145
1940.066	142.81
1943.267	142.64
1946.467	144.23
1949.668	144.02
1952.868	144.18
1956.067	143.2
1959.267	144.96
1962.466	145.59
1965.665	146.91
1968.863	147.52
1972.061	148.8
1975.259	152.03
1978.457	152.99
1981.654	154.45
1984.852	155.44
1988.048	157.42
1991.245	160.68
1994.441	162.48
1997.637	165.75
2000.833	169.18
2004.028	170.31
2007.223	175.45
2010.418	179.28
2013.613	186.05
2016.807	190.43
2020.001	194.32
2023.194	199.87
2026.388	205.96
2029.581	216.96
2032.774	223.15
2035.966	229.18
2039.158	236.93
2042.35	242.04
2045.542	245.25
2048.733	258.67
2051.924	258.74
2055.115	264.75
2058.306	267.45
2061.496	272.97
2064.686	272.71
2067.875	269.98
2071.065	272.32
2074.254	274.27
2077.442	281.72
2080.631	284.72
2083.819	282.01
2087.007	289.22
2090.195	292.42
2093.382	292.75
2096.569	292.17
2099.756	296.65
2102.942	304.67
2106.128	312.26
2109.314	312.22
2112.5	311.75
2115.685	312.52
2118.87	313.34
2122.055	316.46
2125.239	324.13
2128.424	332.71
2131.608	329.97
2134.791	331.34
2137.974	333.2
2141.157	333.55
2144.34	339.02
2147.523	340.94
2150.705	348.58
2153.887	348.59
2157.068	351.46
2160.25	351.75
2163.431	349.89
2166.611	355.93
2169.792	363.26
2172.972	367.16
2176.152	369.85
2179.331	378.08
2182.511	379.99
2185.69	385.2
2188.868	397.93
2192.047	405.54
2195.225	413.78
2198.403	420.9
2201.58	417.56
2204.758	429.61
2207.935	432.64
2211.111	440.86
2214.288	440.93
2217.464	447.8
2220.64	449.14
2223.815	451.58
2226.991	445.26
2230.166	448.85
2233.34	462.09
2236.515	477.48
2239.689	468.71
2242.863	477.75
2246.036	473.02
2249.209	485.64
2252.382	483.42
2255.555	500.64
2258.727	500.16
2261.9	519.71
2265.071	523.57
2268.243	517.99
2271.414	530.8
2274.585	541.71
2277.756	543.39
2280.926	566.4
2284.096	564.93
2287.266	568.16
2290.436	555.13
2293.605	569.63
2296.774	589.35
2299.942	591.04
2303.111	610.69
2306.279	619.2
2309.447	622.05
2312.614	622.32
2315.781	634.66
2318.948	642.86
2322.115	656.2
2325.281	693.59
2328.447	690.02
2331.613	686.47
2334.779	699.98
2337.944	706.24
2341.109	723.29
2344.274	734.19
2347.438	753.24
2350.602	763.41
2353.766	812.27
2356.929	815.96
2360.092	822.04
2363.255	824.34
2366.418	841.11
2369.58	857.48
2372.742	860.7
2375.904	853.91
2379.066	875.29
2382.227	929.2
2385.388	930.85
2388.548	884.12
2391.709	872.02
2394.869	904.94
2398.029	903.48
2401.188	904.73
2404.347	934.05
2407.506	962.36
2410.665	926.48
2413.823	925.11
2416.981	921.51
2420.139	876.93
2423.296	946.26
2426.453	1011.83
2429.61	957.51
2432.767	1023.81
2435.923	1057.48
2439.079	1016.13
2442.235	1035.52
2445.391	1063.14
2448.546	1061.48
2451.701	1117.01
2454.855	1187.77
2458.009	1049.09
2461.163	1073
2464.317	1087.35
2467.471	1065.94
2470.624	1097.93
2473.777	1079.51
2476.929	1048.74
2480.082	1117.54
2483.234	1166.86
2486.385	1196.64
2489.537	1223.99
2492.688	1351.58
2495.839	1317.47
2498.989	1365.56
2502.14	1370.67
2505.29	1309.16
2508.439	1464.7
2511.589	1505.43
2514.738	1458.03
2517.887	1447.97
2521.035	1348.3
2524.183	1327.72
2527.331	1315.24
2530.479	1287.2
2533.627	1312.51
