Data from N_2_hir_il_4n_053_Splice17_03.txt Node
Date: Sat Feb 29 13:57:50 EST 2020
User: sa697716
Spectrometer: FLMS03696
Trigger mode: 0
Integration Time (sec): 3.180400E-1
Scans to average: 20
Electric dark correction enabled: true
Nonlinearity correction enabled: true
Boxcar width: 5
XAxis mode: Wavelengths
Number of Pixels in Spectrum: 2048
>>>>>Begin Spectral Data<<<<<
187.83	20.74
188.298	11.18
188.766	20.52
189.233	20.55
189.701	26.44
190.169	24.64
190.636	16.73
191.104	-5.18
191.571	-40.84
192.039	92.2
192.506	-61.28
192.974	2383.08
193.441	162.99
193.908	88.81
194.375	90.87
194.842	100.76
195.31	49.67
195.777	76.89
196.244	31.34
196.711	21.52
197.177	20.2
197.644	20.58
198.111	19.22
198.578	20.02
199.045	19.05
199.511	19.66
199.978	19.72
200.445	19.5
200.911	18.93
201.378	18.74
201.844	19.39
202.31	19.72
202.777	19.94
203.243	20.86
203.709	20.97
204.176	20.63
204.642	20.84
205.108	20.84
205.574	21.38
206.04	21.83
206.506	21.67
206.972	21.67
207.438	21.3
207.903	21.4
208.369	20.88
208.835	20.57
209.301	20.99
209.766	20.94
210.232	20.91
210.697	20.47
211.163	20.05
211.628	19.82
212.094	19.63
212.559	19.39
213.024	19.12
213.49	18.82
213.955	18.76
214.42	18.27
214.885	17.76
215.35	17.36
215.815	16.99
216.28	16.63
216.745	16.23
217.21	15.6
217.675	15.22
218.14	14.55
218.604	14.05
219.069	13.64
219.534	13.35
219.998	12.97
220.463	12.75
220.927	12.47
221.392	12.22
221.856	12.04
222.32	11.82
222.785	11.63
223.249	11.47
223.713	11.35
224.177	11.19
224.642	11.03
225.106	10.93
225.57	10.8
226.034	10.69
226.497	10.56
226.961	10.44
227.425	10.32
227.889	10.17
228.353	10.08
228.816	9.96
229.28	9.81
229.744	9.7
230.207	9.59
230.671	9.48
231.134	9.37
231.597	9.28
232.061	9.17
232.524	9.1
232.987	9.01
233.45	8.91
233.914	8.81
234.377	8.76
234.84	8.68
235.303	8.59
235.766	8.51
236.229	8.43
236.691	8.36
237.154	8.29
237.617	8.2
238.08	8.14
238.542	8.06
239.005	7.99
239.468	7.89
239.93	7.83
240.393	7.76
240.855	7.68
241.317	7.63
241.78	7.56
242.242	7.48
242.704	7.41
243.166	7.36
243.629	7.3
244.091	7.26
244.553	7.22
245.015	7.15
245.477	7.08
245.939	7.03
246.4	6.96
246.862	6.91
247.324	6.89
247.786	6.84
248.247	6.8
248.709	6.75
249.17	6.7
249.632	6.65
250.093	6.59
250.555	6.56
251.016	6.54
251.477	6.51
251.939	6.46
252.4	6.41
252.861	6.38
253.322	6.32
253.783	6.29
254.244	6.25
254.705	6.23
255.166	6.2
255.627	6.18
256.088	6.13
256.549	6.1
257.009	6.07
257.47	6.05
257.931	6.03
258.391	6
258.852	5.97
259.312	5.93
259.773	5.9
260.233	5.87
260.694	5.85
261.154	5.82
261.614	5.79
262.074	5.76
262.534	5.71
262.994	5.69
263.455	5.66
263.915	5.64
264.374	5.61
264.834	5.59
265.294	5.56
265.754	5.52
266.214	5.51
266.673	5.49
267.133	5.47
267.593	5.46
268.052	5.43
268.512	5.41
268.971	5.39
269.431	5.38
269.89	5.36
270.349	5.35
270.809	5.35
271.268	5.33
271.727	5.31
272.186	5.29
272.645	5.27
273.104	5.26
273.563	5.25
274.022	5.23
274.481	5.21
274.94	5.19
275.399	5.17
275.857	5.15
276.316	5.13
276.775	5.11
277.233	5.09
277.692	5.07
278.15	5.06
278.609	5.03
279.067	5.02
279.525	4.99
279.984	4.97
280.442	4.96
280.9	4.94
281.358	4.93
281.816	4.91
282.274	4.9
282.732	4.88
283.19	4.87
283.648	4.86
284.106	4.84
284.564	4.84
285.021	4.83
285.479	4.82
285.937	4.8
286.394	4.78
286.852	4.77
287.309	4.75
287.767	4.74
288.224	4.73
288.682	4.72
289.139	4.71
289.596	4.68
290.053	4.66
290.511	4.64
290.968	4.63
291.425	4.61
291.882	4.6
292.339	4.58
292.796	4.55
293.252	4.53
293.709	4.51
294.166	4.5
294.623	4.49
295.079	4.49
295.536	4.48
295.992	4.47
296.449	4.46
296.905	4.45
297.362	4.44
297.818	4.43
298.274	4.42
298.731	4.41
299.187	4.4
299.643	4.39
300.099	4.38
300.555	4.36
301.011	4.34
301.467	4.33
301.923	4.32
302.379	4.31
302.835	4.3
303.291	4.3
303.746	4.28
304.202	4.27
304.658	4.25
305.113	4.24
305.569	4.24
306.024	4.23
306.479	4.22
306.935	4.21
307.39	4.19
307.845	4.18
308.301	4.17
308.756	4.17
309.211	4.15
309.666	4.15
310.121	4.15
310.576	4.14
311.031	4.13
311.486	4.14
311.94	4.13
312.395	4.13
312.85	4.12
313.305	4.11
313.759	4.11
314.214	4.11
314.668	4.11
315.123	4.1
315.577	4.09
316.032	4.09
316.486	4.08
316.94	4.07
317.394	4.06
317.849	4.07
318.303	4.07
318.757	4.05
319.211	4.03
319.665	4.02
320.119	4.01
320.572	4
321.026	4
321.48	3.99
321.934	3.99
322.387	3.98
322.841	3.96
323.295	3.95
323.748	3.94
324.202	3.94
324.655	3.92
325.108	3.91
325.562	3.9
326.015	3.89
326.468	3.88
326.921	3.87
327.374	3.86
327.827	3.86
328.28	3.85
328.733	3.84
329.186	3.84
329.639	3.83
330.092	3.82
330.545	3.82
330.997	3.82
331.45	3.81
331.903	3.8
332.355	3.8
332.808	3.8
333.26	3.8
333.713	3.8
334.165	3.8
334.617	3.8
335.069	3.8
335.522	3.8
335.974	3.8
336.426	3.81
336.878	3.8
337.33	3.79
337.782	3.78
338.234	3.77
338.686	3.76
339.137	3.76
339.589	3.75
340.041	3.74
340.493	3.72
340.944	3.72
341.396	3.71
341.847	3.7
342.299	3.69
342.75	3.67
343.201	3.66
343.653	3.65
344.104	3.64
344.555	3.62
345.006	3.61
345.457	3.59
345.908	3.58
346.359	3.58
346.81	3.57
347.261	3.57
347.712	3.57
348.163	3.56
348.613	3.55
349.064	3.54
349.515	3.53
349.965	3.52
350.416	3.52
350.866	3.51
351.317	3.49
351.767	3.49
352.217	3.48
352.668	3.47
353.118	3.47
353.568	3.47
354.018	3.48
354.468	3.48
354.918	3.48
355.368	3.49
355.818	3.49
356.268	3.49
356.718	3.49
357.168	3.48
357.617	3.47
358.067	3.45
358.517	3.44
358.966	3.44
359.416	3.44
359.865	3.43
360.315	3.42
360.764	3.41
361.213	3.41
361.663	3.4
362.112	3.42
362.561	3.41
363.01	3.42
363.459	3.41
363.908	3.41
364.357	3.41
364.806	3.39
365.255	3.4
365.703	3.4
366.152	3.39
366.601	3.39
367.05	3.4
367.498	3.39
367.947	3.39
368.395	3.39
368.844	3.38
369.292	3.37
369.74	3.37
370.189	3.37
370.637	3.36
371.085	3.35
371.533	3.34
371.981	3.33
372.429	3.32
372.877	3.32
373.325	3.31
373.773	3.32
374.221	3.31
374.669	3.3
375.116	3.29
375.564	3.29
376.012	3.28
376.459	3.28
376.907	3.27
377.354	3.27
377.801	3.28
378.249	3.27
378.696	3.27
379.143	3.28
379.591	3.28
380.038	3.29
380.485	3.3
380.932	3.3
381.379	3.3
381.826	3.29
382.273	3.3
382.72	3.3
383.166	3.31
383.613	3.3
384.06	3.31
384.506	3.3
384.953	3.3
385.4	3.3
385.846	3.3
386.292	3.31
386.739	3.32
387.185	3.33
387.631	3.33
388.078	3.34
388.524	3.33
388.97	3.35
389.416	3.35
389.862	3.35
390.308	3.36
390.754	3.37
391.2	3.38
391.645	3.4
392.091	3.4
392.537	3.41
392.983	3.42
393.428	3.44
393.874	3.46
394.319	3.47
394.765	3.49
395.21	3.5
395.655	3.51
396.101	3.52
396.546	3.54
396.991	3.56
397.436	3.57
397.881	3.59
398.326	3.61
398.771	3.63
399.216	3.66
399.661	3.68
400.106	3.71
400.551	3.72
400.995	3.74
401.44	3.75
401.885	3.76
402.329	3.78
402.774	3.79
403.218	3.8
403.663	3.81
404.107	3.83
404.551	3.85
404.995	3.86
405.44	3.87
405.884	3.88
406.328	3.9
406.772	3.92
407.216	3.96
407.66	3.98
408.104	4
408.547	4.03
408.991	4.04
409.435	4.04
409.879	4.07
410.322	4.1
410.766	4.14
411.209	4.16
411.653	4.16
412.096	4.16
412.54	4.18
412.983	4.19
413.426	4.21
413.869	4.24
414.312	4.27
414.756	4.28
415.199	4.3
415.642	4.32
416.085	4.36
416.527	4.4
416.97	4.41
417.413	4.42
417.856	4.44
418.298	4.45
418.741	4.45
419.184	4.45
419.626	4.46
420.069	4.48
420.511	4.47
420.953	4.46
421.396	4.49
421.838	4.51
422.28	4.53
422.722	4.55
423.164	4.56
423.606	4.57
424.048	4.56
424.49	4.58
424.932	4.58
425.374	4.58
425.816	4.57
426.258	4.56
426.699	4.54
427.141	4.54
427.582	4.53
428.024	4.54
428.465	4.54
428.907	4.56
429.348	4.57
429.789	4.57
430.231	4.58
430.672	4.6
431.113	4.62
431.554	4.63
431.995	4.65
432.436	4.66
432.877	4.66
433.318	4.66
433.759	4.67
434.2	4.67
434.64	4.69
435.081	4.69
435.522	4.71
435.962	4.71
436.403	4.73
436.843	4.72
437.284	4.73
437.724	4.76
438.164	4.78
438.604	4.79
439.045	4.81
439.485	4.81
439.925	4.8
440.365	4.79
440.805	4.78
441.245	4.77
441.685	4.77
442.125	4.76
442.564	4.75
443.004	4.75
443.444	4.73
443.883	4.73
444.323	4.72
444.762	4.74
445.202	4.78
445.641	4.8
446.081	4.82
446.52	4.81
446.959	4.82
447.398	4.84
447.837	4.86
448.276	4.88
448.716	4.92
449.154	4.94
449.593	4.95
450.032	4.94
450.471	4.94
450.91	4.94
451.349	4.96
451.787	4.96
452.226	4.94
452.664	4.91
453.103	4.92
453.541	4.88
453.98	4.87
454.418	4.84
454.856	4.84
455.295	4.83
455.733	4.83
456.171	4.82
456.609	4.82
457.047	4.82
457.485	4.82
457.923	4.81
458.361	4.8
458.798	4.8
459.236	4.81
459.674	4.82
460.111	4.82
460.549	4.81
460.987	4.82
461.424	4.82
461.862	4.83
462.299	4.82
462.736	4.84
463.173	4.83
463.611	4.82
464.048	4.83
464.485	4.82
464.922	4.82
465.359	4.83
465.796	4.82
466.233	4.83
466.67	4.84
467.106	4.84
467.543	4.85
467.98	4.86
468.416	4.87
468.853	4.86
469.29	4.87
469.726	4.87
470.162	4.87
470.599	4.86
471.035	4.86
471.471	4.84
471.907	4.84
472.344	4.81
472.78	4.81
473.216	4.79
473.652	4.79
474.088	4.81
474.523	4.8
474.959	4.78
475.395	4.79
475.831	4.78
476.266	4.79
476.702	4.78
477.138	4.78
477.573	4.78
478.008	4.78
478.444	4.78
478.879	4.77
479.314	4.76
479.75	4.76
480.185	4.75
480.62	4.76
481.055	4.75
481.49	4.73
481.925	4.72
482.36	4.71
482.795	4.7
483.229	4.69
483.664	4.68
484.099	4.68
484.534	4.67
484.968	4.67
485.403	4.66
485.837	4.65
486.271	4.66
486.706	4.67
487.14	4.68
487.574	4.69
488.009	4.69
488.443	4.7
488.877	4.71
489.311	4.73
489.745	4.74
490.179	4.75
490.613	4.75
491.046	4.76
491.48	4.78
491.914	4.79
492.348	4.8
492.781	4.82
493.215	4.84
493.648	4.86
494.082	4.89
494.515	4.9
494.948	4.93
495.382	4.97
495.815	5
496.248	5.04
496.681	5.07
497.114	5.1
497.547	5.14
497.98	5.18
498.413	5.22
498.846	5.27
499.279	5.33
499.711	5.37
500.144	5.43
500.577	5.48
501.009	5.54
501.442	5.61
501.874	5.68
502.306	5.75
502.739	5.82
503.171	5.89
503.603	5.98
504.036	6.06
504.468	6.17
504.9	6.27
505.332	6.38
505.764	6.49
506.196	6.61
506.627	6.73
507.059	6.86
507.491	7
507.923	7.14
508.354	7.27
508.786	7.43
509.217	7.58
509.649	7.75
510.08	7.92
510.512	8.08
510.943	8.26
511.374	8.44
511.805	8.62
512.237	8.8
512.668	8.98
513.099	9.2
513.53	9.4
513.961	9.63
514.391	9.84
514.822	10.06
515.253	10.29
515.684	10.5
516.114	10.74
516.545	10.99
516.975	11.24
517.406	11.48
517.836	11.71
518.267	11.97
518.697	12.21
519.127	12.45
519.558	12.69
519.988	12.94
520.418	13.18
520.848	13.43
521.278	13.68
521.708	13.82
522.138	14.06
522.567	14.29
522.997	14.51
523.427	14.74
523.857	14.96
524.286	15.18
524.716	15.39
525.145	15.63
525.575	15.83
526.004	16.04
526.433	16.36
526.863	16.56
527.292	16.75
527.721	16.94
528.15	17.11
528.579	17.29
529.008	17.44
529.437	17.61
529.866	17.73
530.295	17.87
530.724	18
531.152	18.12
531.581	18.23
532.01	18.33
532.438	18.42
532.867	18.52
533.295	18.61
533.723	18.72
534.152	18.8
534.58	18.87
535.008	18.92
535.436	18.99
535.865	19.02
536.293	19.08
536.721	19.14
537.149	19.21
537.576	19.26
538.004	19.3
538.432	19.32
538.86	19.37
539.287	19.43
539.715	19.48
540.143	19.51
540.57	19.56
540.998	19.61
541.425	19.66
541.852	19.68
542.28	19.7
542.707	19.73
543.134	19.76
543.561	19.76
543.988	19.78
544.415	19.82
544.842	19.85
545.269	19.89
545.696	19.9
546.123	19.92
546.549	19.96
546.976	20.01
547.403	20.03
547.829	20.06
548.256	20.1
548.682	20.12
549.108	20.13
549.535	20.12
549.961	20.11
550.387	20.1
550.813	20.08
551.24	20.07
551.666	20.05
552.092	20.05
552.518	20.03
552.943	20.01
553.369	19.96
553.795	19.95
554.221	19.93
554.646	19.91
555.072	19.89
555.498	19.84
555.923	19.79
556.349	19.73
556.774	19.67
557.199	19.6
557.625	19.54
558.05	19.48
558.475	19.4
558.9	19.31
559.325	19.23
559.75	19.14
560.175	19.06
560.6	18.97
561.025	18.84
561.449	18.73
561.874	18.63
562.299	18.51
562.723	18.4
563.148	18.27
563.572	18.16
563.997	18.03
564.421	17.88
564.846	17.75
565.27	17.6
565.694	17.47
566.118	17.32
566.542	17.18
566.966	17.03
567.39	16.87
567.814	16.72
568.238	16.55
568.662	16.39
569.086	16.23
569.509	16.07
569.933	15.91
570.357	15.76
570.78	15.61
571.204	15.47
571.627	15.31
572.05	15.18
572.474	15.05
572.897	14.91
573.32	14.77
573.743	14.67
574.166	14.53
574.589	14.43
575.012	14.31
575.435	14.19
575.858	14.07
576.281	13.98
576.704	13.87
577.126	13.75
577.549	13.67
577.972	13.56
578.394	13.46
578.817	13.38
579.239	13.3
579.661	13.22
580.084	13.14
580.506	13.06
580.928	12.97
581.35	12.91
581.772	12.85
582.194	12.78
582.616	12.72
583.038	12.65
583.46	12.57
583.882	12.49
584.303	12.42
584.725	12.36
585.147	12.29
585.568	12.24
585.99	12.17
586.411	12.11
586.833	12.05
587.254	12.01
587.675	11.95
588.096	11.91
588.518	11.87
588.939	11.82
589.36	11.78
589.781	11.75
590.202	11.7
590.623	11.66
591.043	11.61
591.464	11.58
591.885	11.53
592.305	11.52
592.726	11.49
593.147	11.48
593.567	11.44
593.987	11.43
594.408	11.39
594.828	11.38
595.248	11.37
595.669	11.35
596.089	11.32
596.509	11.27
596.929	11.23
597.349	11.19
597.769	11.14
598.189	11.13
598.608	11.07
599.028	11.04
599.448	11.01
599.867	10.96
600.287	10.93
600.706	10.91
601.126	10.88
601.545	10.84
601.965	10.8
602.384	10.77
602.803	10.71
603.222	10.67
603.641	10.62
604.061	10.57
604.48	10.52
604.898	10.46
605.317	10.39
605.736	10.34
606.155	10.28
606.574	10.22
606.992	10.16
607.411	10.11
607.829	10.01
608.248	9.95
608.666	9.87
609.085	9.8
609.503	9.73
609.921	9.68
610.339	9.62
610.758	9.55
611.176	9.48
611.594	9.4
612.012	9.33
612.43	9.32
612.847	9.27
613.265	9.22
613.683	9.16
614.101	9.1
614.518	9.04
614.936	8.98
615.353	8.92
615.771	8.87
616.188	8.83
616.606	8.78
617.023	8.72
617.44	8.67
617.857	8.61
618.274	8.58
618.691	8.55
619.108	8.51
619.525	8.47
619.942	8.44
620.359	8.41
620.776	8.39
621.192	8.37
621.609	8.34
622.026	8.32
622.442	8.31
622.859	8.29
623.275	8.27
623.691	8.27
624.108	8.25
624.524	8.24
624.94	8.22
625.356	8.2
625.772	8.19
626.188	8.2
626.604	8.18
627.02	8.17
627.436	8.17
627.852	8.15
628.268	8.14
628.683	8.12
629.099	8.1
629.514	8.1
629.93	8.08
630.345	8.06
630.761	8.03
631.176	8.01
631.591	7.99
632.007	7.95
632.422	7.92
632.837	7.89
633.252	7.87
633.667	7.83
634.082	7.79
634.497	7.73
634.911	7.66
635.326	7.61
635.741	7.54
636.155	7.48
636.57	7.42
636.984	7.34
637.399	7.24
637.813	7.16
638.228	7.09
638.642	7.02
639.056	6.96
639.47	6.89
639.884	6.8
640.298	6.74
640.712	6.67
641.126	6.58
641.54	6.52
641.954	6.47
642.368	6.41
642.781	6.31
643.195	6.23
643.609	6.16
644.022	6.09
644.436	6.03
644.849	5.97
645.262	5.91
645.676	5.86
646.089	5.79
646.502	5.74
646.915	5.69
647.328	5.66
647.741	5.61
648.154	5.58
648.567	5.55
648.98	5.52
649.393	5.5
649.805	5.47
650.218	5.45
650.631	5.43
651.043	5.4
651.456	5.38
651.868	5.36
652.28	5.34
652.693	5.29
653.105	5.26
653.517	5.23
653.929	5.2
654.341	5.18
654.753	5.14
655.165	5.11
655.577	5.08
655.989	5.03
656.401	4.99
656.813	4.95
657.224	4.92
657.636	4.88
658.047	4.83
658.459	4.79
658.87	4.74
659.282	4.71
659.693	4.68
660.104	4.65
660.515	4.61
660.926	4.59
661.338	4.56
661.749	4.52
662.159	4.48
662.57	4.45
662.981	4.42
663.392	4.4
663.803	4.36
664.213	4.34
664.624	4.32
665.035	4.3
665.445	4.29
665.855	4.27
666.266	4.27
666.676	4.27
667.086	4.27
667.497	4.26
667.907	4.25
668.317	4.23
668.727	4.23
669.137	4.23
669.547	4.23
669.956	4.22
670.366	4.23
670.776	4.23
671.186	4.24
671.595	4.25
672.005	4.27
672.414	4.29
672.824	4.32
673.233	4.34
673.642	4.33
674.052	4.36
674.461	4.38
674.87	4.4
675.279	4.42
675.688	4.45
676.097	4.48
676.506	4.5
676.915	4.53
677.323	4.56
677.732	4.58
678.141	4.63
678.549	4.66
678.958	4.69
679.366	4.72
679.775	4.75
680.183	4.78
680.592	4.81
681	4.84
681.408	4.88
681.816	4.91
682.224	4.96
682.632	5.01
683.04	5.06
683.448	5.12
683.856	5.19
684.264	5.27
684.671	5.37
685.079	5.47
685.487	5.59
685.894	5.71
686.302	5.86
686.709	6.01
687.116	6.21
687.524	6.41
687.931	6.63
688.338	6.89
688.745	7.14
689.152	7.44
689.559	7.75
689.966	8.08
690.373	8.44
690.78	8.8
691.187	9.19
691.593	9.58
692	10.01
692.407	10.46
692.813	10.91
693.22	11.38
693.626	11.85
694.032	12.37
694.439	12.89
694.845	13.41
695.251	13.95
695.657	14.49
696.063	15.04
696.469	15.61
696.875	16.15
697.281	16.69
697.687	17.26
698.093	17.83
698.498	18.4
698.904	18.96
699.31	19.51
699.715	20.07
700.12	20.63
700.526	21.18
700.931	21.7
701.337	22.25
701.742	22.78
702.147	23.31
702.552	23.83
702.957	24.33
703.362	24.83
703.767	25.34
704.172	25.84
704.577	26.31
704.981	26.79
705.386	27.29
705.791	27.78
706.195	28.27
706.6	28.74
707.004	29.21
707.408	29.68
707.813	30.15
708.217	30.6
708.621	31.06
709.025	31.52
709.43	31.97
709.834	32.41
710.237	32.84
710.641	33.28
711.045	33.69
711.449	34.13
711.853	34.53
712.256	34.96
712.66	35.39
713.064	35.8
713.467	36.17
713.87	36.56
714.274	36.97
714.677	37.36
715.08	37.71
715.484	38.11
715.887	38.48
716.29	38.87
716.693	39.18
717.096	39.53
717.499	39.88
717.901	40.23
718.304	40.57
718.707	40.89
719.109	41.22
719.512	41.58
719.915	41.88
720.317	42.18
720.719	42.46
721.122	42.79
721.524	43.09
721.926	43.38
722.328	43.69
722.731	43.95
723.133	44.2
723.535	44.47
723.937	44.71
724.338	44.96
724.74	45.19
725.142	45.42
725.544	45.62
725.945	45.85
726.347	46.05
726.748	46.22
727.15	46.43
727.551	46.61
727.952	46.76
728.354	46.95
728.755	47.15
729.156	47.31
729.557	47.48
729.958	47.65
730.359	47.77
730.76	47.9
731.161	48.03
731.562	48.17
731.962	48.32
732.363	48.48
732.763	48.6
733.164	48.71
733.564	48.83
733.965	48.93
734.365	49.02
734.766	49.12
735.166	49.23
735.566	49.3
735.966	49.42
736.366	49.47
736.766	49.57
737.166	49.65
737.566	49.73
737.966	49.82
738.365	49.92
738.765	50.02
739.165	50.09
739.564	50.16
739.964	50.27
740.363	50.31
740.763	50.39
741.162	50.42
741.561	50.5
741.96	50.54
742.36	50.6
742.759	50.62
743.158	50.63
743.557	50.69
743.955	50.77
744.354	50.82
744.753	50.87
745.152	50.9
745.55	50.98
745.949	51.01
746.348	51.03
746.746	51.06
747.144	51.13
747.543	51.19
747.941	51.25
748.339	51.27
748.737	51.29
749.136	51.31
749.534	51.37
749.932	51.38
750.33	51.41
750.727	51.45
751.125	51.5
751.523	51.51
751.921	51.53
752.318	51.54
752.716	51.54
753.113	51.54
753.511	51.53
753.908	51.5
754.305	51.49
754.703	51.45
755.1	51.47
755.497	51.46
755.894	51.44
756.291	51.38
756.688	51.33
757.085	51.34
757.482	51.33
757.878	51.37
758.275	51.38
758.672	51.41
759.068	51.43
759.465	51.39
759.861	51.35
760.258	51.34
760.654	51.36
761.05	51.37
761.447	51.34
761.843	51.34
762.239	51.28
762.635	51.3
763.031	51.27
763.427	51.27
763.822	51.25
764.218	51.24
764.614	51.25
765.01	51.26
765.405	51.3
765.801	51.32
766.196	51.31
766.592	51.33
766.987	51.32
767.382	51.3
767.778	51.3
768.173	51.31
768.568	51.31
768.963	51.32
769.358	51.32
769.753	51.29
770.148	51.31
770.542	51.3
770.937	51.29
771.332	51.28
771.726	51.28
772.121	51.31
772.515	51.34
772.91	51.35
773.304	51.33
773.699	51.35
774.093	51.33
774.487	51.29
774.881	51.32
775.275	51.34
775.669	51.34
776.063	51.31
776.457	51.25
776.851	51.2
777.245	51.21
777.638	51.2
778.032	51.19
778.425	51.2
778.819	51.19
779.212	51.18
779.606	51.2
779.999	51.19
780.392	51.22
780.786	51.25
781.179	51.27
781.572	51.27
781.965	51.3
782.358	51.28
782.751	51.29
783.143	51.34
783.536	51.31
783.929	51.31
784.322	51.35
784.714	51.33
785.107	51.35
785.499	51.34
785.891	51.33
786.284	51.28
786.676	51.33
787.068	51.29
787.46	51.26
787.852	51.27
788.245	51.26
788.636	51.21
789.028	51.24
789.42	51.22
789.812	51.22
790.204	51.17
790.595	51.17
790.987	51.14
791.378	51.16
791.77	51.17
792.161	51.18
792.553	51.16
792.944	51.21
793.335	51.19
793.726	51.15
794.117	51.18
794.508	51.17
794.899	51.2
795.29	51.21
795.681	51.19
796.072	51.18
796.463	51.19
796.853	51.18
797.244	51.15
797.634	51.1
798.025	51.15
798.415	51.15
798.806	51.21
799.196	51.27
799.586	51.29
799.976	51.32
800.366	51.31
800.756	51.3
801.146	51.33
801.536	51.35
801.926	51.38
802.316	51.4
802.706	51.41
803.095	51.44
803.485	51.42
803.874	51.43
804.264	51.47
804.653	51.46
805.043	51.47
805.432	51.45
805.821	51.45
806.21	51.49
806.599	51.53
806.988	51.52
807.377	51.5
807.766	51.48
808.155	51.48
808.544	51.44
808.933	51.46
809.321	51.51
809.71	51.55
810.098	51.54
810.487	51.54
810.875	51.48
811.264	51.49
811.652	51.53
812.04	51.52
812.428	51.54
812.816	51.57
813.204	51.55
813.592	51.51
813.98	51.49
814.368	51.49
814.756	51.5
815.144	51.55
815.531	51.53
815.919	51.47
816.306	51.47
816.694	51.46
817.081	51.44
817.469	51.47
817.856	51.53
818.243	51.53
818.63	51.6
819.017	51.62
819.404	51.59
819.791	51.61
820.178	51.66
820.565	51.69
820.952	51.68
821.339	51.71
821.725	51.72
822.112	51.7
822.498	51.68
822.885	51.64
823.271	51.65
823.657	51.65
824.044	51.66
824.43	51.66
824.816	51.65
825.202	51.65
825.588	51.67
825.974	51.65
826.36	51.64
826.746	51.69
827.132	51.69
827.517	51.66
827.903	51.67
828.289	51.68
828.674	51.69
829.06	51.7
829.445	51.76
829.83	51.74
830.216	51.76
830.601	51.76
830.986	51.75
831.371	51.79
831.756	51.79
832.141	51.8
832.526	51.81
832.911	51.84
833.295	51.85
833.68	51.83
834.065	51.86
834.449	51.87
834.834	51.88
835.218	51.86
835.603	51.83
835.987	51.83
836.371	51.84
836.755	51.84
837.139	51.8
837.524	51.81
837.908	51.77
838.291	51.75
838.675	51.76
839.059	51.75
839.443	51.77
839.827	51.78
840.21	51.82
840.594	51.83
840.977	51.84
841.361	51.84
841.744	51.88
842.127	51.93
842.511	51.9
842.894	51.88
843.277	51.91
843.66	51.92
844.043	51.95
844.426	51.9
844.809	51.88
845.191	51.85
845.574	51.85
845.957	51.8
846.339	51.77
846.722	51.81
847.104	51.8
847.487	51.81
847.869	51.8
848.252	51.78
848.634	51.8
849.016	51.82
849.398	51.83
849.78	51.83
850.162	51.83
850.544	51.84
850.926	51.8
851.307	51.8
851.689	51.77
852.071	51.75
852.452	51.73
852.834	51.71
853.215	51.7
853.597	51.7
853.978	51.66
854.359	51.65
854.741	51.66
855.122	51.68
855.503	51.69
855.884	51.67
856.265	51.67
856.646	51.67
857.026	51.65
857.407	51.62
857.788	51.63
858.169	51.66
858.549	51.68
858.93	51.67
859.31	51.66
859.69	51.63
860.071	51.64
860.451	51.63
860.831	51.62
861.211	51.62
861.591	51.63
861.971	51.61
862.351	51.6
862.731	51.56
863.111	51.59
863.491	51.61
863.87	51.59
864.25	51.61
864.629	51.63
865.009	51.62
865.388	51.64
865.768	51.64
866.147	51.64
866.526	51.66
866.905	51.66
867.284	51.63
867.663	51.59
868.042	51.62
868.421	51.61
868.8	51.58
869.179	51.56
869.558	51.53
869.936	51.51
870.315	51.51
870.693	51.47
871.072	51.46
871.45	51.47
871.828	51.46
872.207	51.48
872.585	51.49
872.963	51.48
873.341	51.53
873.719	51.53
874.097	51.55
874.475	51.55
874.853	51.56
875.23	51.56
875.608	51.57
875.986	51.6
876.363	51.56
876.741	51.54
877.118	51.55
877.495	51.51
877.873	51.53
878.25	51.5
878.627	51.49
879.004	51.53
879.381	51.53
879.758	51.5
880.135	51.5
880.512	51.54
880.889	51.55
881.265	51.57
881.642	51.57
882.019	51.59
882.395	51.63
882.772	51.62
883.148	51.61
883.524	51.63
883.901	51.65
884.277	51.65
884.653	51.64
885.029	51.66
885.405	51.67
885.781	51.7
886.157	51.68
886.532	51.67
886.908	51.68
887.284	51.69
887.659	51.68
888.035	51.68
888.411	51.66
888.786	51.64
889.161	51.63
889.537	51.62
889.912	51.61
890.287	51.6
890.662	51.59
891.037	51.56
891.412	51.54
891.787	51.52
892.162	51.51
892.536	51.51
892.911	51.51
893.286	51.48
893.66	51.45
894.035	51.43
894.409	51.43
894.784	51.44
895.158	51.43
895.532	51.41
895.906	51.39
896.281	51.38
896.655	51.36
897.029	51.32
897.402	51.3
897.776	51.29
898.15	51.29
898.524	51.27
898.898	51.22
899.271	51.21
899.645	51.2
900.018	51.18
900.392	51.17
900.765	51.17
901.138	51.19
901.511	51.19
901.884	51.19
902.258	51.18
902.631	51.15
903.003	51.16
903.376	51.14
903.749	51.15
904.122	51.15
904.495	51.16
904.867	51.13
905.24	51.1
905.612	51.09
905.985	51.08
906.357	51.07
906.729	51.06
907.102	51.05
907.474	51.06
907.846	51.04
908.218	51.03
908.59	51
908.962	50.97
909.334	50.96
909.705	50.94
910.077	50.91
910.449	50.89
910.82	50.92
911.192	50.92
911.563	50.89
911.935	50.85
912.306	50.84
912.677	50.85
913.048	50.84
913.419	50.84
913.79	50.81
914.161	50.82
914.532	50.82
914.903	50.78
915.274	50.79
915.645	50.8
916.015	50.83
916.386	50.82
916.756	50.78
917.127	50.77
917.497	50.75
917.868	50.8
918.238	50.82
918.608	50.84
918.978	50.87
919.348	50.81
919.718	50.82
920.088	50.79
920.458	50.79
920.828	50.79
921.198	50.86
921.567	50.88
921.937	50.85
922.306	50.84
922.676	50.81
923.045	50.78
923.415	50.83
923.784	50.8
924.153	50.82
924.522	50.86
924.891	50.88
925.26	50.78
925.629	50.77
925.998	50.78
926.367	50.76
926.736	50.75
927.104	50.77
927.473	50.77
927.842	50.76
928.21	50.74
928.578	50.7
928.947	50.66
929.315	50.73
929.683	50.75
930.051	50.71
930.42	50.68
930.788	50.69
931.156	50.63
931.523	50.61
931.891	50.6
932.259	50.53
932.627	50.47
932.994	50.44
933.362	50.37
933.729	50.29
934.097	50.28
934.464	50.23
934.831	50.15
935.199	50.13
935.566	50.07
935.933	50.03
936.3	49.98
936.667	49.93
937.034	49.91
937.401	49.88
937.767	49.84
938.134	49.75
938.501	49.69
938.867	49.73
939.234	49.7
939.6	49.63
939.967	49.58
940.333	49.67
940.699	49.69
941.065	49.67
941.431	49.69
941.798	49.78
942.163	49.85
942.529	49.88
942.895	49.85
943.261	49.87
943.627	49.93
943.992	49.97
944.358	49.97
944.723	50.03
945.089	50.01
945.454	50.07
945.82	50.02
946.185	50.05
946.55	50.11
946.915	50.1
947.28	50.02
947.645	50.02
948.01	50.08
948.375	50.02
948.74	49.96
949.104	49.99
949.469	49.91
949.834	49.92
950.198	49.87
950.562	49.82
950.927	49.83
951.291	49.84
951.655	49.81
952.02	49.77
952.384	49.84
952.748	49.9
953.112	49.91
953.476	49.92
953.839	49.85
954.203	49.76
954.567	49.71
954.931	49.68
955.294	49.69
955.658	49.63
956.021	49.6
956.385	49.54
956.748	49.52
957.111	49.47
957.474	49.43
957.837	49.47
958.2	49.46
958.563	49.43
958.926	49.34
959.289	49.32
959.652	49.37
960.015	49.34
960.377	49.32
960.74	49.24
961.102	49.21
961.465	49.24
961.827	49.16
962.189	49.16
962.552	49.08
962.914	49.1
963.276	49.04
963.638	49
964	48.96
964.362	49.01
964.724	49.05
965.085	49.07
965.447	48.93
965.809	48.94
966.17	49.04
966.532	49.15
966.893	49.15
967.255	49.13
967.616	49.06
967.977	49.05
968.338	48.94
968.699	48.86
969.061	48.79
969.421	48.8
969.782	48.77
970.143	48.7
970.504	48.67
970.865	48.65
971.225	48.72
971.586	48.8
971.946	48.85
972.307	48.82
972.667	48.9
973.027	49.03
973.388	49.06
973.748	49.03
974.108	48.95
974.468	48.96
974.828	49.04
975.188	48.95
975.548	48.94
975.907	48.92
976.267	48.98
976.627	48.93
976.986	48.79
977.346	48.82
977.705	48.85
978.064	48.91
978.424	48.92
978.783	48.85
979.142	48.87
979.501	48.77
979.86	48.78
980.219	48.75
980.578	48.66
980.937	48.71
981.296	48.75
981.654	48.82
982.013	48.79
982.371	48.71
982.73	48.7
983.088	48.7
983.447	48.78
983.805	48.69
984.163	48.66
984.521	48.63
984.879	48.6
985.237	48.59
985.595	48.53
985.953	48.49
986.311	48.57
986.669	48.51
987.026	48.5
987.384	48.47
987.741	48.5
988.099	48.59
988.456	48.71
988.814	48.73
989.171	48.69
989.528	48.64
989.885	48.68
990.242	48.54
990.599	48.58
990.956	48.54
991.313	48.46
991.67	48.49
992.027	48.4
992.383	48.47
992.74	48.33
993.096	48.19
993.453	48.14
993.809	48.12
994.165	48.14
994.522	48.08
994.878	48.02
995.234	48.09
995.59	47.92
995.946	47.92
996.302	47.7
996.658	47.74
997.013	47.87
997.369	47.97
997.725	48.01
998.08	47.96
998.436	47.98
998.791	48.07
999.147	48.1
999.502	48.26
999.857	48.26
1000.212	48.33
1000.567	48.26
1000.922	48.3
1001.277	48.17
1001.632	48.09
1001.987	48.14
1002.342	48.17
1002.696	48.16
1003.051	48.04
1003.406	47.82
1003.76	47.71
1004.114	47.71
1004.469	47.75
1004.823	47.57
1005.177	47.63
1005.531	47.43
1005.885	47.43
1006.239	47.26
1006.593	47.08
1006.947	46.98
1007.301	47.14
1007.655	47.31
1008.008	47.1
1008.362	47.09
1008.715	47.1
1009.069	46.89
1009.422	47.04
1009.776	46.85
1010.129	46.94
1010.482	47.09
1010.835	47.07
1011.188	46.82
1011.541	46.41
1011.894	46.46
1012.247	46.49
1012.6	46.31
1012.952	46.29
1013.305	46.09
1013.657	46.16
1014.01	46.13
1014.362	46.04
1014.715	45.98
1015.067	46.11
1015.419	46.39
1015.771	46.54
1016.123	46.36
1016.475	46.57
1016.827	46.75
1017.179	46.83
1017.531	46.67
1017.883	46.54
1018.234	46.33
1018.586	46.31
1018.938	46.1
1019.289	45.99
1019.64	45.88
1019.992	45.78
1020.343	45.39
1020.694	45.19
1021.045	45.11
1021.396	44.93
1021.747	44.89
1022.098	45.16
1022.449	45.11
1022.8	44.87
1023.151	44.8
1023.501	44.69
1023.852	44.94
1024.202	45.19
1024.553	45.12
1024.903	45.39
1025.253	45.39
1025.604	45.38
1025.954	44.9
1026.304	45.06
1026.654	45.21
1027.004	45.57
1027.354	45.48
1027.703	45.12
1028.053	44.61
1028.403	44.41
1028.753	44.37
1029.102	44.27
1029.452	43.96
1029.801	43.86
1030.15	43.59
1030.499	43.61
897.758	720.62
901.051	721.32
904.343	735.52
907.636	725.33
910.928	711.25
914.22	726.18
917.511	712.15
920.803	684.83
924.094	656.5
927.384	661.06
930.675	639.72
933.965	633.85
937.255	639.87
940.544	608.35
943.834	576.51
947.123	568.89
950.411	538.74
953.7	529.82
956.988	510.84
960.276	487.81
963.563	483.7
966.851	456.4
970.138	447.87
973.424	415.57
976.711	409.6
979.997	397.79
983.283	390.2
986.568	375.89
989.853	363.75
993.138	353.05
996.423	347.7
999.708	335.19
1002.992	337.3
1006.275	327.03
1009.559	325.22
1012.842	315.22
1016.125	306.01
1019.408	300.33
1022.69	296.32
1025.972	295.86
1029.254	286.43
1032.536	281.27
1035.817	272.25
1039.098	268.55
1042.379	261.49
1045.659	257.27
1048.939	255.92
1052.219	252.26
1055.498	245.57
1058.778	242.63
1062.057	236.32
1065.335	235.65
1068.614	232.28
1071.892	228.7
1075.17	223.76
1078.447	221.98
1081.724	220.28
1085.001	214.94
1088.278	213.6
1091.554	213
1094.83	211.37
1098.106	208.87
1101.382	207.54
1104.657	206.67
1107.932	206.18
1111.206	204.52
1114.481	201.36
1117.755	200.26
1121.029	200.58
1124.302	197
1127.575	193.87
1130.848	193.15
1134.121	189.76
1137.393	189.48
1140.665	187.65
1143.937	185.5
1147.208	183.85
1150.48	182.64
1153.75	181.03
1157.021	178.88
1160.291	178.68
1163.561	178.56
1166.831	176.75
1170.101	177.09
1173.37	175
1176.639	173.32
1179.907	173.98
1183.176	173.39
1186.444	173.94
1189.711	172.45
1192.979	173.9
1196.246	173.77
1199.513	172.52
1202.78	173.65
1206.046	173.38
1209.312	175
1212.578	175.62
1215.843	178.2
1219.108	178.59
1222.373	181.88
1225.638	184.99
1228.902	189.06
1232.166	195.32
1235.43	198.45
1238.693	204.35
1241.956	208.93
1245.219	214.07
1248.482	216.82
1251.744	215.58
1255.006	217.04
1258.268	210.88
1261.529	209.17
1264.79	203.29
1268.051	198.87
1271.312	198
1274.572	192.32
1277.832	187.94
1281.092	185.16
1284.351	181.02
1287.61	180.4
1290.869	178.92
1294.128	178.37
1297.386	177.61
1300.644	177.43
1303.902	176.28
1307.159	175.61
1310.416	176.83
1313.673	179.67
1316.93	180.45
1320.186	183.67
1323.442	186.58
1326.697	190.94
1329.953	192.35
1333.208	199.33
1336.463	206.57
1339.717	211.05
1342.972	220.4
1346.226	227.32
1349.479	228.92
1352.733	240.14
1355.986	244.18
1359.238	248.67
1362.491	251.97
1365.743	261.9
1368.995	262.51
1372.247	261.07
1375.498	260.89
1378.749	270.51
1382	268.56
1385.251	267.81
1388.501	266.39
1391.751	270.81
1395	268.92
1398.25	270.75
1401.499	268.57
1404.748	268.63
1407.996	264.75
1411.244	263.97
1414.492	258.16
1417.74	251.94
1420.987	246.43
1424.234	242.77
1427.481	233.59
1430.728	228.24
1433.974	219.61
1437.22	213.31
1440.465	205.73
1443.711	199.74
1446.956	194.55
1450.201	187.56
1453.445	178.79
1456.689	173.82
1459.933	167.96
1463.177	161.27
1466.42	157.31
1469.663	152.66
1472.906	148.36
1476.148	144.95
1479.391	140.94
1482.633	138.75
1485.874	135.41
1489.115	134.37
1492.356	131.64
1495.597	129.68
1498.838	128.78
1502.078	127.52
1505.318	127.06
1508.557	126.1
1511.797	123.98
1515.036	124.45
1518.274	122.86
1521.513	121.44
1524.751	120.93
1527.989	121.46
1531.227	120.82
1534.464	120.36
1537.701	119.49
1540.938	118.97
1544.174	119.04
1547.41	118.99
1550.646	118.28
1553.882	118.41
1557.117	118.26
1560.352	117.98
1563.587	117.17
1566.821	116.91
1570.055	116.08
1573.289	115.99
1576.523	116.34
1579.756	115.37
1582.989	115.9
1586.222	114.97
1589.454	114.81
1592.686	114.72
1595.918	114.4
1599.15	114.32
1602.381	114.22
1605.612	114.45
1608.843	114.45
1612.073	114.71
1615.303	115.15
1618.533	114.31
1621.762	115.19
1624.992	115.12
1628.221	114.79
1631.449	115.53
1634.678	114.94
1637.906	115.32
1641.134	115.43
1644.361	115.41
1647.588	114.96
1650.815	114.91
1654.042	115.99
1657.269	115.35
1660.495	116.1
1663.72	115.94
1666.946	115.95
1670.171	117.07
1673.396	117.78
1676.621	117.73
1679.845	118.33
1683.069	118.26
1686.293	118.24
1689.517	118.1
1692.74	118.89
1695.963	118.75
1699.185	120.18
1702.408	119.88
1705.63	119.98
1708.852	120.29
1712.073	120.36
1715.294	119.95
1718.515	120.51
1721.736	120.72
1724.956	120.84
1728.176	120.52
1731.396	121.42
1734.616	121.17
1737.835	121.76
1741.054	121
1744.272	120.93
1747.491	121.19
1750.709	122.09
1753.927	122.45
1757.144	122.97
1760.361	123.54
1763.578	124.06
1766.795	124.21
1770.011	124.6
1773.227	124.89
1776.443	126.52
1779.658	126.84
1782.874	128.08
1786.089	128.32
1789.303	128.5
1792.518	129.38
1795.732	130.15
1798.945	131.6
1802.159	131.69
1805.372	133.35
1808.585	134.24
1811.797	135.67
1815.01	136.74
1818.222	137.4
1821.434	138.06
1824.645	139.45
1827.856	141.15
1831.067	141.88
1834.278	142.96
1837.488	144.62
1840.698	145.64
1843.908	146.18
1847.117	147
1850.326	147.88
1853.535	148.65
1856.744	150.77
1859.952	152.6
1863.16	152.86
1866.368	152.38
1869.575	153.59
1872.782	152.51
1875.989	152
1879.196	151.29
1882.402	150.48
1885.608	151.54
1888.814	151.06
1892.019	151.9
1895.224	149.35
1898.429	151.03
1901.634	152.38
1904.838	152.23
1908.042	153.91
1911.246	153.58
1914.449	155.35
1917.652	154.81
1920.855	154.5
1924.058	154.12
1927.26	153.85
1930.462	154.28
1933.664	153.6
1936.865	153.31
1940.066	152.72
1943.267	151.58
1946.467	153.46
1949.668	153.13
1952.868	154.55
1956.067	154.4
1959.267	154.15
1962.466	154.79
1965.665	156.27
1968.863	157.88
1972.061	158.38
1975.259	160.67
1978.457	161.95
1981.654	162.47
1984.852	163.58
1988.048	164.27
1991.245	167.5
1994.441	172.71
1997.637	174.97
2000.833	179.06
2004.028	178.84
2007.223	185.59
2010.418	189.11
2013.613	197.42
2016.807	202.33
2020.001	207.42
2023.194	212.41
2026.388	219.75
2029.581	227.68
2032.774	236.83
2035.966	244.08
2039.158	252.2
2042.35	255.27
2045.542	261.21
2048.733	271.49
2051.924	274.55
2055.115	277.85
2058.306	281.96
2061.496	287.59
2064.686	289.95
2067.875	284.5
2071.065	286.01
2074.254	287.82
2077.442	297.3
2080.631	298.13
2083.819	298.59
2087.007	305.89
2090.195	309.92
2093.382	311.11
2096.569	309.87
2099.756	314.71
2102.942	325.15
2106.128	332.33
2109.314	333.43
2112.5	332.46
2115.685	333.4
2118.87	332.74
2122.055	332.4
2125.239	341.67
2128.424	350.28
2131.608	345.95
2134.791	349.58
2137.974	346.28
2141.157	348.6
2144.34	352.27
2147.523	357.52
2150.705	364.78
2153.887	362.36
2157.068	367.41
2160.25	369.59
2163.431	366.41
2166.611	374.89
2169.792	379.04
2172.972	388.98
2176.152	387
2179.331	396.31
2182.511	395.02
2185.69	401.82
2188.868	418.52
2192.047	426.68
2195.225	432.95
2198.403	439.41
2201.58	437.52
2204.758	451.17
2207.935	452.47
2211.111	466.79
2214.288	468.17
2217.464	473.8
2220.64	474.84
2223.815	477.76
2226.991	469.55
2230.166	473.99
2233.34	488.51
2236.515	498.14
2239.689	492.23
2242.863	499.3
2246.036	492.8
2249.209	507.21
2252.382	506.76
2255.555	525.75
2258.727	526.96
2261.9	548.66
2265.071	553.86
2268.243	549.7
2271.414	567.28
2274.585	577.71
2277.756	581.43
2280.926	602.86
2284.096	599.5
2287.266	604.21
2290.436	590.34
2293.605	602.14
2296.774	622.98
2299.942	623.52
2303.111	641.55
2306.279	654.45
2309.447	655.34
2312.614	656.17
2315.781	673.61
2318.948	681.73
2322.115	695.83
2325.281	732.88
2328.447	730.43
2331.613	726.41
2334.779	740.08
2337.944	750.66
2341.109	764.61
2344.274	772.87
2347.438	799.37
2350.602	812.32
2353.766	861.25
2356.929	865.13
2360.092	875.26
2363.255	877.98
2366.418	894.31
2369.58	911.15
2372.742	916.08
2375.904	909
2379.066	937.66
2382.227	988.01
2385.388	982.43
2388.548	933.41
2391.709	925.86
2394.869	956.89
2398.029	956.34
2401.188	952.95
2404.347	989.98
2407.506	1019.49
2410.665	979.1
2413.823	982.4
2416.981	979.2
2420.139	931.73
2423.296	1008.09
2426.453	1071.43
2429.61	1020.9
2432.767	1095.37
2435.923	1136.84
2439.079	1081.93
2442.235	1107.24
2445.391	1137.69
2448.546	1128.82
2451.701	1192.26
2454.855	1272.4
2458.009	1121.24
2461.163	1146.79
2464.317	1153.68
2467.471	1131.03
2470.624	1167.75
2473.777	1149.78
2476.929	1107.27
2480.082	1181.51
2483.234	1238.79
2486.385	1258.58
2489.537	1290.78
2492.688	1430.77
2495.839	1392.87
2498.989	1442.15
2502.14	1444.47
2505.29	1374.08
2508.439	1543.94
2511.589	1592.21
2514.738	1546.73
2517.887	1533.4
2521.035	1427.69
2524.183	1409.49
2527.331	1389.78
2530.479	1362.18
2533.627	1391.4
