Data from N_2_hir_il_4n_053_Splice17_06.txt Node
Date: Sat Feb 29 13:57:56 EST 2020
User: sa697716
Spectrometer: FLMS03696
Trigger mode: 0
Integration Time (sec): 3.180400E-1
Scans to average: 20
Electric dark correction enabled: true
Nonlinearity correction enabled: true
Boxcar width: 5
XAxis mode: Wavelengths
Number of Pixels in Spectrum: 2048
>>>>>Begin Spectral Data<<<<<
187.83	111.25
188.298	127.08
188.766	112.47
189.233	106.28
189.701	110.09
190.169	113.05
190.636	97.26
191.104	57.64
191.571	-206.01
192.039	-9.34
192.506	140.39
192.974	6544.41
193.441	-394.3
193.908	82.2
194.375	99.94
194.842	191.53
195.31	163.37
195.777	149.95
196.244	43.68
196.711	23.24
197.177	20.51
197.644	19.38
198.111	18.35
198.578	19.1
199.045	20.05
199.511	19.97
199.978	19.62
200.445	19.49
200.911	19.52
201.378	19.37
201.844	19.7
202.31	20.09
202.777	20.81
203.243	21.66
203.709	22.23
204.176	21.88
204.642	22.11
205.108	22.4
205.574	22.73
206.04	22.74
206.506	22.84
206.972	23.02
207.438	22.66
207.903	22.52
208.369	21.94
208.835	21.77
209.301	21.74
209.766	21.5
210.232	21.36
210.697	20.89
211.163	20.75
211.628	20.68
212.094	20.31
212.559	20.31
213.024	20.03
213.49	20
213.955	19.71
214.42	19.41
214.885	19.19
215.35	18.91
215.815	18.52
216.28	18.02
216.745	17.41
217.21	16.8
217.675	16.18
218.14	15.6
218.604	14.98
219.069	14.6
219.534	14.28
219.998	13.83
220.463	13.51
220.927	13.27
221.392	12.98
221.856	12.78
222.32	12.59
222.785	12.45
223.249	12.29
223.713	12.15
224.177	11.95
224.642	11.79
225.106	11.69
225.57	11.57
226.034	11.44
226.497	11.33
226.961	11.19
227.425	11.03
227.889	10.89
228.353	10.73
228.816	10.6
229.28	10.46
229.744	10.35
230.207	10.23
230.671	10.11
231.134	9.98
231.597	9.87
232.061	9.78
232.524	9.69
232.987	9.59
233.45	9.5
233.914	9.42
234.377	9.35
234.84	9.26
235.303	9.16
235.766	9.06
236.229	8.98
236.691	8.9
237.154	8.81
237.617	8.73
238.08	8.65
238.542	8.58
239.005	8.5
239.468	8.4
239.93	8.33
240.393	8.27
240.855	8.2
241.317	8.14
241.78	8.09
242.242	8.02
242.704	7.94
243.166	7.89
243.629	7.84
244.091	7.76
244.553	7.71
245.015	7.65
245.477	7.59
245.939	7.54
246.4	7.47
246.862	7.41
247.324	7.37
247.786	7.33
248.247	7.28
248.709	7.23
249.17	7.19
249.632	7.14
250.093	7.09
250.555	7.04
251.016	7
251.477	6.96
251.939	6.91
252.4	6.86
252.861	6.82
253.322	6.78
253.783	6.76
254.244	6.72
254.705	6.68
255.166	6.66
255.627	6.63
256.088	6.59
256.549	6.55
257.009	6.52
257.47	6.5
257.931	6.46
258.391	6.4
258.852	6.36
259.312	6.32
259.773	6.27
260.233	6.23
260.694	6.2
261.154	6.16
261.614	6.12
262.074	6.09
262.534	6.05
262.994	6.04
263.455	6.02
263.915	5.99
264.374	5.97
264.834	5.95
265.294	5.92
265.754	5.89
266.214	5.87
266.673	5.85
267.133	5.83
267.593	5.81
268.052	5.77
268.512	5.75
268.971	5.73
269.431	5.71
269.89	5.69
270.349	5.68
270.809	5.67
271.268	5.65
271.727	5.62
272.186	5.61
272.645	5.58
273.104	5.57
273.563	5.55
274.022	5.54
274.481	5.52
274.94	5.5
275.399	5.48
275.857	5.47
276.316	5.44
276.775	5.42
277.233	5.4
277.692	5.39
278.15	5.36
278.609	5.35
279.067	5.32
279.525	5.3
279.984	5.28
280.442	5.26
280.9	5.24
281.358	5.22
281.816	5.2
282.274	5.19
282.732	5.17
283.19	5.16
283.648	5.14
284.106	5.13
284.564	5.13
285.021	5.11
285.479	5.1
285.937	5.08
286.394	5.07
286.852	5.06
287.309	5.05
287.767	5.04
288.224	5.02
288.682	5.01
289.139	4.99
289.596	4.98
290.053	4.96
290.511	4.93
290.968	4.91
291.425	4.9
291.882	4.88
292.339	4.86
292.796	4.84
293.252	4.82
293.709	4.79
294.166	4.77
294.623	4.76
295.079	4.76
295.536	4.74
295.992	4.72
296.449	4.71
296.905	4.69
297.362	4.68
297.818	4.66
298.274	4.66
298.731	4.65
299.187	4.65
299.643	4.63
300.099	4.63
300.555	4.61
301.011	4.61
301.467	4.59
301.923	4.59
302.379	4.59
302.835	4.58
303.291	4.56
303.746	4.55
304.202	4.53
304.658	4.51
305.113	4.5
305.569	4.49
306.024	4.47
306.479	4.46
306.935	4.45
307.39	4.44
307.845	4.43
308.301	4.43
308.756	4.42
309.211	4.42
309.666	4.42
310.121	4.41
310.576	4.41
311.031	4.4
311.486	4.4
311.94	4.39
312.395	4.39
312.85	4.39
313.305	4.39
313.759	4.38
314.214	4.38
314.668	4.37
315.123	4.37
315.577	4.36
316.032	4.35
316.486	4.34
316.94	4.33
317.394	4.32
317.849	4.31
318.303	4.29
318.757	4.28
319.211	4.26
319.665	4.24
320.119	4.23
320.572	4.21
321.026	4.2
321.48	4.19
321.934	4.19
322.387	4.18
322.841	4.16
323.295	4.16
323.748	4.15
324.202	4.15
324.655	4.14
325.108	4.13
325.562	4.12
326.015	4.11
326.468	4.1
326.921	4.08
327.374	4.08
327.827	4.07
328.28	4.07
328.733	4.07
329.186	4.06
329.639	4.05
330.092	4.05
330.545	4.05
330.997	4.06
331.45	4.05
331.903	4.05
332.355	4.04
332.808	4.03
333.26	4.02
333.713	4.01
334.165	4
334.617	3.99
335.069	3.98
335.522	3.98
335.974	3.99
336.426	3.98
336.878	3.99
337.33	3.99
337.782	3.99
338.234	3.99
338.686	3.99
339.137	3.99
339.589	3.99
340.041	3.99
340.493	3.97
340.944	3.95
341.396	3.95
341.847	3.93
342.299	3.9
342.75	3.88
343.201	3.87
343.653	3.86
344.104	3.84
344.555	3.84
345.006	3.82
345.457	3.81
345.908	3.8
346.359	3.8
346.81	3.81
347.261	3.81
347.712	3.79
348.163	3.79
348.613	3.78
349.064	3.76
349.515	3.75
349.965	3.76
350.416	3.75
350.866	3.74
351.317	3.72
351.767	3.71
352.217	3.7
352.668	3.71
353.118	3.71
353.568	3.71
354.018	3.72
354.468	3.71
354.918	3.7
355.368	3.7
355.818	3.69
356.268	3.7
356.718	3.7
357.168	3.69
357.617	3.68
358.067	3.66
358.517	3.65
358.966	3.63
359.416	3.64
359.865	3.64
360.315	3.63
360.764	3.63
361.213	3.61
361.663	3.6
362.112	3.61
362.561	3.6
363.01	3.6
363.459	3.6
363.908	3.6
364.357	3.59
364.806	3.58
365.255	3.59
365.703	3.58
366.152	3.57
366.601	3.57
367.05	3.56
367.498	3.56
367.947	3.56
368.395	3.56
368.844	3.54
369.292	3.54
369.74	3.55
370.189	3.53
370.637	3.53
371.085	3.54
371.533	3.53
371.981	3.53
372.429	3.51
372.877	3.52
373.325	3.5
373.773	3.51
374.221	3.5
374.669	3.49
375.116	3.49
375.564	3.48
376.012	3.48
376.459	3.47
376.907	3.47
377.354	3.47
377.801	3.46
378.249	3.47
378.696	3.47
379.143	3.48
379.591	3.49
380.038	3.49
380.485	3.5
380.932	3.5
381.379	3.5
381.826	3.52
382.273	3.53
382.72	3.54
383.166	3.54
383.613	3.54
384.06	3.54
384.506	3.53
384.953	3.53
385.4	3.53
385.846	3.53
386.292	3.54
386.739	3.53
387.185	3.54
387.631	3.54
388.078	3.54
388.524	3.54
388.97	3.54
389.416	3.55
389.862	3.56
390.308	3.57
390.754	3.59
391.2	3.6
391.645	3.62
392.091	3.63
392.537	3.63
392.983	3.66
393.428	3.69
393.874	3.71
394.319	3.72
394.765	3.75
395.21	3.75
395.655	3.76
396.101	3.77
396.546	3.78
396.991	3.8
397.436	3.81
397.881	3.82
398.326	3.84
398.771	3.85
399.216	3.87
399.661	3.88
400.106	3.91
400.551	3.92
400.995	3.93
401.44	3.94
401.885	3.96
402.329	3.98
402.774	4
403.218	4.01
403.663	4.02
404.107	4.04
404.551	4.06
404.995	4.08
405.44	4.1
405.884	4.12
406.328	4.14
406.772	4.16
407.216	4.18
407.66	4.19
408.104	4.2
408.547	4.23
408.991	4.25
409.435	4.27
409.879	4.28
410.322	4.3
410.766	4.32
411.209	4.33
411.653	4.34
412.096	4.35
412.54	4.37
412.983	4.39
413.426	4.41
413.869	4.42
414.312	4.44
414.756	4.47
415.199	4.48
415.642	4.51
416.085	4.54
416.527	4.56
416.97	4.59
417.413	4.61
417.856	4.63
418.298	4.63
418.741	4.64
419.184	4.64
419.626	4.65
420.069	4.67
420.511	4.67
420.953	4.66
421.396	4.69
421.838	4.69
422.28	4.71
422.722	4.72
423.164	4.73
423.606	4.74
424.048	4.74
424.49	4.75
424.932	4.74
425.374	4.75
425.816	4.75
426.258	4.72
426.699	4.72
427.141	4.71
427.582	4.71
428.024	4.72
428.465	4.73
428.907	4.74
429.348	4.74
429.789	4.76
430.231	4.76
430.672	4.79
431.113	4.82
431.554	4.84
431.995	4.87
432.436	4.87
432.877	4.87
433.318	4.86
433.759	4.87
434.2	4.87
434.64	4.87
435.081	4.87
435.522	4.87
435.962	4.87
436.403	4.88
436.843	4.88
437.284	4.9
437.724	4.92
438.164	4.96
438.604	4.98
439.045	4.99
439.485	5
439.925	5.01
440.365	5.01
440.805	5
441.245	4.98
441.685	4.99
442.125	4.98
442.564	4.98
443.004	4.98
443.444	5
443.883	5
444.323	5
444.762	5.02
445.202	5.05
445.641	5.08
446.081	5.12
446.52	5.13
446.959	5.15
447.398	5.18
447.837	5.2
448.276	5.2
448.716	5.22
449.154	5.25
449.593	5.26
450.032	5.26
450.471	5.26
450.91	5.24
451.349	5.26
451.787	5.24
452.226	5.22
452.664	5.2
453.103	5.18
453.541	5.17
453.98	5.17
454.418	5.16
454.856	5.14
455.295	5.13
455.733	5.14
456.171	5.12
456.609	5.14
457.047	5.13
457.485	5.14
457.923	5.15
458.361	5.14
458.798	5.13
459.236	5.13
459.674	5.15
460.111	5.15
460.549	5.14
460.987	5.15
461.424	5.14
461.862	5.13
462.299	5.11
462.736	5.1
463.173	5.09
463.611	5.09
464.048	5.1
464.485	5.08
464.922	5.08
465.359	5.09
465.796	5.08
466.233	5.08
466.67	5.11
467.106	5.12
467.543	5.14
467.98	5.15
468.416	5.16
468.853	5.15
469.29	5.15
469.726	5.17
470.162	5.17
470.599	5.16
471.035	5.17
471.471	5.14
471.907	5.13
472.344	5.14
472.78	5.14
473.216	5.14
473.652	5.13
474.088	5.12
474.523	5.1
474.959	5.08
475.395	5.07
475.831	5.06
476.266	5.07
476.702	5.07
477.138	5.04
477.573	5.02
478.008	5.01
478.444	5
478.879	5
479.314	5
479.75	5.01
480.185	4.99
480.62	4.99
481.055	4.99
481.49	4.98
481.925	4.98
482.36	4.97
482.795	4.96
483.229	4.95
483.664	4.95
484.099	4.94
484.534	4.93
484.968	4.93
485.403	4.92
485.837	4.91
486.271	4.91
486.706	4.91
487.14	4.92
487.574	4.92
488.009	4.93
488.443	4.93
488.877	4.95
489.311	4.96
489.745	4.97
490.179	4.99
490.613	5
491.046	5.02
491.48	5.05
491.914	5.07
492.348	5.09
492.781	5.12
493.215	5.14
493.648	5.16
494.082	5.2
494.515	5.21
494.948	5.23
495.382	5.26
495.815	5.29
496.248	5.32
496.681	5.35
497.114	5.37
497.547	5.4
497.98	5.44
498.413	5.49
498.846	5.54
499.279	5.59
499.711	5.64
500.144	5.7
500.577	5.75
501.009	5.82
501.442	5.88
501.874	5.96
502.306	6.04
502.739	6.11
503.171	6.2
503.603	6.28
504.036	6.37
504.468	6.47
504.9	6.58
505.332	6.7
505.764	6.82
506.196	6.94
506.627	7.06
507.059	7.18
507.491	7.32
507.923	7.45
508.354	7.6
508.786	7.76
509.217	7.9
509.649	8.07
510.08	8.24
510.512	8.41
510.943	8.59
511.374	8.78
511.805	8.96
512.237	9.17
512.668	9.37
513.099	9.58
513.53	9.8
513.961	10.03
514.391	10.25
514.822	10.47
515.253	10.71
515.684	10.95
516.114	11.21
516.545	11.45
516.975	11.71
517.406	11.95
517.836	12.2
518.267	12.46
518.697	12.73
519.127	13
519.558	13.26
519.988	13.5
520.418	13.77
520.848	14.03
521.278	14.3
521.708	14.43
522.138	14.69
522.567	14.92
522.997	15.15
523.427	15.37
523.857	15.59
524.286	15.82
524.716	16.05
525.145	16.27
525.575	16.49
526.004	16.69
526.433	17.02
526.863	17.22
527.292	17.43
527.721	17.63
528.15	17.81
528.579	17.97
529.008	18.14
529.437	18.29
529.866	18.42
530.295	18.56
530.724	18.71
531.152	18.83
531.581	18.95
532.01	19.05
532.438	19.17
532.867	19.27
533.295	19.38
533.723	19.49
534.152	19.59
534.58	19.69
535.008	19.75
535.436	19.8
535.865	19.87
536.293	19.94
536.721	20.02
537.149	20.08
537.576	20.14
538.004	20.2
538.432	20.22
538.86	20.26
539.287	20.28
539.715	20.33
540.143	20.38
540.57	20.41
540.998	20.46
541.425	20.49
541.852	20.5
542.28	20.52
542.707	20.57
543.134	20.6
543.561	20.61
543.988	20.65
544.415	20.67
544.842	20.7
545.269	20.73
545.696	20.74
546.123	20.76
546.549	20.79
546.976	20.82
547.403	20.83
547.829	20.87
548.256	20.9
548.682	20.92
549.108	20.95
549.535	20.94
549.961	20.95
550.387	20.95
550.813	20.96
551.24	20.94
551.666	20.94
552.092	20.94
552.518	20.92
552.943	20.91
553.369	20.87
553.795	20.84
554.221	20.82
554.646	20.79
555.072	20.76
555.498	20.71
555.923	20.66
556.349	20.58
556.774	20.5
557.199	20.42
557.625	20.33
558.05	20.25
558.475	20.16
558.9	20.08
559.325	19.99
559.75	19.9
560.175	19.8
560.6	19.72
561.025	19.62
561.449	19.5
561.874	19.4
562.299	19.28
562.723	19.15
563.148	19
563.572	18.87
563.997	18.73
564.421	18.57
564.846	18.41
565.27	18.24
565.694	18.09
566.118	17.94
566.542	17.78
566.966	17.6
567.39	17.45
567.814	17.31
568.238	17.13
568.662	16.98
569.086	16.84
569.509	16.7
569.933	16.55
570.357	16.38
570.78	16.24
571.204	16.08
571.627	15.95
572.05	15.82
572.474	15.67
572.897	15.53
573.32	15.38
573.743	15.23
574.166	15.09
574.589	14.96
575.012	14.85
575.435	14.72
575.858	14.61
576.281	14.5
576.704	14.38
577.126	14.27
577.549	14.17
577.972	14.08
578.394	13.99
578.817	13.9
579.239	13.81
579.661	13.72
580.084	13.64
580.506	13.55
580.928	13.48
581.35	13.39
581.772	13.33
582.194	13.25
582.616	13.18
583.038	13.11
583.46	13.05
583.882	12.98
584.303	12.92
584.725	12.86
585.147	12.78
585.568	12.72
585.99	12.67
586.411	12.62
586.833	12.58
587.254	12.52
587.675	12.47
588.096	12.43
588.518	12.38
588.939	12.35
589.36	12.29
589.781	12.25
590.202	12.22
590.623	12.18
591.043	12.13
591.464	12.08
591.885	12.05
592.305	12.03
592.726	11.98
593.147	11.96
593.567	11.92
593.987	11.91
594.408	11.88
594.828	11.84
595.248	11.8
595.669	11.77
596.089	11.74
596.509	11.69
596.929	11.64
597.349	11.61
597.769	11.56
598.189	11.53
598.608	11.49
599.028	11.44
599.448	11.41
599.867	11.38
600.287	11.34
600.706	11.3
601.126	11.27
601.545	11.24
601.965	11.19
602.384	11.14
602.803	11.1
603.222	11.04
603.641	11
604.061	10.96
604.48	10.9
604.898	10.85
605.317	10.79
605.736	10.73
606.155	10.67
606.574	10.61
606.992	10.55
607.411	10.49
607.829	10.38
608.248	10.32
608.666	10.24
609.085	10.18
609.503	10.11
609.921	10.05
610.339	10
610.758	9.93
611.176	9.86
611.594	9.8
612.012	9.74
612.43	9.73
612.847	9.66
613.265	9.6
613.683	9.53
614.101	9.47
614.518	9.4
614.936	9.33
615.353	9.27
615.771	9.23
616.188	9.17
616.606	9.11
617.023	9.06
617.44	9
617.857	8.96
618.274	8.92
618.691	8.89
619.108	8.86
619.525	8.83
619.942	8.8
620.359	8.77
620.776	8.75
621.192	8.73
621.609	8.7
622.026	8.69
622.442	8.65
622.859	8.63
623.275	8.63
623.691	8.61
624.108	8.59
624.524	8.57
624.94	8.54
625.356	8.52
625.772	8.51
626.188	8.52
626.604	8.51
627.02	8.51
627.436	8.5
627.852	8.48
628.268	8.46
628.683	8.45
629.099	8.44
629.514	8.44
629.93	8.43
630.345	8.42
630.761	8.38
631.176	8.36
631.591	8.34
632.007	8.3
632.422	8.27
632.837	8.25
633.252	8.21
633.667	8.16
634.082	8.12
634.497	8.04
634.911	7.97
635.326	7.91
635.741	7.85
636.155	7.79
636.57	7.72
636.984	7.63
637.399	7.54
637.813	7.46
638.228	7.39
638.642	7.31
639.056	7.25
639.47	7.17
639.884	7.1
640.298	7.01
640.712	6.93
641.126	6.84
641.54	6.76
641.954	6.7
642.368	6.64
642.781	6.57
643.195	6.49
643.609	6.42
644.022	6.36
644.436	6.29
644.849	6.23
645.262	6.17
645.676	6.11
646.089	6.06
646.502	6.01
646.915	5.97
647.328	5.93
647.741	5.89
648.154	5.85
648.567	5.83
648.98	5.8
649.393	5.76
649.805	5.73
650.218	5.71
650.631	5.69
651.043	5.67
651.456	5.64
651.868	5.6
652.28	5.57
652.693	5.53
653.105	5.51
653.517	5.48
653.929	5.46
654.341	5.44
654.753	5.41
655.165	5.37
655.577	5.32
655.989	5.26
656.401	5.22
656.813	5.18
657.224	5.16
657.636	5.11
658.047	5.06
658.459	5.01
658.87	4.96
659.282	4.93
659.693	4.9
660.104	4.87
660.515	4.85
660.926	4.83
661.338	4.8
661.749	4.75
662.159	4.73
662.57	4.71
662.981	4.69
663.392	4.65
663.803	4.64
664.213	4.62
664.624	4.61
665.035	4.57
665.445	4.55
665.855	4.55
666.266	4.55
666.676	4.53
667.086	4.52
667.497	4.5
667.907	4.5
668.317	4.49
668.727	4.49
669.137	4.49
669.547	4.51
669.956	4.51
670.366	4.52
670.776	4.53
671.186	4.54
671.595	4.55
672.005	4.56
672.414	4.58
672.824	4.59
673.233	4.61
673.642	4.61
674.052	4.63
674.461	4.65
674.87	4.66
675.279	4.67
675.688	4.67
676.097	4.69
676.506	4.72
676.915	4.75
677.323	4.79
677.732	4.83
678.141	4.86
678.549	4.9
678.958	4.93
679.366	4.95
679.775	5
680.183	5.07
680.592	5.1
681	5.14
681.408	5.17
681.816	5.2
682.224	5.24
682.632	5.31
683.04	5.35
683.448	5.42
683.856	5.51
684.264	5.58
684.671	5.68
685.079	5.78
685.487	5.91
685.894	6.04
686.302	6.19
686.709	6.35
687.116	6.51
687.524	6.71
687.931	6.92
688.338	7.15
688.745	7.42
689.152	7.7
689.559	8.01
689.966	8.34
690.373	8.69
690.78	9.07
691.187	9.48
691.593	9.92
692	10.34
692.407	10.81
692.813	11.3
693.22	11.78
693.626	12.28
694.032	12.82
694.439	13.36
694.845	13.92
695.251	14.46
695.657	15.02
696.063	15.56
696.469	16.16
696.875	16.71
697.281	17.27
697.687	17.87
698.093	18.46
698.498	19.04
698.904	19.62
699.31	20.18
699.715	20.77
700.12	21.34
700.526	21.95
700.931	22.52
701.337	23.12
701.742	23.69
702.147	24.24
702.552	24.79
702.957	25.35
703.362	25.9
703.767	26.43
704.172	26.97
704.577	27.51
704.981	28.03
705.386	28.56
705.791	29.07
706.195	29.59
706.6	30.09
707.004	30.6
707.408	31.11
707.813	31.59
708.217	32.08
708.621	32.56
709.025	33.04
709.43	33.49
709.834	33.98
710.237	34.42
710.641	34.89
711.045	35.35
711.449	35.8
711.853	36.22
712.256	36.66
712.66	37.12
713.064	37.55
713.467	37.96
713.87	38.39
714.274	38.81
714.677	39.23
715.08	39.63
715.484	40.05
715.887	40.44
716.29	40.83
716.693	41.22
717.096	41.6
717.499	41.97
717.901	42.34
718.304	42.69
718.707	43.01
719.109	43.36
719.512	43.73
719.915	44.04
720.317	44.34
720.719	44.67
721.122	44.98
721.524	45.28
721.926	45.57
722.328	45.89
722.731	46.21
723.133	46.5
723.535	46.78
723.937	47.04
724.338	47.3
724.74	47.57
725.142	47.8
725.544	48.02
725.945	48.26
726.347	48.5
726.748	48.66
727.15	48.86
727.551	49.07
727.952	49.25
728.354	49.45
728.755	49.64
729.156	49.84
729.557	50.03
729.958	50.25
730.359	50.4
730.76	50.56
731.161	50.76
731.562	50.91
731.962	51.06
732.363	51.19
732.763	51.32
733.164	51.44
733.564	51.59
733.965	51.71
734.365	51.78
734.766	51.89
735.166	51.95
735.566	52.04
735.966	52.11
736.366	52.17
736.766	52.27
737.166	52.37
737.566	52.47
737.966	52.52
738.365	52.61
738.765	52.7
739.165	52.75
739.564	52.86
739.964	52.92
740.363	53.06
740.763	53.13
741.162	53.17
741.561	53.23
741.96	53.3
742.36	53.35
742.759	53.39
743.158	53.43
743.557	53.51
743.955	53.53
744.354	53.61
744.753	53.62
745.152	53.68
745.55	53.75
745.949	53.79
746.348	53.83
746.746	53.83
747.144	53.88
747.543	53.92
747.941	53.97
748.339	54.07
748.737	54.14
749.136	54.17
749.534	54.2
749.932	54.24
750.33	54.23
750.727	54.27
751.125	54.33
751.523	54.35
751.921	54.39
752.318	54.39
752.716	54.35
753.113	54.33
753.511	54.34
753.908	54.33
754.305	54.31
754.703	54.31
755.1	54.29
755.497	54.27
755.894	54.26
756.291	54.21
756.688	54.19
757.085	54.2
757.482	54.19
757.878	54.18
758.275	54.18
758.672	54.21
759.068	54.22
759.465	54.19
759.861	54.18
760.258	54.17
760.654	54.19
761.05	54.23
761.447	54.22
761.843	54.19
762.239	54.18
762.635	54.17
763.031	54.16
763.427	54.12
763.822	54.14
764.218	54.15
764.614	54.14
765.01	54.13
765.405	54.11
765.801	54.12
766.196	54.13
766.592	54.15
766.987	54.16
767.382	54.13
767.778	54.17
768.173	54.17
768.568	54.16
768.963	54.18
769.358	54.16
769.753	54.18
770.148	54.14
770.542	54.16
770.937	54.14
771.332	54.12
771.726	54.13
772.121	54.11
772.515	54.1
772.91	54.11
773.304	54.12
773.699	54.14
774.093	54.08
774.487	54.12
774.881	54.11
775.275	54.12
775.669	54.12
776.063	54.13
776.457	54.14
776.851	54.11
777.245	54.09
777.638	54.06
778.032	54.07
778.425	54.09
778.819	54.08
779.212	54.07
779.606	54.06
779.999	54.06
780.392	54.05
780.786	54.06
781.179	54.11
781.572	54.13
781.965	54.14
782.358	54.09
782.751	54.11
783.143	54.14
783.536	54.15
783.929	54.18
784.322	54.16
784.714	54.16
785.107	54.17
785.499	54.14
785.891	54.14
786.284	54.15
786.676	54.19
787.068	54.18
787.46	54.13
787.852	54.13
788.245	54.1
788.636	54.09
789.028	54.04
789.42	53.97
789.812	53.98
790.204	53.9
790.595	53.86
790.987	53.83
791.378	53.8
791.77	53.81
792.161	53.82
792.553	53.81
792.944	53.83
793.335	53.87
793.726	53.88
794.117	53.88
794.508	53.93
794.899	53.93
795.29	53.95
795.681	53.98
796.072	54.01
796.463	54.01
796.853	54.03
797.244	54.04
797.634	54.04
798.025	54.09
798.415	54.09
798.806	54.12
799.196	54.16
799.586	54.13
799.976	54.11
800.366	54.11
800.756	54.1
801.146	54.1
801.536	54.1
801.926	54.13
802.316	54.13
802.706	54.16
803.095	54.18
803.485	54.23
803.874	54.28
804.264	54.35
804.653	54.32
805.043	54.32
805.432	54.3
805.821	54.3
806.21	54.29
806.599	54.34
806.988	54.34
807.377	54.35
807.766	54.3
808.155	54.31
808.544	54.25
808.933	54.27
809.321	54.29
809.71	54.34
810.098	54.34
810.487	54.37
810.875	54.31
811.264	54.34
811.652	54.31
812.04	54.33
812.428	54.35
812.816	54.37
813.204	54.35
813.592	54.35
813.98	54.34
814.368	54.34
814.756	54.31
815.144	54.34
815.531	54.33
815.919	54.35
816.306	54.34
816.694	54.36
817.081	54.36
817.469	54.4
817.856	54.42
818.243	54.41
818.63	54.44
819.017	54.46
819.404	54.47
819.791	54.45
820.178	54.45
820.565	54.45
820.952	54.43
821.339	54.47
821.725	54.47
822.112	54.48
822.498	54.5
822.885	54.48
823.271	54.51
823.657	54.51
824.044	54.5
824.43	54.53
824.816	54.56
825.202	54.56
825.588	54.55
825.974	54.57
826.36	54.58
826.746	54.61
827.132	54.6
827.517	54.59
827.903	54.62
828.289	54.64
828.674	54.63
829.06	54.63
829.445	54.65
829.83	54.66
830.216	54.63
830.601	54.61
830.986	54.58
831.371	54.63
831.756	54.62
832.141	54.64
832.526	54.64
832.911	54.66
833.295	54.68
833.68	54.69
834.065	54.7
834.449	54.72
834.834	54.72
835.218	54.73
835.603	54.71
835.987	54.73
836.371	54.7
836.755	54.7
837.139	54.69
837.524	54.67
837.908	54.66
838.291	54.66
838.675	54.67
839.059	54.71
839.443	54.71
839.827	54.7
840.21	54.71
840.594	54.7
840.977	54.68
841.361	54.69
841.744	54.72
842.127	54.72
842.511	54.7
842.894	54.67
843.277	54.66
843.66	54.65
844.043	54.66
844.426	54.66
844.809	54.68
845.191	54.68
845.574	54.66
845.957	54.63
846.339	54.61
846.722	54.58
847.104	54.56
847.487	54.58
847.869	54.59
848.252	54.57
848.634	54.56
849.016	54.55
849.398	54.53
849.78	54.53
850.162	54.52
850.544	54.56
850.926	54.56
851.307	54.58
851.689	54.53
852.071	54.48
852.452	54.47
852.834	54.47
853.215	54.46
853.597	54.46
853.978	54.45
854.359	54.44
854.741	54.41
855.122	54.42
855.503	54.42
855.884	54.41
856.265	54.44
856.646	54.44
857.026	54.43
857.407	54.39
857.788	54.39
858.169	54.36
858.549	54.39
858.93	54.37
859.31	54.33
859.69	54.34
860.071	54.34
860.451	54.34
860.831	54.33
861.211	54.34
861.591	54.38
861.971	54.38
862.351	54.42
862.731	54.38
863.111	54.39
863.491	54.42
863.87	54.4
864.25	54.42
864.629	54.42
865.009	54.42
865.388	54.41
865.768	54.38
866.147	54.38
866.526	54.36
866.905	54.39
867.284	54.38
867.663	54.36
868.042	54.37
868.421	54.35
868.8	54.34
869.179	54.36
869.558	54.36
869.936	54.38
870.315	54.39
870.693	54.39
871.072	54.38
871.45	54.37
871.828	54.38
872.207	54.4
872.585	54.38
872.963	54.35
873.341	54.34
873.719	54.33
874.097	54.31
874.475	54.33
874.853	54.34
875.23	54.34
875.608	54.38
875.986	54.39
876.363	54.36
876.741	54.41
877.118	54.44
877.495	54.46
877.873	54.46
878.25	54.45
878.627	54.45
879.004	54.48
879.381	54.48
879.758	54.43
880.135	54.42
880.512	54.41
880.889	54.39
881.265	54.42
881.642	54.4
882.019	54.41
882.395	54.41
882.772	54.39
883.148	54.36
883.524	54.39
883.901	54.39
884.277	54.41
884.653	54.46
885.029	54.47
885.405	54.44
885.781	54.44
886.157	54.44
886.532	54.44
886.908	54.45
887.284	54.47
887.659	54.47
888.035	54.47
888.411	54.44
888.786	54.44
889.161	54.43
889.537	54.42
889.912	54.44
890.287	54.43
890.662	54.41
891.037	54.37
891.412	54.33
891.787	54.31
892.162	54.29
892.536	54.27
892.911	54.22
893.286	54.19
893.66	54.19
894.035	54.16
894.409	54.15
894.784	54.15
895.158	54.16
895.532	54.15
895.906	54.12
896.281	54.1
896.655	54.1
897.029	54.1
897.402	54.1
897.776	54.08
898.15	54.07
898.524	54.06
898.898	54.03
899.271	54.02
899.645	54.03
900.018	54.03
900.392	54.05
900.765	54.04
901.138	54.05
901.511	54.01
901.884	53.99
902.258	53.95
902.631	53.94
903.003	53.94
903.376	53.9
903.749	53.88
904.122	53.88
904.495	53.85
904.867	53.84
905.24	53.79
905.612	53.8
905.985	53.79
906.357	53.78
906.729	53.77
907.102	53.77
907.474	53.78
907.846	53.74
908.218	53.72
908.59	53.7
908.962	53.68
909.334	53.67
909.705	53.63
910.077	53.62
910.449	53.62
910.82	53.6
911.192	53.58
911.563	53.58
911.935	53.56
912.306	53.55
912.677	53.53
913.048	53.53
913.419	53.5
913.79	53.52
914.161	53.54
914.532	53.54
914.903	53.55
915.274	53.52
915.645	53.54
916.015	53.55
916.386	53.54
916.756	53.53
917.127	53.54
917.497	53.57
917.868	53.58
918.238	53.6
918.608	53.62
918.978	53.62
919.348	53.63
919.718	53.64
920.088	53.63
920.458	53.68
920.828	53.73
921.198	53.77
921.567	53.75
921.937	53.73
922.306	53.68
922.676	53.64
923.045	53.59
923.415	53.57
923.784	53.55
924.153	53.53
924.522	53.47
924.891	53.44
925.26	53.37
925.629	53.38
925.998	53.36
926.367	53.38
926.736	53.38
927.104	53.42
927.473	53.44
927.842	53.44
928.21	53.5
928.578	53.52
928.947	53.51
929.315	53.52
929.683	53.55
930.051	53.51
930.42	53.48
930.788	53.48
931.156	53.45
931.523	53.46
931.891	53.41
932.259	53.3
932.627	53.19
932.994	53.14
933.362	53.08
933.729	53
934.097	52.98
934.464	52.94
934.831	52.87
935.199	52.78
935.566	52.66
935.933	52.61
936.3	52.54
936.667	52.54
937.034	52.53
937.401	52.48
937.767	52.38
938.134	52.33
938.501	52.27
938.867	52.24
939.234	52.25
939.6	52.23
939.967	52.18
940.333	52.26
940.699	52.29
941.065	52.24
941.431	52.32
941.798	52.43
942.163	52.54
942.529	52.62
942.895	52.64
943.261	52.64
943.627	52.72
943.992	52.8
944.358	52.88
944.723	52.79
945.089	52.82
945.454	52.86
945.82	52.87
946.185	52.79
946.55	52.83
946.915	52.82
947.28	52.79
947.645	52.78
948.01	52.73
948.375	52.73
948.74	52.76
949.104	52.78
949.469	52.69
949.834	52.67
950.198	52.66
950.562	52.64
950.927	52.6
951.291	52.54
951.655	52.48
952.02	52.46
952.384	52.45
952.748	52.42
953.112	52.41
953.476	52.4
953.839	52.39
954.203	52.33
954.567	52.28
954.931	52.3
955.294	52.32
955.658	52.31
956.021	52.27
956.385	52.22
956.748	52.25
957.111	52.24
957.474	52.25
957.837	52.24
958.2	52.22
958.563	52.19
958.926	52.16
959.289	52.17
959.652	52.17
960.015	52.18
960.377	52.15
960.74	52.08
961.102	52.08
961.465	52.07
961.827	52.01
962.189	51.98
962.552	51.94
962.914	51.84
963.276	51.79
963.638	51.71
964	51.71
964.362	51.64
964.724	51.6
965.085	51.57
965.447	51.5
965.809	51.45
966.17	51.45
966.532	51.52
966.893	51.62
967.255	51.64
967.616	51.69
967.977	51.7
968.338	51.71
968.699	51.7
969.061	51.67
969.421	51.68
969.782	51.74
970.143	51.81
970.504	51.82
970.865	51.71
971.225	51.74
971.586	51.75
971.946	51.75
972.307	51.75
972.667	51.78
973.027	51.75
973.388	51.74
973.748	51.73
974.108	51.68
974.468	51.65
974.828	51.77
975.188	51.67
975.548	51.61
975.907	51.58
976.267	51.54
976.627	51.44
976.986	51.44
977.346	51.4
977.705	51.37
978.064	51.43
978.424	51.39
978.783	51.34
979.142	51.34
979.501	51.32
979.86	51.26
980.219	51.22
980.578	51.27
980.937	51.31
981.296	51.34
981.654	51.33
982.013	51.27
982.371	51.26
982.73	51.2
983.088	51.22
983.447	51.28
983.805	51.31
984.163	51.34
984.521	51.32
984.879	51.4
985.237	51.39
985.595	51.37
985.953	51.37
986.311	51.38
986.669	51.43
987.026	51.5
987.384	51.57
987.741	51.62
988.099	51.66
988.456	51.73
988.814	51.64
989.171	51.6
989.528	51.5
989.885	51.4
990.242	51.38
990.599	51.32
990.956	51.27
991.313	51.1
991.67	51.03
992.027	50.99
992.383	50.92
992.74	50.77
993.096	50.71
993.453	50.82
993.809	50.82
994.165	50.88
994.522	50.94
994.878	50.88
995.234	50.85
995.59	50.75
995.946	50.87
996.302	50.87
996.658	50.85
997.013	50.91
997.369	51.01
997.725	51.01
998.08	50.87
998.436	50.95
998.791	50.82
999.147	50.79
999.502	50.78
999.857	50.58
1000.212	50.51
1000.567	50.57
1000.922	50.55
1001.277	50.42
1001.632	50.44
1001.987	50.53
1002.342	50.38
1002.696	50.53
1003.051	50.47
1003.406	50.44
1003.76	50.36
1004.114	50.42
1004.469	50.35
1004.823	50.26
1005.177	50.4
1005.531	50.33
1005.885	50.26
1006.239	50.03
1006.593	49.94
1006.947	50.01
1007.301	50.08
1007.655	50.28
1008.008	50.23
1008.362	50.24
1008.715	50.25
1009.069	49.89
1009.422	49.8
1009.776	49.62
1010.129	49.51
1010.482	49.49
1010.835	49.55
1011.188	49.44
1011.541	49.35
1011.894	49.33
1012.247	49.41
1012.6	49.27
1012.952	49.31
1013.305	49.26
1013.657	49.31
1014.01	49.73
1014.362	49.65
1014.715	49.42
1015.067	49.49
1015.419	49.33
1015.771	49.37
1016.123	49.18
1016.475	49.48
1016.827	49.49
1017.179	49.53
1017.531	49.58
1017.883	49.43
1018.234	49.36
1018.586	49.39
1018.938	49.35
1019.289	49.24
1019.64	49.11
1019.992	49.34
1020.343	49.12
1020.694	48.9
1021.045	48.93
1021.396	48.78
1021.747	48.67
1022.098	48.59
1022.449	48.51
1022.8	48.53
1023.151	48.33
1023.501	48.32
1023.852	47.95
1024.202	47.83
1024.553	47.75
1024.903	47.56
1025.253	47.76
1025.604	47.55
1025.954	47.68
1026.304	48.18
1026.654	48.12
1027.004	48.47
1027.354	48.38
1027.703	48.27
1028.053	47.81
1028.403	47.81
1028.753	47.75
1029.102	47.17
1029.452	46.86
1029.801	46.49
1030.15	45.87
1030.499	45.54
897.758	725.48
901.051	730.11
904.343	743.25
907.636	728.85
910.928	716.11
914.22	729.72
917.511	718.57
920.803	688.64
924.094	659.66
927.384	660.32
930.675	641.8
933.965	634.66
937.255	639.02
940.544	606.64
943.834	581.22
947.123	573.14
950.411	540.91
953.7	531.54
956.988	514.39
960.276	490.2
963.563	486.82
966.851	460.62
970.138	451.38
973.424	418.85
976.711	413.38
979.997	399.15
983.283	390.84
986.568	378.05
989.853	366.76
993.138	355.28
996.423	349.99
999.708	337.66
1002.992	338.81
1006.275	328.4
1009.559	326.25
1012.842	315.58
1016.125	306.71
1019.408	301.18
1022.69	298.6
1025.972	297.07
1029.254	288.14
1032.536	283.99
1035.817	274.41
1039.098	270.28
1042.379	264.35
1045.659	259.78
1048.939	259.83
1052.219	255.03
1055.498	249.12
1058.778	244.91
1062.057	239.6
1065.335	238.81
1068.614	235.19
1071.892	232.01
1075.17	227.54
1078.447	224.72
1081.724	223.86
1085.001	217.08
1088.278	216.59
1091.554	215.65
1094.83	214.45
1098.106	210.76
1101.382	209.85
1104.657	208.97
1107.932	208.27
1111.206	206.34
1114.481	204.29
1117.755	202.69
1121.029	203.65
1124.302	199.89
1127.575	196.66
1130.848	195.74
1134.121	192.75
1137.393	191.93
1140.665	190.19
1143.937	188.05
1147.208	186.37
1150.48	184.85
1153.75	183.03
1157.021	180.97
1160.291	180.55
1163.561	180.88
1166.831	178.88
1170.101	179.37
1173.37	177.56
1176.639	175.67
1179.907	176.39
1183.176	175.27
1186.444	176.09
1189.711	175.1
1192.979	176.67
1196.246	176.67
1199.513	174.72
1202.78	175.97
1206.046	176.01
1209.312	177.57
1212.578	178.19
1215.843	180.77
1219.108	181.5
1222.373	184.22
1225.638	187.45
1228.902	191.23
1232.166	197.49
1235.43	200.45
1238.693	206.75
1241.956	210.94
1245.219	216.61
1248.482	219.4
1251.744	218.1
1255.006	220.05
1258.268	214.22
1261.529	211.98
1264.79	206.49
1268.051	202.26
1271.312	201.21
1274.572	195.55
1277.832	191.01
1281.092	187.18
1284.351	183.14
1287.61	182.54
1290.869	181.46
1294.128	180.55
1297.386	181.17
1300.644	180.05
1303.902	178.77
1307.159	178.17
1310.416	179.25
1313.673	182.29
1316.93	183.69
1320.186	186.84
1323.442	189.48
1326.697	192.96
1329.953	195.07
1333.208	200.63
1336.463	208.03
1339.717	212.56
1342.972	222.97
1346.226	229.55
1349.479	230.87
1352.733	241.69
1355.986	245.99
1359.238	250.54
1362.491	253.73
1365.743	262.73
1368.995	263.44
1372.247	263.43
1375.498	263.09
1378.749	271.43
1382	269.88
1385.251	269.19
1388.501	267.71
1391.751	271.98
1395	270.54
1398.25	272.47
1401.499	271.21
1404.748	271.03
1407.996	266.14
1411.244	265.59
1414.492	259.89
1417.74	253.37
1420.987	248.13
1424.234	244.77
1427.481	234.93
1430.728	229.54
1433.974	221.65
1437.22	214.36
1440.465	207.13
1443.711	201.37
1446.956	196.58
1450.201	189.14
1453.445	180.53
1456.689	175.35
1459.933	169.41
1463.177	163.06
1466.42	159.09
1469.663	153.96
1472.906	149.84
1476.148	145.85
1479.391	141.81
1482.633	139.05
1485.874	136.23
1489.115	135.07
1492.356	132.74
1495.597	130.69
1498.838	129.65
1502.078	128.36
1505.318	127.96
1508.557	126.99
1511.797	125.59
1515.036	125.8
1518.274	124.75
1521.513	123.31
1524.751	122.83
1527.989	123.15
1531.227	122.4
1534.464	121.79
1537.701	121.01
1540.938	120.43
1544.174	120.43
1547.41	120.45
1550.646	119.99
1553.882	119.78
1557.117	119.43
1560.352	118.97
1563.587	118.08
1566.821	118
1570.055	117.3
1573.289	116.95
1576.523	117.22
1579.756	116.62
1582.989	116.72
1586.222	116.1
1589.454	115.73
1592.686	116.09
1595.918	115.93
1599.15	115.79
1602.381	115.66
1605.612	115.95
1608.843	116.05
1612.073	116.68
1615.303	116.65
1618.533	115.79
1621.762	116.38
1624.992	117
1628.221	116.21
1631.449	117.03
1634.678	116.41
1637.906	116.71
1641.134	117
1644.361	116.87
1647.588	116.35
1650.815	116.55
1654.042	117.52
1657.269	116.82
1660.495	117.01
1663.72	117.23
1666.946	117.17
1670.171	118.3
1673.396	119.03
1676.621	119.08
1679.845	119.29
1683.069	118.88
1686.293	119.05
1689.517	118.89
1692.74	119.59
1695.963	119.75
1699.185	120.76
1702.408	120.11
1705.63	120.35
1708.852	121
1712.073	120.65
1715.294	120.95
1718.515	122.15
1721.736	122.07
1724.956	121.99
1728.176	121.83
1731.396	122.46
1734.616	122.34
1737.835	123.4
1741.054	122.31
1744.272	122.31
1747.491	122.69
1750.709	123.11
1753.927	123.22
1757.144	123.33
1760.361	124.03
1763.578	124.74
1766.795	125.11
1770.011	125.12
1773.227	125.46
1776.443	127.31
1779.658	127.25
1782.874	128.12
1786.089	128.87
1789.303	128.86
1792.518	130.27
1795.732	131.29
1798.945	132.63
1802.159	132.25
1805.372	134.22
1808.585	134.94
1811.797	136.67
1815.01	137.74
1818.222	138.95
1821.434	139
1824.645	140.31
1827.856	141.87
1831.067	142.33
1834.278	143.15
1837.488	144.85
1840.698	146.33
1843.908	146.77
1847.117	147.5
1850.326	148.4
1853.535	148.53
1856.744	151.34
1859.952	153.14
1863.16	153.37
1866.368	153.03
1869.575	154.11
1872.782	153.26
1875.989	152.26
1879.196	151.67
1882.402	150.58
1885.608	151.68
1888.814	151.95
1892.019	152.38
1895.224	149.81
1898.429	151.02
1901.634	152.43
1904.838	152.81
1908.042	154.13
1911.246	154.42
1914.449	156.19
1917.652	155.17
1920.855	154.81
1924.058	153.83
1927.26	153.33
1930.462	154.15
1933.664	153.75
1936.865	152.82
1940.066	151.43
1943.267	150.57
1946.467	151.64
1949.668	151.04
1952.868	152.88
1956.067	152.65
1959.267	153.27
1962.466	153.91
1965.665	154.79
1968.863	156.53
1972.061	157.06
1975.259	160.01
1978.457	161.25
1981.654	161.71
1984.852	163.22
1988.048	164.16
1991.245	166.7
1994.441	170.82
1997.637	174.05
2000.833	177.9
2004.028	178.39
2007.223	185.35
2010.418	188.32
2013.613	195.82
2016.807	200.94
2020.001	206.11
2023.194	211.23
2026.388	219.04
2029.581	228.31
2032.774	236.05
2035.966	243.79
2039.158	250.87
2042.35	254.52
2045.542	260.96
2048.733	272.8
2051.924	274.62
2055.115	279.14
2058.306	283.05
2061.496	288.44
2064.686	289.48
2067.875	284.29
2071.065	286.36
2074.254	289.28
2077.442	297.44
2080.631	298.2
2083.819	298.34
2087.007	306.99
2090.195	310.49
2093.382	308.81
2096.569	307.98
2099.756	314.73
2102.942	325.07
2106.128	331.61
2109.314	331.94
2112.5	332.08
2115.685	332.37
2118.87	332.44
2122.055	331.54
2125.239	339.56
2128.424	351.29
2131.608	347.72
2134.791	348.91
2137.974	346.86
2141.157	349.76
2144.34	353.79
2147.523	356.54
2150.705	364.34
2153.887	363.63
2157.068	368.41
2160.25	369.84
2163.431	367.15
2166.611	374.66
2169.792	380.49
2172.972	387.82
2176.152	387
2179.331	395.6
2182.511	397.63
2185.69	403.89
2188.868	416.82
2192.047	427.5
2195.225	434.22
2198.403	439.67
2201.58	437.38
2204.758	451.19
2207.935	455.04
2211.111	466.66
2214.288	469.06
2217.464	474.71
2220.64	475.8
2223.815	480.74
2226.991	472.23
2230.166	476.42
2233.34	491.24
2236.515	502.64
2239.689	495.69
2242.863	502.21
2246.036	495.86
2249.209	511.59
2252.382	509.85
2255.555	529.95
2258.727	529.15
2261.9	548.08
2265.071	556.23
2268.243	550.84
2271.414	568.34
2274.585	578.08
2277.756	581.14
2280.926	605.41
2284.096	601.15
2287.266	606.73
2290.436	594.68
2293.605	609.2
2296.774	630.53
2299.942	626.41
2303.111	650.83
2306.279	662.88
2309.447	663.19
2312.614	665.22
2315.781	681.1
2318.948	683.44
2322.115	697.76
2325.281	733.99
2328.447	728.87
2331.613	728.52
2334.779	744.59
2337.944	749.04
2341.109	765.45
2344.274	774.18
2347.438	797.84
2350.602	809.85
2353.766	867.84
2356.929	869.02
2360.092	879.8
2363.255	883.34
2366.418	896.67
2369.58	914.6
2372.742	920.8
2375.904	911.56
2379.066	942.27
2382.227	992.48
2385.388	990.22
2388.548	940.3
2391.709	932.46
2394.869	959.59
2398.029	962.29
2401.188	957.64
2404.347	993.31
2407.506	1024.21
2410.665	986.73
2413.823	988.7
2416.981	987.42
2420.139	936.7
2423.296	1007.05
2426.453	1074.55
2429.61	1024.63
2432.767	1098.8
2435.923	1141.34
2439.079	1090.48
2442.235	1113.71
2445.391	1142.72
2448.546	1132.52
2451.701	1199.48
2454.855	1283.49
2458.009	1133.65
2461.163	1162.61
2464.317	1164.09
2467.471	1142.67
2470.624	1181.82
2473.777	1162.11
2476.929	1124.42
2480.082	1197
2483.234	1255.68
2486.385	1273.19
2489.537	1304.29
2492.688	1448.06
2495.839	1401.28
2498.989	1458.43
2502.14	1455.06
2505.29	1388.44
2508.439	1549.88
2511.589	1593
2514.738	1548.84
2517.887	1536.33
2521.035	1431.67
2524.183	1411.3
2527.331	1388.54
2530.479	1362.39
2533.627	1392.09
