Data from N_2_dec_nc_4n_069_Splice17_16.txt Node
Date: Sat Feb 29 14:06:17 EST 2020
User: sa697716
Spectrometer: FLMS03696
Trigger mode: 0
Integration Time (sec): 3.180400E-1
Scans to average: 20
Electric dark correction enabled: true
Nonlinearity correction enabled: true
Boxcar width: 5
XAxis mode: Wavelengths
Number of Pixels in Spectrum: 2048
>>>>>Begin Spectral Data<<<<<
187.83	127.51
188.298	139.7
188.766	117.89
189.233	115.21
189.701	121.4
190.169	118.6
190.636	126.26
191.104	138.25
191.571	363.52
192.039	218
192.506	-297.34
192.974	-1113.63
193.441	262.61
193.908	65.02
194.375	69.19
194.842	78.28
195.31	24.36
195.777	17.64
196.244	12.99
196.711	23.4
197.177	25.33
197.644	27.31
198.111	26.53
198.578	27.11
199.045	26.49
199.511	26.75
199.978	27.68
200.445	28.09
200.911	28.57
201.378	28.69
201.844	29.22
202.31	29.51
202.777	29.42
203.243	29.62
203.709	30.07
204.176	30.1
204.642	30.4
205.108	30.32
205.574	30.87
206.04	30.63
206.506	30.93
206.972	30.48
207.438	30.37
207.903	30.59
208.369	30.09
208.835	29.93
209.301	29.97
209.766	29.51
210.232	29.34
210.697	28.66
211.163	28.64
211.628	28.38
212.094	28.32
212.559	27.96
213.024	27.43
213.49	27.58
213.955	27.4
214.42	26.74
214.885	26.15
215.35	25.5
215.815	24.72
216.28	23.89
216.745	22.89
217.21	21.95
217.675	21.01
218.14	20.04
218.604	19.09
219.069	18.36
219.534	17.87
219.998	17.35
220.463	16.91
220.927	16.6
221.392	16.18
221.856	15.86
222.32	15.56
222.785	15.32
223.249	15.17
223.713	15.01
224.177	14.79
224.642	14.58
225.106	14.41
225.57	14.25
226.034	14.08
226.497	13.96
226.961	13.8
227.425	13.63
227.889	13.48
228.353	13.27
228.816	13.11
229.28	12.95
229.744	12.82
230.207	12.71
230.671	12.55
231.134	12.41
231.597	12.26
232.061	12.13
232.524	12.03
232.987	11.89
233.45	11.78
233.914	11.67
234.377	11.57
234.84	11.45
235.303	11.33
235.766	11.23
236.229	11.12
236.691	11.02
237.154	10.93
237.617	10.83
238.08	10.74
238.542	10.65
239.005	10.55
239.468	10.45
239.93	10.34
240.393	10.25
240.855	10.15
241.317	10.07
241.78	9.99
242.242	9.89
242.704	9.81
243.166	9.73
243.629	9.66
244.091	9.59
244.553	9.52
245.015	9.46
245.477	9.38
245.939	9.32
246.4	9.25
246.862	9.18
247.324	9.14
247.786	9.09
248.247	9.03
248.709	8.98
249.17	8.92
249.632	8.87
250.093	8.81
250.555	8.77
251.016	8.75
251.477	8.71
251.939	8.67
252.4	8.62
252.861	8.57
253.322	8.53
253.783	8.5
254.244	8.46
254.705	8.44
255.166	8.41
255.627	8.37
256.088	8.33
256.549	8.3
257.009	8.27
257.47	8.24
257.931	8.2
258.391	8.15
258.852	8.12
259.312	8.09
259.773	8.05
260.233	8.02
260.694	8
261.154	7.96
261.614	7.92
262.074	7.9
262.534	7.86
262.994	7.84
263.455	7.81
263.915	7.78
264.374	7.75
264.834	7.73
265.294	7.69
265.754	7.66
266.214	7.64
266.673	7.62
267.133	7.6
267.593	7.59
268.052	7.56
268.512	7.55
268.971	7.54
269.431	7.53
269.89	7.51
270.349	7.51
270.809	7.5
271.268	7.49
271.727	7.48
272.186	7.46
272.645	7.44
273.104	7.43
273.563	7.42
274.022	7.4
274.481	7.38
274.94	7.36
275.399	7.34
275.857	7.32
276.316	7.29
276.775	7.27
277.233	7.26
277.692	7.25
278.15	7.23
278.609	7.2
279.067	7.18
279.525	7.16
279.984	7.15
280.442	7.12
280.9	7.11
281.358	7.09
281.816	7.08
282.274	7.05
282.732	7.03
283.19	7.01
283.648	7
284.106	6.99
284.564	6.98
285.021	6.97
285.479	6.96
285.937	6.96
286.394	6.94
286.852	6.93
287.309	6.92
287.767	6.91
288.224	6.9
288.682	6.89
289.139	6.88
289.596	6.85
290.053	6.83
290.511	6.81
290.968	6.78
291.425	6.76
291.882	6.75
292.339	6.73
292.796	6.7
293.252	6.68
293.709	6.68
294.166	6.66
294.623	6.64
295.079	6.63
295.536	6.62
295.992	6.61
296.449	6.6
296.905	6.58
297.362	6.58
297.818	6.57
298.274	6.56
298.731	6.54
299.187	6.53
299.643	6.51
300.099	6.5
300.555	6.49
301.011	6.48
301.467	6.47
301.923	6.46
302.379	6.45
302.835	6.44
303.291	6.42
303.746	6.41
304.202	6.39
304.658	6.39
305.113	6.38
305.569	6.37
306.024	6.36
306.479	6.34
306.935	6.33
307.39	6.32
307.845	6.3
308.301	6.3
308.756	6.31
309.211	6.3
309.666	6.29
310.121	6.29
310.576	6.28
311.031	6.28
311.486	6.28
311.94	6.29
312.395	6.29
312.85	6.29
313.305	6.28
313.759	6.27
314.214	6.26
314.668	6.26
315.123	6.26
315.577	6.26
316.032	6.25
316.486	6.25
316.94	6.23
317.394	6.22
317.849	6.21
318.303	6.2
318.757	6.18
319.211	6.18
319.665	6.16
320.119	6.14
320.572	6.12
321.026	6.11
321.48	6.09
321.934	6.08
322.387	6.07
322.841	6.06
323.295	6.06
323.748	6.05
324.202	6.03
324.655	6.02
325.108	6.01
325.562	6.01
326.015	5.99
326.468	5.97
326.921	5.95
327.374	5.94
327.827	5.93
328.28	5.9
328.733	5.9
329.186	5.89
329.639	5.89
330.092	5.88
330.545	5.87
330.997	5.87
331.45	5.87
331.903	5.87
332.355	5.87
332.808	5.86
333.26	5.86
333.713	5.87
334.165	5.86
334.617	5.86
335.069	5.85
335.522	5.85
335.974	5.85
336.426	5.86
336.878	5.84
337.33	5.84
337.782	5.84
338.234	5.84
338.686	5.83
339.137	5.83
339.589	5.83
340.041	5.82
340.493	5.81
340.944	5.8
341.396	5.8
341.847	5.81
342.299	5.79
342.75	5.78
343.201	5.76
343.653	5.75
344.104	5.74
344.555	5.72
345.006	5.69
345.457	5.68
345.908	5.67
346.359	5.66
346.81	5.65
347.261	5.64
347.712	5.64
348.163	5.63
348.613	5.62
349.064	5.61
349.515	5.6
349.965	5.61
350.416	5.6
350.866	5.6
351.317	5.58
351.767	5.58
352.217	5.57
352.668	5.57
353.118	5.57
353.568	5.57
354.018	5.59
354.468	5.58
354.918	5.59
355.368	5.59
355.818	5.6
356.268	5.61
356.718	5.62
357.168	5.63
357.617	5.63
358.067	5.64
358.517	5.65
358.966	5.65
359.416	5.68
359.865	5.68
360.315	5.7
360.764	5.71
361.213	5.71
361.663	5.71
362.112	5.73
362.561	5.75
363.01	5.76
363.459	5.76
363.908	5.78
364.357	5.78
364.806	5.8
365.255	5.81
365.703	5.82
366.152	5.85
366.601	5.88
367.05	5.91
367.498	5.93
367.947	5.95
368.395	5.99
368.844	6.03
369.292	6.06
369.74	6.09
370.189	6.13
370.637	6.18
371.085	6.22
371.533	6.26
371.981	6.29
372.429	6.32
372.877	6.37
373.325	6.41
373.773	6.44
374.221	6.49
374.669	6.54
375.116	6.56
375.564	6.59
376.012	6.63
376.459	6.67
376.907	6.73
377.354	6.78
377.801	6.83
378.249	6.87
378.696	6.91
379.143	6.95
379.591	6.99
380.038	7.05
380.485	7.1
380.932	7.13
381.379	7.17
381.826	7.21
382.273	7.25
382.72	7.27
383.166	7.31
383.613	7.35
384.06	7.39
384.506	7.42
384.953	7.46
385.4	7.49
385.846	7.53
386.292	7.56
386.739	7.58
387.185	7.62
387.631	7.65
388.078	7.68
388.524	7.7
388.97	7.71
389.416	7.72
389.862	7.74
390.308	7.74
390.754	7.76
391.2	7.77
391.645	7.79
392.091	7.79
392.537	7.81
392.983	7.83
393.428	7.85
393.874	7.86
394.319	7.88
394.765	7.89
395.21	7.89
395.655	7.89
396.101	7.89
396.546	7.88
396.991	7.88
397.436	7.86
397.881	7.84
398.326	7.85
398.771	7.84
399.216	7.84
399.661	7.83
400.106	7.84
400.551	7.82
400.995	7.79
401.44	7.77
401.885	7.74
402.329	7.73
402.774	7.72
403.218	7.7
403.663	7.67
404.107	7.66
404.551	7.65
404.995	7.62
405.44	7.6
405.884	7.59
406.328	7.58
406.772	7.58
407.216	7.57
407.66	7.55
408.104	7.54
408.547	7.52
408.991	7.49
409.435	7.46
409.879	7.43
410.322	7.44
410.766	7.43
411.209	7.42
411.653	7.4
412.096	7.39
412.54	7.38
412.983	7.35
413.426	7.37
413.869	7.37
414.312	7.37
414.756	7.39
415.199	7.38
415.642	7.39
416.085	7.4
416.527	7.41
416.97	7.4
417.413	7.4
417.856	7.4
418.298	7.37
418.741	7.35
419.184	7.36
419.626	7.34
420.069	7.33
420.511	7.3
420.953	7.27
421.396	7.25
421.838	7.26
422.28	7.27
422.722	7.26
423.164	7.27
423.606	7.27
424.048	7.25
424.49	7.26
424.932	7.25
425.374	7.26
425.816	7.25
426.258	7.24
426.699	7.2
427.141	7.17
427.582	7.15
428.024	7.14
428.465	7.14
428.907	7.14
429.348	7.11
429.789	7.1
430.231	7.09
430.672	7.09
431.113	7.1
431.554	7.11
431.995	7.12
432.436	7.12
432.877	7.11
433.318	7.09
433.759	7.08
434.2	7.1
434.64	7.1
435.081	7.08
435.522	7.1
435.962	7.1
436.403	7.11
436.843	7.13
437.284	7.14
437.724	7.16
438.164	7.18
438.604	7.21
439.045	7.22
439.485	7.23
439.925	7.23
440.365	7.23
440.805	7.23
441.245	7.21
441.685	7.23
442.125	7.23
442.564	7.25
443.004	7.27
443.444	7.29
443.883	7.3
444.323	7.32
444.762	7.37
445.202	7.42
445.641	7.44
446.081	7.5
446.52	7.5
446.959	7.55
447.398	7.59
447.837	7.61
448.276	7.63
448.716	7.66
449.154	7.71
449.593	7.73
450.032	7.72
450.471	7.76
450.91	7.77
451.349	7.79
451.787	7.77
452.226	7.77
452.664	7.76
453.103	7.76
453.541	7.76
453.98	7.76
454.418	7.74
454.856	7.75
455.295	7.74
455.733	7.72
456.171	7.73
456.609	7.74
457.047	7.73
457.485	7.75
457.923	7.75
458.361	7.73
458.798	7.72
459.236	7.73
459.674	7.72
460.111	7.72
460.549	7.71
460.987	7.7
461.424	7.67
461.862	7.67
462.299	7.66
462.736	7.65
463.173	7.66
463.611	7.67
464.048	7.66
464.485	7.65
464.922	7.64
465.359	7.66
465.796	7.66
466.233	7.68
466.67	7.69
467.106	7.68
467.543	7.68
467.98	7.68
468.416	7.7
468.853	7.69
469.29	7.71
469.726	7.73
470.162	7.71
470.599	7.71
471.035	7.7
471.471	7.7
471.907	7.71
472.344	7.72
472.78	7.72
473.216	7.72
473.652	7.72
474.088	7.72
474.523	7.72
474.959	7.72
475.395	7.73
475.831	7.74
476.266	7.74
476.702	7.72
477.138	7.72
477.573	7.71
478.008	7.7
478.444	7.69
478.879	7.7
479.314	7.7
479.75	7.71
480.185	7.71
480.62	7.7
481.055	7.7
481.49	7.71
481.925	7.71
482.36	7.71
482.795	7.71
483.229	7.71
483.664	7.71
484.099	7.7
484.534	7.72
484.968	7.72
485.403	7.73
485.837	7.73
486.271	7.74
486.706	7.76
487.14	7.77
487.574	7.79
488.009	7.82
488.443	7.84
488.877	7.87
489.311	7.89
489.745	7.93
490.179	7.96
490.613	8
491.046	8.04
491.48	8.08
491.914	8.13
492.348	8.18
492.781	8.23
493.215	8.28
493.648	8.35
494.082	8.41
494.515	8.48
494.948	8.55
495.382	8.63
495.815	8.71
496.248	8.78
496.681	8.86
497.114	8.94
497.547	9.04
497.98	9.15
498.413	9.24
498.846	9.34
499.279	9.46
499.711	9.56
500.144	9.69
500.577	9.81
501.009	9.94
501.442	10.08
501.874	10.22
502.306	10.37
502.739	10.51
503.171	10.68
503.603	10.86
504.036	11.03
504.468	11.22
504.9	11.43
505.332	11.63
505.764	11.85
506.196	12.05
506.627	12.28
507.059	12.52
507.491	12.75
507.923	13.01
508.354	13.26
508.786	13.52
509.217	13.77
509.649	14.05
510.08	14.32
510.512	14.59
510.943	14.89
511.374	15.19
511.805	15.49
512.237	15.79
512.668	16.09
513.099	16.4
513.53	16.73
513.961	17.07
514.391	17.37
514.822	17.7
515.253	18.04
515.684	18.38
516.114	18.74
516.545	19.08
516.975	19.43
517.406	19.78
517.836	20.11
518.267	20.44
518.697	20.8
519.127	21.14
519.558	21.48
519.988	21.8
520.418	22.13
520.848	22.43
521.278	22.76
521.708	22.98
522.138	23.28
522.567	23.6
522.997	23.89
523.427	24.17
523.857	24.44
524.286	24.72
524.716	25.01
525.145	25.27
525.575	25.52
526.004	25.77
526.433	26.09
526.863	26.32
527.292	26.53
527.721	26.75
528.15	26.95
528.579	27.15
529.008	27.35
529.437	27.51
529.866	27.67
530.295	27.84
530.724	28
531.152	28.16
531.581	28.3
532.01	28.44
532.438	28.58
532.867	28.68
533.295	28.79
533.723	28.91
534.152	29.03
534.58	29.15
535.008	29.23
535.436	29.3
535.865	29.36
536.293	29.43
536.721	29.51
537.149	29.55
537.576	29.62
538.004	29.66
538.432	29.69
538.86	29.73
539.287	29.77
539.715	29.84
540.143	29.86
540.57	29.89
540.998	29.95
541.425	30
541.852	30.04
542.28	30.08
542.707	30.13
543.134	30.16
543.561	30.17
543.988	30.2
544.415	30.22
544.842	30.25
545.269	30.3
545.696	30.32
546.123	30.36
546.549	30.38
546.976	30.41
547.403	30.43
547.829	30.46
548.256	30.5
548.682	30.5
549.108	30.52
549.535	30.54
549.961	30.54
550.387	30.54
550.813	30.53
551.24	30.54
551.666	30.57
552.092	30.55
552.518	30.54
552.943	30.54
553.369	30.52
553.795	30.51
554.221	30.49
554.646	30.47
555.072	30.46
555.498	30.4
555.923	30.36
556.349	30.29
556.774	30.25
557.199	30.19
557.625	30.1
558.05	30.01
558.475	29.9
558.9	29.81
559.325	29.7
559.75	29.59
560.175	29.5
560.6	29.37
561.025	29.25
561.449	29.12
561.874	29.01
562.299	28.89
562.723	28.78
563.148	28.65
563.572	28.53
563.997	28.39
564.421	28.24
564.846	28.09
565.27	27.94
565.694	27.78
566.118	27.61
566.542	27.45
566.966	27.28
567.39	27.1
567.814	26.95
568.238	26.75
568.662	26.57
569.086	26.4
569.509	26.23
569.933	26.04
570.357	25.86
570.78	25.68
571.204	25.49
571.627	25.3
572.05	25.13
572.474	24.96
572.897	24.8
573.32	24.63
573.743	24.47
574.166	24.3
574.589	24.14
575.012	24.01
575.435	23.84
575.858	23.72
576.281	23.59
576.704	23.46
577.126	23.34
577.549	23.22
577.972	23.1
578.394	22.99
578.817	22.87
579.239	22.77
579.661	22.65
580.084	22.58
580.506	22.48
580.928	22.39
581.35	22.31
581.772	22.21
582.194	22.11
582.616	22.02
583.038	21.93
583.46	21.86
583.882	21.77
584.303	21.69
584.725	21.61
585.147	21.51
585.568	21.42
585.99	21.34
586.411	21.26
586.833	21.18
587.254	21.1
587.675	21.04
588.096	20.98
588.518	20.9
588.939	20.85
589.36	20.78
589.781	20.74
590.202	20.69
590.623	20.63
591.043	20.57
591.464	20.53
591.885	20.48
592.305	20.45
592.726	20.39
593.147	20.36
593.567	20.32
593.987	20.29
594.408	20.25
594.828	20.21
595.248	20.16
595.669	20.14
596.089	20.11
596.509	20.07
596.929	20.02
597.349	19.97
597.769	19.91
598.189	19.86
598.608	19.8
599.028	19.75
599.448	19.72
599.867	19.68
600.287	19.64
600.706	19.58
601.126	19.52
601.545	19.47
601.965	19.43
602.384	19.37
602.803	19.3
603.222	19.24
603.641	19.18
604.061	19.11
604.48	19.04
604.898	18.96
605.317	18.89
605.736	18.81
606.155	18.72
606.574	18.63
606.992	18.54
607.411	18.47
607.829	18.34
608.248	18.25
608.666	18.17
609.085	18.07
609.503	17.97
609.921	17.88
610.339	17.81
610.758	17.73
611.176	17.65
611.594	17.57
612.012	17.49
612.43	17.44
612.847	17.36
613.265	17.27
613.683	17.18
614.101	17.09
614.518	16.99
614.936	16.9
615.353	16.81
615.771	16.72
616.188	16.64
616.606	16.55
617.023	16.47
617.44	16.38
617.857	16.31
618.274	16.25
618.691	16.19
619.108	16.14
619.525	16.08
619.942	16.04
620.359	16
620.776	15.96
621.192	15.92
621.609	15.88
622.026	15.86
622.442	15.82
622.859	15.78
623.275	15.76
623.691	15.74
624.108	15.74
624.524	15.71
624.94	15.68
625.356	15.68
625.772	15.67
626.188	15.66
626.604	15.64
627.02	15.64
627.436	15.63
627.852	15.62
628.268	15.6
628.683	15.56
629.099	15.54
629.514	15.51
629.93	15.47
630.345	15.44
630.761	15.39
631.176	15.36
631.591	15.29
632.007	15.24
632.422	15.18
632.837	15.1
633.252	15.05
633.667	14.96
634.082	14.88
634.497	14.77
634.911	14.68
635.326	14.58
635.741	14.45
636.155	14.35
636.57	14.25
636.984	14.09
637.399	13.95
637.813	13.8
638.228	13.67
638.642	13.53
639.056	13.38
639.47	13.22
639.884	13.06
640.298	12.91
640.712	12.75
641.126	12.58
641.54	12.45
641.954	12.32
642.368	12.18
642.781	12.04
643.195	11.88
643.609	11.77
644.022	11.63
644.436	11.49
644.849	11.38
645.262	11.28
645.676	11.17
646.089	11.06
646.502	10.96
646.915	10.87
647.328	10.77
647.741	10.68
648.154	10.62
648.567	10.57
648.98	10.53
649.393	10.47
649.805	10.41
650.218	10.36
650.631	10.31
651.043	10.27
651.456	10.22
651.868	10.17
652.28	10.13
652.693	10.07
653.105	10.01
653.517	9.95
653.929	9.9
654.341	9.86
654.753	9.79
655.165	9.74
655.577	9.66
655.989	9.58
656.401	9.5
656.813	9.43
657.224	9.34
657.636	9.24
658.047	9.17
658.459	9.07
658.87	8.96
659.282	8.88
659.693	8.78
660.104	8.69
660.515	8.61
660.926	8.54
661.338	8.45
661.749	8.36
662.159	8.29
662.57	8.19
662.981	8.12
663.392	8.04
663.803	7.95
664.213	7.87
664.624	7.81
665.035	7.74
665.445	7.69
665.855	7.63
666.266	7.58
666.676	7.53
667.086	7.49
667.497	7.44
667.907	7.41
668.317	7.38
668.727	7.36
669.137	7.33
669.547	7.32
669.956	7.29
670.366	7.3
670.776	7.29
671.186	7.3
671.595	7.3
672.005	7.3
672.414	7.31
672.824	7.33
673.233	7.35
673.642	7.36
674.052	7.38
674.461	7.4
674.87	7.42
675.279	7.46
675.688	7.48
676.097	7.52
676.506	7.57
676.915	7.62
677.323	7.66
677.732	7.72
678.141	7.79
678.549	7.85
678.958	7.93
679.366	7.99
679.775	8.06
680.183	8.14
680.592	8.24
681	8.33
681.408	8.44
681.816	8.57
682.224	8.7
682.632	8.85
683.04	8.99
683.448	9.16
683.856	9.37
684.264	9.59
684.671	9.84
685.079	10.11
685.487	10.39
685.894	10.69
686.302	11.02
686.709	11.39
687.116	11.78
687.524	12.2
687.931	12.64
688.338	13.1
688.745	13.6
689.152	14.13
689.559	14.68
689.966	15.23
690.373	15.83
690.78	16.45
691.187	17.07
691.593	17.7
692	18.35
692.407	19.04
692.813	19.73
693.22	20.39
693.626	21.08
694.032	21.77
694.439	22.5
694.845	23.2
695.251	23.9
695.657	24.59
696.063	25.28
696.469	25.98
696.875	26.66
697.281	27.32
697.687	28.01
698.093	28.68
698.498	29.34
698.904	30
699.31	30.63
699.715	31.25
700.12	31.86
700.526	32.46
700.931	33.05
701.337	33.65
701.742	34.21
702.147	34.79
702.552	35.33
702.957	35.88
703.362	36.43
703.767	36.97
704.172	37.51
704.577	38.04
704.981	38.57
705.386	39.08
705.791	39.56
706.195	40.05
706.6	40.5
707.004	40.96
707.408	41.4
707.813	41.81
708.217	42.22
708.621	42.63
709.025	43.03
709.43	43.41
709.834	43.83
710.237	44.22
710.641	44.6
711.045	44.99
711.449	45.38
711.853	45.75
712.256	46.14
712.66	46.49
713.064	46.86
713.467	47.23
713.87	47.54
714.274	47.87
714.677	48.2
715.08	48.5
715.484	48.82
715.887	49.15
716.29	49.44
716.693	49.71
717.096	50.01
717.499	50.27
717.901	50.54
718.304	50.81
718.707	51.07
719.109	51.34
719.512	51.64
719.915	51.88
720.317	52.09
720.719	52.34
721.122	52.59
721.524	52.84
721.926	53.06
722.328	53.28
722.731	53.54
723.133	53.74
723.535	53.98
723.937	54.16
724.338	54.32
724.74	54.49
725.142	54.67
725.544	54.83
725.945	54.98
726.347	55.13
726.748	55.27
727.15	55.41
727.551	55.57
727.952	55.66
728.354	55.8
728.755	55.94
729.156	56.07
729.557	56.2
729.958	56.33
730.359	56.45
730.76	56.54
731.161	56.68
731.562	56.77
731.962	56.89
732.363	56.98
732.763	57.07
733.164	57.15
733.564	57.23
733.965	57.28
734.365	57.33
734.766	57.37
735.166	57.43
735.566	57.47
735.966	57.51
736.366	57.52
736.766	57.56
737.166	57.62
737.566	57.69
737.966	57.74
738.365	57.79
738.765	57.85
739.165	57.89
739.564	57.95
739.964	57.97
740.363	58.04
740.763	58.06
741.162	58.11
741.561	58.13
741.96	58.16
742.36	58.2
742.759	58.23
743.158	58.22
743.557	58.24
743.955	58.3
744.354	58.35
744.753	58.37
745.152	58.41
745.55	58.42
745.949	58.45
746.348	58.47
746.746	58.48
747.144	58.53
747.543	58.58
747.941	58.67
748.339	58.7
748.737	58.74
749.136	58.76
749.534	58.79
749.932	58.81
750.33	58.83
750.727	58.84
751.125	58.88
751.523	58.87
751.921	58.92
752.318	58.88
752.716	58.86
753.113	58.82
753.511	58.79
753.908	58.78
754.305	58.77
754.703	58.76
755.1	58.72
755.497	58.7
755.894	58.69
756.291	58.67
756.688	58.7
757.085	58.7
757.482	58.74
757.878	58.79
758.275	58.78
758.672	58.83
759.068	58.83
759.465	58.86
759.861	58.87
760.258	58.89
760.654	58.88
761.05	58.85
761.447	58.84
761.843	58.83
762.239	58.8
762.635	58.79
763.031	58.75
763.427	58.73
763.822	58.73
764.218	58.71
764.614	58.66
765.01	58.64
765.405	58.6
765.801	58.6
766.196	58.56
766.592	58.55
766.987	58.53
767.382	58.52
767.778	58.54
768.173	58.51
768.568	58.47
768.963	58.5
769.358	58.48
769.753	58.52
770.148	58.5
770.542	58.45
770.937	58.43
771.332	58.42
771.726	58.39
772.121	58.37
772.515	58.36
772.91	58.36
773.304	58.32
773.699	58.29
774.093	58.2
774.487	58.2
774.881	58.2
775.275	58.18
775.669	58.18
776.063	58.16
776.457	58.11
776.851	58.09
777.245	58.08
777.638	58.06
778.032	58.12
778.425	58.15
778.819	58.12
779.212	58.13
779.606	58.14
779.999	58.13
780.392	58.12
780.786	58.13
781.179	58.17
781.572	58.15
781.965	58.18
782.358	58.15
782.751	58.16
783.143	58.19
783.536	58.25
783.929	58.27
784.322	58.32
784.714	58.35
785.107	58.42
785.499	58.42
785.891	58.43
786.284	58.44
786.676	58.5
787.068	58.51
787.46	58.51
787.852	58.51
788.245	58.52
788.636	58.49
789.028	58.47
789.42	58.43
789.812	58.43
790.204	58.41
790.595	58.4
790.987	58.38
791.378	58.39
791.77	58.42
792.161	58.42
792.553	58.41
792.944	58.47
793.335	58.52
793.726	58.51
794.117	58.5
794.508	58.57
794.899	58.58
795.29	58.57
795.681	58.58
796.072	58.55
796.463	58.53
796.853	58.53
797.244	58.47
797.634	58.43
798.025	58.46
798.415	58.45
798.806	58.45
799.196	58.47
799.586	58.47
799.976	58.47
800.366	58.47
800.756	58.47
801.146	58.48
801.536	58.49
801.926	58.52
802.316	58.54
802.706	58.57
803.095	58.54
803.485	58.55
803.874	58.54
804.264	58.56
804.653	58.57
805.043	58.57
805.432	58.53
805.821	58.55
806.21	58.58
806.599	58.57
806.988	58.56
807.377	58.62
807.766	58.59
808.155	58.6
808.544	58.56
808.933	58.58
809.321	58.61
809.71	58.68
810.098	58.64
810.487	58.62
810.875	58.59
811.264	58.63
811.652	58.61
812.04	58.64
812.428	58.67
812.816	58.69
813.204	58.67
813.592	58.67
813.98	58.66
814.368	58.69
814.756	58.73
815.144	58.8
815.531	58.79
815.919	58.8
816.306	58.8
816.694	58.84
817.081	58.82
817.469	58.87
817.856	58.92
818.243	58.93
818.63	59
819.017	59
819.404	59
819.791	59.03
820.178	59.04
820.565	59.05
820.952	59.07
821.339	59.11
821.725	59.13
822.112	59.15
822.498	59.19
822.885	59.2
823.271	59.25
823.657	59.27
824.044	59.26
824.43	59.32
824.816	59.35
825.202	59.34
825.588	59.36
825.974	59.35
826.36	59.34
826.746	59.35
827.132	59.3
827.517	59.28
827.903	59.28
828.289	59.3
828.674	59.25
829.06	59.25
829.445	59.26
829.83	59.25
830.216	59.24
830.601	59.22
830.986	59.21
831.371	59.25
831.756	59.23
832.141	59.26
832.526	59.25
832.911	59.31
833.295	59.3
833.68	59.29
834.065	59.32
834.449	59.31
834.834	59.31
835.218	59.29
835.603	59.27
835.987	59.28
836.371	59.24
836.755	59.23
837.139	59.16
837.524	59.19
837.908	59.18
838.291	59.14
838.675	59.16
839.059	59.14
839.443	59.15
839.827	59.16
840.21	59.15
840.594	59.13
840.977	59.1
841.361	59.13
841.744	59.12
842.127	59.12
842.511	59.1
842.894	59.07
843.277	59.06
843.66	59.04
844.043	59.04
844.426	59.01
844.809	59
845.191	59
845.574	58.94
845.957	58.9
846.339	58.85
846.722	58.86
847.104	58.86
847.487	58.89
847.869	58.89
848.252	58.85
848.634	58.9
849.016	58.93
849.398	58.91
849.78	58.94
850.162	58.97
850.544	59.02
850.926	58.99
851.307	59.01
851.689	58.96
852.071	58.96
852.452	58.99
852.834	58.98
853.215	58.98
853.597	59.02
853.978	58.99
854.359	59
854.741	58.98
855.122	59.02
855.503	59.03
855.884	59.06
856.265	59.04
856.646	59.02
857.026	59.02
857.407	58.99
857.788	58.98
858.169	58.98
858.549	58.98
858.93	58.98
859.31	58.95
859.69	58.94
860.071	58.94
860.451	58.98
860.831	58.99
861.211	58.98
861.591	59.01
861.971	59.01
862.351	59.08
862.731	59.05
863.111	59.05
863.491	59.07
863.87	59.08
864.25	59.1
864.629	59.08
865.009	59.09
865.388	59.09
865.768	59.06
866.147	59.08
866.526	59.06
866.905	59.09
867.284	59.1
867.663	59.12
868.042	59.12
868.421	59.09
868.8	59.09
869.179	59.09
869.558	59.1
869.936	59.11
870.315	59.11
870.693	59.09
871.072	59.05
871.45	59.07
871.828	59.05
872.207	59.08
872.585	59.09
872.963	59.07
873.341	59.06
873.719	59.06
874.097	59.04
874.475	59.02
874.853	59.04
875.23	59.05
875.608	59.04
875.986	59.03
876.363	58.98
876.741	59
877.118	58.99
877.495	58.99
877.873	58.98
878.25	58.96
878.627	58.98
879.004	58.98
879.381	58.96
879.758	58.95
880.135	58.92
880.512	58.91
880.889	58.89
881.265	58.94
881.642	58.93
882.019	58.95
882.395	58.95
882.772	58.94
883.148	58.91
883.524	58.91
883.901	58.89
884.277	58.93
884.653	58.96
885.029	58.96
885.405	58.92
885.781	58.9
886.157	58.89
886.532	58.88
886.908	58.89
887.284	58.91
887.659	58.93
888.035	58.93
888.411	58.88
888.786	58.88
889.161	58.86
889.537	58.88
889.912	58.87
890.287	58.86
890.662	58.86
891.037	58.83
891.412	58.81
891.787	58.78
892.162	58.78
892.536	58.77
892.911	58.73
893.286	58.7
893.66	58.65
894.035	58.64
894.409	58.62
894.784	58.6
895.158	58.6
895.532	58.57
895.906	58.55
896.281	58.52
896.655	58.51
897.029	58.52
897.402	58.53
897.776	58.57
898.15	58.56
898.524	58.57
898.898	58.54
899.271	58.53
899.645	58.52
900.018	58.55
900.392	58.56
900.765	58.62
901.138	58.62
901.511	58.62
901.884	58.6
902.258	58.59
902.631	58.59
903.003	58.63
903.376	58.64
903.749	58.65
904.122	58.65
904.495	58.63
904.867	58.57
905.24	58.55
905.612	58.51
905.985	58.46
906.357	58.43
906.729	58.37
907.102	58.34
907.474	58.36
907.846	58.33
908.218	58.24
908.59	58.21
908.962	58.2
909.334	58.18
909.705	58.19
910.077	58.2
910.449	58.25
910.82	58.25
911.192	58.23
911.563	58.16
911.935	58.14
912.306	58.19
912.677	58.24
913.048	58.21
913.419	58.23
913.79	58.25
914.161	58.24
914.532	58.18
914.903	58.17
915.274	58.14
915.645	58.16
916.015	58.15
916.386	58.09
916.756	58.02
917.127	58.04
917.497	58.01
917.868	57.97
918.238	57.99
918.608	58.01
918.978	58.01
919.348	57.98
919.718	57.93
920.088	57.96
920.458	58.03
920.828	58.07
921.198	58.1
921.567	58.07
921.937	58.08
922.306	58.06
922.676	58.07
923.045	58.08
923.415	58.09
923.784	58.13
924.153	58.13
924.522	58.05
924.891	58.03
925.26	57.98
925.629	57.99
925.998	57.98
926.367	57.98
926.736	57.89
927.104	57.88
927.473	57.91
927.842	57.87
928.21	57.87
928.578	57.87
928.947	57.8
929.315	57.75
929.683	57.77
930.051	57.71
930.42	57.68
930.788	57.73
931.156	57.7
931.523	57.69
931.891	57.65
932.259	57.56
932.627	57.48
932.994	57.47
933.362	57.42
933.729	57.32
934.097	57.31
934.464	57.24
934.831	57.17
935.199	57.14
935.566	57.06
935.933	57.12
936.3	57.03
936.667	57.01
937.034	56.99
937.401	56.98
937.767	56.97
938.134	56.94
938.501	56.93
938.867	56.93
939.234	56.87
939.6	56.88
939.967	56.68
940.333	56.8
940.699	56.88
941.065	56.92
941.431	57.01
941.798	57.04
942.163	57.1
942.529	57.16
942.895	57.15
943.261	57.13
943.627	57.1
943.992	57.11
944.358	57.05
944.723	57.03
945.089	57.04
945.454	57.05
945.82	57.01
946.185	56.98
946.55	57.08
946.915	57.08
947.28	57.19
947.645	57.17
948.01	57.3
948.375	57.36
948.74	57.34
949.104	57.32
949.469	57.19
949.834	57.24
950.198	57.18
950.562	57.04
950.927	57.01
951.291	56.96
951.655	56.92
952.02	56.84
952.384	56.83
952.748	56.8
953.112	56.75
953.476	56.79
953.839	56.77
954.203	56.72
954.567	56.69
954.931	56.66
955.294	56.62
955.658	56.62
956.021	56.65
956.385	56.65
956.748	56.69
957.111	56.66
957.474	56.66
957.837	56.69
958.2	56.64
958.563	56.67
958.926	56.62
959.289	56.63
959.652	56.65
960.015	56.59
960.377	56.5
960.74	56.4
961.102	56.37
961.465	56.37
961.827	56.27
962.189	56.24
962.552	56.13
962.914	56.09
963.276	56.06
963.638	55.92
964	55.87
964.362	55.9
964.724	55.91
965.085	55.96
965.447	55.89
965.809	55.81
966.17	55.83
966.532	55.91
966.893	55.9
967.255	55.83
967.616	55.86
967.977	55.85
968.338	55.8
968.699	55.8
969.061	55.73
969.421	55.71
969.782	55.74
970.143	55.71
970.504	55.66
970.865	55.65
971.225	55.65
971.586	55.69
971.946	55.65
972.307	55.66
972.667	55.72
973.027	55.74
973.388	55.74
973.748	55.68
974.108	55.64
974.468	55.58
974.828	55.63
975.188	55.67
975.548	55.69
975.907	55.67
976.267	55.64
976.627	55.56
976.986	55.52
977.346	55.52
977.705	55.59
978.064	55.67
978.424	55.73
978.783	55.72
979.142	55.67
979.501	55.55
979.86	55.59
980.219	55.53
980.578	55.52
980.937	55.51
981.296	55.45
981.654	55.44
982.013	55.45
982.371	55.39
982.73	55.34
983.088	55.35
983.447	55.33
983.805	55.34
984.163	55.36
984.521	55.2
984.879	55.17
985.237	55.26
985.595	55.25
985.953	55.15
986.311	55.22
986.669	55.19
987.026	55.18
987.384	55.17
987.741	55.2
988.099	55.21
988.456	55.38
988.814	55.36
989.171	55.28
989.528	55.16
989.885	55.17
990.242	55.18
990.599	55.23
990.956	55.2
991.313	55.29
991.67	55.16
992.027	55.17
992.383	55.12
992.74	55.13
993.096	55.14
993.453	55.21
993.809	55.27
994.165	55.32
994.522	55.34
994.878	55.3
995.234	55.37
995.59	55.39
995.946	55.49
996.302	55.39
996.658	55.32
997.013	55.31
997.369	55.44
997.725	55.47
998.08	55.34
998.436	55.31
998.791	55.27
999.147	55.2
999.502	55.29
999.857	55.29
1000.212	55.31
1000.567	55.41
1000.922	55.28
1001.277	54.96
1001.632	54.87
1001.987	54.75
1002.342	54.78
1002.696	54.91
1003.051	54.72
1003.406	54.67
1003.76	54.45
1004.114	54.57
1004.469	54.48
1004.823	54.64
1005.177	54.83
1005.531	54.69
1005.885	54.85
1006.239	54.69
1006.593	54.64
1006.947	54.71
1007.301	54.64
1007.655	54.67
1008.008	54.52
1008.362	54.49
1008.715	54.3
1009.069	54.04
1009.422	54.22
1009.776	54.05
1010.129	53.93
1010.482	54
1010.835	54.16
1011.188	53.92
1011.541	53.81
1011.894	53.87
1012.247	53.79
1012.6	53.98
1012.952	54.18
1013.305	53.86
1013.657	53.86
1014.01	53.96
1014.362	53.9
1014.715	53.73
1015.067	54.01
1015.419	54.28
1015.771	54.24
1016.123	54.38
1016.475	54.46
1016.827	54.69
1017.179	55
1017.531	54.85
1017.883	54.98
1018.234	54.9
1018.586	54.83
1018.938	54.56
1019.289	54.18
1019.64	54.31
1019.992	54.08
1020.343	53.76
1020.694	53.69
1021.045	53.41
1021.396	53.54
1021.747	53.32
1022.098	53.42
1022.449	53.44
1022.8	53.48
1023.151	53.53
1023.501	53.25
1023.852	53.32
1024.202	53.5
1024.553	52.81
1024.903	52.85
1025.253	52.92
1025.604	52.98
1025.954	52.56
1026.304	52.95
1026.654	53.35
1027.004	53.76
1027.354	53.91
1027.703	53.86
1028.053	53.36
1028.403	53.31
1028.753	53.45
1029.102	52.87
1029.452	52.44
1029.801	52.15
1030.15	51.54
1030.499	50.91
897.758	804.8
901.051	808.73
904.343	817.4
907.636	805.34
910.928	793.39
914.22	808.36
917.511	795.77
920.803	756.68
924.094	723.66
927.384	727.61
930.675	705.19
933.965	698.82
937.255	704.21
940.544	673.18
943.834	637.41
947.123	626.44
950.411	592.64
953.7	580.86
956.988	565.21
960.276	539.65
963.563	531
966.851	504.76
970.138	493.43
973.424	456.94
976.711	451.54
979.997	438.6
983.283	430.41
986.568	415.28
989.853	401.06
993.138	389.18
996.423	382.61
999.708	372.05
1002.992	371.34
1006.275	360.5
1009.559	358.26
1012.842	346.9
1016.125	335.98
1019.408	328.13
1022.69	324.4
1025.972	322.64
1029.254	312.24
1032.536	307.77
1035.817	297.93
1039.098	292.79
1042.379	286.35
1045.659	281.68
1048.939	278.93
1052.219	274.71
1055.498	268.66
1058.778	264.33
1062.057	259.76
1065.335	258.96
1068.614	254.08
1071.892	249.93
1075.17	245.97
1078.447	242.46
1081.724	240.42
1085.001	236.32
1088.278	234.83
1091.554	234.07
1094.83	233.31
1098.106	228.71
1101.382	227.03
1104.657	227.55
1107.932	226.78
1111.206	225.15
1114.481	222.16
1117.755	219.63
1121.029	219.32
1124.302	216.72
1127.575	213.08
1130.848	211.89
1134.121	209.23
1137.393	209.36
1140.665	205.88
1143.937	203.9
1147.208	200.39
1150.48	199.12
1153.75	199.05
1157.021	196.16
1160.291	195.18
1163.561	195.45
1166.831	192.47
1170.101	193.17
1173.37	189.94
1176.639	188.36
1179.907	189.16
1183.176	188.72
1186.444	189.23
1189.711	188.24
1192.979	189.41
1196.246	190.07
1199.513	188.76
1202.78	189.99
1206.046	189.85
1209.312	191.57
1212.578	193.24
1215.843	195.25
1219.108	196.9
1222.373	200.3
1225.638	202.85
1228.902	207.93
1232.166	213.82
1235.43	217.36
1238.693	222.43
1241.956	228.73
1245.219	235.65
1248.482	235.98
1251.744	235.02
1255.006	235.18
1258.268	229.21
1261.529	227.33
1264.79	220.79
1268.051	215.84
1271.312	213.56
1274.572	210.35
1277.832	203.15
1281.092	200.37
1284.351	197.09
1287.61	196.97
1290.869	196.98
1294.128	196.27
1297.386	194.34
1300.644	193.36
1303.902	192.94
1307.159	191.58
1310.416	192.59
1313.673	196.41
1316.93	197.01
1320.186	200.43
1323.442	202.38
1326.697	205.63
1329.953	207.45
1333.208	215.13
1336.463	225.16
1339.717	229.33
1342.972	240.81
1346.226	247.57
1349.479	249.12
1352.733	260.79
1355.986	265.73
1359.238	272.14
1362.491	275.2
1365.743	286.99
1368.995	289.2
1372.247	284.6
1375.498	283.55
1378.749	294.31
1382	293.93
1385.251	292.53
1388.501	291.31
1391.751	296.07
1395	293.27
1398.25	295.59
1401.499	294.08
1404.748	293.22
1407.996	289.93
1411.244	291.39
1414.492	285.27
1417.74	276.6
1420.987	271.86
1424.234	267.07
1427.481	255.69
1430.728	250.44
1433.974	241.26
1437.22	231.7
1440.465	224.02
1443.711	217.8
1446.956	210.77
1450.201	203.09
1453.445	194.37
1456.689	187.56
1459.933	181.63
1463.177	175.12
1466.42	171.64
1469.663	166.35
1472.906	162.33
1476.148	157.36
1479.391	153.31
1482.633	150.84
1485.874	147.15
1489.115	145.94
1492.356	144.26
1495.597	141.83
1498.838	140.17
1502.078	138.21
1505.318	137.9
1508.557	137
1511.797	135.63
1515.036	135.19
1518.274	133.98
1521.513	133.21
1524.751	132.21
1527.989	132.69
1531.227	132.21
1534.464	132.18
1537.701	131.13
1540.938	130.32
1544.174	130.13
1547.41	129.85
1550.646	129.86
1553.882	129.98
1557.117	128.73
1560.352	128.82
1563.587	127.26
1566.821	127.17
1570.055	126.46
1573.289	125.88
1576.523	126.08
1579.756	125.15
1582.989	126.06
1586.222	125.47
1589.454	125.17
1592.686	125.2
1595.918	124.86
1599.15	124.85
1602.381	125.11
1605.612	125.04
1608.843	125.28
1612.073	125.8
1615.303	125.88
1618.533	124.97
1621.762	125.32
1624.992	125.45
1628.221	125.58
1631.449	125.78
1634.678	125.55
1637.906	124.87
1641.134	125.21
1644.361	125.43
1647.588	124.98
1650.815	125.45
1654.042	125.42
1657.269	125.35
1660.495	125.58
1663.72	125.29
1666.946	125.95
1670.171	126.72
1673.396	127.65
1676.621	128.17
1679.845	127.96
1683.069	128.25
1686.293	127.68
1689.517	128.37
1692.74	128.58
1695.963	128.71
1699.185	130.05
1702.408	129.39
1705.63	129.28
1708.852	130.2
1712.073	129.7
1715.294	130.08
1718.515	130.51
1721.736	131.38
1724.956	131.25
1728.176	130.92
1731.396	132.11
1734.616	131.89
1737.835	132.73
1741.054	132.66
1744.272	131.76
1747.491	132.42
1750.709	132.48
1753.927	132.6
1757.144	132.43
1760.361	132.9
1763.578	133.73
1766.795	133.48
1770.011	133.91
1773.227	134.22
1776.443	135.29
1779.658	136.59
1782.874	137.14
1786.089	138.45
1789.303	138.59
1792.518	140.18
1795.732	141.18
1798.945	142.76
1802.159	143.06
1805.372	145.16
1808.585	146.29
1811.797	147.69
1815.01	148.1
1818.222	149.13
1821.434	149.87
1824.645	151.02
1827.856	153.1
1831.067	154.77
1834.278	155.24
1837.488	156.77
1840.698	157.94
1843.908	158.22
1847.117	160.53
1850.326	162.28
1853.535	162.65
1856.744	164.66
1859.952	166.72
1863.16	166.94
1866.368	164.77
1869.575	168.17
1872.782	166.54
1875.989	165.67
1879.196	164.93
1882.402	162.93
1885.608	163.82
1888.814	164.22
1892.019	165.35
1895.224	162.55
1898.429	164.23
1901.634	166.4
1904.838	165.3
1908.042	168.4
1911.246	167.47
1914.449	169.3
1917.652	168.68
1920.855	168.59
1924.058	168.6
1927.26	168.2
1930.462	169.46
1933.664	168.59
1936.865	167.93
1940.066	165.88
1943.267	164.8
1946.467	166.75
1949.668	166.49
1952.868	167.29
1956.067	166.79
1959.267	166.9
1962.466	167.77
1965.665	169.92
1968.863	170.3
1972.061	172.28
1975.259	176.03
1978.457	176.32
1981.654	178.2
1984.852	180.09
1988.048	182.55
1991.245	185.71
1994.441	190.2
1997.637	193.44
2000.833	195.95
2004.028	197.46
2007.223	204.21
2010.418	208.5
2013.613	217.4
2016.807	222.45
2020.001	226.99
2023.194	233.44
2026.388	240.96
2029.581	251.98
2032.774	260.51
2035.966	268.59
2039.158	277.83
2042.35	281.48
2045.542	286.38
2048.733	299.44
2051.924	302.37
2055.115	308.14
2058.306	310.35
2061.496	317.62
2064.686	317.31
2067.875	312.04
2071.065	316.14
2074.254	317.21
2077.442	326.41
2080.631	329.49
2083.819	328.91
2087.007	336.67
2090.195	341.92
2093.382	342.39
2096.569	341.46
2099.756	347.7
2102.942	358.07
2106.128	366.62
2109.314	367.78
2112.5	368.15
2115.685	364.72
2118.87	365.13
2122.055	368.34
2125.239	375.83
2128.424	383.91
2131.608	382.01
2134.791	382.92
2137.974	384.26
2141.157	385.46
2144.34	390.62
2147.523	395.59
2150.705	407.61
2153.887	403.41
2157.068	405.73
2160.25	408.57
2163.431	407.33
2166.611	415.79
2169.792	421.82
2172.972	427.99
2176.152	427.33
2179.331	436.97
2182.511	437.7
2185.69	442.02
2188.868	460.19
2192.047	470.37
2195.225	476.3
2198.403	486.17
2201.58	479.84
2204.758	493.02
2207.935	497.7
2211.111	510.88
2214.288	512.69
2217.464	519.2
2220.64	522.87
2223.815	525.65
2226.991	515.86
2230.166	520.69
2233.34	536.29
2236.515	550.84
2239.689	544.32
2242.863	553.12
2246.036	546.18
2249.209	561.63
2252.382	560.74
2255.555	580.44
2258.727	582.49
2261.9	604.75
2265.071	612.07
2268.243	602.86
2271.414	624.6
2274.585	638.88
2277.756	637.26
2280.926	665.51
2284.096	661.82
2287.266	664.02
2290.436	652.47
2293.605	667.9
2296.774	690.84
2299.942	691.96
2303.111	719.31
2306.279	726.64
2309.447	730.24
2312.614	733.26
2315.781	749.41
2318.948	758.31
2322.115	774.8
2325.281	812.36
2328.447	808.44
2331.613	808.11
2334.779	821.58
2337.944	828.98
2341.109	848.08
2344.274	856.48
2347.438	888.07
2350.602	895.13
2353.766	954.47
2356.929	955.96
2360.092	967.38
2363.255	972.81
2366.418	990.46
2369.58	1010.97
2372.742	1006.47
2375.904	1000.8
2379.066	1031.1
2382.227	1077.06
2385.388	1086.32
2388.548	1028.37
2391.709	1021.97
2394.869	1057.65
2398.029	1050.76
2401.188	1054.91
2404.347	1084.95
2407.506	1125.1
2410.665	1082.24
2413.823	1084.09
2416.981	1086.47
2420.139	1025.91
2423.296	1108.21
2426.453	1181.36
2429.61	1129.9
2432.767	1213.35
2435.923	1248.77
2439.079	1193.13
2442.235	1222.42
2445.391	1252.45
2448.546	1241.06
2451.701	1320.05
2454.855	1410.16
2458.009	1253.23
2461.163	1276.88
2464.317	1278.39
2467.471	1254.63
2470.624	1295.54
2473.777	1285.16
2476.929	1235.68
2480.082	1323.67
2483.234	1391.36
2486.385	1402.86
2489.537	1438.04
2492.688	1582.22
2495.839	1549.02
2498.989	1605.55
2502.14	1607.8
2505.29	1536.39
2508.439	1703.54
2511.589	1761.35
2514.738	1701.95
2517.887	1687.38
2521.035	1573.17
2524.183	1549.43
2527.331	1531.91
2530.479	1493.52
2533.627	1526.4
