Data from N_2_dec_nc_4n_069_Splice17_18.txt Node
Date: Sat Feb 29 14:06:21 EST 2020
User: sa697716
Spectrometer: FLMS03696
Trigger mode: 0
Integration Time (sec): 3.180400E-1
Scans to average: 20
Electric dark correction enabled: true
Nonlinearity correction enabled: true
Boxcar width: 5
XAxis mode: Wavelengths
Number of Pixels in Spectrum: 2048
>>>>>Begin Spectral Data<<<<<
187.83	33.18
188.298	22.48
188.766	34.86
189.233	23.05
189.701	31.72
190.169	36.16
190.636	26.91
191.104	-17.1
191.571	-254.61
192.039	-26.39
192.506	298.89
192.974	-1642
193.441	595.62
193.908	38.42
194.375	-12.77
194.842	-27.58
195.31	22.55
195.777	83.53
196.244	42.36
196.711	35.04
197.177	32.07
197.644	32.11
198.111	32.06
198.578	32.04
199.045	32.22
199.511	32.56
199.978	32.67
200.445	32.47
200.911	32.07
201.378	31.75
201.844	32.17
202.31	32.69
202.777	32.71
203.243	33.25
203.709	33.8
204.176	33.19
204.642	32.77
205.108	32.72
205.574	33.21
206.04	32.74
206.506	32.81
206.972	32.69
207.438	32.26
207.903	32.74
208.369	32.03
208.835	31.56
209.301	31.92
209.766	31.85
210.232	31.9
210.697	31.21
211.163	31.23
211.628	30.83
212.094	30.3
212.559	29.98
213.024	29.09
213.49	28.82
213.955	28.41
214.42	27.49
214.885	26.81
215.35	26.14
215.815	25.28
216.28	24.5
216.745	23.59
217.21	22.56
217.675	21.65
218.14	20.78
218.604	19.93
219.069	19.2
219.534	18.57
219.998	18.02
220.463	17.51
220.927	17.12
221.392	16.69
221.856	16.38
222.32	16.08
222.785	15.78
223.249	15.55
223.713	15.33
224.177	15.14
224.642	14.98
225.106	14.82
225.57	14.64
226.034	14.48
226.497	14.32
226.961	14.11
227.425	13.91
227.889	13.77
228.353	13.6
228.816	13.47
229.28	13.27
229.744	13.09
230.207	12.94
230.671	12.79
231.134	12.62
231.597	12.45
232.061	12.31
232.524	12.21
232.987	12.06
233.45	11.93
233.914	11.79
234.377	11.67
234.84	11.55
235.303	11.4
235.766	11.29
236.229	11.19
236.691	11.11
237.154	11.01
237.617	10.89
238.08	10.81
238.542	10.72
239.005	10.61
239.468	10.5
239.93	10.42
240.393	10.34
240.855	10.23
241.317	10.13
241.78	10.06
242.242	9.97
242.704	9.89
243.166	9.83
243.629	9.76
244.091	9.69
244.553	9.64
245.015	9.57
245.477	9.5
245.939	9.45
246.4	9.39
246.862	9.33
247.324	9.28
247.786	9.23
248.247	9.16
248.709	9.1
249.17	9.04
249.632	8.99
250.093	8.92
250.555	8.88
251.016	8.83
251.477	8.79
251.939	8.74
252.4	8.69
252.861	8.64
253.322	8.6
253.783	8.57
254.244	8.53
254.705	8.51
255.166	8.5
255.627	8.45
256.088	8.4
256.549	8.37
257.009	8.33
257.47	8.3
257.931	8.27
258.391	8.23
258.852	8.19
259.312	8.15
259.773	8.11
260.233	8.06
260.694	8.04
261.154	8.01
261.614	7.99
262.074	7.96
262.534	7.92
262.994	7.89
263.455	7.86
263.915	7.83
264.374	7.8
264.834	7.77
265.294	7.75
265.754	7.72
266.214	7.7
266.673	7.68
267.133	7.66
267.593	7.64
268.052	7.62
268.512	7.61
268.971	7.59
269.431	7.58
269.89	7.56
270.349	7.55
270.809	7.54
271.268	7.53
271.727	7.51
272.186	7.5
272.645	7.48
273.104	7.47
273.563	7.46
274.022	7.45
274.481	7.44
274.94	7.41
275.399	7.4
275.857	7.39
276.316	7.37
276.775	7.34
277.233	7.32
277.692	7.3
278.15	7.28
278.609	7.25
279.067	7.22
279.525	7.2
279.984	7.18
280.442	7.16
280.9	7.14
281.358	7.12
281.816	7.11
282.274	7.09
282.732	7.08
283.19	7.07
283.648	7.07
284.106	7.06
284.564	7.05
285.021	7.05
285.479	7.04
285.937	7.03
286.394	7.02
286.852	7.02
287.309	7
287.767	6.99
288.224	6.97
288.682	6.95
289.139	6.94
289.596	6.92
290.053	6.9
290.511	6.87
290.968	6.85
291.425	6.84
291.882	6.81
292.339	6.79
292.796	6.77
293.252	6.75
293.709	6.74
294.166	6.71
294.623	6.7
295.079	6.68
295.536	6.67
295.992	6.65
296.449	6.64
296.905	6.61
297.362	6.61
297.818	6.59
298.274	6.58
298.731	6.56
299.187	6.55
299.643	6.54
300.099	6.52
300.555	6.51
301.011	6.5
301.467	6.49
301.923	6.48
302.379	6.47
302.835	6.46
303.291	6.45
303.746	6.45
304.202	6.43
304.658	6.42
305.113	6.41
305.569	6.41
306.024	6.4
306.479	6.39
306.935	6.38
307.39	6.37
307.845	6.36
308.301	6.35
308.756	6.34
309.211	6.34
309.666	6.34
310.121	6.34
310.576	6.33
311.031	6.33
311.486	6.31
311.94	6.32
312.395	6.31
312.85	6.31
313.305	6.31
313.759	6.3
314.214	6.29
314.668	6.29
315.123	6.29
315.577	6.28
316.032	6.27
316.486	6.26
316.94	6.25
317.394	6.24
317.849	6.24
318.303	6.23
318.757	6.2
319.211	6.19
319.665	6.19
320.119	6.17
320.572	6.17
321.026	6.16
321.48	6.14
321.934	6.14
322.387	6.14
322.841	6.13
323.295	6.11
323.748	6.1
324.202	6.09
324.655	6.07
325.108	6.06
325.562	6.04
326.015	6.03
326.468	6.02
326.921	6
327.374	5.99
327.827	5.97
328.28	5.97
328.733	5.97
329.186	5.96
329.639	5.96
330.092	5.94
330.545	5.94
330.997	5.94
331.45	5.94
331.903	5.93
332.355	5.92
332.808	5.91
333.26	5.91
333.713	5.91
334.165	5.89
334.617	5.89
335.069	5.89
335.522	5.9
335.974	5.89
336.426	5.89
336.878	5.89
337.33	5.9
337.782	5.91
338.234	5.9
338.686	5.89
339.137	5.91
339.589	5.91
340.041	5.9
340.493	5.88
340.944	5.87
341.396	5.86
341.847	5.85
342.299	5.83
342.75	5.81
343.201	5.79
343.653	5.79
344.104	5.77
344.555	5.76
345.006	5.74
345.457	5.74
345.908	5.72
346.359	5.72
346.81	5.71
347.261	5.71
347.712	5.71
348.163	5.71
348.613	5.7
349.064	5.68
349.515	5.66
349.965	5.65
350.416	5.64
350.866	5.64
351.317	5.63
351.767	5.63
352.217	5.62
352.668	5.62
353.118	5.61
353.568	5.61
354.018	5.64
354.468	5.64
354.918	5.66
355.368	5.67
355.818	5.67
356.268	5.69
356.718	5.69
357.168	5.69
357.617	5.69
358.067	5.7
358.517	5.69
358.966	5.69
359.416	5.7
359.865	5.71
360.315	5.71
360.764	5.73
361.213	5.72
361.663	5.74
362.112	5.77
362.561	5.79
363.01	5.81
363.459	5.83
363.908	5.85
364.357	5.87
364.806	5.89
365.255	5.92
365.703	5.95
366.152	5.97
366.601	5.99
367.05	6.01
367.498	6.04
367.947	6.07
368.395	6.1
368.844	6.13
369.292	6.15
369.74	6.19
370.189	6.21
370.637	6.25
371.085	6.3
371.533	6.34
371.981	6.38
372.429	6.41
372.877	6.45
373.325	6.48
373.773	6.52
374.221	6.56
374.669	6.59
375.116	6.63
375.564	6.66
376.012	6.69
376.459	6.74
376.907	6.78
377.354	6.82
377.801	6.88
378.249	6.93
378.696	6.98
379.143	7.03
379.591	7.08
380.038	7.13
380.485	7.19
380.932	7.22
381.379	7.26
381.826	7.31
382.273	7.36
382.72	7.39
383.166	7.43
383.613	7.47
384.06	7.5
384.506	7.53
384.953	7.55
385.4	7.57
385.846	7.59
386.292	7.62
386.739	7.64
387.185	7.68
387.631	7.71
388.078	7.74
388.524	7.74
388.97	7.75
389.416	7.77
389.862	7.79
390.308	7.81
390.754	7.83
391.2	7.85
391.645	7.87
392.091	7.87
392.537	7.87
392.983	7.9
393.428	7.92
393.874	7.94
394.319	7.96
394.765	7.96
395.21	7.97
395.655	7.96
396.101	7.96
396.546	7.95
396.991	7.94
397.436	7.93
397.881	7.91
398.326	7.91
398.771	7.9
399.216	7.9
399.661	7.91
400.106	7.91
400.551	7.9
400.995	7.88
401.44	7.85
401.885	7.84
402.329	7.84
402.774	7.82
403.218	7.79
403.663	7.77
404.107	7.76
404.551	7.75
404.995	7.71
405.44	7.69
405.884	7.67
406.328	7.65
406.772	7.64
407.216	7.62
407.66	7.61
408.104	7.59
408.547	7.58
408.991	7.55
409.435	7.52
409.879	7.52
410.322	7.5
410.766	7.5
411.209	7.5
411.653	7.47
412.096	7.46
412.54	7.44
412.983	7.44
413.426	7.44
413.869	7.43
414.312	7.43
414.756	7.44
415.199	7.45
415.642	7.45
416.085	7.43
416.527	7.43
416.97	7.44
417.413	7.45
417.856	7.44
418.298	7.41
418.741	7.4
419.184	7.39
419.626	7.38
420.069	7.36
420.511	7.34
420.953	7.34
421.396	7.34
421.838	7.34
422.28	7.34
422.722	7.35
423.164	7.35
423.606	7.37
424.048	7.36
424.49	7.36
424.932	7.35
425.374	7.35
425.816	7.33
426.258	7.31
426.699	7.27
427.141	7.24
427.582	7.22
428.024	7.22
428.465	7.2
428.907	7.2
429.348	7.2
429.789	7.2
430.231	7.19
430.672	7.19
431.113	7.22
431.554	7.23
431.995	7.24
432.436	7.24
432.877	7.22
433.318	7.22
433.759	7.22
434.2	7.22
434.64	7.22
435.081	7.22
435.522	7.23
435.962	7.23
436.403	7.24
436.843	7.23
437.284	7.25
437.724	7.28
438.164	7.3
438.604	7.31
439.045	7.31
439.485	7.3
439.925	7.31
440.365	7.31
440.805	7.3
441.245	7.31
441.685	7.34
442.125	7.34
442.564	7.34
443.004	7.36
443.444	7.36
443.883	7.39
444.323	7.41
444.762	7.46
445.202	7.51
445.641	7.55
446.081	7.59
446.52	7.6
446.959	7.63
447.398	7.69
447.837	7.74
448.276	7.79
448.716	7.81
449.154	7.84
449.593	7.87
450.032	7.88
450.471	7.91
450.91	7.89
451.349	7.92
451.787	7.92
452.226	7.91
452.664	7.88
453.103	7.87
453.541	7.87
453.98	7.88
454.418	7.85
454.856	7.83
455.295	7.82
455.733	7.85
456.171	7.85
456.609	7.86
457.047	7.85
457.485	7.87
457.923	7.87
458.361	7.86
458.798	7.87
459.236	7.88
459.674	7.88
460.111	7.87
460.549	7.84
460.987	7.84
461.424	7.82
461.862	7.82
462.299	7.8
462.736	7.79
463.173	7.8
463.611	7.78
464.048	7.78
464.485	7.79
464.922	7.78
465.359	7.79
465.796	7.78
466.233	7.8
466.67	7.8
467.106	7.81
467.543	7.8
467.98	7.79
468.416	7.79
468.853	7.8
469.29	7.79
469.726	7.78
470.162	7.79
470.599	7.79
471.035	7.78
471.471	7.78
471.907	7.78
472.344	7.79
472.78	7.81
473.216	7.8
473.652	7.79
474.088	7.8
474.523	7.82
474.959	7.81
475.395	7.82
475.831	7.83
476.266	7.83
476.702	7.83
477.138	7.81
477.573	7.8
478.008	7.8
478.444	7.8
478.879	7.81
479.314	7.81
479.75	7.8
480.185	7.78
480.62	7.79
481.055	7.78
481.49	7.79
481.925	7.81
482.36	7.8
482.795	7.8
483.229	7.81
483.664	7.81
484.099	7.82
484.534	7.83
484.968	7.84
485.403	7.84
485.837	7.85
486.271	7.86
486.706	7.87
487.14	7.9
487.574	7.91
488.009	7.93
488.443	7.95
488.877	7.96
489.311	7.98
489.745	8.02
490.179	8.06
490.613	8.09
491.046	8.13
491.48	8.17
491.914	8.22
492.348	8.27
492.781	8.32
493.215	8.37
493.648	8.43
494.082	8.5
494.515	8.56
494.948	8.63
495.382	8.71
495.815	8.79
496.248	8.88
496.681	8.94
497.114	9.02
497.547	9.12
497.98	9.23
498.413	9.33
498.846	9.43
499.279	9.54
499.711	9.65
500.144	9.75
500.577	9.88
501.009	10.02
501.442	10.18
501.874	10.32
502.306	10.46
502.739	10.61
503.171	10.78
503.603	10.96
504.036	11.14
504.468	11.33
504.9	11.53
505.332	11.71
505.764	11.92
506.196	12.13
506.627	12.35
507.059	12.59
507.491	12.83
507.923	13.09
508.354	13.34
508.786	13.61
509.217	13.88
509.649	14.17
510.08	14.47
510.512	14.76
510.943	15.05
511.374	15.36
511.805	15.66
512.237	15.96
512.668	16.24
513.099	16.57
513.53	16.87
513.961	17.19
514.391	17.5
514.822	17.82
515.253	18.14
515.684	18.48
516.114	18.82
516.545	19.18
516.975	19.53
517.406	19.9
517.836	20.22
518.267	20.57
518.697	20.92
519.127	21.27
519.558	21.62
519.988	21.96
520.418	22.29
520.848	22.6
521.278	22.91
521.708	23.13
522.138	23.42
522.567	23.74
522.997	24.03
523.427	24.31
523.857	24.57
524.286	24.84
524.716	25.09
525.145	25.35
525.575	25.61
526.004	25.86
526.433	26.19
526.863	26.44
527.292	26.66
527.721	26.87
528.15	27.08
528.579	27.29
529.008	27.48
529.437	27.68
529.866	27.84
530.295	28.01
530.724	28.17
531.152	28.33
531.581	28.45
532.01	28.59
532.438	28.72
532.867	28.84
533.295	28.96
533.723	29.08
534.152	29.17
534.58	29.28
535.008	29.36
535.436	29.44
535.865	29.51
536.293	29.59
536.721	29.65
537.149	29.7
537.576	29.77
538.004	29.82
538.432	29.86
538.86	29.91
539.287	29.96
539.715	30
540.143	30.03
540.57	30.08
540.998	30.11
541.425	30.17
541.852	30.22
542.28	30.23
542.707	30.27
543.134	30.3
543.561	30.34
543.988	30.36
544.415	30.4
544.842	30.43
545.269	30.48
545.696	30.51
546.123	30.52
546.549	30.55
546.976	30.58
547.403	30.6
547.829	30.64
548.256	30.66
548.682	30.68
549.108	30.7
549.535	30.74
549.961	30.73
550.387	30.73
550.813	30.76
551.24	30.76
551.666	30.79
552.092	30.8
552.518	30.77
552.943	30.75
553.369	30.72
553.795	30.7
554.221	30.67
554.646	30.65
555.072	30.62
555.498	30.56
555.923	30.52
556.349	30.44
556.774	30.38
557.199	30.32
557.625	30.25
558.05	30.17
558.475	30.08
558.9	29.98
559.325	29.89
559.75	29.79
560.175	29.7
560.6	29.59
561.025	29.47
561.449	29.34
561.874	29.22
562.299	29.11
562.723	28.99
563.148	28.85
563.572	28.72
563.997	28.57
564.421	28.41
564.846	28.24
565.27	28.07
565.694	27.91
566.118	27.74
566.542	27.59
566.966	27.4
567.39	27.21
567.814	27.05
568.238	26.84
568.662	26.68
569.086	26.5
569.509	26.31
569.933	26.13
570.357	25.94
570.78	25.76
571.204	25.58
571.627	25.4
572.05	25.25
572.474	25.08
572.897	24.92
573.32	24.75
573.743	24.6
574.166	24.44
574.589	24.27
575.012	24.15
575.435	23.99
575.858	23.85
576.281	23.73
576.704	23.59
577.126	23.44
577.549	23.33
577.972	23.22
578.394	23.09
578.817	22.99
579.239	22.89
579.661	22.77
580.084	22.66
580.506	22.54
580.928	22.44
581.35	22.35
581.772	22.28
582.194	22.19
582.616	22.11
583.038	22.03
583.46	21.97
583.882	21.89
584.303	21.82
584.725	21.75
585.147	21.7
585.568	21.62
585.99	21.54
586.411	21.46
586.833	21.36
587.254	21.29
587.675	21.21
588.096	21.13
588.518	21.06
588.939	20.99
589.36	20.92
589.781	20.85
590.202	20.79
590.623	20.73
591.043	20.68
591.464	20.64
591.885	20.59
592.305	20.56
592.726	20.51
593.147	20.48
593.567	20.43
593.987	20.42
594.408	20.37
594.828	20.34
595.248	20.31
595.669	20.28
596.089	20.23
596.509	20.17
596.929	20.12
597.349	20.06
597.769	20
598.189	19.97
598.608	19.91
599.028	19.86
599.448	19.82
599.867	19.77
600.287	19.74
600.706	19.7
601.126	19.67
601.545	19.61
601.965	19.57
602.384	19.51
602.803	19.43
603.222	19.37
603.641	19.31
604.061	19.23
604.48	19.15
604.898	19.07
605.317	18.99
605.736	18.9
606.155	18.83
606.574	18.75
606.992	18.68
607.411	18.62
607.829	18.5
608.248	18.42
608.666	18.34
609.085	18.26
609.503	18.15
609.921	18.06
610.339	17.97
610.758	17.88
611.176	17.79
611.594	17.69
612.012	17.59
612.43	17.54
612.847	17.45
613.265	17.35
613.683	17.26
614.101	17.18
614.518	17.09
614.936	17.01
615.353	16.92
615.771	16.83
616.188	16.76
616.606	16.69
617.023	16.59
617.44	16.53
617.857	16.45
618.274	16.37
618.691	16.3
619.108	16.25
619.525	16.2
619.942	16.16
620.359	16.12
620.776	16.08
621.192	16.05
621.609	16.03
622.026	16
622.442	15.96
622.859	15.94
623.275	15.92
623.691	15.9
624.108	15.87
624.524	15.84
624.94	15.82
625.356	15.8
625.772	15.78
626.188	15.76
626.604	15.75
627.02	15.73
627.436	15.73
627.852	15.72
628.268	15.71
628.683	15.69
629.099	15.66
629.514	15.63
629.93	15.6
630.345	15.55
630.761	15.49
631.176	15.45
631.591	15.4
632.007	15.35
632.422	15.28
632.837	15.2
633.252	15.13
633.667	15.04
634.082	14.97
634.497	14.87
634.911	14.77
635.326	14.67
635.741	14.56
636.155	14.46
636.57	14.33
636.984	14.2
637.399	14.06
637.813	13.93
638.228	13.8
638.642	13.64
639.056	13.48
639.47	13.34
639.884	13.18
640.298	13.01
640.712	12.85
641.126	12.7
641.54	12.56
641.954	12.44
642.368	12.29
642.781	12.14
643.195	12.01
643.609	11.88
644.022	11.76
644.436	11.64
644.849	11.52
645.262	11.41
645.676	11.3
646.089	11.18
646.502	11.06
646.915	10.96
647.328	10.89
647.741	10.79
648.154	10.73
648.567	10.67
648.98	10.62
649.393	10.55
649.805	10.49
650.218	10.44
650.631	10.39
651.043	10.33
651.456	10.3
651.868	10.26
652.28	10.22
652.693	10.17
653.105	10.12
653.517	10.08
653.929	10.03
654.341	9.98
654.753	9.92
655.165	9.87
655.577	9.8
655.989	9.72
656.401	9.62
656.813	9.53
657.224	9.45
657.636	9.35
658.047	9.24
658.459	9.15
658.87	9.06
659.282	8.98
659.693	8.89
660.104	8.8
660.515	8.7
660.926	8.62
661.338	8.54
661.749	8.44
662.159	8.36
662.57	8.28
662.981	8.2
663.392	8.12
663.803	8.03
664.213	7.95
664.624	7.89
665.035	7.84
665.445	7.79
665.855	7.74
666.266	7.7
666.676	7.66
667.086	7.63
667.497	7.6
667.907	7.57
668.317	7.53
668.727	7.5
669.137	7.47
669.547	7.46
669.956	7.44
670.366	7.44
670.776	7.44
671.186	7.43
671.595	7.42
672.005	7.42
672.414	7.44
672.824	7.47
673.233	7.49
673.642	7.51
674.052	7.52
674.461	7.56
674.87	7.58
675.279	7.62
675.688	7.65
676.097	7.7
676.506	7.73
676.915	7.78
677.323	7.84
677.732	7.9
678.141	7.96
678.549	8.03
678.958	8.1
679.366	8.17
679.775	8.25
680.183	8.34
680.592	8.43
681	8.55
681.408	8.66
681.816	8.77
682.224	8.9
682.632	9.07
683.04	9.23
683.448	9.39
683.856	9.58
684.264	9.79
684.671	10.03
685.079	10.29
685.487	10.57
685.894	10.89
686.302	11.22
686.709	11.56
687.116	11.94
687.524	12.33
687.931	12.77
688.338	13.25
688.745	13.74
689.152	14.27
689.559	14.82
689.966	15.39
690.373	15.99
690.78	16.58
691.187	17.23
691.593	17.86
692	18.53
692.407	19.21
692.813	19.91
693.22	20.58
693.626	21.28
694.032	21.98
694.439	22.68
694.845	23.36
695.251	24.06
695.657	24.77
696.063	25.49
696.469	26.19
696.875	26.85
697.281	27.52
697.687	28.21
698.093	28.89
698.498	29.55
698.904	30.21
699.31	30.85
699.715	31.5
700.12	32.09
700.526	32.7
700.931	33.29
701.337	33.89
701.742	34.45
702.147	35.04
702.552	35.58
702.957	36.11
703.362	36.64
703.767	37.19
704.172	37.69
704.577	38.21
704.981	38.71
705.386	39.21
705.791	39.72
706.195	40.21
706.6	40.64
707.004	41.09
707.408	41.55
707.813	42.01
708.217	42.43
708.621	42.88
709.025	43.29
709.43	43.69
709.834	44.11
710.237	44.48
710.641	44.89
711.045	45.25
711.449	45.65
711.853	46.03
712.256	46.41
712.66	46.77
713.064	47.09
713.467	47.44
713.87	47.78
714.274	48.11
714.677	48.47
715.08	48.78
715.484	49.13
715.887	49.43
716.29	49.72
716.693	49.97
717.096	50.29
717.499	50.62
717.901	50.88
718.304	51.17
718.707	51.43
719.109	51.68
719.512	51.96
719.915	52.2
720.317	52.47
720.719	52.69
721.122	52.94
721.524	53.16
721.926	53.39
722.328	53.6
722.731	53.81
723.133	54.02
723.535	54.22
723.937	54.42
724.338	54.6
724.74	54.76
725.142	54.95
725.544	55.1
725.945	55.26
726.347	55.42
726.748	55.6
727.15	55.75
727.551	55.91
727.952	56.02
728.354	56.17
728.755	56.29
729.156	56.41
729.557	56.54
729.958	56.68
730.359	56.8
730.76	56.88
731.161	56.99
731.562	57.11
731.962	57.19
732.363	57.28
732.763	57.37
733.164	57.49
733.564	57.59
733.965	57.64
734.365	57.68
734.766	57.7
735.166	57.76
735.566	57.78
735.966	57.79
736.366	57.84
736.766	57.91
737.166	57.96
737.566	57.99
737.966	58.02
738.365	58.08
738.765	58.16
739.165	58.23
739.564	58.27
739.964	58.32
740.363	58.38
740.763	58.43
741.162	58.47
741.561	58.53
741.96	58.56
742.36	58.61
742.759	58.62
743.158	58.63
743.557	58.65
743.955	58.72
744.354	58.76
744.753	58.8
745.152	58.79
745.55	58.77
745.949	58.77
746.348	58.8
746.746	58.82
747.144	58.87
747.543	58.91
747.941	58.95
748.339	58.98
748.737	59.03
749.136	59.06
749.534	59.12
749.932	59.15
750.33	59.18
750.727	59.19
751.125	59.21
751.523	59.21
751.921	59.22
752.318	59.22
752.716	59.18
753.113	59.16
753.511	59.15
753.908	59.13
754.305	59.13
754.703	59.1
755.1	59.08
755.497	59.05
755.894	59.02
756.291	59.03
756.688	59.04
757.085	59.04
757.482	59.02
757.878	59.03
758.275	59.03
758.672	59.07
759.068	59.08
759.465	59.1
759.861	59.1
760.258	59.1
760.654	59.07
761.05	59.06
761.447	59.03
761.843	59.02
762.239	58.97
762.635	58.94
763.031	58.94
763.427	58.9
763.822	58.88
764.218	58.85
764.614	58.84
765.01	58.82
765.405	58.8
765.801	58.78
766.196	58.79
766.592	58.8
766.987	58.84
767.382	58.79
767.778	58.82
768.173	58.81
768.568	58.79
768.963	58.78
769.358	58.79
769.753	58.79
770.148	58.81
770.542	58.8
770.937	58.76
771.332	58.71
771.726	58.69
772.121	58.67
772.515	58.65
772.91	58.66
773.304	58.61
773.699	58.59
774.093	58.56
774.487	58.55
774.881	58.53
775.275	58.55
775.669	58.54
776.063	58.52
776.457	58.45
776.851	58.44
777.245	58.45
777.638	58.46
778.032	58.46
778.425	58.46
778.819	58.49
779.212	58.48
779.606	58.47
779.999	58.48
780.392	58.51
780.786	58.53
781.179	58.56
781.572	58.53
781.965	58.54
782.358	58.51
782.751	58.53
783.143	58.52
783.536	58.53
783.929	58.59
784.322	58.63
784.714	58.63
785.107	58.68
785.499	58.69
785.891	58.7
786.284	58.72
786.676	58.75
787.068	58.74
787.46	58.72
787.852	58.71
788.245	58.66
788.636	58.67
789.028	58.68
789.42	58.64
789.812	58.66
790.204	58.65
790.595	58.69
790.987	58.69
791.378	58.67
791.77	58.7
792.161	58.73
792.553	58.72
792.944	58.72
793.335	58.74
793.726	58.75
794.117	58.73
794.508	58.77
794.899	58.75
795.29	58.75
795.681	58.83
796.072	58.81
796.463	58.8
796.853	58.83
797.244	58.82
797.634	58.79
798.025	58.81
798.415	58.82
798.806	58.8
799.196	58.82
799.586	58.83
799.976	58.79
800.366	58.83
800.756	58.81
801.146	58.82
801.536	58.81
801.926	58.8
802.316	58.82
802.706	58.84
803.095	58.87
803.485	58.88
803.874	58.88
804.264	58.88
804.653	58.84
805.043	58.87
805.432	58.82
805.821	58.83
806.21	58.85
806.599	58.89
806.988	58.85
807.377	58.85
807.766	58.84
808.155	58.87
808.544	58.86
808.933	58.86
809.321	58.9
809.71	58.99
810.098	58.99
810.487	59.02
810.875	58.99
811.264	59.01
811.652	59.04
812.04	59.05
812.428	59.06
812.816	59.1
813.204	59.14
813.592	59.13
813.98	59.1
814.368	59.13
814.756	59.13
815.144	59.14
815.531	59.17
815.919	59.13
816.306	59.12
816.694	59.13
817.081	59.13
817.469	59.15
817.856	59.2
818.243	59.21
818.63	59.24
819.017	59.26
819.404	59.27
819.791	59.28
820.178	59.31
820.565	59.37
820.952	59.39
821.339	59.43
821.725	59.47
822.112	59.49
822.498	59.5
822.885	59.49
823.271	59.52
823.657	59.54
824.044	59.54
824.43	59.59
824.816	59.59
825.202	59.57
825.588	59.58
825.974	59.54
826.36	59.53
826.746	59.56
827.132	59.56
827.517	59.55
827.903	59.55
828.289	59.55
828.674	59.53
829.06	59.52
829.445	59.55
829.83	59.56
830.216	59.57
830.601	59.58
830.986	59.58
831.371	59.64
831.756	59.61
832.141	59.64
832.526	59.66
832.911	59.68
833.295	59.68
833.68	59.68
834.065	59.66
834.449	59.66
834.834	59.6
835.218	59.6
835.603	59.56
835.987	59.57
836.371	59.55
836.755	59.51
837.139	59.49
837.524	59.45
837.908	59.4
838.291	59.38
838.675	59.38
839.059	59.38
839.443	59.37
839.827	59.34
840.21	59.33
840.594	59.31
840.977	59.29
841.361	59.29
841.744	59.31
842.127	59.32
842.511	59.32
842.894	59.26
843.277	59.26
843.66	59.25
844.043	59.26
844.426	59.26
844.809	59.24
845.191	59.25
845.574	59.2
845.957	59.18
846.339	59.17
846.722	59.16
847.104	59.17
847.487	59.18
847.869	59.18
848.252	59.17
848.634	59.16
849.016	59.17
849.398	59.17
849.78	59.18
850.162	59.21
850.544	59.23
850.926	59.22
851.307	59.25
851.689	59.23
852.071	59.25
852.452	59.25
852.834	59.25
853.215	59.26
853.597	59.27
853.978	59.24
854.359	59.22
854.741	59.23
855.122	59.26
855.503	59.27
855.884	59.26
856.265	59.26
856.646	59.25
857.026	59.26
857.407	59.24
857.788	59.25
858.169	59.26
858.549	59.29
858.93	59.3
859.31	59.27
859.69	59.24
860.071	59.25
860.451	59.25
860.831	59.27
861.211	59.25
861.591	59.26
861.971	59.25
862.351	59.27
862.731	59.27
863.111	59.27
863.491	59.27
863.87	59.28
864.25	59.3
864.629	59.26
865.009	59.26
865.388	59.28
865.768	59.27
866.147	59.29
866.526	59.28
866.905	59.27
867.284	59.26
867.663	59.29
868.042	59.3
868.421	59.3
868.8	59.32
869.179	59.32
869.558	59.34
869.936	59.34
870.315	59.34
870.693	59.37
871.072	59.35
871.45	59.34
871.828	59.33
872.207	59.34
872.585	59.35
872.963	59.32
873.341	59.33
873.719	59.31
874.097	59.31
874.475	59.3
874.853	59.27
875.23	59.28
875.608	59.3
875.986	59.3
876.363	59.28
876.741	59.27
877.118	59.29
877.495	59.25
877.873	59.22
878.25	59.2
878.627	59.2
879.004	59.22
879.381	59.22
879.758	59.18
880.135	59.18
880.512	59.15
880.889	59.17
881.265	59.19
881.642	59.22
882.019	59.25
882.395	59.27
882.772	59.29
883.148	59.26
883.524	59.26
883.901	59.26
884.277	59.24
884.653	59.26
885.029	59.24
885.405	59.21
885.781	59.2
886.157	59.16
886.532	59.13
886.908	59.1
887.284	59.1
887.659	59.13
888.035	59.15
888.411	59.11
888.786	59.1
889.161	59.09
889.537	59.1
889.912	59.09
890.287	59.07
890.662	59.08
891.037	59.05
891.412	59.02
891.787	58.97
892.162	58.93
892.536	58.93
892.911	58.92
893.286	58.87
893.66	58.85
894.035	58.85
894.409	58.86
894.784	58.85
895.158	58.85
895.532	58.85
895.906	58.81
896.281	58.82
896.655	58.83
897.029	58.79
897.402	58.82
897.776	58.79
898.15	58.77
898.524	58.75
898.898	58.72
899.271	58.74
899.645	58.71
900.018	58.74
900.392	58.75
900.765	58.74
901.138	58.77
901.511	58.77
901.884	58.75
902.258	58.76
902.631	58.81
903.003	58.82
903.376	58.77
903.749	58.8
904.122	58.79
904.495	58.77
904.867	58.75
905.24	58.74
905.612	58.71
905.985	58.71
906.357	58.65
906.729	58.59
907.102	58.59
907.474	58.6
907.846	58.55
908.218	58.52
908.59	58.47
908.962	58.45
909.334	58.45
909.705	58.45
910.077	58.42
910.449	58.46
910.82	58.44
911.192	58.42
911.563	58.4
911.935	58.38
912.306	58.38
912.677	58.43
913.048	58.43
913.419	58.39
913.79	58.39
914.161	58.36
914.532	58.37
914.903	58.39
915.274	58.37
915.645	58.39
916.015	58.43
916.386	58.4
916.756	58.37
917.127	58.37
917.497	58.36
917.868	58.32
918.238	58.38
918.608	58.35
918.978	58.34
919.348	58.31
919.718	58.27
920.088	58.23
920.458	58.3
920.828	58.31
921.198	58.35
921.567	58.36
921.937	58.39
922.306	58.38
922.676	58.41
923.045	58.39
923.415	58.45
923.784	58.44
924.153	58.47
924.522	58.44
924.891	58.42
925.26	58.33
925.629	58.29
925.998	58.3
926.367	58.25
926.736	58.18
927.104	58.2
927.473	58.16
927.842	58.15
928.21	58.1
928.578	58.07
928.947	58
929.315	58.03
929.683	58.05
930.051	57.98
930.42	58
930.788	57.98
931.156	57.9
931.523	57.91
931.891	57.86
932.259	57.82
932.627	57.76
932.994	57.76
933.362	57.73
933.729	57.62
934.097	57.64
934.464	57.57
934.831	57.52
935.199	57.51
935.566	57.38
935.933	57.49
936.3	57.4
936.667	57.35
937.034	57.31
937.401	57.28
937.767	57.33
938.134	57.27
938.501	57.21
938.867	57.26
939.234	57.31
939.6	57.34
939.967	57.15
940.333	57.29
940.699	57.39
941.065	57.43
941.431	57.47
941.798	57.46
942.163	57.49
942.529	57.52
942.895	57.57
943.261	57.54
943.627	57.69
943.992	57.81
944.358	57.78
944.723	57.73
945.089	57.76
945.454	57.83
945.82	57.89
946.185	58
946.55	58.13
946.915	58.08
947.28	58.07
947.645	57.97
948.01	57.93
948.375	57.93
948.74	57.9
949.104	57.89
949.469	57.77
949.834	57.67
950.198	57.56
950.562	57.45
950.927	57.5
951.291	57.49
951.655	57.44
952.02	57.42
952.384	57.38
952.748	57.38
953.112	57.35
953.476	57.33
953.839	57.32
954.203	57.26
954.567	57.31
954.931	57.24
955.294	57.25
955.658	57.27
956.021	57.19
956.385	57.23
956.748	57.25
957.111	57.2
957.474	57.24
957.837	57.32
958.2	57.27
958.563	57.2
958.926	57.14
959.289	57.12
959.652	57.11
960.015	57.06
960.377	57.03
960.74	56.93
961.102	56.91
961.465	56.88
961.827	56.72
962.189	56.65
962.552	56.59
962.914	56.5
963.276	56.39
963.638	56.32
964	56.32
964.362	56.24
964.724	56.23
965.085	56.2
965.447	56.13
965.809	56.06
966.17	56.12
966.532	56.16
966.893	56.24
967.255	56.21
967.616	56.28
967.977	56.3
968.338	56.33
968.699	56.37
969.061	56.37
969.421	56.35
969.782	56.41
970.143	56.4
970.504	56.28
970.865	56.2
971.225	56.23
971.586	56.22
971.946	56.19
972.307	56.11
972.667	56.1
973.027	56.09
973.388	56.09
973.748	56.12
974.108	56.1
974.468	56.19
974.828	56.23
975.188	56.27
975.548	56.2
975.907	56.23
976.267	56.21
976.627	56.19
976.986	56.15
977.346	56.07
977.705	56.02
978.064	55.99
978.424	55.94
978.783	55.98
979.142	55.9
979.501	55.83
979.86	55.75
980.219	55.72
980.578	55.74
980.937	55.8
981.296	55.87
981.654	55.97
982.013	56.03
982.371	56.02
982.73	55.95
983.088	55.88
983.447	56
983.805	56.08
984.163	56.08
984.521	55.94
984.879	55.89
985.237	55.89
985.595	55.84
985.953	55.81
986.311	55.83
986.669	55.76
987.026	55.91
987.384	55.84
987.741	55.83
988.099	55.87
988.456	55.97
988.814	55.9
989.171	55.88
989.528	55.77
989.885	55.69
990.242	55.8
990.599	55.89
990.956	55.79
991.313	55.83
991.67	55.85
992.027	55.86
992.383	55.92
992.74	56
993.096	56.06
993.453	55.98
993.809	56.11
994.165	55.94
994.522	55.98
994.878	56.06
995.234	55.96
995.59	55.82
995.946	55.88
996.302	55.68
996.658	55.68
997.013	55.65
997.369	55.66
997.725	55.59
998.08	55.7
998.436	55.72
998.791	55.67
999.147	55.74
999.502	55.82
999.857	55.87
1000.212	55.89
1000.567	55.86
1000.922	55.84
1001.277	55.88
1001.632	56.04
1001.987	55.9
1002.342	55.82
1002.696	55.82
1003.051	55.64
1003.406	55.73
1003.76	55.62
1004.114	55.8
1004.469	55.72
1004.823	55.83
1005.177	56.03
1005.531	55.75
1005.885	55.8
1006.239	55.76
1006.593	55.71
1006.947	55.79
1007.301	55.77
1007.655	55.66
1008.008	55.5
1008.362	55.75
1008.715	55.61
1009.069	55.36
1009.422	55.36
1009.776	55.34
1010.129	55.36
1010.482	55.42
1010.835	55.61
1011.188	55.41
1011.541	55.21
1011.894	55.15
1012.247	54.88
1012.6	54.77
1012.952	54.93
1013.305	54.96
1013.657	55.05
1014.01	55.15
1014.362	55.23
1014.715	54.94
1015.067	55.17
1015.419	55.49
1015.771	55.8
1016.123	55.7
1016.475	55.72
1016.827	55.78
1017.179	55.83
1017.531	55.68
1017.883	55.45
1018.234	55.47
1018.586	55.83
1018.938	55.47
1019.289	55.32
1019.64	55.21
1019.992	55.26
1020.343	55.32
1020.694	55.07
1021.045	55.03
1021.396	55.17
1021.747	55.51
1022.098	55.51
1022.449	55.31
1022.8	55.24
1023.151	55.36
1023.501	55.35
1023.852	55.37
1024.202	55.47
1024.553	55.8
1024.903	55.78
1025.253	55.4
1025.604	55.04
1025.954	54.67
1026.304	54.78
1026.654	54.88
1027.004	54.94
1027.354	54.7
1027.703	54.52
1028.053	54.25
1028.403	53.6
1028.753	53.53
1029.102	53.91
1029.452	54.04
1029.801	54.23
1030.15	53.95
1030.499	53.99
897.758	800.6
901.051	808.4
904.343	815.7
907.636	800.69
910.928	788.39
914.22	806.16
917.511	793.6
920.803	753.03
924.094	719.66
927.384	722.76
930.675	704.25
933.965	697.61
937.255	700.31
940.544	670.07
943.834	637.42
947.123	626.45
950.411	591.18
953.7	580.47
956.988	564.66
960.276	538.51
963.563	531.32
966.851	502.05
970.138	491.54
973.424	455.61
976.711	450.41
979.997	436.45
983.283	428.14
986.568	413.09
989.853	399.38
993.138	387.52
996.423	381.82
999.708	370.06
1002.992	371.33
1006.275	358.49
1009.559	356.88
1012.842	345.03
1016.125	333.52
1019.408	326.56
1022.69	322.5
1025.972	321.03
1029.254	311.43
1032.536	306.4
1035.817	296.54
1039.098	291.04
1042.379	286.4
1045.659	280.96
1048.939	278.88
1052.219	275.34
1055.498	268.71
1058.778	264.45
1062.057	259.24
1065.335	258.11
1068.614	253.53
1071.892	249.34
1075.17	244.76
1078.447	241.08
1081.724	239.12
1085.001	234.52
1088.278	232.97
1091.554	232.82
1094.83	232.39
1098.106	227.69
1101.382	226.32
1104.657	225.98
1107.932	225.58
1111.206	223.93
1114.481	221.27
1117.755	218.79
1121.029	218.45
1124.302	215.89
1127.575	211.46
1130.848	210.16
1134.121	207.66
1137.393	207.19
1140.665	204.23
1143.937	202.37
1147.208	199.47
1150.48	197.57
1153.75	197.77
1157.021	195.16
1160.291	193.89
1163.561	194.4
1166.831	191.68
1170.101	192.18
1173.37	189.68
1176.639	188.22
1179.907	188.6
1183.176	188.45
1186.444	188.93
1189.711	187.69
1192.979	188.94
1196.246	190.19
1199.513	188.4
1202.78	189.51
1206.046	189.27
1209.312	190.68
1212.578	192.54
1215.843	194.41
1219.108	195.71
1222.373	199
1225.638	201.65
1228.902	206.62
1232.166	211.98
1235.43	215.97
1238.693	220.82
1241.956	227.44
1245.219	233.49
1248.482	234.27
1251.744	233.48
1255.006	233.61
1258.268	227.83
1261.529	225.96
1264.79	219.61
1268.051	214.86
1271.312	213
1274.572	210
1277.832	202.42
1281.092	199.98
1284.351	196.2
1287.61	196.05
1290.869	196.06
1294.128	195.37
1297.386	193.58
1300.644	192.79
1303.902	191.73
1307.159	190.37
1310.416	191.48
1313.673	195.44
1316.93	196.3
1320.186	200.06
1323.442	202.06
1326.697	205.49
1329.953	206.99
1333.208	214.53
1336.463	224.39
1339.717	229.16
1342.972	240.3
1346.226	246.61
1349.479	248.54
1352.733	259.9
1355.986	264.33
1359.238	270.92
1362.491	274.02
1365.743	285.77
1368.995	288.07
1372.247	283.45
1375.498	282.8
1378.749	292.94
1382	292.9
1385.251	293.04
1388.501	291.52
1391.751	296.77
1395	293.33
1398.25	295.41
1401.499	294.35
1404.748	293.55
1407.996	289.59
1411.244	290.83
1414.492	285.79
1417.74	277.11
1420.987	270.5
1424.234	265.78
1427.481	254.96
1430.728	249.72
1433.974	240.51
1437.22	231.03
1440.465	223.18
1443.711	217.05
1446.956	209.85
1450.201	202.31
1453.445	193.42
1456.689	186.86
1459.933	181.14
1463.177	174.09
1466.42	170.66
1469.663	165.14
1472.906	161.25
1476.148	155.98
1479.391	152.31
1482.633	150.02
1485.874	146.25
1489.115	144.84
1492.356	142.9
1495.597	140.46
1498.838	138.96
1502.078	137.12
1505.318	137.13
1508.557	135.93
1511.797	135.13
1515.036	134.24
1518.274	132.87
1521.513	132.04
1524.751	131.4
1527.989	132
1531.227	131.49
1534.464	131.31
1537.701	130.43
1540.938	129.58
1544.174	129.46
1547.41	129.29
1550.646	129.53
1553.882	129.66
1557.117	128.6
1560.352	128.47
1563.587	126.84
1566.821	126.72
1570.055	126
1573.289	125.45
1576.523	125.74
1579.756	125.08
1582.989	125.57
1586.222	124.98
1589.454	124.89
1592.686	124.95
1595.918	124.52
1599.15	124.77
1602.381	124.85
1605.612	124.8
1608.843	124.88
1612.073	125.42
1615.303	125.31
1618.533	124.49
1621.762	125.02
1624.992	125.06
1628.221	124.83
1631.449	125.36
1634.678	125.02
1637.906	124.79
1641.134	125.27
1644.361	125.37
1647.588	124.99
1650.815	125.3
1654.042	125.29
1657.269	125.06
1660.495	125.33
1663.72	125.16
1666.946	125.52
1670.171	126.35
1673.396	127.17
1676.621	127.28
1679.845	127.68
1683.069	127.44
1686.293	127.38
1689.517	127.76
1692.74	127.97
1695.963	128
1699.185	129.46
1702.408	129.04
1705.63	129.11
1708.852	129.61
1712.073	129.53
1715.294	129.54
1718.515	130.18
1721.736	130.77
1724.956	130.96
1728.176	130.55
1731.396	131.95
1734.616	131.44
1737.835	132.01
1741.054	132.09
1744.272	131.68
1747.491	132.21
1750.709	132.51
1753.927	132.74
1757.144	132.43
1760.361	133.13
1763.578	134.39
1766.795	133.96
1770.011	134.56
1773.227	134.98
1776.443	135.87
1779.658	136.74
1782.874	137.32
1786.089	138.27
1789.303	138.45
1792.518	140.1
1795.732	140.86
1798.945	142.23
1802.159	142.44
1805.372	144.29
1808.585	145.61
1811.797	146.76
1815.01	147.13
1818.222	148.22
1821.434	149.19
1824.645	150.43
1827.856	152.32
1831.067	154.01
1834.278	154.73
1837.488	156.63
1840.698	157.84
1843.908	157.89
1847.117	159.8
1850.326	162.01
1853.535	162.32
1856.744	164.47
1859.952	166.2
1863.16	166.65
1866.368	164.78
1869.575	167.06
1872.782	165.8
1875.989	164.75
1879.196	164.07
1882.402	162.7
1885.608	163.41
1888.814	163.71
1892.019	164.97
1895.224	162.62
1898.429	164.13
1901.634	165.96
1904.838	165.57
1908.042	167.93
1911.246	167.68
1914.449	169.44
1917.652	168.57
1920.855	168.25
1924.058	168.76
1927.26	167.57
1930.462	169.36
1933.664	168.45
1936.865	168.11
1940.066	165.76
1943.267	164.46
1946.467	166.22
1949.668	166.04
1952.868	166.44
1956.067	166.5
1959.267	166.29
1962.466	167.42
1965.665	169.26
1968.863	169.58
1972.061	170.87
1975.259	174.95
1978.457	176.01
1981.654	177.54
1984.852	179.34
1988.048	182.45
1991.245	185.04
1994.441	189.34
1997.637	192.51
2000.833	195.07
2004.028	196.46
2007.223	204.26
2010.418	207.74
2013.613	216.41
2016.807	221.44
2020.001	225.77
2023.194	232.49
2026.388	240.65
2029.581	251.45
2032.774	260.12
2035.966	268.04
2039.158	277.59
2042.35	281.15
2045.542	285.87
2048.733	298.96
2051.924	302.18
2055.115	307.8
2058.306	309.67
2061.496	316.93
2064.686	316.59
2067.875	312.15
2071.065	315.54
2074.254	316.39
2077.442	324.76
2080.631	328.78
2083.819	327.78
2087.007	336.29
2090.195	341.22
2093.382	341.36
2096.569	340.5
2099.756	346.56
2102.942	356.09
2106.128	365.31
2109.314	367.07
2112.5	367.1
2115.685	363.32
2118.87	363.95
2122.055	365.08
2125.239	373.78
2128.424	382.78
2131.608	380.21
2134.791	382.44
2137.974	382.56
2141.157	383.32
2144.34	388.29
2147.523	393.69
2150.705	405.86
2153.887	400.52
2157.068	403.8
2160.25	407.09
2163.431	404.57
2166.611	413.62
2169.792	418.78
2172.972	425.29
2176.152	426.02
2179.331	435.39
2182.511	436.15
2185.69	440.06
2188.868	459.89
2192.047	470.73
2195.225	475.33
2198.403	486.03
2201.58	478.83
2204.758	491.93
2207.935	496.15
2211.111	508.54
2214.288	509.82
2217.464	516.82
2220.64	520.89
2223.815	524.22
2226.991	513.81
2230.166	518.37
2233.34	533.36
2236.515	547.9
2239.689	542.08
2242.863	551.96
2246.036	543.9
2249.209	560.12
2252.382	557.49
2255.555	579.48
2258.727	580.56
2261.9	602.66
2265.071	610.73
2268.243	602.06
2271.414	624.68
2274.585	638.26
2277.756	637.21
2280.926	665.89
2284.096	662.54
2287.266	664.81
2290.436	651.9
2293.605	667.41
2296.774	690.67
2299.942	690.54
2303.111	718.14
2306.279	726.06
2309.447	728.6
2312.614	731.81
2315.781	747.08
2318.948	752.2
2322.115	770.63
2325.281	807.92
2328.447	802.72
2331.613	802.64
2334.779	816.79
2337.944	822.21
2341.109	840.38
2344.274	849.83
2347.438	878.51
2350.602	887.28
2353.766	949.47
2356.929	951.39
2360.092	961.36
2363.255	969.02
2366.418	985.22
2369.58	1004.93
2372.742	1005.59
2375.904	998.24
2379.066	1027.58
2382.227	1075.36
2385.388	1080.36
2388.548	1024.71
2391.709	1017.39
2394.869	1053.03
2398.029	1047.53
2401.188	1050.07
2404.347	1082.17
2407.506	1120.02
2410.665	1079.34
2413.823	1081.6
2416.981	1084.78
2420.139	1027.13
2423.296	1109.72
2426.453	1182.44
2429.61	1130.96
2432.767	1213.2
2435.923	1253.02
2439.079	1196.63
2442.235	1222.79
2445.391	1253.08
2448.546	1241.33
2451.701	1319.35
2454.855	1408.66
2458.009	1252.41
2461.163	1274.42
2464.317	1274.62
2467.471	1249.95
2470.624	1286.78
2473.777	1279.31
2476.929	1233.04
2480.082	1317.32
2483.234	1385.96
2486.385	1399.59
2489.537	1432.33
2492.688	1574.09
2495.839	1540.22
2498.989	1598.76
2502.14	1600.49
2505.29	1528.03
2508.439	1693.81
2511.589	1747.88
2514.738	1696.74
2517.887	1682.36
2521.035	1561.29
2524.183	1543.62
2527.331	1521.86
2530.479	1488.45
2533.627	1518.24
