Data from N_2_hir_il_4n_053_Splice17_13.txt Node
Date: Sat Feb 29 13:58:10 EST 2020
User: sa697716
Spectrometer: FLMS03696
Trigger mode: 0
Integration Time (sec): 3.180400E-1
Scans to average: 20
Electric dark correction enabled: true
Nonlinearity correction enabled: true
Boxcar width: 5
XAxis mode: Wavelengths
Number of Pixels in Spectrum: 2048
>>>>>Begin Spectral Data<<<<<
187.83	108.81
188.298	111.84
188.766	104.16
189.233	95.31
189.701	100.3
190.169	96.77
190.636	92.52
191.104	101.63
191.571	226.4
192.039	167.85
192.506	398.42
192.974	4231
193.441	-258.43
193.908	91.47
194.375	59.66
194.842	41.93
195.31	18.56
195.777	-21.2
196.244	6.57
196.711	14.57
197.177	14.68
197.644	15
198.111	15.3
198.578	15.47
199.045	16.33
199.511	16.99
199.978	17.63
200.445	17.89
200.911	18.21
201.378	18.59
201.844	18.98
202.31	19.82
202.777	20.15
203.243	20.76
203.709	21.42
204.176	21.37
204.642	21.46
205.108	21.51
205.574	21.84
206.04	21.83
206.506	21.98
206.972	22.05
207.438	21.66
207.903	21.97
208.369	21.66
208.835	21.3
209.301	21.34
209.766	21.14
210.232	21.31
210.697	20.99
211.163	20.87
211.628	20.2
212.094	19.82
212.559	19.53
213.024	19.25
213.49	18.92
213.955	18.95
214.42	18.49
214.885	18.29
215.35	17.87
215.815	17.57
216.28	17.08
216.745	16.78
217.21	16.22
217.675	15.6
218.14	14.85
218.604	14.26
219.069	13.81
219.534	13.43
219.998	13.01
220.463	12.67
220.927	12.4
221.392	12.15
221.856	11.91
222.32	11.73
222.785	11.55
223.249	11.42
223.713	11.31
224.177	11.13
224.642	11
225.106	10.88
225.57	10.73
226.034	10.59
226.497	10.44
226.961	10.31
227.425	10.15
227.889	10.03
228.353	9.88
228.816	9.77
229.28	9.61
229.744	9.46
230.207	9.34
230.671	9.24
231.134	9.12
231.597	9.04
232.061	8.92
232.524	8.83
232.987	8.72
233.45	8.63
233.914	8.51
234.377	8.45
234.84	8.39
235.303	8.3
235.766	8.19
236.229	8.11
236.691	8.02
237.154	7.95
237.617	7.87
238.08	7.8
238.542	7.7
239.005	7.64
239.468	7.55
239.93	7.47
240.393	7.41
240.855	7.35
241.317	7.28
241.78	7.22
242.242	7.14
242.704	7.07
243.166	7.01
243.629	6.98
244.091	6.93
244.553	6.88
245.015	6.82
245.477	6.76
245.939	6.7
246.4	6.65
246.862	6.59
247.324	6.54
247.786	6.52
248.247	6.45
248.709	6.39
249.17	6.34
249.632	6.29
250.093	6.25
250.555	6.19
251.016	6.16
251.477	6.11
251.939	6.07
252.4	6.03
252.861	5.99
253.322	5.95
253.783	5.92
254.244	5.89
254.705	5.87
255.166	5.84
255.627	5.81
256.088	5.77
256.549	5.75
257.009	5.72
257.47	5.69
257.931	5.65
258.391	5.62
258.852	5.57
259.312	5.54
259.773	5.5
260.233	5.46
260.694	5.43
261.154	5.4
261.614	5.37
262.074	5.34
262.534	5.31
262.994	5.28
263.455	5.26
263.915	5.23
264.374	5.22
264.834	5.2
265.294	5.17
265.754	5.15
266.214	5.13
266.673	5.11
267.133	5.09
267.593	5.07
268.052	5.05
268.512	5.03
268.971	5.01
269.431	4.99
269.89	4.97
270.349	4.96
270.809	4.94
271.268	4.93
271.727	4.91
272.186	4.9
272.645	4.88
273.104	4.86
273.563	4.85
274.022	4.84
274.481	4.82
274.94	4.81
275.399	4.79
275.857	4.77
276.316	4.75
276.775	4.73
277.233	4.71
277.692	4.7
278.15	4.68
278.609	4.66
279.067	4.65
279.525	4.63
279.984	4.6
280.442	4.59
280.9	4.57
281.358	4.56
281.816	4.55
282.274	4.53
282.732	4.51
283.19	4.51
283.648	4.5
284.106	4.48
284.564	4.47
285.021	4.46
285.479	4.44
285.937	4.42
286.394	4.4
286.852	4.4
287.309	4.39
287.767	4.37
288.224	4.35
288.682	4.33
289.139	4.33
289.596	4.31
290.053	4.29
290.511	4.27
290.968	4.26
291.425	4.25
291.882	4.23
292.339	4.21
292.796	4.19
293.252	4.18
293.709	4.17
294.166	4.15
294.623	4.14
295.079	4.12
295.536	4.11
295.992	4.09
296.449	4.08
296.905	4.06
297.362	4.04
297.818	4.03
298.274	4.02
298.731	4
299.187	3.98
299.643	3.98
300.099	3.97
300.555	3.95
301.011	3.95
301.467	3.94
301.923	3.92
302.379	3.92
302.835	3.92
303.291	3.9
303.746	3.9
304.202	3.88
304.658	3.87
305.113	3.86
305.569	3.86
306.024	3.85
306.479	3.83
306.935	3.83
307.39	3.82
307.845	3.81
308.301	3.81
308.756	3.81
309.211	3.8
309.666	3.8
310.121	3.79
310.576	3.78
311.031	3.77
311.486	3.77
311.94	3.77
312.395	3.76
312.85	3.75
313.305	3.75
313.759	3.75
314.214	3.75
314.668	3.74
315.123	3.74
315.577	3.74
316.032	3.74
316.486	3.72
316.94	3.72
317.394	3.71
317.849	3.69
318.303	3.69
318.757	3.67
319.211	3.65
319.665	3.64
320.119	3.63
320.572	3.63
321.026	3.61
321.48	3.61
321.934	3.62
322.387	3.61
322.841	3.61
323.295	3.6
323.748	3.6
324.202	3.59
324.655	3.59
325.108	3.57
325.562	3.55
326.015	3.54
326.468	3.53
326.921	3.51
327.374	3.49
327.827	3.49
328.28	3.48
328.733	3.47
329.186	3.46
329.639	3.46
330.092	3.45
330.545	3.45
330.997	3.45
331.45	3.45
331.903	3.44
332.355	3.44
332.808	3.43
333.26	3.43
333.713	3.44
334.165	3.44
334.617	3.43
335.069	3.43
335.522	3.42
335.974	3.42
336.426	3.42
336.878	3.42
337.33	3.41
337.782	3.4
338.234	3.4
338.686	3.39
339.137	3.4
339.589	3.39
340.041	3.39
340.493	3.38
340.944	3.36
341.396	3.35
341.847	3.35
342.299	3.34
342.75	3.32
343.201	3.31
343.653	3.3
344.104	3.27
344.555	3.26
345.006	3.24
345.457	3.24
345.908	3.23
346.359	3.23
346.81	3.22
347.261	3.21
347.712	3.21
348.163	3.2
348.613	3.18
349.064	3.17
349.515	3.17
349.965	3.17
350.416	3.17
350.866	3.16
351.317	3.15
351.767	3.16
352.217	3.15
352.668	3.15
353.118	3.16
353.568	3.17
354.018	3.18
354.468	3.17
354.918	3.18
355.368	3.18
355.818	3.18
356.268	3.18
356.718	3.17
357.168	3.16
357.617	3.15
358.067	3.14
358.517	3.13
358.966	3.12
359.416	3.13
359.865	3.12
360.315	3.11
360.764	3.11
361.213	3.1
361.663	3.1
362.112	3.11
362.561	3.11
363.01	3.12
363.459	3.1
363.908	3.1
364.357	3.09
364.806	3.08
365.255	3.09
365.703	3.08
366.152	3.08
366.601	3.08
367.05	3.08
367.498	3.07
367.947	3.07
368.395	3.08
368.844	3.07
369.292	3.06
369.74	3.06
370.189	3.05
370.637	3.06
371.085	3.06
371.533	3.05
371.981	3.05
372.429	3.04
372.877	3.03
373.325	3.02
373.773	3.03
374.221	3.03
374.669	3.03
375.116	3.02
375.564	3.01
376.012	3.01
376.459	3.02
376.907	3.02
377.354	3.03
377.801	3.04
378.249	3.05
378.696	3.06
379.143	3.06
379.591	3.07
380.038	3.08
380.485	3.08
380.932	3.09
381.379	3.08
381.826	3.09
382.273	3.09
382.72	3.08
383.166	3.08
383.613	3.07
384.06	3.08
384.506	3.08
384.953	3.09
385.4	3.09
385.846	3.09
386.292	3.11
386.739	3.1
387.185	3.13
387.631	3.14
388.078	3.15
388.524	3.15
388.97	3.16
389.416	3.16
389.862	3.17
390.308	3.19
390.754	3.21
391.2	3.22
391.645	3.24
392.091	3.25
392.537	3.26
392.983	3.28
393.428	3.3
393.874	3.32
394.319	3.34
394.765	3.35
395.21	3.35
395.655	3.37
396.101	3.39
396.546	3.41
396.991	3.42
397.436	3.41
397.881	3.44
398.326	3.47
398.771	3.49
399.216	3.52
399.661	3.54
400.106	3.57
400.551	3.6
400.995	3.6
401.44	3.6
401.885	3.63
402.329	3.66
402.774	3.67
403.218	3.68
403.663	3.68
404.107	3.71
404.551	3.73
404.995	3.74
405.44	3.74
405.884	3.75
406.328	3.78
406.772	3.8
407.216	3.82
407.66	3.84
408.104	3.85
408.547	3.87
408.991	3.86
409.435	3.88
409.879	3.89
410.322	3.92
410.766	3.95
411.209	3.98
411.653	3.97
412.096	3.98
412.54	3.99
412.983	4
413.426	4.02
413.869	4.04
414.312	4.07
414.756	4.09
415.199	4.11
415.642	4.14
416.085	4.15
416.527	4.18
416.97	4.22
417.413	4.23
417.856	4.25
418.298	4.25
418.741	4.25
419.184	4.26
419.626	4.26
420.069	4.26
420.511	4.25
420.953	4.24
421.396	4.24
421.838	4.25
422.28	4.26
422.722	4.27
423.164	4.28
423.606	4.3
424.048	4.29
424.49	4.31
424.932	4.31
425.374	4.31
425.816	4.31
426.258	4.29
426.699	4.28
427.141	4.27
427.582	4.27
428.024	4.28
428.465	4.29
428.907	4.3
429.348	4.29
429.789	4.31
430.231	4.33
430.672	4.36
431.113	4.39
431.554	4.4
431.995	4.42
432.436	4.43
432.877	4.4
433.318	4.39
433.759	4.39
434.2	4.4
434.64	4.41
435.081	4.37
435.522	4.38
435.962	4.4
436.403	4.43
436.843	4.43
437.284	4.44
437.724	4.48
438.164	4.5
438.604	4.52
439.045	4.53
439.485	4.53
439.925	4.57
440.365	4.55
440.805	4.52
441.245	4.51
441.685	4.53
442.125	4.54
442.564	4.55
443.004	4.56
443.444	4.57
443.883	4.58
444.323	4.57
444.762	4.6
445.202	4.65
445.641	4.69
446.081	4.72
446.52	4.72
446.959	4.72
447.398	4.75
447.837	4.78
448.276	4.78
448.716	4.8
449.154	4.83
449.593	4.83
450.032	4.84
450.471	4.85
450.91	4.84
451.349	4.85
451.787	4.85
452.226	4.83
452.664	4.8
453.103	4.81
453.541	4.8
453.98	4.79
454.418	4.77
454.856	4.73
455.295	4.71
455.733	4.69
456.171	4.68
456.609	4.68
457.047	4.67
457.485	4.68
457.923	4.67
458.361	4.67
458.798	4.67
459.236	4.69
459.674	4.71
460.111	4.73
460.549	4.72
460.987	4.73
461.424	4.73
461.862	4.72
462.299	4.72
462.736	4.72
463.173	4.73
463.611	4.73
464.048	4.73
464.485	4.73
464.922	4.71
465.359	4.72
465.796	4.72
466.233	4.73
466.67	4.74
467.106	4.72
467.543	4.71
467.98	4.7
468.416	4.7
468.853	4.7
469.29	4.68
469.726	4.7
470.162	4.69
470.599	4.69
471.035	4.7
471.471	4.69
471.907	4.73
472.344	4.72
472.78	4.71
473.216	4.7
473.652	4.7
474.088	4.7
474.523	4.69
474.959	4.69
475.395	4.69
475.831	4.68
476.266	4.68
476.702	4.66
477.138	4.66
477.573	4.65
478.008	4.64
478.444	4.63
478.879	4.62
479.314	4.62
479.75	4.62
480.185	4.61
480.62	4.6
481.055	4.59
481.49	4.59
481.925	4.57
482.36	4.58
482.795	4.57
483.229	4.57
483.664	4.58
484.099	4.58
484.534	4.57
484.968	4.56
485.403	4.57
485.837	4.56
486.271	4.56
486.706	4.57
487.14	4.57
487.574	4.57
488.009	4.59
488.443	4.59
488.877	4.59
489.311	4.6
489.745	4.61
490.179	4.62
490.613	4.64
491.046	4.65
491.48	4.68
491.914	4.69
492.348	4.71
492.781	4.72
493.215	4.74
493.648	4.77
494.082	4.8
494.515	4.83
494.948	4.86
495.382	4.89
495.815	4.93
496.248	4.95
496.681	5
497.114	5.02
497.547	5.06
497.98	5.11
498.413	5.15
498.846	5.21
499.279	5.26
499.711	5.3
500.144	5.36
500.577	5.42
501.009	5.49
501.442	5.56
501.874	5.63
502.306	5.71
502.739	5.78
503.171	5.88
503.603	5.97
504.036	6.06
504.468	6.16
504.9	6.27
505.332	6.39
505.764	6.5
506.196	6.63
506.627	6.77
507.059	6.91
507.491	7.06
507.923	7.2
508.354	7.36
508.786	7.52
509.217	7.67
509.649	7.85
510.08	8.01
510.512	8.2
510.943	8.38
511.374	8.56
511.805	8.75
512.237	8.94
512.668	9.14
513.099	9.36
513.53	9.59
513.961	9.83
514.391	10.05
514.822	10.29
515.253	10.51
515.684	10.77
516.114	11.03
516.545	11.29
516.975	11.56
517.406	11.83
517.836	12.09
518.267	12.35
518.697	12.63
519.127	12.91
519.558	13.18
519.988	13.45
520.418	13.69
520.848	13.94
521.278	14.2
521.708	14.34
522.138	14.58
522.567	14.83
522.997	15.08
523.427	15.31
523.857	15.55
524.286	15.79
524.716	16.02
525.145	16.26
525.575	16.5
526.004	16.72
526.433	17.04
526.863	17.25
527.292	17.43
527.721	17.63
528.15	17.8
528.579	17.97
529.008	18.12
529.437	18.28
529.866	18.42
530.295	18.57
530.724	18.7
531.152	18.84
531.581	18.98
532.01	19.1
532.438	19.23
532.867	19.35
533.295	19.45
533.723	19.56
534.152	19.66
534.58	19.74
535.008	19.81
535.436	19.88
535.865	19.96
536.293	20.03
536.721	20.1
537.149	20.14
537.576	20.21
538.004	20.27
538.432	20.31
538.86	20.34
539.287	20.39
539.715	20.45
540.143	20.47
540.57	20.51
540.998	20.53
541.425	20.57
541.852	20.61
542.28	20.62
542.707	20.65
543.134	20.68
543.561	20.7
543.988	20.72
544.415	20.75
544.842	20.8
545.269	20.83
545.696	20.85
546.123	20.89
546.549	20.92
546.976	20.96
547.403	20.99
547.829	21.01
548.256	21.05
548.682	21.06
549.108	21.07
549.535	21.08
549.961	21.09
550.387	21.08
550.813	21.06
551.24	21.05
551.666	21.03
552.092	21.03
552.518	21.02
552.943	21.02
553.369	21.01
553.795	20.99
554.221	20.95
554.646	20.91
555.072	20.88
555.498	20.83
555.923	20.78
556.349	20.7
556.774	20.64
557.199	20.57
557.625	20.47
558.05	20.38
558.475	20.27
558.9	20.19
559.325	20.1
559.75	20
560.175	19.89
560.6	19.78
561.025	19.68
561.449	19.56
561.874	19.43
562.299	19.32
562.723	19.2
563.148	19.08
563.572	18.94
563.997	18.79
564.421	18.64
564.846	18.49
565.27	18.34
565.694	18.19
566.118	18.02
566.542	17.87
566.966	17.7
567.39	17.53
567.814	17.38
568.238	17.21
568.662	17.05
569.086	16.9
569.509	16.75
569.933	16.58
570.357	16.42
570.78	16.28
571.204	16.12
571.627	15.98
572.05	15.85
572.474	15.7
572.897	15.56
573.32	15.41
573.743	15.26
574.166	15.1
574.589	14.97
575.012	14.84
575.435	14.7
575.858	14.57
576.281	14.45
576.704	14.33
577.126	14.2
577.549	14.11
577.972	14.01
578.394	13.9
578.817	13.82
579.239	13.72
579.661	13.64
580.084	13.55
580.506	13.46
580.928	13.36
581.35	13.28
581.772	13.22
582.194	13.14
582.616	13.08
583.038	13.01
583.46	12.96
583.882	12.9
584.303	12.83
584.725	12.76
585.147	12.7
585.568	12.65
585.99	12.59
586.411	12.52
586.833	12.44
587.254	12.38
587.675	12.32
588.096	12.27
588.518	12.23
588.939	12.19
589.36	12.16
589.781	12.11
590.202	12.07
590.623	12.02
591.043	11.98
591.464	11.95
591.885	11.9
592.305	11.89
592.726	11.83
593.147	11.8
593.567	11.76
593.987	11.72
594.408	11.68
594.828	11.66
595.248	11.64
595.669	11.62
596.089	11.59
596.509	11.55
596.929	11.5
597.349	11.46
597.769	11.42
598.189	11.39
598.608	11.36
599.028	11.32
599.448	11.29
599.867	11.24
600.287	11.21
600.706	11.18
601.126	11.14
601.545	11.1
601.965	11.05
602.384	11.03
602.803	10.97
603.222	10.92
603.641	10.89
604.061	10.82
604.48	10.78
604.898	10.72
605.317	10.66
605.736	10.61
606.155	10.55
606.574	10.49
606.992	10.4
607.411	10.34
607.829	10.24
608.248	10.16
608.666	10.1
609.085	10.03
609.503	9.96
609.921	9.88
610.339	9.81
610.758	9.74
611.176	9.68
611.594	9.62
612.012	9.55
612.43	9.53
612.847	9.47
613.265	9.4
613.683	9.33
614.101	9.27
614.518	9.2
614.936	9.17
615.353	9.11
615.771	9.04
616.188	8.99
616.606	8.94
617.023	8.89
617.44	8.85
617.857	8.8
618.274	8.76
618.691	8.71
619.108	8.67
619.525	8.61
619.942	8.57
620.359	8.56
620.776	8.53
621.192	8.49
621.609	8.46
622.026	8.43
622.442	8.41
622.859	8.4
623.275	8.39
623.691	8.39
624.108	8.37
624.524	8.36
624.94	8.33
625.356	8.32
625.772	8.32
626.188	8.32
626.604	8.3
627.02	8.29
627.436	8.28
627.852	8.27
628.268	8.25
628.683	8.22
629.099	8.22
629.514	8.21
629.93	8.2
630.345	8.17
630.761	8.14
631.176	8.14
631.591	8.12
632.007	8.08
632.422	8.05
632.837	8.02
633.252	8
633.667	7.94
634.082	7.9
634.497	7.83
634.911	7.77
635.326	7.72
635.741	7.64
636.155	7.57
636.57	7.51
636.984	7.42
637.399	7.33
637.813	7.25
638.228	7.17
638.642	7.1
639.056	7.03
639.47	6.95
639.884	6.87
640.298	6.78
640.712	6.7
641.126	6.62
641.54	6.53
641.954	6.48
642.368	6.41
642.781	6.34
643.195	6.25
643.609	6.18
644.022	6.11
644.436	6.05
644.849	5.99
645.262	5.94
645.676	5.89
646.089	5.84
646.502	5.78
646.915	5.73
647.328	5.7
647.741	5.66
648.154	5.62
648.567	5.59
648.98	5.56
649.393	5.52
649.805	5.48
650.218	5.45
650.631	5.42
651.043	5.39
651.456	5.36
651.868	5.32
652.28	5.3
652.693	5.27
653.105	5.23
653.517	5.2
653.929	5.17
654.341	5.15
654.753	5.12
655.165	5.1
655.577	5.07
655.989	5.02
656.401	4.98
656.813	4.95
657.224	4.91
657.636	4.87
658.047	4.82
658.459	4.79
658.87	4.73
659.282	4.69
659.693	4.64
660.104	4.6
660.515	4.56
660.926	4.53
661.338	4.48
661.749	4.44
662.159	4.4
662.57	4.37
662.981	4.33
663.392	4.31
663.803	4.28
664.213	4.25
664.624	4.24
665.035	4.23
665.445	4.22
665.855	4.21
666.266	4.21
666.676	4.2
667.086	4.19
667.497	4.18
667.907	4.17
668.317	4.16
668.727	4.17
669.137	4.16
669.547	4.17
669.956	4.15
670.366	4.16
670.776	4.17
671.186	4.19
671.595	4.21
672.005	4.22
672.414	4.24
672.824	4.27
673.233	4.29
673.642	4.31
674.052	4.32
674.461	4.33
674.87	4.35
675.279	4.38
675.688	4.39
676.097	4.41
676.506	4.43
676.915	4.45
677.323	4.47
677.732	4.49
678.141	4.52
678.549	4.54
678.958	4.59
679.366	4.61
679.775	4.64
680.183	4.68
680.592	4.71
681	4.76
681.408	4.8
681.816	4.84
682.224	4.88
682.632	4.95
683.04	5.02
683.448	5.08
683.856	5.17
684.264	5.25
684.671	5.35
685.079	5.47
685.487	5.59
685.894	5.73
686.302	5.88
686.709	6.06
687.116	6.24
687.524	6.44
687.931	6.67
688.338	6.9
688.745	7.17
689.152	7.46
689.559	7.78
689.966	8.11
690.373	8.48
690.78	8.86
691.187	9.27
691.593	9.69
692	10.14
692.407	10.63
692.813	11.12
693.22	11.64
693.626	12.16
694.032	12.68
694.439	13.24
694.845	13.8
695.251	14.39
695.657	14.97
696.063	15.57
696.469	16.15
696.875	16.73
697.281	17.32
697.687	17.92
698.093	18.53
698.498	19.14
698.904	19.75
699.31	20.35
699.715	20.97
700.12	21.55
700.526	22.15
700.931	22.75
701.337	23.34
701.742	23.93
702.147	24.51
702.552	25.08
702.957	25.63
703.362	26.19
703.767	26.75
704.172	27.3
704.577	27.85
704.981	28.41
705.386	28.94
705.791	29.49
706.195	30.02
706.6	30.53
707.004	31.05
707.408	31.58
707.813	32.08
708.217	32.59
708.621	33.09
709.025	33.58
709.43	34.06
709.834	34.57
710.237	35.03
710.641	35.54
711.045	36.01
711.449	36.5
711.853	36.95
712.256	37.43
712.66	37.87
713.064	38.31
713.467	38.75
713.87	39.19
714.274	39.63
714.677	40.07
715.08	40.46
715.484	40.87
715.887	41.26
716.29	41.68
716.693	42.05
717.096	42.45
717.499	42.83
717.901	43.2
718.304	43.58
718.707	43.91
719.109	44.24
719.512	44.65
719.915	44.99
720.317	45.35
720.719	45.64
721.122	45.98
721.524	46.31
721.926	46.61
722.328	46.92
722.731	47.2
723.133	47.52
723.535	47.84
723.937	48.08
724.338	48.33
724.74	48.56
725.142	48.83
725.544	49.07
725.945	49.3
726.347	49.53
726.748	49.75
727.15	49.98
727.551	50.21
727.952	50.38
728.354	50.59
728.755	50.8
729.156	51.01
729.557	51.18
729.958	51.39
730.359	51.56
730.76	51.7
731.161	51.87
731.562	52.03
731.962	52.13
732.363	52.27
732.763	52.43
733.164	52.56
733.564	52.7
733.965	52.82
734.365	52.9
734.766	53.04
735.166	53.17
735.566	53.27
735.966	53.35
736.366	53.44
736.766	53.55
737.166	53.66
737.566	53.76
737.966	53.86
738.365	53.97
738.765	54.08
739.165	54.1
739.564	54.19
739.964	54.24
740.363	54.34
740.763	54.44
741.162	54.49
741.561	54.54
741.96	54.61
742.36	54.65
742.759	54.67
743.158	54.71
743.557	54.76
743.955	54.83
744.354	54.88
744.753	54.93
745.152	54.98
745.55	55.04
745.949	55.05
746.348	55.09
746.746	55.13
747.144	55.21
747.543	55.26
747.941	55.36
748.339	55.43
748.737	55.51
749.136	55.56
749.534	55.58
749.932	55.62
750.33	55.65
750.727	55.67
751.125	55.69
751.523	55.68
751.921	55.72
752.318	55.71
752.716	55.66
753.113	55.64
753.511	55.63
753.908	55.62
754.305	55.61
754.703	55.6
755.1	55.61
755.497	55.61
755.894	55.62
756.291	55.58
756.688	55.56
757.085	55.57
757.482	55.56
757.878	55.59
758.275	55.6
758.672	55.62
759.068	55.67
759.465	55.66
759.861	55.63
760.258	55.61
760.654	55.62
761.05	55.61
761.447	55.58
761.843	55.56
762.239	55.51
762.635	55.5
763.031	55.49
763.427	55.46
763.822	55.41
764.218	55.42
764.614	55.42
765.01	55.42
765.405	55.42
765.801	55.44
766.196	55.47
766.592	55.49
766.987	55.51
767.382	55.49
767.778	55.51
768.173	55.51
768.568	55.48
768.963	55.48
769.358	55.51
769.753	55.56
770.148	55.53
770.542	55.49
770.937	55.5
771.332	55.49
771.726	55.48
772.121	55.44
772.515	55.47
772.91	55.52
773.304	55.54
773.699	55.52
774.093	55.48
774.487	55.5
774.881	55.55
775.275	55.53
775.669	55.54
776.063	55.52
776.457	55.55
776.851	55.52
777.245	55.5
777.638	55.49
778.032	55.5
778.425	55.51
778.819	55.52
779.212	55.48
779.606	55.45
779.999	55.44
780.392	55.45
780.786	55.42
781.179	55.46
781.572	55.45
781.965	55.45
782.358	55.4
782.751	55.35
783.143	55.36
783.536	55.37
783.929	55.39
784.322	55.4
784.714	55.41
785.107	55.42
785.499	55.41
785.891	55.41
786.284	55.39
786.676	55.41
787.068	55.41
787.46	55.36
787.852	55.36
788.245	55.34
788.636	55.34
789.028	55.32
789.42	55.29
789.812	55.29
790.204	55.23
790.595	55.24
790.987	55.21
791.378	55.24
791.77	55.25
792.161	55.27
792.553	55.29
792.944	55.29
793.335	55.3
793.726	55.27
794.117	55.25
794.508	55.31
794.899	55.28
795.29	55.27
795.681	55.23
796.072	55.24
796.463	55.22
796.853	55.19
797.244	55.21
797.634	55.21
798.025	55.26
798.415	55.28
798.806	55.32
799.196	55.34
799.586	55.39
799.976	55.42
800.366	55.42
800.756	55.43
801.146	55.47
801.536	55.45
801.926	55.44
802.316	55.44
802.706	55.45
803.095	55.44
803.485	55.5
803.874	55.52
804.264	55.56
804.653	55.57
805.043	55.57
805.432	55.55
805.821	55.56
806.21	55.61
806.599	55.66
806.988	55.65
807.377	55.64
807.766	55.61
808.155	55.63
808.544	55.61
808.933	55.63
809.321	55.65
809.71	55.67
810.098	55.69
810.487	55.67
810.875	55.63
811.264	55.66
811.652	55.68
812.04	55.69
812.428	55.67
812.816	55.7
813.204	55.69
813.592	55.69
813.98	55.7
814.368	55.69
814.756	55.69
815.144	55.72
815.531	55.68
815.919	55.71
816.306	55.69
816.694	55.72
817.081	55.67
817.469	55.71
817.856	55.77
818.243	55.76
818.63	55.78
819.017	55.83
819.404	55.8
819.791	55.83
820.178	55.83
820.565	55.85
820.952	55.84
821.339	55.89
821.725	55.89
822.112	55.86
822.498	55.89
822.885	55.9
823.271	55.91
823.657	55.92
824.044	55.92
824.43	55.95
824.816	55.95
825.202	55.93
825.588	55.93
825.974	55.95
826.36	55.97
826.746	55.95
827.132	55.92
827.517	55.89
827.903	55.91
828.289	55.9
828.674	55.84
829.06	55.86
829.445	55.89
829.83	55.88
830.216	55.85
830.601	55.83
830.986	55.85
831.371	55.9
831.756	55.87
832.141	55.87
832.526	55.91
832.911	55.97
833.295	55.98
833.68	55.98
834.065	56.02
834.449	56.02
834.834	56.02
835.218	56.02
835.603	56.02
835.987	56.04
836.371	56.07
836.755	56.06
837.139	56.02
837.524	56.02
837.908	56
838.291	55.99
838.675	55.99
839.059	56.01
839.443	56.01
839.827	55.98
840.21	56
840.594	56
840.977	55.98
841.361	56.04
841.744	56.04
842.127	56.06
842.511	56.07
842.894	56.06
843.277	56.08
843.66	56.09
844.043	56.09
844.426	56.07
844.809	56.04
845.191	56.07
845.574	56.01
845.957	56
846.339	55.98
846.722	55.96
847.104	55.95
847.487	55.94
847.869	55.94
848.252	55.92
848.634	55.96
849.016	55.99
849.398	55.95
849.78	55.93
850.162	55.93
850.544	55.95
850.926	55.92
851.307	55.93
851.689	55.87
852.071	55.87
852.452	55.88
852.834	55.83
853.215	55.79
853.597	55.79
853.978	55.77
854.359	55.74
854.741	55.74
855.122	55.74
855.503	55.75
855.884	55.75
856.265	55.76
856.646	55.74
857.026	55.75
857.407	55.72
857.788	55.73
858.169	55.74
858.549	55.78
858.93	55.76
859.31	55.76
859.69	55.74
860.071	55.72
860.451	55.72
860.831	55.71
861.211	55.73
861.591	55.77
861.971	55.74
862.351	55.78
862.731	55.76
863.111	55.77
863.491	55.79
863.87	55.78
864.25	55.83
864.629	55.81
865.009	55.82
865.388	55.78
865.768	55.77
866.147	55.8
866.526	55.77
866.905	55.79
867.284	55.78
867.663	55.77
868.042	55.77
868.421	55.76
868.8	55.74
869.179	55.75
869.558	55.75
869.936	55.73
870.315	55.74
870.693	55.73
871.072	55.7
871.45	55.68
871.828	55.68
872.207	55.7
872.585	55.68
872.963	55.69
873.341	55.72
873.719	55.7
874.097	55.71
874.475	55.73
874.853	55.74
875.23	55.75
875.608	55.78
875.986	55.75
876.363	55.74
876.741	55.76
877.118	55.73
877.495	55.69
877.873	55.7
878.25	55.7
878.627	55.69
879.004	55.69
879.381	55.7
879.758	55.67
880.135	55.72
880.512	55.71
880.889	55.7
881.265	55.73
881.642	55.75
882.019	55.78
882.395	55.79
882.772	55.78
883.148	55.78
883.524	55.8
883.901	55.78
884.277	55.78
884.653	55.79
885.029	55.8
885.405	55.8
885.781	55.79
886.157	55.78
886.532	55.75
886.908	55.76
887.284	55.77
887.659	55.79
888.035	55.81
888.411	55.8
888.786	55.79
889.161	55.8
889.537	55.79
889.912	55.78
890.287	55.77
890.662	55.78
891.037	55.72
891.412	55.71
891.787	55.66
892.162	55.64
892.536	55.64
892.911	55.6
893.286	55.56
893.66	55.55
894.035	55.53
894.409	55.5
894.784	55.5
895.158	55.49
895.532	55.46
895.906	55.45
896.281	55.43
896.655	55.38
897.029	55.37
897.402	55.35
897.776	55.34
898.15	55.35
898.524	55.35
898.898	55.3
899.271	55.3
899.645	55.27
900.018	55.26
900.392	55.26
900.765	55.28
901.138	55.29
901.511	55.3
901.884	55.3
902.258	55.29
902.631	55.29
903.003	55.29
903.376	55.29
903.749	55.3
904.122	55.32
904.495	55.33
904.867	55.29
905.24	55.29
905.612	55.25
905.985	55.21
906.357	55.19
906.729	55.16
907.102	55.17
907.474	55.18
907.846	55.14
908.218	55.1
908.59	55.06
908.962	55.08
909.334	55.05
909.705	55.05
910.077	55.01
910.449	55
910.82	54.99
911.192	54.95
911.563	54.9
911.935	54.92
912.306	54.91
912.677	54.89
913.048	54.84
913.419	54.81
913.79	54.85
914.161	54.87
914.532	54.86
914.903	54.87
915.274	54.88
915.645	54.92
916.015	54.89
916.386	54.87
916.756	54.9
917.127	54.92
917.497	54.95
917.868	54.94
918.238	54.95
918.608	54.95
918.978	54.92
919.348	54.89
919.718	54.84
920.088	54.86
920.458	54.89
920.828	54.87
921.198	54.89
921.567	54.83
921.937	54.81
922.306	54.81
922.676	54.84
923.045	54.86
923.415	54.85
923.784	54.9
924.153	54.89
924.522	54.89
924.891	54.89
925.26	54.85
925.629	54.84
925.998	54.86
926.367	54.83
926.736	54.82
927.104	54.81
927.473	54.85
927.842	54.82
928.21	54.82
928.578	54.78
928.947	54.79
929.315	54.8
929.683	54.83
930.051	54.78
930.42	54.79
930.788	54.78
931.156	54.81
931.523	54.77
931.891	54.71
932.259	54.61
932.627	54.56
932.994	54.51
933.362	54.44
933.729	54.36
934.097	54.37
934.464	54.31
934.831	54.26
935.199	54.16
935.566	54.06
935.933	54.07
936.3	54.01
936.667	53.94
937.034	53.88
937.401	53.79
937.767	53.73
938.134	53.63
938.501	53.53
938.867	53.48
939.234	53.45
939.6	53.42
939.967	53.31
940.333	53.4
940.699	53.48
941.065	53.51
941.431	53.67
941.798	53.73
942.163	53.77
942.529	53.87
942.895	53.88
943.261	53.86
943.627	53.91
943.992	54
944.358	54.01
944.723	54.02
945.089	54.01
945.454	54.01
945.82	54
946.185	54.05
946.55	54.11
946.915	54.14
947.28	54.17
947.645	54.19
948.01	54.24
948.375	54.21
948.74	54.18
949.104	54.2
949.469	54.08
949.834	54.07
950.198	53.98
950.562	53.88
950.927	53.79
951.291	53.72
951.655	53.63
952.02	53.63
952.384	53.65
952.748	53.66
953.112	53.69
953.476	53.69
953.839	53.67
954.203	53.65
954.567	53.64
954.931	53.63
955.294	53.66
955.658	53.68
956.021	53.58
956.385	53.53
956.748	53.53
957.111	53.45
957.474	53.47
957.837	53.46
958.2	53.5
958.563	53.53
958.926	53.51
959.289	53.49
959.652	53.48
960.015	53.48
960.377	53.5
960.74	53.42
961.102	53.41
961.465	53.4
961.827	53.35
962.189	53.3
962.552	53.22
962.914	53.21
963.276	53.23
963.638	53.13
964	53.08
964.362	53.05
964.724	53.08
965.085	53.06
965.447	52.99
965.809	52.96
966.17	52.98
966.532	52.97
966.893	52.97
967.255	52.92
967.616	53.03
967.977	53.02
968.338	52.98
968.699	52.96
969.061	52.91
969.421	52.91
969.782	52.92
970.143	52.85
970.504	52.81
970.865	52.74
971.225	52.74
971.586	52.68
971.946	52.73
972.307	52.72
972.667	52.73
973.027	52.71
973.388	52.74
973.748	52.76
974.108	52.77
974.468	52.83
974.828	52.91
975.188	52.93
975.548	52.97
975.907	52.92
976.267	52.92
976.627	52.91
976.986	52.95
977.346	52.92
977.705	52.9
978.064	52.88
978.424	52.82
978.783	52.8
979.142	52.77
979.501	52.73
979.86	52.69
980.219	52.68
980.578	52.59
980.937	52.59
981.296	52.55
981.654	52.55
982.013	52.55
982.371	52.55
982.73	52.44
983.088	52.41
983.447	52.44
983.805	52.49
984.163	52.48
984.521	52.44
984.879	52.38
985.237	52.38
985.595	52.37
985.953	52.36
986.311	52.37
986.669	52.48
987.026	52.46
987.384	52.39
987.741	52.33
988.099	52.3
988.456	52.41
988.814	52.44
989.171	52.34
989.528	52.29
989.885	52.22
990.242	52.25
990.599	52.22
990.956	52.31
991.313	52.27
991.67	52.29
992.027	52.27
992.383	52.22
992.74	52.2
993.096	52.21
993.453	52.24
993.809	52.33
994.165	52.33
994.522	52.37
994.878	52.26
995.234	52.35
995.59	52.22
995.946	52.32
996.302	52.35
996.658	52.29
997.013	52.31
997.369	52.26
997.725	52.23
998.08	52.13
998.436	52.14
998.791	52
999.147	51.88
999.502	52.01
999.857	51.88
1000.212	51.76
1000.567	51.81
1000.922	51.84
1001.277	51.68
1001.632	51.82
1001.987	51.78
1002.342	51.63
1002.696	51.68
1003.051	51.56
1003.406	51.59
1003.76	51.59
1004.114	51.6
1004.469	51.46
1004.823	51.42
1005.177	51.62
1005.531	51.24
1005.885	51.23
1006.239	51.11
1006.593	51.15
1006.947	51.22
1007.301	51.02
1007.655	51.04
1008.008	51.02
1008.362	51.01
1008.715	50.89
1009.069	50.65
1009.422	50.7
1009.776	50.66
1010.129	50.73
1010.482	50.77
1010.835	50.8
1011.188	50.81
1011.541	50.48
1011.894	50.32
1012.247	50.11
1012.6	50.11
1012.952	50.19
1013.305	50.3
1013.657	50.32
1014.01	50.57
1014.362	50.35
1014.715	50.13
1015.067	50.16
1015.419	50.39
1015.771	50.62
1016.123	50.76
1016.475	50.77
1016.827	51
1017.179	50.92
1017.531	50.95
1017.883	50.59
1018.234	50.73
1018.586	50.95
1018.938	50.61
1019.289	50.61
1019.64	50.61
1019.992	50.62
1020.343	50.51
1020.694	50.08
1021.045	49.8
1021.396	49.61
1021.747	49.38
1022.098	49.41
1022.449	49.29
1022.8	49.7
1023.151	49.54
1023.501	49.09
1023.852	49.21
1024.202	49.48
1024.553	49.34
1024.903	49.48
1025.253	49.39
1025.604	49.67
1025.954	49.13
1026.304	49.3
1026.654	49.24
1027.004	49.29
1027.354	49.15
1027.703	49.07
1028.053	48.46
1028.403	48.72
1028.753	48.63
1029.102	48.15
1029.452	47.59
1029.801	47.52
1030.15	47.05
1030.499	46.66
897.758	733.44
901.051	735.32
904.343	745.22
907.636	731.63
910.928	719.53
914.22	733.5
917.511	718.79
920.803	689.55
924.094	662.65
927.384	665.61
930.675	644.12
933.965	637.11
937.255	642.32
940.544	613.37
943.834	583.72
947.123	575.6
950.411	543.24
953.7	534.65
956.988	519.65
960.276	491.22
963.563	484.76
966.851	457.58
970.138	450.05
973.424	417.89
976.711	411.82
979.997	399.8
983.283	390.78
986.568	377.97
989.853	365.26
993.138	351.59
996.423	348.62
999.708	337.98
1002.992	340.41
1006.275	329.48
1009.559	326.79
1012.842	317.35
1016.125	307.24
1019.408	301.81
1022.69	299.54
1025.972	298.48
1029.254	291.01
1032.536	286.08
1035.817	276.37
1039.098	272.19
1042.379	265.7
1045.659	261.5
1048.939	260.02
1052.219	256.5
1055.498	249.88
1058.778	245.45
1062.057	239.79
1065.335	238.86
1068.614	234.57
1071.892	232.12
1075.17	226.9
1078.447	224.57
1081.724	223.26
1085.001	217.81
1088.278	215.75
1091.554	215.09
1094.83	214.48
1098.106	210.98
1101.382	209.68
1104.657	209.36
1107.932	208
1111.206	206.74
1114.481	205.21
1117.755	202.73
1121.029	203.17
1124.302	200.43
1127.575	197.54
1130.848	196.13
1134.121	193.38
1137.393	192.77
1140.665	190.92
1143.937	188.92
1147.208	187.02
1150.48	184.73
1153.75	184.42
1157.021	181.68
1160.291	181.26
1163.561	181.19
1166.831	179.64
1170.101	179.95
1173.37	178.07
1176.639	176.2
1179.907	176.57
1183.176	176.37
1186.444	176.46
1189.711	175.14
1192.979	177.1
1196.246	177.18
1199.513	176.22
1202.78	176.44
1206.046	176.41
1209.312	177.96
1212.578	178.92
1215.843	181.29
1219.108	181.82
1222.373	185.1
1225.638	188.19
1228.902	192.46
1232.166	197.9
1235.43	200.97
1238.693	207.49
1241.956	212.94
1245.219	217.98
1248.482	219.81
1251.744	219.06
1255.006	219.74
1258.268	214.3
1261.529	212.41
1264.79	206.54
1268.051	202.99
1271.312	200.87
1274.572	195.82
1277.832	190.22
1281.092	187.61
1284.351	184.32
1287.61	183.65
1290.869	182.97
1294.128	182.2
1297.386	180.79
1300.644	179.87
1303.902	178.4
1307.159	178.26
1310.416	179.09
1313.673	182.14
1316.93	182.93
1320.186	185.45
1323.442	188.84
1326.697	192.13
1329.953	193.77
1333.208	201.16
1336.463	208.47
1339.717	213.44
1342.972	222.35
1346.226	229.61
1349.479	231.31
1352.733	242.37
1355.986	247.4
1359.238	251.35
1362.491	254.72
1365.743	264.5
1368.995	265.99
1372.247	264.78
1375.498	263.55
1378.749	274.19
1382	271.24
1385.251	270.2
1388.501	269.52
1391.751	273.15
1395	270.72
1398.25	272.92
1401.499	270.41
1404.748	269.66
1407.996	264.72
1411.244	265.65
1414.492	259.8
1417.74	253.72
1420.987	248.56
1424.234	244.49
1427.481	234.84
1430.728	230.16
1433.974	220.74
1437.22	215.35
1440.465	207.75
1443.711	202.97
1446.956	197.07
1450.201	188.98
1453.445	180.19
1456.689	175.27
1459.933	169.23
1463.177	162.56
1466.42	159.15
1469.663	154.47
1472.906	149.75
1476.148	145.45
1479.391	141.76
1482.633	139.23
1485.874	136.6
1489.115	135.45
1492.356	132.95
1495.597	130.78
1498.838	130.31
1502.078	128.84
1505.318	128.83
1508.557	127.55
1511.797	126.13
1515.036	126.16
1518.274	125.16
1521.513	123.99
1524.751	123.74
1527.989	124.21
1531.227	123.61
1534.464	122.96
1537.701	121.87
1540.938	120.99
1544.174	121.08
1547.41	121.34
1550.646	120.52
1553.882	120.33
1557.117	119.87
1560.352	119.43
1563.587	118.43
1566.821	118.5
1570.055	117.6
1573.289	117.1
1576.523	117.68
1579.756	116.9
1582.989	116.82
1586.222	116.52
1589.454	116.15
1592.686	115.99
1595.918	115.59
1599.15	115.52
1602.381	115.47
1605.612	115.78
1608.843	115.92
1612.073	116.17
1615.303	116.51
1618.533	115.99
1621.762	116.53
1624.992	116.98
1628.221	116.93
1631.449	117.76
1634.678	117.27
1637.906	117.35
1641.134	117.62
1644.361	117.69
1647.588	117.63
1650.815	117.84
1654.042	118.72
1657.269	117.83
1660.495	118.29
1663.72	118.18
1666.946	117.85
1670.171	118.89
1673.396	119.33
1676.621	119.48
1679.845	119.97
1683.069	118.86
1686.293	118.81
1689.517	118.47
1692.74	119.24
1695.963	119.26
1699.185	120.38
1702.408	120.28
1705.63	120.31
1708.852	121.23
1712.073	120.94
1715.294	120.6
1718.515	121.72
1721.736	121.77
1724.956	122.09
1728.176	121.96
1731.396	122.71
1734.616	122.07
1737.835	122.95
1741.054	122.2
1744.272	121.78
1747.491	122.07
1750.709	122.98
1753.927	123.45
1757.144	123.56
1760.361	124.23
1763.578	124.56
1766.795	125.06
1770.011	125.42
1773.227	125.75
1776.443	127.4
1779.658	127.55
1782.874	129
1786.089	129.25
1789.303	129.51
1792.518	131
1795.732	131.39
1798.945	133.35
1802.159	132.89
1805.372	135.02
1808.585	135.76
1811.797	136.9
1815.01	138.18
1818.222	138.77
1821.434	139.19
1824.645	140.25
1827.856	142.11
1831.067	142.98
1834.278	143.78
1837.488	145.37
1840.698	146.89
1843.908	147.22
1847.117	149.16
1850.326	150.12
1853.535	150.12
1856.744	152.57
1859.952	154.53
1863.16	154.67
1866.368	154.01
1869.575	154.98
1872.782	155.23
1875.989	153.32
1879.196	152.9
1882.402	151.28
1885.608	152.31
1888.814	152.35
1892.019	153.37
1895.224	150.76
1898.429	151.82
1901.634	153.15
1904.838	153.05
1908.042	153.56
1911.246	154.06
1914.449	155.69
1917.652	155
1920.855	155.15
1924.058	154.39
1927.26	153.69
1930.462	154.52
1933.664	153.93
1936.865	153.9
1940.066	152.69
1943.267	151.48
1946.467	153.11
1949.668	152.48
1952.868	153.38
1956.067	152.83
1959.267	153.71
1962.466	154.46
1965.665	155.93
1968.863	157.53
1972.061	157.89
1975.259	160.95
1978.457	162.62
1981.654	163.27
1984.852	164.91
1988.048	166.76
1991.245	168.81
1994.441	173.07
1997.637	175.93
2000.833	179.76
2004.028	180.3
2007.223	186.34
2010.418	189.77
2013.613	197.39
2016.807	202.4
2020.001	206.02
2023.194	211.58
2026.388	219.5
2029.581	227.36
2032.774	236.34
2035.966	242.66
2039.158	249.9
2042.35	255.46
2045.542	259.3
2048.733	270.85
2051.924	273.62
2055.115	278.68
2058.306	281.89
2061.496	287.39
2064.686	290.52
2067.875	286
2071.065	288.36
2074.254	289.44
2077.442	296.51
2080.631	300.05
2083.819	299.27
2087.007	307.75
2090.195	313
2093.382	312.66
2096.569	312.1
2099.756	318.77
2102.942	327.05
2106.128	334.02
2109.314	336.69
2112.5	337.11
2115.685	336.4
2118.87	336.59
2122.055	336.42
2125.239	344.54
2128.424	353.4
2131.608	349.02
2134.791	349.9
2137.974	347.68
2141.157	351.28
2144.34	354.56
2147.523	359.67
2150.705	368.04
2153.887	366.33
2157.068	369.47
2160.25	371.86
2163.431	370.32
2166.611	378.62
2169.792	383.86
2172.972	392.66
2176.152	390.55
2179.331	399.45
2182.511	400.11
2185.69	406.09
2188.868	422.03
2192.047	433.24
2195.225	437.91
2198.403	444.12
2201.58	443.05
2204.758	459.08
2207.935	461.12
2211.111	471.6
2214.288	474.23
2217.464	479.16
2220.64	480.36
2223.815	483.35
2226.991	473.83
2230.166	478.72
2233.34	495.14
2236.515	504.6
2239.689	495.89
2242.863	503.53
2246.036	500.96
2249.209	515.17
2252.382	513.29
2255.555	533.6
2258.727	534.09
2261.9	552.56
2265.071	560.06
2268.243	551.39
2271.414	569.7
2274.585	580.77
2277.756	583.32
2280.926	605.89
2284.096	602.78
2287.266	609.08
2290.436	595.34
2293.605	609.35
2296.774	629.63
2299.942	629.56
2303.111	655.02
2306.279	665.66
2309.447	665.04
2312.614	668.86
2315.781	685.29
2318.948	691.64
2322.115	704.47
2325.281	744.17
2328.447	737.75
2331.613	742.47
2334.779	755.19
2337.944	760.79
2341.109	776.76
2344.274	788.03
2347.438	808.62
2350.602	822.63
2353.766	877.78
2356.929	880.78
2360.092	890.43
2363.255	893.13
2366.418	902.52
2369.58	923.02
2372.742	925.2
2375.904	918.82
2379.066	943.16
2382.227	997.54
2385.388	996.9
2388.548	940.5
2391.709	932.16
2394.869	957.55
2398.029	961.79
2401.188	963.18
2404.347	994.04
2407.506	1028.73
2410.665	986.56
2413.823	988.32
2416.981	986.13
2420.139	932.52
2423.296	1008.05
2426.453	1077.88
2429.61	1033.72
2432.767	1109.38
2435.923	1145.3
2439.079	1095.94
2442.235	1117.28
2445.391	1150.93
2448.546	1144.46
2451.701	1206.92
2454.855	1292.46
2458.009	1142.74
2461.163	1165.05
2464.317	1170.22
2467.471	1142.87
2470.624	1181.86
2473.777	1165.92
2476.929	1130.59
2480.082	1203.43
2483.234	1264.44
2486.385	1286.99
2489.537	1315.65
2492.688	1464.6
2495.839	1421.13
2498.989	1471.69
2502.14	1475.84
2505.29	1411.28
2508.439	1568.46
2511.589	1610.07
2514.738	1566.54
2517.887	1552.79
2521.035	1450.6
2524.183	1422.73
2527.331	1401.77
2530.479	1377.63
2533.627	1403.11
