Data from N_2_dec_ct_2n_073_Splice17_08.txt Node
Date: Sat Feb 29 14:08:22 EST 2020
User: sa697716
Spectrometer: FLMS03696
Trigger mode: 0
Integration Time (sec): 3.180400E-1
Scans to average: 20
Electric dark correction enabled: true
Nonlinearity correction enabled: true
Boxcar width: 5
XAxis mode: Wavelengths
Number of Pixels in Spectrum: 2048
>>>>>Begin Spectral Data<<<<<
187.83	100.87
188.298	116.74
188.766	100.94
189.233	84.1
189.701	97.09
190.169	98.93
190.636	102.75
191.104	112.95
191.571	214.93
192.039	97.26
192.506	-34.92
192.974	-157.94
193.441	-14.24
193.908	75.19
194.375	36.92
194.842	97.88
195.31	87.63
195.777	71.25
196.244	51.92
196.711	44.09
197.177	41.18
197.644	41.18
198.111	40.32
198.578	41.08
199.045	40.74
199.511	40.71
199.978	41.8
200.445	41.56
200.911	42.12
201.378	42.29
201.844	42.34
202.31	43.1
202.777	43.22
203.243	44.62
203.709	44.76
204.176	44.76
204.642	45
205.108	44.4
205.574	44.88
206.04	44.91
206.506	44.64
206.972	44.9
207.438	44.36
207.903	44.72
208.369	43.55
208.835	43.57
209.301	43.74
209.766	43.46
210.232	43.74
210.697	42.99
211.163	42.4
211.628	42.18
212.094	41.51
212.559	41.22
213.024	40.63
213.49	40.47
213.955	40.06
214.42	39.44
214.885	39.02
215.35	38.36
215.815	37.95
216.28	37.27
216.745	36.34
217.21	35.48
217.675	34.58
218.14	33.74
218.604	32.82
219.069	32.01
219.534	31.31
219.998	30.6
220.463	30.03
220.927	29.53
221.392	29.07
221.856	28.66
222.32	28.3
222.785	27.92
223.249	27.6
223.713	27.3
224.177	27.07
224.642	26.84
225.106	26.62
225.57	26.36
226.034	26.14
226.497	25.89
226.961	25.64
227.425	25.39
227.889	25.16
228.353	24.9
228.816	24.69
229.28	24.37
229.744	24.11
230.207	23.84
230.671	23.59
231.134	23.33
231.597	23.11
232.061	22.88
232.524	22.66
232.987	22.43
233.45	22.2
233.914	21.96
234.377	21.77
234.84	21.56
235.303	21.37
235.766	21.18
236.229	20.98
236.691	20.77
237.154	20.57
237.617	20.38
238.08	20.19
238.542	19.98
239.005	19.8
239.468	19.6
239.93	19.42
240.393	19.25
240.855	19.06
241.317	18.9
241.78	18.74
242.242	18.59
242.704	18.44
243.166	18.29
243.629	18.16
244.091	18.02
244.553	17.89
245.015	17.75
245.477	17.62
245.939	17.5
246.4	17.37
246.862	17.23
247.324	17.11
247.786	16.98
248.247	16.87
248.709	16.76
249.17	16.67
249.632	16.57
250.093	16.45
250.555	16.36
251.016	16.26
251.477	16.16
251.939	16.1
252.4	16.01
252.861	15.94
253.322	15.85
253.783	15.78
254.244	15.71
254.705	15.63
255.166	15.58
255.627	15.53
256.088	15.45
256.549	15.39
257.009	15.32
257.47	15.26
257.931	15.18
258.391	15.11
258.852	15.04
259.312	14.97
259.773	14.91
260.233	14.84
260.694	14.78
261.154	14.73
261.614	14.68
262.074	14.63
262.534	14.55
262.994	14.51
263.455	14.47
263.915	14.42
264.374	14.38
264.834	14.32
265.294	14.28
265.754	14.23
266.214	14.19
266.673	14.16
267.133	14.11
267.593	14.09
268.052	14.05
268.512	14.03
268.971	13.99
269.431	13.96
269.89	13.94
270.349	13.92
270.809	13.9
271.268	13.87
271.727	13.83
272.186	13.81
272.645	13.78
273.104	13.75
273.563	13.72
274.022	13.7
274.481	13.67
274.94	13.64
275.399	13.6
275.857	13.57
276.316	13.53
276.775	13.5
277.233	13.47
277.692	13.44
278.15	13.4
278.609	13.36
279.067	13.31
279.525	13.28
279.984	13.25
280.442	13.22
280.9	13.19
281.358	13.15
281.816	13.12
282.274	13.07
282.732	13.05
283.19	13.03
283.648	13
284.106	12.98
284.564	12.96
285.021	12.94
285.479	12.91
285.937	12.89
286.394	12.86
286.852	12.84
287.309	12.84
287.767	12.81
288.224	12.79
288.682	12.76
289.139	12.75
289.596	12.71
290.053	12.67
290.511	12.63
290.968	12.6
291.425	12.58
291.882	12.55
292.339	12.51
292.796	12.48
293.252	12.45
293.709	12.42
294.166	12.39
294.623	12.37
295.079	12.35
295.536	12.33
295.992	12.3
296.449	12.29
296.905	12.26
297.362	12.25
297.818	12.24
298.274	12.22
298.731	12.21
299.187	12.18
299.643	12.17
300.099	12.16
300.555	12.13
301.011	12.13
301.467	12.1
301.923	12.08
302.379	12.06
302.835	12.04
303.291	12.02
303.746	11.99
304.202	11.97
304.658	11.95
305.113	11.93
305.569	11.92
306.024	11.89
306.479	11.87
306.935	11.86
307.39	11.85
307.845	11.83
308.301	11.83
308.756	11.84
309.211	11.83
309.666	11.83
310.121	11.83
310.576	11.82
311.031	11.83
311.486	11.82
311.94	11.82
312.395	11.82
312.85	11.8
313.305	11.79
313.759	11.78
314.214	11.77
314.668	11.75
315.123	11.72
315.577	11.7
316.032	11.68
316.486	11.65
316.94	11.62
317.394	11.58
317.849	11.57
318.303	11.55
318.757	11.52
319.211	11.49
319.665	11.47
320.119	11.45
320.572	11.44
321.026	11.41
321.48	11.39
321.934	11.39
322.387	11.37
322.841	11.35
323.295	11.33
323.748	11.31
324.202	11.29
324.655	11.27
325.108	11.24
325.562	11.21
326.015	11.18
326.468	11.16
326.921	11.13
327.374	11.11
327.827	11.08
328.28	11.06
328.733	11.04
329.186	11.02
329.639	11
330.092	10.98
330.545	10.97
330.997	10.96
331.45	10.94
331.903	10.92
332.355	10.92
332.808	10.91
333.26	10.88
333.713	10.88
334.165	10.86
334.617	10.86
335.069	10.85
335.522	10.84
335.974	10.84
336.426	10.84
336.878	10.83
337.33	10.81
337.782	10.8
338.234	10.81
338.686	10.79
339.137	10.79
339.589	10.78
340.041	10.77
340.493	10.75
340.944	10.74
341.396	10.71
341.847	10.68
342.299	10.66
342.75	10.63
343.201	10.6
343.653	10.57
344.104	10.54
344.555	10.51
345.006	10.48
345.457	10.46
345.908	10.43
346.359	10.42
346.81	10.41
347.261	10.39
347.712	10.38
348.163	10.36
348.613	10.33
349.064	10.31
349.515	10.3
349.965	10.28
350.416	10.27
350.866	10.25
351.317	10.23
351.767	10.21
352.217	10.19
352.668	10.17
353.118	10.17
353.568	10.18
354.018	10.18
354.468	10.16
354.918	10.16
355.368	10.17
355.818	10.15
356.268	10.16
356.718	10.16
357.168	10.16
357.617	10.14
358.067	10.13
358.517	10.11
358.966	10.1
359.416	10.1
359.865	10.09
360.315	10.08
360.764	10.08
361.213	10.06
361.663	10.06
362.112	10.05
362.561	10.05
363.01	10.06
363.459	10.05
363.908	10.03
364.357	10.01
364.806	10.01
365.255	10
365.703	9.98
366.152	9.98
366.601	9.97
367.05	9.96
367.498	9.95
367.947	9.93
368.395	9.93
368.844	9.93
369.292	9.92
369.74	9.91
370.189	9.91
370.637	9.91
371.085	9.9
371.533	9.9
371.981	9.9
372.429	9.89
372.877	9.88
373.325	9.87
373.773	9.85
374.221	9.84
374.669	9.83
375.116	9.81
375.564	9.8
376.012	9.79
376.459	9.78
376.907	9.77
377.354	9.77
377.801	9.77
378.249	9.77
378.696	9.79
379.143	9.8
379.591	9.8
380.038	9.81
380.485	9.82
380.932	9.83
381.379	9.83
381.826	9.84
382.273	9.84
382.72	9.85
383.166	9.88
383.613	9.87
384.06	9.88
384.506	9.89
384.953	9.9
385.4	9.91
385.846	9.9
386.292	9.94
386.739	9.95
387.185	9.98
387.631	10
388.078	10.02
388.524	10.04
388.97	10.05
389.416	10.06
389.862	10.08
390.308	10.1
390.754	10.13
391.2	10.14
391.645	10.16
392.091	10.18
392.537	10.2
392.983	10.24
393.428	10.27
393.874	10.31
394.319	10.35
394.765	10.38
395.21	10.39
395.655	10.43
396.101	10.44
396.546	10.46
396.991	10.47
397.436	10.47
397.881	10.48
398.326	10.5
398.771	10.52
399.216	10.56
399.661	10.59
400.106	10.65
400.551	10.66
400.995	10.68
401.44	10.69
401.885	10.71
402.329	10.74
402.774	10.74
403.218	10.75
403.663	10.75
404.107	10.76
404.551	10.77
404.995	10.76
405.44	10.75
405.884	10.77
406.328	10.79
406.772	10.8
407.216	10.82
407.66	10.84
408.104	10.85
408.547	10.86
408.991	10.85
409.435	10.84
409.879	10.85
410.322	10.88
410.766	10.88
411.209	10.89
411.653	10.9
412.096	10.88
412.54	10.87
412.983	10.87
413.426	10.88
413.869	10.9
414.312	10.92
414.756	10.93
415.199	10.93
415.642	10.96
416.085	10.97
416.527	10.98
416.97	11
417.413	11.01
417.856	11.01
418.298	11
418.741	10.98
419.184	10.97
419.626	10.98
420.069	10.97
420.511	10.95
420.953	10.93
421.396	10.93
421.838	10.94
422.28	10.95
422.722	10.96
423.164	10.96
423.606	10.98
424.048	10.98
424.49	10.98
424.932	10.97
425.374	10.98
425.816	10.95
426.258	10.93
426.699	10.88
427.141	10.84
427.582	10.81
428.024	10.78
428.465	10.78
428.907	10.78
429.348	10.76
429.789	10.75
430.231	10.73
430.672	10.73
431.113	10.75
431.554	10.78
431.995	10.8
432.436	10.8
432.877	10.82
433.318	10.8
433.759	10.8
434.2	10.81
434.64	10.81
435.081	10.8
435.522	10.79
435.962	10.79
436.403	10.8
436.843	10.81
437.284	10.85
437.724	10.85
438.164	10.86
438.604	10.87
439.045	10.88
439.485	10.9
439.925	10.92
440.365	10.95
440.805	10.94
441.245	10.93
441.685	10.94
442.125	10.97
442.564	11.02
443.004	11.05
443.444	11.08
443.883	11.11
444.323	11.11
444.762	11.17
445.202	11.24
445.641	11.3
446.081	11.37
446.52	11.41
446.959	11.44
447.398	11.48
447.837	11.56
448.276	11.6
448.716	11.69
449.154	11.77
449.593	11.83
450.032	11.85
450.471	11.89
450.91	11.92
451.349	11.97
451.787	11.99
452.226	11.99
452.664	12
453.103	12
453.541	12.01
453.98	12
454.418	11.98
454.856	11.96
455.295	11.94
455.733	11.95
456.171	11.95
456.609	11.95
457.047	11.94
457.485	11.93
457.923	11.93
458.361	11.9
458.798	11.9
459.236	11.91
459.674	11.91
460.111	11.92
460.549	11.9
460.987	11.87
461.424	11.85
461.862	11.85
462.299	11.83
462.736	11.82
463.173	11.83
463.611	11.82
464.048	11.82
464.485	11.81
464.922	11.8
465.359	11.81
465.796	11.81
466.233	11.82
466.67	11.83
467.106	11.83
467.543	11.84
467.98	11.87
468.416	11.87
468.853	11.87
469.29	11.89
469.726	11.89
470.162	11.89
470.599	11.88
471.035	11.89
471.471	11.89
471.907	11.91
472.344	11.91
472.78	11.88
473.216	11.87
473.652	11.86
474.088	11.87
474.523	11.87
474.959	11.86
475.395	11.89
475.831	11.89
476.266	11.9
476.702	11.89
477.138	11.88
477.573	11.88
478.008	11.88
478.444	11.89
478.879	11.9
479.314	11.89
479.75	11.91
480.185	11.9
480.62	11.89
481.055	11.89
481.49	11.88
481.925	11.89
482.36	11.88
482.795	11.89
483.229	11.89
483.664	11.9
484.099	11.91
484.534	11.92
484.968	11.94
485.403	11.96
485.837	11.98
486.271	12
486.706	12.02
487.14	12.05
487.574	12.08
488.009	12.12
488.443	12.15
488.877	12.19
489.311	12.22
489.745	12.27
490.179	12.34
490.613	12.4
491.046	12.47
491.48	12.55
491.914	12.63
492.348	12.7
492.781	12.78
493.215	12.87
493.648	12.97
494.082	13.09
494.515	13.2
494.948	13.3
495.382	13.42
495.815	13.53
496.248	13.66
496.681	13.79
497.114	13.93
497.547	14.07
497.98	14.24
498.413	14.4
498.846	14.57
499.279	14.75
499.711	14.91
500.144	15.09
500.577	15.29
501.009	15.48
501.442	15.71
501.874	15.93
502.306	16.17
502.739	16.39
503.171	16.63
503.603	16.89
504.036	17.16
504.468	17.47
504.9	17.77
505.332	18.07
505.764	18.39
506.196	18.71
506.627	19.05
507.059	19.37
507.491	19.72
507.923	20.08
508.354	20.44
508.786	20.8
509.217	21.16
509.649	21.54
510.08	21.95
510.512	22.35
510.943	22.75
511.374	23.15
511.805	23.58
512.237	24.02
512.668	24.44
513.099	24.87
513.53	25.33
513.961	25.78
514.391	26.23
514.822	26.68
515.253	27.12
515.684	27.56
516.114	28.01
516.545	28.46
516.975	28.92
517.406	29.39
517.836	29.85
518.267	30.3
518.697	30.73
519.127	31.16
519.558	31.58
519.988	32.01
520.418	32.44
520.848	32.87
521.278	33.28
521.708	33.56
522.138	33.93
522.567	34.31
522.997	34.67
523.427	35.06
523.857	35.4
524.286	35.74
524.716	36.08
525.145	36.4
525.575	36.7
526.004	37.01
526.433	37.41
526.863	37.71
527.292	37.98
527.721	38.24
528.15	38.46
528.579	38.73
529.008	38.96
529.437	39.19
529.866	39.39
530.295	39.59
530.724	39.78
531.152	39.97
531.581	40.14
532.01	40.3
532.438	40.45
532.867	40.6
533.295	40.75
533.723	40.89
534.152	41.01
534.58	41.13
535.008	41.22
535.436	41.32
535.865	41.39
536.293	41.51
536.721	41.58
537.149	41.66
537.576	41.74
538.004	41.78
538.432	41.85
538.86	41.91
539.287	41.99
539.715	42.06
540.143	42.1
540.57	42.14
540.998	42.17
541.425	42.24
541.852	42.3
542.28	42.35
542.707	42.39
543.134	42.43
543.561	42.44
543.988	42.49
544.415	42.53
544.842	42.58
545.269	42.64
545.696	42.69
546.123	42.72
546.549	42.73
546.976	42.76
547.403	42.8
547.829	42.85
548.256	42.87
548.682	42.87
549.108	42.88
549.535	42.89
549.961	42.89
550.387	42.86
550.813	42.86
551.24	42.87
551.666	42.89
552.092	42.88
552.518	42.83
552.943	42.85
553.369	42.85
553.795	42.85
554.221	42.81
554.646	42.76
555.072	42.75
555.498	42.69
555.923	42.6
556.349	42.49
556.774	42.42
557.199	42.37
557.625	42.27
558.05	42.17
558.475	42.05
558.9	41.96
559.325	41.83
559.75	41.71
560.175	41.59
560.6	41.48
561.025	41.37
561.449	41.22
561.874	41.07
562.299	40.93
562.723	40.8
563.148	40.65
563.572	40.49
563.997	40.34
564.421	40.17
564.846	40
565.27	39.83
565.694	39.61
566.118	39.41
566.542	39.21
566.966	38.98
567.39	38.74
567.814	38.52
568.238	38.28
568.662	38.06
569.086	37.81
569.509	37.57
569.933	37.32
570.357	37.1
570.78	36.86
571.204	36.61
571.627	36.39
572.05	36.18
572.474	35.96
572.897	35.76
573.32	35.54
573.743	35.33
574.166	35.12
574.589	34.91
575.012	34.75
575.435	34.56
575.858	34.39
576.281	34.21
576.704	34.03
577.126	33.87
577.549	33.71
577.972	33.56
578.394	33.4
578.817	33.25
579.239	33.12
579.661	32.96
580.084	32.84
580.506	32.72
580.928	32.59
581.35	32.47
581.772	32.34
582.194	32.23
582.616	32.12
583.038	32.02
583.46	31.91
583.882	31.82
584.303	31.71
584.725	31.6
585.147	31.5
585.568	31.4
585.99	31.32
586.411	31.23
586.833	31.12
587.254	31.04
587.675	30.96
588.096	30.88
588.518	30.8
588.939	30.73
589.36	30.66
589.781	30.6
590.202	30.54
590.623	30.48
591.043	30.42
591.464	30.38
591.885	30.31
592.305	30.27
592.726	30.21
593.147	30.18
593.567	30.12
593.987	30.11
594.408	30.06
594.828	30.02
595.248	29.99
595.669	29.94
596.089	29.88
596.509	29.84
596.929	29.78
597.349	29.73
597.769	29.66
598.189	29.62
598.608	29.54
599.028	29.48
599.448	29.43
599.867	29.33
600.287	29.28
600.706	29.2
601.126	29.1
601.545	29.03
601.965	28.95
602.384	28.87
602.803	28.76
603.222	28.67
603.641	28.57
604.061	28.46
604.48	28.36
604.898	28.23
605.317	28.12
605.736	28.01
606.155	27.86
606.574	27.73
606.992	27.59
607.411	27.45
607.829	27.27
608.248	27.14
608.666	27
609.085	26.87
609.503	26.72
609.921	26.6
610.339	26.47
610.758	26.35
611.176	26.21
611.594	26.08
612.012	25.96
612.43	25.88
612.847	25.74
613.265	25.62
613.683	25.48
614.101	25.35
614.518	25.2
614.936	25.09
615.353	24.95
615.771	24.84
616.188	24.74
616.606	24.6
617.023	24.5
617.44	24.4
617.857	24.3
618.274	24.21
618.691	24.13
619.108	24.06
619.525	23.97
619.942	23.93
620.359	23.86
620.776	23.8
621.192	23.74
621.609	23.67
622.026	23.62
622.442	23.58
622.859	23.52
623.275	23.48
623.691	23.45
624.108	23.42
624.524	23.39
624.94	23.36
625.356	23.32
625.772	23.32
626.188	23.32
626.604	23.3
627.02	23.28
627.436	23.28
627.852	23.25
628.268	23.21
628.683	23.19
629.099	23.18
629.514	23.15
629.93	23.12
630.345	23.09
630.761	23.04
631.176	23
631.591	22.94
632.007	22.86
632.422	22.82
632.837	22.76
633.252	22.68
633.667	22.56
634.082	22.47
634.497	22.37
634.911	22.24
635.326	22.12
635.741	22
636.155	21.88
636.57	21.76
636.984	21.59
637.399	21.41
637.813	21.25
638.228	21.08
638.642	20.9
639.056	20.74
639.47	20.55
639.884	20.36
640.298	20.17
640.712	19.97
641.126	19.78
641.54	19.6
641.954	19.43
642.368	19.26
642.781	19.09
643.195	18.88
643.609	18.69
644.022	18.5
644.436	18.32
644.849	18.13
645.262	17.95
645.676	17.77
646.089	17.61
646.502	17.45
646.915	17.28
647.328	17.11
647.741	16.98
648.154	16.84
648.567	16.72
648.98	16.62
649.393	16.5
649.805	16.39
650.218	16.29
650.631	16.19
651.043	16.09
651.456	16
651.868	15.91
652.28	15.83
652.693	15.71
653.105	15.59
653.517	15.49
653.929	15.39
654.341	15.27
654.753	15.14
655.165	15.01
655.577	14.85
655.989	14.69
656.401	14.52
656.813	14.36
657.224	14.21
657.636	14.06
658.047	13.89
658.459	13.71
658.87	13.53
659.282	13.36
659.693	13.16
660.104	13
660.515	12.84
660.926	12.68
661.338	12.52
661.749	12.34
662.159	12.17
662.57	12.01
662.981	11.85
663.392	11.7
663.803	11.56
664.213	11.44
664.624	11.31
665.035	11.17
665.445	11.06
665.855	10.94
666.266	10.86
666.676	10.77
667.086	10.69
667.497	10.61
667.907	10.54
668.317	10.47
668.727	10.41
669.137	10.35
669.547	10.32
669.956	10.27
670.366	10.26
670.776	10.22
671.186	10.2
671.595	10.16
672.005	10.14
672.414	10.14
672.824	10.12
673.233	10.12
673.642	10.12
674.052	10.12
674.461	10.13
674.87	10.14
675.279	10.14
675.688	10.15
676.097	10.19
676.506	10.21
676.915	10.24
677.323	10.28
677.732	10.32
678.141	10.37
678.549	10.44
678.958	10.51
679.366	10.59
679.775	10.69
680.183	10.8
680.592	10.91
681	11.05
681.408	11.21
681.816	11.37
682.224	11.57
682.632	11.82
683.04	12.06
683.448	12.34
683.856	12.66
684.264	12.99
684.671	13.39
685.079	13.8
685.487	14.27
685.894	14.76
686.302	15.29
686.709	15.86
687.116	16.46
687.524	17.09
687.931	17.77
688.338	18.48
688.745	19.22
689.152	19.99
689.559	20.8
689.966	21.59
690.373	22.46
690.78	23.33
691.187	24.2
691.593	25.07
692	25.96
692.407	26.84
692.813	27.74
693.22	28.64
693.626	29.53
694.032	30.42
694.439	31.35
694.845	32.2
695.251	33.08
695.657	33.93
696.063	34.79
696.469	35.63
696.875	36.47
697.281	37.3
697.687	38.12
698.093	38.92
698.498	39.7
698.904	40.45
699.31	41.2
699.715	41.91
700.12	42.64
700.526	43.35
700.931	44.05
701.337	44.73
701.742	45.35
702.147	45.98
702.552	46.6
702.957	47.2
703.362	47.8
703.767	48.36
704.172	48.95
704.577	49.51
704.981	50.06
705.386	50.59
705.791	51.1
706.195	51.59
706.6	52.08
707.004	52.54
707.408	53.01
707.813	53.47
708.217	53.91
708.621	54.35
709.025	54.77
709.43	55.16
709.834	55.56
710.237	55.93
710.641	56.34
711.045	56.7
711.449	57.08
711.853	57.46
712.256	57.81
712.66	58.17
713.064	58.47
713.467	58.76
713.87	59.1
714.274	59.44
714.677	59.76
715.08	60.04
715.484	60.36
715.887	60.69
716.29	60.95
716.693	61.22
717.096	61.51
717.499	61.79
717.901	62.08
718.304	62.33
718.707	62.56
719.109	62.82
719.512	63.12
719.915	63.34
720.317	63.55
720.719	63.77
721.122	63.99
721.524	64.2
721.926	64.41
722.328	64.64
722.731	64.84
723.133	65.05
723.535	65.28
723.937	65.41
724.338	65.56
724.74	65.73
725.142	65.87
725.544	66.02
725.945	66.18
726.347	66.36
726.748	66.44
727.15	66.55
727.551	66.67
727.952	66.76
728.354	66.91
728.755	67.04
729.156	67.15
729.557	67.29
729.958	67.41
730.359	67.48
730.76	67.53
731.161	67.65
731.562	67.77
731.962	67.87
732.363	67.9
732.763	67.97
733.164	68.04
733.564	68.13
733.965	68.16
734.365	68.21
734.766	68.29
735.166	68.32
735.566	68.36
735.966	68.35
736.366	68.35
736.766	68.42
737.166	68.44
737.566	68.49
737.966	68.52
738.365	68.56
738.765	68.61
739.165	68.6
739.564	68.67
739.964	68.68
740.363	68.74
740.763	68.77
741.162	68.79
741.561	68.82
741.96	68.86
742.36	68.88
742.759	68.9
743.158	68.93
743.557	69
743.955	69.05
744.354	69.08
744.753	69.13
745.152	69.19
745.55	69.25
745.949	69.29
746.348	69.31
746.746	69.33
747.144	69.43
747.543	69.48
747.941	69.52
748.339	69.57
748.737	69.66
749.136	69.68
749.534	69.73
749.932	69.75
750.33	69.78
750.727	69.8
751.125	69.82
751.523	69.77
751.921	69.74
752.318	69.72
752.716	69.66
753.113	69.61
753.511	69.62
753.908	69.55
754.305	69.5
754.703	69.45
755.1	69.4
755.497	69.4
755.894	69.38
756.291	69.36
756.688	69.33
757.085	69.32
757.482	69.3
757.878	69.29
758.275	69.32
758.672	69.35
759.068	69.38
759.465	69.39
759.861	69.41
760.258	69.42
760.654	69.4
761.05	69.43
761.447	69.42
761.843	69.41
762.239	69.4
762.635	69.38
763.031	69.36
763.427	69.37
763.822	69.33
764.218	69.28
764.614	69.28
765.01	69.29
765.405	69.26
765.801	69.26
766.196	69.25
766.592	69.24
766.987	69.24
767.382	69.23
767.778	69.23
768.173	69.21
768.568	69.2
768.963	69.18
769.358	69.24
769.753	69.28
770.148	69.26
770.542	69.26
770.937	69.21
771.332	69.25
771.726	69.21
772.121	69.13
772.515	69.18
772.91	69.22
773.304	69.22
773.699	69.19
774.093	69.14
774.487	69.13
774.881	69.11
775.275	69.13
775.669	69.11
776.063	69.1
776.457	69.12
776.851	69.03
777.245	69.02
777.638	68.96
778.032	68.95
778.425	68.98
778.819	69.02
779.212	69.02
779.606	69.04
779.999	69.03
780.392	69.04
780.786	69.01
781.179	69.08
781.572	69.07
781.965	69.11
782.358	69.08
782.751	69.06
783.143	69.07
783.536	69.15
783.929	69.18
784.322	69.2
784.714	69.22
785.107	69.29
785.499	69.31
785.891	69.35
786.284	69.33
786.676	69.37
787.068	69.38
787.46	69.34
787.852	69.3
788.245	69.28
788.636	69.27
789.028	69.28
789.42	69.27
789.812	69.27
790.204	69.19
790.595	69.24
790.987	69.22
791.378	69.24
791.77	69.29
792.161	69.24
792.553	69.23
792.944	69.27
793.335	69.25
793.726	69.22
794.117	69.23
794.508	69.27
794.899	69.28
795.29	69.31
795.681	69.33
796.072	69.36
796.463	69.41
796.853	69.43
797.244	69.44
797.634	69.43
798.025	69.47
798.415	69.45
798.806	69.45
799.196	69.44
799.586	69.4
799.976	69.35
800.366	69.35
800.756	69.34
801.146	69.35
801.536	69.27
801.926	69.29
802.316	69.28
802.706	69.28
803.095	69.3
803.485	69.31
803.874	69.34
804.264	69.41
804.653	69.35
805.043	69.37
805.432	69.38
805.821	69.42
806.21	69.47
806.599	69.49
806.988	69.52
807.377	69.55
807.766	69.58
808.155	69.56
808.544	69.49
808.933	69.51
809.321	69.52
809.71	69.55
810.098	69.54
810.487	69.51
810.875	69.49
811.264	69.47
811.652	69.48
812.04	69.41
812.428	69.47
812.816	69.52
813.204	69.55
813.592	69.55
813.98	69.52
814.368	69.51
814.756	69.53
815.144	69.58
815.531	69.6
815.919	69.57
816.306	69.6
816.694	69.59
817.081	69.57
817.469	69.59
817.856	69.62
818.243	69.6
818.63	69.65
819.017	69.67
819.404	69.64
819.791	69.66
820.178	69.69
820.565	69.71
820.952	69.73
821.339	69.77
821.725	69.77
822.112	69.77
822.498	69.82
822.885	69.83
823.271	69.84
823.657	69.86
824.044	69.87
824.43	69.9
824.816	69.89
825.202	69.88
825.588	69.88
825.974	69.84
826.36	69.86
826.746	69.87
827.132	69.82
827.517	69.81
827.903	69.82
828.289	69.82
828.674	69.79
829.06	69.8
829.445	69.81
829.83	69.83
830.216	69.84
830.601	69.83
830.986	69.8
831.371	69.86
831.756	69.85
832.141	69.87
832.526	69.82
832.911	69.85
833.295	69.86
833.68	69.85
834.065	69.84
834.449	69.81
834.834	69.76
835.218	69.74
835.603	69.7
835.987	69.7
836.371	69.69
836.755	69.69
837.139	69.65
837.524	69.63
837.908	69.61
838.291	69.55
838.675	69.58
839.059	69.59
839.443	69.6
839.827	69.62
840.21	69.65
840.594	69.62
840.977	69.63
841.361	69.62
841.744	69.66
842.127	69.68
842.511	69.7
842.894	69.67
843.277	69.7
843.66	69.68
844.043	69.66
844.426	69.61
844.809	69.61
845.191	69.59
845.574	69.56
845.957	69.48
846.339	69.45
846.722	69.45
847.104	69.48
847.487	69.46
847.869	69.45
848.252	69.39
848.634	69.41
849.016	69.44
849.398	69.42
849.78	69.45
850.162	69.47
850.544	69.47
850.926	69.44
851.307	69.42
851.689	69.41
852.071	69.4
852.452	69.44
852.834	69.42
853.215	69.37
853.597	69.38
853.978	69.39
854.359	69.36
854.741	69.38
855.122	69.4
855.503	69.44
855.884	69.44
856.265	69.45
856.646	69.43
857.026	69.44
857.407	69.41
857.788	69.41
858.169	69.38
858.549	69.45
858.93	69.44
859.31	69.41
859.69	69.34
860.071	69.34
860.451	69.35
860.831	69.36
861.211	69.35
861.591	69.4
861.971	69.35
862.351	69.37
862.731	69.34
863.111	69.39
863.491	69.43
863.87	69.45
864.25	69.48
864.629	69.41
865.009	69.4
865.388	69.41
865.768	69.4
866.147	69.44
866.526	69.43
866.905	69.43
867.284	69.38
867.663	69.34
868.042	69.35
868.421	69.31
868.8	69.37
869.179	69.38
869.558	69.37
869.936	69.36
870.315	69.36
870.693	69.38
871.072	69.32
871.45	69.31
871.828	69.31
872.207	69.31
872.585	69.34
872.963	69.27
873.341	69.28
873.719	69.28
874.097	69.28
874.475	69.26
874.853	69.25
875.23	69.29
875.608	69.31
875.986	69.31
876.363	69.29
876.741	69.25
877.118	69.26
877.495	69.26
877.873	69.24
878.25	69.27
878.627	69.28
879.004	69.29
879.381	69.27
879.758	69.25
880.135	69.26
880.512	69.29
880.889	69.32
881.265	69.37
881.642	69.39
882.019	69.42
882.395	69.4
882.772	69.38
883.148	69.36
883.524	69.38
883.901	69.34
884.277	69.33
884.653	69.31
885.029	69.29
885.405	69.27
885.781	69.24
886.157	69.21
886.532	69.2
886.908	69.22
887.284	69.23
887.659	69.23
888.035	69.25
888.411	69.23
888.786	69.19
889.161	69.2
889.537	69.17
889.912	69.14
890.287	69.14
890.662	69.14
891.037	69.06
891.412	69.03
891.787	68.98
892.162	68.93
892.536	68.89
892.911	68.87
893.286	68.79
893.66	68.79
894.035	68.78
894.409	68.73
894.784	68.7
895.158	68.7
895.532	68.67
895.906	68.66
896.281	68.64
896.655	68.66
897.029	68.65
897.402	68.7
897.776	68.67
898.15	68.67
898.524	68.68
898.898	68.65
899.271	68.64
899.645	68.66
900.018	68.66
900.392	68.7
900.765	68.69
901.138	68.71
901.511	68.69
901.884	68.69
902.258	68.66
902.631	68.66
903.003	68.67
903.376	68.67
903.749	68.69
904.122	68.71
904.495	68.71
904.867	68.7
905.24	68.67
905.612	68.64
905.985	68.63
906.357	68.61
906.729	68.59
907.102	68.58
907.474	68.56
907.846	68.5
908.218	68.46
908.59	68.39
908.962	68.4
909.334	68.38
909.705	68.4
910.077	68.35
910.449	68.37
910.82	68.34
911.192	68.32
911.563	68.29
911.935	68.29
912.306	68.3
912.677	68.34
913.048	68.32
913.419	68.3
913.79	68.27
914.161	68.3
914.532	68.25
914.903	68.3
915.274	68.33
915.645	68.33
916.015	68.34
916.386	68.31
916.756	68.3
917.127	68.26
917.497	68.28
917.868	68.28
918.238	68.29
918.608	68.36
918.978	68.29
919.348	68.23
919.718	68.24
920.088	68.25
920.458	68.3
920.828	68.28
921.198	68.31
921.567	68.27
921.937	68.3
922.306	68.27
922.676	68.24
923.045	68.24
923.415	68.28
923.784	68.23
924.153	68.23
924.522	68.15
924.891	68.14
925.26	68.08
925.629	68.05
925.998	68
926.367	67.99
926.736	67.91
927.104	67.88
927.473	67.88
927.842	67.87
928.21	67.85
928.578	67.84
928.947	67.86
929.315	67.84
929.683	67.85
930.051	67.82
930.42	67.81
930.788	67.83
931.156	67.84
931.523	67.82
931.891	67.78
932.259	67.71
932.627	67.69
932.994	67.6
933.362	67.56
933.729	67.47
934.097	67.4
934.464	67.31
934.831	67.28
935.199	67.23
935.566	67.11
935.933	67.08
936.3	66.96
936.667	66.86
937.034	66.82
937.401	66.8
937.767	66.76
938.134	66.77
938.501	66.72
938.867	66.68
939.234	66.66
939.6	66.71
939.967	66.68
940.333	66.83
940.699	66.91
941.065	66.96
941.431	67.02
941.798	67.1
942.163	67.19
942.529	67.3
942.895	67.36
943.261	67.41
943.627	67.47
943.992	67.56
944.358	67.58
944.723	67.52
945.089	67.61
945.454	67.74
945.82	67.76
946.185	67.81
946.55	67.87
946.915	67.91
947.28	67.92
947.645	67.96
948.01	67.98
948.375	68.07
948.74	68.08
949.104	68.06
949.469	67.89
949.834	67.84
950.198	67.69
950.562	67.56
950.927	67.48
951.291	67.48
951.655	67.33
952.02	67.28
952.384	67.29
952.748	67.29
953.112	67.3
953.476	67.31
953.839	67.27
954.203	67.26
954.567	67.31
954.931	67.32
955.294	67.28
955.658	67.3
956.021	67.28
956.385	67.21
956.748	67.19
957.111	67.14
957.474	67.17
957.837	67.19
958.2	67.16
958.563	67.07
958.926	66.97
959.289	66.92
959.652	66.87
960.015	66.88
960.377	66.84
960.74	66.75
961.102	66.71
961.465	66.66
961.827	66.54
962.189	66.54
962.552	66.52
962.914	66.52
963.276	66.48
963.638	66.46
964	66.38
964.362	66.38
964.724	66.41
965.085	66.36
965.447	66.24
965.809	66.27
966.17	66.26
966.532	66.28
966.893	66.31
967.255	66.32
967.616	66.36
967.977	66.36
968.338	66.29
968.699	66.22
969.061	66.19
969.421	66.27
969.782	66.29
970.143	66.27
970.504	66.2
970.865	66.06
971.225	66.09
971.586	66.03
971.946	65.98
972.307	65.87
972.667	65.92
973.027	65.97
973.388	65.92
973.748	65.89
974.108	65.88
974.468	65.97
974.828	66.03
975.188	66.04
975.548	66.09
975.907	66.08
976.267	66.15
976.627	66.14
976.986	66.16
977.346	66.13
977.705	66.16
978.064	66.17
978.424	66.1
978.783	66.13
979.142	66.04
979.501	65.94
979.86	66.06
980.219	66.05
980.578	66
980.937	65.98
981.296	65.99
981.654	66.08
982.013	66.12
982.371	66.09
982.73	66.05
983.088	66.06
983.447	66.15
983.805	66.02
984.163	65.94
984.521	65.82
984.879	65.8
985.237	65.86
985.595	65.72
985.953	65.59
986.311	65.69
986.669	65.67
987.026	65.68
987.384	65.62
987.741	65.64
988.099	65.75
988.456	65.87
988.814	65.79
989.171	65.71
989.528	65.5
989.885	65.49
990.242	65.41
990.599	65.42
990.956	65.43
991.313	65.45
991.67	65.46
992.027	65.32
992.383	65.33
992.74	65.3
993.096	65.4
993.453	65.52
993.809	65.6
994.165	65.59
994.522	65.64
994.878	65.54
995.234	65.46
995.59	65.4
995.946	65.47
996.302	65.44
996.658	65.52
997.013	65.54
997.369	65.58
997.725	65.66
998.08	65.62
998.436	65.51
998.791	65.56
999.147	65.64
999.502	65.68
999.857	65.79
1000.212	65.79
1000.567	65.8
1000.922	65.6
1001.277	65.61
1001.632	65.59
1001.987	65.64
1002.342	65.7
1002.696	65.68
1003.051	65.48
1003.406	65.4
1003.76	65.3
1004.114	65.35
1004.469	65.21
1004.823	65.25
1005.177	65.25
1005.531	65.09
1005.885	65.22
1006.239	65.21
1006.593	65.13
1006.947	65.17
1007.301	65.21
1007.655	65.17
1008.008	65.01
1008.362	64.98
1008.715	65.04
1009.069	64.88
1009.422	64.83
1009.776	64.59
1010.129	64.53
1010.482	64.69
1010.835	64.94
1011.188	64.87
1011.541	64.56
1011.894	64.47
1012.247	64.41
1012.6	64.19
1012.952	64.34
1013.305	64.41
1013.657	64.55
1014.01	64.68
1014.362	64.69
1014.715	64.31
1015.067	64.27
1015.419	64.8
1015.771	65.17
1016.123	65.15
1016.475	65.48
1016.827	65.55
1017.179	65.58
1017.531	65.58
1017.883	65.45
1018.234	65.4
1018.586	65.53
1018.938	65.52
1019.289	65.37
1019.64	65.27
1019.992	65.45
1020.343	65.09
1020.694	64.98
1021.045	64.98
1021.396	64.97
1021.747	64.84
1022.098	64.79
1022.449	64.75
1022.8	64.82
1023.151	64.62
1023.501	64.72
1023.852	64.86
1024.202	64.98
1024.553	65.14
1024.903	65.08
1025.253	64.84
1025.604	64.93
1025.954	64.49
1026.304	64.79
1026.654	65
1027.004	65.46
1027.354	65.02
1027.703	64.69
1028.053	64.33
1028.403	63.89
1028.753	64.13
1029.102	64.19
1029.452	64.11
1029.801	64.49
1030.15	64.27
1030.499	63.9
897.758	664.09
901.051	668.45
904.343	675.64
907.636	666.54
910.928	656.33
914.22	670.79
917.511	657.52
920.803	625.88
924.094	598.89
927.384	600.5
930.675	585.44
933.965	579.33
937.255	581.49
940.544	557.16
943.834	528.17
947.123	519.24
950.411	489.35
953.7	482.21
956.988	472.5
960.276	448.81
963.563	444.73
966.851	418.7
970.138	412.19
973.424	383.29
976.711	379.62
979.997	369.8
983.283	362.65
986.568	352.33
989.853	341.22
993.138	329.13
996.423	327.7
999.708	316.97
1002.992	319.68
1006.275	307.31
1009.559	307.08
1012.842	296.75
1016.125	286.6
1019.408	281.21
1022.69	278.73
1025.972	277.35
1029.254	270.46
1032.536	265.89
1035.817	258.54
1039.098	254.39
1042.379	250.25
1045.659	245.28
1048.939	243.38
1052.219	240.39
1055.498	235.2
1058.778	230.45
1062.057	226.38
1065.335	225.37
1068.614	221.22
1071.892	217.24
1075.17	213.77
1078.447	211.79
1081.724	209.95
1085.001	206.41
1088.278	205.49
1091.554	205.26
1094.83	204.78
1098.106	201.34
1101.382	199.65
1104.657	199.35
1107.932	199.65
1111.206	197.43
1114.481	195.7
1117.755	193.95
1121.029	193.23
1124.302	190.5
1127.575	187.59
1130.848	186.68
1134.121	184.42
1137.393	183.81
1140.665	182.38
1143.937	180.01
1147.208	178.43
1150.48	176.76
1153.75	175.8
1157.021	173.9
1160.291	173.59
1163.561	173.9
1166.831	172.01
1170.101	172.41
1173.37	171.44
1176.639	169.81
1179.907	169.49
1183.176	169.09
1186.444	169.19
1189.711	168.49
1192.979	169.98
1196.246	169.87
1199.513	168.21
1202.78	169.47
1206.046	169.19
1209.312	169.15
1212.578	170.21
1215.843	172.86
1219.108	173.79
1222.373	176.12
1225.638	178.82
1228.902	182.42
1232.166	188.02
1235.43	191.19
1238.693	194.6
1241.956	199.34
1245.219	205.45
1248.482	206.69
1251.744	205.94
1255.006	204.79
1258.268	200.87
1261.529	199.85
1264.79	194.32
1268.051	190.58
1271.312	188.77
1274.572	185.71
1277.832	181.01
1281.092	178.56
1284.351	175.35
1287.61	175.21
1290.869	175.77
1294.128	174.69
1297.386	172.94
1300.644	172.61
1303.902	171.86
1307.159	170.34
1310.416	171.36
1313.673	174.11
1316.93	174.8
1320.186	177.71
1323.442	179.18
1326.697	182.32
1329.953	182.99
1333.208	189.43
1336.463	197.39
1339.717	200.69
1342.972	209.48
1346.226	215.28
1349.479	216.38
1352.733	225.76
1355.986	228.5
1359.238	233.7
1362.491	235.2
1365.743	245.98
1368.995	247.32
1372.247	243.58
1375.498	243.2
1378.749	252.81
1382	250.54
1385.251	250.68
1388.501	249.65
1391.751	254.53
1395	251.92
1398.25	254.38
1401.499	252.24
1404.748	251.89
1407.996	247.96
1411.244	248.77
1414.492	243.92
1417.74	238.11
1420.987	232.8
1424.234	227.99
1427.481	218.35
1430.728	214.38
1433.974	206.94
1437.22	200.13
1440.465	193.94
1443.711	189.11
1446.956	182.58
1450.201	176.05
1453.445	168.56
1456.689	163.08
1459.933	158.68
1463.177	153.19
1466.42	150.1
1469.663	145.68
1472.906	141.9
1476.148	138.08
1479.391	135.26
1482.633	133.5
1485.874	130.53
1489.115	129.62
1492.356	128.17
1495.597	126.41
1498.838	125.3
1502.078	124.23
1505.318	124.07
1508.557	123.35
1511.797	122.33
1515.036	121.72
1518.274	120.86
1521.513	119.93
1524.751	119.47
1527.989	120.08
1531.227	119.58
1534.464	119.71
1537.701	118.6
1540.938	117.96
1544.174	118.08
1547.41	117.73
1550.646	117.63
1553.882	117.43
1557.117	117.25
1560.352	116.82
1563.587	115.54
1566.821	115.62
1570.055	114.7
1573.289	114.48
1576.523	114.7
1579.756	114.15
1582.989	114.62
1586.222	114.58
1589.454	114.51
1592.686	114.22
1595.918	113.94
1599.15	113.94
1602.381	114.13
1605.612	114.7
1608.843	114.85
1612.073	115.3
1615.303	115.38
1618.533	114.68
1621.762	114.85
1624.992	114.85
1628.221	115.11
1631.449	115.71
1634.678	115.22
1637.906	114.93
1641.134	115.25
1644.361	115.25
1647.588	115.05
1650.815	115.25
1654.042	115.44
1657.269	115.21
1660.495	115.83
1663.72	115.37
1666.946	115.96
1670.171	117.03
1673.396	117.61
1676.621	117.58
1679.845	117.59
1683.069	117.16
1686.293	116.91
1689.517	117.08
1692.74	117.64
1695.963	117.7
1699.185	118.99
1702.408	118
1705.63	117.93
1708.852	118.16
1712.073	117.93
1715.294	118.08
1718.515	118.99
1721.736	119.42
1724.956	119.82
1728.176	119.38
1731.396	120.15
1734.616	119.86
1737.835	120.47
1741.054	120.78
1744.272	120.29
1747.491	120.54
1750.709	121.01
1753.927	121.19
1757.144	121.33
1760.361	121.48
1763.578	122.37
1766.795	122.58
1770.011	122.63
1773.227	123.27
1776.443	123.62
1779.658	124.27
1782.874	126.12
1786.089	126.58
1789.303	126.64
1792.518	127.76
1795.732	128.28
1798.945	129.44
1802.159	129.11
1805.372	131.06
1808.585	131.56
1811.797	133.07
1815.01	133.74
1818.222	133.53
1821.434	133.77
1824.645	135.03
1827.856	136.22
1831.067	137.15
1834.278	137.67
1837.488	139.4
1840.698	140.69
1843.908	141.07
1847.117	141.96
1850.326	143.1
1853.535	143.49
1856.744	145.31
1859.952	146.66
1863.16	146.96
1866.368	145.92
1869.575	147.26
1872.782	146.33
1875.989	143.58
1879.196	143.47
1882.402	142.4
1885.608	142.5
1888.814	142.04
1892.019	141.72
1895.224	139.03
1898.429	139.93
1901.634	141.16
1904.838	140.12
1908.042	140.69
1911.246	141.25
1914.449	141.34
1917.652	141.02
1920.855	142.24
1924.058	140.57
1927.26	140.56
1930.462	141.49
1933.664	140.4
1936.865	140.21
1940.066	138.7
1943.267	138.54
1946.467	139.57
1949.668	139.45
1952.868	139.75
1956.067	138.74
1959.267	141.43
1962.466	142.04
1965.665	143.76
1968.863	144.48
1972.061	145.95
1975.259	149.51
1978.457	149.61
1981.654	151.06
1984.852	152.55
1988.048	154.47
1991.245	157.05
1994.441	159.75
1997.637	161.89
2000.833	165.93
2004.028	166.78
2007.223	172.18
2010.418	174.86
2013.613	182.94
2016.807	188.39
2020.001	192.33
2023.194	196.64
2026.388	203.18
2029.581	211.67
2032.774	219.85
2035.966	223.54
2039.158	232.67
2042.35	235.6
2045.542	239.42
2048.733	249.1
2051.924	250.93
2055.115	254.6
2058.306	257.51
2061.496	262.97
2064.686	264.16
2067.875	259.34
2071.065	262.72
2074.254	262.49
2077.442	270.39
2080.631	274.4
2083.819	274.24
2087.007	280.66
2090.195	286.46
2093.382	285.58
2096.569	285.07
2099.756	289.47
2102.942	299.06
2106.128	305.86
2109.314	306.2
2112.5	305.86
2115.685	302.01
2118.87	302.12
2122.055	304.42
2125.239	309.64
2128.424	318.39
2131.608	316.76
2134.791	314.66
2137.974	316.25
2141.157	318.31
2144.34	322.73
2147.523	326.03
2150.705	335.66
2153.887	332.94
2157.068	334.64
2160.25	336.71
2163.431	335.4
2166.611	341.56
2169.792	349.27
2172.972	354.06
2176.152	353.56
2179.331	361.47
2182.511	363.74
2185.69	369.25
2188.868	384.68
2192.047	393.55
2195.225	399.71
2198.403	405.24
2201.58	400.01
2204.758	413.62
2207.935	417.03
2211.111	425.67
2214.288	426.41
2217.464	431.53
2220.64	433.03
2223.815	433.24
2226.991	425.15
2230.166	428.91
2233.34	443.6
2236.515	453.19
2239.689	445.07
2242.863	452.86
2246.036	448.82
2249.209	459.06
2252.382	458.5
2255.555	474.37
2258.727	478.01
2261.9	491.72
2265.071	496.53
2268.243	490.85
2271.414	511.24
2274.585	522.23
2277.756	521.03
2280.926	543.32
2284.096	546.55
2287.266	546.2
2290.436	534.72
2293.605	545.44
2296.774	568.27
2299.942	568.14
2303.111	588.12
2306.279	594.64
2309.447	596.2
2312.614	595.96
2315.781	612.45
2318.948	614.55
2322.115	628.8
2325.281	660.9
2328.447	657.02
2331.613	658.58
2334.779	672.67
2337.944	676.63
2341.109	687.95
2344.274	698.97
2347.438	721.09
2350.602	726.5
2353.766	771.74
2356.929	776.14
2360.092	785.17
2363.255	788.67
2366.418	798.11
2369.58	812.53
2372.742	816.92
2375.904	813.67
2379.066	835.3
2382.227	884.63
2385.388	879.04
2388.548	841.29
2391.709	833.2
2394.869	863.2
2398.029	859.81
2401.188	862
2404.347	891.37
2407.506	919.65
2410.665	887.27
2413.823	884.47
2416.981	881.79
2420.139	838.96
2423.296	906.32
2426.453	963.01
2429.61	915.26
2432.767	985.14
2435.923	1019.94
2439.079	970.65
2442.235	990.01
2445.391	1013.11
2448.546	1013.64
2451.701	1073.81
2454.855	1148.9
2458.009	1013.5
2461.163	1034.47
2464.317	1042
2467.471	1021.25
2470.624	1050.36
2473.777	1041.38
2476.929	1005.52
2480.082	1077.03
2483.234	1130.16
2486.385	1125.62
2489.537	1158.38
2492.688	1274.87
2495.839	1244.49
2498.989	1297.18
2502.14	1297.81
2505.29	1237.69
2508.439	1370.08
2511.589	1413.33
2514.738	1362.11
2517.887	1346.85
2521.035	1267.84
2524.183	1241.37
2527.331	1233.44
2530.479	1205.5
2533.627	1219.54
