Data from N_2_dec_va_2n_049_Splice17_08.txt Node
Date: Sat Feb 29 13:56:12 EST 2020
User: sa697716
Spectrometer: FLMS03696
Trigger mode: 0
Integration Time (sec): 3.180400E-1
Scans to average: 20
Electric dark correction enabled: true
Nonlinearity correction enabled: true
Boxcar width: 5
XAxis mode: Wavelengths
Number of Pixels in Spectrum: 2048
>>>>>Begin Spectral Data<<<<<
187.83	89.06
188.298	89.21
188.766	75.26
189.233	62.23
189.701	84.38
190.169	79.13
190.636	65.74
191.104	16.18
191.571	-215.24
192.039	30.99
192.506	258.12
192.974	5633.02
193.441	-188.64
193.908	96.96
194.375	43.04
194.842	143.39
195.31	98.49
195.777	70.16
196.244	16.25
196.711	17.53
197.177	18.86
197.644	18.02
198.111	18.67
198.578	18.82
199.045	18.48
199.511	19.58
199.978	20.12
200.445	19.86
200.911	19.84
201.378	20.03
201.844	20.41
202.31	20.97
202.777	21.46
203.243	21.98
203.709	22.41
204.176	22.28
204.642	22.19
205.108	22.1
205.574	22.09
206.04	21.95
206.506	21.67
206.972	21.41
207.438	21.07
207.903	20.88
208.369	20.08
208.835	19.8
209.301	20.03
209.766	19.85
210.232	19.68
210.697	19.63
211.163	19.71
211.628	19.53
212.094	19.64
212.559	19.49
213.024	19.2
213.49	19.09
213.955	18.76
214.42	18.02
214.885	17.45
215.35	17.19
215.815	16.37
216.28	15.63
216.745	15
217.21	14.25
217.675	13.48
218.14	12.7
218.604	12.08
219.069	11.62
219.534	11.14
219.998	10.65
220.463	10.26
220.927	9.97
221.392	9.66
221.856	9.4
222.32	9.18
222.785	8.96
223.249	8.8
223.713	8.64
224.177	8.47
224.642	8.38
225.106	8.24
225.57	8.09
226.034	7.99
226.497	7.86
226.961	7.72
227.425	7.59
227.889	7.48
228.353	7.37
228.816	7.26
229.28	7.13
229.744	7.03
230.207	6.96
230.671	6.85
231.134	6.76
231.597	6.68
232.061	6.6
232.524	6.52
232.987	6.43
233.45	6.35
233.914	6.28
234.377	6.21
234.84	6.11
235.303	6.05
235.766	5.99
236.229	5.92
236.691	5.86
237.154	5.8
237.617	5.74
238.08	5.68
238.542	5.63
239.005	5.56
239.468	5.5
239.93	5.45
240.393	5.41
240.855	5.34
241.317	5.29
241.78	5.25
242.242	5.19
242.704	5.14
243.166	5.1
243.629	5.06
244.091	5.01
244.553	4.98
245.015	4.94
245.477	4.88
245.939	4.84
246.4	4.79
246.862	4.74
247.324	4.72
247.786	4.68
248.247	4.64
248.709	4.6
249.17	4.58
249.632	4.54
250.093	4.48
250.555	4.45
251.016	4.43
251.477	4.4
251.939	4.37
252.4	4.34
252.861	4.31
253.322	4.28
253.783	4.25
254.244	4.22
254.705	4.18
255.166	4.18
255.627	4.18
256.088	4.14
256.549	4.11
257.009	4.08
257.47	4.07
257.931	4.05
258.391	4.02
258.852	3.99
259.312	3.97
259.773	3.95
260.233	3.91
260.694	3.88
261.154	3.87
261.614	3.85
262.074	3.82
262.534	3.79
262.994	3.77
263.455	3.75
263.915	3.73
264.374	3.7
264.834	3.68
265.294	3.67
265.754	3.64
266.214	3.63
266.673	3.62
267.133	3.6
267.593	3.59
268.052	3.57
268.512	3.56
268.971	3.55
269.431	3.54
269.89	3.53
270.349	3.51
270.809	3.5
271.268	3.49
271.727	3.48
272.186	3.47
272.645	3.45
273.104	3.44
273.563	3.42
274.022	3.41
274.481	3.4
274.94	3.38
275.399	3.37
275.857	3.36
276.316	3.34
276.775	3.32
277.233	3.31
277.692	3.3
278.15	3.29
278.609	3.28
279.067	3.26
279.525	3.24
279.984	3.23
280.442	3.22
280.9	3.21
281.358	3.21
281.816	3.2
282.274	3.19
282.732	3.18
283.19	3.17
283.648	3.17
284.106	3.17
284.564	3.16
285.021	3.16
285.479	3.15
285.937	3.14
286.394	3.12
286.852	3.11
287.309	3.11
287.767	3.09
288.224	3.08
288.682	3.07
289.139	3.05
289.596	3.04
290.053	3.02
290.511	3
290.968	3
291.425	2.98
291.882	2.97
292.339	2.95
292.796	2.94
293.252	2.93
293.709	2.92
294.166	2.9
294.623	2.9
295.079	2.89
295.536	2.88
295.992	2.87
296.449	2.86
296.905	2.84
297.362	2.83
297.818	2.82
298.274	2.81
298.731	2.81
299.187	2.8
299.643	2.79
300.099	2.79
300.555	2.78
301.011	2.77
301.467	2.76
301.923	2.77
302.379	2.77
302.835	2.76
303.291	2.75
303.746	2.75
304.202	2.73
304.658	2.72
305.113	2.72
305.569	2.72
306.024	2.7
306.479	2.69
306.935	2.68
307.39	2.67
307.845	2.67
308.301	2.67
308.756	2.67
309.211	2.67
309.666	2.67
310.121	2.66
310.576	2.66
311.031	2.66
311.486	2.66
311.94	2.65
312.395	2.65
312.85	2.64
313.305	2.64
313.759	2.63
314.214	2.63
314.668	2.63
315.123	2.63
315.577	2.62
316.032	2.61
316.486	2.61
316.94	2.61
317.394	2.6
317.849	2.59
318.303	2.59
318.757	2.57
319.211	2.55
319.665	2.55
320.119	2.53
320.572	2.54
321.026	2.53
321.48	2.52
321.934	2.52
322.387	2.52
322.841	2.52
323.295	2.51
323.748	2.51
324.202	2.52
324.655	2.51
325.108	2.51
325.562	2.49
326.015	2.49
326.468	2.48
326.921	2.47
327.374	2.47
327.827	2.47
328.28	2.46
328.733	2.45
329.186	2.45
329.639	2.44
330.092	2.44
330.545	2.44
330.997	2.45
331.45	2.45
331.903	2.44
332.355	2.44
332.808	2.44
333.26	2.44
333.713	2.44
334.165	2.44
334.617	2.45
335.069	2.44
335.522	2.45
335.974	2.44
336.426	2.43
336.878	2.43
337.33	2.43
337.782	2.44
338.234	2.43
338.686	2.43
339.137	2.44
339.589	2.43
340.041	2.42
340.493	2.41
340.944	2.41
341.396	2.4
341.847	2.39
342.299	2.39
342.75	2.37
343.201	2.36
343.653	2.35
344.104	2.33
344.555	2.33
345.006	2.32
345.457	2.32
345.908	2.31
346.359	2.32
346.81	2.32
347.261	2.31
347.712	2.31
348.163	2.31
348.613	2.31
349.064	2.31
349.515	2.3
349.965	2.3
350.416	2.29
350.866	2.29
351.317	2.28
351.767	2.26
352.217	2.26
352.668	2.26
353.118	2.26
353.568	2.27
354.018	2.28
354.468	2.27
354.918	2.27
355.368	2.28
355.818	2.27
356.268	2.27
356.718	2.28
357.168	2.28
357.617	2.27
358.067	2.27
358.517	2.26
358.966	2.26
359.416	2.27
359.865	2.27
360.315	2.26
360.764	2.27
361.213	2.27
361.663	2.26
362.112	2.27
362.561	2.28
363.01	2.29
363.459	2.29
363.908	2.28
364.357	2.28
364.806	2.27
365.255	2.28
365.703	2.29
366.152	2.29
366.601	2.3
367.05	2.3
367.498	2.3
367.947	2.3
368.395	2.3
368.844	2.29
369.292	2.29
369.74	2.3
370.189	2.3
370.637	2.31
371.085	2.32
371.533	2.31
371.981	2.31
372.429	2.31
372.877	2.31
373.325	2.31
373.773	2.32
374.221	2.32
374.669	2.32
375.116	2.31
375.564	2.31
376.012	2.32
376.459	2.33
376.907	2.33
377.354	2.33
377.801	2.34
378.249	2.36
378.696	2.38
379.143	2.4
379.591	2.42
380.038	2.45
380.485	2.47
380.932	2.48
381.379	2.49
381.826	2.52
382.273	2.54
382.72	2.56
383.166	2.59
383.613	2.61
384.06	2.64
384.506	2.66
384.953	2.69
385.4	2.71
385.846	2.73
386.292	2.76
386.739	2.77
387.185	2.81
387.631	2.84
388.078	2.87
388.524	2.88
388.97	2.9
389.416	2.92
389.862	2.94
390.308	2.98
390.754	3.01
391.2	3.05
391.645	3.09
392.091	3.1
392.537	3.13
392.983	3.16
393.428	3.2
393.874	3.25
394.319	3.28
394.765	3.32
395.21	3.34
395.655	3.38
396.101	3.4
396.546	3.43
396.991	3.46
397.436	3.47
397.881	3.49
398.326	3.52
398.771	3.53
399.216	3.55
399.661	3.56
400.106	3.59
400.551	3.6
400.995	3.61
401.44	3.62
401.885	3.63
402.329	3.66
402.774	3.66
403.218	3.66
403.663	3.65
404.107	3.66
404.551	3.66
404.995	3.65
405.44	3.65
405.884	3.64
406.328	3.64
406.772	3.64
407.216	3.65
407.66	3.66
408.104	3.66
408.547	3.67
408.991	3.67
409.435	3.66
409.879	3.67
410.322	3.69
410.766	3.69
411.209	3.7
411.653	3.68
412.096	3.67
412.54	3.66
412.983	3.67
413.426	3.68
413.869	3.69
414.312	3.71
414.756	3.71
415.199	3.72
415.642	3.74
416.085	3.75
416.527	3.78
416.97	3.78
417.413	3.77
417.856	3.76
418.298	3.74
418.741	3.72
419.184	3.72
419.626	3.71
420.069	3.7
420.511	3.69
420.953	3.68
421.396	3.68
421.838	3.7
422.28	3.7
422.722	3.72
423.164	3.72
423.606	3.71
424.048	3.69
424.49	3.7
424.932	3.67
425.374	3.66
425.816	3.64
426.258	3.62
426.699	3.61
427.141	3.6
427.582	3.57
428.024	3.59
428.465	3.59
428.907	3.6
429.348	3.59
429.789	3.61
430.231	3.6
430.672	3.61
431.113	3.61
431.554	3.61
431.995	3.62
432.436	3.63
432.877	3.61
433.318	3.61
433.759	3.61
434.2	3.61
434.64	3.61
435.081	3.62
435.522	3.62
435.962	3.64
436.403	3.66
436.843	3.66
437.284	3.67
437.724	3.7
438.164	3.71
438.604	3.75
439.045	3.76
439.485	3.77
439.925	3.78
440.365	3.77
440.805	3.79
441.245	3.79
441.685	3.82
442.125	3.84
442.564	3.85
443.004	3.88
443.444	3.9
443.883	3.93
444.323	3.97
444.762	4.02
445.202	4.08
445.641	4.12
446.081	4.17
446.52	4.2
446.959	4.25
447.398	4.31
447.837	4.36
448.276	4.38
448.716	4.42
449.154	4.48
449.593	4.51
450.032	4.54
450.471	4.57
450.91	4.58
451.349	4.61
451.787	4.62
452.226	4.63
452.664	4.64
453.103	4.66
453.541	4.67
453.98	4.66
454.418	4.68
454.856	4.66
455.295	4.65
455.733	4.66
456.171	4.65
456.609	4.66
457.047	4.66
457.485	4.66
457.923	4.65
458.361	4.64
458.798	4.65
459.236	4.64
459.674	4.65
460.111	4.68
460.549	4.65
460.987	4.66
461.424	4.65
461.862	4.64
462.299	4.64
462.736	4.64
463.173	4.64
463.611	4.62
464.048	4.63
464.485	4.62
464.922	4.59
465.359	4.6
465.796	4.59
466.233	4.61
466.67	4.62
467.106	4.62
467.543	4.62
467.98	4.63
468.416	4.64
468.853	4.65
469.29	4.67
469.726	4.68
470.162	4.69
470.599	4.7
471.035	4.71
471.471	4.7
471.907	4.71
472.344	4.72
472.78	4.73
473.216	4.74
473.652	4.73
474.088	4.76
474.523	4.76
474.959	4.77
475.395	4.78
475.831	4.78
476.266	4.78
476.702	4.79
477.138	4.78
477.573	4.77
478.008	4.77
478.444	4.78
478.879	4.77
479.314	4.78
479.75	4.78
480.185	4.79
480.62	4.79
481.055	4.81
481.49	4.8
481.925	4.82
482.36	4.83
482.795	4.84
483.229	4.86
483.664	4.88
484.099	4.89
484.534	4.89
484.968	4.9
485.403	4.91
485.837	4.93
486.271	4.96
486.706	4.98
487.14	5.02
487.574	5.05
488.009	5.08
488.443	5.11
488.877	5.15
489.311	5.2
489.745	5.24
490.179	5.29
490.613	5.34
491.046	5.39
491.48	5.45
491.914	5.51
492.348	5.57
492.781	5.63
493.215	5.69
493.648	5.77
494.082	5.86
494.515	5.95
494.948	6.03
495.382	6.13
495.815	6.23
496.248	6.33
496.681	6.43
497.114	6.54
497.547	6.65
497.98	6.77
498.413	6.88
498.846	7.01
499.279	7.14
499.711	7.29
500.144	7.43
500.577	7.57
501.009	7.73
501.442	7.9
501.874	8.07
502.306	8.26
502.739	8.46
503.171	8.67
503.603	8.87
504.036	9.08
504.468	9.31
504.9	9.54
505.332	9.78
505.764	10.04
506.196	10.29
506.627	10.56
507.059	10.82
507.491	11.1
507.923	11.38
508.354	11.67
508.786	11.96
509.217	12.25
509.649	12.56
510.08	12.88
510.512	13.2
510.943	13.53
511.374	13.86
511.805	14.2
512.237	14.53
512.668	14.87
513.099	15.24
513.53	15.6
513.961	15.98
514.391	16.35
514.822	16.71
515.253	17.06
515.684	17.4
516.114	17.77
516.545	18.13
516.975	18.5
517.406	18.86
517.836	19.21
518.267	19.59
518.697	19.95
519.127	20.31
519.558	20.64
519.988	21
520.418	21.34
520.848	21.68
521.278	22.01
521.708	22.23
522.138	22.54
522.567	22.84
522.997	23.13
523.427	23.41
523.857	23.67
524.286	23.94
524.716	24.2
525.145	24.49
525.575	24.74
526.004	24.97
526.433	25.32
526.863	25.56
527.292	25.78
527.721	26
528.15	26.18
528.579	26.4
529.008	26.6
529.437	26.77
529.866	26.93
530.295	27.09
530.724	27.26
531.152	27.4
531.581	27.54
532.01	27.67
532.438	27.8
532.867	27.94
533.295	28.04
533.723	28.17
534.152	28.29
534.58	28.38
535.008	28.45
535.436	28.54
535.865	28.6
536.293	28.71
536.721	28.79
537.149	28.85
537.576	28.92
538.004	28.98
538.432	29.02
538.86	29.05
539.287	29.11
539.715	29.18
540.143	29.22
540.57	29.28
540.998	29.3
541.425	29.32
541.852	29.37
542.28	29.38
542.707	29.42
543.134	29.46
543.561	29.48
543.988	29.51
544.415	29.53
544.842	29.56
545.269	29.58
545.696	29.62
546.123	29.65
546.549	29.66
546.976	29.69
547.403	29.71
547.829	29.71
548.256	29.74
548.682	29.76
549.108	29.81
549.535	29.82
549.961	29.8
550.387	29.8
550.813	29.78
551.24	29.78
551.666	29.79
552.092	29.8
552.518	29.8
552.943	29.81
553.369	29.79
553.795	29.75
554.221	29.73
554.646	29.72
555.072	29.69
555.498	29.68
555.923	29.66
556.349	29.6
556.774	29.54
557.199	29.47
557.625	29.41
558.05	29.33
558.475	29.24
558.9	29.17
559.325	29.09
559.75	29
560.175	28.9
560.6	28.79
561.025	28.7
561.449	28.59
561.874	28.5
562.299	28.38
562.723	28.29
563.148	28.16
563.572	28.03
563.997	27.92
564.421	27.77
564.846	27.63
565.27	27.48
565.694	27.33
566.118	27.19
566.542	27.03
566.966	26.88
567.39	26.72
567.814	26.55
568.238	26.38
568.662	26.21
569.086	26.06
569.509	25.9
569.933	25.72
570.357	25.54
570.78	25.35
571.204	25.19
571.627	25.02
572.05	24.87
572.474	24.72
572.897	24.55
573.32	24.39
573.743	24.21
574.166	24.05
574.589	23.9
575.012	23.76
575.435	23.62
575.858	23.47
576.281	23.33
576.704	23.18
577.126	23.04
577.549	22.94
577.972	22.83
578.394	22.71
578.817	22.61
579.239	22.53
579.661	22.43
580.084	22.33
580.506	22.24
580.928	22.15
581.35	22.06
581.772	21.98
582.194	21.87
582.616	21.78
583.038	21.7
583.46	21.62
583.882	21.53
584.303	21.44
584.725	21.36
585.147	21.27
585.568	21.17
585.99	21.08
586.411	21
586.833	20.94
587.254	20.88
587.675	20.83
588.096	20.75
588.518	20.68
588.939	20.62
589.36	20.56
589.781	20.51
590.202	20.48
590.623	20.42
591.043	20.38
591.464	20.32
591.885	20.28
592.305	20.23
592.726	20.17
593.147	20.14
593.567	20.08
593.987	20.07
594.408	20.02
594.828	19.99
595.248	19.97
595.669	19.94
596.089	19.91
596.509	19.85
596.929	19.8
597.349	19.75
597.769	19.71
598.189	19.68
598.608	19.62
599.028	19.57
599.448	19.53
599.867	19.46
600.287	19.39
600.706	19.33
601.126	19.28
601.545	19.23
601.965	19.18
602.384	19.13
602.803	19.06
603.222	18.99
603.641	18.92
604.061	18.85
604.48	18.78
604.898	18.7
605.317	18.62
605.736	18.53
606.155	18.44
606.574	18.35
606.992	18.25
607.411	18.16
607.829	18.03
608.248	17.93
608.666	17.82
609.085	17.72
609.503	17.62
609.921	17.53
610.339	17.43
610.758	17.34
611.176	17.24
611.594	17.11
612.012	17.01
612.43	16.96
612.847	16.85
613.265	16.78
613.683	16.69
614.101	16.58
614.518	16.48
614.936	16.38
615.353	16.29
615.771	16.2
616.188	16.13
616.606	16.05
617.023	15.97
617.44	15.91
617.857	15.81
618.274	15.74
618.691	15.71
619.108	15.64
619.525	15.59
619.942	15.54
620.359	15.5
620.776	15.46
621.192	15.42
621.609	15.36
622.026	15.32
622.442	15.29
622.859	15.25
623.275	15.23
623.691	15.21
624.108	15.19
624.524	15.17
624.94	15.14
625.356	15.12
625.772	15.11
626.188	15.1
626.604	15.07
627.02	15.06
627.436	15.06
627.852	15.03
628.268	15.01
628.683	14.98
629.099	14.96
629.514	14.94
629.93	14.92
630.345	14.89
630.761	14.86
631.176	14.82
631.591	14.77
632.007	14.72
632.422	14.65
632.837	14.57
633.252	14.5
633.667	14.41
634.082	14.32
634.497	14.22
634.911	14.1
635.326	13.97
635.741	13.84
636.155	13.72
636.57	13.6
636.984	13.46
637.399	13.31
637.813	13.16
638.228	13
638.642	12.84
639.056	12.67
639.47	12.52
639.884	12.37
640.298	12.21
640.712	12.04
641.126	11.86
641.54	11.7
641.954	11.54
642.368	11.37
642.781	11.23
643.195	11.05
643.609	10.9
644.022	10.74
644.436	10.59
644.849	10.45
645.262	10.32
645.676	10.18
646.089	10.04
646.502	9.92
646.915	9.81
647.328	9.7
647.741	9.6
648.154	9.5
648.567	9.43
648.98	9.35
649.393	9.27
649.805	9.18
650.218	9.12
650.631	9.05
651.043	8.99
651.456	8.94
651.868	8.86
652.28	8.81
652.693	8.74
653.105	8.66
653.517	8.59
653.929	8.52
654.341	8.45
654.753	8.36
655.165	8.27
655.577	8.18
655.989	8.08
656.401	7.98
656.813	7.85
657.224	7.73
657.636	7.62
658.047	7.49
658.459	7.36
658.87	7.23
659.282	7.11
659.693	6.98
660.104	6.84
660.515	6.7
660.926	6.57
661.338	6.45
661.749	6.32
662.159	6.19
662.57	6.07
662.981	5.94
663.392	5.83
663.803	5.72
664.213	5.62
664.624	5.53
665.035	5.43
665.445	5.34
665.855	5.27
666.266	5.21
666.676	5.14
667.086	5.06
667.497	5.01
667.907	4.94
668.317	4.88
668.727	4.83
669.137	4.78
669.547	4.76
669.956	4.74
670.366	4.71
670.776	4.68
671.186	4.66
671.595	4.67
672.005	4.67
672.414	4.67
672.824	4.69
673.233	4.69
673.642	4.7
674.052	4.7
674.461	4.7
674.87	4.72
675.279	4.74
675.688	4.76
676.097	4.77
676.506	4.79
676.915	4.83
677.323	4.86
677.732	4.91
678.141	4.95
678.549	5.01
678.958	5.08
679.366	5.14
679.775	5.22
680.183	5.33
680.592	5.46
681	5.57
681.408	5.72
681.816	5.86
682.224	6.03
682.632	6.24
683.04	6.46
683.448	6.7
683.856	6.96
684.264	7.26
684.671	7.59
685.079	7.93
685.487	8.32
685.894	8.73
686.302	9.16
686.709	9.62
687.116	10.12
687.524	10.65
687.931	11.19
688.338	11.78
688.745	12.39
689.152	13
689.559	13.65
689.966	14.3
690.373	14.98
690.78	15.69
691.187	16.41
691.593	17.14
692	17.85
692.407	18.59
692.813	19.33
693.22	20.07
693.626	20.8
694.032	21.53
694.439	22.26
694.845	22.97
695.251	23.65
695.657	24.35
696.063	25.03
696.469	25.71
696.875	26.35
697.281	26.96
697.687	27.57
698.093	28.19
698.498	28.8
698.904	29.39
699.31	29.98
699.715	30.56
700.12	31.08
700.526	31.62
700.931	32.14
701.337	32.66
701.742	33.16
702.147	33.65
702.552	34.13
702.957	34.58
703.362	35.04
703.767	35.45
704.172	35.87
704.577	36.3
704.981	36.7
705.386	37.1
705.791	37.51
706.195	37.89
706.6	38.27
707.004	38.64
707.408	39
707.813	39.34
708.217	39.7
708.621	40.02
709.025	40.35
709.43	40.65
709.834	40.98
710.237	41.26
710.641	41.58
711.045	41.83
711.449	42.09
711.853	42.34
712.256	42.59
712.66	42.85
713.064	43.09
713.467	43.33
713.87	43.58
714.274	43.82
714.677	44.06
715.08	44.28
715.484	44.52
715.887	44.75
716.29	44.98
716.693	45.21
717.096	45.43
717.499	45.67
717.901	45.86
718.304	46.04
718.707	46.19
719.109	46.39
719.512	46.58
719.915	46.77
720.317	46.95
720.719	47.11
721.122	47.24
721.524	47.4
721.926	47.57
722.328	47.73
722.731	47.89
723.133	48.03
723.535	48.18
723.937	48.3
724.338	48.38
724.74	48.5
725.142	48.63
725.544	48.75
725.945	48.88
726.347	48.98
726.748	49.06
727.15	49.14
727.551	49.26
727.952	49.32
728.354	49.42
728.755	49.55
729.156	49.61
729.557	49.71
729.958	49.81
730.359	49.87
730.76	49.92
731.161	50.01
731.562	50.1
731.962	50.16
732.363	50.24
732.763	50.29
733.164	50.33
733.564	50.4
733.965	50.39
734.365	50.41
734.766	50.42
735.166	50.44
735.566	50.46
735.966	50.47
736.366	50.51
736.766	50.52
737.166	50.57
737.566	50.61
737.966	50.66
738.365	50.72
738.765	50.77
739.165	50.78
739.564	50.85
739.964	50.89
740.363	50.94
740.763	50.93
741.162	50.96
741.561	50.97
741.96	50.97
742.36	50.96
742.759	50.95
743.158	50.96
743.557	51.02
743.955	51.03
744.354	51.07
744.753	51.08
745.152	51.08
745.55	51.11
745.949	51.15
746.348	51.17
746.746	51.19
747.144	51.26
747.543	51.3
747.941	51.34
748.339	51.4
748.737	51.41
749.136	51.45
749.534	51.49
749.932	51.48
750.33	51.44
750.727	51.47
751.125	51.5
751.523	51.46
751.921	51.47
752.318	51.46
752.716	51.4
753.113	51.42
753.511	51.39
753.908	51.4
754.305	51.42
754.703	51.44
755.1	51.42
755.497	51.4
755.894	51.42
756.291	51.42
756.688	51.41
757.085	51.43
757.482	51.39
757.878	51.41
758.275	51.41
758.672	51.43
759.068	51.44
759.465	51.45
759.861	51.46
760.258	51.45
760.654	51.44
761.05	51.4
761.447	51.38
761.843	51.36
762.239	51.31
762.635	51.31
763.031	51.29
763.427	51.26
763.822	51.27
764.218	51.24
764.614	51.22
765.01	51.16
765.405	51.19
765.801	51.17
766.196	51.19
766.592	51.2
766.987	51.17
767.382	51.17
767.778	51.19
768.173	51.17
768.568	51.14
768.963	51.13
769.358	51.16
769.753	51.18
770.148	51.17
770.542	51.16
770.937	51.14
771.332	51.19
771.726	51.15
772.121	51.09
772.515	51.09
772.91	51.11
773.304	51.12
773.699	51.12
774.093	51.07
774.487	51.09
774.881	51.08
775.275	51.09
775.669	51.02
776.063	51.04
776.457	51.09
776.851	51.06
777.245	51.09
777.638	51.06
778.032	51.06
778.425	51.09
778.819	51.11
779.212	51.11
779.606	51.11
779.999	51.13
780.392	51.12
780.786	51.1
781.179	51.12
781.572	51.09
781.965	51.11
782.358	51.06
782.751	51.02
783.143	51.02
783.536	51.08
783.929	51.1
784.322	51.12
784.714	51.12
785.107	51.13
785.499	51.13
785.891	51.14
786.284	51.13
786.676	51.19
787.068	51.21
787.46	51.19
787.852	51.16
788.245	51.14
788.636	51.15
789.028	51.15
789.42	51.12
789.812	51.16
790.204	51.12
790.595	51.14
790.987	51.11
791.378	51.08
791.77	51.11
792.161	51.13
792.553	51.08
792.944	51.1
793.335	51.15
793.726	51.13
794.117	51.08
794.508	51.12
794.899	51.12
795.29	51.12
795.681	51.19
796.072	51.17
796.463	51.14
796.853	51.19
797.244	51.18
797.634	51.14
798.025	51.18
798.415	51.22
798.806	51.23
799.196	51.29
799.586	51.31
799.976	51.26
800.366	51.28
800.756	51.3
801.146	51.28
801.536	51.29
801.926	51.32
802.316	51.34
802.706	51.38
803.095	51.38
803.485	51.38
803.874	51.34
804.264	51.39
804.653	51.39
805.043	51.4
805.432	51.39
805.821	51.38
806.21	51.39
806.599	51.39
806.988	51.36
807.377	51.36
807.766	51.35
808.155	51.38
808.544	51.37
808.933	51.36
809.321	51.4
809.71	51.46
810.098	51.48
810.487	51.47
810.875	51.45
811.264	51.46
811.652	51.48
812.04	51.48
812.428	51.47
812.816	51.49
813.204	51.48
813.592	51.47
813.98	51.46
814.368	51.45
814.756	51.46
815.144	51.51
815.531	51.52
815.919	51.5
816.306	51.5
816.694	51.53
817.081	51.51
817.469	51.54
817.856	51.54
818.243	51.58
818.63	51.61
819.017	51.61
819.404	51.58
819.791	51.55
820.178	51.57
820.565	51.58
820.952	51.58
821.339	51.64
821.725	51.66
822.112	51.67
822.498	51.66
822.885	51.65
823.271	51.66
823.657	51.68
824.044	51.73
824.43	51.74
824.816	51.75
825.202	51.72
825.588	51.69
825.974	51.68
826.36	51.69
826.746	51.69
827.132	51.67
827.517	51.71
827.903	51.69
828.289	51.67
828.674	51.67
829.06	51.69
829.445	51.77
829.83	51.81
830.216	51.83
830.601	51.83
830.986	51.81
831.371	51.86
831.756	51.81
832.141	51.83
832.526	51.86
832.911	51.89
833.295	51.89
833.68	51.85
834.065	51.84
834.449	51.83
834.834	51.82
835.218	51.83
835.603	51.81
835.987	51.83
836.371	51.83
836.755	51.8
837.139	51.77
837.524	51.77
837.908	51.75
838.291	51.73
838.675	51.75
839.059	51.77
839.443	51.78
839.827	51.79
840.21	51.8
840.594	51.8
840.977	51.79
841.361	51.82
841.744	51.82
842.127	51.84
842.511	51.82
842.894	51.8
843.277	51.75
843.66	51.73
844.043	51.74
844.426	51.73
844.809	51.73
845.191	51.73
845.574	51.71
845.957	51.69
846.339	51.7
846.722	51.71
847.104	51.72
847.487	51.75
847.869	51.74
848.252	51.74
848.634	51.74
849.016	51.72
849.398	51.72
849.78	51.71
850.162	51.73
850.544	51.76
850.926	51.74
851.307	51.75
851.689	51.72
852.071	51.71
852.452	51.7
852.834	51.67
853.215	51.7
853.597	51.75
853.978	51.72
854.359	51.72
854.741	51.68
855.122	51.7
855.503	51.7
855.884	51.71
856.265	51.72
856.646	51.69
857.026	51.71
857.407	51.65
857.788	51.61
858.169	51.63
858.549	51.65
858.93	51.64
859.31	51.63
859.69	51.6
860.071	51.6
860.451	51.6
860.831	51.62
861.211	51.61
861.591	51.63
861.971	51.61
862.351	51.62
862.731	51.59
863.111	51.6
863.491	51.6
863.87	51.6
864.25	51.61
864.629	51.65
865.009	51.65
865.388	51.67
865.768	51.66
866.147	51.69
866.526	51.67
866.905	51.67
867.284	51.66
867.663	51.66
868.042	51.67
868.421	51.66
868.8	51.6
869.179	51.61
869.558	51.58
869.936	51.6
870.315	51.61
870.693	51.63
871.072	51.6
871.45	51.56
871.828	51.56
872.207	51.57
872.585	51.59
872.963	51.59
873.341	51.6
873.719	51.6
874.097	51.59
874.475	51.56
874.853	51.52
875.23	51.55
875.608	51.59
875.986	51.6
876.363	51.59
876.741	51.57
877.118	51.6
877.495	51.56
877.873	51.54
878.25	51.52
878.627	51.52
879.004	51.54
879.381	51.54
879.758	51.53
880.135	51.53
880.512	51.52
880.889	51.54
881.265	51.53
881.642	51.56
882.019	51.6
882.395	51.64
882.772	51.64
883.148	51.64
883.524	51.65
883.901	51.62
884.277	51.61
884.653	51.62
885.029	51.6
885.405	51.58
885.781	51.55
886.157	51.54
886.532	51.52
886.908	51.53
887.284	51.55
887.659	51.56
888.035	51.58
888.411	51.58
888.786	51.55
889.161	51.58
889.537	51.61
889.912	51.59
890.287	51.6
890.662	51.59
891.037	51.55
891.412	51.52
891.787	51.5
892.162	51.47
892.536	51.45
892.911	51.46
893.286	51.4
893.66	51.38
894.035	51.38
894.409	51.35
894.784	51.35
895.158	51.37
895.532	51.36
895.906	51.34
896.281	51.33
896.655	51.33
897.029	51.31
897.402	51.32
897.776	51.29
898.15	51.31
898.524	51.28
898.898	51.24
899.271	51.22
899.645	51.19
900.018	51.18
900.392	51.2
900.765	51.2
901.138	51.2
901.511	51.2
901.884	51.21
902.258	51.13
902.631	51.13
903.003	51.14
903.376	51.13
903.749	51.17
904.122	51.2
904.495	51.17
904.867	51.16
905.24	51.16
905.612	51.12
905.985	51.11
906.357	51.15
906.729	51.15
907.102	51.16
907.474	51.16
907.846	51.13
908.218	51.09
908.59	51.06
908.962	51.01
909.334	51.01
909.705	51.02
910.077	50.99
910.449	50.99
910.82	50.96
911.192	50.9
911.563	50.88
911.935	50.83
912.306	50.83
912.677	50.86
913.048	50.91
913.419	50.89
913.79	50.86
914.161	50.87
914.532	50.84
914.903	50.85
915.274	50.89
915.645	50.87
916.015	50.88
916.386	50.84
916.756	50.8
917.127	50.78
917.497	50.78
917.868	50.77
918.238	50.79
918.608	50.78
918.978	50.77
919.348	50.73
919.718	50.72
920.088	50.76
920.458	50.83
920.828	50.84
921.198	50.85
921.567	50.85
921.937	50.86
922.306	50.83
922.676	50.85
923.045	50.82
923.415	50.8
923.784	50.83
924.153	50.81
924.522	50.78
924.891	50.73
925.26	50.71
925.629	50.68
925.998	50.67
926.367	50.64
926.736	50.63
927.104	50.65
927.473	50.69
927.842	50.65
928.21	50.67
928.578	50.62
928.947	50.6
929.315	50.58
929.683	50.6
930.051	50.58
930.42	50.56
930.788	50.54
931.156	50.54
931.523	50.54
931.891	50.49
932.259	50.45
932.627	50.38
932.994	50.38
933.362	50.33
933.729	50.24
934.097	50.18
934.464	50.21
934.831	50.14
935.199	50.08
935.566	50.02
935.933	50.03
936.3	49.95
936.667	49.96
937.034	49.89
937.401	49.86
937.767	49.86
938.134	49.81
938.501	49.73
938.867	49.77
939.234	49.77
939.6	49.69
939.967	49.69
940.333	49.71
940.699	49.76
941.065	49.79
941.431	49.77
941.798	49.79
942.163	49.81
942.529	49.84
942.895	49.81
943.261	49.75
943.627	49.89
943.992	49.87
944.358	49.92
944.723	49.88
945.089	49.87
945.454	49.98
945.82	50.01
946.185	50.07
946.55	50.11
946.915	50.08
947.28	50.13
947.645	50.09
948.01	50.1
948.375	50.14
948.74	50.12
949.104	50.21
949.469	50.15
949.834	50.13
950.198	50.09
950.562	50.03
950.927	50.07
951.291	49.98
951.655	50
952.02	49.97
952.384	50
952.748	50.02
953.112	49.93
953.476	49.9
953.839	49.88
954.203	49.81
954.567	49.9
954.931	49.85
955.294	49.87
955.658	49.76
956.021	49.75
956.385	49.69
956.748	49.64
957.111	49.68
957.474	49.7
957.837	49.72
958.2	49.73
958.563	49.63
958.926	49.61
959.289	49.6
959.652	49.58
960.015	49.55
960.377	49.55
960.74	49.57
961.102	49.51
961.465	49.49
961.827	49.43
962.189	49.42
962.552	49.37
962.914	49.35
963.276	49.37
963.638	49.35
964	49.28
964.362	49.2
964.724	49.16
965.085	49.15
965.447	49.08
965.809	49
966.17	48.98
966.532	49.01
966.893	48.99
967.255	48.9
967.616	48.95
967.977	49.02
968.338	49.06
968.699	49.03
969.061	48.96
969.421	48.99
969.782	49.05
970.143	49.09
970.504	49.04
970.865	49.03
971.225	49.11
971.586	49.14
971.946	49.11
972.307	49.04
972.667	49.1
973.027	49.21
973.388	49.22
973.748	49.23
974.108	49.19
974.468	49.15
974.828	49.2
975.188	49.23
975.548	49.23
975.907	49.24
976.267	49.25
976.627	49.2
976.986	49.19
977.346	49.19
977.705	49.22
978.064	49.21
978.424	49.27
978.783	49.26
979.142	49.16
979.501	49.02
979.86	48.95
980.219	48.91
980.578	48.92
980.937	48.93
981.296	48.95
981.654	48.99
982.013	49.05
982.371	49.03
982.73	48.97
983.088	48.91
983.447	48.96
983.805	48.97
984.163	48.98
984.521	48.86
984.879	48.83
985.237	48.74
985.595	48.66
985.953	48.55
986.311	48.52
986.669	48.46
987.026	48.52
987.384	48.51
987.741	48.6
988.099	48.66
988.456	48.76
988.814	48.75
989.171	48.79
989.528	48.72
989.885	48.85
990.242	48.86
990.599	48.93
990.956	48.95
991.313	49.03
991.67	49.02
992.027	49
992.383	48.95
992.74	48.9
993.096	48.82
993.453	48.85
993.809	48.73
994.165	48.71
994.522	48.74
994.878	48.68
995.234	48.6
995.59	48.36
995.946	48.43
996.302	48.49
996.658	48.42
997.013	48.42
997.369	48.56
997.725	48.53
998.08	48.45
998.436	48.36
998.791	48.28
999.147	48.31
999.502	48.35
999.857	48.21
1000.212	48.05
1000.567	48.05
1000.922	47.94
1001.277	47.77
1001.632	47.74
1001.987	47.78
1002.342	47.68
1002.696	47.67
1003.051	47.46
1003.406	47.49
1003.76	47.45
1004.114	47.55
1004.469	47.53
1004.823	47.63
1005.177	47.74
1005.531	47.58
1005.885	47.52
1006.239	47.5
1006.593	47.59
1006.947	47.75
1007.301	47.87
1007.655	47.99
1008.008	47.99
1008.362	48.07
1008.715	48.01
1009.069	47.73
1009.422	47.64
1009.776	47.66
1010.129	47.71
1010.482	47.61
1010.835	47.54
1011.188	47.25
1011.541	46.92
1011.894	46.79
1012.247	46.57
1012.6	46.59
1012.952	46.77
1013.305	46.88
1013.657	46.98
1014.01	47.05
1014.362	46.98
1014.715	46.82
1015.067	47.03
1015.419	47.27
1015.771	47.41
1016.123	47.29
1016.475	47.38
1016.827	47.54
1017.179	47.43
1017.531	47.27
1017.883	47.07
1018.234	47.34
1018.586	47.34
1018.938	47.11
1019.289	47.01
1019.64	46.96
1019.992	47.39
1020.343	47.04
1020.694	46.52
1021.045	46.45
1021.396	46.44
1021.747	46.59
1022.098	46.25
1022.449	46.27
1022.8	46.06
1023.151	46.07
1023.501	45.87
1023.852	45.64
1024.202	45.84
1024.553	45.92
1024.903	46.03
1025.253	46.09
1025.604	46.33
1025.954	46.17
1026.304	46.54
1026.654	46.72
1027.004	46.63
1027.354	46.63
1027.703	46.2
1028.053	46.09
1028.403	45.94
1028.753	46.15
1029.102	45.85
1029.452	45.26
1029.801	45.19
1030.15	44.78
1030.499	44.76
897.758	699.77
901.051	703.15
904.343	713.34
907.636	697.5
910.928	686.06
914.22	696.92
917.511	686.54
920.803	651.4
924.094	626.91
927.384	629.65
930.675	607.62
933.965	599.91
937.255	602.88
940.544	573.73
943.834	549.87
947.123	541.38
950.411	510.85
953.7	501.89
956.988	490.4
960.276	465.14
963.563	458.59
966.851	437.97
970.138	428.23
973.424	397.38
976.711	392.56
979.997	379.42
983.283	372.18
986.568	361.69
989.853	350.48
993.138	336.3
996.423	333.51
999.708	322.48
1002.992	322.99
1006.275	313.89
1009.559	310.86
1012.842	302.28
1016.125	292.99
1019.408	287
1022.69	283.83
1025.972	281.91
1029.254	274.56
1032.536	268.31
1035.817	260.28
1039.098	256.46
1042.379	251.85
1045.659	247.46
1048.939	245.18
1052.219	241.64
1055.498	236.42
1058.778	232.68
1062.057	227.33
1065.335	226.52
1068.614	223.1
1071.892	220.47
1075.17	216.67
1078.447	213.24
1081.724	212.57
1085.001	208.14
1088.278	207.13
1091.554	206.21
1094.83	204
1098.106	201.16
1101.382	200.61
1104.657	199.74
1107.932	198.65
1111.206	197.98
1114.481	195.61
1117.755	193.67
1121.029	192.58
1124.302	189.82
1127.575	186.53
1130.848	186.73
1134.121	183.9
1137.393	182.96
1140.665	182.23
1143.937	180.04
1147.208	177.12
1150.48	175.75
1153.75	175.84
1157.021	173.46
1160.291	173.24
1163.561	173.82
1166.831	171.16
1170.101	171.87
1173.37	169.65
1176.639	167.76
1179.907	168.55
1183.176	168.18
1186.444	168.16
1189.711	166.16
1192.979	169.25
1196.246	168.46
1199.513	167.07
1202.78	168.87
1206.046	168.26
1209.312	170.27
1212.578	171.15
1215.843	173.36
1219.108	173.75
1222.373	176.82
1225.638	179.89
1228.902	183.01
1232.166	188.79
1235.43	192.46
1238.693	196.92
1241.956	201.32
1245.219	206.8
1248.482	207.55
1251.744	206.42
1255.006	208.07
1258.268	203.15
1261.529	201.84
1264.79	195.84
1268.051	192.25
1271.312	189.73
1274.572	185.7
1277.832	181.33
1281.092	177.98
1284.351	175.39
1287.61	175.02
1290.869	173.76
1294.128	173.24
1297.386	171.6
1300.644	171.52
1303.902	170.06
1307.159	170.34
1310.416	171.73
1313.673	174.57
1316.93	174.98
1320.186	177.92
1323.442	179.85
1326.697	184.33
1329.953	184.65
1333.208	192.46
1336.463	199.42
1339.717	204.04
1342.972	212.74
1346.226	218.26
1349.479	219.84
1352.733	231.36
1355.986	234.14
1359.238	240.2
1362.491	240.98
1365.743	252.28
1368.995	251.95
1372.247	249.74
1375.498	248.99
1378.749	257.56
1382	255.41
1385.251	254.76
1388.501	253.02
1391.751	258.48
1395	256.38
1398.25	258.41
1401.499	256.41
1404.748	257.05
1407.996	253.9
1411.244	255.32
1414.492	249.9
1417.74	244.88
1420.987	239.13
1424.234	236.4
1427.481	227.26
1430.728	221.79
1433.974	214.47
1437.22	207.97
1440.465	200.42
1443.711	195.14
1446.956	189.47
1450.201	182.09
1453.445	174.46
1456.689	170.41
1459.933	163.69
1463.177	157.14
1466.42	154.42
1469.663	149.68
1472.906	145.71
1476.148	142.01
1479.391	139.45
1482.633	137.01
1485.874	134.41
1489.115	133.52
1492.356	130.12
1495.597	129.48
1498.838	128.61
1502.078	126.96
1505.318	126.76
1508.557	126.03
1511.797	124.32
1515.036	123.86
1518.274	123.39
1521.513	121.73
1524.751	121.22
1527.989	122.15
1531.227	121.13
1534.464	121.08
1537.701	120.18
1540.938	119.62
1544.174	119.95
1547.41	120.15
1550.646	119.37
1553.882	119.13
1557.117	118.65
1560.352	118.43
1563.587	117.47
1566.821	117.41
1570.055	116.08
1573.289	116.26
1576.523	116.21
1579.756	114.88
1582.989	115.3
1586.222	115.41
1589.454	113.91
1592.686	114.56
1595.918	113.73
1599.15	113.65
1602.381	113.88
1605.612	114.32
1608.843	114.21
1612.073	115.11
1615.303	115.22
1618.533	114.39
1621.762	114.76
1624.992	115.69
1628.221	115.52
1631.449	116.14
1634.678	115.45
1637.906	115.3
1641.134	115.9
1644.361	115.48
1647.588	114.84
1650.815	115.14
1654.042	115.59
1657.269	114.83
1660.495	115.47
1663.72	114.8
1666.946	114.86
1670.171	115.94
1673.396	116.87
1676.621	116.37
1679.845	117.05
1683.069	116.65
1686.293	116.79
1689.517	116.57
1692.74	116.97
1695.963	117.25
1699.185	118.5
1702.408	118.43
1705.63	118.71
1708.852	118.83
1712.073	118.99
1715.294	118.69
1718.515	119.48
1721.736	119.21
1724.956	120.15
1728.176	119.88
1731.396	120.66
1734.616	120.7
1737.835	121.09
1741.054	120.16
1744.272	120.05
1747.491	119.95
1750.709	120.88
1753.927	121.22
1757.144	121.64
1760.361	121.8
1763.578	122.85
1766.795	122.71
1770.011	122.4
1773.227	123.37
1776.443	125.08
1779.658	125.17
1782.874	126.75
1786.089	126.69
1789.303	126.99
1792.518	128.06
1795.732	129.13
1798.945	130
1802.159	129.82
1805.372	131.82
1808.585	132.48
1811.797	133.44
1815.01	134.32
1818.222	134.81
1821.434	135.67
1824.645	136.43
1827.856	138.27
1831.067	138.26
1834.278	139.03
1837.488	140.36
1840.698	142.58
1843.908	142.77
1847.117	143.95
1850.326	145.23
1853.535	144.96
1856.744	147.1
1859.952	148.65
1863.16	148.85
1866.368	148.44
1869.575	149.22
1872.782	149.15
1875.989	147.05
1879.196	145.93
1882.402	144.98
1885.608	146.15
1888.814	146.19
1892.019	146.78
1895.224	144.68
1898.429	144.87
1901.634	145.94
1904.838	146.49
1908.042	146.89
1911.246	146.93
1914.449	148.4
1917.652	147.69
1920.855	146.8
1924.058	147.01
1927.26	145.59
1930.462	145.98
1933.664	146.65
1936.865	146.91
1940.066	144.48
1943.267	144.05
1946.467	145.16
1949.668	145.38
1952.868	146.69
1956.067	146.87
1959.267	147.36
1962.466	148.38
1965.665	150.17
1968.863	150.92
1972.061	150.83
1975.259	155.13
1978.457	155.85
1981.654	157.46
1984.852	158.12
1988.048	159.71
1991.245	162.18
1994.441	165.75
1997.637	168.34
2000.833	172.87
2004.028	172.16
2007.223	180.16
2010.418	183.18
2013.613	191.38
2016.807	195.97
2020.001	200.61
2023.194	205.22
2026.388	212.92
2029.581	222.36
2032.774	230.43
2035.966	235.77
2039.158	245.12
2042.35	247.09
2045.542	250.18
2048.733	260.52
2051.924	263.89
2055.115	268.36
2058.306	271.81
2061.496	276.63
2064.686	277.99
2067.875	274.1
2071.065	276.8
2074.254	277.84
2077.442	285.55
2080.631	289.45
2083.819	290.12
2087.007	294.6
2090.195	299.04
2093.382	299.67
2096.569	298.87
2099.756	303.43
2102.942	312.12
2106.128	318.34
2109.314	319.11
2112.5	318.79
2115.685	318.34
2118.87	317.71
2122.055	319.89
2125.239	327.23
2128.424	336.03
2131.608	332.35
2134.791	333.54
2137.974	332.19
2141.157	335.08
2144.34	339.67
2147.523	343.71
2150.705	351.37
2153.887	349.61
2157.068	352.81
2160.25	355.54
2163.431	351.58
2166.611	357.1
2169.792	364.55
2172.972	371.82
2176.152	371.47
2179.331	378.88
2182.511	379.57
2185.69	384.21
2188.868	397.92
2192.047	408.04
2195.225	413.46
2198.403	421.08
2201.58	419.8
2204.758	431.14
2207.935	432.86
2211.111	443.74
2214.288	446.43
2217.464	450.45
2220.64	453.35
2223.815	456.09
2226.991	446.9
2230.166	451.43
2233.34	464.57
2236.515	475.2
2239.689	467.92
2242.863	477.51
2246.036	469.64
2249.209	483.33
2252.382	484.59
2255.555	498.73
2258.727	500.95
2261.9	522.63
2265.071	527.87
2268.243	521.39
2271.414	538.53
2274.585	547.78
2277.756	548.51
2280.926	570.79
2284.096	567.43
2287.266	570.71
2290.436	561.82
2293.605	573.01
2296.774	590.4
2299.942	588.03
2303.111	609.17
2306.279	620.05
2309.447	619.81
2312.614	621.76
2315.781	639.56
2318.948	646.35
2322.115	658.86
2325.281	693.73
2328.447	689.5
2331.613	687.59
2334.779	702.35
2337.944	711.37
2341.109	724.96
2344.274	735.07
2347.438	756.3
2350.602	764.91
2353.766	812.92
2356.929	816.59
2360.092	824.77
2363.255	830.86
2366.418	844.89
2369.58	860.43
2372.742	855.17
2375.904	852.51
2379.066	877.77
2382.227	924.03
2385.388	925.88
2388.548	876
2391.709	871.34
2394.869	901.3
2398.029	898.41
2401.188	901.38
2404.347	934.12
2407.506	969.81
2410.665	926.44
2413.823	930.11
2416.981	930.46
2420.139	880.46
2423.296	954.45
2426.453	1012.18
2429.61	970.32
2432.767	1043.1
2435.923	1074.11
2439.079	1021.92
2442.235	1048.82
2445.391	1079.35
2448.546	1070.48
2451.701	1136.35
2454.855	1212.56
2458.009	1067.78
2461.163	1090.48
2464.317	1090.75
2467.471	1066.07
2470.624	1101.44
2473.777	1086.23
2476.929	1049.12
2480.082	1118.63
2483.234	1172.51
2486.385	1193.57
2489.537	1220.7
2492.688	1352.2
2495.839	1316.94
2498.989	1363.95
2502.14	1371.17
2505.29	1310.38
2508.439	1457.38
2511.589	1499.49
2514.738	1455.56
2517.887	1442.59
2521.035	1335.97
2524.183	1327.13
2527.331	1315.89
2530.479	1290.32
2533.627	1317.35
