Data from N_2_dec_ct_2n_073_Splice17_02.txt Node
Date: Sat Feb 29 14:08:10 EST 2020
User: sa697716
Spectrometer: FLMS03696
Trigger mode: 0
Integration Time (sec): 3.180400E-1
Scans to average: 20
Electric dark correction enabled: true
Nonlinearity correction enabled: true
Boxcar width: 5
XAxis mode: Wavelengths
Number of Pixels in Spectrum: 2048
>>>>>Begin Spectral Data<<<<<
187.83	106.51
188.298	121.97
188.766	109.51
189.233	99.83
189.701	109.73
190.169	105.94
190.636	107.16
191.104	61.71
191.571	103.03
192.039	148.92
192.506	-1.41
192.974	3136.5
193.441	25.47
193.908	67.88
194.375	45.61
194.842	178.26
195.31	126.79
195.777	175.92
196.244	54.62
196.711	46.1
197.177	42.11
197.644	40.78
198.111	40.68
198.578	41.53
199.045	41.76
199.511	42.18
199.978	42.25
200.445	42.35
200.911	42.26
201.378	42.05
201.844	42.54
202.31	43.04
202.777	43.22
203.243	43.55
203.709	43.9
204.176	43.45
204.642	43.42
205.108	43.25
205.574	43.11
206.04	42.95
206.506	43.22
206.972	43.22
207.438	43.25
207.903	43.81
208.369	43.37
208.835	43.26
209.301	43.62
209.766	43.18
210.232	42.96
210.697	42.78
211.163	42.63
211.628	42.47
212.094	42.1
212.559	41.8
213.024	41.04
213.49	40.47
213.955	39.85
214.42	39.17
214.885	38.44
215.35	38.01
215.815	37.26
216.28	36.68
216.745	35.87
217.21	34.91
217.675	33.87
218.14	32.83
218.604	32.02
219.069	31.3
219.534	30.53
219.998	30.01
220.463	29.47
220.927	29.06
221.392	28.61
221.856	28.17
222.32	27.81
222.785	27.48
223.249	27.22
223.713	27.04
224.177	26.75
224.642	26.52
225.106	26.26
225.57	26.03
226.034	25.79
226.497	25.52
226.961	25.27
227.425	25.01
227.889	24.77
228.353	24.51
228.816	24.25
229.28	24.01
229.744	23.81
230.207	23.56
230.671	23.3
231.134	23.04
231.597	22.8
232.061	22.56
232.524	22.37
232.987	22.11
233.45	21.89
233.914	21.66
234.377	21.44
234.84	21.19
235.303	20.97
235.766	20.76
236.229	20.55
236.691	20.38
237.154	20.19
237.617	19.99
238.08	19.82
238.542	19.64
239.005	19.46
239.468	19.28
239.93	19.13
240.393	18.98
240.855	18.81
241.317	18.65
241.78	18.49
242.242	18.35
242.704	18.21
243.166	18.06
243.629	17.93
244.091	17.78
244.553	17.64
245.015	17.52
245.477	17.38
245.939	17.26
246.4	17.14
246.862	17.02
247.324	16.89
247.786	16.78
248.247	16.68
248.709	16.59
249.17	16.49
249.632	16.39
250.093	16.27
250.555	16.18
251.016	16.1
251.477	16.02
251.939	15.92
252.4	15.83
252.861	15.74
253.322	15.65
253.783	15.57
254.244	15.49
254.705	15.43
255.166	15.36
255.627	15.28
256.088	15.21
256.549	15.15
257.009	15.09
257.47	15.04
257.931	14.97
258.391	14.91
258.852	14.84
259.312	14.79
259.773	14.72
260.233	14.66
260.694	14.61
261.154	14.54
261.614	14.49
262.074	14.45
262.534	14.39
262.994	14.34
263.455	14.3
263.915	14.25
264.374	14.19
264.834	14.14
265.294	14.11
265.754	14.05
266.214	14.02
266.673	13.98
267.133	13.93
267.593	13.9
268.052	13.86
268.512	13.83
268.971	13.8
269.431	13.78
269.89	13.75
270.349	13.72
270.809	13.71
271.268	13.69
271.727	13.65
272.186	13.63
272.645	13.6
273.104	13.58
273.563	13.55
274.022	13.52
274.481	13.49
274.94	13.46
275.399	13.42
275.857	13.4
276.316	13.36
276.775	13.34
277.233	13.3
277.692	13.27
278.15	13.22
278.609	13.19
279.067	13.15
279.525	13.11
279.984	13.08
280.442	13.06
280.9	13.02
281.358	12.98
281.816	12.94
282.274	12.91
282.732	12.88
283.19	12.85
283.648	12.83
284.106	12.8
284.564	12.78
285.021	12.76
285.479	12.74
285.937	12.71
286.394	12.68
286.852	12.67
287.309	12.66
287.767	12.64
288.224	12.61
288.682	12.59
289.139	12.57
289.596	12.53
290.053	12.5
290.511	12.46
290.968	12.43
291.425	12.4
291.882	12.36
292.339	12.32
292.796	12.28
293.252	12.26
293.709	12.24
294.166	12.21
294.623	12.19
295.079	12.16
295.536	12.15
295.992	12.14
296.449	12.11
296.905	12.1
297.362	12.09
297.818	12.07
298.274	12.05
298.731	12.03
299.187	12.02
299.643	12
300.099	11.99
300.555	11.96
301.011	11.95
301.467	11.93
301.923	11.91
302.379	11.89
302.835	11.88
303.291	11.87
303.746	11.85
304.202	11.82
304.658	11.81
305.113	11.79
305.569	11.79
306.024	11.77
306.479	11.75
306.935	11.74
307.39	11.72
307.845	11.7
308.301	11.69
308.756	11.68
309.211	11.67
309.666	11.66
310.121	11.64
310.576	11.62
311.031	11.61
311.486	11.6
311.94	11.6
312.395	11.6
312.85	11.58
313.305	11.57
313.759	11.56
314.214	11.56
314.668	11.55
315.123	11.55
315.577	11.55
316.032	11.53
316.486	11.51
316.94	11.49
317.394	11.47
317.849	11.46
318.303	11.43
318.757	11.41
319.211	11.37
319.665	11.34
320.119	11.3
320.572	11.28
321.026	11.26
321.48	11.23
321.934	11.21
322.387	11.19
322.841	11.17
323.295	11.16
323.748	11.13
324.202	11.11
324.655	11.08
325.108	11.05
325.562	11.02
326.015	11
326.468	10.98
326.921	10.96
327.374	10.93
327.827	10.91
328.28	10.87
328.733	10.86
329.186	10.86
329.639	10.84
330.092	10.83
330.545	10.81
330.997	10.79
331.45	10.78
331.903	10.76
332.355	10.75
332.808	10.73
333.26	10.72
333.713	10.71
334.165	10.69
334.617	10.69
335.069	10.69
335.522	10.68
335.974	10.69
336.426	10.7
336.878	10.69
337.33	10.68
337.782	10.68
338.234	10.69
338.686	10.68
339.137	10.67
339.589	10.65
340.041	10.64
340.493	10.61
340.944	10.59
341.396	10.57
341.847	10.54
342.299	10.52
342.75	10.47
343.201	10.44
343.653	10.42
344.104	10.41
344.555	10.38
345.006	10.35
345.457	10.33
345.908	10.32
346.359	10.29
346.81	10.28
347.261	10.26
347.712	10.25
348.163	10.22
348.613	10.2
349.064	10.16
349.515	10.14
349.965	10.12
350.416	10.1
350.866	10.08
351.317	10.07
351.767	10.06
352.217	10.04
352.668	10.04
353.118	10.04
353.568	10.04
354.018	10.05
354.468	10.04
354.918	10.04
355.368	10.04
355.818	10.03
356.268	10.03
356.718	10.03
357.168	10.02
357.617	10
358.067	9.99
358.517	9.97
358.966	9.97
359.416	9.98
359.865	9.97
360.315	9.96
360.764	9.95
361.213	9.94
361.663	9.93
362.112	9.94
362.561	9.94
363.01	9.94
363.459	9.93
363.908	9.92
364.357	9.9
364.806	9.88
365.255	9.88
365.703	9.86
366.152	9.85
366.601	9.84
367.05	9.83
367.498	9.81
367.947	9.79
368.395	9.79
368.844	9.78
369.292	9.77
369.74	9.76
370.189	9.74
370.637	9.74
371.085	9.73
371.533	9.73
371.981	9.73
372.429	9.71
372.877	9.71
373.325	9.69
373.773	9.67
374.221	9.66
374.669	9.66
375.116	9.64
375.564	9.64
376.012	9.63
376.459	9.62
376.907	9.61
377.354	9.61
377.801	9.63
378.249	9.63
378.696	9.64
379.143	9.64
379.591	9.64
380.038	9.66
380.485	9.67
380.932	9.68
381.379	9.69
381.826	9.7
382.273	9.73
382.72	9.73
383.166	9.74
383.613	9.74
384.06	9.75
384.506	9.77
384.953	9.78
385.4	9.78
385.846	9.79
386.292	9.8
386.739	9.82
387.185	9.83
387.631	9.86
388.078	9.89
388.524	9.89
388.97	9.91
389.416	9.91
389.862	9.94
390.308	9.97
390.754	9.98
391.2	10.01
391.645	10.03
392.091	10.05
392.537	10.07
392.983	10.09
393.428	10.14
393.874	10.17
394.319	10.21
394.765	10.22
395.21	10.24
395.655	10.27
396.101	10.28
396.546	10.31
396.991	10.34
397.436	10.36
397.881	10.37
398.326	10.41
398.771	10.45
399.216	10.49
399.661	10.55
400.106	10.59
400.551	10.62
400.995	10.62
401.44	10.62
401.885	10.63
402.329	10.64
402.774	10.64
403.218	10.64
403.663	10.62
404.107	10.63
404.551	10.63
404.995	10.64
405.44	10.63
405.884	10.65
406.328	10.66
406.772	10.68
407.216	10.69
407.66	10.72
408.104	10.73
408.547	10.73
408.991	10.71
409.435	10.69
409.879	10.68
410.322	10.71
410.766	10.71
411.209	10.73
411.653	10.72
412.096	10.73
412.54	10.73
412.983	10.73
413.426	10.74
413.869	10.75
414.312	10.79
414.756	10.82
415.199	10.81
415.642	10.84
416.085	10.85
416.527	10.89
416.97	10.88
417.413	10.88
417.856	10.87
418.298	10.86
418.741	10.84
419.184	10.83
419.626	10.8
420.069	10.8
420.511	10.78
420.953	10.76
421.396	10.75
421.838	10.76
422.28	10.78
422.722	10.82
423.164	10.83
423.606	10.84
424.048	10.84
424.49	10.85
424.932	10.83
425.374	10.82
425.816	10.8
426.258	10.77
426.699	10.72
427.141	10.66
427.582	10.63
428.024	10.62
428.465	10.61
428.907	10.61
429.348	10.61
429.789	10.6
430.231	10.59
430.672	10.59
431.113	10.62
431.554	10.66
431.995	10.69
432.436	10.69
432.877	10.66
433.318	10.65
433.759	10.64
434.2	10.63
434.64	10.64
435.081	10.64
435.522	10.66
435.962	10.66
436.403	10.67
436.843	10.68
437.284	10.69
437.724	10.73
438.164	10.74
438.604	10.76
439.045	10.78
439.485	10.79
439.925	10.8
440.365	10.79
440.805	10.77
441.245	10.77
441.685	10.8
442.125	10.82
442.564	10.84
443.004	10.86
443.444	10.92
443.883	10.93
444.323	10.96
444.762	11.03
445.202	11.09
445.641	11.17
446.081	11.23
446.52	11.25
446.959	11.29
447.398	11.36
447.837	11.44
448.276	11.46
448.716	11.53
449.154	11.58
449.593	11.62
450.032	11.66
450.471	11.69
450.91	11.74
451.349	11.77
451.787	11.8
452.226	11.82
452.664	11.81
453.103	11.83
453.541	11.84
453.98	11.84
454.418	11.83
454.856	11.83
455.295	11.82
455.733	11.8
456.171	11.8
456.609	11.78
457.047	11.76
457.485	11.75
457.923	11.72
458.361	11.71
458.798	11.72
459.236	11.72
459.674	11.7
460.111	11.7
460.549	11.67
460.987	11.67
461.424	11.67
461.862	11.67
462.299	11.66
462.736	11.67
463.173	11.66
463.611	11.65
464.048	11.65
464.485	11.65
464.922	11.63
465.359	11.65
465.796	11.62
466.233	11.64
466.67	11.64
467.106	11.64
467.543	11.64
467.98	11.65
468.416	11.65
468.853	11.65
469.29	11.67
469.726	11.68
470.162	11.68
470.599	11.69
471.035	11.69
471.471	11.69
471.907	11.7
472.344	11.7
472.78	11.71
473.216	11.7
473.652	11.69
474.088	11.7
474.523	11.72
474.959	11.71
475.395	11.73
475.831	11.76
476.266	11.78
476.702	11.77
477.138	11.77
477.573	11.75
478.008	11.77
478.444	11.75
478.879	11.74
479.314	11.75
479.75	11.76
480.185	11.75
480.62	11.72
481.055	11.72
481.49	11.71
481.925	11.71
482.36	11.71
482.795	11.7
483.229	11.73
483.664	11.73
484.099	11.72
484.534	11.73
484.968	11.74
485.403	11.76
485.837	11.78
486.271	11.79
486.706	11.8
487.14	11.84
487.574	11.87
488.009	11.9
488.443	11.94
488.877	11.98
489.311	12.02
489.745	12.08
490.179	12.15
490.613	12.2
491.046	12.27
491.48	12.36
491.914	12.42
492.348	12.5
492.781	12.57
493.215	12.64
493.648	12.74
494.082	12.84
494.515	12.93
494.948	13.05
495.382	13.16
495.815	13.29
496.248	13.42
496.681	13.55
497.114	13.67
497.547	13.81
497.98	13.98
498.413	14.13
498.846	14.29
499.279	14.46
499.711	14.62
500.144	14.79
500.577	14.97
501.009	15.16
501.442	15.38
501.874	15.62
502.306	15.85
502.739	16.09
503.171	16.36
503.603	16.62
504.036	16.88
504.468	17.16
504.9	17.45
505.332	17.76
505.764	18.08
506.196	18.39
506.627	18.71
507.059	19.05
507.491	19.4
507.923	19.74
508.354	20.1
508.786	20.47
509.217	20.85
509.649	21.25
510.08	21.66
510.512	22.04
510.943	22.44
511.374	22.84
511.805	23.24
512.237	23.67
512.668	24.08
513.099	24.53
513.53	24.96
513.961	25.4
514.391	25.83
514.822	26.25
515.253	26.69
515.684	27.14
516.114	27.61
516.545	28.05
516.975	28.5
517.406	28.96
517.836	29.4
518.267	29.85
518.697	30.28
519.127	30.73
519.558	31.15
519.988	31.59
520.418	32.01
520.848	32.41
521.278	32.84
521.708	33.11
522.138	33.47
522.567	33.87
522.997	34.25
523.427	34.61
523.857	34.95
524.286	35.32
524.716	35.64
525.145	35.96
525.575	36.29
526.004	36.57
526.433	36.96
526.863	37.26
527.292	37.53
527.721	37.78
528.15	38
528.579	38.25
529.008	38.47
529.437	38.69
529.866	38.88
530.295	39.07
530.724	39.3
531.152	39.51
531.581	39.68
532.01	39.81
532.438	39.97
532.867	40.15
533.295	40.27
533.723	40.41
534.152	40.54
534.58	40.68
535.008	40.76
535.436	40.85
535.865	40.92
536.293	41.03
536.721	41.12
537.149	41.21
537.576	41.28
538.004	41.37
538.432	41.44
538.86	41.48
539.287	41.54
539.715	41.61
540.143	41.65
540.57	41.71
540.998	41.74
541.425	41.81
541.852	41.84
542.28	41.89
542.707	41.91
543.134	41.96
543.561	42.01
543.988	42.06
544.415	42.09
544.842	42.14
545.269	42.18
545.696	42.23
546.123	42.27
546.549	42.3
546.976	42.32
547.403	42.38
547.829	42.41
548.256	42.46
548.682	42.46
549.108	42.5
549.535	42.55
549.961	42.55
550.387	42.53
550.813	42.53
551.24	42.56
551.666	42.57
552.092	42.56
552.518	42.52
552.943	42.51
553.369	42.5
553.795	42.46
554.221	42.41
554.646	42.36
555.072	42.34
555.498	42.28
555.923	42.22
556.349	42.14
556.774	42.07
557.199	42
557.625	41.9
558.05	41.81
558.475	41.71
558.9	41.62
559.325	41.51
559.75	41.38
560.175	41.26
560.6	41.12
561.025	41
561.449	40.86
561.874	40.72
562.299	40.59
562.723	40.44
563.148	40.29
563.572	40.13
563.997	39.98
564.421	39.8
564.846	39.64
565.27	39.46
565.694	39.25
566.118	39.05
566.542	38.85
566.966	38.63
567.39	38.41
567.814	38.17
568.238	37.91
568.662	37.68
569.086	37.47
569.509	37.23
569.933	36.99
570.357	36.75
570.78	36.52
571.204	36.28
571.627	36.04
572.05	35.83
572.474	35.62
572.897	35.44
573.32	35.2
573.743	35
574.166	34.78
574.589	34.57
575.012	34.39
575.435	34.2
575.858	34.01
576.281	33.87
576.704	33.67
577.126	33.5
577.549	33.34
577.972	33.2
578.394	33.03
578.817	32.9
579.239	32.77
579.661	32.63
580.084	32.49
580.506	32.36
580.928	32.21
581.35	32.1
581.772	32
582.194	31.88
582.616	31.77
583.038	31.65
583.46	31.54
583.882	31.43
584.303	31.33
584.725	31.24
585.147	31.13
585.568	31.04
585.99	30.96
586.411	30.86
586.833	30.76
587.254	30.68
587.675	30.63
588.096	30.56
588.518	30.5
588.939	30.42
589.36	30.34
589.781	30.28
590.202	30.25
590.623	30.18
591.043	30.12
591.464	30.07
591.885	30.03
592.305	29.96
592.726	29.91
593.147	29.86
593.567	29.82
593.987	29.8
594.408	29.76
594.828	29.68
595.248	29.65
595.669	29.62
596.089	29.57
596.509	29.51
596.929	29.45
597.349	29.39
597.769	29.32
598.189	29.26
598.608	29.16
599.028	29.1
599.448	29.05
599.867	28.96
600.287	28.87
600.706	28.79
601.126	28.71
601.545	28.62
601.965	28.54
602.384	28.47
602.803	28.39
603.222	28.3
603.641	28.19
604.061	28.07
604.48	27.97
604.898	27.84
605.317	27.71
605.736	27.6
606.155	27.48
606.574	27.35
606.992	27.19
607.411	27.06
607.829	26.88
608.248	26.75
608.666	26.62
609.085	26.48
609.503	26.35
609.921	26.23
610.339	26.09
610.758	25.97
611.176	25.83
611.594	25.69
612.012	25.56
612.43	25.47
612.847	25.34
613.265	25.22
613.683	25.1
614.101	24.96
614.518	24.83
614.936	24.71
615.353	24.6
615.771	24.49
616.188	24.4
616.606	24.29
617.023	24.19
617.44	24.1
617.857	24
618.274	23.9
618.691	23.84
619.108	23.77
619.525	23.68
619.942	23.61
620.359	23.55
620.776	23.48
621.192	23.43
621.609	23.37
622.026	23.33
622.442	23.29
622.859	23.25
623.275	23.2
623.691	23.17
624.108	23.16
624.524	23.13
624.94	23.11
625.356	23.09
625.772	23.08
626.188	23.08
626.604	23.05
627.02	23.02
627.436	23
627.852	22.98
628.268	22.97
628.683	22.93
629.099	22.92
629.514	22.88
629.93	22.85
630.345	22.77
630.761	22.72
631.176	22.7
631.591	22.67
632.007	22.61
632.422	22.56
632.837	22.48
633.252	22.42
633.667	22.31
634.082	22.23
634.497	22.13
634.911	22.05
635.326	21.93
635.741	21.79
636.155	21.65
636.57	21.51
636.984	21.35
637.399	21.18
637.813	21.01
638.228	20.85
638.642	20.67
639.056	20.49
639.47	20.3
639.884	20.12
640.298	19.93
640.712	19.72
641.126	19.53
641.54	19.34
641.954	19.16
642.368	18.98
642.781	18.8
643.195	18.62
643.609	18.42
644.022	18.23
644.436	18.04
644.849	17.87
645.262	17.7
645.676	17.51
646.089	17.34
646.502	17.17
646.915	17.02
647.328	16.86
647.741	16.72
648.154	16.61
648.567	16.49
648.98	16.37
649.393	16.25
649.805	16.14
650.218	16.06
650.631	15.97
651.043	15.88
651.456	15.79
651.868	15.7
652.28	15.62
652.693	15.51
653.105	15.41
653.517	15.31
653.929	15.2
654.341	15.08
654.753	14.95
655.165	14.81
655.577	14.67
655.989	14.52
656.401	14.35
656.813	14.18
657.224	14.02
657.636	13.85
658.047	13.67
658.459	13.49
658.87	13.32
659.282	13.16
659.693	12.98
660.104	12.79
660.515	12.62
660.926	12.46
661.338	12.28
661.749	12.12
662.159	11.96
662.57	11.81
662.981	11.67
663.392	11.52
663.803	11.37
664.213	11.24
664.624	11.14
665.035	11.01
665.445	10.91
665.855	10.81
666.266	10.71
666.676	10.61
667.086	10.53
667.497	10.46
667.907	10.39
668.317	10.31
668.727	10.25
669.137	10.19
669.547	10.15
669.956	10.1
670.366	10.08
670.776	10.04
671.186	10.01
671.595	9.99
672.005	9.98
672.414	9.96
672.824	9.97
673.233	9.99
673.642	9.98
674.052	9.98
674.461	9.99
674.87	9.99
675.279	10
675.688	10.01
676.097	10.03
676.506	10.05
676.915	10.09
677.323	10.14
677.732	10.17
678.141	10.22
678.549	10.28
678.958	10.37
679.366	10.44
679.775	10.54
680.183	10.65
680.592	10.78
681	10.92
681.408	11.07
681.816	11.24
682.224	11.45
682.632	11.68
683.04	11.94
683.448	12.2
683.856	12.52
684.264	12.86
684.671	13.24
685.079	13.64
685.487	14.09
685.894	14.58
686.302	15.09
686.709	15.64
687.116	16.23
687.524	16.86
687.931	17.52
688.338	18.23
688.745	18.96
689.152	19.73
689.559	20.5
689.966	21.31
690.373	22.15
690.78	23
691.187	23.87
691.593	24.72
692	25.62
692.407	26.53
692.813	27.43
693.22	28.34
693.626	29.24
694.032	30.16
694.439	31.07
694.845	31.96
695.251	32.84
695.657	33.7
696.063	34.58
696.469	35.42
696.875	36.22
697.281	37.01
697.687	37.81
698.093	38.59
698.498	39.35
698.904	40.1
699.31	40.81
699.715	41.56
700.12	42.24
700.526	42.95
700.931	43.62
701.337	44.29
701.742	44.93
702.147	45.57
702.552	46.18
702.957	46.8
703.362	47.4
703.767	47.99
704.172	48.55
704.577	49.1
704.981	49.62
705.386	50.14
705.791	50.66
706.195	51.17
706.6	51.64
707.004	52.1
707.408	52.55
707.813	52.97
708.217	53.39
708.621	53.8
709.025	54.24
709.43	54.66
709.834	55.09
710.237	55.45
710.641	55.87
711.045	56.25
711.449	56.62
711.853	57.01
712.256	57.39
712.66	57.76
713.064	58.1
713.467	58.41
713.87	58.73
714.274	59.05
714.677	59.37
715.08	59.66
715.484	59.94
715.887	60.23
716.29	60.47
716.693	60.72
717.096	60.99
717.499	61.26
717.901	61.5
718.304	61.73
718.707	61.96
719.109	62.21
719.512	62.46
719.915	62.7
720.317	62.95
720.719	63.18
721.122	63.4
721.524	63.64
721.926	63.84
722.328	64.06
722.731	64.27
723.133	64.48
723.535	64.69
723.937	64.86
724.338	65.02
724.74	65.18
725.142	65.35
725.544	65.49
725.945	65.61
726.347	65.78
726.748	65.89
727.15	66.06
727.551	66.17
727.952	66.27
728.354	66.41
728.755	66.54
729.156	66.62
729.557	66.75
729.958	66.87
730.359	66.97
730.76	67.07
731.161	67.19
731.562	67.26
731.962	67.35
732.363	67.42
732.763	67.52
733.164	67.61
733.564	67.68
733.965	67.72
734.365	67.78
734.766	67.83
735.166	67.85
735.566	67.86
735.966	67.88
736.366	67.9
736.766	67.94
737.166	67.98
737.566	67.97
737.966	68.03
738.365	68.08
738.765	68.13
739.165	68.16
739.564	68.21
739.964	68.26
740.363	68.32
740.763	68.35
741.162	68.35
741.561	68.36
741.96	68.44
742.36	68.5
742.759	68.5
743.158	68.5
743.557	68.55
743.955	68.59
744.354	68.66
744.753	68.72
745.152	68.76
745.55	68.81
745.949	68.86
746.348	68.88
746.746	68.88
747.144	68.96
747.543	69
747.941	69.04
748.339	69.09
748.737	69.11
749.136	69.12
749.534	69.17
749.932	69.17
750.33	69.14
750.727	69.17
751.125	69.16
751.523	69.14
751.921	69.15
752.318	69.12
752.716	69.1
753.113	69.09
753.511	69.05
753.908	69.01
754.305	69
754.703	69
755.1	68.95
755.497	68.95
755.894	68.95
756.291	68.91
756.688	68.91
757.085	68.89
757.482	68.89
757.878	68.93
758.275	68.94
758.672	68.97
759.068	68.98
759.465	68.99
759.861	68.97
760.258	68.95
760.654	69
761.05	69
761.447	68.99
761.843	68.94
762.239	68.87
762.635	68.85
763.031	68.84
763.427	68.81
763.822	68.79
764.218	68.79
764.614	68.8
765.01	68.74
765.405	68.68
765.801	68.68
766.196	68.71
766.592	68.72
766.987	68.74
767.382	68.73
767.778	68.74
768.173	68.74
768.568	68.72
768.963	68.7
769.358	68.71
769.753	68.72
770.148	68.72
770.542	68.69
770.937	68.67
771.332	68.65
771.726	68.61
772.121	68.57
772.515	68.57
772.91	68.58
773.304	68.57
773.699	68.56
774.093	68.55
774.487	68.54
774.881	68.57
775.275	68.58
775.669	68.58
776.063	68.58
776.457	68.62
776.851	68.6
777.245	68.61
777.638	68.62
778.032	68.63
778.425	68.66
778.819	68.68
779.212	68.65
779.606	68.63
779.999	68.61
780.392	68.66
780.786	68.63
781.179	68.66
781.572	68.66
781.965	68.68
782.358	68.64
782.751	68.62
783.143	68.62
783.536	68.67
783.929	68.72
784.322	68.73
784.714	68.69
785.107	68.73
785.499	68.76
785.891	68.75
786.284	68.72
786.676	68.75
787.068	68.75
787.46	68.72
787.852	68.69
788.245	68.68
788.636	68.72
789.028	68.71
789.42	68.67
789.812	68.65
790.204	68.58
790.595	68.6
790.987	68.59
791.378	68.63
791.77	68.64
792.161	68.62
792.553	68.62
792.944	68.66
793.335	68.74
793.726	68.71
794.117	68.72
794.508	68.8
794.899	68.78
795.29	68.81
795.681	68.82
796.072	68.85
796.463	68.89
796.853	68.87
797.244	68.84
797.634	68.76
798.025	68.81
798.415	68.8
798.806	68.82
799.196	68.85
799.586	68.84
799.976	68.81
800.366	68.81
800.756	68.78
801.146	68.78
801.536	68.74
801.926	68.77
802.316	68.78
802.706	68.79
803.095	68.81
803.485	68.82
803.874	68.83
804.264	68.87
804.653	68.85
805.043	68.87
805.432	68.83
805.821	68.83
806.21	68.88
806.599	68.91
806.988	68.91
807.377	68.9
807.766	68.88
808.155	68.87
808.544	68.84
808.933	68.86
809.321	68.87
809.71	68.95
810.098	68.97
810.487	68.95
810.875	68.91
811.264	68.93
811.652	68.94
812.04	68.96
812.428	68.98
812.816	69.01
813.204	68.99
813.592	68.99
813.98	68.97
814.368	68.96
814.756	68.98
815.144	69.05
815.531	69.01
815.919	69
816.306	69.02
816.694	69.07
817.081	69.06
817.469	69.11
817.856	69.13
818.243	69.14
818.63	69.17
819.017	69.18
819.404	69.13
819.791	69.18
820.178	69.23
820.565	69.23
820.952	69.17
821.339	69.19
821.725	69.2
822.112	69.21
822.498	69.22
822.885	69.24
823.271	69.3
823.657	69.33
824.044	69.34
824.43	69.32
824.816	69.32
825.202	69.35
825.588	69.38
825.974	69.38
826.36	69.38
826.746	69.43
827.132	69.41
827.517	69.37
827.903	69.35
828.289	69.32
828.674	69.31
829.06	69.32
829.445	69.34
829.83	69.29
830.216	69.27
830.601	69.26
830.986	69.24
831.371	69.28
831.756	69.26
832.141	69.28
832.526	69.27
832.911	69.29
833.295	69.29
833.68	69.25
834.065	69.29
834.449	69.28
834.834	69.27
835.218	69.25
835.603	69.2
835.987	69.2
836.371	69.23
836.755	69.22
837.139	69.18
837.524	69.17
837.908	69.15
838.291	69.13
838.675	69.15
839.059	69.19
839.443	69.19
839.827	69.16
840.21	69.18
840.594	69.12
840.977	69.1
841.361	69.14
841.744	69.16
842.127	69.14
842.511	69.12
842.894	69.08
843.277	69.05
843.66	69.05
844.043	69.07
844.426	69.03
844.809	69.03
845.191	69.02
845.574	68.97
845.957	68.91
846.339	68.89
846.722	68.91
847.104	68.92
847.487	68.93
847.869	68.92
848.252	68.89
848.634	68.92
849.016	68.93
849.398	68.95
849.78	68.96
850.162	68.99
850.544	69.03
850.926	69
851.307	68.98
851.689	68.93
852.071	68.92
852.452	68.93
852.834	68.89
853.215	68.9
853.597	68.9
853.978	68.86
854.359	68.84
854.741	68.85
855.122	68.85
855.503	68.86
855.884	68.86
856.265	68.88
856.646	68.88
857.026	68.91
857.407	68.84
857.788	68.84
858.169	68.89
858.549	68.92
858.93	68.91
859.31	68.89
859.69	68.86
860.071	68.86
860.451	68.85
860.831	68.85
861.211	68.82
861.591	68.86
861.971	68.83
862.351	68.85
862.731	68.83
863.111	68.84
863.491	68.88
863.87	68.9
864.25	68.93
864.629	68.89
865.009	68.86
865.388	68.86
865.768	68.83
866.147	68.88
866.526	68.86
866.905	68.84
867.284	68.85
867.663	68.83
868.042	68.8
868.421	68.76
868.8	68.8
869.179	68.83
869.558	68.84
869.936	68.84
870.315	68.81
870.693	68.79
871.072	68.78
871.45	68.73
871.828	68.71
872.207	68.76
872.585	68.76
872.963	68.72
873.341	68.75
873.719	68.74
874.097	68.73
874.475	68.74
874.853	68.72
875.23	68.71
875.608	68.73
875.986	68.8
876.363	68.78
876.741	68.78
877.118	68.77
877.495	68.7
877.873	68.7
878.25	68.74
878.627	68.74
879.004	68.74
879.381	68.75
879.758	68.69
880.135	68.65
880.512	68.64
880.889	68.64
881.265	68.71
881.642	68.72
882.019	68.76
882.395	68.73
882.772	68.71
883.148	68.72
883.524	68.75
883.901	68.78
884.277	68.75
884.653	68.78
885.029	68.77
885.405	68.72
885.781	68.69
886.157	68.66
886.532	68.64
886.908	68.67
887.284	68.7
887.659	68.68
888.035	68.68
888.411	68.64
888.786	68.6
889.161	68.59
889.537	68.61
889.912	68.57
890.287	68.56
890.662	68.56
891.037	68.51
891.412	68.41
891.787	68.37
892.162	68.33
892.536	68.33
892.911	68.29
893.286	68.27
893.66	68.22
894.035	68.22
894.409	68.22
894.784	68.2
895.158	68.19
895.532	68.22
895.906	68.23
896.281	68.2
896.655	68.21
897.029	68.21
897.402	68.2
897.776	68.21
898.15	68.22
898.524	68.18
898.898	68.13
899.271	68.15
899.645	68.13
900.018	68.09
900.392	68.1
900.765	68.09
901.138	68.08
901.511	68.07
901.884	68.04
902.258	68.02
902.631	68.06
903.003	68.1
903.376	68.08
903.749	68.09
904.122	68.13
904.495	68.13
904.867	68.11
905.24	68.1
905.612	68.08
905.985	68.06
906.357	68.02
906.729	67.96
907.102	67.94
907.474	67.93
907.846	67.91
908.218	67.85
908.59	67.83
908.962	67.82
909.334	67.81
909.705	67.83
910.077	67.8
910.449	67.86
910.82	67.87
911.192	67.88
911.563	67.88
911.935	67.83
912.306	67.87
912.677	67.9
913.048	67.85
913.419	67.84
913.79	67.82
914.161	67.81
914.532	67.75
914.903	67.74
915.274	67.69
915.645	67.65
916.015	67.71
916.386	67.64
916.756	67.58
917.127	67.58
917.497	67.61
917.868	67.58
918.238	67.59
918.608	67.62
918.978	67.61
919.348	67.61
919.718	67.63
920.088	67.6
920.458	67.63
920.828	67.64
921.198	67.69
921.567	67.7
921.937	67.73
922.306	67.71
922.676	67.69
923.045	67.65
923.415	67.65
923.784	67.66
924.153	67.64
924.522	67.64
924.891	67.64
925.26	67.59
925.629	67.54
925.998	67.54
926.367	67.52
926.736	67.49
927.104	67.48
927.473	67.5
927.842	67.44
928.21	67.45
928.578	67.38
928.947	67.34
929.315	67.33
929.683	67.35
930.051	67.36
930.42	67.36
930.788	67.35
931.156	67.35
931.523	67.3
931.891	67.27
932.259	67.17
932.627	67.14
932.994	67.16
933.362	67.09
933.729	66.98
934.097	66.88
934.464	66.8
934.831	66.72
935.199	66.61
935.566	66.55
935.933	66.54
936.3	66.5
936.667	66.46
937.034	66.33
937.401	66.3
937.767	66.27
938.134	66.18
938.501	66.11
938.867	66.12
939.234	66.18
939.6	66.2
939.967	66.16
940.333	66.19
940.699	66.31
941.065	66.44
941.431	66.48
941.798	66.57
942.163	66.68
942.529	66.79
942.895	66.79
943.261	66.88
943.627	66.96
943.992	66.91
944.358	66.9
944.723	66.91
945.089	66.92
945.454	67.03
945.82	67.05
946.185	67.14
946.55	67.25
946.915	67.28
947.28	67.18
947.645	67.13
948.01	67.26
948.375	67.35
948.74	67.25
949.104	67.29
949.469	67.21
949.834	67.2
950.198	67.08
950.562	66.98
950.927	66.95
951.291	66.91
951.655	66.85
952.02	66.82
952.384	66.79
952.748	66.82
953.112	66.71
953.476	66.71
953.839	66.63
954.203	66.58
954.567	66.57
954.931	66.61
955.294	66.64
955.658	66.65
956.021	66.65
956.385	66.61
956.748	66.58
957.111	66.56
957.474	66.55
957.837	66.59
958.2	66.57
958.563	66.48
958.926	66.42
959.289	66.44
959.652	66.42
960.015	66.34
960.377	66.31
960.74	66.25
961.102	66.22
961.465	66.16
961.827	65.98
962.189	65.97
962.552	65.91
962.914	65.81
963.276	65.75
963.638	65.61
964	65.54
964.362	65.5
964.724	65.52
965.085	65.52
965.447	65.46
965.809	65.49
966.17	65.45
966.532	65.53
966.893	65.6
967.255	65.54
967.616	65.64
967.977	65.68
968.338	65.67
968.699	65.58
969.061	65.49
969.421	65.49
969.782	65.48
970.143	65.42
970.504	65.34
970.865	65.27
971.225	65.25
971.586	65.28
971.946	65.3
972.307	65.24
972.667	65.32
973.027	65.47
973.388	65.5
973.748	65.56
974.108	65.69
974.468	65.74
974.828	65.86
975.188	65.92
975.548	65.84
975.907	65.82
976.267	65.89
976.627	65.8
976.986	65.74
977.346	65.76
977.705	65.74
978.064	65.71
978.424	65.69
978.783	65.61
979.142	65.52
979.501	65.52
979.86	65.49
980.219	65.34
980.578	65.38
980.937	65.36
981.296	65.36
981.654	65.33
982.013	65.31
982.371	65.28
982.73	65.29
983.088	65.28
983.447	65.34
983.805	65.33
984.163	65.42
984.521	65.27
984.879	65.24
985.237	65.2
985.595	65.24
985.953	65.22
986.311	65.3
986.669	65.33
987.026	65.39
987.384	65.31
987.741	65.33
988.099	65.29
988.456	65.34
988.814	65.32
989.171	65.28
989.528	65.08
989.885	65.07
990.242	65.08
990.599	65.02
990.956	64.98
991.313	65.07
991.67	65.05
992.027	65.05
992.383	65.16
992.74	65.19
993.096	65.16
993.453	65.3
993.809	65.31
994.165	65.32
994.522	65.39
994.878	65.36
995.234	65.28
995.59	65.15
995.946	65.25
996.302	65.16
996.658	65.08
997.013	65.07
997.369	65.08
997.725	65.02
998.08	64.93
998.436	64.77
998.791	64.67
999.147	64.69
999.502	64.82
999.857	64.72
1000.212	64.69
1000.567	64.67
1000.922	64.67
1001.277	64.61
1001.632	64.71
1001.987	64.68
1002.342	64.79
1002.696	64.8
1003.051	64.68
1003.406	64.55
1003.76	64.41
1004.114	64.45
1004.469	64.45
1004.823	64.47
1005.177	64.55
1005.531	64.37
1005.885	64.3
1006.239	64.3
1006.593	64.2
1006.947	64.14
1007.301	64.18
1007.655	64.34
1008.008	64.37
1008.362	64.4
1008.715	64.25
1009.069	64.01
1009.422	63.95
1009.776	64.08
1010.129	63.71
1010.482	63.77
1010.835	63.97
1011.188	63.9
1011.541	63.71
1011.894	63.6
1012.247	63.44
1012.6	63.65
1012.952	64.06
1013.305	64.15
1013.657	63.82
1014.01	64.12
1014.362	64.29
1014.715	63.83
1015.067	63.86
1015.419	63.95
1015.771	64.2
1016.123	64.41
1016.475	64.39
1016.827	64.09
1017.179	64.05
1017.531	64.1
1017.883	64.18
1018.234	64.1
1018.586	64.55
1018.938	64.41
1019.289	64.52
1019.64	64.29
1019.992	64.07
1020.343	63.76
1020.694	63.84
1021.045	63.91
1021.396	63.87
1021.747	63.79
1022.098	63.98
1022.449	63.59
1022.8	63.41
1023.151	62.94
1023.501	62.9
1023.852	63.42
1024.202	63.45
1024.553	63.27
1024.903	63.06
1025.253	63.1
1025.604	63.21
1025.954	62.94
1026.304	63.47
1026.654	63.95
1027.004	64.38
1027.354	64.42
1027.703	64.02
1028.053	64.02
1028.403	63.73
1028.753	63.8
1029.102	63.82
1029.452	63.6
1029.801	63.46
1030.15	63.18
1030.499	62.94
897.758	675.5
901.051	686.59
904.343	695.25
907.636	683.01
910.928	670.41
914.22	684.79
917.511	669.78
920.803	644
924.094	615.33
927.384	618.69
930.675	604.28
933.965	599.4
937.255	597.76
940.544	571.97
943.834	546.92
947.123	538.31
950.411	509.21
953.7	500.82
956.988	488.09
960.276	463.39
963.563	460
966.851	432.85
970.138	425.25
973.424	396.65
976.711	391.63
979.997	379.64
983.283	371.91
986.568	359.52
989.853	349.54
993.138	335.63
996.423	335.29
999.708	323.24
1002.992	325.71
1006.275	314.28
1009.559	313.82
1012.842	303.88
1016.125	294
1019.408	288.38
1022.69	285.97
1025.972	283.39
1029.254	276.26
1032.536	270.88
1035.817	263.67
1039.098	259.11
1042.379	254.91
1045.659	249.31
1048.939	247.62
1052.219	244.12
1055.498	240.23
1058.778	235.5
1062.057	231.71
1065.335	230.78
1068.614	226.38
1071.892	223.12
1075.17	220.18
1078.447	217.46
1081.724	216.2
1085.001	211.92
1088.278	211.66
1091.554	211.06
1094.83	210.11
1098.106	206.46
1101.382	204.77
1104.657	204.86
1107.932	203.77
1111.206	202.16
1114.481	199.3
1117.755	197.53
1121.029	197.04
1124.302	193.26
1127.575	189.8
1130.848	188.94
1134.121	186.17
1137.393	186.34
1140.665	184.04
1143.937	182.16
1147.208	180.18
1150.48	179.64
1153.75	178.46
1157.021	176.8
1160.291	176.68
1163.561	176.61
1166.831	174.78
1170.101	175.72
1173.37	174.08
1176.639	172.75
1179.907	173.09
1183.176	171.85
1186.444	172.19
1189.711	171.37
1192.979	172.94
1196.246	172.64
1199.513	171.88
1202.78	172.92
1206.046	172.55
1209.312	172.68
1212.578	173.6
1215.843	176.04
1219.108	176.9
1222.373	179.08
1225.638	181.84
1228.902	185.36
1232.166	191.37
1235.43	194.25
1238.693	197.71
1241.956	203.33
1245.219	209.05
1248.482	211.56
1251.744	210.15
1255.006	210.18
1258.268	206.13
1261.529	204.83
1264.79	199.09
1268.051	195.19
1271.312	193.14
1274.572	191.19
1277.832	185.09
1281.092	182.82
1284.351	178.8
1287.61	178.5
1290.869	179.29
1294.128	177.81
1297.386	176.74
1300.644	176.78
1303.902	175.51
1307.159	174.14
1310.416	174.72
1313.673	178.26
1316.93	178.8
1320.186	181.64
1323.442	183.66
1326.697	185.77
1329.953	187.7
1333.208	193.46
1336.463	201.65
1339.717	205.75
1342.972	215.53
1346.226	221.14
1349.479	221.84
1352.733	231.38
1355.986	235.4
1359.238	240.72
1362.491	243.42
1365.743	252.92
1368.995	254.75
1372.247	251.09
1375.498	250.49
1378.749	259.06
1382	258.39
1385.251	258.32
1388.501	255.96
1391.751	259.72
1395	258.14
1398.25	259.75
1401.499	258.42
1404.748	258.22
1407.996	254.31
1411.244	254.48
1414.492	249.62
1417.74	242.69
1420.987	237.5
1424.234	234.54
1427.481	224.92
1430.728	219.57
1433.974	213.13
1437.22	205.5
1440.465	198.73
1443.711	192.84
1446.956	186.7
1450.201	180.62
1453.445	172.82
1456.689	167.36
1459.933	162.31
1463.177	157.16
1466.42	153.7
1469.663	148.8
1472.906	144.98
1476.148	140.81
1479.391	138.32
1482.633	136.74
1485.874	133.06
1489.115	132.14
1492.356	130.81
1495.597	129.09
1498.838	127.84
1502.078	126.65
1505.318	126.24
1508.557	125.36
1511.797	124.83
1515.036	123.54
1518.274	122.65
1521.513	122.64
1524.751	121.56
1527.989	122.41
1531.227	121.78
1534.464	121.54
1537.701	121.22
1540.938	120.42
1544.174	120.41
1547.41	119.83
1550.646	120.15
1553.882	120.03
1557.117	119.16
1560.352	119.18
1563.587	117.47
1566.821	117.58
1570.055	116.83
1573.289	116.02
1576.523	116.62
1579.756	116.21
1582.989	117.16
1586.222	116.37
1589.454	116.03
1592.686	116.08
1595.918	116.03
1599.15	115.88
1602.381	116.51
1605.612	116.64
1608.843	116.99
1612.073	117.15
1615.303	117.27
1618.533	115.8
1621.762	117.11
1624.992	117.48
1628.221	117.32
1631.449	117.76
1634.678	117.27
1637.906	117.11
1641.134	117.35
1644.361	117.44
1647.588	117.27
1650.815	117.41
1654.042	118.46
1657.269	117.72
1660.495	118.28
1663.72	117.93
1666.946	118.44
1670.171	119.75
1673.396	119.78
1676.621	120.04
1679.845	120.17
1683.069	119.95
1686.293	119.64
1689.517	119.64
1692.74	120.08
1695.963	120.06
1699.185	121.03
1702.408	120.27
1705.63	120.13
1708.852	120.53
1712.073	120.42
1715.294	120.19
1718.515	121.03
1721.736	121.49
1724.956	121.52
1728.176	121.25
1731.396	121.76
1734.616	121.9
1737.835	122.25
1741.054	122.61
1744.272	122.04
1747.491	122.64
1750.709	122.99
1753.927	123.24
1757.144	123.14
1760.361	123.29
1763.578	124.44
1766.795	124.7
1770.011	124.8
1773.227	125.32
1776.443	125.84
1779.658	126.63
1782.874	128.08
1786.089	128.48
1789.303	128.44
1792.518	130.03
1795.732	130.72
1798.945	131.62
1802.159	131.54
1805.372	133.18
1808.585	133.86
1811.797	135.33
1815.01	136.35
1818.222	136.22
1821.434	136.54
1824.645	137.69
1827.856	138.95
1831.067	139.77
1834.278	140.87
1837.488	142.03
1840.698	143.57
1843.908	144.24
1847.117	145.2
1850.326	146.17
1853.535	146.35
1856.744	148.85
1859.952	150.39
1863.16	150.45
1866.368	149.21
1869.575	150.38
1872.782	149.95
1875.989	146.85
1879.196	146.93
1882.402	145.68
1885.608	145.51
1888.814	145.53
1892.019	145.14
1895.224	142.4
1898.429	143.16
1901.634	144.67
1904.838	143.49
1908.042	143.88
1911.246	144.79
1914.449	144.57
1917.652	144.55
1920.855	145.06
1924.058	143.88
1927.26	143.71
1930.462	145.11
1933.664	144.62
1936.865	143.54
1940.066	142.13
1943.267	141.91
1946.467	143.47
1949.668	143.16
1952.868	142.95
1956.067	142.53
1959.267	144.93
1962.466	145.61
1965.665	146.56
1968.863	147.15
1972.061	149.86
1975.259	153.23
1978.457	154.04
1981.654	155.35
1984.852	157.19
1988.048	159.45
1991.245	162.28
1994.441	163.88
1997.637	167.29
2000.833	172
2004.028	172.8
2007.223	177.93
2010.418	180.94
2013.613	187.49
2016.807	192.41
2020.001	196.62
2023.194	201.45
2026.388	207.71
2029.581	217.67
2032.774	223.86
2035.966	228.13
2039.158	236.73
2042.35	240.05
2045.542	243.69
2048.733	255.9
2051.924	258.43
2055.115	261.62
2058.306	264.24
2061.496	270.45
2064.686	270.08
2067.875	268.93
2071.065	271.86
2074.254	271.97
2077.442	279.72
2080.631	282.95
2083.819	282.17
2087.007	288.43
2090.195	293.38
2093.382	294.14
2096.569	293.18
2099.756	300.29
2102.942	306.32
2106.128	312.32
2109.314	314.97
2112.5	314.17
2115.685	311.76
2118.87	312.37
2122.055	313.65
2125.239	319.76
2128.424	328.16
2131.608	326.51
2134.791	325.04
2137.974	326.05
2141.157	327.26
2144.34	329.79
2147.523	335.98
2150.705	345.06
2153.887	341.71
2157.068	343.82
2160.25	348.19
2163.431	343.74
2166.611	350.79
2169.792	357.28
2172.972	363.72
2176.152	365.11
2179.331	373.41
2182.511	372.23
2185.69	377.92
2188.868	393.98
2192.047	404.66
2195.225	408.24
2198.403	416.51
2201.58	409.23
2204.758	423.58
2207.935	425.42
2211.111	434.91
2214.288	435.85
2217.464	441.59
2220.64	445.62
2223.815	445.23
2226.991	437
2230.166	440.84
2233.34	455.92
2236.515	468.56
2239.689	461.01
2242.863	467.53
2246.036	461.41
2249.209	473.12
2252.382	473.85
2255.555	488.38
2258.727	492.18
2261.9	508.93
2265.071	515.68
2268.243	506.64
2271.414	526.59
2274.585	536.25
2277.756	537.47
2280.926	559.57
2284.096	561.88
2287.266	562.28
2290.436	549.44
2293.605	560.34
2296.774	580.84
2299.942	580.65
2303.111	604.47
2306.279	608.93
2309.447	610.78
2312.614	611.07
2315.781	626.97
2318.948	632.03
2322.115	644.7
2325.281	681.86
2328.447	680
2331.613	679.31
2334.779	691.22
2337.944	697.89
2341.109	714.22
2344.274	721.49
2347.438	742.98
2350.602	749.42
2353.766	795.95
2356.929	799.3
2360.092	811.65
2363.255	812.57
2366.418	821.13
2369.58	838.61
2372.742	844.43
2375.904	837.21
2379.066	860.7
2382.227	912.47
2385.388	911.88
2388.548	869.52
2391.709	857.78
2394.869	881.01
2398.029	885.26
2401.188	888.95
2404.347	921.46
2407.506	944.34
2410.665	914.24
2413.823	918.53
2416.981	914.73
2420.139	874.85
2423.296	938.51
2426.453	1002.87
2429.61	954.15
2432.767	1021.86
2435.923	1055.91
2439.079	1007.34
2442.235	1028.65
2445.391	1048.24
2448.546	1039.71
2451.701	1109.1
2454.855	1180.96
2458.009	1050.03
2461.163	1066.26
2464.317	1081.83
2467.471	1052.43
2470.624	1082.4
2473.777	1069.69
2476.929	1031.4
2480.082	1105.62
2483.234	1164.16
2486.385	1161.93
2489.537	1194.35
2492.688	1310.74
2495.839	1287.31
2498.989	1322.18
2502.14	1331.58
2505.29	1273.97
2508.439	1398.15
2511.589	1448.05
2514.738	1407.49
2517.887	1389.2
2521.035	1301.06
2524.183	1277.13
2527.331	1267.07
2530.479	1238.09
2533.627	1261.8
