Data from N_2_div_oh_2n_065_Splice17_20.txt Node
Date: Sat Feb 29 14:04:13 EST 2020
User: sa697716
Spectrometer: FLMS03696
Trigger mode: 0
Integration Time (sec): 3.180400E-1
Scans to average: 20
Electric dark correction enabled: true
Nonlinearity correction enabled: true
Boxcar width: 5
XAxis mode: Wavelengths
Number of Pixels in Spectrum: 2048
>>>>>Begin Spectral Data<<<<<
187.83	92.97
188.298	98.85
188.766	76.25
189.233	77.71
189.701	91.1
190.169	91.37
190.636	80.34
191.104	73.09
191.571	101.65
192.039	140.51
192.506	4.08
192.974	5332.61
193.441	-395.1
193.908	39.8
194.375	14.26
194.842	135.44
195.31	109.57
195.777	121.85
196.244	55.9
196.711	34.41
197.177	29.48
197.644	28.52
198.111	26.96
198.578	26.94
199.045	27.67
199.511	28.03
199.978	27.79
200.445	27.22
200.911	26.87
201.378	27.04
201.844	27.39
202.31	27.85
202.777	28.27
203.243	28.96
203.709	29.74
204.176	29.52
204.642	29.75
205.108	29.78
205.574	30.55
206.04	30.73
206.506	30.62
206.972	30.78
207.438	30.75
207.903	31.02
208.369	30.5
208.835	30.26
209.301	30.09
209.766	29.84
210.232	29.97
210.697	29.65
211.163	29.79
211.628	29.38
212.094	29.07
212.559	28.76
213.024	28.21
213.49	28.17
213.955	27.86
214.42	27.61
214.885	27.2
215.35	26.66
215.815	26.03
216.28	25.28
216.745	24.76
217.21	23.9
217.675	23.19
218.14	22.41
218.604	21.6
219.069	21.07
219.534	20.58
219.998	20.1
220.463	19.75
220.927	19.43
221.392	19.1
221.856	18.81
222.32	18.56
222.785	18.34
223.249	18.13
223.713	17.97
224.177	17.69
224.642	17.44
225.106	17.21
225.57	16.98
226.034	16.8
226.497	16.59
226.961	16.38
227.425	16.14
227.889	15.95
228.353	15.76
228.816	15.56
229.28	15.37
229.744	15.24
230.207	15.07
230.671	14.93
231.134	14.72
231.597	14.54
232.061	14.38
232.524	14.25
232.987	14.07
233.45	13.89
233.914	13.74
234.377	13.6
234.84	13.43
235.303	13.29
235.766	13.14
236.229	13
236.691	12.88
237.154	12.75
237.617	12.62
238.08	12.5
238.542	12.39
239.005	12.27
239.468	12.14
239.93	12.03
240.393	11.92
240.855	11.78
241.317	11.68
241.78	11.55
242.242	11.42
242.704	11.3
243.166	11.19
243.629	11.07
244.091	10.95
244.553	10.86
245.015	10.76
245.477	10.65
245.939	10.55
246.4	10.45
246.862	10.35
247.324	10.28
247.786	10.19
248.247	10.1
248.709	10.02
249.17	9.95
249.632	9.86
250.093	9.77
250.555	9.71
251.016	9.64
251.477	9.57
251.939	9.5
252.4	9.43
252.861	9.37
253.322	9.31
253.783	9.25
254.244	9.19
254.705	9.14
255.166	9.09
255.627	9.04
256.088	8.97
256.549	8.93
257.009	8.88
257.47	8.84
257.931	8.8
258.391	8.75
258.852	8.7
259.312	8.65
259.773	8.6
260.233	8.55
260.694	8.49
261.154	8.45
261.614	8.4
262.074	8.36
262.534	8.3
262.994	8.26
263.455	8.21
263.915	8.17
264.374	8.13
264.834	8.1
265.294	8.06
265.754	8.03
266.214	8
266.673	7.97
267.133	7.95
267.593	7.92
268.052	7.9
268.512	7.86
268.971	7.84
269.431	7.83
269.89	7.79
270.349	7.77
270.809	7.75
271.268	7.73
271.727	7.71
272.186	7.67
272.645	7.64
273.104	7.62
273.563	7.59
274.022	7.56
274.481	7.53
274.94	7.5
275.399	7.48
275.857	7.45
276.316	7.42
276.775	7.38
277.233	7.36
277.692	7.33
278.15	7.29
278.609	7.27
279.067	7.24
279.525	7.21
279.984	7.18
280.442	7.15
280.9	7.13
281.358	7.1
281.816	7.08
282.274	7.05
282.732	7.04
283.19	7.03
283.648	7.01
284.106	6.99
284.564	6.98
285.021	6.97
285.479	6.95
285.937	6.94
286.394	6.92
286.852	6.9
287.309	6.88
287.767	6.86
288.224	6.82
288.682	6.8
289.139	6.77
289.596	6.73
290.053	6.7
290.511	6.66
290.968	6.63
291.425	6.61
291.882	6.58
292.339	6.55
292.796	6.51
293.252	6.49
293.709	6.46
294.166	6.44
294.623	6.43
295.079	6.41
295.536	6.4
295.992	6.38
296.449	6.36
296.905	6.34
297.362	6.32
297.818	6.31
298.274	6.3
298.731	6.28
299.187	6.26
299.643	6.25
300.099	6.24
300.555	6.22
301.011	6.2
301.467	6.18
301.923	6.16
302.379	6.15
302.835	6.13
303.291	6.11
303.746	6.09
304.202	6.06
304.658	6.04
305.113	6.03
305.569	6.01
306.024	6
306.479	5.98
306.935	5.97
307.39	5.95
307.845	5.95
308.301	5.95
308.756	5.94
309.211	5.93
309.666	5.92
310.121	5.91
310.576	5.91
311.031	5.9
311.486	5.91
311.94	5.9
312.395	5.9
312.85	5.89
313.305	5.88
313.759	5.88
314.214	5.87
314.668	5.87
315.123	5.87
315.577	5.86
316.032	5.85
316.486	5.83
316.94	5.81
317.394	5.8
317.849	5.79
318.303	5.78
318.757	5.77
319.211	5.76
319.665	5.76
320.119	5.74
320.572	5.73
321.026	5.72
321.48	5.71
321.934	5.7
322.387	5.69
322.841	5.66
323.295	5.65
323.748	5.63
324.202	5.61
324.655	5.59
325.108	5.56
325.562	5.54
326.015	5.52
326.468	5.5
326.921	5.5
327.374	5.48
327.827	5.48
328.28	5.47
328.733	5.46
329.186	5.46
329.639	5.45
330.092	5.45
330.545	5.45
330.997	5.45
331.45	5.44
331.903	5.44
332.355	5.44
332.808	5.44
333.26	5.44
333.713	5.44
334.165	5.44
334.617	5.44
335.069	5.44
335.522	5.44
335.974	5.44
336.426	5.44
336.878	5.43
337.33	5.42
337.782	5.42
338.234	5.42
338.686	5.41
339.137	5.4
339.589	5.39
340.041	5.38
340.493	5.36
340.944	5.36
341.396	5.34
341.847	5.33
342.299	5.3
342.75	5.28
343.201	5.24
343.653	5.22
344.104	5.21
344.555	5.18
345.006	5.16
345.457	5.14
345.908	5.13
346.359	5.12
346.81	5.11
347.261	5.1
347.712	5.09
348.163	5.09
348.613	5.08
349.064	5.06
349.515	5.05
349.965	5.05
350.416	5.05
350.866	5.04
351.317	5.04
351.767	5.03
352.217	5.03
352.668	5.02
353.118	5.03
353.568	5.03
354.018	5.05
354.468	5.05
354.918	5.06
355.368	5.06
355.818	5.06
356.268	5.07
356.718	5.07
357.168	5.08
357.617	5.08
358.067	5.08
358.517	5.07
358.966	5.07
359.416	5.07
359.865	5.06
360.315	5.07
360.764	5.06
361.213	5.05
361.663	5.04
362.112	5.04
362.561	5.05
363.01	5.05
363.459	5.05
363.908	5.04
364.357	5.05
364.806	5.04
365.255	5.04
365.703	5.04
366.152	5.04
366.601	5.04
367.05	5.04
367.498	5.04
367.947	5.04
368.395	5.04
368.844	5.04
369.292	5.04
369.74	5.05
370.189	5.06
370.637	5.06
371.085	5.06
371.533	5.07
371.981	5.07
372.429	5.07
372.877	5.08
373.325	5.1
373.773	5.11
374.221	5.12
374.669	5.13
375.116	5.14
375.564	5.15
376.012	5.17
376.459	5.2
376.907	5.22
377.354	5.24
377.801	5.26
378.249	5.29
378.696	5.32
379.143	5.34
379.591	5.37
380.038	5.41
380.485	5.46
380.932	5.5
381.379	5.53
381.826	5.57
382.273	5.61
382.72	5.66
383.166	5.7
383.613	5.75
384.06	5.8
384.506	5.85
384.953	5.9
385.4	5.94
385.846	5.99
386.292	6.04
386.739	6.09
387.185	6.15
387.631	6.2
388.078	6.25
388.524	6.28
388.97	6.33
389.416	6.37
389.862	6.41
390.308	6.47
390.754	6.52
391.2	6.58
391.645	6.63
392.091	6.68
392.537	6.73
392.983	6.79
393.428	6.87
393.874	6.93
394.319	6.99
394.765	7.04
395.21	7.08
395.655	7.13
396.101	7.16
396.546	7.2
396.991	7.23
397.436	7.24
397.881	7.28
398.326	7.32
398.771	7.35
399.216	7.39
399.661	7.42
400.106	7.46
400.551	7.48
400.995	7.48
401.44	7.49
401.885	7.51
402.329	7.54
402.774	7.54
403.218	7.54
403.663	7.54
404.107	7.54
404.551	7.57
404.995	7.57
405.44	7.57
405.884	7.59
406.328	7.6
406.772	7.61
407.216	7.61
407.66	7.63
408.104	7.63
408.547	7.63
408.991	7.62
409.435	7.6
409.879	7.6
410.322	7.6
410.766	7.61
411.209	7.62
411.653	7.61
412.096	7.61
412.54	7.62
412.983	7.63
413.426	7.64
413.869	7.67
414.312	7.7
414.756	7.72
415.199	7.76
415.642	7.78
416.085	7.79
416.527	7.82
416.97	7.83
417.413	7.82
417.856	7.81
418.298	7.79
418.741	7.78
419.184	7.76
419.626	7.75
420.069	7.72
420.511	7.71
420.953	7.71
421.396	7.71
421.838	7.71
422.28	7.73
422.722	7.74
423.164	7.74
423.606	7.75
424.048	7.74
424.49	7.77
424.932	7.78
425.374	7.76
425.816	7.73
426.258	7.7
426.699	7.67
427.141	7.62
427.582	7.61
428.024	7.61
428.465	7.63
428.907	7.64
429.348	7.61
429.789	7.62
430.231	7.62
430.672	7.63
431.113	7.66
431.554	7.7
431.995	7.74
432.436	7.75
432.877	7.77
433.318	7.76
433.759	7.77
434.2	7.79
434.64	7.82
435.081	7.83
435.522	7.86
435.962	7.87
436.403	7.9
436.843	7.92
437.284	7.96
437.724	7.99
438.164	8.02
438.604	8.05
439.045	8.05
439.485	8.08
439.925	8.1
440.365	8.12
440.805	8.16
441.245	8.15
441.685	8.19
442.125	8.21
442.564	8.24
443.004	8.29
443.444	8.32
443.883	8.38
444.323	8.43
444.762	8.49
445.202	8.56
445.641	8.61
446.081	8.7
446.52	8.74
446.959	8.81
447.398	8.89
447.837	8.95
448.276	9.03
448.716	9.09
449.154	9.16
449.593	9.22
450.032	9.26
450.471	9.31
450.91	9.34
451.349	9.39
451.787	9.41
452.226	9.43
452.664	9.45
453.103	9.45
453.541	9.46
453.98	9.46
454.418	9.45
454.856	9.45
455.295	9.45
455.733	9.45
456.171	9.46
456.609	9.47
457.047	9.48
457.485	9.48
457.923	9.48
458.361	9.48
458.798	9.51
459.236	9.54
459.674	9.55
460.111	9.57
460.549	9.59
460.987	9.6
461.424	9.58
461.862	9.56
462.299	9.57
462.736	9.58
463.173	9.57
463.611	9.55
464.048	9.54
464.485	9.55
464.922	9.53
465.359	9.5
465.796	9.51
466.233	9.54
466.67	9.58
467.106	9.57
467.543	9.58
467.98	9.6
468.416	9.63
468.853	9.64
469.29	9.64
469.726	9.65
470.162	9.67
470.599	9.67
471.035	9.68
471.471	9.67
471.907	9.69
472.344	9.7
472.78	9.7
473.216	9.7
473.652	9.69
474.088	9.72
474.523	9.72
474.959	9.72
475.395	9.73
475.831	9.74
476.266	9.75
476.702	9.75
477.138	9.74
477.573	9.74
478.008	9.75
478.444	9.77
478.879	9.77
479.314	9.76
479.75	9.77
480.185	9.76
480.62	9.76
481.055	9.76
481.49	9.76
481.925	9.77
482.36	9.79
482.795	9.77
483.229	9.76
483.664	9.76
484.099	9.78
484.534	9.78
484.968	9.82
485.403	9.83
485.837	9.84
486.271	9.85
486.706	9.87
487.14	9.9
487.574	9.93
488.009	9.97
488.443	10.02
488.877	10.06
489.311	10.11
489.745	10.15
490.179	10.2
490.613	10.28
491.046	10.37
491.48	10.44
491.914	10.52
492.348	10.6
492.781	10.69
493.215	10.78
493.648	10.88
494.082	10.99
494.515	11.1
494.948	11.23
495.382	11.33
495.815	11.45
496.248	11.59
496.681	11.72
497.114	11.86
497.547	12.01
497.98	12.17
498.413	12.34
498.846	12.5
499.279	12.69
499.711	12.87
500.144	13.08
500.577	13.28
501.009	13.5
501.442	13.73
501.874	13.96
502.306	14.19
502.739	14.44
503.171	14.69
503.603	14.96
504.036	15.23
504.468	15.51
504.9	15.8
505.332	16.1
505.764	16.39
506.196	16.7
506.627	17.04
507.059	17.37
507.491	17.7
507.923	18.06
508.354	18.41
508.786	18.76
509.217	19.12
509.649	19.51
510.08	19.91
510.512	20.32
510.943	20.73
511.374	21.11
511.805	21.53
512.237	21.94
512.668	22.35
513.099	22.79
513.53	23.23
513.961	23.68
514.391	24.07
514.822	24.5
515.253	24.93
515.684	25.36
516.114	25.83
516.545	26.26
516.975	26.72
517.406	27.17
517.836	27.59
518.267	28.03
518.697	28.45
519.127	28.91
519.558	29.34
519.988	29.75
520.418	30.16
520.848	30.57
521.278	30.98
521.708	31.28
522.138	31.62
522.567	32
522.997	32.37
523.427	32.74
523.857	33.07
524.286	33.4
524.716	33.75
525.145	34.06
525.575	34.36
526.004	34.65
526.433	35.01
526.863	35.34
527.292	35.61
527.721	35.86
528.15	36.09
528.579	36.35
529.008	36.61
529.437	36.81
529.866	37.03
530.295	37.25
530.724	37.46
531.152	37.67
531.581	37.86
532.01	38.04
532.438	38.22
532.867	38.4
533.295	38.56
533.723	38.7
534.152	38.85
534.58	38.99
535.008	39.12
535.436	39.23
535.865	39.34
536.293	39.47
536.721	39.56
537.149	39.67
537.576	39.78
538.004	39.87
538.432	39.95
538.86	40.02
539.287	40.1
539.715	40.17
540.143	40.22
540.57	40.27
540.998	40.32
541.425	40.4
541.852	40.45
542.28	40.48
542.707	40.52
543.134	40.58
543.561	40.63
543.988	40.68
544.415	40.71
544.842	40.75
545.269	40.82
545.696	40.85
546.123	40.89
546.549	40.91
546.976	40.95
547.403	40.98
547.829	41.03
548.256	41.05
548.682	41.06
549.108	41.12
549.535	41.15
549.961	41.16
550.387	41.15
550.813	41.15
551.24	41.18
551.666	41.21
552.092	41.22
552.518	41.2
552.943	41.23
553.369	41.23
553.795	41.21
554.221	41.22
554.646	41.21
555.072	41.2
555.498	41.18
555.923	41.17
556.349	41.12
556.774	41.09
557.199	41.04
557.625	40.95
558.05	40.9
558.475	40.83
558.9	40.75
559.325	40.66
559.75	40.58
560.175	40.49
560.6	40.36
561.025	40.25
561.449	40.12
561.874	40.01
562.299	39.93
562.723	39.82
563.148	39.69
563.572	39.56
563.997	39.43
564.421	39.29
564.846	39.16
565.27	39.03
565.694	38.88
566.118	38.74
566.542	38.58
566.966	38.41
567.39	38.22
567.814	38.04
568.238	37.85
568.662	37.68
569.086	37.5
569.509	37.32
569.933	37.14
570.357	36.94
570.78	36.76
571.204	36.57
571.627	36.37
572.05	36.2
572.474	36.03
572.897	35.85
573.32	35.67
573.743	35.46
574.166	35.27
574.589	35.09
575.012	34.95
575.435	34.75
575.858	34.59
576.281	34.44
576.704	34.28
577.126	34.15
577.549	34.02
577.972	33.89
578.394	33.77
578.817	33.64
579.239	33.53
579.661	33.42
580.084	33.33
580.506	33.22
580.928	33.12
581.35	33.03
581.772	32.94
582.194	32.84
582.616	32.75
583.038	32.67
583.46	32.6
583.882	32.5
584.303	32.41
584.725	32.33
585.147	32.27
585.568	32.19
585.99	32.1
586.411	32.01
586.833	31.92
587.254	31.86
587.675	31.77
588.096	31.7
588.518	31.64
588.939	31.56
589.36	31.47
589.781	31.37
590.202	31.32
590.623	31.25
591.043	31.2
591.464	31.13
591.885	31.06
592.305	31
592.726	30.94
593.147	30.91
593.567	30.86
593.987	30.84
594.408	30.8
594.828	30.74
595.248	30.71
595.669	30.67
596.089	30.64
596.509	30.58
596.929	30.53
597.349	30.46
597.769	30.39
598.189	30.36
598.608	30.29
599.028	30.23
599.448	30.15
599.867	30.08
600.287	30.01
600.706	29.95
601.126	29.88
601.545	29.81
601.965	29.73
602.384	29.65
602.803	29.55
603.222	29.48
603.641	29.39
604.061	29.32
604.48	29.22
604.898	29.11
605.317	28.98
605.736	28.87
606.155	28.76
606.574	28.66
606.992	28.55
607.411	28.44
607.829	28.26
608.248	28.14
608.666	28
609.085	27.87
609.503	27.75
609.921	27.65
610.339	27.53
610.758	27.41
611.176	27.28
611.594	27.16
612.012	27.04
612.43	26.97
612.847	26.86
613.265	26.75
613.683	26.64
614.101	26.52
614.518	26.39
614.936	26.28
615.353	26.18
615.771	26.08
616.188	25.99
616.606	25.89
617.023	25.78
617.44	25.7
617.857	25.6
618.274	25.53
618.691	25.46
619.108	25.38
619.525	25.31
619.942	25.24
620.359	25.19
620.776	25.12
621.192	25.07
621.609	25.03
622.026	24.97
622.442	24.95
622.859	24.91
623.275	24.89
623.691	24.89
624.108	24.86
624.524	24.85
624.94	24.83
625.356	24.81
625.772	24.8
626.188	24.8
626.604	24.78
627.02	24.76
627.436	24.74
627.852	24.72
628.268	24.66
628.683	24.63
629.099	24.61
629.514	24.57
629.93	24.53
630.345	24.48
630.761	24.43
631.176	24.39
631.591	24.34
632.007	24.27
632.422	24.2
632.837	24.12
633.252	24.03
633.667	23.9
634.082	23.81
634.497	23.69
634.911	23.57
635.326	23.4
635.741	23.23
636.155	23.07
636.57	22.92
636.984	22.71
637.399	22.51
637.813	22.31
638.228	22.12
638.642	21.92
639.056	21.7
639.47	21.49
639.884	21.28
640.298	21.07
640.712	20.84
641.126	20.6
641.54	20.37
641.954	20.16
642.368	19.93
642.781	19.68
643.195	19.43
643.609	19.2
644.022	18.96
644.436	18.73
644.849	18.51
645.262	18.3
645.676	18.1
646.089	17.91
646.502	17.71
646.915	17.55
647.328	17.41
647.741	17.24
648.154	17.12
648.567	17.01
648.98	16.89
649.393	16.78
649.805	16.66
650.218	16.56
650.631	16.48
651.043	16.38
651.456	16.28
651.868	16.19
652.28	16.11
652.693	16.01
653.105	15.89
653.517	15.78
653.929	15.67
654.341	15.57
654.753	15.45
655.165	15.32
655.577	15.17
655.989	15.02
656.401	14.84
656.813	14.67
657.224	14.52
657.636	14.35
658.047	14.18
658.459	13.98
658.87	13.78
659.282	13.58
659.693	13.37
660.104	13.17
660.515	12.97
660.926	12.8
661.338	12.6
661.749	12.38
662.159	12.19
662.57	11.99
662.981	11.82
663.392	11.64
663.803	11.46
664.213	11.3
664.624	11.15
665.035	10.99
665.445	10.84
665.855	10.71
666.266	10.6
666.676	10.49
667.086	10.37
667.497	10.26
667.907	10.17
668.317	10.08
668.727	10.01
669.137	9.92
669.547	9.89
669.956	9.82
670.366	9.77
670.776	9.72
671.186	9.67
671.595	9.64
672.005	9.61
672.414	9.61
672.824	9.62
673.233	9.62
673.642	9.61
674.052	9.6
674.461	9.61
674.87	9.62
675.279	9.64
675.688	9.67
676.097	9.7
676.506	9.74
676.915	9.78
677.323	9.84
677.732	9.9
678.141	9.99
678.549	10.09
678.958	10.21
679.366	10.32
679.775	10.47
680.183	10.63
680.592	10.82
681	11.03
681.408	11.25
681.816	11.5
682.224	11.78
682.632	12.1
683.04	12.44
683.448	12.82
683.856	13.26
684.264	13.72
684.671	14.23
685.079	14.77
685.487	15.36
685.894	15.97
686.302	16.65
686.709	17.35
687.116	18.07
687.524	18.85
687.931	19.65
688.338	20.48
688.745	21.32
689.152	22.19
689.559	23.07
689.966	23.95
690.373	24.87
690.78	25.75
691.187	26.65
691.593	27.55
692	28.45
692.407	29.34
692.813	30.22
693.22	31.11
693.626	31.98
694.032	32.87
694.439	33.75
694.845	34.59
695.251	35.43
695.657	36.26
696.063	37.09
696.469	37.87
696.875	38.61
697.281	39.33
697.687	40.06
698.093	40.76
698.498	41.43
698.904	42.09
699.31	42.73
699.715	43.36
700.12	43.96
700.526	44.54
700.931	45.11
701.337	45.7
701.742	46.25
702.147	46.8
702.552	47.32
702.957	47.83
703.362	48.34
703.767	48.81
704.172	49.28
704.577	49.75
704.981	50.18
705.386	50.58
705.791	50.99
706.195	51.38
706.6	51.72
707.004	52.09
707.408	52.41
707.813	52.76
708.217	53.06
708.621	53.37
709.025	53.7
709.43	53.99
709.834	54.32
710.237	54.6
710.641	54.9
711.045	55.18
711.449	55.43
711.853	55.71
712.256	55.95
712.66	56.22
713.064	56.45
713.467	56.7
713.87	56.97
714.274	57.21
714.677	57.46
715.08	57.67
715.484	57.93
715.887	58.17
716.29	58.39
716.693	58.58
717.096	58.77
717.499	58.99
717.901	59.12
718.304	59.28
718.707	59.44
719.109	59.59
719.512	59.79
719.915	59.92
720.317	60.08
720.719	60.21
721.122	60.36
721.524	60.51
721.926	60.68
722.328	60.86
722.731	61.03
723.133	61.15
723.535	61.31
723.937	61.42
724.338	61.53
724.74	61.66
725.142	61.76
725.544	61.86
725.945	61.98
726.347	62.08
726.748	62.14
727.15	62.2
727.551	62.3
727.952	62.36
728.354	62.45
728.755	62.54
729.156	62.59
729.557	62.68
729.958	62.78
730.359	62.82
730.76	62.85
731.161	62.93
731.562	62.99
731.962	63.04
732.363	63.13
732.763	63.21
733.164	63.25
733.564	63.29
733.965	63.32
734.365	63.32
734.766	63.36
735.166	63.38
735.566	63.39
735.966	63.42
736.366	63.4
736.766	63.41
737.166	63.41
737.566	63.43
737.966	63.5
738.365	63.51
738.765	63.52
739.165	63.57
739.564	63.62
739.964	63.63
740.363	63.65
740.763	63.67
741.162	63.69
741.561	63.73
741.96	63.79
742.36	63.78
742.759	63.82
743.158	63.83
743.557	63.83
743.955	63.88
744.354	63.93
744.753	63.97
745.152	64.03
745.55	64.06
745.949	64.05
746.348	64.03
746.746	64.05
747.144	64.11
747.543	64.13
747.941	64.2
748.339	64.21
748.737	64.24
749.136	64.24
749.534	64.25
749.932	64.23
750.33	64.27
750.727	64.29
751.125	64.29
751.523	64.26
751.921	64.28
752.318	64.27
752.716	64.24
753.113	64.21
753.511	64.21
753.908	64.19
754.305	64.21
754.703	64.15
755.1	64.17
755.497	64.17
755.894	64.18
756.291	64.16
756.688	64.13
757.085	64.15
757.482	64.16
757.878	64.19
758.275	64.2
758.672	64.21
759.068	64.25
759.465	64.22
759.861	64.19
760.258	64.16
760.654	64.18
761.05	64.16
761.447	64.12
761.843	64.07
762.239	63.99
762.635	63.96
763.031	63.92
763.427	63.88
763.822	63.85
764.218	63.83
764.614	63.82
765.01	63.8
765.405	63.78
765.801	63.77
766.196	63.77
766.592	63.79
766.987	63.81
767.382	63.78
767.778	63.78
768.173	63.78
768.568	63.76
768.963	63.75
769.358	63.72
769.753	63.75
770.148	63.73
770.542	63.72
770.937	63.67
771.332	63.68
771.726	63.68
772.121	63.66
772.515	63.65
772.91	63.66
773.304	63.63
773.699	63.65
774.093	63.62
774.487	63.64
774.881	63.65
775.275	63.69
775.669	63.69
776.063	63.68
776.457	63.67
776.851	63.62
777.245	63.64
777.638	63.65
778.032	63.66
778.425	63.67
778.819	63.67
779.212	63.66
779.606	63.63
779.999	63.62
780.392	63.6
780.786	63.62
781.179	63.7
781.572	63.71
781.965	63.75
782.358	63.69
782.751	63.66
783.143	63.65
783.536	63.72
783.929	63.73
784.322	63.72
784.714	63.78
785.107	63.82
785.499	63.82
785.891	63.81
786.284	63.75
786.676	63.81
787.068	63.85
787.46	63.86
787.852	63.79
788.245	63.8
788.636	63.81
789.028	63.78
789.42	63.75
789.812	63.74
790.204	63.71
790.595	63.75
790.987	63.72
791.378	63.7
791.77	63.71
792.161	63.75
792.553	63.78
792.944	63.8
793.335	63.86
793.726	63.83
794.117	63.82
794.508	63.84
794.899	63.82
795.29	63.83
795.681	63.85
796.072	63.85
796.463	63.86
796.853	63.83
797.244	63.82
797.634	63.83
798.025	63.84
798.415	63.86
798.806	63.88
799.196	63.93
799.586	63.94
799.976	63.94
800.366	63.96
800.756	63.93
801.146	63.93
801.536	63.92
801.926	63.87
802.316	63.91
802.706	63.94
803.095	63.95
803.485	63.97
803.874	63.97
804.264	64.01
804.653	64.01
805.043	64.05
805.432	64.04
805.821	64.05
806.21	64.07
806.599	64.08
806.988	64.07
807.377	64.07
807.766	64.03
808.155	64.09
808.544	64.08
808.933	64.09
809.321	64.12
809.71	64.18
810.098	64.19
810.487	64.21
810.875	64.18
811.264	64.17
811.652	64.19
812.04	64.22
812.428	64.22
812.816	64.23
813.204	64.25
813.592	64.23
813.98	64.22
814.368	64.23
814.756	64.25
815.144	64.32
815.531	64.36
815.919	64.36
816.306	64.35
816.694	64.35
817.081	64.33
817.469	64.32
817.856	64.38
818.243	64.4
818.63	64.47
819.017	64.48
819.404	64.45
819.791	64.49
820.178	64.51
820.565	64.53
820.952	64.52
821.339	64.6
821.725	64.64
822.112	64.65
822.498	64.68
822.885	64.66
823.271	64.68
823.657	64.69
824.044	64.68
824.43	64.7
824.816	64.7
825.202	64.71
825.588	64.72
825.974	64.74
826.36	64.73
826.746	64.75
827.132	64.75
827.517	64.75
827.903	64.76
828.289	64.78
828.674	64.74
829.06	64.75
829.445	64.8
829.83	64.79
830.216	64.79
830.601	64.77
830.986	64.76
831.371	64.78
831.756	64.75
832.141	64.79
832.526	64.75
832.911	64.8
833.295	64.83
833.68	64.79
834.065	64.78
834.449	64.76
834.834	64.75
835.218	64.75
835.603	64.75
835.987	64.78
836.371	64.77
836.755	64.77
837.139	64.72
837.524	64.68
837.908	64.67
838.291	64.67
838.675	64.67
839.059	64.65
839.443	64.64
839.827	64.63
840.21	64.61
840.594	64.59
840.977	64.55
841.361	64.58
841.744	64.61
842.127	64.61
842.511	64.61
842.894	64.59
843.277	64.6
843.66	64.62
844.043	64.62
844.426	64.62
844.809	64.61
845.191	64.6
845.574	64.62
845.957	64.55
846.339	64.54
846.722	64.54
847.104	64.54
847.487	64.55
847.869	64.54
848.252	64.51
848.634	64.52
849.016	64.54
849.398	64.58
849.78	64.56
850.162	64.61
850.544	64.65
850.926	64.62
851.307	64.62
851.689	64.6
852.071	64.58
852.452	64.59
852.834	64.58
853.215	64.56
853.597	64.56
853.978	64.53
854.359	64.5
854.741	64.47
855.122	64.5
855.503	64.5
855.884	64.47
856.265	64.47
856.646	64.46
857.026	64.43
857.407	64.41
857.788	64.44
858.169	64.45
858.549	64.5
858.93	64.5
859.31	64.48
859.69	64.48
860.071	64.49
860.451	64.48
860.831	64.5
861.211	64.5
861.591	64.49
861.971	64.45
862.351	64.46
862.731	64.42
863.111	64.41
863.491	64.45
863.87	64.47
864.25	64.48
864.629	64.49
865.009	64.48
865.388	64.5
865.768	64.5
866.147	64.54
866.526	64.52
866.905	64.53
867.284	64.52
867.663	64.51
868.042	64.46
868.421	64.45
868.8	64.45
869.179	64.48
869.558	64.5
869.936	64.5
870.315	64.48
870.693	64.51
871.072	64.51
871.45	64.5
871.828	64.46
872.207	64.51
872.585	64.51
872.963	64.53
873.341	64.52
873.719	64.5
874.097	64.53
874.475	64.53
874.853	64.52
875.23	64.52
875.608	64.54
875.986	64.59
876.363	64.58
876.741	64.6
877.118	64.57
877.495	64.54
877.873	64.49
878.25	64.49
878.627	64.5
879.004	64.5
879.381	64.49
879.758	64.43
880.135	64.4
880.512	64.41
880.889	64.4
881.265	64.42
881.642	64.42
882.019	64.44
882.395	64.42
882.772	64.39
883.148	64.37
883.524	64.36
883.901	64.38
884.277	64.36
884.653	64.34
885.029	64.33
885.405	64.29
885.781	64.24
886.157	64.24
886.532	64.23
886.908	64.26
887.284	64.28
887.659	64.29
888.035	64.29
888.411	64.28
888.786	64.28
889.161	64.27
889.537	64.26
889.912	64.26
890.287	64.26
890.662	64.25
891.037	64.22
891.412	64.19
891.787	64.16
892.162	64.14
892.536	64.12
892.911	64.09
893.286	64.06
893.66	64.06
894.035	64.08
894.409	64.07
894.784	64.06
895.158	64.02
895.532	63.99
895.906	63.99
896.281	63.98
896.655	63.97
897.029	63.98
897.402	64
897.776	63.99
898.15	63.97
898.524	63.96
898.898	63.94
899.271	63.97
899.645	64
900.018	64
900.392	64.02
900.765	64.04
901.138	64.03
901.511	64.02
901.884	64.03
902.258	63.98
902.631	64.01
903.003	63.98
903.376	63.95
903.749	63.98
904.122	63.96
904.495	63.96
904.867	63.95
905.24	63.95
905.612	63.92
905.985	63.88
906.357	63.89
906.729	63.84
907.102	63.85
907.474	63.89
907.846	63.86
908.218	63.85
908.59	63.82
908.962	63.8
909.334	63.78
909.705	63.76
910.077	63.76
910.449	63.75
910.82	63.76
911.192	63.73
911.563	63.66
911.935	63.59
912.306	63.55
912.677	63.56
913.048	63.55
913.419	63.49
913.79	63.5
914.161	63.49
914.532	63.49
914.903	63.46
915.274	63.5
915.645	63.5
916.015	63.54
916.386	63.52
916.756	63.47
917.127	63.46
917.497	63.48
917.868	63.48
918.238	63.52
918.608	63.5
918.978	63.48
919.348	63.44
919.718	63.42
920.088	63.42
920.458	63.51
920.828	63.51
921.198	63.5
921.567	63.5
921.937	63.53
922.306	63.47
922.676	63.48
923.045	63.49
923.415	63.48
923.784	63.5
924.153	63.44
924.522	63.38
924.891	63.39
925.26	63.39
925.629	63.34
925.998	63.28
926.367	63.25
926.736	63.23
927.104	63.23
927.473	63.25
927.842	63.22
928.21	63.27
928.578	63.25
928.947	63.29
929.315	63.25
929.683	63.29
930.051	63.33
930.42	63.35
930.788	63.37
931.156	63.34
931.523	63.34
931.891	63.32
932.259	63.23
932.627	63.13
932.994	63.05
933.362	63.05
933.729	62.96
934.097	62.86
934.464	62.8
934.831	62.7
935.199	62.67
935.566	62.57
935.933	62.61
936.3	62.59
936.667	62.6
937.034	62.58
937.401	62.47
937.767	62.47
938.134	62.45
938.501	62.39
938.867	62.48
939.234	62.5
939.6	62.47
939.967	62.39
940.333	62.4
940.699	62.48
941.065	62.52
941.431	62.61
941.798	62.68
942.163	62.72
942.529	62.8
942.895	62.73
943.261	62.74
943.627	62.82
943.992	62.81
944.358	62.84
944.723	62.81
945.089	62.83
945.454	62.9
945.82	62.9
946.185	62.92
946.55	63.03
946.915	63.06
947.28	63.06
947.645	63.08
948.01	63.02
948.375	63.05
948.74	63
949.104	63
949.469	62.95
949.834	62.85
950.198	62.81
950.562	62.72
950.927	62.67
951.291	62.58
951.655	62.51
952.02	62.54
952.384	62.62
952.748	62.66
953.112	62.68
953.476	62.67
953.839	62.7
954.203	62.65
954.567	62.61
954.931	62.53
955.294	62.44
955.658	62.43
956.021	62.34
956.385	62.29
956.748	62.24
957.111	62.12
957.474	62.11
957.837	62.08
958.2	62.06
958.563	62.04
958.926	62
959.289	62.06
959.652	62.08
960.015	62.05
960.377	61.96
960.74	61.86
961.102	61.88
961.465	61.85
961.827	61.74
962.189	61.69
962.552	61.62
962.914	61.64
963.276	61.67
963.638	61.6
964	61.57
964.362	61.57
964.724	61.61
965.085	61.61
965.447	61.53
965.809	61.6
966.17	61.64
966.532	61.63
966.893	61.58
967.255	61.49
967.616	61.51
967.977	61.5
968.338	61.51
968.699	61.44
969.061	61.35
969.421	61.35
969.782	61.37
970.143	61.36
970.504	61.41
970.865	61.39
971.225	61.32
971.586	61.35
971.946	61.37
972.307	61.28
972.667	61.42
973.027	61.49
973.388	61.47
973.748	61.43
974.108	61.38
974.468	61.31
974.828	61.33
975.188	61.4
975.548	61.39
975.907	61.35
976.267	61.34
976.627	61.24
976.986	61.17
977.346	61.14
977.705	61.06
978.064	61.01
978.424	61.04
978.783	60.97
979.142	60.91
979.501	60.85
979.86	60.83
980.219	60.79
980.578	60.68
980.937	60.71
981.296	60.79
981.654	60.89
982.013	60.96
982.371	60.93
982.73	61.02
983.088	61.03
983.447	60.97
983.805	61
984.163	61.06
984.521	61.06
984.879	61.01
985.237	61.06
985.595	60.99
985.953	60.93
986.311	61.01
986.669	61
987.026	60.97
987.384	61.01
987.741	61.06
988.099	61
988.456	60.96
988.814	60.98
989.171	60.78
989.528	60.69
989.885	60.65
990.242	60.61
990.599	60.58
990.956	60.59
991.313	60.56
991.67	60.46
992.027	60.47
992.383	60.53
992.74	60.54
993.096	60.58
993.453	60.59
993.809	60.61
994.165	60.58
994.522	60.62
994.878	60.57
995.234	60.53
995.59	60.46
995.946	60.52
996.302	60.35
996.658	60.21
997.013	60.15
997.369	60.14
997.725	60.24
998.08	60.13
998.436	59.97
998.791	59.98
999.147	60.1
999.502	60.1
999.857	60.1
1000.212	60.24
1000.567	60.22
1000.922	60.16
1001.277	60.13
1001.632	60.17
1001.987	60.2
1002.342	60.21
1002.696	60.17
1003.051	59.92
1003.406	59.87
1003.76	59.63
1004.114	59.68
1004.469	59.66
1004.823	59.82
1005.177	59.87
1005.531	59.66
1005.885	59.68
1006.239	59.58
1006.593	59.55
1006.947	59.47
1007.301	59.49
1007.655	59.51
1008.008	59.31
1008.362	59.4
1008.715	59.27
1009.069	59.1
1009.422	58.99
1009.776	58.82
1010.129	58.84
1010.482	58.94
1010.835	59.22
1011.188	58.97
1011.541	58.74
1011.894	58.82
1012.247	58.67
1012.6	58.57
1012.952	58.4
1013.305	58.31
1013.657	58.49
1014.01	58.63
1014.362	58.56
1014.715	58.37
1015.067	58.62
1015.419	58.96
1015.771	59.17
1016.123	59.23
1016.475	59.48
1016.827	59.72
1017.179	59.92
1017.531	59.79
1017.883	59.71
1018.234	59.75
1018.586	59.71
1018.938	59.65
1019.289	59.49
1019.64	59.23
1019.992	59.17
1020.343	59.13
1020.694	59.23
1021.045	59.19
1021.396	59.2
1021.747	59.2
1022.098	58.92
1022.449	58.97
1022.8	58.61
1023.151	58.51
1023.501	58.41
1023.852	58.19
1024.202	57.8
1024.553	57.44
1024.903	57.29
1025.253	57.06
1025.604	56.95
1025.954	56.76
1026.304	56.55
1026.654	57.01
1027.004	57.02
1027.354	56.89
1027.703	57.25
1028.053	57.26
1028.403	57.31
1028.753	57.61
1029.102	57.66
1029.452	57.44
1029.801	57.55
1030.15	57.63
1030.499	57.44
897.758	855.26
901.051	864.78
904.343	872.67
907.636	863.6
910.928	845.06
914.22	861.18
917.511	845.3
920.803	811.37
924.094	771.71
927.384	775.67
930.675	752.98
933.965	746.81
937.255	749.12
940.544	716.81
943.834	677.61
947.123	668.94
950.411	631.87
953.7	618.48
956.988	602.29
960.276	574.21
963.563	563.85
966.851	532.67
970.138	523.63
973.424	484.86
976.711	477.66
979.997	465.43
983.283	455.59
986.568	440.61
989.853	427.2
993.138	410.2
996.423	408.37
999.708	396.83
1002.992	398.29
1006.275	385.25
1009.559	383.35
1012.842	373.79
1016.125	359.48
1019.408	352.27
1022.69	348
1025.972	345.75
1029.254	336.26
1032.536	330.06
1035.817	318.76
1039.098	313.43
1042.379	306.94
1045.659	301.28
1048.939	298.57
1052.219	294.77
1055.498	288.66
1058.778	283.88
1062.057	278.26
1065.335	277.28
1068.614	272.48
1071.892	269.91
1075.17	263.62
1078.447	261.05
1081.724	259.11
1085.001	253.61
1088.278	252.93
1091.554	252.26
1094.83	251.09
1098.106	246.62
1101.382	245.36
1104.657	244.37
1107.932	243.55
1111.206	243.24
1114.481	240.09
1117.755	237.62
1121.029	236.87
1124.302	233.13
1127.575	229.04
1130.848	228.3
1134.121	225.39
1137.393	224.63
1140.665	222.66
1143.937	220.21
1147.208	216.86
1150.48	214.66
1153.75	214.32
1157.021	211.31
1160.291	210.48
1163.561	211.49
1166.831	208.65
1170.101	209.67
1173.37	206.63
1176.639	204.62
1179.907	204.52
1183.176	204.51
1186.444	205.01
1189.711	203.48
1192.979	206.55
1196.246	207.24
1199.513	204.73
1202.78	205.89
1206.046	205.46
1209.312	207.3
1212.578	208.92
1215.843	212.01
1219.108	212.99
1222.373	216.24
1225.638	219.7
1228.902	224.16
1232.166	229.7
1235.43	234.62
1238.693	240.96
1241.956	246.23
1245.219	254.12
1248.482	253.92
1251.744	253
1255.006	253.68
1258.268	247.6
1261.529	245.89
1264.79	238.5
1268.051	234.15
1271.312	231.89
1274.572	226.73
1277.832	220.54
1281.092	216.59
1284.351	213.56
1287.61	213.09
1290.869	212.36
1294.128	211.38
1297.386	209.69
1300.644	208.91
1303.902	208.17
1307.159	206.25
1310.416	207.79
1313.673	211.66
1316.93	213.15
1320.186	216.65
1323.442	218.84
1326.697	223.04
1329.953	225.51
1333.208	233.03
1336.463	243.38
1339.717	247.39
1342.972	260.06
1346.226	267.11
1349.479	268.84
1352.733	280.42
1355.986	286.36
1359.238	292.83
1362.491	295.97
1365.743	307.09
1368.995	308.13
1372.247	303.92
1375.498	304.59
1378.749	314.98
1382	313.6
1385.251	313.5
1388.501	312.6
1391.751	317.2
1395	314.95
1398.25	316.73
1401.499	315.4
1404.748	316.52
1407.996	312.74
1411.244	312.55
1414.492	305.55
1417.74	298.64
1420.987	291.8
1424.234	286.95
1427.481	275.15
1430.728	268.75
1433.974	259.97
1437.22	250.41
1440.465	242.46
1443.711	235.41
1446.956	229.1
1450.201	219.88
1453.445	210.16
1456.689	203.45
1459.933	196.48
1463.177	189.11
1466.42	185.28
1469.663	179.31
1472.906	174.8
1476.148	169.74
1479.391	165.41
1482.633	162.41
1485.874	159.99
1489.115	158.11
1492.356	155.36
1495.597	153.7
1498.838	152.22
1502.078	150.58
1505.318	150.21
1508.557	149.6
1511.797	147.63
1515.036	147.43
1518.274	146.07
1521.513	144.33
1524.751	143.87
1527.989	145.07
1531.227	143.83
1534.464	143.71
1537.701	142.32
1540.938	141.72
1544.174	141.21
1547.41	141.12
1550.646	140.52
1553.882	140.78
1557.117	140.09
1560.352	139.09
1563.587	137.8
1566.821	137.9
1570.055	136.28
1573.289	136.45
1576.523	136.54
1579.756	135.58
1582.989	136.06
1586.222	135.34
1589.454	134.86
1592.686	134.92
1595.918	134.91
1599.15	134.56
1602.381	134.87
1605.612	135.52
1608.843	135.09
1612.073	135.07
1615.303	135.6
1618.533	135.31
1621.762	136.25
1624.992	136.36
1628.221	136.14
1631.449	136.88
1634.678	136.72
1637.906	136.51
1641.134	136.46
1644.361	136.81
1647.588	136.98
1650.815	137.02
1654.042	136.83
1657.269	136.45
1660.495	136.96
1663.72	136.08
1666.946	136.84
1670.171	137.46
1673.396	137.97
1676.621	138.94
1679.845	138.59
1683.069	138.23
1686.293	138.33
1689.517	138.66
1692.74	138.99
1695.963	138.96
1699.185	141.11
1702.408	139.95
1705.63	140.32
1708.852	140.67
1712.073	139.72
1715.294	140.1
1718.515	140.89
1721.736	141.04
1724.956	141.13
1728.176	140.93
1731.396	142.25
1734.616	141.94
1737.835	142.75
1741.054	142.08
1744.272	141.89
1747.491	142.9
1750.709	143.44
1753.927	143.72
1757.144	143.23
1760.361	144.11
1763.578	145.12
1766.795	144.97
1770.011	144.73
1773.227	145.68
1776.443	147.2
1779.658	148.22
1782.874	148.33
1786.089	148.9
1789.303	149.06
1792.518	151.36
1795.732	152.12
1798.945	153.66
1802.159	153.41
1805.372	156.01
1808.585	156.71
1811.797	157.9
1815.01	158.26
1818.222	159.95
1821.434	160.66
1824.645	162.19
1827.856	163.78
1831.067	165.11
1834.278	165.35
1837.488	167.65
1840.698	169.12
1843.908	169.24
1847.117	171.57
1850.326	174.03
1853.535	174.5
1856.744	177.26
1859.952	179.09
1863.16	179.63
1866.368	177.63
1869.575	180.41
1872.782	178.98
1875.989	177.96
1879.196	177.19
1882.402	176
1885.608	176.31
1888.814	176.7
1892.019	177.1
1895.224	174.82
1898.429	175.57
1901.634	178.38
1904.838	177.79
1908.042	179.63
1911.246	178.93
1914.449	180.69
1917.652	180.05
1920.855	180.64
1924.058	179.7
1927.26	179.08
1930.462	180.38
1933.664	179.64
1936.865	178.71
1940.066	177.44
1943.267	176.61
1946.467	179.19
1949.668	178.73
1952.868	178.64
1956.067	178.26
1959.267	178.18
1962.466	179.37
1965.665	181.13
1968.863	182.37
1972.061	183.94
1975.259	187.44
1978.457	188.29
1981.654	189.39
1984.852	191.7
1988.048	194.63
1991.245	197.18
1994.441	202.56
1997.637	206.57
2000.833	209.54
2004.028	210.87
2007.223	218.98
2010.418	222.67
2013.613	233.38
2016.807	239.13
2020.001	244.48
2023.194	249.94
2026.388	258.69
2029.581	270.97
2032.774	280.23
2035.966	289.16
2039.158	299.46
2042.35	302.13
2045.542	307.44
2048.733	320.48
2051.924	322.47
2055.115	327.94
2058.306	332.14
2061.496	339.49
2064.686	338.08
2067.875	333.57
2071.065	336.8
2074.254	338.22
2077.442	346.92
2080.631	351
2083.819	349.37
2087.007	358.67
2090.195	363.7
2093.382	363.66
2096.569	362.58
2099.756	369.39
2102.942	378.93
2106.128	387.42
2109.314	389.13
2112.5	389.98
2115.685	387.32
2118.87	387.68
2122.055	390.24
2125.239	397.59
2128.424	407.77
2131.608	404.56
2134.791	407.75
2137.974	407.39
2141.157	408.79
2144.34	412.96
2147.523	419.37
2150.705	430.42
2153.887	428.41
2157.068	432.29
2160.25	432.37
2163.431	433.19
2166.611	441.23
2169.792	446
2172.972	454.86
2176.152	454.39
2179.331	464.32
2182.511	465.63
2185.69	471.25
2188.868	489.18
2192.047	499.96
2195.225	509.59
2198.403	514.66
2201.58	510.4
2204.758	529.3
2207.935	530.52
2211.111	544.32
2214.288	546.17
2217.464	551.74
2220.64	555.58
2223.815	556.7
2226.991	549.87
2230.166	555.31
2233.34	574.37
2236.515	588.07
2239.689	577.77
2242.863	589.62
2246.036	583.67
2249.209	602.5
2252.382	599.35
2255.555	620.92
2258.727	622.81
2261.9	643.79
2265.071	651.5
2268.243	642.09
2271.414	665.97
2274.585	680.5
2277.756	683.49
2280.926	708.27
2284.096	703.43
2287.266	711.15
2290.436	696.7
2293.605	712.5
2296.774	736.19
2299.942	738.75
2303.111	763.27
2306.279	779.88
2309.447	780.89
2312.614	780.83
2315.781	804.37
2318.948	811.32
2322.115	827.21
2325.281	869.17
2328.447	869
2331.613	867.59
2334.779	882.34
2337.944	891.71
2341.109	907.75
2344.274	917.83
2347.438	941.78
2350.602	952.62
2353.766	1021.84
2356.929	1023.42
2360.092	1038.34
2363.255	1037.66
2366.418	1054.95
2369.58	1081.39
2372.742	1077.84
2375.904	1068.82
2379.066	1100.98
2382.227	1161.58
2385.388	1162.74
2388.548	1099.83
2391.709	1089.75
2394.869	1128.4
2398.029	1123.46
2401.188	1123.22
2404.347	1155.5
2407.506	1199.75
2410.665	1153.2
2413.823	1156.28
2416.981	1159
2420.139	1099.93
2423.296	1179.17
2426.453	1258.13
2429.61	1196.28
2432.767	1286.85
2435.923	1334.92
2439.079	1272.17
2442.235	1304.03
2445.391	1335.23
2448.546	1329.36
2451.701	1409.51
2454.855	1505.19
2458.009	1338.36
2461.163	1366.85
2464.317	1376.15
2467.471	1348.6
2470.624	1391.06
2473.777	1379.75
2476.929	1328.91
2480.082	1425.13
2483.234	1490.69
2486.385	1507.84
2489.537	1544.91
2492.688	1709.07
2495.839	1668.51
2498.989	1726.56
2502.14	1727.85
2505.29	1647.67
2508.439	1835.88
2511.589	1892.85
2514.738	1826.99
2517.887	1809.58
2521.035	1686.97
2524.183	1660.94
2527.331	1640.34
2530.479	1603.71
2533.627	1637.93
