Data from N_2_dec_va_2n_049_Splice17_19.txt Node
Date: Sat Feb 29 13:56:35 EST 2020
User: sa697716
Spectrometer: FLMS03696
Trigger mode: 0
Integration Time (sec): 3.180400E-1
Scans to average: 20
Electric dark correction enabled: true
Nonlinearity correction enabled: true
Boxcar width: 5
XAxis mode: Wavelengths
Number of Pixels in Spectrum: 2048
>>>>>Begin Spectral Data<<<<<
187.83	76.31
188.298	75
188.766	69.99
189.233	63.67
189.701	76.85
190.169	77.04
190.636	76.85
191.104	55.42
191.571	101.98
192.039	82
192.506	-48.8
192.974	-1291.09
193.441	540.43
193.908	-3.96
194.375	-84.75
194.842	50.7
195.31	75.8
195.777	119.17
196.244	40.44
196.711	24.26
197.177	20.56
197.644	20.9
198.111	20.82
198.578	20.38
199.045	20.66
199.511	21
199.978	21.35
200.445	20.86
200.911	20.71
201.378	20.6
201.844	21.1
202.31	22
202.777	22.28
203.243	22.55
203.709	23.45
204.176	23.14
204.642	22.96
205.108	22.41
205.574	22.96
206.04	22.96
206.506	22.9
206.972	22.81
207.438	22.18
207.903	22.34
208.369	22
208.835	21.47
209.301	21.52
209.766	21.74
210.232	21.88
210.697	21.57
211.163	21.21
211.628	20.78
212.094	20.71
212.559	20.33
213.024	19.52
213.49	19.1
213.955	18.96
214.42	18.3
214.885	17.56
215.35	16.98
215.815	16.29
216.28	15.64
216.745	15
217.21	14.3
217.675	13.74
218.14	13.08
218.604	12.35
219.069	11.73
219.534	11.45
219.998	10.98
220.463	10.7
220.927	10.41
221.392	10.17
221.856	9.94
222.32	9.68
222.785	9.47
223.249	9.29
223.713	9.17
224.177	8.98
224.642	8.78
225.106	8.63
225.57	8.45
226.034	8.34
226.497	8.21
226.961	8.08
227.425	7.92
227.889	7.79
228.353	7.68
228.816	7.56
229.28	7.46
229.744	7.37
230.207	7.3
230.671	7.2
231.134	7.08
231.597	6.97
232.061	6.89
232.524	6.82
232.987	6.74
233.45	6.66
233.914	6.59
234.377	6.53
234.84	6.46
235.303	6.38
235.766	6.31
236.229	6.23
236.691	6.17
237.154	6.12
237.617	6.06
238.08	6
238.542	5.94
239.005	5.88
239.468	5.8
239.93	5.75
240.393	5.69
240.855	5.62
241.317	5.58
241.78	5.53
242.242	5.48
242.704	5.42
243.166	5.36
243.629	5.32
244.091	5.24
244.553	5.2
245.015	5.15
245.477	5.1
245.939	5.06
246.4	5.01
246.862	4.96
247.324	4.92
247.786	4.89
248.247	4.85
248.709	4.8
249.17	4.78
249.632	4.73
250.093	4.69
250.555	4.66
251.016	4.64
251.477	4.6
251.939	4.56
252.4	4.52
252.861	4.48
253.322	4.44
253.783	4.43
254.244	4.4
254.705	4.38
255.166	4.38
255.627	4.36
256.088	4.33
256.549	4.31
257.009	4.28
257.47	4.27
257.931	4.24
258.391	4.21
258.852	4.18
259.312	4.14
259.773	4.11
260.233	4.07
260.694	4.05
261.154	4.02
261.614	3.99
262.074	3.97
262.534	3.94
262.994	3.92
263.455	3.9
263.915	3.88
264.374	3.87
264.834	3.85
265.294	3.82
265.754	3.8
266.214	3.78
266.673	3.76
267.133	3.74
267.593	3.73
268.052	3.71
268.512	3.69
268.971	3.67
269.431	3.65
269.89	3.64
270.349	3.62
270.809	3.62
271.268	3.61
271.727	3.59
272.186	3.58
272.645	3.56
273.104	3.55
273.563	3.55
274.022	3.54
274.481	3.53
274.94	3.52
275.399	3.51
275.857	3.49
276.316	3.47
276.775	3.46
277.233	3.44
277.692	3.44
278.15	3.42
278.609	3.4
279.067	3.38
279.525	3.36
279.984	3.35
280.442	3.34
280.9	3.33
281.358	3.32
281.816	3.31
282.274	3.3
282.732	3.3
283.19	3.29
283.648	3.27
284.106	3.27
284.564	3.27
285.021	3.26
285.479	3.25
285.937	3.24
286.394	3.23
286.852	3.21
287.309	3.2
287.767	3.19
288.224	3.18
288.682	3.17
289.139	3.16
289.596	3.14
290.053	3.12
290.511	3.1
290.968	3.1
291.425	3.08
291.882	3.07
292.339	3.06
292.796	3.03
293.252	3.02
293.709	3.01
294.166	3
294.623	3
295.079	2.99
295.536	2.98
295.992	2.96
296.449	2.96
296.905	2.94
297.362	2.93
297.818	2.93
298.274	2.92
298.731	2.91
299.187	2.9
299.643	2.89
300.099	2.88
300.555	2.87
301.011	2.87
301.467	2.86
301.923	2.86
302.379	2.86
302.835	2.85
303.291	2.84
303.746	2.83
304.202	2.82
304.658	2.81
305.113	2.81
305.569	2.81
306.024	2.8
306.479	2.79
306.935	2.78
307.39	2.77
307.845	2.77
308.301	2.77
308.756	2.76
309.211	2.77
309.666	2.76
310.121	2.76
310.576	2.75
311.031	2.75
311.486	2.75
311.94	2.75
312.395	2.75
312.85	2.75
313.305	2.75
313.759	2.75
314.214	2.74
314.668	2.73
315.123	2.73
315.577	2.74
316.032	2.73
316.486	2.71
316.94	2.71
317.394	2.69
317.849	2.68
318.303	2.68
318.757	2.67
319.211	2.65
319.665	2.64
320.119	2.63
320.572	2.62
321.026	2.62
321.48	2.62
321.934	2.62
322.387	2.61
322.841	2.6
323.295	2.59
323.748	2.58
324.202	2.58
324.655	2.58
325.108	2.57
325.562	2.56
326.015	2.54
326.468	2.53
326.921	2.51
327.374	2.52
327.827	2.52
328.28	2.51
328.733	2.51
329.186	2.5
329.639	2.5
330.092	2.49
330.545	2.49
330.997	2.5
331.45	2.5
331.903	2.5
332.355	2.49
332.808	2.5
333.26	2.48
333.713	2.5
334.165	2.5
334.617	2.5
335.069	2.5
335.522	2.5
335.974	2.51
336.426	2.51
336.878	2.51
337.33	2.51
337.782	2.51
338.234	2.51
338.686	2.5
339.137	2.49
339.589	2.49
340.041	2.5
340.493	2.49
340.944	2.48
341.396	2.46
341.847	2.46
342.299	2.44
342.75	2.43
343.201	2.42
343.653	2.41
344.104	2.4
344.555	2.39
345.006	2.37
345.457	2.36
345.908	2.36
346.359	2.35
346.81	2.35
347.261	2.36
347.712	2.35
348.163	2.36
348.613	2.35
349.064	2.34
349.515	2.33
349.965	2.34
350.416	2.34
350.866	2.34
351.317	2.34
351.767	2.34
352.217	2.33
352.668	2.34
353.118	2.34
353.568	2.35
354.018	2.36
354.468	2.36
354.918	2.36
355.368	2.36
355.818	2.36
356.268	2.36
356.718	2.35
357.168	2.34
357.617	2.33
358.067	2.33
358.517	2.32
358.966	2.32
359.416	2.32
359.865	2.32
360.315	2.33
360.764	2.32
361.213	2.31
361.663	2.32
362.112	2.31
362.561	2.31
363.01	2.32
363.459	2.31
363.908	2.3
364.357	2.3
364.806	2.3
365.255	2.3
365.703	2.29
366.152	2.31
366.601	2.31
367.05	2.32
367.498	2.33
367.947	2.32
368.395	2.34
368.844	2.35
369.292	2.34
369.74	2.34
370.189	2.34
370.637	2.35
371.085	2.35
371.533	2.35
371.981	2.35
372.429	2.35
372.877	2.35
373.325	2.36
373.773	2.36
374.221	2.36
374.669	2.37
375.116	2.37
375.564	2.37
376.012	2.39
376.459	2.4
376.907	2.42
377.354	2.43
377.801	2.45
378.249	2.46
378.696	2.48
379.143	2.51
379.591	2.53
380.038	2.56
380.485	2.59
380.932	2.6
381.379	2.61
381.826	2.64
382.273	2.66
382.72	2.68
383.166	2.69
383.613	2.72
384.06	2.73
384.506	2.75
384.953	2.78
385.4	2.8
385.846	2.83
386.292	2.87
386.739	2.87
387.185	2.9
387.631	2.93
388.078	2.97
388.524	2.99
388.97	3.02
389.416	3.05
389.862	3.08
390.308	3.11
390.754	3.14
391.2	3.17
391.645	3.2
392.091	3.23
392.537	3.27
392.983	3.31
393.428	3.34
393.874	3.38
394.319	3.4
394.765	3.42
395.21	3.43
395.655	3.47
396.101	3.49
396.546	3.53
396.991	3.55
397.436	3.55
397.881	3.56
398.326	3.6
398.771	3.62
399.216	3.65
399.661	3.68
400.106	3.72
400.551	3.72
400.995	3.72
401.44	3.72
401.885	3.72
402.329	3.74
402.774	3.75
403.218	3.75
403.663	3.74
404.107	3.75
404.551	3.75
404.995	3.74
405.44	3.73
405.884	3.74
406.328	3.74
406.772	3.74
407.216	3.75
407.66	3.75
408.104	3.74
408.547	3.74
408.991	3.73
409.435	3.72
409.879	3.73
410.322	3.74
410.766	3.74
411.209	3.73
411.653	3.72
412.096	3.71
412.54	3.72
412.983	3.73
413.426	3.75
413.869	3.76
414.312	3.77
414.756	3.78
415.199	3.79
415.642	3.81
416.085	3.82
416.527	3.84
416.97	3.86
417.413	3.84
417.856	3.83
418.298	3.82
418.741	3.82
419.184	3.81
419.626	3.8
420.069	3.79
420.511	3.77
420.953	3.76
421.396	3.75
421.838	3.77
422.28	3.78
422.722	3.79
423.164	3.79
423.606	3.8
424.048	3.79
424.49	3.79
424.932	3.79
425.374	3.79
425.816	3.79
426.258	3.77
426.699	3.75
427.141	3.72
427.582	3.71
428.024	3.7
428.465	3.68
428.907	3.68
429.348	3.66
429.789	3.66
430.231	3.66
430.672	3.67
431.113	3.67
431.554	3.68
431.995	3.69
432.436	3.7
432.877	3.69
433.318	3.69
433.759	3.69
434.2	3.7
434.64	3.73
435.081	3.74
435.522	3.74
435.962	3.76
436.403	3.78
436.843	3.79
437.284	3.8
437.724	3.83
438.164	3.84
438.604	3.85
439.045	3.87
439.485	3.86
439.925	3.86
440.365	3.88
440.805	3.88
441.245	3.89
441.685	3.92
442.125	3.94
442.564	3.96
443.004	4
443.444	4.05
443.883	4.1
444.323	4.13
444.762	4.19
445.202	4.25
445.641	4.28
446.081	4.35
446.52	4.37
446.959	4.4
447.398	4.47
447.837	4.51
448.276	4.54
448.716	4.56
449.154	4.6
449.593	4.65
450.032	4.67
450.471	4.72
450.91	4.76
451.349	4.81
451.787	4.84
452.226	4.83
452.664	4.84
453.103	4.86
453.541	4.87
453.98	4.87
454.418	4.85
454.856	4.86
455.295	4.85
455.733	4.83
456.171	4.83
456.609	4.84
457.047	4.83
457.485	4.84
457.923	4.83
458.361	4.83
458.798	4.86
459.236	4.87
459.674	4.85
460.111	4.86
460.549	4.85
460.987	4.84
461.424	4.83
461.862	4.84
462.299	4.85
462.736	4.85
463.173	4.84
463.611	4.83
464.048	4.84
464.485	4.84
464.922	4.83
465.359	4.85
465.796	4.85
466.233	4.87
466.67	4.87
467.106	4.84
467.543	4.85
467.98	4.85
468.416	4.84
468.853	4.85
469.29	4.85
469.726	4.86
470.162	4.87
470.599	4.87
471.035	4.88
471.471	4.88
471.907	4.91
472.344	4.92
472.78	4.94
473.216	4.96
473.652	4.97
474.088	4.99
474.523	5
474.959	5.01
475.395	5.01
475.831	5.02
476.266	5.03
476.702	5.02
477.138	5.01
477.573	5.01
478.008	5.01
478.444	5.02
478.879	5.03
479.314	5.04
479.75	5.06
480.185	5.06
480.62	5.06
481.055	5.05
481.49	5.06
481.925	5.07
482.36	5.07
482.795	5.07
483.229	5.08
483.664	5.08
484.099	5.08
484.534	5.09
484.968	5.11
485.403	5.13
485.837	5.16
486.271	5.18
486.706	5.21
487.14	5.25
487.574	5.29
488.009	5.33
488.443	5.36
488.877	5.41
489.311	5.45
489.745	5.5
490.179	5.54
490.613	5.59
491.046	5.66
491.48	5.72
491.914	5.78
492.348	5.85
492.781	5.91
493.215	5.99
493.648	6.07
494.082	6.15
494.515	6.24
494.948	6.33
495.382	6.42
495.815	6.52
496.248	6.63
496.681	6.73
497.114	6.84
497.547	6.96
497.98	7.09
498.413	7.22
498.846	7.37
499.279	7.5
499.711	7.64
500.144	7.8
500.577	7.96
501.009	8.11
501.442	8.29
501.874	8.47
502.306	8.66
502.739	8.85
503.171	9.04
503.603	9.24
504.036	9.48
504.468	9.71
504.9	9.95
505.332	10.19
505.764	10.46
506.196	10.73
506.627	11
507.059	11.27
507.491	11.56
507.923	11.87
508.354	12.17
508.786	12.47
509.217	12.77
509.649	13.11
510.08	13.44
510.512	13.76
510.943	14.09
511.374	14.44
511.805	14.8
512.237	15.15
512.668	15.49
513.099	15.87
513.53	16.23
513.961	16.6
514.391	16.95
514.822	17.33
515.253	17.73
515.684	18.09
516.114	18.48
516.545	18.86
516.975	19.24
517.406	19.63
517.836	19.99
518.267	20.36
518.697	20.76
519.127	21.13
519.558	21.47
519.988	21.84
520.418	22.21
520.848	22.54
521.278	22.89
521.708	23.13
522.138	23.45
522.567	23.79
522.997	24.1
523.427	24.4
523.857	24.67
524.286	24.97
524.716	25.22
525.145	25.5
525.575	25.77
526.004	26.01
526.433	26.36
526.863	26.6
527.292	26.81
527.721	27.04
528.15	27.23
528.579	27.47
529.008	27.66
529.437	27.84
529.866	28
530.295	28.16
530.724	28.34
531.152	28.48
531.581	28.62
532.01	28.74
532.438	28.85
532.867	28.98
533.295	29.09
533.723	29.22
534.152	29.33
534.58	29.42
535.008	29.5
535.436	29.59
535.865	29.66
536.293	29.74
536.721	29.81
537.149	29.88
537.576	29.96
538.004	30.02
538.432	30.05
538.86	30.1
539.287	30.16
539.715	30.21
540.143	30.24
540.57	30.28
540.998	30.33
541.425	30.37
541.852	30.41
542.28	30.43
542.707	30.46
543.134	30.5
543.561	30.51
543.988	30.52
544.415	30.56
544.842	30.58
545.269	30.62
545.696	30.64
546.123	30.68
546.549	30.71
546.976	30.73
547.403	30.77
547.829	30.8
548.256	30.85
548.682	30.88
549.108	30.91
549.535	30.93
549.961	30.93
550.387	30.94
550.813	30.91
551.24	30.92
551.666	30.93
552.092	30.93
552.518	30.91
552.943	30.9
553.369	30.87
553.795	30.85
554.221	30.84
554.646	30.82
555.072	30.79
555.498	30.75
555.923	30.72
556.349	30.66
556.774	30.6
557.199	30.54
557.625	30.47
558.05	30.42
558.475	30.33
558.9	30.24
559.325	30.15
559.75	30.06
560.175	29.98
560.6	29.87
561.025	29.77
561.449	29.67
561.874	29.55
562.299	29.42
562.723	29.28
563.148	29.16
563.572	29.05
563.997	28.91
564.421	28.75
564.846	28.61
565.27	28.47
565.694	28.31
566.118	28.14
566.542	28.01
566.966	27.86
567.39	27.69
567.814	27.51
568.238	27.32
568.662	27.16
569.086	26.98
569.509	26.79
569.933	26.61
570.357	26.43
570.78	26.26
571.204	26.06
571.627	25.89
572.05	25.73
572.474	25.59
572.897	25.41
573.32	25.25
573.743	25.09
574.166	24.95
574.589	24.8
575.012	24.65
575.435	24.51
575.858	24.38
576.281	24.25
576.704	24.11
577.126	23.96
577.549	23.86
577.972	23.75
578.394	23.63
578.817	23.51
579.239	23.39
579.661	23.28
580.084	23.18
580.506	23.07
580.928	22.99
581.35	22.89
581.772	22.81
582.194	22.71
582.616	22.62
583.038	22.54
583.46	22.46
583.882	22.37
584.303	22.28
584.725	22.2
585.147	22.12
585.568	22.03
585.99	21.95
586.411	21.84
586.833	21.77
587.254	21.69
587.675	21.61
588.096	21.54
588.518	21.47
588.939	21.42
589.36	21.34
589.781	21.28
590.202	21.22
590.623	21.16
591.043	21.12
591.464	21.07
591.885	21.03
592.305	20.99
592.726	20.93
593.147	20.9
593.567	20.84
593.987	20.82
594.408	20.77
594.828	20.73
595.248	20.7
595.669	20.66
596.089	20.61
596.509	20.55
596.929	20.51
597.349	20.47
597.769	20.42
598.189	20.37
598.608	20.32
599.028	20.28
599.448	20.24
599.867	20.18
600.287	20.13
600.706	20.08
601.126	20.02
601.545	19.96
601.965	19.91
602.384	19.86
602.803	19.78
603.222	19.72
603.641	19.64
604.061	19.56
604.48	19.47
604.898	19.39
605.317	19.31
605.736	19.23
606.155	19.13
606.574	19.03
606.992	18.92
607.411	18.85
607.829	18.72
608.248	18.61
608.666	18.52
609.085	18.41
609.503	18.33
609.921	18.23
610.339	18.13
610.758	18.04
611.176	17.95
611.594	17.85
612.012	17.72
612.43	17.68
612.847	17.57
613.265	17.48
613.683	17.38
614.101	17.27
614.518	17.17
614.936	17.08
615.353	16.97
615.771	16.87
616.188	16.8
616.606	16.72
617.023	16.62
617.44	16.57
617.857	16.5
618.274	16.44
618.691	16.37
619.108	16.31
619.525	16.24
619.942	16.2
620.359	16.16
620.776	16.1
621.192	16.07
621.609	16.03
622.026	15.97
622.442	15.94
622.859	15.9
623.275	15.87
623.691	15.84
624.108	15.83
624.524	15.8
624.94	15.78
625.356	15.74
625.772	15.72
626.188	15.71
626.604	15.69
627.02	15.67
627.436	15.67
627.852	15.65
628.268	15.62
628.683	15.61
629.099	15.58
629.514	15.55
629.93	15.55
630.345	15.5
630.761	15.46
631.176	15.43
631.591	15.36
632.007	15.29
632.422	15.22
632.837	15.16
633.252	15.09
633.667	15.01
634.082	14.92
634.497	14.8
634.911	14.69
635.326	14.58
635.741	14.44
636.155	14.33
636.57	14.2
636.984	14.07
637.399	13.91
637.813	13.73
638.228	13.57
638.642	13.41
639.056	13.25
639.47	13.1
639.884	12.91
640.298	12.74
640.712	12.57
641.126	12.39
641.54	12.21
641.954	12.05
642.368	11.88
642.781	11.72
643.195	11.55
643.609	11.39
644.022	11.23
644.436	11.07
644.849	10.93
645.262	10.78
645.676	10.65
646.089	10.52
646.502	10.39
646.915	10.28
647.328	10.17
647.741	10.06
648.154	9.96
648.567	9.88
648.98	9.81
649.393	9.74
649.805	9.65
650.218	9.58
650.631	9.53
651.043	9.47
651.456	9.41
651.868	9.34
652.28	9.28
652.693	9.2
653.105	9.12
653.517	9.04
653.929	8.96
654.341	8.88
654.753	8.77
655.165	8.67
655.577	8.55
655.989	8.43
656.401	8.32
656.813	8.2
657.224	8.08
657.636	7.97
658.047	7.83
658.459	7.69
658.87	7.55
659.282	7.44
659.693	7.3
660.104	7.17
660.515	7.04
660.926	6.91
661.338	6.78
661.749	6.64
662.159	6.5
662.57	6.38
662.981	6.25
663.392	6.13
663.803	6.01
664.213	5.9
664.624	5.8
665.035	5.69
665.445	5.6
665.855	5.52
666.266	5.45
666.676	5.36
667.086	5.3
667.497	5.24
667.907	5.18
668.317	5.12
668.727	5.08
669.137	5.04
669.547	5.01
669.956	4.97
670.366	4.94
670.776	4.92
671.186	4.9
671.595	4.89
672.005	4.89
672.414	4.88
672.824	4.89
673.233	4.9
673.642	4.89
674.052	4.89
674.461	4.9
674.87	4.91
675.279	4.92
675.688	4.95
676.097	4.98
676.506	5
676.915	5.03
677.323	5.07
677.732	5.11
678.141	5.18
678.549	5.25
678.958	5.33
679.366	5.4
679.775	5.49
680.183	5.59
680.592	5.7
681	5.82
681.408	5.98
681.816	6.13
682.224	6.31
682.632	6.51
683.04	6.73
683.448	6.98
683.856	7.27
684.264	7.59
684.671	7.93
685.079	8.29
685.487	8.68
685.894	9.1
686.302	9.56
686.709	10.04
687.116	10.56
687.524	11.11
687.931	11.69
688.338	12.28
688.745	12.88
689.152	13.54
689.559	14.2
689.966	14.9
690.373	15.61
690.78	16.31
691.187	17.05
691.593	17.78
692	18.52
692.407	19.25
692.813	20.02
693.22	20.77
693.626	21.5
694.032	22.23
694.439	22.97
694.845	23.69
695.251	24.43
695.657	25.15
696.063	25.84
696.469	26.5
696.875	27.16
697.281	27.79
697.687	28.47
698.093	29.12
698.498	29.74
698.904	30.33
699.31	30.9
699.715	31.48
700.12	32.03
700.526	32.58
700.931	33.12
701.337	33.66
701.742	34.16
702.147	34.66
702.552	35.13
702.957	35.59
703.362	36.07
703.767	36.53
704.172	36.96
704.577	37.35
704.981	37.8
705.386	38.21
705.791	38.61
706.195	38.98
706.6	39.31
707.004	39.7
707.408	40.04
707.813	40.37
708.217	40.74
708.621	41.08
709.025	41.44
709.43	41.75
709.834	42.08
710.237	42.37
710.641	42.72
711.045	43.04
711.449	43.29
711.853	43.62
712.256	43.89
712.66	44.15
713.064	44.42
713.467	44.66
713.87	44.92
714.274	45.18
714.677	45.43
715.08	45.66
715.484	45.88
715.887	46.16
716.29	46.37
716.693	46.6
717.096	46.8
717.499	46.99
717.901	47.19
718.304	47.36
718.707	47.53
719.109	47.71
719.512	47.91
719.915	48.09
720.317	48.25
720.719	48.42
721.122	48.58
721.524	48.75
721.926	48.94
722.328	49.1
722.731	49.25
723.133	49.4
723.535	49.56
723.937	49.68
724.338	49.77
724.74	49.89
725.142	50.03
725.544	50.13
725.945	50.24
726.347	50.34
726.748	50.39
727.15	50.46
727.551	50.57
727.952	50.65
728.354	50.75
728.755	50.85
729.156	50.94
729.557	51.01
729.958	51.1
730.359	51.17
730.76	51.21
731.161	51.3
731.562	51.38
731.962	51.43
732.363	51.47
732.763	51.53
733.164	51.58
733.564	51.63
733.965	51.67
734.365	51.68
734.766	51.7
735.166	51.75
735.566	51.79
735.966	51.83
736.366	51.87
736.766	51.92
737.166	51.94
737.566	51.98
737.966	52.01
738.365	52.07
738.765	52.14
739.165	52.17
739.564	52.21
739.964	52.26
740.363	52.26
740.763	52.27
741.162	52.27
741.561	52.31
741.96	52.34
742.36	52.36
742.759	52.32
743.158	52.3
743.557	52.34
743.955	52.37
744.354	52.38
744.753	52.44
745.152	52.47
745.55	52.52
745.949	52.53
746.348	52.55
746.746	52.55
747.144	52.63
747.543	52.67
747.941	52.7
748.339	52.72
748.737	52.77
749.136	52.78
749.534	52.84
749.932	52.84
750.33	52.82
750.727	52.85
751.125	52.86
751.523	52.84
751.921	52.86
752.318	52.87
752.716	52.84
753.113	52.84
753.511	52.83
753.908	52.78
754.305	52.76
754.703	52.76
755.1	52.72
755.497	52.75
755.894	52.77
756.291	52.74
756.688	52.72
757.085	52.72
757.482	52.69
757.878	52.67
758.275	52.7
758.672	52.71
759.068	52.7
759.465	52.72
759.861	52.7
760.258	52.66
760.654	52.66
761.05	52.67
761.447	52.66
761.843	52.63
762.239	52.61
762.635	52.58
763.031	52.55
763.427	52.55
763.822	52.5
764.218	52.48
764.614	52.5
765.01	52.49
765.405	52.46
765.801	52.43
766.196	52.42
766.592	52.43
766.987	52.43
767.382	52.43
767.778	52.47
768.173	52.51
768.568	52.49
768.963	52.46
769.358	52.46
769.753	52.47
770.148	52.51
770.542	52.49
770.937	52.49
771.332	52.49
771.726	52.49
772.121	52.44
772.515	52.41
772.91	52.44
773.304	52.45
773.699	52.45
774.093	52.44
774.487	52.41
774.881	52.43
775.275	52.47
775.669	52.49
776.063	52.48
776.457	52.44
776.851	52.41
777.245	52.41
777.638	52.38
778.032	52.39
778.425	52.42
778.819	52.44
779.212	52.45
779.606	52.42
779.999	52.36
780.392	52.37
780.786	52.38
781.179	52.41
781.572	52.38
781.965	52.39
782.358	52.34
782.751	52.33
783.143	52.32
783.536	52.31
783.929	52.29
784.322	52.32
784.714	52.3
785.107	52.31
785.499	52.32
785.891	52.35
786.284	52.37
786.676	52.41
787.068	52.4
787.46	52.38
787.852	52.38
788.245	52.37
788.636	52.38
789.028	52.37
789.42	52.36
789.812	52.34
790.204	52.28
790.595	52.28
790.987	52.27
791.378	52.29
791.77	52.34
792.161	52.35
792.553	52.36
792.944	52.4
793.335	52.42
793.726	52.4
794.117	52.4
794.508	52.42
794.899	52.39
795.29	52.38
795.681	52.36
796.072	52.37
796.463	52.35
796.853	52.36
797.244	52.31
797.634	52.3
798.025	52.35
798.415	52.36
798.806	52.37
799.196	52.41
799.586	52.44
799.976	52.44
800.366	52.44
800.756	52.43
801.146	52.42
801.536	52.42
801.926	52.42
802.316	52.43
802.706	52.44
803.095	52.48
803.485	52.49
803.874	52.46
804.264	52.51
804.653	52.48
805.043	52.53
805.432	52.52
805.821	52.54
806.21	52.56
806.599	52.6
806.988	52.61
807.377	52.62
807.766	52.64
808.155	52.67
808.544	52.68
808.933	52.7
809.321	52.74
809.71	52.82
810.098	52.84
810.487	52.85
810.875	52.84
811.264	52.83
811.652	52.83
812.04	52.8
812.428	52.82
812.816	52.77
813.204	52.77
813.592	52.74
813.98	52.72
814.368	52.72
814.756	52.71
815.144	52.75
815.531	52.74
815.919	52.7
816.306	52.72
816.694	52.71
817.081	52.74
817.469	52.76
817.856	52.78
818.243	52.76
818.63	52.82
819.017	52.83
819.404	52.81
819.791	52.83
820.178	52.86
820.565	52.88
820.952	52.88
821.339	52.94
821.725	52.97
822.112	52.98
822.498	53
822.885	52.97
823.271	53.01
823.657	53.04
824.044	53.06
824.43	53.09
824.816	53.08
825.202	53.09
825.588	53.06
825.974	53.05
826.36	53.03
826.746	53.05
827.132	53.07
827.517	53.03
827.903	53
828.289	53.02
828.674	53.02
829.06	53.04
829.445	53.08
829.83	53.07
830.216	53.06
830.601	53.11
830.986	53.09
831.371	53.1
831.756	53.11
832.141	53.14
832.526	53.12
832.911	53.12
833.295	53.11
833.68	53.1
834.065	53.14
834.449	53.14
834.834	53.1
835.218	53.09
835.603	53.11
835.987	53.1
836.371	53.1
836.755	53.12
837.139	53.12
837.524	53.15
837.908	53.13
838.291	53.1
838.675	53.09
839.059	53.12
839.443	53.12
839.827	53.09
840.21	53.1
840.594	53.1
840.977	53.06
841.361	53.08
841.744	53.07
842.127	53.09
842.511	53.07
842.894	53.08
843.277	53.08
843.66	53.08
844.043	53.1
844.426	53.11
844.809	53.11
845.191	53.12
845.574	53.1
845.957	53.07
846.339	53.06
846.722	53.07
847.104	53.07
847.487	53.06
847.869	53.07
848.252	53.06
848.634	53.06
849.016	53.06
849.398	53.06
849.78	53.05
850.162	53.05
850.544	53.07
850.926	53.06
851.307	53.06
851.689	53.05
852.071	53.03
852.452	53.02
852.834	53.03
853.215	53.03
853.597	53.04
853.978	53.02
854.359	53.02
854.741	53.01
855.122	53.05
855.503	53.06
855.884	53.06
856.265	53.09
856.646	53.08
857.026	53.05
857.407	53.02
857.788	53.04
858.169	53.03
858.549	53.08
858.93	53.07
859.31	53.02
859.69	53
860.071	52.97
860.451	52.97
860.831	52.97
861.211	52.97
861.591	52.98
861.971	52.97
862.351	53.01
862.731	53
863.111	52.97
863.491	53
863.87	53
864.25	53.04
864.629	53.04
865.009	53.03
865.388	53.02
865.768	53
866.147	53
866.526	52.97
866.905	52.96
867.284	53.01
867.663	53
868.042	53.01
868.421	52.97
868.8	52.97
869.179	53
869.558	53.01
869.936	52.99
870.315	52.99
870.693	52.99
871.072	52.95
871.45	52.91
871.828	52.91
872.207	52.92
872.585	52.95
872.963	52.93
873.341	52.92
873.719	52.89
874.097	52.9
874.475	52.89
874.853	52.89
875.23	52.89
875.608	52.89
875.986	52.89
876.363	52.88
876.741	52.88
877.118	52.86
877.495	52.85
877.873	52.83
878.25	52.83
878.627	52.84
879.004	52.85
879.381	52.87
879.758	52.86
880.135	52.87
880.512	52.86
880.889	52.84
881.265	52.86
881.642	52.84
882.019	52.89
882.395	52.89
882.772	52.88
883.148	52.88
883.524	52.89
883.901	52.87
884.277	52.85
884.653	52.84
885.029	52.83
885.405	52.84
885.781	52.81
886.157	52.78
886.532	52.78
886.908	52.78
887.284	52.79
887.659	52.79
888.035	52.83
888.411	52.81
888.786	52.8
889.161	52.81
889.537	52.81
889.912	52.82
890.287	52.82
890.662	52.81
891.037	52.78
891.412	52.76
891.787	52.72
892.162	52.68
892.536	52.67
892.911	52.67
893.286	52.64
893.66	52.63
894.035	52.63
894.409	52.63
894.784	52.61
895.158	52.6
895.532	52.59
895.906	52.6
896.281	52.58
896.655	52.6
897.029	52.57
897.402	52.54
897.776	52.54
898.15	52.55
898.524	52.52
898.898	52.51
899.271	52.52
899.645	52.52
900.018	52.47
900.392	52.47
900.765	52.48
901.138	52.46
901.511	52.49
901.884	52.5
902.258	52.48
902.631	52.49
903.003	52.47
903.376	52.43
903.749	52.44
904.122	52.47
904.495	52.45
904.867	52.41
905.24	52.4
905.612	52.38
905.985	52.33
906.357	52.29
906.729	52.25
907.102	52.25
907.474	52.27
907.846	52.25
908.218	52.22
908.59	52.21
908.962	52.22
909.334	52.19
909.705	52.15
910.077	52.16
910.449	52.2
910.82	52.19
911.192	52.2
911.563	52.16
911.935	52.13
912.306	52.13
912.677	52.14
913.048	52.13
913.419	52.15
913.79	52.13
914.161	52.13
914.532	52.12
914.903	52.11
915.274	52.08
915.645	52.11
916.015	52.15
916.386	52.12
916.756	52.06
917.127	52.07
917.497	52.09
917.868	52.13
918.238	52.12
918.608	52.12
918.978	52.16
919.348	52.18
919.718	52.16
920.088	52.15
920.458	52.2
920.828	52.26
921.198	52.25
921.567	52.25
921.937	52.26
922.306	52.23
922.676	52.25
923.045	52.19
923.415	52.18
923.784	52.18
924.153	52.16
924.522	52.12
924.891	52.07
925.26	52.02
925.629	52
925.998	51.96
926.367	51.96
926.736	51.89
927.104	51.9
927.473	51.91
927.842	51.87
928.21	51.89
928.578	51.88
928.947	51.87
929.315	51.87
929.683	51.9
930.051	51.88
930.42	51.9
930.788	51.93
931.156	51.92
931.523	51.89
931.891	51.85
932.259	51.8
932.627	51.73
932.994	51.69
933.362	51.67
933.729	51.6
934.097	51.58
934.464	51.52
934.831	51.45
935.199	51.4
935.566	51.31
935.933	51.33
936.3	51.26
936.667	51.25
937.034	51.22
937.401	51.14
937.767	51.1
938.134	51
938.501	50.96
938.867	50.93
939.234	50.89
939.6	50.87
939.967	50.81
940.333	50.85
940.699	50.86
941.065	50.89
941.431	50.99
941.798	51.05
942.163	51.16
942.529	51.18
942.895	51.21
943.261	51.28
943.627	51.33
943.992	51.37
944.358	51.36
944.723	51.35
945.089	51.33
945.454	51.3
945.82	51.19
946.185	51.21
946.55	51.31
946.915	51.27
947.28	51.21
947.645	51.22
948.01	51.32
948.375	51.38
948.74	51.39
949.104	51.42
949.469	51.34
949.834	51.32
950.198	51.18
950.562	51.12
950.927	51.13
951.291	51.13
951.655	51.13
952.02	51.08
952.384	51.06
952.748	51.11
953.112	51.06
953.476	51.14
953.839	51.16
954.203	51.19
954.567	51.17
954.931	51.13
955.294	51.15
955.658	51.04
956.021	51.02
956.385	51.03
956.748	50.95
957.111	50.88
957.474	50.77
957.837	50.77
958.2	50.76
958.563	50.76
958.926	50.78
959.289	50.76
959.652	50.88
960.015	50.84
960.377	50.79
960.74	50.73
961.102	50.76
961.465	50.84
961.827	50.76
962.189	50.71
962.552	50.61
962.914	50.55
963.276	50.52
963.638	50.36
964	50.36
964.362	50.31
964.724	50.34
965.085	50.34
965.447	50.28
965.809	50.25
966.17	50.32
966.532	50.38
966.893	50.37
967.255	50.33
967.616	50.38
967.977	50.39
968.338	50.33
968.699	50.29
969.061	50.3
969.421	50.28
969.782	50.31
970.143	50.24
970.504	50.2
970.865	50.17
971.225	50.19
971.586	50.18
971.946	50.14
972.307	50.15
972.667	50.2
973.027	50.22
973.388	50.27
973.748	50.34
974.108	50.33
974.468	50.35
974.828	50.34
975.188	50.36
975.548	50.33
975.907	50.32
976.267	50.4
976.627	50.33
976.986	50.31
977.346	50.28
977.705	50.27
978.064	50.31
978.424	50.28
978.783	50.32
979.142	50.3
979.501	50.27
979.86	50.28
980.219	50.16
980.578	50.18
980.937	50.15
981.296	50.14
981.654	50.1
982.013	50.1
982.371	50.09
982.73	50.08
983.088	50.09
983.447	50.17
983.805	50.12
984.163	50.19
984.521	50.08
984.879	50.07
985.237	50.03
985.595	50.04
985.953	50.01
986.311	50.08
986.669	50.12
987.026	50.03
987.384	49.98
987.741	50
988.099	49.99
988.456	50.05
988.814	50.03
989.171	49.97
989.528	49.93
989.885	49.9
990.242	49.82
990.599	49.79
990.956	49.8
991.313	49.78
991.67	49.84
992.027	49.76
992.383	49.83
992.74	49.74
993.096	49.69
993.453	49.73
993.809	49.74
994.165	49.76
994.522	49.68
994.878	49.64
995.234	49.64
995.59	49.4
995.946	49.5
996.302	49.41
996.658	49.5
997.013	49.5
997.369	49.35
997.725	49.34
998.08	49.41
998.436	49.48
998.791	49.56
999.147	49.61
999.502	49.69
999.857	49.62
1000.212	49.52
1000.567	49.49
1000.922	49.5
1001.277	49.53
1001.632	49.68
1001.987	49.57
1002.342	49.5
1002.696	49.64
1003.051	49.52
1003.406	49.57
1003.76	49.5
1004.114	49.62
1004.469	49.59
1004.823	49.52
1005.177	49.53
1005.531	49.38
1005.885	49.4
1006.239	49.34
1006.593	49.2
1006.947	49.26
1007.301	49.17
1007.655	49.25
1008.008	49.14
1008.362	49.11
1008.715	49.14
1009.069	49.06
1009.422	48.92
1009.776	48.69
1010.129	48.55
1010.482	48.54
1010.835	48.37
1011.188	48.16
1011.541	47.92
1011.894	47.95
1012.247	47.91
1012.6	47.96
1012.952	47.98
1013.305	47.93
1013.657	48.19
1014.01	48.54
1014.362	48.39
1014.715	48.51
1015.067	48.91
1015.419	49.07
1015.771	49.41
1016.123	49.44
1016.475	49.41
1016.827	49.55
1017.179	49.35
1017.531	48.99
1017.883	48.69
1018.234	48.77
1018.586	48.65
1018.938	48.33
1019.289	48.07
1019.64	47.74
1019.992	47.77
1020.343	47.62
1020.694	47.32
1021.045	47.39
1021.396	47.55
1021.747	47.67
1022.098	47.37
1022.449	47.39
1022.8	47.46
1023.151	47.56
1023.501	47.67
1023.852	47.3
1024.202	47.34
1024.553	47.21
1024.903	47.1
1025.253	47.23
1025.604	46.94
1025.954	46.91
1026.304	47.05
1026.654	47.05
1027.004	47.07
1027.354	46.51
1027.703	47.04
1028.053	47.09
1028.403	46.86
1028.753	47.18
1029.102	46.94
1029.452	47.04
1029.801	47.22
1030.15	46.97
1030.499	46.9
897.758	709.11
901.051	708.78
904.343	717.23
907.636	704.4
910.928	693.48
914.22	703.52
917.511	692.47
920.803	658.49
924.094	634.2
927.384	636.44
930.675	616.88
933.965	609.57
937.255	613.59
940.544	586.26
943.834	562.67
947.123	553.54
950.411	522.36
953.7	513.92
956.988	501.01
960.276	474.87
963.563	469.32
966.851	445.67
970.138	435.22
973.424	405.66
976.711	398.77
979.997	385.47
983.283	378.85
986.568	368.04
989.853	355.14
993.138	342.38
996.423	339.47
999.708	328.46
1002.992	328.16
1006.275	318.71
1009.559	315.64
1012.842	307.75
1016.125	297.85
1019.408	290.25
1022.69	288.29
1025.972	287.26
1029.254	278.09
1032.536	271.9
1035.817	263.58
1039.098	260.61
1042.379	255.89
1045.659	251.56
1048.939	249.79
1052.219	245.54
1055.498	241.31
1058.778	237.19
1062.057	231.17
1065.335	231.26
1068.614	227.46
1071.892	224.77
1075.17	221.57
1078.447	217.81
1081.724	217.14
1085.001	212.24
1088.278	210.5
1091.554	209.6
1094.83	207.64
1098.106	204.98
1101.382	204.08
1104.657	203.42
1107.932	201.89
1111.206	199.96
1114.481	198.41
1117.755	195.87
1121.029	195.19
1124.302	193.37
1127.575	190.02
1130.848	189.77
1134.121	187.02
1137.393	186.25
1140.665	184.96
1143.937	183.41
1147.208	180.37
1150.48	178.95
1153.75	178.86
1157.021	176.49
1160.291	175.62
1163.561	175.78
1166.831	173.85
1170.101	174.63
1173.37	171.73
1176.639	170.18
1179.907	170.64
1183.176	171.17
1186.444	171.17
1189.711	170.04
1192.979	172.77
1196.246	172.11
1199.513	170.56
1202.78	172.45
1206.046	172.05
1209.312	173.74
1212.578	174.56
1215.843	177.13
1219.108	177.02
1222.373	179.84
1225.638	182.25
1228.902	185.28
1232.166	191.59
1235.43	194.99
1238.693	199.19
1241.956	203.84
1245.219	210.07
1248.482	210.41
1251.744	209.16
1255.006	210.63
1258.268	205.69
1261.529	204.23
1264.79	198.74
1268.051	195.07
1271.312	193.28
1274.572	188.41
1277.832	184.04
1281.092	180.82
1284.351	178.71
1287.61	178.2
1290.869	177.05
1294.128	176.61
1297.386	174.71
1300.644	173.94
1303.902	173.33
1307.159	172.45
1310.416	174.12
1313.673	176.8
1316.93	177.16
1320.186	180.14
1323.442	182.55
1326.697	186.63
1329.953	187.39
1333.208	195.36
1336.463	203.13
1339.717	206.69
1342.972	217.52
1346.226	222.27
1349.479	223.47
1352.733	235.41
1355.986	238.57
1359.238	244.26
1362.491	245.59
1365.743	256.68
1368.995	256.57
1372.247	255.38
1375.498	254.13
1378.749	262.17
1382	262.71
1385.251	262.18
1388.501	260.05
1391.751	265
1395	262.48
1398.25	264.68
1401.499	262.95
1404.748	263.85
1407.996	259.42
1411.244	260.35
1414.492	255.14
1417.74	248.89
1420.987	242.99
1424.234	239.99
1427.481	231.21
1430.728	225.68
1433.974	217.51
1437.22	211.46
1440.465	203.29
1443.711	197.53
1446.956	192.89
1450.201	184.81
1453.445	177.25
1456.689	172.49
1459.933	166.64
1463.177	160.13
1466.42	157.1
1469.663	153.03
1472.906	148.21
1476.148	145.69
1479.391	141.86
1482.633	139.03
1485.874	137.07
1489.115	135.62
1492.356	132.76
1495.597	132.03
1498.838	130.65
1502.078	129.32
1505.318	128.9
1508.557	127.93
1511.797	126.04
1515.036	126.31
1518.274	125.4
1521.513	123.85
1524.751	123.28
1527.989	124.33
1531.227	123.16
1534.464	123.23
1537.701	122.18
1540.938	121.68
1544.174	122
1547.41	121.65
1550.646	121.15
1553.882	121.21
1557.117	120.66
1560.352	120.67
1563.587	119.73
1566.821	119.46
1570.055	118.41
1573.289	118.16
1576.523	118.41
1579.756	117.71
1582.989	118.36
1586.222	117.68
1589.454	116.81
1592.686	117.15
1595.918	116.3
1599.15	116.38
1602.381	116.07
1605.612	116.2
1608.843	116.36
1612.073	116.68
1615.303	116.69
1618.533	115.84
1621.762	116.29
1624.992	116.78
1628.221	116.55
1631.449	117.33
1634.678	116.74
1637.906	116.72
1641.134	117.23
1644.361	117.02
1647.588	116.7
1650.815	116.78
1654.042	117.14
1657.269	117.16
1660.495	117.56
1663.72	117.26
1666.946	117.38
1670.171	118.17
1673.396	119.14
1676.621	118.69
1679.845	119.18
1683.069	119.1
1686.293	118.73
1689.517	118.97
1692.74	119.18
1695.963	119.48
1699.185	120.29
1702.408	119.85
1705.63	120.05
1708.852	120.51
1712.073	120.65
1715.294	120.41
1718.515	120.91
1721.736	121.32
1724.956	121.86
1728.176	121.61
1731.396	122.47
1734.616	122.23
1737.835	122.94
1741.054	121.95
1744.272	122.3
1747.491	122.47
1750.709	123.24
1753.927	123.26
1757.144	124.03
1760.361	123.92
1763.578	125.14
1766.795	124.92
1770.011	125.19
1773.227	125.81
1776.443	127.75
1779.658	127.64
1782.874	128.91
1786.089	129
1789.303	129.51
1792.518	130.32
1795.732	131.18
1798.945	132.02
1802.159	132.09
1805.372	134.12
1808.585	134.66
1811.797	135.46
1815.01	136.45
1818.222	137.43
1821.434	137.67
1824.645	138.88
1827.856	140.41
1831.067	141.47
1834.278	141.39
1837.488	143.05
1840.698	144.51
1843.908	144.9
1847.117	146.26
1850.326	147.32
1853.535	147.09
1856.744	149.65
1859.952	151.2
1863.16	151.15
1866.368	150.97
1869.575	152.49
1872.782	152.48
1875.989	150.98
1879.196	150.43
1882.402	149.45
1885.608	150.05
1888.814	150.02
1892.019	151.49
1895.224	148.6
1898.429	149.24
1901.634	149.9
1904.838	150.54
1908.042	149.54
1911.246	150.21
1914.449	151.34
1917.652	150.93
1920.855	150
1924.058	150.31
1927.26	148.82
1930.462	149.56
1933.664	149.59
1936.865	149.01
1940.066	146.59
1943.267	147.18
1946.467	146.92
1949.668	147.24
1952.868	147.79
1956.067	148.18
1959.267	147.83
1962.466	148.37
1965.665	150.93
1968.863	151.51
1972.061	152.33
1975.259	156.14
1978.457	156.35
1981.654	159.43
1984.852	160.05
1988.048	161.91
1991.245	164.47
1994.441	168.87
1997.637	172.21
2000.833	175.04
2004.028	176.05
2007.223	182.58
2010.418	186.06
2013.613	194.22
2016.807	197.59
2020.001	201.71
2023.194	206.66
2026.388	214.58
2029.581	222.85
2032.774	230.3
2035.966	237.01
2039.158	244.71
2042.35	247.77
2045.542	252.89
2048.733	262.97
2051.924	267.05
2055.115	272.19
2058.306	275.76
2061.496	279.89
2064.686	282.1
2067.875	276.89
2071.065	280.47
2074.254	281.91
2077.442	289.33
2080.631	292.58
2083.819	293.64
2087.007	298.3
2090.195	303.31
2093.382	303.44
2096.569	303.5
2099.756	307.62
2102.942	317.3
2106.128	322.34
2109.314	324.23
2112.5	325.11
2115.685	323.21
2118.87	323.47
2122.055	325.67
2125.239	332.37
2128.424	341.15
2131.608	336.02
2134.791	337.59
2137.974	337.52
2141.157	341.79
2144.34	344.78
2147.523	348.21
2150.705	355.66
2153.887	354.12
2157.068	356.96
2160.25	359.74
2163.431	356.43
2166.611	363.92
2169.792	373
2172.972	377.47
2176.152	374.27
2179.331	383.43
2182.511	384.49
2185.69	389.63
2188.868	403.45
2192.047	415.03
2195.225	420.08
2198.403	427.21
2201.58	425.67
2204.758	438.38
2207.935	443.01
2211.111	454.47
2214.288	455.09
2217.464	460.52
2220.64	462.89
2223.815	465.24
2226.991	453.27
2230.166	457.6
2233.34	471.68
2236.515	481.95
2239.689	471.67
2242.863	480.3
2246.036	475.02
2249.209	488.99
2252.382	487.4
2255.555	506.59
2258.727	508.42
2261.9	531.29
2265.071	537.41
2268.243	529.82
2271.414	546.7
2274.585	558.55
2277.756	558.78
2280.926	583.56
2284.096	579.48
2287.266	583.44
2290.436	568.82
2293.605	581.57
2296.774	598.47
2299.942	598.48
2303.111	620.02
2306.279	631.25
2309.447	628.69
2312.614	633.27
2315.781	644.7
2318.948	657.11
2322.115	669.95
2325.281	706.44
2328.447	704.95
2331.613	699.64
2334.779	712.17
2337.944	720.96
2341.109	736.67
2344.274	747.66
2347.438	768.89
2350.602	781.65
2353.766	826.06
2356.929	832.33
2360.092	840.98
2363.255	841.61
2366.418	860.5
2369.58	875.07
2372.742	880.32
2375.904	872.79
2379.066	899.57
2382.227	944.9
2385.388	950.13
2388.548	898.85
2391.709	888.56
2394.869	924.28
2398.029	923.23
2401.188	924.89
2404.347	955.74
2407.506	984.34
2410.665	945.98
2413.823	951.47
2416.981	952.75
2420.139	898.37
2423.296	970.21
2426.453	1031.07
2429.61	982.11
2432.767	1050.78
2435.923	1083.28
2439.079	1045
2442.235	1069.78
2445.391	1094.87
2448.546	1082.65
2451.701	1148.35
2454.855	1223.81
2458.009	1091.27
2461.163	1116
2464.317	1111.83
2467.471	1092.97
2470.624	1127.49
2473.777	1101.84
2476.929	1065.1
2480.082	1140.27
2483.234	1197.45
2486.385	1217.14
2489.537	1244.66
2492.688	1367.76
2495.839	1331.83
2498.989	1386.82
2502.14	1387.15
2505.29	1326.19
2508.439	1489.01
2511.589	1530.83
2514.738	1487.07
2517.887	1472.94
2521.035	1362.42
2524.183	1349.57
2527.331	1339.07
2530.479	1317.03
2533.627	1343.41
