Data from N_2_div_oh_2n_065_Splice17_14.txt Node
Date: Sat Feb 29 14:04:01 EST 2020
User: sa697716
Spectrometer: FLMS03696
Trigger mode: 0
Integration Time (sec): 3.180400E-1
Scans to average: 20
Electric dark correction enabled: true
Nonlinearity correction enabled: true
Boxcar width: 5
XAxis mode: Wavelengths
Number of Pixels in Spectrum: 2048
>>>>>Begin Spectral Data<<<<<
187.83	57.99
188.298	62.86
188.766	60.04
189.233	46.4
189.701	65.12
190.169	71.08
190.636	77.33
191.104	76.14
191.571	136.75
192.039	255.94
192.506	-113.01
192.974	1903.51
193.441	-241.23
193.908	87.69
194.375	23.07
194.842	140.79
195.31	127.1
195.777	176.31
196.244	53.96
196.711	34.19
197.177	28.73
197.644	27.26
198.111	26.71
198.578	27.23
199.045	27.04
199.511	28.07
199.978	28.13
200.445	27.9
200.911	28.04
201.378	28.58
201.844	28.57
202.31	29.54
202.777	29.8
203.243	30.48
203.709	30.76
204.176	30.65
204.642	30.73
205.108	30.94
205.574	31.41
206.04	31.17
206.506	31.05
206.972	30.99
207.438	30.34
207.903	30.37
208.369	29.91
208.835	29.96
209.301	30.01
209.766	29.49
210.232	29.49
210.697	29.1
211.163	29.07
211.628	28.77
212.094	28.62
212.559	28.73
213.024	28.56
213.49	28.28
213.955	27.82
214.42	27.75
214.885	27.39
215.35	26.76
215.815	26.06
216.28	25.4
216.745	24.59
217.21	23.95
217.675	23.2
218.14	22.46
218.604	21.79
219.069	21.19
219.534	20.62
219.998	20.19
220.463	19.81
220.927	19.51
221.392	19.24
221.856	18.99
222.32	18.77
222.785	18.52
223.249	18.26
223.713	18.08
224.177	17.89
224.642	17.7
225.106	17.47
225.57	17.25
226.034	17.04
226.497	16.84
226.961	16.62
227.425	16.37
227.889	16.18
228.353	15.99
228.816	15.81
229.28	15.59
229.744	15.41
230.207	15.25
230.671	15.07
231.134	14.9
231.597	14.71
232.061	14.55
232.524	14.4
232.987	14.23
233.45	14.06
233.914	13.89
234.377	13.73
234.84	13.57
235.303	13.43
235.766	13.3
236.229	13.16
236.691	13.02
237.154	12.89
237.617	12.75
238.08	12.65
238.542	12.55
239.005	12.41
239.468	12.29
239.93	12.18
240.393	12.06
240.855	11.92
241.317	11.81
241.78	11.71
242.242	11.6
242.704	11.49
243.166	11.37
243.629	11.25
244.091	11.15
244.553	11.06
245.015	10.95
245.477	10.85
245.939	10.75
246.4	10.64
246.862	10.55
247.324	10.47
247.786	10.39
248.247	10.29
248.709	10.19
249.17	10.1
249.632	10.02
250.093	9.92
250.555	9.85
251.016	9.78
251.477	9.69
251.939	9.63
252.4	9.55
252.861	9.47
253.322	9.42
253.783	9.38
254.244	9.32
254.705	9.27
255.166	9.23
255.627	9.17
256.088	9.11
256.549	9.06
257.009	8.99
257.47	8.95
257.931	8.9
258.391	8.85
258.852	8.79
259.312	8.75
259.773	8.7
260.233	8.64
260.694	8.6
261.154	8.55
261.614	8.5
262.074	8.47
262.534	8.41
262.994	8.37
263.455	8.33
263.915	8.29
264.374	8.24
264.834	8.21
265.294	8.18
265.754	8.14
266.214	8.11
266.673	8.08
267.133	8.05
267.593	8.02
268.052	7.99
268.512	7.97
268.971	7.95
269.431	7.93
269.89	7.9
270.349	7.88
270.809	7.86
271.268	7.84
271.727	7.81
272.186	7.79
272.645	7.76
273.104	7.72
273.563	7.7
274.022	7.67
274.481	7.63
274.94	7.6
275.399	7.57
275.857	7.53
276.316	7.49
276.775	7.46
277.233	7.43
277.692	7.4
278.15	7.38
278.609	7.34
279.067	7.3
279.525	7.27
279.984	7.24
280.442	7.22
280.9	7.2
281.358	7.18
281.816	7.16
282.274	7.13
282.732	7.11
283.19	7.09
283.648	7.08
284.106	7.06
284.564	7.05
285.021	7.04
285.479	7.03
285.937	7.01
286.394	6.99
286.852	6.98
287.309	6.96
287.767	6.94
288.224	6.92
288.682	6.89
289.139	6.87
289.596	6.83
290.053	6.8
290.511	6.75
290.968	6.72
291.425	6.69
291.882	6.66
292.339	6.62
292.796	6.59
293.252	6.56
293.709	6.53
294.166	6.5
294.623	6.48
295.079	6.46
295.536	6.45
295.992	6.42
296.449	6.41
296.905	6.39
297.362	6.37
297.818	6.36
298.274	6.34
298.731	6.33
299.187	6.32
299.643	6.31
300.099	6.29
300.555	6.26
301.011	6.26
301.467	6.24
301.923	6.23
302.379	6.22
302.835	6.21
303.291	6.19
303.746	6.17
304.202	6.15
304.658	6.13
305.113	6.12
305.569	6.12
306.024	6.1
306.479	6.08
306.935	6.07
307.39	6.05
307.845	6.03
308.301	6.02
308.756	6.02
309.211	6.02
309.666	6.01
310.121	5.99
310.576	5.98
311.031	5.98
311.486	5.97
311.94	5.96
312.395	5.96
312.85	5.97
313.305	5.96
313.759	5.95
314.214	5.95
314.668	5.94
315.123	5.94
315.577	5.93
316.032	5.91
316.486	5.91
316.94	5.9
317.394	5.89
317.849	5.87
318.303	5.86
318.757	5.84
319.211	5.83
319.665	5.81
320.119	5.79
320.572	5.79
321.026	5.78
321.48	5.77
321.934	5.76
322.387	5.73
322.841	5.72
323.295	5.7
323.748	5.69
324.202	5.67
324.655	5.66
325.108	5.64
325.562	5.61
326.015	5.6
326.468	5.57
326.921	5.56
327.374	5.56
327.827	5.54
328.28	5.53
328.733	5.52
329.186	5.52
329.639	5.51
330.092	5.51
330.545	5.51
330.997	5.51
331.45	5.5
331.903	5.5
332.355	5.49
332.808	5.48
333.26	5.47
333.713	5.48
334.165	5.47
334.617	5.46
335.069	5.46
335.522	5.47
335.974	5.47
336.426	5.48
336.878	5.48
337.33	5.48
337.782	5.48
338.234	5.48
338.686	5.47
339.137	5.47
339.589	5.46
340.041	5.45
340.493	5.42
340.944	5.4
341.396	5.39
341.847	5.37
342.299	5.34
342.75	5.33
343.201	5.3
343.653	5.28
344.104	5.26
344.555	5.25
345.006	5.23
345.457	5.21
345.908	5.2
346.359	5.19
346.81	5.19
347.261	5.18
347.712	5.18
348.163	5.17
348.613	5.16
349.064	5.14
349.515	5.13
349.965	5.13
350.416	5.12
350.866	5.12
351.317	5.1
351.767	5.08
352.217	5.07
352.668	5.06
353.118	5.06
353.568	5.06
354.018	5.08
354.468	5.07
354.918	5.07
355.368	5.08
355.818	5.07
356.268	5.09
356.718	5.1
357.168	5.09
357.617	5.09
358.067	5.09
358.517	5.09
358.966	5.09
359.416	5.09
359.865	5.09
360.315	5.08
360.764	5.08
361.213	5.07
361.663	5.07
362.112	5.09
362.561	5.09
363.01	5.1
363.459	5.09
363.908	5.09
364.357	5.09
364.806	5.09
365.255	5.1
365.703	5.1
366.152	5.09
366.601	5.09
367.05	5.09
367.498	5.09
367.947	5.09
368.395	5.09
368.844	5.09
369.292	5.09
369.74	5.09
370.189	5.09
370.637	5.09
371.085	5.1
371.533	5.12
371.981	5.11
372.429	5.12
372.877	5.13
373.325	5.14
373.773	5.15
374.221	5.17
374.669	5.18
375.116	5.18
375.564	5.19
376.012	5.21
376.459	5.23
376.907	5.25
377.354	5.27
377.801	5.29
378.249	5.32
378.696	5.36
379.143	5.38
379.591	5.41
380.038	5.46
380.485	5.51
380.932	5.56
381.379	5.58
381.826	5.62
382.273	5.66
382.72	5.71
383.166	5.76
383.613	5.8
384.06	5.85
384.506	5.88
384.953	5.91
385.4	5.94
385.846	5.97
386.292	6.04
386.739	6.09
387.185	6.15
387.631	6.2
388.078	6.25
388.524	6.27
388.97	6.32
389.416	6.37
389.862	6.44
390.308	6.5
390.754	6.56
391.2	6.61
391.645	6.66
392.091	6.7
392.537	6.76
392.983	6.83
393.428	6.91
393.874	6.98
394.319	7.04
394.765	7.08
395.21	7.12
395.655	7.17
396.101	7.22
396.546	7.27
396.991	7.3
397.436	7.32
397.881	7.35
398.326	7.38
398.771	7.41
399.216	7.44
399.661	7.48
400.106	7.52
400.551	7.53
400.995	7.54
401.44	7.53
401.885	7.54
402.329	7.56
402.774	7.56
403.218	7.57
403.663	7.57
404.107	7.58
404.551	7.59
404.995	7.59
405.44	7.59
405.884	7.6
406.328	7.61
406.772	7.64
407.216	7.64
407.66	7.64
408.104	7.65
408.547	7.67
408.991	7.65
409.435	7.64
409.879	7.63
410.322	7.65
410.766	7.65
411.209	7.66
411.653	7.66
412.096	7.69
412.54	7.69
412.983	7.7
413.426	7.71
413.869	7.73
414.312	7.75
414.756	7.79
415.199	7.8
415.642	7.82
416.085	7.83
416.527	7.83
416.97	7.84
417.413	7.84
417.856	7.81
418.298	7.79
418.741	7.78
419.184	7.77
419.626	7.76
420.069	7.76
420.511	7.74
420.953	7.74
421.396	7.73
421.838	7.74
422.28	7.77
422.722	7.8
423.164	7.81
423.606	7.81
424.048	7.81
424.49	7.82
424.932	7.82
425.374	7.81
425.816	7.8
426.258	7.78
426.699	7.73
427.141	7.68
427.582	7.66
428.024	7.67
428.465	7.68
428.907	7.69
429.348	7.67
429.789	7.66
430.231	7.65
430.672	7.65
431.113	7.67
431.554	7.7
431.995	7.73
432.436	7.77
432.877	7.76
433.318	7.74
433.759	7.74
434.2	7.77
434.64	7.8
435.081	7.83
435.522	7.88
435.962	7.9
436.403	7.94
436.843	7.97
437.284	7.97
437.724	8.01
438.164	8.05
438.604	8.11
439.045	8.12
439.485	8.15
439.925	8.18
440.365	8.18
440.805	8.21
441.245	8.2
441.685	8.23
442.125	8.27
442.564	8.32
443.004	8.37
443.444	8.4
443.883	8.46
444.323	8.5
444.762	8.57
445.202	8.65
445.641	8.72
446.081	8.8
446.52	8.84
446.959	8.92
447.398	8.98
447.837	9.06
448.276	9.09
448.716	9.14
449.154	9.22
449.593	9.25
450.032	9.29
450.471	9.33
450.91	9.36
451.349	9.4
451.787	9.43
452.226	9.44
452.664	9.43
453.103	9.47
453.541	9.49
453.98	9.49
454.418	9.5
454.856	9.51
455.295	9.51
455.733	9.52
456.171	9.52
456.609	9.51
457.047	9.52
457.485	9.55
457.923	9.54
458.361	9.54
458.798	9.55
459.236	9.56
459.674	9.57
460.111	9.59
460.549	9.59
460.987	9.61
461.424	9.62
461.862	9.62
462.299	9.6
462.736	9.61
463.173	9.62
463.611	9.62
464.048	9.64
464.485	9.63
464.922	9.61
465.359	9.62
465.796	9.63
466.233	9.63
466.67	9.66
467.106	9.66
467.543	9.68
467.98	9.68
468.416	9.69
468.853	9.67
469.29	9.7
469.726	9.72
470.162	9.71
470.599	9.72
471.035	9.75
471.471	9.75
471.907	9.76
472.344	9.74
472.78	9.75
473.216	9.74
473.652	9.76
474.088	9.79
474.523	9.81
474.959	9.82
475.395	9.82
475.831	9.81
476.266	9.81
476.702	9.82
477.138	9.83
477.573	9.83
478.008	9.83
478.444	9.83
478.879	9.81
479.314	9.79
479.75	9.8
480.185	9.81
480.62	9.82
481.055	9.81
481.49	9.81
481.925	9.8
482.36	9.81
482.795	9.8
483.229	9.82
483.664	9.85
484.099	9.86
484.534	9.87
484.968	9.88
485.403	9.89
485.837	9.92
486.271	9.95
486.706	9.96
487.14	9.99
487.574	10.03
488.009	10.07
488.443	10.08
488.877	10.11
489.311	10.17
489.745	10.22
490.179	10.28
490.613	10.35
491.046	10.42
491.48	10.5
491.914	10.57
492.348	10.65
492.781	10.73
493.215	10.83
493.648	10.94
494.082	11.05
494.515	11.16
494.948	11.26
495.382	11.37
495.815	11.51
496.248	11.65
496.681	11.79
497.114	11.94
497.547	12.08
497.98	12.25
498.413	12.41
498.846	12.57
499.279	12.74
499.711	12.92
500.144	13.11
500.577	13.3
501.009	13.5
501.442	13.72
501.874	13.95
502.306	14.19
502.739	14.44
503.171	14.69
503.603	14.95
504.036	15.23
504.468	15.51
504.9	15.82
505.332	16.11
505.764	16.42
506.196	16.72
506.627	17.04
507.059	17.36
507.491	17.7
507.923	18.04
508.354	18.4
508.786	18.76
509.217	19.13
509.649	19.51
510.08	19.91
510.512	20.3
510.943	20.7
511.374	21.1
511.805	21.51
512.237	21.9
512.668	22.3
513.099	22.73
513.53	23.17
513.961	23.6
514.391	24.02
514.822	24.43
515.253	24.84
515.684	25.26
516.114	25.72
516.545	26.17
516.975	26.62
517.406	27.06
517.836	27.48
518.267	27.91
518.697	28.35
519.127	28.79
519.558	29.22
519.988	29.63
520.418	30.05
520.848	30.42
521.278	30.81
521.708	31.1
522.138	31.47
522.567	31.86
522.997	32.21
523.427	32.54
523.857	32.87
524.286	33.2
524.716	33.54
525.145	33.86
525.575	34.18
526.004	34.49
526.433	34.88
526.863	35.17
527.292	35.43
527.721	35.68
528.15	35.92
528.579	36.16
529.008	36.41
529.437	36.64
529.866	36.84
530.295	37.06
530.724	37.26
531.152	37.45
531.581	37.64
532.01	37.84
532.438	38.03
532.867	38.2
533.295	38.35
533.723	38.5
534.152	38.65
534.58	38.8
535.008	38.9
535.436	39.03
535.865	39.12
536.293	39.23
536.721	39.33
537.149	39.42
537.576	39.49
538.004	39.58
538.432	39.65
538.86	39.72
539.287	39.79
539.715	39.88
540.143	39.93
540.57	40
540.998	40.06
541.425	40.12
541.852	40.15
542.28	40.22
542.707	40.29
543.134	40.35
543.561	40.39
543.988	40.45
544.415	40.47
544.842	40.52
545.269	40.57
545.696	40.6
546.123	40.64
546.549	40.71
546.976	40.74
547.403	40.76
547.829	40.77
548.256	40.83
548.682	40.83
549.108	40.87
549.535	40.89
549.961	40.89
550.387	40.91
550.813	40.9
551.24	40.9
551.666	40.93
552.092	40.94
552.518	40.95
552.943	40.95
553.369	40.96
553.795	40.95
554.221	40.93
554.646	40.94
555.072	40.94
555.498	40.91
555.923	40.88
556.349	40.81
556.774	40.76
557.199	40.71
557.625	40.66
558.05	40.6
558.475	40.53
558.9	40.48
559.325	40.39
559.75	40.3
560.175	40.24
560.6	40.12
561.025	40.01
561.449	39.9
561.874	39.79
562.299	39.66
562.723	39.55
563.148	39.43
563.572	39.29
563.997	39.14
564.421	39
564.846	38.84
565.27	38.73
565.694	38.59
566.118	38.45
566.542	38.32
566.966	38.18
567.39	37.99
567.814	37.81
568.238	37.63
568.662	37.46
569.086	37.29
569.509	37.11
569.933	36.91
570.357	36.72
570.78	36.51
571.204	36.29
571.627	36.07
572.05	35.89
572.474	35.73
572.897	35.54
573.32	35.37
573.743	35.19
574.166	35.03
574.589	34.86
575.012	34.71
575.435	34.57
575.858	34.44
576.281	34.3
576.704	34.16
577.126	34.01
577.549	33.9
577.972	33.78
578.394	33.64
578.817	33.51
579.239	33.39
579.661	33.28
580.084	33.18
580.506	33.08
580.928	32.96
581.35	32.87
581.772	32.8
582.194	32.68
582.616	32.59
583.038	32.49
583.46	32.39
583.882	32.28
584.303	32.2
584.725	32.12
585.147	32.02
585.568	31.93
585.99	31.85
586.411	31.76
586.833	31.68
587.254	31.6
587.675	31.54
588.096	31.49
588.518	31.42
588.939	31.36
589.36	31.29
589.781	31.22
590.202	31.17
590.623	31.09
591.043	31.02
591.464	30.96
591.885	30.9
592.305	30.86
592.726	30.79
593.147	30.77
593.567	30.7
593.987	30.66
594.408	30.62
594.828	30.55
595.248	30.51
595.669	30.5
596.089	30.46
596.509	30.41
596.929	30.34
597.349	30.28
597.769	30.21
598.189	30.17
598.608	30.1
599.028	30.04
599.448	30.01
599.867	29.94
600.287	29.83
600.706	29.78
601.126	29.72
601.545	29.66
601.965	29.61
602.384	29.54
602.803	29.44
603.222	29.35
603.641	29.28
604.061	29.17
604.48	29.1
604.898	29.01
605.317	28.89
605.736	28.78
606.155	28.65
606.574	28.53
606.992	28.41
607.411	28.31
607.829	28.18
608.248	28.05
608.666	27.93
609.085	27.78
609.503	27.66
609.921	27.57
610.339	27.46
610.758	27.36
611.176	27.24
611.594	27.11
612.012	26.97
612.43	26.89
612.847	26.77
613.265	26.67
613.683	26.55
614.101	26.43
614.518	26.31
614.936	26.18
615.353	26.07
615.771	25.96
616.188	25.87
616.606	25.78
617.023	25.67
617.44	25.59
617.857	25.49
618.274	25.4
618.691	25.33
619.108	25.24
619.525	25.19
619.942	25.14
620.359	25.09
620.776	25.04
621.192	24.99
621.609	24.94
622.026	24.88
622.442	24.85
622.859	24.83
623.275	24.81
623.691	24.8
624.108	24.78
624.524	24.75
624.94	24.71
625.356	24.7
625.772	24.7
626.188	24.72
626.604	24.72
627.02	24.71
627.436	24.69
627.852	24.65
628.268	24.61
628.683	24.58
629.099	24.57
629.514	24.55
629.93	24.51
630.345	24.44
630.761	24.36
631.176	24.32
631.591	24.25
632.007	24.17
632.422	24.11
632.837	24.03
633.252	23.94
633.667	23.82
634.082	23.7
634.497	23.59
634.911	23.48
635.326	23.34
635.741	23.19
636.155	23.03
636.57	22.88
636.984	22.68
637.399	22.48
637.813	22.28
638.228	22.09
638.642	21.89
639.056	21.67
639.47	21.45
639.884	21.22
640.298	20.99
640.712	20.77
641.126	20.53
641.54	20.31
641.954	20.11
642.368	19.89
642.781	19.64
643.195	19.41
643.609	19.18
644.022	18.96
644.436	18.74
644.849	18.53
645.262	18.32
645.676	18.13
646.089	17.93
646.502	17.73
646.915	17.56
647.328	17.42
647.741	17.27
648.154	17.14
648.567	17.02
648.98	16.92
649.393	16.81
649.805	16.7
650.218	16.58
650.631	16.5
651.043	16.4
651.456	16.31
651.868	16.21
652.28	16.13
652.693	16.02
653.105	15.91
653.517	15.79
653.929	15.68
654.341	15.59
654.753	15.46
655.165	15.33
655.577	15.18
655.989	15.01
656.401	14.84
656.813	14.66
657.224	14.49
657.636	14.32
658.047	14.15
658.459	13.95
658.87	13.75
659.282	13.57
659.693	13.38
660.104	13.2
660.515	12.99
660.926	12.81
661.338	12.62
661.749	12.41
662.159	12.22
662.57	12.03
662.981	11.86
663.392	11.67
663.803	11.5
664.213	11.32
664.624	11.17
665.035	11.02
665.445	10.87
665.855	10.73
666.266	10.62
666.676	10.5
667.086	10.39
667.497	10.28
667.907	10.17
668.317	10.07
668.727	9.99
669.137	9.92
669.547	9.86
669.956	9.79
670.366	9.77
670.776	9.73
671.186	9.7
671.595	9.67
672.005	9.64
672.414	9.64
672.824	9.64
673.233	9.63
673.642	9.62
674.052	9.62
674.461	9.63
674.87	9.64
675.279	9.65
675.688	9.66
676.097	9.7
676.506	9.75
676.915	9.8
677.323	9.85
677.732	9.92
678.141	10
678.549	10.1
678.958	10.22
679.366	10.33
679.775	10.47
680.183	10.64
680.592	10.83
681	11.02
681.408	11.25
681.816	11.5
682.224	11.78
682.632	12.11
683.04	12.44
683.448	12.81
683.856	13.24
684.264	13.71
684.671	14.21
685.079	14.74
685.487	15.32
685.894	15.94
686.302	16.59
686.709	17.27
687.116	17.98
687.524	18.77
687.931	19.53
688.338	20.34
688.745	21.17
689.152	22.02
689.559	22.9
689.966	23.78
690.373	24.68
690.78	25.59
691.187	26.51
691.593	27.42
692	28.31
692.407	29.21
692.813	30.12
693.22	31.01
693.626	31.86
694.032	32.72
694.439	33.61
694.845	34.46
695.251	35.26
695.657	36.03
696.063	36.84
696.469	37.61
696.875	38.32
697.281	39.03
697.687	39.76
698.093	40.47
698.498	41.17
698.904	41.78
699.31	42.4
699.715	43.05
700.12	43.66
700.526	44.25
700.931	44.83
701.337	45.43
701.742	45.95
702.147	46.46
702.552	46.94
702.957	47.41
703.362	47.89
703.767	48.36
704.172	48.81
704.577	49.25
704.981	49.66
705.386	50.07
705.791	50.46
706.195	50.87
706.6	51.23
707.004	51.6
707.408	51.95
707.813	52.3
708.217	52.62
708.621	52.91
709.025	53.24
709.43	53.53
709.834	53.82
710.237	54.1
710.641	54.37
711.045	54.62
711.449	54.9
711.853	55.15
712.256	55.42
712.66	55.68
713.064	55.95
713.467	56.16
713.87	56.39
714.274	56.62
714.677	56.82
715.08	57.05
715.484	57.31
715.887	57.52
716.29	57.74
716.693	57.94
717.096	58.14
717.499	58.35
717.901	58.52
718.304	58.7
718.707	58.87
719.109	59.08
719.512	59.25
719.915	59.38
720.317	59.55
720.719	59.71
721.122	59.84
721.524	59.99
721.926	60.11
722.328	60.26
722.731	60.41
723.133	60.56
723.535	60.69
723.937	60.83
724.338	60.95
724.74	61.06
725.142	61.13
725.544	61.21
725.945	61.31
726.347	61.41
726.748	61.47
727.15	61.53
727.551	61.63
727.952	61.7
728.354	61.77
728.755	61.86
729.156	61.95
729.557	62.05
729.958	62.18
730.359	62.21
730.76	62.26
731.161	62.37
731.562	62.46
731.962	62.5
732.363	62.55
732.763	62.63
733.164	62.68
733.564	62.7
733.965	62.76
734.365	62.78
734.766	62.84
735.166	62.87
735.566	62.86
735.966	62.89
736.366	62.92
736.766	62.95
737.166	62.96
737.566	62.99
737.966	63.02
738.365	63.04
738.765	63.05
739.165	63.03
739.564	63.05
739.964	63.08
740.363	63.07
740.763	63.06
741.162	63.05
741.561	63.07
741.96	63.1
742.36	63.07
742.759	63.07
743.158	63.05
743.557	63.08
743.955	63.14
744.354	63.17
744.753	63.23
745.152	63.25
745.55	63.28
745.949	63.27
746.348	63.26
746.746	63.27
747.144	63.3
747.543	63.36
747.941	63.41
748.339	63.44
748.737	63.51
749.136	63.51
749.534	63.53
749.932	63.53
750.33	63.54
750.727	63.58
751.125	63.62
751.523	63.62
751.921	63.65
752.318	63.66
752.716	63.63
753.113	63.57
753.511	63.55
753.908	63.53
754.305	63.52
754.703	63.48
755.1	63.44
755.497	63.43
755.894	63.44
756.291	63.39
756.688	63.35
757.085	63.33
757.482	63.33
757.878	63.38
758.275	63.38
758.672	63.43
759.068	63.47
759.465	63.47
759.861	63.47
760.258	63.43
760.654	63.45
761.05	63.46
761.447	63.49
761.843	63.44
762.239	63.4
762.635	63.4
763.031	63.34
763.427	63.32
763.822	63.29
764.218	63.27
764.614	63.25
765.01	63.17
765.405	63.13
765.801	63.08
766.196	63.08
766.592	63.11
766.987	63.1
767.382	63.14
767.778	63.13
768.173	63.16
768.568	63.13
768.963	63.15
769.358	63.18
769.753	63.24
770.148	63.23
770.542	63.22
770.937	63.15
771.332	63.12
771.726	63.08
772.121	63.05
772.515	63.04
772.91	63.04
773.304	63.02
773.699	62.99
774.093	62.93
774.487	62.96
774.881	62.98
775.275	63.01
775.669	63.03
776.063	62.99
776.457	63
776.851	62.93
777.245	62.93
777.638	62.93
778.032	62.93
778.425	62.97
778.819	62.97
779.212	62.95
779.606	62.93
779.999	62.93
780.392	62.94
780.786	62.97
781.179	63.02
781.572	63.05
781.965	63.06
782.358	63.09
782.751	63.06
783.143	63.04
783.536	63.07
783.929	63.11
784.322	63.11
784.714	63.14
785.107	63.12
785.499	63.12
785.891	63.1
786.284	63.07
786.676	63.11
787.068	63.14
787.46	63.13
787.852	63.15
788.245	63.15
788.636	63.19
789.028	63.18
789.42	63.19
789.812	63.24
790.204	63.22
790.595	63.24
790.987	63.2
791.378	63.19
791.77	63.23
792.161	63.22
792.553	63.22
792.944	63.23
793.335	63.24
793.726	63.22
794.117	63.19
794.508	63.23
794.899	63.22
795.29	63.23
795.681	63.22
796.072	63.21
796.463	63.24
796.853	63.23
797.244	63.21
797.634	63.22
798.025	63.25
798.415	63.26
798.806	63.27
799.196	63.31
799.586	63.3
799.976	63.33
800.366	63.3
800.756	63.29
801.146	63.28
801.536	63.28
801.926	63.28
802.316	63.3
802.706	63.31
803.095	63.3
803.485	63.31
803.874	63.34
804.264	63.4
804.653	63.42
805.043	63.43
805.432	63.46
805.821	63.47
806.21	63.52
806.599	63.56
806.988	63.6
807.377	63.64
807.766	63.64
808.155	63.64
808.544	63.56
808.933	63.57
809.321	63.63
809.71	63.67
810.098	63.68
810.487	63.67
810.875	63.62
811.264	63.62
811.652	63.57
812.04	63.57
812.428	63.59
812.816	63.65
813.204	63.66
813.592	63.63
813.98	63.61
814.368	63.6
814.756	63.61
815.144	63.63
815.531	63.63
815.919	63.67
816.306	63.7
816.694	63.71
817.081	63.73
817.469	63.79
817.856	63.82
818.243	63.85
818.63	63.92
819.017	63.94
819.404	63.98
819.791	63.99
820.178	64
820.565	63.99
820.952	63.99
821.339	63.98
821.725	63.97
822.112	63.98
822.498	63.99
822.885	63.98
823.271	64.01
823.657	64
824.044	64.02
824.43	64.05
824.816	64.09
825.202	64.06
825.588	64.07
825.974	64.07
826.36	64.08
826.746	64.11
827.132	64.07
827.517	64.04
827.903	64.03
828.289	64.04
828.674	64.02
829.06	64.06
829.445	64.14
829.83	64.15
830.216	64.15
830.601	64.13
830.986	64.12
831.371	64.17
831.756	64.16
832.141	64.18
832.526	64.16
832.911	64.18
833.295	64.15
833.68	64.09
834.065	64.09
834.449	64.05
834.834	64.03
835.218	64.01
835.603	64
835.987	63.99
836.371	64.02
836.755	64.01
837.139	64.01
837.524	64.04
837.908	64.03
838.291	64.02
838.675	64.06
839.059	64.07
839.443	64.07
839.827	64.05
840.21	64.07
840.594	64.03
840.977	64.01
841.361	63.99
841.744	63.99
842.127	63.97
842.511	63.96
842.894	63.94
843.277	63.95
843.66	63.91
844.043	63.87
844.426	63.85
844.809	63.84
845.191	63.83
845.574	63.81
845.957	63.76
846.339	63.75
846.722	63.81
847.104	63.79
847.487	63.81
847.869	63.85
848.252	63.86
848.634	63.92
849.016	63.95
849.398	63.96
849.78	63.94
850.162	63.95
850.544	63.98
850.926	63.95
851.307	63.97
851.689	63.91
852.071	63.89
852.452	63.93
852.834	63.89
853.215	63.88
853.597	63.92
853.978	63.94
854.359	63.93
854.741	63.94
855.122	63.96
855.503	63.97
855.884	63.97
856.265	63.96
856.646	63.93
857.026	63.93
857.407	63.91
857.788	63.89
858.169	63.85
858.549	63.91
858.93	63.89
859.31	63.84
859.69	63.83
860.071	63.84
860.451	63.86
860.831	63.86
861.211	63.84
861.591	63.85
861.971	63.84
862.351	63.88
862.731	63.84
863.111	63.84
863.491	63.86
863.87	63.85
864.25	63.87
864.629	63.87
865.009	63.86
865.388	63.87
865.768	63.85
866.147	63.88
866.526	63.87
866.905	63.87
867.284	63.88
867.663	63.89
868.042	63.88
868.421	63.85
868.8	63.83
869.179	63.87
869.558	63.86
869.936	63.85
870.315	63.84
870.693	63.85
871.072	63.84
871.45	63.83
871.828	63.81
872.207	63.85
872.585	63.9
872.963	63.9
873.341	63.89
873.719	63.91
874.097	63.93
874.475	63.9
874.853	63.91
875.23	63.92
875.608	63.93
875.986	63.96
876.363	63.94
876.741	63.91
877.118	63.87
877.495	63.86
877.873	63.84
878.25	63.84
878.627	63.87
879.004	63.86
879.381	63.88
879.758	63.85
880.135	63.83
880.512	63.81
880.889	63.81
881.265	63.84
881.642	63.8
882.019	63.81
882.395	63.8
882.772	63.77
883.148	63.74
883.524	63.68
883.901	63.66
884.277	63.65
884.653	63.65
885.029	63.66
885.405	63.67
885.781	63.65
886.157	63.61
886.532	63.59
886.908	63.59
887.284	63.61
887.659	63.65
888.035	63.66
888.411	63.64
888.786	63.62
889.161	63.6
889.537	63.58
889.912	63.57
890.287	63.57
890.662	63.55
891.037	63.54
891.412	63.51
891.787	63.5
892.162	63.49
892.536	63.48
892.911	63.46
893.286	63.43
893.66	63.41
894.035	63.42
894.409	63.42
894.784	63.43
895.158	63.4
895.532	63.38
895.906	63.36
896.281	63.31
896.655	63.31
897.029	63.29
897.402	63.31
897.776	63.3
898.15	63.26
898.524	63.24
898.898	63.2
899.271	63.21
899.645	63.19
900.018	63.19
900.392	63.22
900.765	63.24
901.138	63.26
901.511	63.27
901.884	63.27
902.258	63.29
902.631	63.32
903.003	63.32
903.376	63.29
903.749	63.29
904.122	63.31
904.495	63.31
904.867	63.3
905.24	63.27
905.612	63.23
905.985	63.19
906.357	63.14
906.729	63.1
907.102	63.1
907.474	63.16
907.846	63.14
908.218	63.1
908.59	63.03
908.962	63.01
909.334	63.02
909.705	63.02
910.077	63.02
910.449	63.07
910.82	63.09
911.192	63.08
911.563	63.03
911.935	63.01
912.306	62.97
912.677	63
913.048	62.97
913.419	62.95
913.79	62.95
914.161	62.96
914.532	62.93
914.903	62.9
915.274	62.85
915.645	62.84
916.015	62.82
916.386	62.83
916.756	62.77
917.127	62.78
917.497	62.78
917.868	62.76
918.238	62.74
918.608	62.75
918.978	62.69
919.348	62.67
919.718	62.71
920.088	62.75
920.458	62.78
920.828	62.84
921.198	62.84
921.567	62.85
921.937	62.85
922.306	62.84
922.676	62.81
923.045	62.83
923.415	62.87
923.784	62.86
924.153	62.85
924.522	62.86
924.891	62.83
925.26	62.79
925.629	62.77
925.998	62.76
926.367	62.75
926.736	62.72
927.104	62.76
927.473	62.78
927.842	62.75
928.21	62.76
928.578	62.7
928.947	62.69
929.315	62.71
929.683	62.71
930.051	62.64
930.42	62.64
930.788	62.66
931.156	62.59
931.523	62.57
931.891	62.51
932.259	62.4
932.627	62.32
932.994	62.3
933.362	62.23
933.729	62.16
934.097	62.18
934.464	62.13
934.831	62.08
935.199	62.07
935.566	61.96
935.933	62.04
936.3	62.02
936.667	61.96
937.034	61.87
937.401	61.86
937.767	61.84
938.134	61.77
938.501	61.66
938.867	61.64
939.234	61.65
939.6	61.58
939.967	61.45
940.333	61.56
940.699	61.67
941.065	61.8
941.431	61.86
941.798	61.9
942.163	61.92
942.529	62.08
942.895	62.15
943.261	62.14
943.627	62.26
943.992	62.3
944.358	62.28
944.723	62.3
945.089	62.4
945.454	62.44
945.82	62.4
946.185	62.53
946.55	62.55
946.915	62.56
947.28	62.57
947.645	62.63
948.01	62.62
948.375	62.69
948.74	62.61
949.104	62.47
949.469	62.35
949.834	62.39
950.198	62.3
950.562	62.25
950.927	62.2
951.291	62.08
951.655	61.9
952.02	61.87
952.384	61.83
952.748	61.86
953.112	61.85
953.476	61.87
953.839	61.81
954.203	61.73
954.567	61.67
954.931	61.63
955.294	61.64
955.658	61.67
956.021	61.58
956.385	61.54
956.748	61.5
957.111	61.45
957.474	61.51
957.837	61.53
958.2	61.56
958.563	61.53
958.926	61.46
959.289	61.47
959.652	61.46
960.015	61.42
960.377	61.41
960.74	61.38
961.102	61.4
961.465	61.36
961.827	61.23
962.189	61.19
962.552	61.12
962.914	61.08
963.276	61.03
963.638	60.96
964	60.98
964.362	60.92
964.724	60.94
965.085	60.93
965.447	60.8
965.809	60.79
966.17	60.79
966.532	60.87
966.893	60.91
967.255	60.9
967.616	60.89
967.977	60.88
968.338	60.87
968.699	60.77
969.061	60.67
969.421	60.72
969.782	60.74
970.143	60.69
970.504	60.67
970.865	60.63
971.225	60.58
971.586	60.69
971.946	60.73
972.307	60.64
972.667	60.66
973.027	60.69
973.388	60.65
973.748	60.71
974.108	60.78
974.468	60.7
974.828	60.67
975.188	60.76
975.548	60.69
975.907	60.65
976.267	60.7
976.627	60.64
976.986	60.57
977.346	60.57
977.705	60.59
978.064	60.55
978.424	60.54
978.783	60.56
979.142	60.42
979.501	60.35
979.86	60.29
980.219	60.22
980.578	60.21
980.937	60.27
981.296	60.27
981.654	60.3
982.013	60.28
982.371	60.25
982.73	60.2
983.088	60.19
983.447	60.21
983.805	60.19
984.163	60.14
984.521	60.04
984.879	60.04
985.237	60.05
985.595	59.91
985.953	59.86
986.311	59.89
986.669	59.92
987.026	59.96
987.384	59.89
987.741	60
988.099	60.02
988.456	60.08
988.814	60.07
989.171	59.98
989.528	59.85
989.885	59.77
990.242	59.88
990.599	59.89
990.956	59.9
991.313	59.9
991.67	59.94
992.027	59.95
992.383	60
992.74	59.94
993.096	59.84
993.453	59.95
993.809	59.96
994.165	59.77
994.522	59.75
994.878	59.73
995.234	59.76
995.59	59.55
995.946	59.58
996.302	59.52
996.658	59.59
997.013	59.68
997.369	59.6
997.725	59.72
998.08	59.8
998.436	59.81
998.791	59.73
999.147	59.72
999.502	59.77
999.857	59.77
1000.212	59.75
1000.567	59.65
1000.922	59.63
1001.277	59.68
1001.632	59.67
1001.987	59.61
1002.342	59.49
1002.696	59.51
1003.051	59.4
1003.406	59.41
1003.76	59.29
1004.114	59.38
1004.469	59.38
1004.823	59.28
1005.177	59.29
1005.531	59.02
1005.885	59.02
1006.239	59.03
1006.593	58.96
1006.947	59.03
1007.301	58.87
1007.655	58.82
1008.008	58.55
1008.362	58.44
1008.715	58.36
1009.069	58.16
1009.422	58.23
1009.776	58.11
1010.129	57.83
1010.482	57.95
1010.835	57.96
1011.188	57.77
1011.541	57.65
1011.894	57.67
1012.247	57.65
1012.6	57.81
1012.952	57.89
1013.305	57.92
1013.657	57.93
1014.01	58.42
1014.362	58.32
1014.715	58.08
1015.067	58.27
1015.419	58.41
1015.771	58.58
1016.123	58.57
1016.475	58.45
1016.827	58.51
1017.179	58.48
1017.531	58.59
1017.883	58.48
1018.234	58.47
1018.586	58.49
1018.938	58.45
1019.289	58.37
1019.64	58.56
1019.992	58.66
1020.343	58.71
1020.694	58.45
1021.045	58.38
1021.396	57.93
1021.747	57.58
1022.098	57.36
1022.449	57.46
1022.8	57.45
1023.151	57.56
1023.501	57.12
1023.852	57.15
1024.202	57.19
1024.553	57.09
1024.903	57.18
1025.253	57.62
1025.604	57.66
1025.954	57.57
1026.304	57.61
1026.654	57.19
1027.004	57.05
1027.354	56.97
1027.703	56.62
1028.053	56.27
1028.403	56.22
1028.753	56.09
1029.102	55.98
1029.452	56.21
1029.801	56.6
1030.15	56.47
1030.499	56.96
897.758	858.93
901.051	869
904.343	876.25
907.636	865.53
910.928	847.65
914.22	863.46
917.511	847.15
920.803	809.67
924.094	771.43
927.384	779.25
930.675	756.29
933.965	748.65
937.255	749.13
940.544	717.79
943.834	679.94
947.123	671.29
950.411	633.8
953.7	620.07
956.988	602.87
960.276	576.52
963.563	567.46
966.851	536.1
970.138	525.98
973.424	487.72
976.711	480.57
979.997	468.14
983.283	457.56
986.568	442.43
989.853	428.47
993.138	411.9
996.423	409.65
999.708	396.41
1002.992	398.02
1006.275	386.81
1009.559	385.51
1012.842	374.26
1016.125	358.85
1019.408	352.94
1022.69	350.18
1025.972	347.96
1029.254	339.11
1032.536	331.68
1035.817	321.58
1039.098	315.71
1042.379	308.83
1045.659	303.26
1048.939	300.81
1052.219	298.83
1055.498	291.86
1058.778	285.85
1062.057	281.22
1065.335	279.55
1068.614	274.68
1071.892	271.44
1075.17	265.91
1078.447	262.84
1081.724	260.6
1085.001	255.76
1088.278	254.08
1091.554	253.63
1094.83	252.94
1098.106	248.11
1101.382	247.1
1104.657	246
1107.932	245.34
1111.206	244.09
1114.481	241.43
1117.755	239.27
1121.029	238.54
1124.302	234.62
1127.575	230.03
1130.848	229
1134.121	225.72
1137.393	224.78
1140.665	223.08
1143.937	220.51
1147.208	217.58
1150.48	215.16
1153.75	214.32
1157.021	211.67
1160.291	211.05
1163.561	211.81
1166.831	208.98
1170.101	209.96
1173.37	207.17
1176.639	205.2
1179.907	205.28
1183.176	204.9
1186.444	205.45
1189.711	204.18
1192.979	206.07
1196.246	207.09
1199.513	205.18
1202.78	206.39
1206.046	205.81
1209.312	207.93
1212.578	209.16
1215.843	211.62
1219.108	213.27
1222.373	216.15
1225.638	219.83
1228.902	225.33
1232.166	230.77
1235.43	235.95
1238.693	241.65
1241.956	247.73
1245.219	254.53
1248.482	255.33
1251.744	254.87
1255.006	254.23
1258.268	249.39
1261.529	246.82
1264.79	239.73
1268.051	235.1
1271.312	231.4
1274.572	227.47
1277.832	220.42
1281.092	217.13
1284.351	213.62
1287.61	213.22
1290.869	212.36
1294.128	210.99
1297.386	209.75
1300.644	208.59
1303.902	207.97
1307.159	207.08
1310.416	208.12
1313.673	212.49
1316.93	213.56
1320.186	216.45
1323.442	219.12
1326.697	224.16
1329.953	226.57
1333.208	233.74
1336.463	243.93
1339.717	248
1342.972	260.97
1346.226	267.83
1349.479	269.67
1352.733	281.45
1355.986	288.24
1359.238	294.88
1362.491	297.92
1365.743	308.7
1368.995	310.81
1372.247	308.22
1375.498	307.85
1378.749	317.18
1382	315.82
1385.251	316.34
1388.501	315.87
1391.751	320.65
1395	318.1
1398.25	320.37
1401.499	318.69
1404.748	319.22
1407.996	313.66
1411.244	314.24
1414.492	308.05
1417.74	301.24
1420.987	293.27
1424.234	287.56
1427.481	275.72
1430.728	269.99
1433.974	259.77
1437.22	251.07
1440.465	243.24
1443.711	235.85
1446.956	229.43
1450.201	220.52
1453.445	211.1
1456.689	204.37
1459.933	197.77
1463.177	190.45
1466.42	185.64
1469.663	180.4
1472.906	175.34
1476.148	169.98
1479.391	166.51
1482.633	163.64
1485.874	160.45
1489.115	158.24
1492.356	156.3
1495.597	154.33
1498.838	153.07
1502.078	151.34
1505.318	150.83
1508.557	150.26
1511.797	148.62
1515.036	147.98
1518.274	146.88
1521.513	145.37
1524.751	145.06
1527.989	145.78
1531.227	144.79
1534.464	144.39
1537.701	143.11
1540.938	142.48
1544.174	142.19
1547.41	141.81
1550.646	141.58
1553.882	141.3
1557.117	140.42
1560.352	139.69
1563.587	138.57
1566.821	138.5
1570.055	137.29
1573.289	137.39
1576.523	137.65
1579.756	136.74
1582.989	137.47
1586.222	136.24
1589.454	135.47
1592.686	135.98
1595.918	135.72
1599.15	134.91
1602.381	135.67
1605.612	135.92
1608.843	135.73
1612.073	135.62
1615.303	136
1618.533	135.22
1621.762	136.37
1624.992	136.95
1628.221	136.45
1631.449	137.1
1634.678	136.89
1637.906	136.52
1641.134	136.81
1644.361	137.09
1647.588	137.16
1650.815	136.99
1654.042	137.27
1657.269	136.57
1660.495	137.23
1663.72	136.55
1666.946	137.25
1670.171	138.25
1673.396	138.5
1676.621	139.15
1679.845	138.75
1683.069	138.43
1686.293	138.38
1689.517	138.63
1692.74	139.15
1695.963	138.89
1699.185	140.86
1702.408	139.5
1705.63	139.81
1708.852	140.4
1712.073	139.7
1715.294	140.01
1718.515	140.39
1721.736	140.85
1724.956	141.12
1728.176	140.75
1731.396	141.99
1734.616	142.07
1737.835	143.03
1741.054	142.74
1744.272	142.15
1747.491	143.01
1750.709	143.67
1753.927	144.59
1757.144	143.92
1760.361	144.61
1763.578	145.62
1766.795	145.65
1770.011	145.56
1773.227	146.22
1776.443	147.42
1779.658	148.78
1782.874	149.12
1786.089	149.58
1789.303	149.62
1792.518	152.16
1795.732	152.72
1798.945	154.46
1802.159	154.06
1805.372	156.34
1808.585	157.29
1811.797	158.61
1815.01	159.1
1818.222	160.48
1821.434	161.17
1824.645	162.77
1827.856	164.76
1831.067	165.93
1834.278	166.82
1837.488	169.13
1840.698	170.39
1843.908	170.62
1847.117	172.6
1850.326	174.8
1853.535	175.21
1856.744	178.17
1859.952	180.02
1863.16	179.91
1866.368	179.21
1869.575	181.05
1872.782	180.17
1875.989	179.73
1879.196	178.72
1882.402	177.47
1885.608	177.92
1888.814	178.18
1892.019	178.91
1895.224	176.1
1898.429	176.67
1901.634	178.29
1904.838	178.77
1908.042	180.74
1911.246	178.78
1914.449	181.16
1917.652	180.43
1920.855	180.86
1924.058	179.95
1927.26	179.18
1930.462	180.68
1933.664	180.28
1936.865	179.69
1940.066	177.2
1943.267	176
1946.467	178.74
1949.668	178.42
1952.868	178.72
1956.067	177.91
1959.267	178.57
1962.466	179.58
1965.665	181.11
1968.863	182.77
1972.061	183.78
1975.259	188.21
1978.457	189.17
1981.654	189.78
1984.852	191.95
1988.048	194.84
1991.245	197.25
1994.441	202.58
1997.637	206.49
2000.833	209.74
2004.028	210.62
2007.223	219.12
2010.418	222.02
2013.613	233.16
2016.807	239.91
2020.001	243.85
2023.194	249.76
2026.388	259.07
2029.581	270.78
2032.774	279.23
2035.966	288.59
2039.158	297.85
2042.35	300.72
2045.542	306.52
2048.733	317.73
2051.924	322
2055.115	328.13
2058.306	331.53
2061.496	338.79
2064.686	339.72
2067.875	334.56
2071.065	337.83
2074.254	340.41
2077.442	348.95
2080.631	353.11
2083.819	352.18
2087.007	360.89
2090.195	366.05
2093.382	366.74
2096.569	365.7
2099.756	370.27
2102.942	381.61
2106.128	390.19
2109.314	390.89
2112.5	391.69
2115.685	390.94
2118.87	391.6
2122.055	390.49
2125.239	399.99
2128.424	409.53
2131.608	408.53
2134.791	410.17
2137.974	410.09
2141.157	410.91
2144.34	415.41
2147.523	421.78
2150.705	430.75
2153.887	428.84
2157.068	433.65
2160.25	434.75
2163.431	434.54
2166.611	440.64
2169.792	447.19
2172.972	454.68
2176.152	454.66
2179.331	465.6
2182.511	466.08
2185.69	470.35
2188.868	489.72
2192.047	500.33
2195.225	507.15
2198.403	515.24
2201.58	511.61
2204.758	529.25
2207.935	534.13
2211.111	548.14
2214.288	548.4
2217.464	555.83
2220.64	563.48
2223.815	564.57
2226.991	556.3
2230.166	562.27
2233.34	577.28
2236.515	592.58
2239.689	583.49
2242.863	591.82
2246.036	585.3
2249.209	604.04
2252.382	603.52
2255.555	621.41
2258.727	621.69
2261.9	644.64
2265.071	652.72
2268.243	643.41
2271.414	664.41
2274.585	679
2277.756	682.32
2280.926	705.68
2284.096	704.53
2287.266	708.56
2290.436	693.61
2293.605	709.28
2296.774	733.61
2299.942	734.88
2303.111	762.09
2306.279	776.54
2309.447	778.26
2312.614	779.05
2315.781	801.48
2318.948	809.06
2322.115	824.43
2325.281	867.46
2328.447	867.5
2331.613	868.42
2334.779	882.41
2337.944	892.03
2341.109	909.3
2344.274	920.58
2347.438	946.25
2350.602	961.12
2353.766	1026.73
2356.929	1028.27
2360.092	1047.12
2363.255	1046.64
2366.418	1062.64
2369.58	1089.49
2372.742	1086.89
2375.904	1076.75
2379.066	1107.93
2382.227	1169.11
2385.388	1170.55
2388.548	1109.41
2391.709	1101.96
2394.869	1135.07
2398.029	1137.4
2401.188	1137.44
2404.347	1174.73
2407.506	1219.34
2410.665	1174.44
2413.823	1178.64
2416.981	1179.86
2420.139	1115.27
2423.296	1195.54
2426.453	1272.57
2429.61	1211.62
2432.767	1295.44
2435.923	1341.81
2439.079	1279.59
2442.235	1307.69
2445.391	1340.63
2448.546	1328.81
2451.701	1411
2454.855	1509.53
2458.009	1340.18
2461.163	1369.78
2464.317	1381.29
2467.471	1349.81
2470.624	1397.1
2473.777	1376.72
2476.929	1331.1
2480.082	1423.9
2483.234	1491.67
2486.385	1512.18
2489.537	1547.22
2492.688	1705.41
2495.839	1664.19
2498.989	1720.7
2502.14	1730.86
2505.29	1644.09
2508.439	1830.76
2511.589	1885.48
2514.738	1821.02
2517.887	1809.56
2521.035	1676.45
2524.183	1656.18
2527.331	1640.22
2530.479	1602.22
2533.627	1634.24
